File format V 1.0
ven. 9. déc. 18:53:17 2016
Operator : 
Comments : 

=============================================
SpectroFluorometer parameters
Mode : 3D measurement
Data : Fluorescence
Phospho. : Ordinary
Spectrum : Fluorescence

Scan speed : 2400 nm/mn
Response : 100 ms
PM Voltage : 700 V
Shutter : On

Lambda Ex. Start : 203
Lambda Ex. End : 603
Lambda Ex. Step : 5
Ex. Slit : 5 nm

Lambda Em. Start : 200
Lambda Em. End : 600
Lambda Em. Step : 5
Em. Slit : 5 nm

Repetition : 1
Decal lambda em : 10
=============================================
DATA
Ex : 203
200 14.1098
205 10.8672
210 14.4559
215 17.0093
220 17.126
225 18.4111
230 14.3446
235 18.1449
240 16.5778
245 16.8254
250 19.9719
255 19.3967
260 16.4224
265 18.7771
270 21.876
275 14.6331
280 15.6638
285 15.6026
290 15.7476
295 13.2964
300 21.1878
305 14.7102
310 14.7426
315 14.7957
320 13.7778
325 22.8882
330 19.3538
335 17.3376
340 19.393
345 16.1789
350 22.1089
355 19.5006
360 20.6107
365 19.6998
370 23.7833
375 19.3099
380 17.5114
385 20.2054
390 19.7072
395 21.087
400 21.0387
405 17.3481
410 11.7829
415 20.024
420 17.9289
425 18.181
430 18.5815
435 18.3029
440 18.1069
445 19.4515
450 20.5942
455 16.8296
460 22.1728
465 22.3321
470 23.1061
475 18.8972
480 19.3134
485 25.2813
490 20.2294
495 22.1673
500 21.9629
505 18.4043
510 14.7227
515 26.066
520 19.1297
525 17.3642
530 20.4558
535 19.4012
540 15.9852
545 17.4061
550 22.6056
555 22.3075
560 18.2986
565 17.8457
570 13.1678
575 15.8698
580 18.784
585 22.7476
590 14.5995
595 15.6443
600 15.5164
Ex : 208
200 16.2237
205 19.7717
210 16.128
215 17.7271
220 14.352
225 15.6876
230 16.5273
235 15.3714
240 18.5273
245 15.1941
250 16.5258
255 20.8131
260 16.917
265 17.1492
270 15.9633
275 21.3966
280 15.0245
285 12.6146
290 16.1341
295 16.4239
300 15.571
305 15.538
310 14.2191
315 19.6987
320 18.7185
325 18.4487
330 21.3537
335 16.7343
340 24.8742
345 21.4301
350 21.6435
355 18.043
360 28.5544
365 19.5264
370 19.0309
375 22.475
380 19.076
385 24.3566
390 18.2088
395 22.4716
400 21.602
405 20.6024
410 17.9306
415 17.7444
420 21.7048
425 18.4659
430 15.7254
435 20.3284
440 20.6318
445 23.3296
450 18.8838
455 19.2679
460 17.8451
465 21.3955
470 21.5138
475 28.7723
480 17.6341
485 17.628
490 18.1326
495 23.5313
500 19.4813
505 16.9774
510 18.9033
515 23.2328
520 23.238
525 16.733
530 19.7039
535 23.3474
540 17.3565
545 16.314
550 19.9048
555 18.2812
560 15.8873
565 16.199
570 20.679
575 16.5324
580 24.1915
585 19.5327
590 17.1414
595 13.8633
600 44.7062
Ex : 213
200 18.3293
205 14.689
210 17.3352
215 18.3329
220 13.2367
225 19.6876
230 13.6247
235 14.9332
240 14.4484
245 15.3803
250 18.7722
255 21.4179
260 16.9762
265 17.3332
270 21.457
275 20.3792
280 16.4625
285 17.2266
290 18.463
295 15.7739
300 17.6482
305 14.7068
310 13.3266
315 16.048
320 12.5994
325 18.7978
330 20.4721
335 18.3194
340 21.8656
345 21.4289
350 20.0664
355 20.4454
360 22.0788
365 17.7109
370 20.1074
375 23.5192
380 22.9105
385 24.5996
390 19.353
395 19.8871
400 24.8332
405 19.1473
410 20.5008
415 18.3872
420 23.8734
425 24.3469
430 18.9378
435 20.6052
440 18.8021
445 16.7887
450 22.3916
455 25.2599
460 18.893
465 19.9643
470 17.8979
475 25.6434
480 27.5282
485 18.7996
490 14.5359
495 19.6774
500 17.5319
505 19.1149
510 22.1803
515 17.9085
520 19.2735
525 16.7138
530 16.866
535 13.3946
540 15.3526
545 13.5994
550 18.1752
555 19.405
560 20.1888
565 23.3271
570 22.5239
575 17.0432
580 17.4067
585 19.8909
590 17.5755
595 19.1215
600 14.3613
Ex : 218
200 14.0219
205 15.3179
210 14.7923
215 11.7932
220 15.9976
225 16.6988
230 16.7245
235 16.8327
240 14.6748
245 15.7645
250 18.3347
255 20.5371
260 15.0521
265 11.1996
270 13.0096
275 13.3156
280 14.464
285 20.6833
290 19.6501
295 13.5545
300 14.3149
305 15.8557
310 19.4263
315 15.6303
320 23.9877
325 18.1234
330 19.9194
335 16.462
340 18.0959
345 14.305
350 20.9622
355 16.5368
360 14.4275
365 20.0394
370 23.1142
375 18.664
380 15.9443
385 19.0846
390 24.5117
395 25.1713
400 24.0331
405 24.5583
410 23.4616
415 20.5886
420 23.0566
425 20.9406
430 15.6547
435 14.6962
440 19.578
445 21.522
450 20.9312
455 16.3138
460 18.3452
465 21.728
470 17.1352
475 18.1751
480 18.1178
485 20.3825
490 19.0638
495 23.9337
500 15.9432
505 16.825
510 19.2012
515 22.6778
520 23.33
525 18.2555
530 18.0071
535 20.6594
540 16.4113
545 16.9439
550 16.3661
555 20.1717
560 20.5089
565 18.0099
570 18.9385
575 16.9674
580 21.3055
585 19.1332
590 18.5666
595 18.8665
600 10.5659
Ex : 223
200 17.6395
205 18.8759
210 19.6347
215 14.1355
220 15.6821
225 10.0747
230 15.4346
235 15.9054
240 15.407
245 14.7226
250 18.0978
255 16.419
260 16.6353
265 18.5651
270 15.6217
275 16.2116
280 15.299
285 15.6129
290 14.8557
295 17.812
300 16.7863
305 15.4852
310 16.6253
315 12.674
320 12.8743
325 14.2955
330 17.0233
335 19.964
340 18.2286
345 18.9224
350 19.2241
355 19.8452
360 13.0793
365 24.4336
370 22.1275
375 22.5677
380 19.1924
385 24.4822
390 13.9882
395 18.3799
400 18.9191
405 17.6184
410 17.4193
415 20.5925
420 17.7411
425 16.4363
430 19.0413
435 19.0198
440 16.0107
445 19.4134
450 20.6192
455 17.9631
460 18.1164
465 18.0875
470 18.0773
475 16.6333
480 19.0119
485 18.8021
490 17.8417
495 12.3644
500 14.1443
505 18.6868
510 17.2029
515 12.3604
520 14.4854
525 18.5119
530 18.1856
535 12.8446
540 16.5161
545 17.6274
550 18.4633
555 11.8847
560 16.392
565 16.6577
570 16.4273
575 16.3493
580 18.1206
585 14.6552
590 13.2332
595 19.8919
600 6.69464
Ex : 228
200 13.8507
205 10.9131
210 10.3077
215 15.3137
220 15.6167
225 11.5041
230 11.2259
235 17.2532
240 15.7589
245 13.2748
250 14.7483
255 17.0569
260 16.6978
265 13.9069
270 12.1791
275 15.6337
280 16.0584
285 15.9123
290 13.4728
295 17.4022
300 18.4384
305 18.0804
310 16.8844
315 14.7949
320 10.3538
325 13.5559
330 15.3744
335 18.3014
340 17.0486
345 15.5837
350 14.3955
355 16.4177
360 16.0182
365 14.2117
370 15.9737
375 17.0391
380 21.3458
385 18.3362
390 18.6547
395 15.9033
400 23.8869
405 16.4725
410 18.2444
415 20.8637
420 17.6235
425 16.5885
430 20.2126
435 11.7682
440 18.8467
445 18.3459
450 16.6501
455 18.1531
460 18.2838
465 17.2764
470 17.0888
475 18.7069
480 22.6897
485 18.5186
490 17.3092
495 18.4052
500 15.0387
505 16.6691
510 15.6409
515 21.2471
520 15.1151
525 17.2089
530 12.1403
535 12.6889
540 14.737
545 16.0212
550 14.5996
555 14.1206
560 17.7462
565 16.0204
570 14.0187
575 21.1785
580 15.4243
585 17.6798
590 17.2965
595 15.1114
600 14.7911
Ex : 233
200 11.528
205 15.2167
210 12.309
215 17.3048
220 8.34417
225 12.3927
230 8.38684
235 13.0397
240 16.5449
245 13.4481
250 12.2618
255 17.557
260 12.5736
265 16.72
270 13.8297
275 11.3811
280 11.5338
285 11.3547
290 12.8128
295 15.3911
300 13.4243
305 16.3942
310 14.2341
315 13.4861
320 15.7495
325 17.042
330 13.231
335 15.4449
340 13.9829
345 17.2718
350 19.1888
355 19.5896
360 16.5641
365 16.6784
370 20.032
375 17.3362
380 17.312
385 19.0976
390 13.7527
395 15.0763
400 16.0903
405 17.787
410 16.5031
415 15.0976
420 15.1348
425 17.4355
430 13.874
435 17.7279
440 16.7375
445 14.2259
450 16.7637
455 15.356
460 13.3072
465 15.0901
470 17.9012
475 15.9937
480 18.4418
485 13.0749
490 11.8486
495 11.2688
500 16.7824
505 14.8786
510 14.8407
515 11.5528
520 12.8568
525 14.2885
530 14.1397
535 15.4338
540 15.1091
545 12.2803
550 12.4435
555 7.99925
560 10.5661
565 16.2547
570 15.0143
575 12.9691
580 15.1531
585 16.1892
590 12.7649
595 12.6586
600 8.30859
Ex : 238
200 16.6009
205 12.1263
210 10.6011
215 10.9117
220 11.0897
225 11.7285
230 12.5161
235 10.5384
240 9.00404
245 7.5112
250 12.6281
255 12.6087
260 11.373
265 11.56
270 13.9079
275 11.8863
280 9.92926
285 9.90606
290 13.8635
295 14.5484
300 8.99952
305 13.4776
310 14.9094
315 9.95847
320 8.44264
325 11.92
330 13.5655
335 18.8385
340 16.5654
345 15.0145
350 15.2532
355 14.1308
360 14.1746
365 12.521
370 12.9762
375 13.0205
380 13.922
385 15.1689
390 12.5962
395 15.3808
400 14.8218
405 15.3258
410 11.2971
415 11.9526
420 13.322
425 13.2943
430 17.4606
435 14.7445
440 14.3151
445 14.4383
450 16.7975
455 14.3551
460 11.909
465 14.9709
470 16.6867
475 13.7071
480 15.6649
485 14.2053
490 13.7598
495 11.6056
500 12.5324
505 14.1621
510 11.7893
515 16.728
520 11.7053
525 12.3336
530 10.8259
535 10.7634
540 10.8935
545 13.8112
550 12.3436
555 13.9188
560 14.4724
565 13.509
570 16.055
575 12.7483
580 11.7198
585 12.3303
590 12.5227
595 10.5462
600 1.20011
Ex : 243
200 7.87209
205 9.50725
210 11.1625
215 11.3382
220 8.57416
225 9.90539
230 10.0582
235 8.74976
240 9.75327
245 10.6064
250 7.99399
255 11.2737
260 11.7724
265 11.1553
270 9.17279
275 8.88282
280 10.0997
285 7.34576
290 8.93484
295 10.6066
300 11.6483
305 10.1598
310 11.1311
315 10.1486
320 11.9591
325 11.1624
330 18.0351
335 14.381
340 12.1409
345 11.8238
350 11.3903
355 10.7393
360 9.53066
365 13.269
370 17.0746
375 12.89
380 11.6615
385 12.1075
390 15.1255
395 15.8617
400 13.2015
405 12.1071
410 12.6936
415 12.1186
420 12.3044
425 10.0961
430 13.6755
435 12.0062
440 15.0854
445 12.7549
450 12.3606
455 12.3563
460 12.8328
465 11.0908
470 12.6789
475 11.4807
480 12.1902
485 12.8605
490 10.3458
495 11.3183
500 12.3739
505 13.2986
510 10.5058
515 9.68301
520 9.42824
525 13.0049
530 11.8785
535 9.50683
540 12.125
545 12.7918
550 10.6447
555 11.4368
560 11.7865
565 9.69493
570 10.7507
575 11.5881
580 9.66348
585 11.2858
590 9.78578
595 10.1291
600 4.69747
Ex : 248
200 9.69394
205 7.71308
210 9.20181
215 9.31274
220 8.08019
225 8.68864
230 9.45128
235 8.50424
240 7.66615
245 7.67042
250 8.12901
255 8.88691
260 8.3506
265 9.40703
270 7.8257
275 6.64945
280 9.16571
285 10.107
290 6.745
295 7.03872
300 10.2491
305 8.01798
310 6.31126
315 7.55922
320 10.4052
325 13.7856
330 9.20162
335 9.0201
340 9.53682
345 9.63451
350 11.218
355 10.1243
360 11.4494
365 9.15775
370 8.58463
375 10.2566
380 10.2209
385 9.12242
390 8.75135
395 11.658
400 11.5864
405 11.1007
410 8.48832
415 10.1926
420 10.5108
425 12.2846
430 12.6204
435 11.9873
440 15.1696
445 10.1113
450 8.78561
455 9.44806
460 11.432
465 12.3164
470 12.2115
475 8.51177
480 11.5727
485 10.8689
490 9.39835
495 11.4796
500 10.9421
505 8.94511
510 8.88785
515 9.52334
520 10.143
525 9.60408
530 7.60408
535 8.92171
540 8.92675
545 8.86387
550 7.84267
555 10.9796
560 9.44401
565 9.00872
570 10.6403
575 6.22018
580 9.56701
585 9.26385
590 10.0138
595 8.53415
600 7.02688
Ex : 253
200 6.31738
205 6.35588
210 6.90889
215 5.84438
220 5.39614
225 8.80647
230 7.71755
235 6.71038
240 5.65372
245 7.00609
250 6.58851
255 8.22409
260 5.52823
265 7.94084
270 7.69787
275 6.02791
280 5.20581
285 7.09501
290 8.6758
295 7.11364
300 6.19808
305 6.50471
310 7.65033
315 8.6487
320 7.44562
325 7.79142
330 8.29558
335 11.3227
340 10.248
345 10.8897
350 9.45693
355 9.54008
360 9.65377
365 9.12199
370 8.92927
375 10.0449
380 9.32782
385 9.04438
390 9.57426
395 10.2074
400 9.86625
405 8.95877
410 9.36087
415 11.3274
420 8.40085
425 7.91176
430 6.52992
435 10.5123
440 9.17895
445 9.23555
450 7.70421
455 10.1885
460 7.46057
465 8.7504
470 6.70909
475 6.98494
480 10.2292
485 9.13093
490 8.95323
495 9.59081
500 9.43611
505 7.45133
510 8.84857
515 7.30449
520 9.35889
525 7.01622
530 7.7037
535 9.46754
540 6.41489
545 6.63486
550 7.88158
555 8.74387
560 7.93929
565 7.40153
570 8.54868
575 7.50598
580 8.95978
585 6.19135
590 8.95253
595 8.02596
600 8.59376
Ex : 258
200 4.93962
205 5.50592
210 5.49255
215 4.34849
220 6.37902
225 4.5515
230 5.52544
235 5.64878
240 6.53419
245 5.40874
250 4.7277
255 6.56489
260 5.89162
265 5.99303
270 6.49316
275 5.99704
280 5.28598
285 5.0908
290 6.38075
295 5.95525
300 5.25494
305 5.16344
310 5.51327
315 5.2706
320 4.99011
325 5.96353
330 6.18943
335 6.03559
340 8.11525
345 8.03056
350 7.06718
355 6.89197
360 7.5531
365 7.20515
370 6.07234
375 5.72951
380 6.06131
385 8.43417
390 6.85603
395 7.28315
400 8.78021
405 6.90425
410 9.93359
415 7.32861
420 8.36405
425 7.87332
430 7.68841
435 7.11414
440 6.2887
445 7.20843
450 6.9394
455 6.7562
460 7.46459
465 6.64385
470 7.35844
475 6.01623
480 7.34179
485 5.31966
490 5.73024
495 6.9942
500 5.75935
505 5.24659
510 5.80663
515 6.38342
520 6.24989
525 4.85808
530 6.72972
535 5.87597
540 7.04719
545 6.73337
550 6.25037
555 6.44026
560 5.42289
565 6.07175
570 6.9791
575 5.63329
580 5.21977
585 6.15123
590 7.34124
595 6.02087
600 2.11671
Ex : 263
200 4.49851
205 3.48907
210 4.94335
215 4.08008
220 4.78711
225 4.73494
230 4.81963
235 5.09008
240 5.02784
245 4.01034
250 4.18654
255 4.14568
260 4.31608
265 4.33271
270 4.39728
275 4.73135
280 3.79762
285 4.13624
290 3.68569
295 3.96558
300 4.27362
305 4.36022
310 4.79364
315 4.73557
320 6.05574
325 4.59729
330 5.71978
335 5.09521
340 4.65716
345 5.83748
350 6.13927
355 4.98928
360 5.6217
365 5.03682
370 6.11194
375 5.78132
380 6.09712
385 4.95808
390 4.67383
395 5.58569
400 5.41047
405 4.95465
410 5.34444
415 5.87084
420 5.60706
425 4.76687
430 5.07573
435 4.85159
440 5.1032
445 5.97925
450 5.30456
455 5.84942
460 6.87451
465 5.31709
470 6.33658
475 6.94087
480 7.33736
485 4.64799
490 4.85758
495 4.65079
500 4.88372
505 5.38846
510 5.83376
515 5.34455
520 5.83902
525 5.48293
530 5.65969
535 4.4094
540 5.75402
545 4.25673
550 4.58123
555 4.25429
560 4.75891
565 4.84384
570 4.49719
575 4.35244
580 4.33096
585 3.99663
590 6.436
595 4.61038
600 4.5421
Ex : 268
200 3.54064
205 3.44558
210 3.42203
215 3.12026
220 3.09357
225 3.31959
230 3.27464
235 3.41706
240 3.3626
245 3.31585
250 3.28034
255 2.73968
260 3.70448
265 3.84113
270 3.38657
275 3.48285
280 2.36075
285 2.71103
290 2.51132
295 3.19321
300 3.27428
305 2.85931
310 4.17618
315 3.60916
320 3.44184
325 3.41494
330 3.61654
335 4.10673
340 3.6046
345 4.37394
350 5.46348
355 5.11953
360 4.16724
365 4.38978
370 4.32443
375 4.40547
380 5.50552
385 5.10586
390 5.77678
395 5.72065
400 4.84345
405 4.37753
410 4.62593
415 3.87973
420 4.41887
425 3.48032
430 4.46668
435 4.6075
440 4.78326
445 4.36438
450 4.57765
455 4.43621
460 3.64615
465 3.87701
470 3.30562
475 4.65895
480 4.80122
485 4.65028
490 3.78664
495 3.65779
500 4.19275
505 2.99963
510 3.44791
515 3.52986
520 3.88678
525 4.12532
530 3.59065
535 3.70066
540 3.69105
545 3.47638
550 4.16787
555 3.4188
560 2.96767
565 4.1219
570 3.16278
575 3.06764
580 2.80367
585 3.41919
590 3.38945
595 2.96107
600 2.87472
Ex : 273
200 2.80172
205 2.62466
210 2.48543
215 2.41491
220 3.00205
225 2.55205
230 2.8978
235 2.59213
240 3.06276
245 2.77334
250 3.2399
255 2.86376
260 3.03055
265 2.32958
270 2.64751
275 3.43236
280 3.08509
285 2.67374
290 2.87008
295 2.69095
300 2.91507
305 2.4094
310 2.74735
315 3.24711
320 2.49878
325 3.12741
330 3.29589
335 3.15606
340 2.68554
345 3.37704
350 3.48686
355 3.06714
360 3.65707
365 4.40193
370 4.71533
375 3.10793
380 3.60136
385 3.35425
390 4.12157
395 3.59175
400 4.6182
405 3.8663
410 4.00175
415 3.9003
420 3.4802
425 2.78057
430 4.26773
435 3.33765
440 3.41296
445 3.45407
450 3.84701
455 4.03311
460 4.3199
465 4.39054
470 3.6378
475 3.77248
480 2.91696
485 3.29879
490 2.57465
495 3.82675
500 2.54899
505 2.58286
510 3.06159
515 3.2318
520 2.94917
525 4.00763
530 2.65026
535 3.00481
540 3.65106
545 3.53413
550 3.80737
555 2.96193
560 3.60125
565 4.00189
570 2.99458
575 2.49594
580 3.41408
585 2.37034
590 2.50991
595 2.42203
600 6.06201
Ex : 278
200 2.49767
205 2.37199
210 2.3854
215 2.02416
220 2.08885
225 1.91203
230 2.46085
235 2.3891
240 2.21925
245 2.05149
250 2.08384
255 1.70427
260 2.49835
265 1.70376
270 2.61187
275 1.93324
280 2.0967
285 2.20165
290 2.04326
295 2.61573
300 1.50915
305 1.98494
310 2.00881
315 2.36632
320 2.33639
325 2.65191
330 2.62265
335 2.80795
340 2.95844
345 2.5365
350 2.81597
355 2.81206
360 3.27729
365 3.28176
370 3.34652
375 3.18517
380 3.7716
385 3.14215
390 2.28464
395 2.85649
400 3.1695
405 3.24332
410 3.269
415 2.62501
420 3.56571
425 3.13524
430 2.78418
435 2.62724
440 3.17458
445 3.88169
450 3.64159
455 3.27317
460 3.1518
465 3.283
470 3.12647
475 2.70248
480 2.25521
485 2.84051
490 2.53174
495 2.81059
500 2.3287
505 2.09676
510 2.54315
515 2.10532
520 1.9594
525 2.6312
530 2.57425
535 2.31468
540 2.55641
545 2.4053
550 3.09225
555 2.73479
560 2.62395
565 1.97199
570 2.61126
575 2.47744
580 2.90807
585 3.04163
590 2.30558
595 1.83346
600 0.494513
Ex : 283
200 1.72911
205 2.15803
210 1.97796
215 1.59371
220 1.49923
225 1.70101
230 2.14779
235 2.1003
240 1.69362
245 1.49175
250 1.97333
255 1.86049
260 2.41136
265 2.14019
270 1.82739
275 1.79164
280 1.93702
285 2.16257
290 1.73251
295 1.79349
300 1.89425
305 1.79025
310 1.96857
315 2.1103
320 1.76899
325 2.59071
330 2.17888
335 2.63451
340 3.00885
345 2.81318
350 2.90895
355 3.01589
360 2.81054
365 2.2739
370 2.72011
375 2.8503
380 2.78629
385 3.3935
390 3.19141
395 2.86134
400 3.20065
405 3.37837
410 2.48903
415 2.85564
420 2.65411
425 2.24448
430 2.47122
435 2.34069
440 2.41791
445 2.71353
450 1.93321
455 2.99229
460 2.65317
465 2.31274
470 2.26258
475 2.61334
480 2.19573
485 2.39446
490 2.47405
495 2.29516
500 2.20754
505 1.95428
510 1.98899
515 1.81178
520 2.24672
525 2.16027
530 2.0124
535 2.29447
540 1.75412
545 2.12186
550 2.00752
555 1.95205
560 2.40446
565 2.07991
570 2.58142
575 1.81196
580 2.0436
585 2.17837
590 2.25925
595 2.03245
600 0.231285
Ex : 288
200 1.55357
205 1.485
210 1.35565
215 1.28038
220 1.68048
225 1.39635
230 1.73654
235 1.55206
240 1.65363
245 1.5789
250 1.29909
255 1.41398
260 1.26647
265 1.30902
270 1.33187
275 1.19735
280 1.72336
285 1.43317
290 1.34551
295 1.68813
300 1.5265
305 1.89815
310 1.65334
315 1.27352
320 1.585
325 1.92631
330 2.0582
335 2.40616
340 2.23101
345 2.16041
350 2.56915
355 2.10915
360 2.33818
365 2.10478
370 2.3385
375 2.08552
380 2.32176
385 3.03213
390 2.49573
395 2.39241
400 2.30356
405 2.54199
410 2.60061
415 2.22204
420 2.87718
425 2.66886
430 2.07513
435 2.30247
440 2.50535
445 2.41453
450 2.32326
455 2.21266
460 2.38337
465 2.20132
470 2.31099
475 2.45982
480 1.92992
485 2.13444
490 2.03037
495 1.6785
500 2.04697
505 1.81527
510 1.74448
515 1.74791
520 1.78531
525 1.63555
530 2.15584
535 1.95016
540 1.48336
545 1.33338
550 1.42891
555 1.54464
560 2.05708
565 1.96325
570 2.65853
575 2.3848
580 1.54917
585 1.44917
590 1.21679
595 1.32365
600 1.5605
Ex : 293
200 1.6662
205 1.40939
210 1.22116
215 1.2115
220 1.46863
225 1.02784
230 1.01073
235 1.22884
240 1.19294
245 1.00761
250 1.01259
255 1.25732
260 1.07247
265 1.28351
270 1.32416
275 1.1855
280 0.873339
285 1.46359
290 1.55719
295 1.3528
300 1.19673
305 1.30984
310 1.13576
315 1.28522
320 1.31807
325 1.57744
330 1.75129
335 2.30089
340 2.01835
345 1.84987
350 2.04091
355 2.02481
360 1.94268
365 2.07121
370 2.29106
375 1.98852
380 2.19726
385 1.95631
390 2.10883
395 2.23694
400 2.60125
405 2.32495
410 2.27408
415 2.25712
420 1.88086
425 1.70487
430 1.75452
435 1.79764
440 2.0274
445 2.03741
450 2.17825
455 2.2409
460 2.09015
465 1.45706
470 2.07675
475 1.91706
480 2.08431
485 1.92721
490 1.48543
495 1.5595
500 1.51729
505 1.56228
510 1.79767
515 1.68993
520 2.1847
525 1.42674
530 1.51357
535 1.64158
540 1.46946
545 1.37937
550 1.61314
555 1.32232
560 1.57472
565 1.44735
570 1.34686
575 1.512
580 2.02002
585 1.89609
590 1.71937
595 1.12326
600 1.99066
Ex : 298
200 1.09477
205 1.03313
210 0.765626
215 0.789098
220 0.923293
225 1.03366
230 1.01667
235 1.27345
240 1.26574
245 1.14862
250 1.64347
255 1.40836
260 1.06791
265 1.19308
270 1.20637
275 1.05627
280 1.03057
285 0.979823
290 0.921038
295 1.38492
300 1.20573
305 1.11662
310 1.09478
315 1.18111
320 1.16559
325 1.52483
330 1.36778
335 1.78445
340 2.08335
345 1.73523
350 1.90716
355 1.66248
360 1.76603
365 1.68343
370 1.89401
375 1.87519
380 1.91043
385 2.39256
390 1.96325
395 1.88237
400 2.17685
405 1.83641
410 2.04782
415 2.6231
420 2.55521
425 1.6728
430 1.59866
435 1.58316
440 1.54469
445 1.77991
450 1.82867
455 1.55848
460 1.56586
465 1.78052
470 1.58647
475 1.54634
480 1.65067
485 1.42361
490 1.57034
495 1.44517
500 1.4732
505 1.32619
510 1.54597
515 1.68926
520 1.35351
525 1.41665
530 1.34979
535 1.20933
540 1.31207
545 1.11873
550 1.38168
555 1.36035
560 1.31826
565 1.26147
570 1.2494
575 1.06275
580 1.24979
585 1.39093
590 1.70969
595 1.66559
600 1.57326
Ex : 303
200 0.886966
205 1.20248
210 1.16931
215 1.05872
220 1.04298
225 1.04683
230 1.16989
235 0.830994
240 1.11294
245 1.06731
250 1.17648
255 1.02954
260 1.11963
265 1.04627
270 1.05945
275 1.24631
280 1.11987
285 1.36863
290 1.23408
295 1.24312
300 1.18727
305 1.00365
310 0.857499
315 0.898972
320 0.834823
325 1.47566
330 1.5007
335 1.81175
340 1.81765
345 1.6765
350 1.43747
355 1.6082
360 1.68262
365 1.64967
370 2.03819
375 1.68837
380 1.68229
385 1.62878
390 1.52258
395 2.05721
400 2.10426
405 1.44148
410 1.58989
415 1.8967
420 1.72922
425 1.86325
430 1.72195
435 1.86474
440 1.58285
445 1.79183
450 1.64933
455 1.45637
460 1.56688
465 1.43452
470 1.60424
475 1.61458
480 1.44635
485 1.20685
490 1.45954
495 1.29829
500 1.29214
505 1.24124
510 1.16559
515 1.43066
520 1.14709
525 1.1498
530 1.20059
535 1.14034
540 1.02638
545 1.09037
550 1.0645
555 0.974072
560 0.784743
565 1.05363
570 0.868419
575 0.941938
580 1.03718
585 0.953049
590 1.33456
595 1.26636
600 0.446222
Ex : 308
200 0.814304
205 0.843285
210 0.915999
215 0.542587
220 0.633389
225 0.86454
230 0.849197
235 0.919539
240 0.735855
245 0.697608
250 1.02847
255 1.02721
260 1.05353
265 0.905609
270 0.800317
275 0.791766
280 1.01715
285 0.865741
290 0.740059
295 0.932035
300 1.14512
305 1.30419
310 0.858427
315 1.08413
320 1.02168
325 1.31811
330 1.78932
335 2.29284
340 2.02492
345 2.20315
350 1.72744
355 1.93846
360 1.63109
365 1.42702
370 1.83618
375 1.68642
380 1.93628
385 1.57896
390 1.93758
395 1.91912
400 1.98244
405 1.87835
410 1.81248
415 1.6183
420 1.53091
425 1.40708
430 1.45762
435 1.34748
440 1.30493
445 1.48548
450 1.54799
455 1.63074
460 1.46404
465 1.62249
470 1.47252
475 1.21992
480 1.51049
485 1.17201
490 1.49305
495 1.23009
500 1.17995
505 1.02523
510 1.2247
515 1.26222
520 0.994214
525 1.00946
530 0.942108
535 1.10114
540 0.977102
545 1.21366
550 1.22886
555 1.18229
560 0.967794
565 0.996056
570 1.15453
575 1.07313
580 0.717736
585 0.887797
590 0.747009
595 0.7138
600 1.12856
Ex : 313
200 0.70052
205 0.69641
210 0.872454
215 0.746085
220 0.91003
225 0.888643
230 0.750213
235 0.717006
240 0.933551
245 0.696707
250 0.919012
255 0.791926
260 0.854299
265 0.773918
270 0.769329
275 0.742631
280 0.686003
285 0.769634
290 0.888739
295 0.847671
300 0.773426
305 1.18771
310 1.05386
315 0.87974
320 1.03326
325 1.47594
330 1.88709
335 1.80907
340 2.01323
345 1.60101
350 1.82418
355 1.49211
360 1.51373
365 1.64935
370 1.4735
375 1.58159
380 2.103
385 1.94846
390 1.93029
395 2.00912
400 1.9746
405 1.74721
410 1.75675
415 1.58151
420 1.98366
425 1.90618
430 1.84481
435 1.61653
440 1.97213
445 1.5311
450 1.74971
455 1.57105
460 1.39187
465 1.47152
470 1.81489
475 1.4277
480 1.07155
485 1.11317
490 1.32144
495 1.13969
500 1.07326
505 1.19212
510 1.12713
515 1.02037
520 1.03223
525 0.71423
530 0.803874
535 0.874189
540 0.765484
545 0.79925
550 0.959861
555 0.891346
560 0.850823
565 0.829491
570 0.578359
575 0.937721
580 1.03668
585 0.811852
590 0.837825
595 0.847361
600 0.0964265
Ex : 318
200 0.832008
205 0.532563
210 0.594234
215 0.760355
220 0.579305
225 0.480523
230 0.653498
235 0.613034
240 0.546777
245 0.66246
250 0.666999
255 0.683876
260 0.797102
265 0.652212
270 0.650839
275 0.746294
280 0.597827
285 0.639352
290 0.595758
295 0.589688
300 0.6446
305 0.682743
310 1.02845
315 3.25249
320 2.66427
325 1.94067
330 2.48866
335 2.54222
340 2.26609
345 2.39244
350 3.13639
355 3.60151
360 4.17349
365 4.2382
370 5.18455
375 6.07963
380 6.6541
385 7.13269
390 7.47967
395 7.15433
400 8.30944
405 7.78719
410 7.87451
415 8.2837
420 8.16002
425 7.43005
430 7.49702
435 7.41224
440 6.82926
445 6.31724
450 6.13046
455 5.59061
460 5.24166
465 5.19336
470 5.14408
475 4.21649
480 3.94223
485 4.04395
490 3.74224
495 3.32202
500 2.98398
505 2.42476
510 2.35299
515 1.99051
520 1.99449
525 1.79534
530 1.53114
535 1.43491
540 1.26104
545 1.09475
550 1.23355
555 1.35802
560 1.13206
565 1.15064
570 0.91441
575 0.886848
580 1.11668
585 0.697774
590 0.74618
595 1.01403
600 0.410794
Ex : 323
200 0.649624
205 0.498131
210 0.676571
215 0.581638
220 0.700185
225 0.864562
230 0.593181
235 0.546127
240 0.638348
245 0.425333
250 0.546148
255 0.611723
260 0.614983
265 0.770088
270 0.698411
275 0.683715
280 0.784439
285 0.581646
290 0.679715
295 0.632245
300 0.70048
305 0.661191
310 0.779508
315 26.362
320 125.462
325 52.948
330 10.064
335 5.89531
340 6.13095
345 7.16048
350 9.65418
355 12.809
360 14.3595
365 17.3197
370 20.1737
375 22.9658
380 26.113
385 30.9967
390 31.4451
395 33.6309
400 35.4583
405 35.9737
410 35.1077
415 35.5805
420 34.1207
425 33.4772
430 32.3362
435 31.0296
440 28.885
445 26.9331
450 26.1326
455 24.6045
460 23.64
465 21.4668
470 19.8195
475 18.0548
480 16.8791
485 14.4901
490 13.595
495 12.4448
500 10.544
505 9.79669
510 8.31815
515 7.70894
520 6.65917
525 5.50639
530 4.76482
535 4.46465
540 4.21261
545 3.37968
550 3.23357
555 2.73457
560 2.36668
565 2.07638
570 1.96326
575 1.65159
580 1.35443
585 1.43433
590 1.2014
595 1.00465
600 1.12476
Ex : 328
200 0.664253
205 0.506691
210 0.676046
215 0.742568
220 0.637362
225 0.584678
230 0.480495
235 0.72446
240 0.52158
245 0.599111
250 0.656819
255 0.700119
260 0.689688
265 0.563093
270 0.667271
275 0.664458
280 0.720981
285 0.7235
290 0.836239
295 0.891575
300 0.865644
305 0.832072
310 1.03358
315 8.2806
320 316.674
325 787.6
330 230.484
335 33.4379
340 11.4005
345 10.5245
350 11.5515
355 15.0931
360 19.8898
365 22.4359
370 24.6777
375 27.6713
380 31.364
385 35.0572
390 37.2654
395 40.6555
400 41.9611
405 42.2484
410 42.5817
415 42.5944
420 41.9702
425 40.1994
430 38.4129
435 37.1092
440 34.3494
445 33.2964
450 31.4799
455 29.7097
460 27.8893
465 25.4138
470 23.744
475 20.8683
480 19.7242
485 18.4735
490 16.5782
495 14.2125
500 13.0072
505 11.5594
510 10.4811
515 8.93091
520 8.03092
525 7.01091
530 6.36767
535 5.60097
540 5.01898
545 4.30708
550 3.91466
555 3.86482
560 3.06019
565 2.37542
570 2.38125
575 1.98654
580 1.56006
585 1.47234
590 1.4029
595 1.20527
600 1.08344
Ex : 333
200 0.647417
205 0.690492
210 0.680022
215 0.691643
220 0.629612
225 0.601634
230 0.757715
235 0.833203
240 0.645694
245 0.778465
250 0.757546
255 0.607929
260 0.566162
265 0.698109
270 0.810114
275 0.743659
280 0.871685
285 0.837533
290 0.782645
295 0.790128
300 0.985975
305 1.05447
310 1.08994
315 1.63902
320 47.5157
325 971.005
330 1646.92
335 416.048
340 55.419
345 13.9584
350 9.76947
355 9.09166
360 12.7263
365 17.4335
370 18.1444
375 17.8145
380 18.7513
385 21.1929
390 23.6036
395 24.654
400 24.8705
405 24.9747
410 26.4426
415 26.0526
420 24.7798
425 24.2134
430 23.1888
435 21.9227
440 21.1212
445 20.1255
450 18.6696
455 18.2766
460 16.705
465 15.0284
470 13.9521
475 13.6923
480 12.3646
485 11.2751
490 10.0358
495 9.29759
500 8.53069
505 7.68042
510 6.7491
515 5.77983
520 5.54811
525 5.1405
530 4.49844
535 4.00796
540 3.46436
545 3.68148
550 3.17283
555 2.88284
560 2.40495
565 2.39853
570 2.23869
575 1.83837
580 1.68217
585 1.50951
590 1.14165
595 1.56718
600 0.66916
Ex : 338
200 0.499243
205 0.492923
210 0.725816
215 0.695279
220 0.624441
225 0.732693
230 0.525721
235 0.604997
240 0.51374
245 0.628487
250 0.654706
255 0.60247
260 0.770873
265 0.618106
270 0.637177
275 0.844966
280 0.688055
285 0.647765
290 0.853974
295 0.906367
300 0.94807
305 1.31161
310 1.35945
315 1.32523
320 2.07574
325 91.1489
330 1471.85
335 2138.33
340 507.865
345 65.4643
350 14.0632
355 7.89228
360 6.44109
365 8.19832
370 12.4011
375 12.6931
380 11.4711
385 12.0011
390 13.1048
395 14.1877
400 13.6425
405 13.3542
410 14.4869
415 15.2225
420 14.7574
425 13.6203
430 13.109
435 12.9917
440 12.7401
445 12.1974
450 11.4274
455 10.5351
460 10.0729
465 9.04846
470 8.44377
475 7.93747
480 7.53515
485 7.11403
490 6.79326
495 5.86808
500 5.56912
505 5.06267
510 4.90823
515 4.30856
520 3.68795
525 3.50937
530 3.38591
535 3.09152
540 2.64915
545 2.59412
550 2.1692
555 2.35301
560 2.08394
565 1.98071
570 1.68021
575 1.63859
580 1.58643
585 1.29834
590 1.49719
595 1.27104
600 1.75814
Ex : 343
200 0.642229
205 0.601055
210 0.664427
215 0.60335
220 0.519759
225 0.627597
230 0.558914
235 0.56363
240 0.541626
245 0.604456
250 0.533918
255 0.602465
260 0.639529
265 0.745637
270 0.826974
275 0.632438
280 0.650576
285 0.826382
290 0.828342
295 0.788933
300 0.815709
305 0.911125
310 1.04934
315 1.23508
320 1.49641
325 3.12733
330 105.205
335 1660.08
340 2355.54
345 551.508
350 69.9925
355 13.7701
360 6.22024
365 4.82449
370 5.65433
375 9.20761
380 11.1751
385 9.77577
390 9.72316
395 10.0325
400 10.1092
405 10.2425
410 11.4737
415 11.3852
420 11.3236
425 10.519
430 10.2773
435 10.0389
440 10.4179
445 9.82718
450 8.77991
455 8.9434
460 8.28818
465 7.76507
470 6.93773
475 6.73577
480 6.42935
485 5.81994
490 5.66765
495 5.30804
500 5.08099
505 4.58038
510 4.32104
515 3.63268
520 3.28582
525 3.11794
530 2.88585
535 2.97984
540 2.76946
545 2.50754
550 2.28021
555 2.25454
560 2.05328
565 1.78035
570 1.61624
575 1.45417
580 1.38697
585 1.29075
590 1.10314
595 1.19799
600 1.16064
Ex : 348
200 0.621039
205 0.543929
210 0.574313
215 0.517998
220 0.565657
225 0.49384
230 0.573851
235 0.614416
240 0.612899
245 0.57873
250 0.581501
255 0.57201
260 0.655853
265 0.59771
270 0.740186
275 0.578235
280 0.655411
285 0.784926
290 0.725675
295 0.724024
300 0.797562
305 0.868158
310 0.850758
315 0.996942
320 1.19588
325 1.99943
330 3.54548
335 104.681
340 1657.51
345 2435.72
350 603.751
355 75.3923
360 13.5458
365 6.24519
370 4.44635
375 4.4064
380 8.15194
385 11.7205
390 11.5418
395 10.7329
400 9.48599
405 10.4358
410 11.6233
415 11.869
420 11.6288
425 10.8142
430 10.3385
435 10.5637
440 10.2162
445 9.83002
450 9.10802
455 8.6673
460 7.83927
465 7.77319
470 7.05647
475 6.75108
480 6.50324
485 5.88159
490 5.77022
495 5.19408
500 4.62536
505 4.39865
510 4.06319
515 3.75039
520 3.28198
525 3.05737
530 2.921
535 2.71601
540 2.6133
545 2.23858
550 2.18603
555 2.15313
560 1.84211
565 1.84458
570 1.69107
575 1.46446
580 1.2501
585 1.17339
590 1.25312
595 1.06699
600 1.04455
Ex : 353
200 0.457409
205 0.543188
210 0.472764
215 0.448301
220 0.500688
225 0.547252
230 0.547181
235 0.534909
240 0.521265
245 0.504613
250 0.54185
255 0.513783
260 0.684362
265 0.62594
270 0.561571
275 0.551482
280 0.487061
285 0.697746
290 0.643596
295 0.585407
300 0.703891
305 0.792993
310 0.949635
315 0.889605
320 0.990285
325 1.35402
330 2.02696
335 3.57221
340 106.757
345 1692.28
350 2404.07
355 578.06
360 71.9131
365 13.0157
370 5.64703
375 4.34412
380 4.46531
385 8.3154
390 13.6465
395 12.628
400 10.6808
405 10.6277
410 11.3355
415 12.6292
420 12.5045
425 11.6637
430 10.6878
435 10.8314
440 10.8157
445 10.4995
450 9.99162
455 8.82462
460 8.31288
465 7.90039
470 7.75482
475 7.23801
480 6.44994
485 6.09207
490 5.77619
495 5.18504
500 4.65659
505 4.61795
510 4.19433
515 3.77683
520 3.3223
525 2.87567
530 2.82294
535 2.637
540 2.5664
545 2.46812
550 2.07685
555 1.9843
560 1.85311
565 1.74652
570 1.63248
575 1.50405
580 1.43008
585 1.27261
590 1.07305
595 0.906786
600 1.48448
Ex : 358
200 0.52328
205 0.479646
210 0.494402
215 0.48676
220 0.59674
225 0.490461
230 0.539116
235 0.43809
240 0.648515
245 0.567004
250 0.649936
255 0.61335
260 0.462686
265 0.528967
270 0.484462
275 0.590547
280 0.649748
285 0.682295
290 0.546234
295 0.618037
300 0.716831
305 0.66489
310 0.734231
315 0.759118
320 0.783929
325 1.0394
330 1.4751
335 2.15934
340 3.88818
345 101.53
350 1608.34
355 2395.59
360 584.387
365 72.2281
370 12.684
375 5.50648
380 4.66132
385 5.71772
390 9.23894
395 13.2928
400 12.7706
405 10.8634
410 11.1175
415 12.2842
420 11.6744
425 10.6996
430 9.96564
435 10.0759
440 10.3523
445 10.1265
450 9.50649
455 9.06178
460 8.24262
465 8.05702
470 7.52284
475 6.81676
480 6.39617
485 6.15508
490 5.75433
495 5.38414
500 4.92438
505 4.48324
510 4.24263
515 4.14977
520 3.48993
525 3.0756
530 3.17484
535 2.65223
540 2.34532
545 2.2453
550 2.34154
555 1.89262
560 1.83762
565 1.79473
570 1.38276
575 1.43979
580 1.21997
585 1.16169
590 1.03061
595 0.95258
600 1.29462
Ex : 363
200 0.420866
205 0.339475
210 0.516096
215 0.553547
220 0.552091
225 0.517313
230 0.421776
235 0.565377
240 0.560302
245 0.504268
250 0.47974
255 0.459204
260 0.457201
265 0.531068
270 0.496761
275 0.500613
280 0.483674
285 0.4418
290 0.549794
295 0.53566
300 0.631541
305 0.53568
310 0.679662
315 0.612249
320 0.647424
325 0.766366
330 1.14029
335 1.49922
340 2.18015
345 3.52197
350 92.7027
355 1539.64
360 2357.25
365 597.437
370 73.9183
375 12.8258
380 6.51556
385 6.87787
390 8.34011
395 9.26774
400 12.4702
405 14.1211
410 13.9463
415 13.8646
420 12.6302
425 11.365
430 11.2679
435 10.9575
440 11.532
445 10.7986
450 10.1504
455 9.14194
460 8.96858
465 8.33692
470 8.12331
475 7.71399
480 7.02594
485 6.4864
490 5.85965
495 5.67663
500 4.9815
505 4.65788
510 4.29523
515 3.87501
520 3.59712
525 3.25566
530 3.14729
535 2.60653
540 2.57494
545 2.26193
550 2.10559
555 1.98409
560 1.73257
565 1.81512
570 1.4102
575 1.34777
580 1.19218
585 1.06527
590 0.984285
595 0.764538
600 0.583618
Ex : 368
200 0.368858
205 0.45987
210 0.367177
215 0.410426
220 0.386633
225 0.444908
230 0.368024
235 0.351158
240 0.464535
245 0.444344
250 0.452203
255 0.416848
260 0.509815
265 0.400818
270 0.487509
275 0.471622
280 0.434837
285 0.442026
290 0.542176
295 0.650866
300 0.581923
305 0.498785
310 0.449433
315 0.526174
320 0.627877
325 0.867977
330 0.955637
335 1.1565
340 1.4255
345 2.21542
350 3.55262
355 75.9652
360 1483.5
365 2396.76
370 625.836
375 77.7521
380 13.9018
385 8.79702
390 9.92097
395 10.3978
400 10.323
405 13.4837
410 17.3362
415 17.6719
420 16.496
425 14.1708
430 12.6105
435 12.5229
440 13.1333
445 12.8572
450 11.9943
455 10.6308
460 9.9051
465 9.44212
470 9.32372
475 8.66061
480 7.95721
485 7.51834
490 6.78247
495 5.95808
500 5.67939
505 4.93764
510 4.67996
515 4.06257
520 3.75567
525 3.4228
530 2.9908
535 2.75849
540 2.62591
545 2.41847
550 2.02699
555 1.95927
560 1.6923
565 1.66473
570 1.57304
575 1.34163
580 1.24432
585 0.982111
590 0.976546
595 0.886832
600 0.529985
Ex : 373
200 0.358699
205 0.43289
210 0.410139
215 0.435702
220 0.391013
225 0.413481
230 0.463651
235 0.4111
240 0.414924
245 0.458342
250 0.499458
255 0.363123
260 0.447465
265 0.366939
270 0.42178
275 0.389196
280 0.3927
285 0.41457
290 0.456778
295 0.430947
300 0.399114
305 0.542676
310 0.519654
315 0.526188
320 0.578509
325 0.702582
330 0.786184
335 1.05608
340 1.29031
345 1.54039
350 2.1542
355 3.32056
360 88.1423
365 1498.72
370 2367.08
375 614.083
380 76.4136
385 14.8965
390 10.7898
395 11.5152
400 9.89183
405 10.4543
410 14.0634
415 19.0384
420 17.2086
425 14.3896
430 12.9448
435 12.1693
440 12.7569
445 12.8115
450 11.6613
455 10.5207
460 9.59554
465 9.02431
470 8.65401
475 8.49701
480 7.83337
485 7.27017
490 6.36302
495 5.73229
500 5.23518
505 4.98194
510 4.62087
515 3.96305
520 3.75409
525 3.18985
530 3.12016
535 2.70308
540 2.4359
545 2.13018
550 2.21032
555 2.0649
560 1.78782
565 1.58272
570 1.43704
575 1.1788
580 1.06692
585 1.04534
590 0.895625
595 0.929122
600 0.546914
Ex : 378
200 0.411382
205 0.327281
210 0.319984
215 0.336781
220 0.304856
225 0.311924
230 0.308113
235 0.5242
240 0.387162
245 0.371053
250 0.363862
255 0.414467
260 0.467742
265 0.331734
270 0.43744
275 0.465653
280 0.405658
285 0.445801
290 0.421413
295 0.441881
300 0.535682
305 0.505843
310 0.456106
315 0.482221
320 0.519913
325 0.520275
330 0.65976
335 0.859048
340 0.895462
345 1.19493
350 1.55599
355 1.94764
360 3.45294
365 81.3843
370 1502.58
375 2407.26
380 626.009
385 78.8177
390 16.7737
395 10.0346
400 8.87644
405 8.37745
410 9.91506
415 12.8247
420 15.8191
425 13.9316
430 11.4302
435 11.0843
440 11.0065
445 10.8861
450 9.74006
455 8.97267
460 8.57903
465 8.07887
470 7.90175
475 7.48981
480 7.11094
485 6.51842
490 5.81846
495 5.71691
500 4.99961
505 4.69953
510 4.29902
515 4.24166
520 3.92835
525 3.25517
530 2.95884
535 2.73915
540 2.42987
545 2.34842
550 2.22998
555 1.94904
560 1.84201
565 1.66062
570 1.26419
575 1.21742
580 1.03335
585 1.03563
590 0.850147
595 0.706875
600 1.56109
Ex : 383
200 0.351665
205 0.335725
210 0.357134
215 0.322335
220 0.386892
225 0.361702
230 0.393021
235 0.271873
240 0.381993
245 0.457159
250 0.366789
255 0.419493
260 0.374868
265 0.405872
270 0.468821
275 0.370964
280 0.308051
285 0.411906
290 0.382149
295 0.391814
300 0.402529
305 0.389609
310 0.479009
315 0.463405
320 0.584556
325 0.542712
330 0.642281
335 0.717503
340 0.764883
345 1.10048
350 1.22724
355 1.54347
360 1.9984
365 3.37553
370 75.9137
375 1470.4
380 2477.41
385 656.862
390 84.4653
395 17.4852
400 9.60086
405 9.22962
410 10.702
415 11.9605
420 12.4005
425 14.2659
430 13.8681
435 12.3752
440 12.4349
445 11.3608
450 10.7719
455 9.84168
460 8.537
465 8.61791
470 8.28117
475 7.72361
480 7.28185
485 6.767
490 6.35131
495 5.73069
500 5.48825
505 5.06313
510 4.52993
515 3.9901
520 3.70303
525 3.30679
530 3.04045
535 2.67335
540 2.41166
545 2.35973
550 2.04234
555 1.89065
560 1.70584
565 1.56481
570 1.37382
575 1.23414
580 1.08226
585 1.00213
590 0.783167
595 0.730423
600 0.225607
Ex : 388
200 0.43615
205 0.398165
210 0.397196
215 0.327009
220 0.390924
225 0.35067
230 0.352093
235 0.382513
240 0.390562
245 0.333354
250 0.309596
255 0.355815
260 0.357721
265 0.381082
270 0.378634
275 0.325098
280 0.385515
285 0.366148
290 0.373634
295 0.402359
300 0.491981
305 0.512654
310 0.47049
315 0.501017
320 0.467107
325 0.571301
330 0.627333
335 0.635973
340 0.741797
345 0.764296
350 0.987477
355 1.18789
360 1.38549
365 2.26578
370 3.55003
375 83.1423
380 1508.36
385 2470.81
390 648.557
395 84.7832
400 18.4276
405 11.4759
410 13.0095
415 14.5907
420 13.6456
425 12.4642
430 13.9378
435 15.2124
440 14.3508
445 13.2277
450 11.5911
455 10.4831
460 9.58279
465 9.20798
470 9.01782
475 8.68186
480 7.74049
485 7.18719
490 6.371
495 5.91379
500 5.4793
505 5.12643
510 4.37059
515 4.1104
520 3.90246
525 3.19367
530 2.93936
535 2.73427
540 2.41823
545 2.29391
550 2.098
555 1.86051
560 1.81414
565 1.51285
570 1.41508
575 1.09714
580 0.873904
585 0.900639
590 0.73495
595 0.731424
600 1.36497
Ex : 393
200 0.30654
205 0.369627
210 0.315011
215 0.420029
220 0.333853
225 0.347116
230 0.408983
235 0.334235
240 0.359199
245 0.314338
250 0.353382
255 0.346979
260 0.414572
265 0.33331
270 0.346402
275 0.425218
280 0.49358
285 0.380598
290 0.444309
295 0.347837
300 0.39222
305 0.374981
310 0.413841
315 0.428245
320 0.370116
325 0.481573
330 0.500001
335 0.548237
340 0.674032
345 0.740559
350 0.788506
355 0.998212
360 1.11722
365 1.51972
370 1.89459
375 3.16609
380 71.458
385 1486.77
390 2518.87
395 672.875
400 87.3229
405 19.048
410 12.7169
415 14.6345
420 13.8324
425 11.7687
430 10.8379
435 12.0872
440 14.7503
445 14.1053
450 11.6837
455 10.1608
460 8.9756
465 8.51087
470 8.1806
475 7.45119
480 7.05264
485 6.64116
490 6.06993
495 5.56122
500 5.15652
505 4.70494
510 4.40879
515 4.05466
520 3.51132
525 3.09968
530 2.87117
535 2.62313
540 2.4212
545 2.30965
550 2.05727
555 1.78426
560 1.62433
565 1.4587
570 1.2522
575 1.12932
580 0.941955
585 0.84525
590 0.670882
595 0.691664
600 1.04432
Ex : 398
200 0.344941
205 0.291775
210 0.29695
215 0.358055
220 0.293563
225 0.34404
230 0.331086
235 0.302998
240 0.29037
245 0.338259
250 0.378764
255 0.347739
260 0.360332
265 0.378804
270 0.346353
275 0.337817
280 0.355709
285 0.419674
290 0.402052
295 0.357526
300 0.317655
305 0.396227
310 0.370803
315 0.426468
320 0.39545
325 0.408246
330 0.497019
335 0.542569
340 0.533204
345 0.631786
350 0.765244
355 0.731359
360 0.87735
365 1.09829
370 1.33522
375 1.87213
380 3.25273
385 74.4419
390 1510.55
395 2556.64
400 671.62
405 84.6377
410 17.2586
415 11.1289
420 10.3513
425 9.06623
430 7.77218
435 7.94253
440 9.20912
445 11.6265
450 10.609
455 8.80648
460 7.87952
465 6.74228
470 6.78154
475 6.7064
480 6.17656
485 5.56607
490 5.267
495 4.92737
500 4.73983
505 4.42964
510 3.88268
515 3.44686
520 3.28122
525 2.98979
530 2.69744
535 2.40714
540 2.28402
545 2.13756
550 1.83646
555 1.83141
560 1.66449
565 1.52811
570 1.2435
575 1.20377
580 0.919841
585 0.813723
590 0.726441
595 0.68303
600 0.528238
Ex : 403
200 0.339745
205 0.333845
210 0.313611
215 0.322666
220 0.26778
225 0.349985
230 0.3516
235 0.328303
240 0.357789
245 0.394994
250 0.286958
255 0.310245
260 0.348662
265 0.3799
270 0.340954
275 0.354164
280 0.299635
285 0.311991
290 0.344109
295 0.319727
300 0.382899
305 0.294649
310 0.350404
315 0.427926
320 0.406089
325 0.405251
330 0.492836
335 0.502165
340 0.590942
345 0.646122
350 0.647951
355 0.68127
360 0.764039
365 0.930996
370 1.12538
375 1.41474
380 1.92147
385 3.33339
390 83.1593
395 1541.76
400 2520.86
405 665.57
410 83.428
415 16.5119
420 8.5913
425 7.06999
430 6.3945
435 6.2114
440 6.81047
445 7.51671
450 9.34328
455 9.22891
460 7.63377
465 6.82698
470 6.35086
475 5.90356
480 5.66152
485 5.39772
490 4.79629
495 4.64994
500 4.31757
505 4.25642
510 3.69403
515 3.38814
520 3.24467
525 3.06305
530 2.79362
535 2.57795
540 2.22734
545 2.14323
550 1.98914
555 1.77353
560 1.6594
565 1.48135
570 1.35206
575 1.13233
580 0.91826
585 0.797081
590 0.717006
595 0.697871
600 1.10173
Ex : 408
200 0.294255
205 0.310141
210 0.337737
215 0.298153
220 0.379966
225 0.379987
230 0.351518
235 0.318805
240 0.280699
245 0.33621
250 0.319552
255 0.280685
260 0.408446
265 0.316551
270 0.30169
275 0.280904
280 0.345091
285 0.336305
290 0.36925
295 0.34336
300 0.428736
305 0.427541
310 0.354507
315 0.400129
320 0.386397
325 0.465675
330 0.454511
335 0.498622
340 0.513745
345 0.578118
350 0.592003
355 0.660793
360 0.681534
365 0.825106
370 0.957786
375 1.01666
380 1.53018
385 2.04022
390 3.31951
395 79.0622
400 1568.77
405 2548.92
410 653.885
415 82.9287
420 16.2415
425 8.16174
430 7.08048
435 7.03301
440 6.94882
445 7.07213
450 7.0751
455 8.41041
460 9.27039
465 8.09067
470 7.24615
475 6.73478
480 5.63771
485 5.47
490 5.1325
495 4.55986
500 4.4128
505 3.89617
510 3.83526
515 3.43912
520 3.27717
525 2.90668
530 2.70469
535 2.43164
540 2.20079
545 1.93253
550 1.93932
555 1.73979
560 1.57977
565 1.36863
570 1.29429
575 1.12289
580 0.920817
585 0.777696
590 0.797908
595 0.618822
600 0.557081
Ex : 413
200 0.350276
205 0.290755
210 0.269149
215 0.354972
220 0.34753
225 0.289344
230 0.289326
235 0.377705
240 0.358057
245 0.317613
250 0.306394
255 0.38551
260 0.368519
265 0.349088
270 0.328556
275 0.362081
280 0.384427
285 0.34867
290 0.350366
295 0.349829
300 0.384562
305 0.377975
310 0.368524
315 0.36594
320 0.385937
325 0.493132
330 0.4164
335 0.3779
340 0.497523
345 0.490328
350 0.551046
355 0.612016
360 0.561581
365 0.744442
370 0.767445
375 0.95792
380 1.15815
385 1.45165
390 2.16978
395 3.3338
400 90.0127
405 1600.4
410 2534.75
415 636.588
420 80.3999
425 15.2715
430 7.30368
435 6.62745
440 6.88094
445 6.68955
450 6.15628
455 5.82231
460 6.8568
465 8.82494
470 7.73853
475 6.58466
480 5.96169
485 5.17912
490 4.59752
495 4.47401
500 4.23905
505 3.95155
510 3.6577
515 3.32133
520 3.03523
525 3.02262
530 2.70839
535 2.29272
540 2.24491
545 2.12174
550 1.95771
555 1.75416
560 1.56565
565 1.4084
570 1.27926
575 1.15889
580 0.927137
585 0.724317
590 0.757067
595 0.700492
600 1.05483
Ex : 418
200 0.243434
205 0.295113
210 0.327772
215 0.297144
220 0.291088
225 0.34814
230 0.307546
235 0.26803
240 0.329674
245 0.303307
250 0.326635
255 0.423216
260 0.328309
265 0.34043
270 0.264018
275 0.301898
280 0.3679
285 0.277369
290 0.346936
295 0.367499
300 0.322608
305 0.326677
310 0.40697
315 0.375634
320 0.346498
325 0.404861
330 0.402805
335 0.48894
340 0.468702
345 0.475818
350 0.454676
355 0.545322
360 0.573544
365 0.644576
370 0.685804
375 0.775704
380 0.909412
385 1.14844
390 1.50144
395 1.99286
400 3.45023
405 82.982
410 1566.8
415 2526.57
420 653.973
425 80.5364
430 13.7252
435 5.74604
440 5.39777
445 5.08476
450 4.65393
455 4.08486
460 4.07965
465 4.79082
470 6.82403
475 6.6562
480 5.42781
485 4.91417
490 4.33563
495 3.92795
500 3.68911
505 3.41436
510 3.10492
515 2.82088
520 2.85103
525 2.58902
530 2.44313
535 2.1843
540 2.12081
545 1.99441
550 1.80505
555 1.54266
560 1.42625
565 1.28703
570 1.15336
575 1.14296
580 0.921206
585 0.760279
590 0.739317
595 0.545825
600 0.728233
Ex : 423
200 0.27114
205 0.286109
210 0.264754
215 0.302575
220 0.32138
225 0.272333
230 0.30799
235 0.352999
240 0.314636
245 0.284307
250 0.332868
255 0.252149
260 0.316213
265 0.338362
270 0.307429
275 0.330059
280 0.303351
285 0.284222
290 0.31998
295 0.278574
300 0.300211
305 0.361814
310 0.347811
315 0.339208
320 0.312136
325 0.405092
330 0.468106
335 0.472452
340 0.47255
345 0.455591
350 0.413696
355 0.483966
360 0.633197
365 0.634491
370 0.606434
375 0.676848
380 0.773251
385 1.00295
390 1.18388
395 1.52744
400 2.13171
405 3.52202
410 85.4228
415 1614.81
420 2493.46
425 613.132
430 75.0857
435 12.2361
440 4.65778
445 3.97019
450 3.64133
455 3.06028
460 2.99059
465 3.21261
470 3.40063
475 5.16699
480 5.90374
485 4.67477
490 4.02493
495 3.52242
500 3.21651
505 2.92261
510 3.04525
515 2.63413
520 2.47419
525 2.43968
530 2.18424
535 2.17257
540 2.04842
545 1.83383
550 1.64724
555 1.57073
560 1.33126
565 1.32912
570 1.26564
575 1.08699
580 0.945984
585 0.751615
590 0.741869
595 0.621577
600 0.872398
Ex : 428
200 0.270843
205 0.351791
210 0.30522
215 0.308155
220 0.27993
225 0.278556
230 0.308091
235 0.322227
240 0.269506
245 0.379884
250 0.299734
255 0.265823
260 0.345398
265 0.327328
270 0.269117
275 0.313538
280 0.275472
285 0.275729
290 0.361159
295 0.333319
300 0.334407
305 0.352643
310 0.371101
315 0.338975
320 0.368296
325 0.383227
330 0.411683
335 0.393105
340 0.442236
345 0.426299
350 0.450284
355 0.464458
360 0.523631
365 0.624976
370 0.632351
375 0.671374
380 0.729354
385 0.753615
390 0.93793
395 1.15764
400 1.53728
405 2.06905
410 3.48026
415 93.0732
420 1609.38
425 2489.73
430 633.307
435 77.255
440 12.3804
445 4.26706
450 3.43089
455 3.02708
460 2.84528
465 2.70124
470 2.72762
475 3.00509
480 4.37724
485 5.69293
490 4.66537
495 3.65734
500 3.45191
505 3.0757
510 2.69619
515 2.53345
520 2.50979
525 2.2555
530 2.20379
535 1.98205
540 1.90493
545 1.82287
550 1.79151
555 1.68114
560 1.33784
565 1.25042
570 1.13299
575 1.03959
580 0.924346
585 0.717059
590 0.751302
595 0.704472
600 0.685888
Ex : 433
200 0.382944
205 0.323336
210 0.313159
215 0.32872
220 0.304992
225 0.262991
230 0.270632
235 0.309563
240 0.338661
245 0.299315
250 0.306772
255 0.362456
260 0.36235
265 0.4014
270 0.331975
275 0.30997
280 0.269526
285 0.317906
290 0.349753
295 0.325047
300 0.291953
305 0.27452
310 0.278357
315 0.286993
320 0.355768
325 0.390102
330 0.441364
335 0.40887
340 0.40247
345 0.548491
350 0.525482
355 0.44763
360 0.476497
365 0.561497
370 0.569854
375 0.606998
380 0.54552
385 0.77322
390 0.843355
395 0.927945
400 1.15232
405 1.6169
410 2.21293
415 3.49508
420 101.693
425 1691.78
430 2498.88
435 610.036
440 74.0988
445 11.7378
450 4.09335
455 3.29509
460 2.99378
465 2.84546
470 2.43998
475 2.42828
480 2.61719
485 3.7047
490 5.27485
495 4.73258
500 3.55563
505 3.15935
510 2.79705
515 2.63206
520 2.4952
525 2.21174
530 2.30164
535 1.98449
540 1.81856
545 1.72883
550 1.5582
555 1.44038
560 1.31267
565 1.29046
570 1.06594
575 0.995274
580 0.822626
585 0.63477
590 0.721007
595 0.629447
600 0.498095
Ex : 438
200 0.344342
205 0.340721
210 0.286959
215 0.373336
220 0.247666
225 0.32792
230 0.398681
235 0.321662
240 0.342702
245 0.391267
250 0.325703
255 0.349224
260 0.346489
265 0.350356
270 0.315409
275 0.333619
280 0.349544
285 0.340478
290 0.47744
295 0.372266
300 0.402753
305 0.333335
310 0.484662
315 0.413779
320 0.385694
325 0.339604
330 0.312251
335 0.419687
340 0.509829
345 0.523331
350 0.462766
355 0.460666
360 0.539567
365 0.525582
370 0.617175
375 0.611445
380 0.62537
385 0.772581
390 0.850745
395 0.861831
400 0.956048
405 1.09766
410 1.43264
415 2.1333
420 3.45431
425 96.4588
430 1657.62
435 2604.68
440 634.472
445 77.142
450 12.138
455 4.15168
460 3.16392
465 3.1254
470 2.64279
475 2.30358
480 2.52949
485 2.52539
490 3.04485
495 4.69918
500 4.84028
505 3.2679
510 3.08865
515 2.80074
520 2.50706
525 2.18848
530 2.1077
535 1.79056
540 1.80306
545 1.64996
550 1.50695
555 1.54254
560 1.49777
565 1.30932
570 1.18516
575 1.05008
580 0.953021
585 0.746525
590 0.682168
595 0.656486
600 0.845975
Ex : 443
200 0.230028
205 0.362458
210 0.356173
215 0.27115
220 0.313832
225 0.233806
230 0.296549
235 0.280639
240 0.344072
245 0.255556
250 0.29691
255 0.369695
260 0.302312
265 0.277694
270 0.276148
275 0.368606
280 0.407903
285 0.277516
290 0.302898
295 0.290121
300 0.367741
305 0.381472
310 0.348369
315 0.287015
320 0.362766
325 0.314145
330 0.401784
335 0.400393
340 0.445358
345 0.416944
350 0.450346
355 0.523443
360 0.470682
365 0.48739
370 0.515437
375 0.517587
380 0.597145
385 0.657807
390 0.706659
395 0.770115
400 0.79379
405 0.899217
410 1.14288
415 1.41927
420 1.97079
425 3.46673
430 105.152
435 1743.9
440 2597.31
445 627.984
450 76.2512
455 12.1183
460 4.17665
465 3.34265
470 2.91906
475 2.72435
480 2.53067
485 2.39268
490 2.47397
495 2.70464
500 4.12577
505 4.69871
510 3.5701
515 2.95998
520 2.73299
525 2.38793
530 2.01454
535 1.88017
540 1.8682
545 1.72514
550 1.52758
555 1.563
560 1.38005
565 1.15426
570 1.14872
575 0.944825
580 0.916349
585 0.71764
590 0.753892
595 0.674509
600 0.14656
Ex : 448
200 0.24477
205 0.303102
210 0.283664
215 0.307254
220 0.337647
225 0.316336
230 0.345311
235 0.349802
240 0.319147
245 0.348915
250 0.277351
255 0.319777
260 0.276923
265 0.368522
270 0.356166
275 0.371897
280 0.352009
285 0.332307
290 0.341964
295 0.369842
300 0.334387
305 0.331334
310 0.371151
315 0.366946
320 0.366839
325 0.373386
330 0.334914
335 0.391923
340 0.421191
345 0.388096
350 0.45299
355 0.451887
360 0.446276
365 0.444969
370 0.524327
375 0.509538
380 0.525886
385 0.611115
390 0.573829
395 0.716572
400 0.792801
405 0.891886
410 1.01197
415 1.08877
420 1.51348
425 2.10462
430 3.25042
435 105.7
440 1818.94
445 2699.3
450 652.683
455 79.2295
460 12.5972
465 4.44138
470 3.29844
475 3.09586
480 2.73796
485 2.44351
490 2.34449
495 2.41516
500 2.4676
505 3.20594
510 4.41362
515 3.609
520 2.89806
525 2.48458
530 2.32661
535 1.97334
540 1.86847
545 1.75705
550 1.69388
555 1.41539
560 1.36397
565 1.30287
570 1.15669
575 1.08741
580 0.895628
585 0.808699
590 0.711096
595 0.580689
600 1.11921
Ex : 453
200 0.261077
205 0.243541
210 0.34054
215 0.341836
220 0.312316
225 0.318156
230 0.328465
235 0.361567
240 0.318593
245 0.278173
250 0.260074
255 0.308263
260 0.310087
265 0.353238
270 0.302654
275 0.318847
280 0.278338
285 0.303667
290 0.336602
295 0.363705
300 0.311433
305 0.338664
310 0.340466
315 0.359398
320 0.320795
325 0.357101
330 0.402048
335 0.355737
340 0.368817
345 0.382965
350 0.366449
355 0.449013
360 0.411099
365 0.4505
370 0.522649
375 0.538873
380 0.505764
385 0.562045
390 0.621885
395 0.632326
400 0.673544
405 0.691232
410 0.777322
415 1.03115
420 1.13513
425 1.43929
430 2.1788
435 3.22019
440 110.127
445 1926.39
450 2758.75
455 630.976
460 76.7701
465 12.2651
470 4.06329
475 2.90878
480 2.91799
485 2.49781
490 2.3345
495 2.12074
500 2.188
505 2.2764
510 2.5864
515 4.10447
520 4.03459
525 2.92403
530 2.6015
535 2.36063
540 2.09038
545 1.75745
550 1.59267
555 1.52114
560 1.36161
565 1.32885
570 1.13231
575 1.06281
580 0.785545
585 0.746007
590 0.733473
595 0.627226
600 0.238802
Ex : 458
200 0.30413
205 0.294747
210 0.347569
215 0.324511
220 0.272698
225 0.303408
230 0.37273
235 0.310271
240 0.330015
245 0.337155
250 0.271807
255 0.390567
260 0.336103
265 0.297828
270 0.405892
275 0.3419
280 0.269843
285 0.322333
290 0.349299
295 0.312498
300 0.369037
305 0.334721
310 0.472355
315 0.364565
320 0.309461
325 0.305584
330 0.294283
335 0.380128
340 0.411331
345 0.416465
350 0.455538
355 0.395111
360 0.51213
365 0.510963
370 0.473118
375 0.538488
380 0.538096
385 0.508159
390 0.595886
395 0.601627
400 0.681009
405 0.664159
410 0.760858
415 0.951088
420 0.976032
425 1.19654
430 1.51589
435 2.14986
440 3.59745
445 119.511
450 1959.5
455 2864.18
460 673.269
465 81.8369
470 12.9463
475 3.96294
480 2.9884
485 2.82477
490 2.8313
495 2.37964
500 2.10391
505 2.15825
510 2.09758
515 2.24527
520 3.51852
525 4.22536
530 3.12213
535 2.32742
540 2.20666
545 1.95006
550 1.78857
555 1.68409
560 1.43153
565 1.33479
570 1.23754
575 1.20346
580 0.907614
585 0.77905
590 0.722832
595 0.695967
600 0.337922
Ex : 463
200 0.278327
205 0.336049
210 0.345546
215 0.29633
220 0.310292
225 0.266351
230 0.277851
235 0.27402
240 0.288044
245 0.259561
250 0.360752
255 0.324549
260 0.289962
265 0.290178
270 0.279241
275 0.353515
280 0.343291
285 0.291952
290 0.330918
295 0.314538
300 0.336138
305 0.35788
310 0.256413
315 0.305418
320 0.281012
325 0.254867
330 0.335613
335 0.41806
340 0.330561
345 0.393008
350 0.385369
355 0.396274
360 0.435869
365 0.371729
370 0.4089
375 0.464966
380 0.537322
385 0.534684
390 0.53938
395 0.505714
400 0.600023
405 0.557903
410 0.725804
415 0.700249
420 0.903444
425 1.00205
430 1.08218
435 1.45501
440 2.0404
445 3.46554
450 115.034
455 2019.45
460 3025.53
465 710.752
470 85.8956
475 13.1267
480 4.06964
485 2.70876
490 2.82384
495 2.2876
500 2.12828
505 2.04345
510 2.06721
515 2.06756
520 2.2732
525 2.95011
530 4.09097
535 3.16766
540 2.42385
545 2.11546
550 1.88226
555 1.72719
560 1.5543
565 1.37782
570 1.18115
575 1.08427
580 0.868167
585 0.882063
590 0.725625
595 0.783277
600 0.332351
Ex : 468
200 0.211497
205 0.252497
210 0.235706
215 0.298988
220 0.265234
225 0.262004
230 0.268903
235 0.243043
240 0.242342
245 0.259302
250 0.335385
255 0.240483
260 0.233534
265 0.269821
270 0.235605
275 0.235213
280 0.269934
285 0.288189
290 0.272366
295 0.284221
300 0.291651
305 0.272453
310 0.288175
315 0.336482
320 0.296877
325 0.324971
330 0.401416
335 0.380637
340 0.340675
345 0.390109
350 0.359442
355 0.376647
360 0.349559
365 0.404906
370 0.399777
375 0.402888
380 0.422256
385 0.435664
390 0.458863
395 0.462055
400 0.515451
405 0.58235
410 0.635817
415 0.643933
420 0.707633
425 0.782009
430 0.872498
435 1.10045
440 1.37815
445 1.95478
450 3.24674
455 124.856
460 2028.35
465 3135.91
470 733.044
475 87.8089
480 13.1158
485 4.00863
490 2.64172
495 2.58222
500 2.24604
505 2.18511
510 1.91834
515 1.91053
520 1.90353
525 2.06692
530 2.2761
535 3.49745
540 3.4474
545 2.47142
550 1.98966
555 1.8131
560 1.68629
565 1.42763
570 1.23474
575 1.05456
580 0.940152
585 0.88026
590 0.670891
595 0.589597
600 0.649599
Ex : 473
200 0.354714
205 0.306558
210 0.295766
215 0.288835
220 0.280738
225 0.248639
230 0.262633
235 0.314417
240 0.340651
245 0.334738
250 0.36255
255 0.347595
260 0.284515
265 0.383821
270 0.338115
275 0.39831
280 0.334759
285 0.287473
290 0.276653
295 0.271711
300 0.298788
305 0.331809
310 0.289644
315 0.315249
320 0.310907
325 0.375672
330 0.32713
335 0.315336
340 0.367197
345 0.34618
350 0.378474
355 0.402962
360 0.409705
365 0.441706
370 0.441767
375 0.434884
380 0.419328
385 0.491396
390 0.490846
395 0.458879
400 0.590282
405 0.580107
410 0.623628
415 0.686432
420 0.63928
425 0.689359
430 0.87639
435 0.874599
440 1.16428
445 1.47724
450 2.18822
455 3.40831
460 142.57
465 2206.71
470 3043.24
475 687.225
480 82.8786
485 12.5658
490 3.74536
495 2.66129
500 2.48527
505 2.14567
510 1.9823
515 1.88862
520 2.0344
525 1.90982
530 2.06829
535 2.1395
540 2.91169
545 3.42618
550 2.57387
555 2.02941
560 1.95521
565 1.60381
570 1.33374
575 1.0752
580 0.989191
585 0.729518
590 0.837386
595 0.688657
600 0.561508
Ex : 478
200 0.330408
205 0.32559
210 0.336341
215 0.37176
220 0.326157
225 0.355186
230 0.323205
235 0.329559
240 0.37158
245 0.340191
250 0.343988
255 0.389686
260 0.404136
265 0.391703
270 0.377989
275 0.325135
280 0.348687
285 0.329095
290 0.283242
295 0.372141
300 0.393648
305 0.332067
310 0.39744
315 0.365653
320 0.332139
325 0.355748
330 0.412641
335 0.35228
340 0.445655
345 0.429089
350 0.519767
355 0.471931
360 0.475524
365 0.471756
370 0.528178
375 0.476116
380 0.518456
385 0.566057
390 0.562759
395 0.512645
400 0.639444
405 0.709806
410 0.584331
415 0.687939
420 0.706463
425 0.759878
430 0.844967
435 0.967751
440 1.10133
445 1.28308
450 1.78006
455 2.5707
460 4.05616
465 154.774
470 2245.9
475 3070.04
480 723.509
485 86.9025
490 13.4565
495 4.10428
500 2.49661
505 2.48644
510 2.4536
515 2.35108
520 2.10892
525 2.0594
530 2.04118
535 2.0129
540 2.12175
545 2.42475
550 3.29493
555 2.86737
560 1.98235
565 1.73542
570 1.53714
575 1.28194
580 1.00478
585 0.868683
590 0.767756
595 0.742806
600 0.666706
Ex : 483
200 0.362108
205 0.362901
210 0.36856
215 0.326312
220 0.294388
225 0.326325
230 0.288594
235 0.33094
240 0.267328
245 0.344561
250 0.32063
255 0.313488
260 0.374995
265 0.406787
270 0.367972
275 0.314984
280 0.298565
285 0.334943
290 0.341862
295 0.392691
300 0.454869
305 0.398098
310 0.347652
315 0.368082
320 0.40243
325 0.480935
330 0.363738
335 0.456877
340 0.523103
345 0.479763
350 0.463163
355 0.489301
360 0.352319
365 0.418334
370 0.534068
375 0.488595
380 0.499665
385 0.493278
390 0.601816
395 0.573875
400 0.58992
405 0.546325
410 0.662623
415 0.556574
420 0.651588
425 0.641703
430 0.62903
435 0.937093
440 0.983926
445 1.05591
450 1.38236
455 1.75075
460 2.63064
465 4.40711
470 119.615
475 2177.97
480 3253.17
485 760.649
490 91.1427
495 13.4044
500 4.03007
505 2.55403
510 2.28982
515 2.52322
520 2.31169
525 2.22979
530 2.0601
535 2.04782
540 1.87682
545 1.89674
550 2.13549
555 3.00302
560 2.97744
565 2.00661
570 1.7416
575 1.44815
580 1.12065
585 0.848527
590 0.760092
595 0.752571
600 1.06996
Ex : 488
200 0.403302
205 0.375835
210 0.347222
215 0.317645
220 0.411369
225 0.338269
230 0.385658
235 0.403168
240 0.40723
245 0.466486
250 0.28916
255 0.337551
260 0.328427
265 0.346489
270 0.425228
275 0.352807
280 0.354919
285 0.37434
290 0.374613
295 0.374741
300 0.365025
305 0.418844
310 0.347137
315 0.392732
320 0.331197
325 0.406211
330 0.463273
335 0.320221
340 0.555756
345 0.452375
350 0.434368
355 0.4301
360 0.441753
365 0.542338
370 0.427831
375 0.547906
380 0.509273
385 0.591044
390 0.67662
395 0.570192
400 0.57485
405 0.579044
410 0.670918
415 0.636534
420 0.609261
425 0.690947
430 0.654828
435 0.766361
440 0.858821
445 0.798655
450 1.23424
455 1.38803
460 2.0391
465 2.86911
470 4.21378
475 146.327
480 2324.63
485 3201.12
490 738.497
495 88.4533
500 13.2707
505 4.01315
510 2.44761
515 2.31031
520 2.38195
525 2.22846
530 2.14146
535 2.10763
540 2.01371
545 1.97596
550 1.71126
555 1.77666
560 2.50308
565 2.8051
570 2.1695
575 1.48456
580 1.25847
585 1.07018
590 0.886673
595 0.741852
600 0.974241
Ex : 493
200 0.353582
205 0.362631
210 0.364024
215 0.368238
220 0.363399
225 0.322993
230 0.385927
235 0.359771
240 0.346191
245 0.364959
250 0.327906
255 0.392103
260 0.359396
265 0.414709
270 0.349934
275 0.416524
280 0.452365
285 0.427784
290 0.351146
295 0.438397
300 0.397985
305 0.319403
310 0.320738
315 0.371274
320 0.362234
325 0.389415
330 0.322913
335 0.363498
340 0.433933
345 0.43658
350 0.509412
355 0.410479
360 0.547997
365 0.447116
370 0.42181
375 0.482719
380 0.452606
385 0.513016
390 0.485098
395 0.4957
400 0.477604
405 0.627172
410 0.623351
415 0.746276
420 0.634226
425 0.726239
430 0.729804
435 0.747702
440 0.89828
445 0.967453
450 1.02452
455 1.1641
460 1.45434
465 1.87264
470 2.77829
475 3.89357
480 132.845
485 2280.13
490 3335.62
495 747.47
500 89.5272
505 13.2476
510 3.79227
515 2.46918
520 2.15773
525 2.43894
530 2.32686
535 2.26861
540 2.07573
545 1.93838
550 1.74423
555 1.69208
560 1.65818
565 2.06787
570 2.44285
575 2.10438
580 1.47413
585 1.16718
590 1.04388
595 0.784567
600 0.585133
Ex : 498
200 0.439285
205 0.49688
210 0.423884
215 0.340909
220 0.347282
225 0.360524
230 0.334802
235 0.412831
240 0.417313
245 0.327079
250 0.423062
255 0.442936
260 0.432252
265 0.370627
270 0.390591
275 0.386113
280 0.440126
285 0.414775
290 0.349224
295 0.395261
300 0.383971
305 0.474174
310 0.432046
315 0.403018
320 0.437224
325 0.593113
330 0.463772
335 0.433238
340 0.549881
345 0.498613
350 0.480643
355 0.465396
360 0.44686
365 0.511004
370 0.471832
375 0.435458
380 0.522101
385 0.48504
390 0.538029
395 0.498215
400 0.729764
405 0.622752
410 0.662207
415 0.676508
420 0.543506
425 0.627541
430 0.866194
435 0.782985
440 0.737255
445 0.899608
450 0.936262
455 1.14708
460 1.30846
465 1.64387
470 2.12497
475 2.89967
480 4.18753
485 159.761
490 2386.62
495 3194.7
500 722.776
505 87.0052
510 13.0396
515 4.06394
520 2.71769
525 2.47047
530 2.39557
535 2.35536
540 2.09205
545 1.86671
550 1.63045
555 1.75077
560 1.6927
565 1.57397
570 1.62981
575 1.93145
580 1.86812
585 1.35181
590 1.03853
595 0.937243
600 0.564626
Ex : 503
200 0.396432
205 0.358688
210 0.386373
215 0.407937
220 0.452485
225 0.41535
230 0.384081
235 0.347119
240 0.316733
245 0.495932
250 0.535358
255 0.426089
260 0.369714
265 0.359819
270 0.504061
275 0.543941
280 0.512152
285 0.393082
290 0.400154
295 0.394534
300 0.43256
305 0.494886
310 0.453444
315 0.414776
320 0.409401
325 0.370908
330 0.489284
335 0.4542
340 0.463492
345 0.403272
350 0.526598
355 0.508209
360 0.450617
365 0.562886
370 0.549566
375 0.564434
380 0.638903
385 0.584467
390 0.502892
395 0.560622
400 0.536939
405 0.624521
410 0.62321
415 0.714537
420 0.672614
425 0.761262
430 0.733591
435 0.604965
440 0.680424
445 0.826695
450 0.962512
455 1.08719
460 1.24817
465 1.46728
470 1.60434
475 2.03774
480 2.84045
485 4.16291
490 143.076
495 2337.56
500 3258.17
505 734.811
510 88.3444
515 13.4632
520 4.24491
525 2.68432
530 2.49827
535 2.44917
540 2.23168
545 2.14455
550 1.86118
555 1.75644
560 1.572
565 1.50523
570 1.3997
575 1.42874
580 1.39416
585 1.56395
590 1.34831
595 0.967225
600 1.00045
Ex : 508
200 0.488143
205 0.443001
210 0.451271
215 0.451819
220 0.426765
225 0.447366
230 0.390517
235 0.55059
240 0.421026
245 0.335815
250 0.424298
255 0.413934
260 0.444652
265 0.372676
270 0.447051
275 0.386548
280 0.344947
285 0.357207
290 0.435708
295 0.451314
300 0.445725
305 0.500339
310 0.386158
315 0.492675
320 0.405266
325 0.508774
330 0.472914
335 0.501693
340 0.48922
345 0.503012
350 0.529219
355 0.487852
360 0.5033
365 0.48934
370 0.577424
375 0.676674
380 0.554358
385 0.476431
390 0.498099
395 0.604562
400 0.673235
405 0.624788
410 0.590741
415 0.663382
420 0.597931
425 0.805538
430 0.745522
435 0.700462
440 0.747203
445 0.831984
450 0.884075
455 0.997298
460 1.15573
465 1.27532
470 1.31936
475 1.54686
480 2.13791
485 2.62942
490 4.46027
495 152.702
500 2319.81
505 3206.13
510 760.138
515 91.1934
520 13.8534
525 4.16413
530 2.79898
535 2.37715
540 2.30807
545 2.23547
550 1.94895
555 1.83001
560 1.58816
565 1.51712
570 1.49468
575 1.33703
580 1.08039
585 1.24131
590 1.38514
595 1.41927
600 0.910713
Ex : 513
200 0.451032
205 0.382068
210 0.423601
215 0.379604
220 0.365871
225 0.339247
230 0.436097
235 0.434955
240 0.368611
245 0.422619
250 0.402574
255 0.42486
260 0.499665
265 0.447492
270 0.419584
275 0.548342
280 0.493917
285 0.439895
290 0.461022
295 0.4695
300 0.448964
305 0.466806
310 0.472048
315 0.555753
320 0.438245
325 0.477519
330 0.572347
335 0.47595
340 0.454634
345 0.448519
350 0.621649
355 0.497949
360 0.524967
365 0.483664
370 0.620861
375 0.548683
380 0.525131
385 0.574425
390 0.579376
395 0.674509
400 0.677019
405 0.607993
410 0.66166
415 0.602666
420 0.600389
425 0.630741
430 0.663917
435 0.663705
440 0.86723
445 0.799646
450 0.75301
455 0.949969
460 0.963127
465 1.25444
470 1.22946
475 1.38124
480 1.66797
485 2.06028
490 2.81638
495 4.32372
500 138.251
505 2272.81
510 3223.69
515 770.278
520 92.4617
525 13.693
530 4.28803
535 2.85311
540 2.28869
545 2.16916
550 2.11248
555 1.87854
560 1.71457
565 1.48771
570 1.3786
575 1.42417
580 1.03308
585 0.978738
590 1.0411
595 1.02684
600 1.93824
Ex : 518
200 0.529259
205 0.454647
210 0.454567
215 0.434523
220 0.417314
225 0.344801
230 0.392855
235 0.526804
240 0.424582
245 0.318358
250 0.502152
255 0.41885
260 0.372848
265 0.355636
270 0.351267
275 0.445468
280 0.385667
285 0.357364
290 0.438439
295 0.497854
300 0.330349
305 0.491791
310 0.463291
315 0.442323
320 0.465067
325 0.43819
330 0.553524
335 0.555691
340 0.464953
345 0.517586
350 0.630637
355 0.497297
360 0.524825
365 0.447403
370 0.584427
375 0.522984
380 0.527964
385 0.617593
390 0.527167
395 0.541802
400 0.596711
405 0.698169
410 0.684902
415 0.515718
420 0.659171
425 0.706598
430 0.72491
435 0.843577
440 0.660364
445 0.638031
450 0.71344
455 0.791204
460 1.00068
465 0.960298
470 1.13668
475 1.10323
480 1.37631
485 1.62034
490 2.15653
495 2.77389
500 4.11388
505 140.558
510 2173.17
515 3176.21
520 767.365
525 92.0265
530 13.5602
535 4.19684
540 2.6711
545 2.23648
550 1.86361
555 1.87468
560 1.75033
565 1.48551
570 1.48271
575 1.10513
580 1.13638
585 0.970221
590 0.920984
595 0.885046
600 1.0869
Ex : 523
200 0.450135
205 0.370147
210 0.399976
215 0.500093
220 0.535009
225 0.393151
230 0.383068
235 0.523808
240 0.420839
245 0.442392
250 0.358766
255 0.401403
260 0.424062
265 0.439162
270 0.408232
275 0.526231
280 0.436974
285 0.386064
290 0.42362
295 0.488517
300 0.424606
305 0.442237
310 0.36925
315 0.412771
320 0.426904
325 0.401038
330 0.500977
335 0.68101
340 0.56963
345 0.558487
350 0.383265
355 0.586541
360 0.541784
365 0.57132
370 0.632189
375 0.593705
380 0.568251
385 0.580218
390 0.63352
395 0.553957
400 0.595944
405 0.713455
410 0.732557
415 0.693515
420 0.664221
425 0.563846
430 0.635209
435 0.625276
440 0.746877
445 0.816545
450 0.808499
455 0.892391
460 0.882466
465 1.04994
470 1.16356
475 1.0517
480 1.11841
485 1.33137
490 1.55716
495 1.9863
500 2.59692
505 4.10776
510 125.048
515 2071.6
520 3092.06
525 775.998
530 92.8586
535 13.6715
540 3.98407
545 2.70874
550 2.02913
555 1.89421
560 1.83599
565 1.67813
570 1.47666
575 1.29049
580 1.08566
585 0.963225
590 0.795811
595 0.90001
600 0.686935
Ex : 528
200 0.437706
205 0.528714
210 0.441546
215 0.534781
220 0.395375
225 0.468025
230 0.437991
235 0.502334
240 0.381925
245 0.480791
250 0.421421
255 0.497162
260 0.488532
265 0.517419
270 0.626706
275 0.423556
280 0.478919
285 0.506093
290 0.469595
295 0.52248
300 0.452959
305 0.490256
310 0.50101
315 0.450372
320 0.327836
325 0.460755
330 0.484995
335 0.562097
340 0.549146
345 0.555904
350 0.594135
355 0.625236
360 0.518427
365 0.529033
370 0.474462
375 0.529456
380 0.515965
385 0.5747
390 0.693883
395 0.522359
400 0.577182
405 0.700015
410 0.632246
415 0.698895
420 0.653796
425 0.592912
430 0.702018
435 0.723016
440 0.657878
445 0.752425
450 0.750658
455 0.683589
460 0.860609
465 1.14708
470 0.987835
475 0.91262
480 1.02028
485 1.07605
490 1.32019
495 1.47825
500 1.91032
505 2.67959
510 4.04496
515 116.381
520 2022.94
525 3017.26
530 750.532
535 89.6177
540 13.0957
545 3.65985
550 2.48221
555 2.05194
560 1.75389
565 1.72301
570 1.45173
575 1.43689
580 1.04972
585 0.97659
590 1.01472
595 0.9361
600 0.78709
Ex : 533
200 0.510548
205 0.413572
210 0.478304
215 0.488217
220 0.43078
225 0.373548
230 0.450624
235 0.473281
240 0.481204
245 0.521086
250 0.44378
255 0.478533
260 0.468156
265 0.410906
270 0.404919
275 0.510066
280 0.445636
285 0.529859
290 0.457589
295 0.444455
300 0.427317
305 0.358768
310 0.611903
315 0.417077
320 0.465358
325 0.61697
330 0.498065
335 0.502876
340 0.446308
345 0.559276
350 0.628913
355 0.566918
360 0.592221
365 0.647058
370 0.513638
375 0.556773
380 0.643987
385 0.675382
390 0.610527
395 0.559281
400 0.605503
405 0.582494
410 0.604083
415 0.571927
420 0.628488
425 0.690208
430 0.817454
435 0.755376
440 0.798206
445 0.89429
450 0.785103
455 0.737618
460 0.797008
465 0.933949
470 0.904838
475 0.932802
480 0.872455
485 1.01566
490 1.19528
495 1.19771
500 1.72094
505 2.08739
510 2.60083
515 3.70787
520 114.911
525 1940.55
530 2930.88
535 752.575
540 90.1898
545 13.1647
550 3.8024
555 2.11065
560 1.81807
565 1.55207
570 1.47542
575 1.3968
580 1.27851
585 1.13789
590 0.969355
595 1.04735
600 1.17756
Ex : 538
200 0.500633
205 0.465415
210 0.437284
215 0.43107
220 0.464541
225 0.486238
230 0.393618
235 0.523539
240 0.524162
245 0.459836
250 0.408092
255 0.364247
260 0.507219
265 0.457058
270 0.493109
275 0.466514
280 0.599402
285 0.549302
290 0.514471
295 0.49212
300 0.421734
305 0.401317
310 0.609317
315 0.548514
320 0.551502
325 0.459597
330 0.606763
335 0.520208
340 0.51691
345 0.549577
350 0.577944
355 0.655311
360 0.551845
365 0.557723
370 0.610131
375 0.591591
380 0.63603
385 0.568617
390 0.530593
395 0.555066
400 0.572092
405 0.620984
410 0.592538
415 0.670839
420 0.683692
425 0.615791
430 0.755972
435 0.762098
440 0.681476
445 0.713818
450 0.720243
455 0.717457
460 0.718838
465 0.845952
470 0.988638
475 0.945577
480 0.883547
485 0.989775
490 1.05267
495 1.04917
500 1.2126
505 1.45378
510 2.00778
515 2.69598
520 3.63473
525 98.64
530 1833.91
535 2897.74
540 769.675
545 92.4445
550 13.3607
555 3.78777
560 2.26518
565 1.70105
570 1.41046
575 1.41056
580 1.20845
585 1.2515
590 0.931968
595 0.951599
600 0.366764
Ex : 543
200 0.527136
205 0.518421
210 0.525655
215 0.436769
220 0.512446
225 0.449146
230 0.501122
235 0.464054
240 0.393902
245 0.469784
250 0.52415
255 0.496645
260 0.515733
265 0.483444
270 0.510909
275 0.480629
280 0.498313
285 0.464645
290 0.514525
295 0.488915
300 0.565926
305 0.517864
310 0.417911
315 0.548921
320 0.489691
325 0.601856
330 0.60668
335 0.585979
340 0.526344
345 0.586793
350 0.465496
355 0.572385
360 0.53046
365 0.549211
370 0.579871
375 0.603929
380 0.691354
385 0.618828
390 0.481413
395 0.62501
400 0.585789
405 0.604114
410 0.618715
415 0.662922
420 0.661793
425 0.852201
430 0.679862
435 0.735659
440 0.670646
445 0.681294
450 0.722739
455 0.80239
460 0.842602
465 0.823358
470 0.922137
475 0.789671
480 0.86537
485 0.843197
490 0.832566
495 0.886645
500 1.14734
505 1.37231
510 1.46295
515 1.84774
520 2.2577
525 3.5883
530 86.3116
535 1732.87
540 2861.64
545 780.325
550 93.6417
555 13.3309
560 3.55277
565 2.20977
570 1.59384
575 1.26908
580 1.30436
585 1.03643
590 1.08169
595 1.04088
600 1.15504
Ex : 548
200 0.510195
205 0.462987
210 0.531987
215 0.591122
220 0.52459
225 0.470968
230 0.590704
235 0.405463
240 0.677646
245 0.436132
250 0.56005
255 0.464288
260 0.43774
265 0.44256
270 0.492737
275 0.501903
280 0.494685
285 0.448362
290 0.545991
295 0.467572
300 0.451568
305 0.507437
310 0.420246
315 0.599043
320 0.538936
325 0.49201
330 0.553359
335 0.508596
340 0.535658
345 0.562798
350 0.59855
355 0.568434
360 0.617729
365 0.498067
370 0.69304
375 0.558276
380 0.603651
385 0.609545
390 0.704989
395 0.631263
400 0.841398
405 0.816104
410 0.630694
415 0.640514
420 0.606468
425 0.739755
430 0.595329
435 0.680976
440 0.752626
445 0.829285
450 0.815845
455 0.7075
460 0.814104
465 0.799848
470 0.80918
475 0.877145
480 0.828043
485 0.945627
490 0.884265
495 0.953368
500 0.882475
505 1.213
510 1.3538
515 1.41449
520 1.69114
525 2.47158
530 3.61525
535 95.9523
540 1726.47
545 2756.66
550 752.513
555 90.1258
560 12.6569
565 3.40392
570 1.98257
575 1.31962
580 1.26901
585 1.07834
590 1.0769
595 1.08016
600 1.7148
Ex : 553
200 0.622395
205 0.632562
210 0.453215
215 0.499993
220 0.426938
225 0.500804
230 0.520549
235 0.545135
240 0.544017
245 0.536688
250 0.49211
255 0.519929
260 0.458457
265 0.515673
270 0.597789
275 0.606039
280 0.532021
285 0.541896
290 0.538525
295 0.635793
300 0.535005
305 0.395262
310 0.438787
315 0.496903
320 0.547015
325 0.460786
330 0.535261
335 0.578856
340 0.574216
345 0.556308
350 0.549262
355 0.578736
360 0.587621
365 0.707665
370 0.643605
375 0.657868
380 0.623884
385 0.554006
390 0.706417
395 0.70347
400 0.93351
405 0.576824
410 0.663986
415 0.554685
420 0.632492
425 0.635401
430 0.801477
435 0.744017
440 0.731333
445 0.744056
450 0.661683
455 0.873742
460 0.853528
465 0.856029
470 0.824372
475 0.794648
480 0.870424
485 0.894173
490 0.921599
495 0.967739
500 0.977903
505 0.984588
510 1.00154
515 1.26991
520 1.43464
525 1.73306
530 2.32877
535 3.48253
540 81.1228
545 1617.93
550 2697.61
555 748.673
560 89.7333
565 12.4556
570 3.37562
575 1.82305
580 1.32515
585 1.15931
590 1.03866
595 1.30838
600 2.11919
Ex : 558
200 0.620379
205 0.569707
210 0.605389
215 0.591934
220 0.513772
225 0.53491
230 0.52259
235 0.577726
240 0.479077
245 0.522887
250 0.488731
255 0.593607
260 0.496993
265 0.588959
270 0.416153
275 0.552405
280 0.530576
285 0.65118
290 0.616025
295 0.592771
300 0.522842
305 0.559939
310 0.498767
315 0.597043
320 0.520025
325 0.598495
330 0.796573
335 0.586411
340 0.550193
345 0.541321
350 0.672522
355 0.651408
360 0.532725
365 0.563879
370 0.675857
375 0.657385
380 0.552027
385 0.691171
390 0.616715
395 0.544034
400 0.595557
405 0.784166
410 0.706101
415 0.540262
420 0.67918
425 0.669557
430 0.604608
435 0.644622
440 0.711417
445 0.716351
450 0.675054
455 0.814141
460 0.75156
465 0.687836
470 0.849507
475 0.905869
480 0.83345
485 0.949721
490 0.896518
495 0.984548
500 0.814874
505 0.983036
510 0.960271
515 1.06771
520 1.26649
525 1.24876
530 1.70585
535 2.30644
540 3.25981
545 75.2246
550 1518.96
555 2620.56
560 732.553
565 87.9054
570 12.0036
575 2.96325
580 1.70658
585 1.1093
590 1.05319
595 1.02957
600 1.09853
Ex : 563
200 0.412282
205 0.614303
210 0.441143
215 0.481634
220 0.509478
225 0.518399
230 0.556901
235 0.573714
240 0.544761
245 0.570429
250 0.672988
255 0.611907
260 0.535255
265 0.601253
270 0.526499
275 0.585157
280 0.528911
285 0.544398
290 0.440103
295 0.507449
300 0.574102
305 0.665799
310 0.624487
315 0.590931
320 0.584515
325 0.558157
330 0.504626
335 0.494304
340 0.646173
345 0.609298
350 0.677458
355 0.608169
360 0.623945
365 0.69479
370 0.732375
375 0.671945
380 0.678698
385 0.679343
390 0.815956
395 0.747133
400 0.699209
405 0.555575
410 0.570084
415 0.843667
420 0.723285
425 0.643162
430 0.802624
435 0.682968
440 0.694698
445 0.727265
450 0.708461
455 0.776266
460 1.02154
465 0.890908
470 0.905481
475 0.785743
480 0.854852
485 0.945548
490 0.927878
495 0.85326
500 0.926689
505 0.829825
510 0.933677
515 1.0428
520 1.14687
525 1.35784
530 1.29153
535 1.5646
540 2.40918
545 3.10508
550 72.9033
555 1460.53
560 2503.76
565 710.997
570 85.0085
575 11.7053
580 2.72121
585 1.46834
590 1.2296
595 1.09558
600 0.607501
Ex : 568
200 0.418069
205 0.502416
210 0.533167
215 0.510659
220 0.489994
225 0.647213
230 0.656731
235 0.573044
240 0.461058
245 0.582328
250 0.640655
255 0.613687
260 0.513995
265 0.658793
270 0.586631
275 0.76117
280 0.532432
285 0.562791
290 0.69709
295 0.51887
300 0.705731
305 0.466074
310 0.45028
315 0.454859
320 0.593037
325 0.507419
330 0.60839
335 0.778497
340 0.668763
345 0.657797
350 0.581192
355 0.570733
360 0.626743
365 0.707983
370 0.679145
375 0.579531
380 0.671406
385 0.682936
390 0.666354
395 0.635006
400 0.566149
405 0.678562
410 0.786814
415 0.640256
420 0.745703
425 0.741065
430 0.644118
435 0.706537
440 0.751156
445 0.839717
450 0.834311
455 0.843579
460 0.809715
465 0.811844
470 0.905607
475 0.8097
480 0.785901
485 0.905748
490 0.841849
495 0.870738
500 0.680761
505 0.878304
510 1.00104
515 1.01122
520 1.02301
525 1.25766
530 1.23252
535 1.49194
540 1.68273
545 2.23663
550 2.80883
555 54.672
560 1308.68
565 2385.81
570 711.692
575 85.8847
580 11.5914
585 2.79048
590 1.46172
595 1.26124
600 1.06093
Ex : 573
200 0.491931
205 0.572338
210 0.503499
215 0.441085
220 0.536106
225 0.575587
230 0.441474
235 0.483003
240 0.477598
245 0.697774
250 0.672848
255 0.568438
260 0.556694
265 0.613584
270 0.526245
275 0.497956
280 0.676233
285 0.60647
290 0.650323
295 0.619705
300 0.510294
305 0.723226
310 0.54198
315 0.44452
320 0.456774
325 0.539779
330 0.619096
335 0.598049
340 0.66954
345 0.577514
350 0.593939
355 0.608888
360 0.61639
365 0.624718
370 0.67332
375 0.687646
380 0.646613
385 0.664385
390 0.699206
395 0.756961
400 0.720911
405 0.811349
410 0.729433
415 0.660891
420 0.532527
425 0.602625
430 0.622708
435 0.669154
440 0.662658
445 0.646107
450 0.661763
455 0.845992
460 0.955276
465 0.705157
470 0.725389
475 0.875376
480 0.954655
485 0.889811
490 0.929462
495 0.848063
500 0.86173
505 0.891827
510 0.808282
515 0.887135
520 1.0074
525 1.12354
530 1.00346
535 1.16926
540 1.4007
545 1.52566
550 1.92048
555 2.58495
560 47.2836
565 1125.15
570 2215.37
575 674.415
580 81.1534
585 11.044
590 2.38608
595 1.36609
600 2.30033
Ex : 578
200 0.580267
205 0.606761
210 0.477102
215 0.4918
220 0.574093
225 0.536742
230 0.551309
235 0.586986
240 0.556642
245 0.64484
250 0.525074
255 0.679243
260 0.557001
265 0.578686
270 0.573625
275 0.602613
280 0.509354
285 0.65661
290 0.51702
295 0.61357
300 0.540683
305 0.475453
310 0.584709
315 0.615325
320 0.529239
325 0.618389
330 0.658984
335 0.57729
340 0.608467
345 0.581969
350 0.645667
355 0.714888
360 0.628966
365 0.519717
370 0.65458
375 0.61004
380 0.644524
385 0.538333
390 0.661189
395 0.76119
400 0.718757
405 0.7768
410 0.61334
415 0.662375
420 0.871677
425 0.751941
430 0.74367
435 0.837218
440 0.661225
445 0.700932
450 0.775542
455 0.997563
460 0.855263
465 0.739607
470 0.865789
475 0.777733
480 0.735534
485 0.758804
490 0.956201
495 0.811032
500 0.876014
505 0.988934
510 0.959974
515 0.82696
520 1.08794
525 0.991521
530 0.974449
535 1.09554
540 1.08564
545 1.41123
550 1.75528
555 1.96274
560 2.62134
565 41.5945
570 1007.39
575 1910.04
580 574.914
585 69.0452
590 9.2945
595 2.23674
600 0.284073
Ex : 583
200 0.692506
205 0.668616
210 0.507226
215 0.631224
220 0.553928
225 0.558966
230 0.474679
235 0.734418
240 0.615461
245 0.506408
250 0.529557
255 0.585917
260 0.603357
265 0.589358
270 0.59554
275 0.507482
280 0.771237
285 0.650768
290 0.523502
295 0.571212
300 0.653883
305 0.552725
310 0.555417
315 0.568263
320 0.439955
325 0.584399
330 0.610756
335 0.699047
340 0.634087
345 0.692947
350 0.804513
355 0.743089
360 0.639829
365 0.599112
370 0.684429
375 0.659369
380 0.639989
385 0.868606
390 0.712715
395 0.688447
400 0.67364
405 0.612548
410 0.747945
415 0.701474
420 0.714178
425 0.790859
430 0.735709
435 0.894153
440 0.760154
445 0.732545
450 0.705585
455 0.787346
460 0.803097
465 0.877046
470 0.684946
475 0.843948
480 0.845509
485 0.787762
490 0.796098
495 0.849867
500 0.893568
505 0.67869
510 0.945563
515 0.84205
520 0.843284
525 0.779638
530 0.919327
535 0.958537
540 1.16544
545 1.0491
550 1.44331
555 1.55989
560 1.83165
565 2.39136
570 34.3803
575 884.31
580 1649.04
585 476.048
590 57.154
595 7.93293
600 1.76833
Ex : 588
200 0.644517
205 0.63644
210 0.574132
215 0.64625
220 0.525965
225 0.53402
230 0.558777
235 0.582804
240 0.569904
245 0.516055
250 0.647084
255 0.521094
260 0.703981
265 0.734895
270 0.508693
275 0.614242
280 0.627462
285 0.558516
290 0.580566
295 0.686699
300 0.684042
305 0.643648
310 0.535486
315 0.569931
320 0.664527
325 0.620859
330 0.72066
335 0.619976
340 0.75068
345 0.756724
350 0.688989
355 0.717513
360 0.74796
365 0.563451
370 0.693383
375 0.662702
380 0.640427
385 0.544201
390 0.697531
395 0.652523
400 0.630728
405 0.651885
410 0.631278
415 0.617482
420 0.72107
425 0.652543
430 0.7678
435 0.761065
440 0.726149
445 0.775171
450 0.770286
455 0.767397
460 0.700839
465 0.753152
470 0.778196
475 0.84443
480 0.754802
485 0.689643
490 0.725965
495 0.795001
500 0.745169
505 0.632446
510 0.923424
515 0.847288
520 0.876862
525 0.759344
530 0.84557
535 0.943024
540 0.880801
545 1.17175
550 0.950811
555 1.3512
560 1.58623
565 1.70296
570 2.4649
575 30.0416
580 735.929
585 1402.72
590 411.933
595 49.7333
600 6.41702
Ex : 593
200 0.430935
205 0.511313
210 0.723861
215 0.60701
220 0.558655
225 0.646976
230 0.51753
235 0.464086
240 0.610507
245 0.445222
250 0.425124
255 0.691937
260 0.62535
265 0.59272
270 0.556199
275 0.447936
280 0.542041
285 0.504161
290 0.490796
295 0.718098
300 0.550821
305 0.500533
310 0.426017
315 0.427036
320 0.582567
325 0.620304
330 0.737658
335 0.576179
340 0.752951
345 0.594245
350 0.582285
355 0.799505
360 0.58852
365 0.762778
370 0.854987
375 0.684718
380 0.561173
385 0.676285
390 0.569373
395 0.839754
400 0.799447
405 0.85205
410 0.841449
415 0.60736
420 0.884423
425 0.917429
430 0.601823
435 0.612799
440 0.784134
445 0.900774
450 0.688911
455 0.787001
460 0.679532
465 0.871034
470 0.831217
475 0.878696
480 0.706568
485 0.666594
490 0.855284
495 0.817569
500 0.823398
505 0.91862
510 0.835324
515 0.714259
520 0.739714
525 0.886192
530 0.930796
535 0.907563
540 0.780879
545 0.951688
550 1.05634
555 0.934808
560 1.11875
565 1.42735
570 1.61732
575 2.10247
580 25.9904
585 648.849
590 1201.09
595 352.006
600 52.3701
Ex : 598
200 0.669033
205 0.621389
210 0.645744
215 0.586064
220 0.507091
225 0.491867
230 0.637678
235 0.608794
240 0.531084
245 0.706547
250 0.659029
255 0.543118
260 0.698477
265 0.792674
270 0.579008
275 0.534037
280 0.735289
285 0.551874
290 0.679875
295 0.722558
300 0.690323
305 0.765364
310 0.648656
315 0.557994
320 0.602496
325 0.539955
330 0.635182
335 0.626018
340 0.950949
345 0.925464
350 0.693932
355 0.718389
360 0.73884
365 0.697184
370 0.63312
375 0.735393
380 0.80091
385 0.626108
390 0.722804
395 0.569515
400 0.702329
405 0.915992
410 0.607222
415 0.676542
420 0.624608
425 0.823937
430 0.899316
435 0.811749
440 0.685731
445 0.784922
450 0.80474
455 0.698966
460 0.731933
465 0.801361
470 0.90881
475 0.827321
480 0.781643
485 0.829066
490 0.897036
495 0.780205
500 0.921421
505 0.808846
510 0.724246
515 1.01517
520 0.720383
525 0.74499
530 0.787854
535 0.82822
540 0.768961
545 0.820447
550 1.11288
555 0.939899
560 1.10283
565 1.10413
570 1.36328
575 1.63854
580 2.16408
585 25.4134
590 582.874
595 1047.51
600 650.531
Ex : 603
200 0.653278
205 0.621805
210 0.568942
215 0.578749
220 0.684364
225 0.609209
230 0.65751
235 0.681656
240 0.643674
245 0.548
250 0.706517
255 0.689859
260 0.770642
265 0.964752
270 0.649197
275 0.554639
280 0.752886
285 0.615518
290 0.526962
295 0.790161
300 0.74417
305 0.62998
310 0.738308
315 0.552858
320 0.472875
325 0.66904
330 0.821711
335 0.746995
340 0.668974
345 0.674567
350 0.713222
355 0.721415
360 0.678754
365 0.714781
370 0.65534
375 0.953002
380 0.785537
385 0.662222
390 0.821769
395 0.604756
400 0.698177
405 0.638693
410 0.853309
415 0.658614
420 0.823496
425 0.893078
430 0.875125
435 0.756663
440 0.888797
445 0.894827
450 0.948366
455 0.790778
460 0.743042
465 0.835038
470 0.967399
475 0.816622
480 0.799695
485 0.939229
490 0.91197
495 0.730729
500 0.834188
505 0.937421
510 0.850215
515 1.10063
520 0.917951
525 0.908384
530 1.11346
535 1.02937
540 0.84014
545 0.828558
550 1.09851
555 1.02837
560 1.06749
565 1.09826
570 1.02604
575 1.16217
580 1.31502
585 1.55439
590 22.0459
595 489.566
600 1003.32
