File format V 1.0
ven. 9. déc. 17:50:44 2016
Operator : 
Comments : 

=============================================
SpectroFluorometer parameters
Mode : 3D measurement
Data : Fluorescence
Phospho. : Ordinary
Spectrum : Fluorescence

Scan speed : 2400 nm/mn
Response : 100 ms
PM Voltage : 700 V
Shutter : On

Lambda Ex. Start : 203
Lambda Ex. End : 603
Lambda Ex. Step : 5
Ex. Slit : 5 nm

Lambda Em. Start : 200
Lambda Em. End : 600
Lambda Em. Step : 5
Em. Slit : 5 nm

Repetition : 1
Decal lambda em : 10
=============================================
DATA
Ex : 203
200 15.9416
205 14.1681
210 20.5634
215 19.2087
220 18.4958
225 22.2325
230 15.4578
235 18.7925
240 13.8005
245 14.9084
250 15.0669
255 21.6133
260 16.4901
265 18.0497
270 17.9402
275 17.9188
280 14.4285
285 16.9003
290 15.0954
295 13.4046
300 17.8026
305 14.7078
310 17.844
315 18.1944
320 15.2168
325 14.28
330 16.0186
335 13.7684
340 16.6207
345 17.2047
350 14.9127
355 19.0743
360 14.9726
365 18.0025
370 13.5268
375 14.0305
380 18.0867
385 15.6917
390 21.2197
395 22.6176
400 20.4253
405 16.8274
410 17.0574
415 17.1633
420 17.6463
425 17.6267
430 18.9883
435 17.2944
440 16.1772
445 17.4812
450 17.0671
455 17.5354
460 19.6622
465 16.7022
470 17.2353
475 15.4698
480 18.6493
485 18.8104
490 20.5748
495 23.6616
500 16.866
505 18.4984
510 19.5908
515 19.9795
520 19.4177
525 20.973
530 16.0099
535 15.1036
540 15.91
545 16.5265
550 16.6548
555 21.0082
560 17.5827
565 16.8641
570 24.6912
575 21.9857
580 18.5314
585 18.1113
590 14.4437
595 18.6261
600 5.07359
Ex : 208
200 12.2866
205 14.767
210 13.5282
215 13.7691
220 11.4486
225 15.957
230 10.7956
235 18.7812
240 21.037
245 14.8547
250 12.1367
255 12.8954
260 21.3883
265 15.6667
270 16.7863
275 15.4908
280 17.448
285 20.3267
290 19.438
295 18.9078
300 24.3574
305 19.2374
310 16.7537
315 21.8675
320 21.1641
325 18.2294
330 13.8633
335 18.006
340 18.4733
345 20.3186
350 20.1516
355 19.9309
360 22.1557
365 15.5801
370 15.5484
375 16.8022
380 23.3655
385 17.8034
390 18.6279
395 13.5552
400 16.8512
405 21.1288
410 18.2874
415 19.4916
420 15.9374
425 17.3035
430 13.501
435 20.9418
440 19.0111
445 30.185
450 19.3806
455 21.583
460 17.2081
465 14.3467
470 21.6979
475 18.5769
480 18.032
485 18.4131
490 12.8109
495 18.5126
500 14.2713
505 16.4825
510 16.7816
515 18.2753
520 23.1797
525 13.966
530 19.3316
535 18.3041
540 13.8828
545 23.8927
550 12.0152
555 15.4461
560 16.9284
565 18.9931
570 17.5242
575 19.2836
580 14.2928
585 19.9636
590 15.6151
595 17.5317
600 30.3536
Ex : 213
200 16.3228
205 19.9059
210 16.6928
215 16.1141
220 14.1001
225 13.256
230 15.0186
235 18.4571
240 19.3933
245 18.7094
250 18.2284
255 17.6787
260 15.3285
265 18.8536
270 13.4178
275 18.7379
280 15.6014
285 19.1049
290 15.0673
295 17.6894
300 15.5935
305 17.1294
310 14.8617
315 18.9492
320 18.0768
325 15.4664
330 20.8413
335 19.0864
340 17.5736
345 19.179
350 18.7715
355 16.5934
360 15.6185
365 16.6011
370 17.3674
375 19.7465
380 19.7295
385 25.0123
390 17.4901
395 24.6404
400 17.1756
405 21.0222
410 21.6672
415 20.3906
420 19.164
425 20.461
430 21.8559
435 15.4867
440 16.0942
445 20.1629
450 18.6123
455 21.1242
460 20.0625
465 19.787
470 14.9673
475 18.0047
480 23.7578
485 18.3935
490 18.2367
495 13.4187
500 18.8658
505 14.2427
510 13.6434
515 20.5846
520 17.8802
525 13.2388
530 16.9659
535 17.8823
540 13.8673
545 16.9124
550 14.8644
555 15.8889
560 16.7221
565 18.8508
570 16.8933
575 14.6668
580 16.0671
585 17.1393
590 14.9303
595 17.3496
600 8.0005
Ex : 218
200 12.58
205 14.4049
210 13.2849
215 13.5449
220 15.0673
225 11.8955
230 12.957
235 14.5069
240 18.5272
245 20.5036
250 19.0492
255 12.2061
260 13.4169
265 16.3986
270 15.1307
275 17.9394
280 18.9311
285 13.6188
290 14.109
295 14.636
300 18.4691
305 15.8191
310 13.79
315 21.5058
320 18.8199
325 15.5356
330 20.8242
335 18.0969
340 20.2325
345 19.6136
350 17.6297
355 19.1812
360 16.1362
365 20.2027
370 17.2298
375 15.9443
380 20.4761
385 15.3877
390 19.0969
395 19.4627
400 15.7956
405 21.108
410 20.7948
415 15.6942
420 17.5294
425 14.5109
430 16.503
435 21.8049
440 17.0435
445 19.4345
450 16.9527
455 17.2805
460 17.2778
465 18.8309
470 19.5817
475 17.1953
480 18.4687
485 16.7494
490 15.703
495 18.8934
500 15.8363
505 15.9703
510 20.1396
515 18.6784
520 17.3841
525 16.7921
530 14.6209
535 16.1175
540 15.7533
545 20.1993
550 20.9683
555 15.5238
560 16.4916
565 20.2907
570 16.8995
575 16.0238
580 14.5836
585 18.9952
590 15.4546
595 17.8167
600 12.3074
Ex : 223
200 11.0581
205 15.0959
210 18.1865
215 14.3938
220 12.7978
225 13.237
230 19.662
235 19.5069
240 15.3797
245 15.2987
250 15.8868
255 13.7145
260 12.444
265 17.3079
270 20.6084
275 20.8343
280 14.4967
285 12.2137
290 13.4551
295 14.4953
300 20.9173
305 12.3355
310 12.7901
315 14.2349
320 19.5465
325 13.6213
330 13.1548
335 16.0353
340 23.0763
345 18.7264
350 16.6466
355 13.3258
360 18.6906
365 12.56
370 14.4699
375 17.8266
380 20.0835
385 16.0134
390 15.3834
395 16.2917
400 18.3909
405 21.9739
410 15.3168
415 17.999
420 17.1758
425 20.4566
430 19.4931
435 13.4683
440 16.5054
445 16.8376
450 19.3795
455 17.7331
460 14.2943
465 18.3395
470 16.223
475 15.7444
480 18.7117
485 18.3675
490 15.9621
495 17.3974
500 19.3271
505 18.3527
510 19.1245
515 18.128
520 19.8794
525 19.4807
530 19.484
535 16.2204
540 17.7693
545 15.095
550 13.2109
555 16.4108
560 12.9002
565 18.9104
570 17.0958
575 15.4732
580 20.4927
585 20.1932
590 13.6662
595 14.8774
600 22.0757
Ex : 228
200 17.6444
205 11.5266
210 16.6743
215 12.2682
220 14.9945
225 15.0294
230 16.419
235 14.6319
240 20.1049
245 13.8085
250 14.2166
255 13.5089
260 16.1703
265 13.8376
270 14.9042
275 17.4735
280 14.1641
285 13.1744
290 18.1726
295 17.9609
300 13.2977
305 16.6378
310 18.1838
315 14.8032
320 13.113
325 16.9153
330 16.275
335 16.5118
340 16.3418
345 16.6033
350 17.8245
355 15.7594
360 15.2108
365 14.8075
370 15.0545
375 17.3202
380 20.0339
385 15.69
390 14.8582
395 14.3897
400 14.3071
405 15.5731
410 13.6413
415 16.1886
420 12.6559
425 17.7368
430 14.8334
435 16.0465
440 15.8802
445 15.4855
450 18.3476
455 16.3708
460 14.8704
465 17.2297
470 18.1995
475 15.1524
480 14.6733
485 13.353
490 15.5117
495 14.7315
500 19.3069
505 16.0385
510 22.8566
515 16.9119
520 16.1448
525 14.9037
530 12.7253
535 13.6068
540 15.3115
545 16.8975
550 17.0177
555 15.0333
560 13.9168
565 12.9395
570 11.5869
575 16.775
580 17.9639
585 10.8912
590 12.3037
595 12.7072
600 35.5649
Ex : 233
200 11.4545
205 17.9944
210 12.1814
215 10.6683
220 12.7299
225 14.9786
230 10.3146
235 10.1611
240 10.4211
245 12.181
250 16.0222
255 13.5496
260 15.1364
265 12.7218
270 14.856
275 11.7179
280 13.7265
285 15.775
290 13.1558
295 12.5133
300 12.6398
305 11.8177
310 13.1304
315 12.0533
320 12.8559
325 15.3883
330 8.44242
335 13.385
340 14.2064
345 13.0951
350 19.1908
355 13.7089
360 16.5887
365 12.9305
370 13.7046
375 15.6218
380 16.1206
385 15.8904
390 13.0083
395 14.5201
400 17.9782
405 14.8684
410 17.24
415 16.0344
420 15.7422
425 15.9999
430 17.8022
435 13.7819
440 14.566
445 15.1629
450 13.6826
455 11.2691
460 19.6589
465 13.7269
470 14.7669
475 14.4683
480 16.0176
485 17.1541
490 16.8833
495 14.7805
500 15.5097
505 17.9505
510 14.4915
515 12.9482
520 12.9632
525 11.7496
530 14.0393
535 15.2547
540 10.6385
545 12.3195
550 12.2222
555 13.1079
560 16.2555
565 12.3126
570 12.0912
575 12.7429
580 16.68
585 12.9274
590 9.71683
595 13.1786
600 1.49967
Ex : 238
200 8.68511
205 8.84907
210 11.4603
215 12.9705
220 9.45575
225 12.3606
230 10.7797
235 9.66875
240 8.81024
245 11.2723
250 9.21427
255 9.12544
260 12.4852
265 11.2629
270 10.3901
275 12.3666
280 11.2331
285 12.657
290 13.0095
295 10.6223
300 10.1381
305 11.6597
310 11.1392
315 12.9811
320 9.85585
325 9.93853
330 15.2833
335 11.0124
340 12.7308
345 12.7277
350 14.9669
355 12.3866
360 13.8005
365 12.2718
370 11.5386
375 14.2127
380 12.5811
385 12.2302
390 10.3878
395 14.2721
400 14.8965
405 14.2005
410 11.6793
415 13.1066
420 12.0832
425 17.4198
430 11.9132
435 13.2452
440 13.4648
445 12.3781
450 10.0055
455 11.8425
460 10.6923
465 16.4895
470 11.9677
475 9.23231
480 10.4559
485 13.6773
490 16.7437
495 12.9319
500 12.11
505 9.91989
510 10.2604
515 10.2783
520 10.2024
525 12.9303
530 11.4796
535 11.7892
540 12.5171
545 13.9932
550 12.6246
555 11.4215
560 13.4058
565 9.76517
570 11.9121
575 9.42173
580 11.199
585 12.7991
590 11.9283
595 10.612
600 9.71516
Ex : 243
200 12.6431
205 11.1134
210 10.7725
215 8.80669
220 9.47627
225 8.55178
230 8.46322
235 10.0432
240 11.1296
245 11.1443
250 8.87392
255 11.2783
260 11.6946
265 9.77084
270 11.3158
275 9.02834
280 10.6073
285 11.4175
290 12.4106
295 8.54297
300 7.56352
305 7.17622
310 11.6214
315 7.45908
320 12.5676
325 10.9498
330 13.1198
335 10.7493
340 13.389
345 12.405
350 10.692
355 11.0895
360 10.0824
365 9.09342
370 10.746
375 10.9885
380 9.33706
385 11.8889
390 12.9184
395 11.6666
400 12.14
405 11.605
410 11.6818
415 12.0789
420 12.8846
425 11.3719
430 8.82859
435 11.3313
440 12.1653
445 10.7407
450 9.26779
455 9.5258
460 9.92433
465 9.56357
470 11.4181
475 10.4603
480 9.6059
485 11.7875
490 10.4717
495 9.46173
500 10.1833
505 9.861
510 11.2031
515 14.2164
520 11.6892
525 15.1758
530 8.0273
535 10.1663
540 9.45652
545 9.55493
550 9.95294
555 10.2752
560 10.8449
565 12.7204
570 10.1556
575 8.52646
580 9.29229
585 9.26804
590 9.71514
595 11.4351
600 11.9357
Ex : 248
200 7.41026
205 7.82503
210 8.8634
215 8.34686
220 6.65795
225 11.3773
230 9.20702
235 8.5583
240 8.465
245 9.30089
250 8.43458
255 7.57227
260 8.39149
265 8.53845
270 7.12348
275 8.57448
280 7.41268
285 7.13756
290 13.8746
295 7.09817
300 9.74558
305 9.11125
310 7.13856
315 8.38046
320 9.15452
325 9.06938
330 9.12741
335 10.0244
340 10.4752
345 9.21984
350 8.44534
355 8.91486
360 8.22686
365 7.89317
370 10.3791
375 10.8957
380 8.6456
385 9.23835
390 11.3324
395 10.6312
400 7.06101
405 9.22821
410 10.5399
415 8.91564
420 9.48242
425 9.17036
430 9.8245
435 9.59497
440 6.60121
445 8.5988
450 8.00065
455 12.9811
460 9.55463
465 10.5778
470 10.1085
475 9.47109
480 9.31184
485 7.96428
490 8.84309
495 9.4559
500 10.9547
505 8.66178
510 9.6283
515 8.90423
520 10.2542
525 7.94752
530 7.8772
535 9.96764
540 8.44478
545 10.5851
550 7.65748
555 7.67694
560 9.17069
565 7.44641
570 8.9762
575 9.70569
580 6.38984
585 8.86133
590 6.22934
595 7.35107
600 1.50118
Ex : 253
200 5.88279
205 6.5357
210 7.70949
215 6.80894
220 6.76875
225 5.29791
230 6.2492
235 7.32497
240 6.17833
245 5.99193
250 6.5404
255 5.18917
260 9.1378
265 6.09518
270 6.36625
275 5.34984
280 7.25881
285 6.05021
290 6.67275
295 6.48869
300 6.59059
305 6.22032
310 8.00145
315 7.05116
320 7.28507
325 6.32105
330 8.30075
335 6.59707
340 6.54987
345 7.54112
350 7.91912
355 8.25734
360 6.63052
365 6.26817
370 6.58121
375 8.56617
380 7.82147
385 8.35344
390 10.3728
395 8.74792
400 7.05673
405 7.15566
410 7.02947
415 8.59338
420 10.454
425 9.0016
430 7.6887
435 7.01991
440 6.18405
445 7.17512
450 6.2035
455 8.49897
460 8.28548
465 6.41579
470 6.67437
475 8.11685
480 8.05737
485 6.90626
490 7.19934
495 6.03302
500 6.83263
505 6.47916
510 9.21756
515 6.69557
520 6.89229
525 6.95285
530 5.31709
535 6.84448
540 7.86851
545 6.12519
550 8.12304
555 6.30655
560 5.56613
565 6.2445
570 6.92319
575 6.333
580 8.1432
585 8.2852
590 6.66182
595 6.68142
600 5.41289
Ex : 258
200 4.29817
205 4.71044
210 3.80538
215 5.25477
220 4.75478
225 6.01727
230 5.07564
235 5.73561
240 5.05346
245 6.40582
250 5.91628
255 5.4912
260 4.16969
265 4.80505
270 5.44805
275 6.02743
280 6.42429
285 6.15773
290 3.54847
295 4.14018
300 5.17954
305 4.75383
310 5.04629
315 4.83809
320 5.37404
325 5.95088
330 6.0509
335 6.83482
340 4.91036
345 6.05181
350 5.36696
355 5.80426
360 6.71593
365 6.04969
370 5.47539
375 5.4773
380 4.39011
385 5.38892
390 6.01783
395 6.02709
400 6.27311
405 8.261
410 5.6477
415 7.61114
420 5.67147
425 4.57329
430 6.95551
435 4.45521
440 5.95081
445 8.05863
450 7.42764
455 6.21556
460 5.47423
465 5.78589
470 5.34625
475 5.0986
480 7.46727
485 5.26452
490 4.52244
495 4.88466
500 5.69408
505 6.31457
510 7.16011
515 6.61357
520 6.24377
525 4.76022
530 6.21124
535 6.31527
540 4.7896
545 5.46456
550 5.37512
555 5.41811
560 4.79772
565 5.8041
570 6.43469
575 6.3881
580 3.9428
585 6.60956
590 5.17412
595 5.58393
600 2.92479
Ex : 263
200 3.4125
205 4.20094
210 4.86053
215 4.23078
220 4.20239
225 3.79803
230 4.1852
235 3.80466
240 3.49919
245 3.46582
250 4.64625
255 4.38574
260 3.84205
265 4.23284
270 3.93453
275 3.97599
280 2.86606
285 4.31618
290 4.86097
295 4.12533
300 4.00875
305 4.79585
310 3.67655
315 3.14877
320 3.87578
325 3.5036
330 4.11824
335 3.98156
340 4.12589
345 4.28465
350 3.71694
355 4.82372
360 4.0992
365 4.98446
370 5.26691
375 4.9089
380 4.88251
385 4.25819
390 4.19114
395 4.25547
400 6.44206
405 5.58519
410 5.01674
415 4.57807
420 3.99251
425 3.94099
430 4.35786
435 4.81809
440 5.1781
445 4.01164
450 4.59958
455 4.63882
460 5.17491
465 4.15045
470 5.24556
475 5.6487
480 4.39842
485 3.53657
490 4.53482
495 4.12279
500 4.22379
505 3.29742
510 4.82976
515 4.20099
520 4.22272
525 5.20466
530 3.77568
535 4.35863
540 3.90683
545 4.32564
550 4.44074
555 4.06527
560 4.75239
565 4.81273
570 4.36704
575 5.04253
580 4.52094
585 5.12609
590 3.64463
595 4.52684
600 0.515138
Ex : 268
200 4.81258
205 3.46386
210 2.58057
215 3.44531
220 3.38726
225 2.95124
230 3.34517
235 2.54309
240 2.75324
245 1.82924
250 3.08378
255 3.26396
260 3.51051
265 2.56706
270 3.32928
275 4.36895
280 2.96793
285 2.87386
290 3.72361
295 2.70608
300 2.37611
305 3.87768
310 3.02486
315 2.20246
320 4.17227
325 3.62297
330 4.17539
335 3.98213
340 3.36801
345 4.54326
350 4.0294
355 2.95786
360 3.18223
365 3.54057
370 3.8945
375 4.71583
380 3.75613
385 3.5445
390 3.78991
395 3.60153
400 3.78062
405 4.99201
410 4.41258
415 3.63923
420 3.7613
425 4.19006
430 4.90783
435 4.69666
440 4.08357
445 4.25297
450 4.22332
455 3.12969
460 4.70738
465 4.09856
470 3.46971
475 4.23762
480 3.65032
485 3.09033
490 3.27711
495 3.07999
500 2.79646
505 2.99535
510 3.48089
515 2.98096
520 4.24386
525 4.97367
530 3.53744
535 3.04283
540 3.13178
545 3.56807
550 3.72957
555 2.87223
560 2.33095
565 2.60289
570 3.88173
575 3.22239
580 2.97978
585 2.96146
590 3.20236
595 4.00556
600 0.455817
Ex : 273
200 3.67431
205 3.14296
210 2.21971
215 2.48673
220 2.43889
225 2.15384
230 1.74483
235 2.27846
240 2.59809
245 2.33366
250 3.52632
255 2.46125
260 2.57698
265 2.16662
270 2.77524
275 2.61414
280 2.35115
285 2.61897
290 2.42282
295 2.11622
300 3.46753
305 2.34252
310 2.20159
315 2.95628
320 3.11908
325 2.51114
330 3.06651
335 2.84179
340 2.90715
345 2.90064
350 2.8853
355 2.66013
360 3.77804
365 3.40127
370 4.01125
375 3.47025
380 3.47275
385 3.13508
390 3.36255
395 3.01666
400 3.45538
405 2.92922
410 2.9243
415 2.59383
420 2.88912
425 3.41802
430 3.46559
435 2.84548
440 3.09522
445 2.66852
450 3.11325
455 2.40586
460 3.0102
465 2.81214
470 3.15763
475 2.67204
480 3.24394
485 2.83102
490 2.9868
495 2.10105
500 2.84674
505 2.86434
510 2.78965
515 2.46313
520 2.76664
525 2.48013
530 2.36808
535 2.73058
540 3.11041
545 3.18946
550 2.83018
555 3.30919
560 2.22081
565 3.2821
570 2.99249
575 3.15498
580 2.71671
585 2.69416
590 2.9882
595 2.42641
600 2.01308
Ex : 278
200 2.33516
205 2.10795
210 1.98126
215 1.89415
220 1.68193
225 1.92788
230 2.27934
235 2.36676
240 2.34716
245 2.69553
250 1.71554
255 1.69144
260 2.03273
265 2.77687
270 2.14145
275 1.90106
280 1.75698
285 2.10608
290 1.86246
295 2.01466
300 1.69572
305 2.16775
310 2.0318
315 1.85026
320 2.05525
325 2.07543
330 2.58713
335 3.35577
340 1.85301
345 2.39066
350 2.41655
355 2.37416
360 2.42248
365 3.0234
370 2.99347
375 2.84908
380 2.28587
385 3.1331
390 2.16537
395 2.67263
400 2.83876
405 3.14451
410 3.25533
415 2.62662
420 2.90367
425 2.86041
430 2.64148
435 3.00804
440 2.39858
445 2.52957
450 2.49618
455 2.77725
460 2.47852
465 2.29878
470 2.17229
475 2.50171
480 2.30969
485 2.52883
490 2.09506
495 2.16745
500 2.08261
505 2.36685
510 1.93439
515 2.25007
520 2.10832
525 2.28522
530 2.0211
535 2.16625
540 1.83601
545 2.19673
550 2.62526
555 2.56757
560 2.64239
565 2.96
570 2.82581
575 1.97539
580 2.14619
585 2.33374
590 1.78438
595 2.05271
600 0.26313
Ex : 283
200 1.73777
205 1.87182
210 1.5136
215 1.69162
220 1.50026
225 1.77065
230 1.6783
235 1.98102
240 1.41456
245 1.64773
250 1.86355
255 2.04659
260 1.64393
265 1.5409
270 2.08725
275 2.16516
280 2.106
285 1.56925
290 1.22596
295 1.63616
300 1.75791
305 1.82118
310 1.47587
315 1.77746
320 1.45231
325 2.41012
330 2.31118
335 2.29702
340 3.17405
345 2.29721
350 2.13196
355 2.15879
360 2.45263
365 2.08455
370 2.28731
375 2.38482
380 2.7245
385 2.64767
390 2.28392
395 2.45378
400 1.95376
405 2.58059
410 2.12356
415 2.11044
420 2.45127
425 2.12016
430 2.35585
435 2.39192
440 2.23383
445 2.35431
450 2.0539
455 2.30213
460 1.8039
465 2.00908
470 2.09466
475 1.93075
480 1.75854
485 1.90054
490 2.27857
495 2.1526
500 1.58464
505 1.91502
510 1.98037
515 2.10081
520 1.78712
525 2.24526
530 1.35074
535 2.4808
540 1.74024
545 2.11746
550 1.98057
555 2.22538
560 2.72128
565 2.10823
570 1.72709
575 1.55471
580 1.49121
585 2.43522
590 2.01299
595 2.07005
600 0.235564
Ex : 288
200 0.985785
205 1.02129
210 1.67685
215 1.39602
220 1.25506
225 1.23402
230 1.68225
235 1.34945
240 1.13949
245 1.37144
250 1.44562
255 1.12246
260 1.57212
265 1.20746
270 1.15551
275 2.04708
280 1.26751
285 1.6972
290 1.40266
295 1.1389
300 1.56607
305 1.64801
310 1.80439
315 1.41073
320 1.31814
325 1.65818
330 1.97253
335 1.93361
340 1.79171
345 1.73281
350 1.61551
355 1.79382
360 1.68261
365 2.23923
370 1.80506
375 1.79831
380 2.1748
385 2.18941
390 2.25027
395 2.05134
400 2.28146
405 2.04537
410 1.96517
415 2.38473
420 2.26324
425 2.26155
430 2.54371
435 1.90473
440 2.11211
445 2.1733
450 2.30851
455 1.87532
460 2.19763
465 1.85787
470 1.66603
475 1.94727
480 2.0087
485 2.12598
490 1.97193
495 1.98544
500 1.54458
505 1.50874
510 1.82336
515 1.24728
520 1.84803
525 2.22764
530 1.65142
535 1.57997
540 1.4568
545 1.59424
550 1.47978
555 1.58133
560 1.76921
565 2.09016
570 2.14408
575 2.27137
580 1.31343
585 1.7002
590 1.46189
595 1.38102
600 0.466296
Ex : 293
200 1.22885
205 1.40494
210 1.19781
215 1.25195
220 1.19489
225 1.12641
230 1.2061
235 1.48635
240 1.54057
245 1.31055
250 1.32004
255 1.61138
260 1.20005
265 1.42754
270 1.0115
275 1.19383
280 1.20801
285 1.00766
290 1.20583
295 1.39529
300 1.85055
305 1.57228
310 1.20351
315 0.955895
320 1.20385
325 1.48716
330 1.42202
335 1.71257
340 1.75688
345 1.42264
350 1.35499
355 1.63456
360 1.45906
365 1.82397
370 1.78861
375 1.69516
380 2.12831
385 1.85974
390 1.54052
395 1.98439
400 2.0075
405 1.79767
410 1.60941
415 2.02569
420 1.99576
425 1.63496
430 1.90339
435 1.69976
440 1.76603
445 1.66832
450 1.53319
455 1.66173
460 1.646
465 1.63792
470 1.4301
475 1.43562
480 1.53957
485 1.49113
490 1.38615
495 1.65163
500 1.52715
505 1.17594
510 1.28191
515 1.21827
520 1.67554
525 1.44505
530 1.20194
535 1.50072
540 1.19558
545 1.55616
550 1.21765
555 1.06335
560 1.38786
565 1.07603
570 1.25419
575 1.16321
580 1.70007
585 1.50173
590 1.18737
595 1.49388
600 1.09095
Ex : 298
200 1.04691
205 0.821809
210 0.798686
215 1.05749
220 1.02222
225 0.86644
230 1.0486
235 1.04377
240 1.23581
245 1.08631
250 0.982599
255 1.09188
260 1.06211
265 1.24363
270 1.39845
275 1.0651
280 0.871432
285 1.26299
290 1.13103
295 1.28677
300 0.948547
305 0.848523
310 0.829183
315 1.04402
320 1.29558
325 1.47619
330 1.26096
335 1.53248
340 1.46018
345 1.37045
350 1.20508
355 1.33209
360 1.25751
365 1.63323
370 1.43573
375 1.36368
380 1.63109
385 1.70862
390 1.79869
395 1.65237
400 1.62204
405 1.97679
410 1.66822
415 1.90302
420 1.61351
425 1.42685
430 1.56479
435 1.69978
440 1.62541
445 1.33177
450 1.7557
455 1.50002
460 1.42855
465 1.60725
470 1.32971
475 1.52859
480 1.73917
485 1.3122
490 1.41157
495 1.39429
500 1.38498
505 1.52752
510 1.10244
515 1.46042
520 1.0227
525 0.989284
530 1.09283
535 1.19546
540 1.35612
545 1.356
550 1.17066
555 1.28709
560 0.973346
565 1.04798
570 0.96115
575 1.12772
580 0.975416
585 1.54346
590 1.73692
595 1.62944
600 4.63146
Ex : 303
200 0.865398
205 1.16916
210 0.739463
215 0.81537
220 0.87639
225 0.708536
230 0.772292
235 0.908502
240 0.984818
245 0.871078
250 0.940176
255 1.03594
260 0.639705
265 0.730735
270 0.94597
275 0.862114
280 0.973408
285 0.786564
290 0.752973
295 0.852795
300 1.16802
305 0.845899
310 0.998443
315 0.95575
320 1.19832
325 1.17075
330 1.278
335 1.15238
340 1.1928
345 1.43353
350 1.27942
355 1.28974
360 1.22392
365 1.1357
370 1.31402
375 1.56975
380 1.45604
385 1.49117
390 1.65979
395 1.5627
400 1.68354
405 1.65957
410 1.45803
415 1.88421
420 1.73539
425 1.48767
430 1.3103
435 1.32161
440 1.60118
445 1.60762
450 1.59267
455 1.48403
460 1.18036
465 1.63551
470 1.24562
475 1.50924
480 1.26897
485 1.17047
490 0.884922
495 1.15281
500 1.33921
505 1.32405
510 1.10187
515 0.993402
520 0.94492
525 1.08761
530 1.37765
535 1.35128
540 1.18592
545 0.994698
550 0.811298
555 0.867392
560 1.15604
565 0.829745
570 1.30849
575 1.07163
580 0.812244
585 0.919151
590 0.995882
595 1.40715
600 1.85197
Ex : 308
200 0.561475
205 0.838023
210 0.73775
215 0.695696
220 0.589482
225 0.766671
230 0.868063
235 0.869811
240 0.756796
245 0.839617
250 0.987888
255 0.596413
260 0.763325
265 0.757428
270 0.763547
275 0.688823
280 0.693641
285 0.858413
290 0.830717
295 0.657277
300 1.18815
305 1.06133
310 0.919757
315 0.776343
320 0.830153
325 1.07505
330 1.29593
335 1.29368
340 1.35902
345 1.19808
350 0.97534
355 1.49521
360 1.43088
365 1.22932
370 1.42191
375 1.35557
380 1.49856
385 1.53309
390 1.27908
395 1.2983
400 1.3818
405 1.51984
410 1.17771
415 1.38192
420 1.51716
425 1.42129
430 1.3903
435 1.34337
440 1.27381
445 1.09067
450 1.37898
455 1.49965
460 1.21408
465 1.21573
470 1.19682
475 1.10895
480 1.08846
485 1.08243
490 1.13241
495 1.24253
500 1.01612
505 1.28011
510 1.14784
515 0.787652
520 0.679123
525 0.749333
530 0.891583
535 1.05702
540 0.854754
545 0.850918
550 0.794181
555 0.865838
560 0.768217
565 0.809762
570 1.00761
575 0.734694
580 0.908306
585 1.02321
590 0.55842
595 0.727081
600 0.30429
Ex : 313
200 0.76176
205 0.575354
210 0.875589
215 0.814462
220 0.759878
225 0.642213
230 0.82147
235 0.688922
240 0.709342
245 0.662977
250 0.558828
255 0.595513
260 0.574205
265 0.869103
270 0.582284
275 0.592947
280 0.565128
285 0.863951
290 0.925701
295 0.780686
300 0.730034
305 0.859929
310 1.03625
315 0.779022
320 0.804163
325 1.14071
330 1.10608
335 1.18777
340 1.19444
345 1.1028
350 1.16148
355 1.24785
360 1.13227
365 1.40224
370 1.31803
375 1.38521
380 1.52135
385 1.37917
390 1.39585
395 1.51331
400 1.67261
405 1.47676
410 1.44801
415 1.50994
420 1.59459
425 1.55307
430 1.52111
435 1.65251
440 1.46285
445 1.61285
450 1.37154
455 1.34628
460 1.13306
465 1.1803
470 1.05048
475 1.07403
480 1.07349
485 1.10719
490 0.923056
495 0.957386
500 0.898792
505 0.879198
510 0.917111
515 0.946878
520 0.882434
525 1.03671
530 1.00518
535 1.19659
540 0.865633
545 1.09932
550 0.886652
555 0.742775
560 0.718301
565 0.804162
570 0.796203
575 0.666538
580 0.729168
585 0.684127
590 0.613343
595 0.727048
600 0.337391
Ex : 318
200 0.690155
205 0.715997
210 0.69601
215 0.589598
220 0.632216
225 0.683809
230 0.687206
235 0.747955
240 0.598074
245 0.76452
250 0.700559
255 0.73106
260 0.594028
265 0.570808
270 0.678859
275 0.645693
280 0.73574
285 0.990362
290 0.708107
295 0.63742
300 0.751915
305 0.655267
310 1.12711
315 1.67122
320 1.25354
325 1.24624
330 1.91064
335 1.84552
340 1.61392
345 2.12731
350 2.74788
355 3.0561
360 3.25851
365 3.30738
370 4.46479
375 4.99746
380 5.40364
385 5.59322
390 6.4845
395 7.14318
400 6.85188
405 6.83329
410 7.23074
415 6.86171
420 6.60279
425 6.44066
430 6.35034
435 6.23337
440 5.90642
445 5.19574
450 5.30633
455 4.89967
460 4.81913
465 4.51559
470 4.11434
475 3.71828
480 3.42475
485 3.44606
490 3.11626
495 2.96482
500 2.57694
505 2.30747
510 2.12341
515 1.93513
520 1.37811
525 1.548
530 1.41854
535 1.36706
540 1.11937
545 1.18467
550 1.01679
555 0.978432
560 0.865795
565 0.938668
570 0.803581
575 0.72397
580 0.775539
585 0.92397
590 0.880961
595 0.742842
600 0.0845326
Ex : 323
200 0.624806
205 0.689281
210 0.538873
215 0.717776
220 0.497694
225 0.488959
230 0.456186
235 0.616096
240 0.716825
245 0.398811
250 0.59025
255 0.513347
260 0.885114
265 0.697367
270 0.514547
275 0.460416
280 0.50803
285 0.57912
290 0.560173
295 0.591956
300 0.503617
305 0.522986
310 0.671516
315 10.5094
320 51.21
325 23.7174
330 5.38236
335 4.2971
340 4.99843
345 6.46372
350 8.59947
355 11.9765
360 14.0796
365 15.8914
370 18.7468
375 21.5592
380 25.0495
385 27.4526
390 29.3861
395 31.7633
400 33.3887
405 33.5804
410 34.7999
415 33.4501
420 32.1969
425 31.1892
430 29.9818
435 29.1962
440 27.6583
445 26.2023
450 25.014
455 23.2634
460 21.4681
465 20.6093
470 18.1332
475 16.7679
480 16.0919
485 13.8771
490 12.7033
495 11.4615
500 10.2426
505 9.07838
510 7.5587
515 7.0477
520 6.09014
525 5.55306
530 4.76727
535 4.23313
540 4.08736
545 3.28614
550 2.76286
555 2.62731
560 2.14624
565 2.06816
570 1.99292
575 1.25473
580 1.47328
585 1.2689
590 1.04176
595 1.00914
600 0.716787
Ex : 328
200 0.659401
205 0.429302
210 0.431736
215 0.49674
220 0.398181
225 0.677978
230 0.527218
235 0.542382
240 0.50981
245 0.476097
250 0.488079
255 0.63764
260 0.500489
265 0.476849
270 0.500919
275 0.415143
280 0.600463
285 0.656221
290 0.538757
295 0.616457
300 0.58017
305 0.662904
310 0.726675
315 3.66501
320 141.864
325 355.005
330 106.59
335 17.3299
340 8.55112
345 8.9839
350 10.8992
355 15.1337
360 20.4271
365 21.8444
370 24.7657
375 27.5631
380 31.2773
385 34.6647
390 37.5048
395 40.1907
400 41.2517
405 42.3322
410 41.8872
415 42.11
420 41.5747
425 39.6126
430 38.1476
435 37.3598
440 34.8598
445 32.9058
450 32.2785
455 28.773
460 26.9869
465 25.2204
470 23.5976
475 21.7967
480 19.2179
485 17.6967
490 16.1922
495 14.0132
500 12.3624
505 11.2144
510 10.3609
515 8.67237
520 7.59305
525 6.99592
530 5.92872
535 5.07929
540 4.80598
545 4.21125
550 4.03684
555 3.30356
560 3.00592
565 2.48612
570 2.18477
575 1.7732
580 1.69844
585 1.42242
590 1.15254
595 1.02511
600 0.570926
Ex : 333
200 0.454512
205 0.539134
210 0.577539
215 0.597477
220 0.483937
225 0.634721
230 0.485768
235 0.502085
240 0.567711
245 0.581446
250 0.585438
255 0.487963
260 0.64396
265 0.573754
270 0.668629
275 0.748414
280 0.655044
285 0.658828
290 0.634401
295 0.738369
300 0.625045
305 0.695815
310 0.740015
315 0.951749
320 21.6329
325 447.449
330 772.98
335 198.656
340 28.3533
345 9.15711
350 8.07215
355 8.71421
360 12.214
365 16.8092
370 17.3623
375 17.2269
380 18.9678
385 20.8526
390 23.1273
395 24.6397
400 25.0363
405 25.6148
410 25.9174
415 26.4656
420 25.4563
425 23.199
430 23.0027
435 22.0238
440 21.8267
445 20.2587
450 18.7415
455 17.5151
460 16.2941
465 15.1728
470 14.0638
475 12.8556
480 11.9808
485 11.0877
490 9.99229
495 8.82664
500 8.26066
505 7.6444
510 6.57381
515 5.68052
520 5.38305
525 4.88117
530 4.61677
535 3.71268
540 3.55398
545 3.14188
550 3.00459
555 2.63213
560 2.30625
565 2.25211
570 1.88692
575 1.64097
580 1.3747
585 1.22224
590 1.21044
595 1.0563
600 0.814052
Ex : 338
200 0.536016
205 0.562555
210 0.556687
215 0.517394
220 0.672787
225 0.574007
230 0.497384
235 0.55262
240 0.570218
245 0.521541
250 0.592727
255 0.649903
260 0.55394
265 0.556927
270 0.558269
275 0.604253
280 0.623498
285 0.749983
290 0.648786
295 0.543996
300 0.669951
305 0.715195
310 0.714952
315 0.89534
320 1.37995
325 42.0292
330 692.11
335 1020.27
340 243.743
345 33.0493
350 8.48521
355 5.75414
360 5.2937
365 7.34182
370 12.2303
375 11.636
380 10.758
385 11.3156
390 12.4708
395 13.7029
400 13.5629
405 13.8004
410 14.8353
415 14.8868
420 14.4579
425 13.6369
430 12.5981
435 12.602
440 12.1629
445 11.8538
450 10.4434
455 9.61206
460 9.54528
465 9.18871
470 8.19137
475 7.5333
480 6.98961
485 6.59144
490 5.90979
495 5.56188
500 5.20939
505 4.85266
510 4.39659
515 3.93923
520 3.46752
525 3.07748
530 3.18838
535 2.89503
540 2.61064
545 2.21958
550 2.10703
555 2.08227
560 1.87757
565 1.70632
570 1.44213
575 1.19125
580 1.14907
585 1.08673
590 1.28957
595 1.1167
600 1.10004
Ex : 343
200 0.613153
205 0.42586
210 0.445635
215 0.433129
220 0.504735
225 0.573069
230 0.571259
235 0.576907
240 0.576767
245 0.385168
250 0.449358
255 0.434893
260 0.558841
265 0.528079
270 0.540713
275 0.459797
280 0.548932
285 0.511332
290 0.561041
295 0.667484
300 0.630685
305 0.71483
310 0.702853
315 0.731943
320 0.949002
325 1.53604
330 49.0221
335 787.561
340 1130.6
345 265.499
350 34.4107
355 8.05475
360 4.73431
365 3.81523
370 4.79381
375 8.86327
380 10.3309
385 9.25829
390 9.53393
395 9.52248
400 9.41078
405 10.1579
410 11.138
415 11.0512
420 11.1091
425 9.83483
430 9.63405
435 9.62579
440 8.96818
445 9.08445
450 7.92071
455 7.4437
460 7.41905
465 7.335
470 6.82462
475 6.51288
480 5.95576
485 5.22771
490 5.23242
495 4.78721
500 4.34839
505 4.2875
510 3.83456
515 3.4251
520 2.97039
525 3.09246
530 2.54553
535 2.28026
540 2.21958
545 2.09035
550 2.16574
555 1.89552
560 1.6356
565 1.66655
570 1.51072
575 1.5097
580 1.23852
585 1.14004
590 0.907951
595 0.910708
600 0.784011
Ex : 348
200 0.454558
205 0.471805
210 0.432666
215 0.508483
220 0.479411
225 0.571529
230 0.542719
235 0.493256
240 0.45037
245 0.433002
250 0.443979
255 0.434142
260 0.438584
265 0.449501
270 0.606025
275 0.598084
280 0.512954
285 0.504163
290 0.512252
295 0.532449
300 0.477981
305 0.577625
310 0.637257
315 0.756252
320 0.72042
325 0.910531
330 1.70899
335 48.9755
340 780.926
345 1166.85
350 288.025
355 36.8516
360 7.73444
365 4.21606
370 3.17558
375 3.85023
380 7.78017
385 12.3565
390 11.3745
395 10.3992
400 9.51125
405 10.4524
410 11.1335
415 11.9817
420 11.3692
425 10.4902
430 9.96196
435 9.87866
440 9.58338
445 8.92386
450 8.57013
455 7.84189
460 7.39858
465 7.15428
470 6.77109
475 6.27057
480 5.8227
485 5.50866
490 5.11166
495 4.68732
500 4.36739
505 4.11824
510 3.61751
515 3.44461
520 3.3405
525 2.77924
530 2.79235
535 2.38305
540 2.31376
545 2.06891
550 1.92122
555 1.69717
560 1.66596
565 1.58295
570 1.36815
575 1.20718
580 1.19549
585 1.08463
590 1.08181
595 0.915274
600 0.646619
Ex : 353
200 0.496096
205 0.372145
210 0.465669
215 0.428046
220 0.350088
225 0.475941
230 0.453613
235 0.384582
240 0.383181
245 0.451489
250 0.366467
255 0.324976
260 0.431759
265 0.418612
270 0.48407
275 0.509609
280 0.369415
285 0.444299
290 0.499266
295 0.410655
300 0.589708
305 0.598947
310 0.591358
315 0.617687
320 0.782975
325 0.945633
330 1.10091
335 1.84554
340 50.9149
345 799.34
350 1146.64
355 271.754
360 34.8643
365 7.22046
370 4.21225
375 3.11203
380 3.80989
385 7.81087
390 13.6879
395 13.6251
400 10.8974
405 10.3915
410 11.2188
415 12.579
420 11.9292
425 11.0902
430 10.0154
435 9.65233
440 10.1825
445 9.83845
450 8.78776
455 8.07098
460 8.00926
465 7.22762
470 6.64251
475 6.36441
480 6.1502
485 5.58505
490 5.24728
495 4.73108
500 4.37706
505 4.07951
510 3.60982
515 3.31696
520 3.3069
525 2.75341
530 2.76261
535 2.62283
540 2.40794
545 2.11634
550 1.82723
555 1.90758
560 1.7126
565 1.53857
570 1.49888
575 1.144
580 1.10718
585 1.07668
590 0.954276
595 0.771172
600 0.196675
Ex : 358
200 0.366166
205 0.468576
210 0.465937
215 0.389878
220 0.377986
225 0.396987
230 0.508505
235 0.441714
240 0.475232
245 0.336532
250 0.345777
255 0.47072
260 0.350363
265 0.439468
270 0.435803
275 0.353863
280 0.396802
285 0.514656
290 0.471153
295 0.401972
300 0.42796
305 0.428297
310 0.56977
315 0.504856
320 0.588535
325 0.658216
330 0.819646
335 1.11608
340 1.87955
345 47.4595
350 747.09
355 1131.1
360 273.4
365 34.6573
370 7.09397
375 4.12192
380 3.79067
385 5.0847
390 8.61236
395 13.7396
400 12.5214
405 10.744
410 11.0459
415 11.879
420 11.2744
425 10.1588
430 9.65712
435 8.98154
440 9.91198
445 9.30999
450 8.4692
455 8.00457
460 7.61166
465 6.93531
470 6.76497
475 6.41078
480 5.8206
485 5.64748
490 4.99741
495 4.79078
500 4.57952
505 4.38407
510 3.59349
515 3.33982
520 3.26986
525 2.87141
530 2.4977
535 2.39882
540 2.16163
545 2.21269
550 2.09314
555 1.83624
560 1.65422
565 1.43408
570 1.33572
575 1.25154
580 1.16866
585 0.90046
590 0.894323
595 0.712561
600 1.13174
Ex : 363
200 0.292888
205 0.390553
210 0.387413
215 0.374037
220 0.393372
225 0.338306
230 0.371605
235 0.379148
240 0.339954
245 0.387172
250 0.301118
255 0.350281
260 0.344258
265 0.387408
270 0.361483
275 0.356182
280 0.400124
285 0.373112
290 0.406689
295 0.470514
300 0.34675
305 0.428627
310 0.468551
315 0.407801
320 0.493153
325 0.544629
330 0.713368
335 0.893042
340 1.18076
345 1.70621
350 42.267
355 716.562
360 1107.46
365 279.246
370 35.1241
375 7.12032
380 5.16197
385 6.30995
390 8.23382
395 9.91374
400 12.5307
405 13.7959
410 13.0511
415 13.3642
420 11.9053
425 10.22
430 10.4062
435 10.1952
440 10.2065
445 9.48818
450 8.92752
455 8.27188
460 8.32641
465 7.70701
470 6.88636
475 6.94346
480 5.91601
485 5.85213
490 5.26333
495 5.01692
500 4.78797
505 4.2547
510 4.02342
515 3.73663
520 3.19022
525 2.88249
530 2.74954
535 2.48659
540 2.25734
545 2.01882
550 2.01573
555 1.75224
560 1.67435
565 1.53851
570 1.39267
575 1.14345
580 1.0605
585 0.859184
590 0.823044
595 0.994938
600 0.861761
Ex : 368
200 0.345041
205 0.404621
210 0.328228
215 0.305146
220 0.298045
225 0.361355
230 0.376388
235 0.264044
240 0.36066
245 0.343336
250 0.300741
255 0.336318
260 0.320523
265 0.315468
270 0.329401
275 0.308093
280 0.340083
285 0.376348
290 0.358322
295 0.361416
300 0.423522
305 0.451277
310 0.396885
315 0.380743
320 0.465154
325 0.55506
330 0.512509
335 0.647871
340 0.86231
345 1.19823
350 1.72591
355 35.2572
360 682.301
365 1118.05
370 288.404
375 36.5691
380 8.43698
385 7.86973
390 9.96543
395 10.4992
400 10.5502
405 13.7699
410 17.3524
415 17.0358
420 15.1456
425 12.7433
430 11.8873
435 11.3105
440 11.5582
445 11.1659
450 10.5431
455 9.06784
460 8.41428
465 8.43857
470 7.75929
475 7.36521
480 6.81388
485 5.98744
490 5.53009
495 5.14183
500 4.84237
505 4.34211
510 4.15776
515 3.75438
520 3.19083
525 2.8365
530 2.85891
535 2.63129
540 2.35075
545 2.1786
550 1.99688
555 1.82737
560 1.60358
565 1.49288
570 1.29928
575 1.00352
580 0.922223
585 0.830905
590 0.671093
595 0.761127
600 0.423451
Ex : 373
200 0.305251
205 0.304701
210 0.267076
215 0.34643
220 0.353237
225 0.348769
230 0.345471
235 0.404718
240 0.336446
245 0.36945
250 0.381027
255 0.354952
260 0.33503
265 0.371635
270 0.307996
275 0.316116
280 0.355627
285 0.312385
290 0.432977
295 0.352366
300 0.336233
305 0.424769
310 0.385612
315 0.38226
320 0.365012
325 0.363591
330 0.549932
335 0.495556
340 0.670638
345 0.998671
350 1.02985
355 1.60016
360 40.9608
365 683.462
370 1084.91
375 280.098
380 35.9412
385 9.57312
390 10.2656
395 11.683
400 10.684
405 10.1394
410 13.7689
415 18.4019
420 17.3134
425 14.1452
430 11.3958
435 11.1862
440 11.4114
445 10.7622
450 10.138
455 8.72083
460 8.12391
465 7.65673
470 7.39994
475 6.85024
480 6.70188
485 5.791
490 5.43529
495 5.16446
500 5.06965
505 4.40025
510 3.90247
515 3.62339
520 3.33661
525 3.06108
530 2.80384
535 2.54663
540 2.25523
545 2.16688
550 1.89471
555 1.77854
560 1.57476
565 1.38753
570 1.24845
575 1.22145
580 0.946793
585 0.833141
590 0.856711
595 0.771184
600 1.58778
Ex : 378
200 0.288099
205 0.249536
210 0.268855
215 0.333041
220 0.350312
225 0.313017
230 0.333311
235 0.379561
240 0.32916
245 0.289622
250 0.294765
255 0.308512
260 0.251397
265 0.31935
270 0.40131
275 0.289243
280 0.30499
285 0.370943
290 0.359659
295 0.335429
300 0.372162
305 0.322094
310 0.361359
315 0.415246
320 0.412958
325 0.417644
330 0.56598
335 0.551997
340 0.634027
345 0.64276
350 0.831362
355 1.13618
360 1.65628
365 37.2237
370 681.553
375 1089.99
380 282.184
385 37.7107
390 11.3109
395 9.62951
400 8.46046
405 8.0025
410 9.33401
415 11.6908
420 13.8623
425 12.5418
430 10.5847
435 9.75047
440 9.47277
445 8.79141
450 8.4091
455 7.41661
460 6.83157
465 6.9024
470 6.55773
475 6.40002
480 5.94285
485 5.66998
490 5.14612
495 5.01176
500 4.44803
505 4.23154
510 3.80318
515 3.6438
520 3.14494
525 2.88072
530 2.62877
535 2.50066
540 2.25375
545 1.85937
550 1.88192
555 1.74313
560 1.41228
565 1.27379
570 1.18421
575 1.10301
580 0.958489
585 0.89516
590 0.807561
595 0.637501
600 0.457535
Ex : 383
200 0.280104
205 0.290721
210 0.280943
215 0.266498
220 0.300777
225 0.305693
230 0.346667
235 0.277513
240 0.32812
245 0.307308
250 0.333495
255 0.270643
260 0.257699
265 0.296317
270 0.301974
275 0.248907
280 0.381187
285 0.325694
290 0.260698
295 0.316153
300 0.353008
305 0.3699
310 0.38025
315 0.393251
320 0.340898
325 0.371047
330 0.419693
335 0.492487
340 0.572261
345 0.601957
350 0.669033
355 0.831414
360 1.13745
365 1.63742
370 34.114
375 659.759
380 1109.01
385 296.503
390 41.2832
395 11.6469
400 8.30758
405 8.6966
410 9.4926
415 10.066
420 10.4659
425 12.3295
430 11.9211
435 10.6776
440 9.81689
445 9.00864
450 8.02481
455 7.65037
460 7.16966
465 6.77758
470 6.79522
475 6.2833
480 5.83894
485 5.69538
490 5.2839
495 4.70691
500 4.36398
505 4.17314
510 3.95513
515 3.36458
520 3.14189
525 2.88321
530 2.82019
535 2.41212
540 2.12716
545 2.06759
550 1.90532
555 1.68193
560 1.59239
565 1.46691
570 1.20311
575 0.963683
580 0.858723
585 0.734486
590 0.671291
595 0.60184
600 1.48228
Ex : 388
200 0.293267
205 0.327563
210 0.340677
215 0.263174
220 0.339429
225 0.267483
230 0.2425
235 0.231302
240 0.260883
245 0.229339
250 0.368271
255 0.360341
260 0.274391
265 0.295937
270 0.276239
275 0.318484
280 0.262411
285 0.291356
290 0.320381
295 0.317397
300 0.33426
305 0.287401
310 0.3904
315 0.395244
320 0.330741
325 0.345836
330 0.326798
335 0.440533
340 0.457269
345 0.574092
350 0.599972
355 0.560869
360 0.780229
365 1.05455
370 1.65814
375 37.0072
380 669.938
385 1097.48
390 291.062
395 42.5002
400 13.1297
405 10.3378
410 11.8764
415 12.6486
420 11.7281
425 11.254
430 12.2774
435 13.4345
440 12.2324
445 10.9542
450 9.56876
455 8.27487
460 7.66649
465 7.71508
470 7.41373
475 7.11519
480 6.63734
485 6.09401
490 5.54439
495 5.04769
500 4.89459
505 4.47345
510 3.90455
515 3.65329
520 3.31065
525 3.14652
530 2.69243
535 2.4967
540 2.17134
545 2.18242
550 1.97325
555 1.56588
560 1.56889
565 1.48224
570 1.20199
575 1.06458
580 0.929492
585 0.780294
590 0.659499
595 0.558162
600 0.549176
Ex : 393
200 0.29676
205 0.270553
210 0.323184
215 0.244858
220 0.251223
225 0.26039
230 0.262799
235 0.283183
240 0.313714
245 0.31899
250 0.257278
255 0.23149
260 0.259586
265 0.280508
270 0.20482
275 0.220208
280 0.329085
285 0.250068
290 0.209397
295 0.269988
300 0.316219
305 0.302822
310 0.319013
315 0.352277
320 0.31375
325 0.372368
330 0.360398
335 0.43634
340 0.443674
345 0.469647
350 0.417996
355 0.567345
360 0.598297
365 0.728187
370 1.07018
375 1.52239
380 32.6194
385 657.174
390 1104.17
395 300.707
400 43.6083
405 12.9263
410 11.0495
415 13.1155
420 12.6358
425 10.6484
430 9.49866
435 10.954
440 13.0836
445 11.9292
450 9.94264
455 8.4671
460 7.4668
465 6.86916
470 6.84775
475 6.67269
480 6.07891
485 5.61844
490 5.01302
495 4.93458
500 4.47344
505 4.3494
510 3.92356
515 3.43299
520 3.27796
525 2.92444
530 2.91241
535 2.47794
540 2.14147
545 1.99019
550 1.93819
555 1.73851
560 1.60664
565 1.31956
570 1.18178
575 1.02205
580 0.872736
585 0.844726
590 0.681814
595 0.538408
600 0.568126
Ex : 398
200 0.204417
205 0.327025
210 0.25704
215 0.278145
220 0.331093
225 0.234226
230 0.245934
235 0.271584
240 0.262299
245 0.193066
250 0.296083
255 0.250561
260 0.33858
265 0.261163
270 0.255442
275 0.272109
280 0.273749
285 0.243979
290 0.250653
295 0.228154
300 0.324848
305 0.29698
310 0.28295
315 0.248538
320 0.385469
325 0.344375
330 0.366851
335 0.40536
340 0.40677
345 0.437847
350 0.419083
355 0.376864
360 0.482305
365 0.627797
370 0.730796
375 1.15642
380 1.68868
385 32.8761
390 659.143
395 1109.37
400 294.641
405 39.3904
410 10.7612
415 8.79682
420 8.97466
425 7.48631
430 6.15204
435 6.22442
440 7.73878
445 10.0908
450 9.47039
455 7.41505
460 6.3786
465 5.8827
470 5.73612
475 5.58866
480 5.3867
485 4.99845
490 4.82329
495 4.48938
500 4.15505
505 3.82416
510 3.58187
515 3.50917
520 3.00859
525 2.6987
530 2.66739
535 2.45728
540 2.20196
545 1.99076
550 1.90472
555 1.69313
560 1.46591
565 1.28299
570 1.04564
575 1.1017
580 0.783595
585 0.648715
590 0.586917
595 0.571407
600 0.314363
Ex : 403
200 0.253303
205 0.313331
210 0.265955
215 0.317907
220 0.237455
225 0.249081
230 0.31487
235 0.237067
240 0.235581
245 0.277468
250 0.181903
255 0.273142
260 0.318903
265 0.23057
270 0.256289
275 0.253628
280 0.312955
285 0.319393
290 0.271585
295 0.309909
300 0.274344
305 0.311506
310 0.252944
315 0.272424
320 0.329068
325 0.323366
330 0.375004
335 0.322924
340 0.397962
345 0.425704
350 0.352347
355 0.421427
360 0.446415
365 0.572122
370 0.602538
375 0.713434
380 0.992318
385 1.59999
390 37.0211
395 668.994
400 1088.02
405 289.348
410 37.4006
415 8.89756
420 5.76487
425 5.10754
430 4.69809
435 4.5398
440 4.84753
445 5.70908
450 7.55717
455 7.68689
460 6.11242
465 5.52565
470 5.00639
475 4.90624
480 4.47871
485 4.37045
490 4.14877
495 4.03918
500 3.97885
505 3.41713
510 3.32124
515 3.21226
520 2.96302
525 2.76311
530 2.53114
535 2.28369
540 2.16057
545 1.88584
550 1.73036
555 1.52922
560 1.37437
565 1.32348
570 1.11586
575 0.906913
580 0.790863
585 0.647336
590 0.59118
595 0.55133
600 0.141111
Ex : 408
200 0.275026
205 0.269807
210 0.190481
215 0.263792
220 0.271102
225 0.264058
230 0.226837
235 0.319218
240 0.30912
245 0.247506
250 0.300799
255 0.25809
260 0.348164
265 0.280011
270 0.221007
275 0.249693
280 0.291038
285 0.265405
290 0.207428
295 0.255582
300 0.298523
305 0.241931
310 0.322573
315 0.317639
320 0.342542
325 0.311027
330 0.307671
335 0.31975
340 0.420353
345 0.39952
350 0.310156
355 0.378717
360 0.50154
365 0.493766
370 0.627001
375 0.636206
380 0.746853
385 1.11694
390 1.72191
395 34.8385
400 670.177
405 1087.26
410 279.397
415 36.6389
420 8.41905
425 4.941
430 4.6688
435 4.73725
440 4.83464
445 4.77172
450 4.88647
455 6.46838
460 7.73704
465 6.2153
470 5.62459
475 5.17971
480 4.75571
485 4.32184
490 3.8626
495 4.04688
500 3.78916
505 3.5265
510 3.12924
515 3.12017
520 2.77437
525 2.43482
530 2.46578
535 2.29664
540 2.08779
545 1.88018
550 1.74729
555 1.5303
560 1.34684
565 1.23874
570 1.20336
575 0.951052
580 0.843823
585 0.783061
590 0.60895
595 0.574606
600 0.794848
Ex : 413
200 0.253451
205 0.226825
210 0.299397
215 0.296921
220 0.258725
225 0.297426
230 0.227409
235 0.279515
240 0.202117
245 0.223923
250 0.175754
255 0.298568
260 0.224916
265 0.279069
270 0.286794
275 0.300301
280 0.22333
285 0.256241
290 0.246977
295 0.327268
300 0.228895
305 0.283503
310 0.276825
315 0.327915
320 0.285773
325 0.353822
330 0.323243
335 0.339063
340 0.315625
345 0.323824
350 0.336163
355 0.435674
360 0.419391
365 0.391842
370 0.536573
375 0.60173
380 0.554507
385 0.66335
390 1.0831
395 1.67699
400 38.8205
405 678.172
410 1071.51
415 269.654
420 35.0791
425 7.53724
430 4.17703
435 4.586
440 4.45845
445 4.34576
450 4.28356
455 4.34357
460 5.1989
465 7.07527
470 6.44421
475 5.20938
480 4.62392
485 4.26248
490 3.92909
495 3.76926
500 3.73805
505 3.39955
510 3.0299
515 2.93404
520 2.70713
525 2.67534
530 2.35892
535 2.18746
540 1.96906
545 1.80188
550 1.78441
555 1.58245
560 1.43049
565 1.26888
570 1.20296
575 0.919985
580 0.865519
585 0.724065
590 0.642447
595 0.55599
600 0.400731
Ex : 418
200 0.259227
205 0.313962
210 0.255384
215 0.230267
220 0.249188
225 0.242969
230 0.254369
235 0.210916
240 0.303385
245 0.233368
250 0.250313
255 0.239339
260 0.249367
265 0.268341
270 0.25599
275 0.254912
280 0.276859
285 0.310159
290 0.288867
295 0.277296
300 0.251115
305 0.284213
310 0.317246
315 0.256006
320 0.414188
325 0.349368
330 0.320117
335 0.307248
340 0.30446
345 0.299449
350 0.321337
355 0.283263
360 0.381731
365 0.457835
370 0.525105
375 0.454579
380 0.52471
385 0.691372
390 0.75936
395 1.0759
400 1.54536
405 36.1587
410 661.752
415 1064.33
420 275.231
425 34.4615
430 6.64789
435 3.53012
440 3.38818
445 3.51637
450 3.17745
455 3.07535
460 3.08399
465 3.79729
470 5.86423
475 5.97457
480 4.50046
485 4.01536
490 3.73069
495 3.44645
500 3.37553
505 3.11033
510 2.8625
515 2.76459
520 2.44887
525 2.35398
530 2.21071
535 2.04653
540 1.96622
545 1.72737
550 1.64665
555 1.53195
560 1.37289
565 1.24731
570 1.04314
575 0.931841
580 0.774234
585 0.678138
590 0.578349
595 0.561039
600 0.349431
Ex : 423
200 0.18669
205 0.276235
210 0.268907
215 0.216845
220 0.221447
225 0.217726
230 0.218789
235 0.241101
240 0.275025
245 0.261345
250 0.259304
255 0.273358
260 0.282053
265 0.269508
270 0.260631
275 0.281233
280 0.278592
285 0.271623
290 0.323996
295 0.256094
300 0.257128
305 0.330002
310 0.28067
315 0.301266
320 0.325069
325 0.286618
330 0.285797
335 0.295125
340 0.379384
345 0.351865
350 0.316839
355 0.288865
360 0.349048
365 0.379779
370 0.396553
375 0.394494
380 0.390903
385 0.54466
390 0.680772
395 0.806061
400 1.07805
405 1.69163
410 36.3386
415 681.142
420 1041.15
425 257.729
430 32.0742
435 5.78751
440 2.75216
445 2.75506
450 2.53656
455 2.33149
460 2.43112
465 2.63338
470 2.87692
475 4.8652
480 5.5024
485 4.2085
490 3.56194
495 3.42903
500 2.87566
505 2.76362
510 2.52199
515 2.55912
520 2.3414
525 2.39852
530 2.1228
535 1.83296
540 1.7677
545 1.55497
550 1.55222
555 1.42823
560 1.3322
565 1.12031
570 1.05114
575 0.939326
580 0.821177
585 0.657962
590 0.690316
595 0.576795
600 0.651581
Ex : 428
200 0.206885
205 0.285033
210 0.236288
215 0.20433
220 0.253256
225 0.282759
230 0.248946
235 0.300154
240 0.274024
245 0.250559
250 0.263286
255 0.242598
260 0.248352
265 0.229139
270 0.26045
275 0.258148
280 0.302402
285 0.264889
290 0.210499
295 0.233284
300 0.213779
305 0.299925
310 0.249178
315 0.266754
320 0.227025
325 0.333385
330 0.326077
335 0.281127
340 0.312683
345 0.33348
350 0.340039
355 0.38406
360 0.313709
365 0.35365
370 0.354824
375 0.367578
380 0.418424
385 0.453046
390 0.50433
395 0.692158
400 0.794149
405 1.13112
410 1.74731
415 38.9438
420 668.753
425 1039.92
430 263.364
435 32.5694
440 5.73524
445 2.4965
450 2.42411
455 2.63247
460 2.42644
465 2.29912
470 2.32691
475 2.6816
480 3.97958
485 5.14676
490 4.2517
495 3.23904
500 3.22618
505 2.78438
510 2.42716
515 2.48613
520 2.39803
525 2.13112
530 2.06094
535 1.93172
540 1.77702
545 1.68967
550 1.48677
555 1.32698
560 1.25565
565 1.16919
570 1.09279
575 0.864839
580 0.788169
585 0.713652
590 0.598049
595 0.642658
600 0.421071
Ex : 433
200 0.30923
205 0.202316
210 0.330852
215 0.310987
220 0.224935
225 0.323479
230 0.235048
235 0.282788
240 0.250593
245 0.304636
250 0.273394
255 0.267234
260 0.258374
265 0.305034
270 0.27676
275 0.186738
280 0.268392
285 0.338654
290 0.248969
295 0.208693
300 0.226097
305 0.236236
310 0.291125
315 0.342026
320 0.266364
325 0.371013
330 0.311245
335 0.319412
340 0.306825
345 0.30319
350 0.314566
355 0.339125
360 0.352733
365 0.354998
370 0.353918
375 0.405905
380 0.412913
385 0.410337
390 0.504243
395 0.583176
400 0.687918
405 0.853875
410 1.06605
415 1.55315
420 42.4987
425 706.677
430 1035.42
435 252.466
440 31.3675
445 5.69897
450 2.4155
455 2.41613
460 2.44979
465 2.19479
470 1.99449
475 2.20923
480 2.46496
485 3.21139
490 4.78967
495 4.38225
500 3.16159
505 3.06091
510 2.60402
515 2.37148
520 2.19931
525 2.07251
530 1.9722
535 1.88437
540 1.64323
545 1.5917
550 1.41239
555 1.2847
560 1.35073
565 1.16376
570 1.05165
575 0.934678
580 0.855191
585 0.721802
590 0.547008
595 0.544862
600 1.0143
Ex : 438
200 0.236118
205 0.193462
210 0.266069
215 0.230231
220 0.218608
225 0.224222
230 0.281991
235 0.240778
240 0.260646
245 0.249966
250 0.256493
255 0.332262
260 0.286716
265 0.250397
270 0.291207
275 0.216448
280 0.281429
285 0.264378
290 0.263683
295 0.24175
300 0.275752
305 0.259871
310 0.282278
315 0.282236
320 0.322663
325 0.395186
330 0.270562
335 0.298878
340 0.404561
345 0.313035
350 0.313771
355 0.405962
360 0.318504
365 0.303892
370 0.376746
375 0.411605
380 0.412091
385 0.498746
390 0.478682
395 0.438924
400 0.552396
405 0.709822
410 0.831343
415 1.05284
420 1.58345
425 39.9555
430 685.711
435 1070.73
440 262.792
445 32.3304
450 5.81731
455 2.39394
460 2.31385
465 2.37418
470 2.13157
475 2.02281
480 2.16865
485 2.25908
490 2.78722
495 4.15872
500 4.39014
505 3.27353
510 2.67878
515 2.48356
520 2.15823
525 2.05489
530 1.9132
535 1.90785
540 1.91917
545 1.66494
550 1.58341
555 1.5389
560 1.26237
565 1.26261
570 1.03919
575 1.01096
580 0.820376
585 0.751843
590 0.584172
595 0.527305
600 0.540658
Ex : 443
200 0.224747
205 0.268514
210 0.226365
215 0.316202
220 0.229733
225 0.273102
230 0.310792
235 0.272748
240 0.280057
245 0.259852
250 0.273697
255 0.278588
260 0.262822
265 0.270227
270 0.285315
275 0.307916
280 0.27003
285 0.239122
290 0.210883
295 0.278543
300 0.236296
305 0.216581
310 0.3025
315 0.294994
320 0.356276
325 0.29477
330 0.258415
335 0.354552
340 0.342928
345 0.340014
350 0.336793
355 0.310144
360 0.327103
365 0.4015
370 0.391647
375 0.342578
380 0.426257
385 0.404706
390 0.372953
395 0.422482
400 0.532875
405 0.611267
410 0.586288
415 0.766617
420 1.03093
425 1.599
430 44.0058
435 714.113
440 1065.72
445 257.401
450 31.9497
455 5.71878
460 2.48791
465 2.40157
470 2.41943
475 2.21878
480 1.97461
485 2.09639
490 2.0924
495 2.36132
500 3.68523
505 4.57078
510 3.28602
515 2.6396
520 2.38981
525 2.28469
530 2.0681
535 1.89371
540 1.71793
545 1.6157
550 1.41193
555 1.35398
560 1.28435
565 1.18763
570 1.05469
575 0.829188
580 0.809717
585 0.656004
590 0.553582
595 0.583482
600 0.287949
Ex : 448
200 0.313824
205 0.316559
210 0.267359
215 0.2408
220 0.227724
225 0.274904
230 0.27275
235 0.264674
240 0.237254
245 0.295769
250 0.354227
255 0.269087
260 0.318413
265 0.30862
270 0.250821
275 0.240161
280 0.215151
285 0.237268
290 0.260522
295 0.274289
300 0.291947
305 0.282599
310 0.252982
315 0.304694
320 0.278013
325 0.319637
330 0.294253
335 0.345342
340 0.366513
345 0.312146
350 0.312355
355 0.300152
360 0.289712
365 0.284002
370 0.373966
375 0.390537
380 0.38891
385 0.430638
390 0.449338
395 0.450553
400 0.54912
405 0.490225
410 0.569693
415 0.694215
420 0.692722
425 0.948864
430 1.48913
435 43.5207
440 741.614
445 1098.16
450 264.789
455 32.7122
460 5.89987
465 2.46709
470 2.23486
475 2.21153
480 2.21672
485 1.94642
490 2.16927
495 2.13473
500 2.07117
505 3.06404
510 4.07516
515 3.6943
520 2.74109
525 2.50304
530 2.16541
535 1.79698
540 1.74663
545 1.60382
550 1.54053
555 1.43091
560 1.4481
565 1.22959
570 1.04063
575 0.923775
580 0.852293
585 0.802061
590 0.541347
595 0.533753
600 0.645451
Ex : 453
200 0.272307
205 0.223251
210 0.372201
215 0.251921
220 0.241141
225 0.232171
230 0.242968
235 0.283258
240 0.253733
245 0.257025
250 0.262244
255 0.283358
260 0.269217
265 0.282866
270 0.260261
275 0.288852
280 0.331359
285 0.229486
290 0.233581
295 0.289609
300 0.299085
305 0.320334
310 0.245255
315 0.272698
320 0.249788
325 0.294868
330 0.288672
335 0.282746
340 0.369981
345 0.280233
350 0.305079
355 0.317093
360 0.316645
365 0.315676
370 0.30122
375 0.340869
380 0.350938
385 0.36043
390 0.356497
395 0.374982
400 0.375954
405 0.419632
410 0.49305
415 0.510672
420 0.553154
425 0.654069
430 1.01888
435 1.41609
440 44.2713
445 782.12
450 1110.83
455 255.923
460 31.6516
465 5.72451
470 2.31962
475 2.07418
480 2.41939
485 2.06835
490 2.06126
495 1.95246
500 1.90511
505 2.00247
510 2.43654
515 3.99606
520 3.69052
525 2.7688
530 2.43259
535 2.10616
540 1.67185
545 1.67641
550 1.56096
555 1.40942
560 1.32095
565 1.2286
570 1.10139
575 0.965985
580 0.752239
585 0.658216
590 0.610441
595 0.562861
600 0.409326
Ex : 458
200 0.243622
205 0.258377
210 0.280487
215 0.293335
220 0.291732
225 0.258795
230 0.242306
235 0.288486
240 0.388931
245 0.311155
250 0.304619
255 0.208681
260 0.251054
265 0.207628
270 0.305595
275 0.253364
280 0.282896
285 0.320538
290 0.259007
295 0.25026
300 0.253723
305 0.289399
310 0.288929
315 0.319707
320 0.261093
325 0.267461
330 0.347532
335 0.311972
340 0.324254
345 0.292306
350 0.262962
355 0.321723
360 0.29704
365 0.359868
370 0.331381
375 0.398566
380 0.363146
385 0.44698
390 0.422821
395 0.46414
400 0.48346
405 0.45109
410 0.434313
415 0.444976
420 0.45325
425 0.653642
430 0.781211
435 1.01812
440 1.5212
445 49.2054
450 799.919
455 1156.31
460 272.908
465 33.7133
470 5.89685
475 2.47529
480 2.14119
485 2.35329
490 2.14622
495 1.95378
500 1.85941
505 1.71022
510 1.86875
515 1.97507
520 3.04625
525 3.84761
530 2.86848
535 2.18759
540 2.0889
545 1.78096
550 1.55672
555 1.44941
560 1.32926
565 1.17737
570 1.088
575 0.915585
580 0.815153
585 0.762195
590 0.699042
595 0.52775
600 0.486747
Ex : 463
200 0.288904
205 0.286822
210 0.335122
215 0.247374
220 0.295584
225 0.221657
230 0.258425
235 0.243732
240 0.242569
245 0.216755
250 0.253869
255 0.26047
260 0.277173
265 0.247176
270 0.284543
275 0.230258
280 0.286375
285 0.245571
290 0.252444
295 0.217806
300 0.280251
305 0.245568
310 0.291597
315 0.213403
320 0.317461
325 0.336009
330 0.248413
335 0.291578
340 0.273387
345 0.245116
350 0.277715
355 0.32092
360 0.323933
365 0.29957
370 0.310932
375 0.307707
380 0.339636
385 0.357896
390 0.364013
395 0.427202
400 0.39828
405 0.333602
410 0.365008
415 0.417554
420 0.424973
425 0.464576
430 0.57186
435 0.709856
440 0.918144
445 1.51247
450 47.5989
455 812.08
460 1210.31
465 283.961
470 34.896
475 6.13097
480 2.42916
485 2.0554
490 2.11767
495 2.19035
500 1.89377
505 1.68054
510 1.68191
515 1.79682
520 1.99493
525 2.56671
530 3.87073
535 3.15024
540 2.25976
545 1.96256
550 1.81563
555 1.51272
560 1.37481
565 1.27482
570 1.13438
575 1.03442
580 0.872367
585 0.685154
590 0.659658
595 0.604098
600 0.792803
Ex : 468
200 0.214415
205 0.292871
210 0.228838
215 0.208014
220 0.268168
225 0.274814
230 0.260092
235 0.204079
240 0.218906
245 0.212835
250 0.26558
255 0.240142
260 0.235839
265 0.228652
270 0.244104
275 0.24111
280 0.216774
285 0.216011
290 0.285297
295 0.236351
300 0.225081
305 0.25576
310 0.229219
315 0.23859
320 0.249964
325 0.236408
330 0.270805
335 0.312684
340 0.243514
345 0.264176
350 0.274987
355 0.30316
360 0.2831
365 0.28173
370 0.273659
375 0.299764
380 0.283578
385 0.341621
390 0.391751
395 0.369799
400 0.291899
405 0.34019
410 0.303953
415 0.356303
420 0.375159
425 0.409596
430 0.49044
435 0.618891
440 0.698543
445 0.969251
450 1.47061
455 50.724
460 809.663
465 1243.04
470 292.012
475 35.522
480 5.88347
485 2.36691
490 1.91326
495 2.07561
500 1.98756
505 1.69683
510 1.66194
515 1.62328
520 1.87568
525 1.82895
530 2.07801
535 3.4149
540 3.17546
545 2.18883
550 1.81824
555 1.7193
560 1.53553
565 1.30364
570 1.12939
575 0.962213
580 0.787181
585 0.720063
590 0.682644
595 0.526882
600 0.234211
Ex : 473
200 0.242902
205 0.183209
210 0.271817
215 0.225865
220 0.209816
225 0.241869
230 0.205454
235 0.254963
240 0.211922
245 0.289862
250 0.305938
255 0.260096
260 0.240523
265 0.237966
270 0.228376
275 0.308712
280 0.305544
285 0.239901
290 0.238301
295 0.25372
300 0.246316
305 0.294943
310 0.28944
315 0.256966
320 0.255677
325 0.264521
330 0.25784
335 0.189308
340 0.246702
345 0.302255
350 0.297855
355 0.258726
360 0.325483
365 0.311157
370 0.329556
375 0.299754
380 0.297209
385 0.327862
390 0.334071
395 0.302688
400 0.331185
405 0.428759
410 0.394257
415 0.356227
420 0.431506
425 0.438186
430 0.430288
435 0.440711
440 0.543083
445 0.751975
450 1.09566
455 1.61886
460 57.9235
465 878.144
470 1198.86
475 270.507
480 33.1602
485 5.66591
490 2.25798
495 1.89195
500 1.93829
505 1.85877
510 1.94756
515 1.69912
520 1.69416
525 1.83376
530 1.84659
535 2.0109
540 2.8088
545 3.34493
550 2.35216
555 1.79263
560 1.60926
565 1.53911
570 1.36479
575 0.923911
580 0.864805
585 0.776482
590 0.585664
595 0.646742
600 0.768189
Ex : 478
200 0.231902
205 0.251857
210 0.297216
215 0.30004
220 0.290603
225 0.318242
230 0.258588
235 0.324362
240 0.314812
245 0.264735
250 0.316124
255 0.327524
260 0.377095
265 0.250933
270 0.293904
275 0.278805
280 0.331095
285 0.302709
290 0.256833
295 0.25364
300 0.25334
305 0.279608
310 0.257404
315 0.336794
320 0.331188
325 0.305943
330 0.338241
335 0.330276
340 0.335918
345 0.306955
350 0.350601
355 0.296182
360 0.337807
365 0.273884
370 0.318346
375 0.331138
380 0.379523
385 0.342164
390 0.336321
395 0.369794
400 0.396656
405 0.370764
410 0.414582
415 0.507049
420 0.518792
425 0.517693
430 0.606781
435 0.488118
440 0.641982
445 0.816345
450 0.861956
455 1.13532
460 1.8853
465 62.6037
470 892.127
475 1220.59
480 286.734
485 35.0141
490 5.92508
495 2.36085
500 1.70599
505 1.90987
510 1.99625
515 1.86056
520 1.76967
525 1.82501
530 1.69895
535 1.77214
540 1.72646
545 2.32128
550 3.12854
555 2.71133
560 1.81144
565 1.47053
570 1.41743
575 1.15749
580 0.839756
585 0.841969
590 0.797521
595 0.617352
600 0.343933
Ex : 483
200 0.270564
205 0.321968
210 0.282777
215 0.341184
220 0.351336
225 0.303659
230 0.292381
235 0.280597
240 0.333685
245 0.258849
250 0.348045
255 0.342991
260 0.286164
265 0.249544
270 0.333613
275 0.285834
280 0.288869
285 0.30016
290 0.267048
295 0.304106
300 0.273125
305 0.311873
310 0.31287
315 0.317175
320 0.265995
325 0.316542
330 0.308124
335 0.370901
340 0.297125
345 0.285937
350 0.367792
355 0.364165
360 0.326057
365 0.29576
370 0.347563
375 0.364917
380 0.374489
385 0.354879
390 0.376756
395 0.328164
400 0.303836
405 0.392029
410 0.465754
415 0.400128
420 0.377351
425 0.354541
430 0.499017
435 0.464067
440 0.507795
445 0.591781
450 0.734581
455 0.904505
460 1.16448
465 1.93075
470 49.0282
475 868.024
480 1286.71
485 300.336
490 36.4851
495 5.88351
500 2.27113
505 1.53253
510 1.70917
515 1.94306
520 1.97422
525 1.84415
530 1.84272
535 1.65118
540 1.80608
545 1.65267
550 1.72804
555 2.60706
560 2.79739
565 1.83462
570 1.46933
575 1.40461
580 1.02791
585 0.79316
590 0.721727
595 0.661252
600 0.890556
Ex : 488
200 0.322804
205 0.451636
210 0.31092
215 0.343183
220 0.282452
225 0.346721
230 0.461779
235 0.332619
240 0.258376
245 0.289654
250 0.326387
255 0.240523
260 0.338316
265 0.350275
270 0.279705
275 0.232064
280 0.28234
285 0.324898
290 0.356108
295 0.350443
300 0.311807
305 0.350798
310 0.333722
315 0.298119
320 0.341691
325 0.366089
330 0.347743
335 0.289071
340 0.310765
345 0.41443
350 0.309768
355 0.376836
360 0.380619
365 0.363026
370 0.461731
375 0.328687
380 0.423383
385 0.411438
390 0.458174
395 0.422966
400 0.418131
405 0.389527
410 0.476155
415 0.416002
420 0.413451
425 0.441528
430 0.510659
435 0.483366
440 0.552831
445 0.514078
450 0.63571
455 0.811431
460 0.972356
465 1.31348
470 1.9696
475 59.0817
480 921.077
485 1257.07
490 288.378
495 35.0424
500 5.84959
505 2.24338
510 1.71266
515 1.76134
520 1.97121
525 1.97662
530 1.90238
535 1.66762
540 1.72533
545 1.69331
550 1.49876
555 1.6698
560 2.15614
565 2.62151
570 2.05681
575 1.29205
580 1.15609
585 0.980323
590 0.817386
595 0.802805
600 0.97756
Ex : 493
200 0.297517
205 0.231529
210 0.275081
215 0.332837
220 0.240222
225 0.353204
230 0.308601
235 0.431763
240 0.272594
245 0.328855
250 0.408177
255 0.326285
260 0.300208
265 0.258516
270 0.235177
275 0.32069
280 0.46012
285 0.32829
290 0.356296
295 0.340433
300 0.325413
305 0.322684
310 0.278304
315 0.243016
320 0.382393
325 0.318816
330 0.327488
335 0.284365
340 0.334157
345 0.348712
350 0.417535
355 0.375223
360 0.375441
365 0.361517
370 0.462853
375 0.398455
380 0.400777
385 0.455273
390 0.421229
395 0.452065
400 0.388324
405 0.347047
410 0.355361
415 0.399527
420 0.463116
425 0.429513
430 0.445009
435 0.517454
440 0.485839
445 0.50462
450 0.613265
455 0.683683
460 0.807093
465 1.13831
470 1.31549
475 1.95783
480 53.3508
485 898.844
490 1306.2
495 294.265
500 35.78
505 5.83393
510 2.37071
515 1.67827
520 1.82631
525 1.83591
530 1.88466
535 1.87073
540 1.73416
545 1.60706
550 1.48082
555 1.37029
560 1.3769
565 1.74248
570 2.41635
575 1.84169
580 1.35437
585 1.02257
590 0.759886
595 0.786903
600 0.580313
Ex : 498
200 0.37021
205 0.303044
210 0.299723
215 0.320518
220 0.345689
225 0.388142
230 0.395632
235 0.308426
240 0.29281
245 0.350805
250 0.402462
255 0.407987
260 0.361021
265 0.349589
270 0.316385
275 0.311382
280 0.421562
285 0.364779
290 0.370947
295 0.336984
300 0.395328
305 0.358501
310 0.388236
315 0.367808
320 0.359227
325 0.356605
330 0.348887
335 0.392118
340 0.389936
345 0.318005
350 0.366229
355 0.467864
360 0.389322
365 0.424967
370 0.381702
375 0.391304
380 0.454894
385 0.488079
390 0.455799
395 0.408788
400 0.388202
405 0.422963
410 0.411668
415 0.45745
420 0.504209
425 0.574574
430 0.562864
435 0.511402
440 0.503609
445 0.576402
450 0.507511
455 0.743514
460 0.697698
465 0.861395
470 1.03603
475 1.33191
480 2.04514
485 62.943
490 942.186
495 1255.42
500 283.882
505 34.7959
510 5.75946
515 2.43426
520 1.93752
525 2.02019
530 2.06446
535 1.97869
540 1.81298
545 1.68155
550 1.55463
555 1.47233
560 1.37035
565 1.36282
570 1.2748
575 1.78357
580 1.8054
585 1.22389
590 0.92934
595 0.951871
600 0.156548
Ex : 503
200 0.381156
205 0.329549
210 0.293228
215 0.313903
220 0.341329
225 0.388087
230 0.435379
235 0.372101
240 0.447753
245 0.384345
250 0.448487
255 0.41276
260 0.492842
265 0.346105
270 0.351814
275 0.335036
280 0.410213
285 0.393749
290 0.427292
295 0.329491
300 0.360197
305 0.310235
310 0.340268
315 0.366941
320 0.353562
325 0.370596
330 0.332906
335 0.426139
340 0.438435
345 0.528959
350 0.417244
355 0.357541
360 0.397176
365 0.395311
370 0.445515
375 0.354862
380 0.424121
385 0.546809
390 0.455067
395 0.510414
400 0.514256
405 0.384646
410 0.44808
415 0.558584
420 0.454391
425 0.476631
430 0.498254
435 0.559433
440 0.562453
445 0.633563
450 0.547049
455 0.544824
460 0.604189
465 0.707381
470 0.875115
475 0.930169
480 1.30925
485 2.01012
490 56.5183
495 922.278
500 1273.36
505 287.017
510 34.9997
515 6.07104
520 2.64667
525 1.93786
530 1.94536
535 2.07052
540 1.93979
545 1.68691
550 1.68012
555 1.34057
560 1.34475
565 1.25072
570 1.05994
575 1.14955
580 1.45887
585 1.44459
590 1.27157
595 0.891592
600 0.422181
Ex : 508
200 0.396664
205 0.295716
210 0.353897
215 0.416687
220 0.466626
225 0.432516
230 0.345913
235 0.492393
240 0.516155
245 0.384651
250 0.379433
255 0.353735
260 0.44478
265 0.347745
270 0.329068
275 0.438876
280 0.354163
285 0.429268
290 0.291456
295 0.426387
300 0.436131
305 0.3497
310 0.37429
315 0.365343
320 0.37761
325 0.372902
330 0.40423
335 0.437098
340 0.365676
345 0.395386
350 0.368297
355 0.487413
360 0.419563
365 0.399581
370 0.419671
375 0.39381
380 0.405314
385 0.482691
390 0.416451
395 0.453194
400 0.419772
405 0.383224
410 0.399555
415 0.410528
420 0.356805
425 0.509825
430 0.538454
435 0.534376
440 0.552902
445 0.530584
450 0.51908
455 0.608092
460 0.640201
465 0.701274
470 0.741582
475 0.868738
480 1.08511
485 1.32494
490 1.79753
495 61.2865
500 916.593
505 1254.25
510 297.461
515 36.2838
520 6.20663
525 2.39777
530 1.89842
535 1.71635
540 1.82344
545 1.78725
550 1.61622
555 1.51218
560 1.32019
565 1.33062
570 1.30191
575 1.00711
580 0.958529
585 0.972063
590 1.25123
595 1.28864
600 0.767413
Ex : 513
200 0.333293
205 0.357862
210 0.324965
215 0.472691
220 0.468838
225 0.429239
230 0.503595
235 0.418051
240 0.391325
245 0.393346
250 0.432616
255 0.386975
260 0.3338
265 0.399915
270 0.484688
275 0.342332
280 0.284063
285 0.277009
290 0.336609
295 0.419676
300 0.380379
305 0.42088
310 0.364013
315 0.39824
320 0.328024
325 0.40562
330 0.417572
335 0.45897
340 0.455916
345 0.421633
350 0.431302
355 0.336637
360 0.412305
365 0.537285
370 0.500162
375 0.415411
380 0.541713
385 0.509046
390 0.50189
395 0.43126
400 0.441823
405 0.456468
410 0.479726
415 0.534819
420 0.426422
425 0.613624
430 0.436201
435 0.466232
440 0.409599
445 0.556279
450 0.569552
455 0.552434
460 0.658783
465 0.646933
470 0.69218
475 0.823042
480 0.785942
485 0.959159
490 1.35245
495 1.9293
500 54.463
505 885.348
510 1261.06
515 299.864
520 36.4794
525 6.0675
530 2.39396
535 1.85547
540 1.77519
545 1.76364
550 1.60834
555 1.56518
560 1.2695
565 1.22921
570 1.25165
575 0.995409
580 0.966525
585 0.884566
590 0.918488
595 1.04087
600 0.557073
Ex : 518
200 0.483983
205 0.409799
210 0.387473
215 0.368769
220 0.376804
225 0.392876
230 0.330634
235 0.348943
240 0.318698
245 0.345451
250 0.38509
255 0.360844
260 0.439158
265 0.399585
270 0.476188
275 0.356477
280 0.431843
285 0.316222
290 0.339889
295 0.379909
300 0.416679
305 0.369893
310 0.430263
315 0.388522
320 0.46751
325 0.425442
330 0.369858
335 0.384997
340 0.488626
345 0.407386
350 0.323644
355 0.565469
360 0.485198
365 0.432626
370 0.454816
375 0.45232
380 0.445795
385 0.405919
390 0.506349
395 0.491993
400 0.527308
405 0.462594
410 0.613495
415 0.487828
420 0.490727
425 0.530811
430 0.505352
435 0.557963
440 0.566543
445 0.605341
450 0.57708
455 0.557388
460 0.591946
465 0.675173
470 0.625193
475 0.624265
480 0.868048
485 0.802693
490 0.933132
495 1.35481
500 1.95016
505 55.3918
510 848.626
515 1226.12
520 297.571
525 36.1575
530 5.94514
535 2.45215
540 1.76625
545 1.58931
550 1.60518
555 1.53269
560 1.56023
565 1.20464
570 1.22897
575 1.06958
580 0.999295
585 0.78354
590 0.741462
595 0.867076
600 0.491523
Ex : 523
200 0.51766
205 0.426069
210 0.350535
215 0.41167
220 0.424977
225 0.425742
230 0.402815
235 0.360791
240 0.414976
245 0.418401
250 0.41588
255 0.309447
260 0.38041
265 0.49729
270 0.430539
275 0.366244
280 0.357335
285 0.37655
290 0.366646
295 0.442883
300 0.463998
305 0.384361
310 0.49003
315 0.406944
320 0.39728
325 0.471705
330 0.486387
335 0.379069
340 0.404806
345 0.5146
350 0.518965
355 0.505401
360 0.482417
365 0.49475
370 0.455885
375 0.428971
380 0.438946
385 0.406297
390 0.424931
395 0.487399
400 0.590893
405 0.471731
410 0.473923
415 0.486933
420 0.446007
425 0.430066
430 0.541902
435 0.679534
440 0.5526
445 0.566716
450 0.461407
455 0.611138
460 0.567522
465 0.600063
470 0.574508
475 0.615211
480 0.653836
485 0.752398
490 0.821786
495 1.14251
500 1.24403
505 1.78927
510 49.621
515 810.94
520 1211.58
525 302
530 36.6901
535 6.02304
540 2.39874
545 1.61837
550 1.50336
555 1.41065
560 1.30864
565 1.21603
570 1.35655
575 1.01506
580 0.843186
585 0.727504
590 0.821442
595 0.601081
600 1.12995
Ex : 528
200 0.493069
205 0.44159
210 0.356046
215 0.46318
220 0.361816
225 0.482744
230 0.440597
235 0.54661
240 0.507068
245 0.475554
250 0.386766
255 0.436367
260 0.409354
265 0.480874
270 0.382828
275 0.435568
280 0.470905
285 0.489491
290 0.380432
295 0.461457
300 0.35801
305 0.50814
310 0.502458
315 0.451673
320 0.463455
325 0.4835
330 0.478078
335 0.534878
340 0.530303
345 0.410133
350 0.426826
355 0.612433
360 0.488803
365 0.413693
370 0.500641
375 0.437245
380 0.523073
385 0.531776
390 0.524016
395 0.428441
400 0.477248
405 0.494892
410 0.534557
415 0.420988
420 0.417031
425 0.654457
430 0.633057
435 0.46874
440 0.512194
445 0.552189
450 0.506877
455 0.575005
460 0.647698
465 0.568378
470 0.537235
475 0.673577
480 0.74557
485 0.678972
490 0.85324
495 0.864855
500 0.979912
505 1.21742
510 2.00848
515 46.7428
520 793.696
525 1190.61
530 293.049
535 35.7457
540 5.90481
545 2.13925
550 1.60609
555 1.26638
560 1.23085
565 1.06469
570 1.20222
575 1.12183
580 0.987536
585 0.87872
590 0.890796
595 0.785036
600 0.798297
Ex : 533
200 0.649706
205 0.44681
210 0.391356
215 0.468308
220 0.51231
225 0.696571
230 0.381229
235 0.512556
240 0.449303
245 0.399333
250 0.467664
255 0.467154
260 0.333798
265 0.396614
270 0.374134
275 0.423486
280 0.369907
285 0.528218
290 0.42501
295 0.401311
300 0.379619
305 0.414258
310 0.428647
315 0.485232
320 0.403952
325 0.495178
330 0.452644
335 0.42015
340 0.433234
345 0.398063
350 0.445735
355 0.444241
360 0.540869
365 0.496323
370 0.484647
375 0.521235
380 0.466859
385 0.468409
390 0.514378
395 0.434872
400 0.518054
405 0.49117
410 0.626805
415 0.593141
420 0.519791
425 0.449693
430 0.507254
435 0.50532
440 0.469777
445 0.552801
450 0.671875
455 0.502276
460 0.612795
465 0.656754
470 0.7281
475 0.735503
480 0.612049
485 0.567661
490 0.71966
495 0.725487
500 0.757558
505 1.02154
510 1.31408
515 1.84913
520 45.4462
525 758.564
530 1158.13
535 293.044
540 35.6159
545 5.69118
550 2.13574
555 1.47273
560 1.43154
565 1.1588
570 1.13672
575 1.04766
580 0.912633
585 0.870899
590 0.818659
595 0.786937
600 0.535156
Ex : 538
200 0.494502
205 0.465202
210 0.451035
215 0.392828
220 0.443734
225 0.509541
230 0.428116
235 0.381186
240 0.507825
245 0.526963
250 0.434071
255 0.395738
260 0.493233
265 0.433287
270 0.35322
275 0.470424
280 0.495373
285 0.476364
290 0.466823
295 0.4427
300 0.450216
305 0.491817
310 0.449053
315 0.464561
320 0.465191
325 0.514131
330 0.510747
335 0.414036
340 0.403232
345 0.475415
350 0.471641
355 0.424675
360 0.479967
365 0.589841
370 0.50316
375 0.442882
380 0.393656
385 0.50589
390 0.441749
395 0.557642
400 0.527642
405 0.44728
410 0.525588
415 0.533686
420 0.507215
425 0.403018
430 0.60208
435 0.52728
440 0.629964
445 0.543272
450 0.546187
455 0.607799
460 0.603645
465 0.619556
470 0.624743
475 0.722673
480 0.671832
485 0.623695
490 0.627805
495 0.743034
500 0.781443
505 0.932181
510 1.09737
515 1.1246
520 1.80037
525 37.9578
530 715.228
535 1143.66
540 301.799
545 36.8018
550 5.70415
555 2.04771
560 1.47273
565 1.18348
570 1.1802
575 1.12681
580 0.963214
585 0.985274
590 0.828252
595 0.703691
600 0.718355
Ex : 543
200 0.501227
205 0.46831
210 0.484321
215 0.546877
220 0.4185
225 0.454543
230 0.49144
235 0.431476
240 0.427909
245 0.489728
250 0.463979
255 0.35382
260 0.447035
265 0.4329
270 0.476514
275 0.386342
280 0.466831
285 0.439117
290 0.399557
295 0.455247
300 0.398834
305 0.509372
310 0.476478
315 0.387048
320 0.480792
325 0.466559
330 0.478632
335 0.480546
340 0.577135
345 0.539368
350 0.47705
355 0.542782
360 0.56108
365 0.514308
370 0.460077
375 0.465058
380 0.444336
385 0.429906
390 0.756879
395 0.559039
400 0.478309
405 0.508686
410 0.47125
415 0.534816
420 0.506904
425 0.525884
430 0.580735
435 0.569907
440 0.555896
445 0.593872
450 0.54125
455 0.592151
460 0.596077
465 0.634463
470 0.643068
475 0.72072
480 0.668045
485 0.641191
490 0.596831
495 0.582412
500 0.711678
505 0.795596
510 0.850341
515 1.1389
520 1.27808
525 1.66978
530 34.1665
535 675.692
540 1129.21
545 303.01
550 36.5901
555 5.65416
560 1.68924
565 1.25606
570 1.09959
575 0.913154
580 0.984827
585 0.883369
590 0.914103
595 0.719958
600 0.719563
Ex : 548
200 0.489923
205 0.396252
210 0.546411
215 0.429212
220 0.411065
225 0.526069
230 0.532863
235 0.474552
240 0.513343
245 0.62364
250 0.477667
255 0.477939
260 0.480936
265 0.5222
270 0.519845
275 0.410789
280 0.452962
285 0.468661
290 0.437628
295 0.425328
300 0.481911
305 0.447002
310 0.39341
315 0.464878
320 0.438724
325 0.387514
330 0.542252
335 0.47921
340 0.654748
345 0.53773
350 0.564856
355 0.410852
360 0.458836
365 0.519439
370 0.502609
375 0.527262
380 0.585793
385 0.551192
390 0.449173
395 0.420443
400 0.469955
405 0.515201
410 0.57962
415 0.588463
420 0.637208
425 0.548377
430 0.543917
435 0.608573
440 0.589672
445 0.510403
450 0.613551
455 0.562656
460 0.594031
465 0.60335
470 0.676991
475 0.730898
480 0.694659
485 0.66698
490 0.786476
495 0.692814
500 0.609975
505 0.715463
510 0.786541
515 0.794207
520 1.03752
525 1.21225
530 1.57659
535 37.3599
540 669.28
545 1083.89
550 294.733
555 35.6285
560 5.40257
565 1.7616
570 1.34729
575 1.18853
580 0.992502
585 0.970615
590 0.882829
595 0.840488
600 0.502968
Ex : 553
200 0.412924
205 0.485977
210 0.420073
215 0.447426
220 0.556593
225 0.55014
230 0.651198
235 0.475599
240 0.411404
245 0.464565
250 0.545947
255 0.385785
260 0.471322
265 0.542315
270 0.498986
275 0.388955
280 0.402088
285 0.503646
290 0.489909
295 0.420292
300 0.50355
305 0.439263
310 0.51493
315 0.676366
320 0.462011
325 0.461139
330 0.474741
335 0.463592
340 0.510534
345 0.584697
350 0.456586
355 0.487879
360 0.533581
365 0.482128
370 0.638268
375 0.69226
380 0.493168
385 0.527862
390 0.631477
395 0.638761
400 0.553724
405 0.454546
410 0.492159
415 0.501932
420 0.562696
425 0.509478
430 0.567433
435 0.662588
440 0.551843
445 0.667862
450 0.665799
455 0.458248
460 0.699631
465 0.671883
470 0.819521
475 0.658801
480 0.469795
485 0.618751
490 0.703629
495 0.618943
500 0.63544
505 0.713866
510 0.706191
515 0.751666
520 0.798209
525 0.863077
530 1.29385
535 1.6503
540 31.6786
545 619.32
550 1045.69
555 289.595
560 35.3059
565 5.45779
570 1.88042
575 1.30132
580 1.09475
585 0.897577
590 0.935249
595 0.726592
600 0.537147
Ex : 558
200 0.469855
205 0.472965
210 0.464619
215 0.571871
220 0.430441
225 0.412488
230 0.535786
235 0.490959
240 0.605338
245 0.623204
250 0.520739
255 0.643739
260 0.610828
265 0.598369
270 0.448074
275 0.519351
280 0.379087
285 0.423406
290 0.357049
295 0.634678
300 0.571677
305 0.574735
310 0.442167
315 0.478105
320 0.442839
325 0.608231
330 0.569406
335 0.590874
340 0.604487
345 0.504927
350 0.387403
355 0.569775
360 0.454734
365 0.54819
370 0.558356
375 0.558404
380 0.497872
385 0.530351
390 0.564233
395 0.505825
400 0.521331
405 0.603429
410 0.623306
415 0.553914
420 0.602995
425 0.655332
430 0.55132
435 0.670109
440 0.53901
445 0.65105
450 0.645671
455 0.609497
460 0.579336
465 0.651013
470 0.528054
475 0.65179
480 0.558495
485 0.599185
490 0.529617
495 0.604491
500 0.499166
505 0.717438
510 0.655359
515 0.70956
520 0.696587
525 0.846566
530 0.932972
535 1.10662
540 1.67759
545 29.4843
550 583.335
555 1018.29
560 285.761
565 34.6219
570 5.3086
575 1.57039
580 0.887809
585 0.814381
590 0.900254
595 0.711613
600 0.0809789
Ex : 563
200 0.399704
205 0.525286
210 0.411983
215 0.450491
220 0.533894
225 0.41474
230 0.570674
235 0.631893
240 0.502643
245 0.54249
250 0.443931
255 0.668024
260 0.488078
265 0.52653
270 0.494944
275 0.586668
280 0.526171
285 0.477008
290 0.442857
295 0.449656
300 0.557801
305 0.559277
310 0.475346
315 0.60819
320 0.448907
325 0.525727
330 0.537931
335 0.509455
340 0.603477
345 0.538426
350 0.612871
355 0.620986
360 0.514062
365 0.501158
370 0.510846
375 0.595359
380 0.531347
385 0.564047
390 0.583223
395 0.687813
400 0.538249
405 0.602771
410 0.686401
415 0.723438
420 0.60643
425 0.560791
430 0.517577
435 0.6364
440 0.631733
445 0.585386
450 0.691691
455 0.480108
460 0.678816
465 0.666831
470 0.678115
475 0.686996
480 0.74239
485 0.564916
490 0.718943
495 0.674126
500 0.846851
505 0.593059
510 0.805502
515 0.795448
520 0.709206
525 0.867549
530 0.950553
535 1.15533
540 1.22212
545 1.46801
550 28.9029
555 558.647
560 974.873
565 275.626
570 33.5801
575 5.06066
580 1.61674
585 1.14485
590 0.914781
595 0.780232
600 0.510199
Ex : 568
200 0.437563
205 0.516977
210 0.588525
215 0.474359
220 0.49822
225 0.445233
230 0.359017
235 0.56777
240 0.655714
245 0.571926
250 0.399255
255 0.521749
260 0.572478
265 0.543959
270 0.603419
275 0.400353
280 0.494525
285 0.539549
290 0.607883
295 0.549515
300 0.481547
305 0.467769
310 0.59647
315 0.597007
320 0.523548
325 0.575401
330 0.61724
335 0.656173
340 0.699534
345 0.559085
350 0.556391
355 0.717829
360 0.584343
365 0.596014
370 0.661348
375 0.508263
380 0.540811
385 0.508623
390 0.726826
395 0.484844
400 0.535238
405 0.643262
410 0.736347
415 0.524338
420 0.626277
425 0.521814
430 0.624877
435 0.711667
440 0.666305
445 0.722964
450 0.558645
455 0.615717
460 0.63466
465 0.610063
470 0.67454
475 0.589841
480 0.531676
485 0.62091
490 0.634495
495 0.92559
500 0.648277
505 0.631098
510 0.543198
515 0.771412
520 0.715781
525 0.848357
530 0.766574
535 0.72646
540 0.924327
545 1.37855
550 1.46435
555 21.6366
560 501.446
565 921.063
570 272.963
575 33.1816
580 4.86099
585 1.59331
590 1.06661
595 0.878172
600 1.64446
Ex : 573
200 0.662167
205 0.57863
210 0.384556
215 0.594373
220 0.476654
225 0.571479
230 0.537601
235 0.496811
240 0.445661
245 0.570588
250 0.536607
255 0.572688
260 0.535258
265 0.501765
270 0.651001
275 0.593184
280 0.523844
285 0.518467
290 0.673945
295 0.621487
300 0.52159
305 0.621926
310 0.597867
315 0.515793
320 0.645887
325 0.507467
330 0.598551
335 0.52687
340 0.557642
345 0.515223
350 0.467696
355 0.58204
360 0.544232
365 0.610231
370 0.731056
375 0.549581
380 0.605127
385 0.726513
390 0.584044
395 0.600043
400 0.770054
405 0.669512
410 0.6532
415 0.594478
420 0.580904
425 0.536507
430 0.612736
435 0.741202
440 0.876005
445 0.502208
450 0.610211
455 0.651108
460 0.766119
465 0.506783
470 0.74834
475 0.673512
480 0.589931
485 0.60685
490 0.721919
495 0.621492
500 0.6466
505 0.691634
510 0.816613
515 0.715518
520 0.712222
525 0.698983
530 0.69153
535 0.717353
540 0.719265
545 0.932302
550 0.990583
555 1.30905
560 17.8787
565 430.197
570 842.193
575 257.443
580 31.1502
585 4.74954
590 1.58919
595 1.11934
600 1.04546
Ex : 578
200 0.50557
205 0.517479
210 0.58411
215 0.506855
220 0.457977
225 0.413733
230 0.452967
235 0.57789
240 0.590367
245 0.51454
250 0.416613
255 0.529091
260 0.55317
265 0.519449
270 0.571375
275 0.570253
280 0.60012
285 0.551325
290 0.52806
295 0.652393
300 0.508478
305 0.558264
310 0.532363
315 0.529917
320 0.509794
325 0.542464
330 0.735433
335 0.752664
340 0.573999
345 0.631576
350 0.575163
355 0.429113
360 0.653302
365 0.448997
370 0.721531
375 0.794756
380 0.668881
385 0.632043
390 0.515911
395 0.523998
400 0.626857
405 0.67392
410 0.55007
415 0.569528
420 0.659683
425 0.491928
430 0.752363
435 0.781081
440 0.527878
445 0.48729
450 0.69396
455 0.625195
460 0.56348
465 0.720057
470 0.598852
475 0.686257
480 0.718085
485 0.622564
490 0.579996
495 0.55539
500 0.697769
505 0.699858
510 0.78042
515 0.804552
520 0.656726
525 0.755018
530 0.77868
535 0.607845
540 0.727356
545 0.823619
550 0.944255
555 1.13475
560 1.30674
565 16.7889
570 384.165
575 724.259
580 217.535
585 26.5539
590 4.24761
595 1.54585
600 0.88756
Ex : 583
200 0.513718
205 0.554345
210 0.576476
215 0.521899
220 0.647161
225 0.546143
230 0.619115
235 0.593536
240 0.535018
245 0.484799
250 0.528152
255 0.509635
260 0.517532
265 0.456993
270 0.598695
275 0.776531
280 0.665173
285 0.610941
290 0.712636
295 0.636274
300 0.52454
305 0.575899
310 0.426295
315 0.420607
320 0.511421
325 0.621891
330 0.529999
335 0.606428
340 0.582672
345 0.438881
350 0.522278
355 0.482232
360 0.696917
365 0.555003
370 0.655776
375 0.70227
380 0.535376
385 0.610486
390 0.702403
395 0.627574
400 0.510634
405 0.533523
410 0.655213
415 0.662888
420 0.778205
425 0.513237
430 0.614027
435 0.60041
440 0.552714
445 0.639956
450 0.72768
455 0.769842
460 0.643603
465 0.565575
470 0.661959
475 0.810233
480 0.547484
485 0.565269
490 0.675426
495 0.578274
500 0.565677
505 0.751895
510 0.607684
515 0.679597
520 0.582398
525 0.687706
530 0.650358
535 0.722196
540 0.654931
545 0.687827
550 0.916733
555 0.878151
560 0.987461
565 1.51646
570 13.832
575 340.346
580 618.863
585 180.859
590 22.2914
595 3.41843
600 1.03796
Ex : 588
200 0.59167
205 0.586463
210 0.515244
215 0.489114
220 0.560775
225 0.536911
230 0.529113
235 0.620297
240 0.561973
245 0.632468
250 0.620842
255 0.509767
260 0.480272
265 0.63433
270 0.52992
275 0.637783
280 0.505667
285 0.470901
290 0.709135
295 0.58186
300 0.497537
305 0.516952
310 0.396396
315 0.576351
320 0.58163
325 0.534175
330 0.775346
335 0.593853
340 0.60378
345 0.754944
350 0.738228
355 0.793072
360 0.481166
365 0.575739
370 0.733849
375 0.562465
380 0.546727
385 0.591455
390 0.628818
395 0.616125
400 0.645923
405 0.452211
410 0.551714
415 0.527763
420 0.516669
425 0.536849
430 0.699357
435 0.543786
440 0.536016
445 0.593672
450 0.746799
455 0.648761
460 0.796737
465 0.612404
470 0.684697
475 0.655018
480 0.583047
485 0.504964
490 0.668361
495 0.577646
500 0.65648
505 0.724792
510 0.671013
515 0.715428
520 0.650773
525 0.637647
530 0.613768
535 0.639826
540 0.714121
545 0.72349
550 0.642774
555 0.83419
560 1.09238
565 1.02429
570 1.13519
575 12.5281
580 282.785
585 522.195
590 157.376
595 19.226
600 3.02482
Ex : 593
200 0.607022
205 0.588827
210 0.581461
215 0.576396
220 0.584519
225 0.633393
230 0.495569
235 0.617982
240 0.624934
245 0.473257
250 0.527411
255 0.556888
260 0.509155
265 0.575805
270 0.472073
275 0.637019
280 0.503459
285 0.610364
290 0.565388
295 0.531959
300 0.506748
305 0.560541
310 0.584047
315 0.484665
320 0.828034
325 0.487362
330 0.589841
335 0.728128
340 0.531571
345 0.494831
350 0.630197
355 0.74942
360 0.471456
365 0.505685
370 0.508564
375 0.7007
380 0.759818
385 0.538881
390 0.676008
395 0.577437
400 0.63144
405 0.6901
410 0.706169
415 0.578294
420 0.836551
425 0.697176
430 0.65785
435 0.603882
440 0.676539
445 0.692501
450 0.596068
455 0.824019
460 0.626276
465 0.592291
470 0.650907
475 0.66902
480 0.653835
485 0.630729
490 0.652574
495 0.634701
500 0.691075
505 0.648967
510 0.630154
515 0.653923
520 0.62887
525 0.684733
530 0.662624
535 0.883534
540 0.733495
545 0.590559
550 0.826069
555 0.764355
560 0.75572
565 0.891977
570 1.14937
575 1.23801
580 10.2649
585 247.053
590 448.659
595 134.475
600 18.9444
Ex : 598
200 0.488416
205 0.560643
210 0.517699
215 0.635814
220 0.67013
225 0.639077
230 0.645962
235 0.709531
240 0.674596
245 0.508833
250 0.560048
255 0.599969
260 0.467763
265 0.660461
270 0.438705
275 0.701975
280 0.665302
285 0.543853
290 0.533568
295 0.657446
300 0.70166
305 0.652885
310 0.43634
315 0.554508
320 0.674438
325 0.608134
330 0.513531
335 0.462346
340 0.74457
345 0.677592
350 0.680294
355 0.654192
360 0.606913
365 0.713915
370 0.926217
375 0.665334
380 0.631246
385 0.704863
390 0.582032
395 0.700967
400 0.685824
405 0.523948
410 0.715448
415 0.536342
420 0.685986
425 0.849129
430 0.609832
435 0.922459
440 0.704689
445 0.748665
450 0.664902
455 0.699992
460 0.903845
465 0.864642
470 0.809183
475 0.703386
480 0.594842
485 0.779645
490 0.738491
495 0.779756
500 0.778646
505 0.796557
510 0.827247
515 0.733434
520 0.701
525 0.697337
530 0.49038
535 0.755091
540 1.00386
545 0.838887
550 0.841916
555 0.707879
560 0.942923
565 0.971499
570 0.979152
575 0.995756
580 0.86986
585 9.93596
590 222.421
595 391.89
600 268.751
Ex : 603
200 0.503277
205 0.57014
210 0.593658
215 0.633937
220 0.563628
225 0.470234
230 0.517046
235 0.579341
240 0.686269
245 0.592837
250 0.614352
255 0.547517
260 0.721702
265 0.586104
270 0.524395
275 0.726625
280 0.9685
285 0.799135
290 0.644864
295 0.7244
300 0.771141
305 0.794718
310 0.631907
315 0.612699
320 0.652293
325 0.697277
330 0.573438
335 0.858226
340 0.521381
345 0.612814
350 0.585399
355 0.580567
360 0.706917
365 0.649602
370 0.712318
375 0.726123
380 0.534137
385 0.560573
390 0.881885
395 0.586887
400 0.69117
405 0.697644
410 0.689524
415 0.838597
420 0.600468
425 0.640845
430 0.773894
435 0.596759
440 0.656697
445 0.686074
450 0.637081
455 0.753072
460 0.666381
465 0.843613
470 0.62827
475 0.616716
480 0.655442
485 0.60721
490 0.593827
495 0.720423
500 0.869544
505 0.671344
510 0.654923
515 0.63438
520 0.757692
525 0.66293
530 0.534901
535 0.626116
540 0.754072
545 0.741747
550 0.835239
555 0.987864
560 0.714579
565 0.799649
570 0.922139
575 0.987615
580 1.01932
585 1.06891
590 9.36568
595 187.882
600 375.846
