File format V 1.0
sam. 10. déc. 03:50:37 2016
Operator : 
Comments : 

=============================================
SpectroFluorometer parameters
Mode : 3D measurement
Data : Fluorescence
Phospho. : Ordinary
Spectrum : Fluorescence

Scan speed : 2400 nm/mn
Response : 100 ms
PM Voltage : 700 V
Shutter : On

Lambda Ex. Start : 203
Lambda Ex. End : 603
Lambda Ex. Step : 5
Ex. Slit : 5 nm

Lambda Em. Start : 200
Lambda Em. End : 600
Lambda Em. Step : 5
Em. Slit : 5 nm

Repetition : 1
Decal lambda em : 10
=============================================
DATA
Ex : 203
200 12.7017
205 12.4948
210 11.2319
215 13.1565
220 12.4671
225 8.8576
230 13.6028
235 9.75564
240 17.3472
245 16.5627
250 13.5656
255 13.159
260 12.7821
265 18.3641
270 13.493
275 12.5541
280 12.6236
285 12.2951
290 14.0692
295 12.4137
300 14.5183
305 8.69225
310 12.938
315 11.2106
320 12.3069
325 12.5593
330 15.4515
335 18.9298
340 16.3384
345 16.536
350 17.8384
355 13.441
360 15.2409
365 15.7831
370 12.6162
375 15.8631
380 13.9905
385 19.1356
390 12.6236
395 19.5984
400 13.3027
405 16.7008
410 14.6885
415 14.5627
420 12.0283
425 13.0254
430 13.2819
435 14.5655
440 16.0705
445 14.0584
450 16.1461
455 12.6013
460 11.4075
465 16.1884
470 16.5154
475 17.5743
480 14.645
485 12.3587
490 15.9669
495 16.7364
500 14.208
505 12.0952
510 11.8828
515 12.4325
520 14.3302
525 15.1093
530 16.2688
535 15.1877
540 11.1644
545 11.715
550 15.0693
555 18.31
560 12.9558
565 11.4667
570 16.3897
575 15.1581
580 14.6253
585 10.1457
590 11.3689
595 12.775
600 10.0204
Ex : 208
200 13.0604
205 16.9793
210 13.8984
215 16.4144
220 16.6833
225 13.9189
230 14.7745
235 14.3151
240 15.1651
245 14.0283
250 11.9437
255 10.9909
260 11.3617
265 10.8702
270 14.1563
275 10.3883
280 8.78962
285 12.0102
290 14.983
295 13.1072
300 13.9559
305 16.5815
310 10.5979
315 12.3224
320 11.1259
325 12.6711
330 14.3486
335 14.5774
340 18.5614
345 12.6261
350 14.04
355 18.3799
360 14.0835
365 14.0197
370 12.0721
375 12.0848
380 17.7883
385 17.3271
390 17.0473
395 14.4676
400 15.215
405 17.5496
410 10.6286
415 13.6734
420 12.312
425 15.5368
430 15.3565
435 14.8096
440 15.5879
445 14.6013
450 15.1533
455 16.2183
460 13.972
465 14.4554
470 16.2225
475 19.0354
480 14.2992
485 16.5213
490 16.2883
495 16.9735
500 14.5429
505 14.2759
510 18.6477
515 15.0496
520 13.5095
525 11.7029
530 12.295
535 14.3933
540 16.9275
545 14.2589
550 13.4355
555 12.5993
560 11.8186
565 13.6143
570 11.956
575 14.5617
580 13.3156
585 12.186
590 14.5596
595 16.0879
600 14.6807
Ex : 213
200 9.75269
205 10.3273
210 13.8739
215 10.0495
220 14.5766
225 14.4141
230 16.6073
235 17.6611
240 11.8541
245 10.9915
250 10.8839
255 16.0752
260 13.1435
265 11.2954
270 13.7467
275 18.8096
280 15.0598
285 11.8983
290 12.0709
295 12.7129
300 11.8751
305 13.1779
310 14.3193
315 14.309
320 12.0845
325 13.2595
330 14.2526
335 13.369
340 14.3815
345 13.706
350 17.2935
355 16.7766
360 14.4162
365 12.509
370 11.5759
375 15.1739
380 13.6529
385 14.9713
390 13.9734
395 16.3549
400 18.4487
405 15.074
410 18.3368
415 16.355
420 16.3661
425 17.644
430 14.6573
435 23.9689
440 17.2005
445 18.332
450 15.9765
455 16.528
460 14.7385
465 17.4417
470 17.0984
475 14.541
480 15.5193
485 12.9929
490 13.2531
495 10.8849
500 15.6689
505 15.4484
510 14.9577
515 10.944
520 12.8331
525 14.062
530 19.6355
535 15.3443
540 15.2916
545 20.2372
550 13.1898
555 16.126
560 14.6042
565 11.7227
570 12.179
575 16.6349
580 12.3491
585 11.5175
590 13.8144
595 16.6612
600 1.89598
Ex : 218
200 15.9392
205 9.61524
210 14.6337
215 10.9379
220 12.3272
225 10.2698
230 9.55425
235 10.565
240 13.4679
245 12.4659
250 10.2076
255 16.9464
260 13.5847
265 11.4157
270 18.1049
275 13.4994
280 9.07634
285 12.7827
290 15.4683
295 13.8733
300 13.9573
305 12.7575
310 14.2121
315 13.5403
320 16.7208
325 13.1132
330 11.8057
335 11.9779
340 17.1324
345 12.9214
350 13.5915
355 14.5335
360 13.9088
365 15.4441
370 15.0858
375 13.3604
380 11.7883
385 11.7507
390 12.6183
395 13.5474
400 16.4562
405 12.5277
410 17.1031
415 19.8624
420 16.4058
425 17.6287
430 14.49
435 18.3652
440 12.837
445 12.9009
450 16.5644
455 15.7057
460 20.2951
465 18.5315
470 13.374
475 11.7883
480 13.2091
485 20.0554
490 12.334
495 16.62
500 15.3195
505 10.9525
510 14.2226
515 13.5265
520 13.2321
525 15.3453
530 13.554
535 15.3097
540 13.8421
545 11.0645
550 18.4461
555 13.091
560 11.9497
565 13.1181
570 13.3042
575 15.9199
580 13.4975
585 14.7522
590 12.9591
595 13.2762
600 23.0751
Ex : 223
200 13.3791
205 15.4753
210 12.6346
215 14.4571
220 16.7059
225 12.8391
230 15.4959
235 9.70707
240 11.7391
245 11.4565
250 16.069
255 12.5715
260 13.3116
265 13.1196
270 10.8209
275 14.0555
280 10.8484
285 11.0405
290 10.6566
295 13.1837
300 11.4228
305 10.3835
310 11.7384
315 13.3019
320 13.4505
325 14.2863
330 11.2501
335 10.4359
340 11.9221
345 14.1672
350 13.6188
355 14.8002
360 16.1871
365 11.1588
370 15.5586
375 15.4062
380 13.3123
385 12.3018
390 15.0036
395 11.7286
400 16.1065
405 15.2539
410 13.325
415 15.1303
420 13.2424
425 13.144
430 14.6732
435 14.8275
440 14.6347
445 14.7052
450 14.2254
455 17.0297
460 14.1814
465 11.61
470 15.017
475 18.343
480 14.7654
485 12.7798
490 16.3454
495 16.4459
500 10.9481
505 13.1354
510 15.2982
515 14.5933
520 16.1752
525 14.7255
530 12.8785
535 13.812
540 17.4163
545 10.8758
550 14.5074
555 12.0674
560 14.3626
565 12.731
570 14.6029
575 15.7939
580 12.2825
585 15.3941
590 12.119
595 11.4287
600 6.47007
Ex : 228
200 10.5377
205 10.0002
210 13.6752
215 13.0957
220 10.0005
225 13.3143
230 15.1813
235 13.5069
240 9.2603
245 13.0013
250 15.4486
255 12.4148
260 12.5661
265 13.1251
270 15.8001
275 12.704
280 10.5534
285 9.96655
290 9.89394
295 12.0557
300 17.2036
305 15.9464
310 10.9228
315 7.80089
320 10.2537
325 16.592
330 14.2059
335 12.3797
340 14.7489
345 11.7622
350 15.2391
355 16.469
360 15.9261
365 15.5031
370 15.0151
375 14.9335
380 11.9157
385 12.7766
390 13.6114
395 12.0933
400 16.1571
405 14.9342
410 14.1063
415 10.4717
420 14.1552
425 12.8064
430 11.0318
435 15.2798
440 14.7238
445 9.18218
450 11.9538
455 14.889
460 13.9344
465 11.027
470 13.0261
475 11.1875
480 15.085
485 15.3302
490 12.2223
495 13.8799
500 12.4085
505 11.5139
510 10.2153
515 13.7268
520 12.1733
525 12.9954
530 14.4517
535 14.4087
540 10.0083
545 9.9442
550 10.7903
555 11.5517
560 14.0577
565 13.1012
570 15.0556
575 11.3342
580 11.934
585 10.7277
590 12.287
595 9.67241
600 31.527
Ex : 233
200 17.5929
205 12.1329
210 8.75457
215 8.75858
220 8.28145
225 9.74346
230 12.4918
235 11.1381
240 14.0481
245 12.2644
250 13.0245
255 16.1649
260 9.81142
265 11.5018
270 12.6317
275 9.63582
280 9.56293
285 12.4275
290 11.769
295 13.645
300 7.52551
305 10.637
310 11.8124
315 11.8204
320 14.6913
325 11.6855
330 12.2301
335 14.197
340 13.4873
345 13.1918
350 10.5219
355 11.7261
360 12.9474
365 12.7176
370 12.7265
375 10.1837
380 14.6745
385 16.4822
390 15.5113
395 13.5241
400 11.5773
405 12.2965
410 12.6217
415 12.7981
420 14.6017
425 14.9507
430 11.9147
435 10.2056
440 11.0667
445 14.8327
450 12.7301
455 13.4221
460 11.1975
465 11.763
470 14.4222
475 13.5501
480 12.9866
485 10.7347
490 12.7465
495 12.2468
500 15.8335
505 15.4752
510 12.1463
515 11.2132
520 11.3532
525 12.4489
530 8.34872
535 13.764
540 12.3415
545 9.6152
550 10.6907
555 9.54605
560 8.99366
565 9.43842
570 10.7889
575 14.3044
580 12.3106
585 13.0735
590 8.51622
595 11.7825
600 17.0709
Ex : 238
200 7.56897
205 9.70794
210 10.5982
215 9.38772
220 8.33297
225 10.9871
230 16.6977
235 10.0502
240 9.51259
245 7.7145
250 7.48515
255 13.0589
260 9.2979
265 9.51168
270 8.00819
275 9.76231
280 11.2121
285 10.4185
290 11.9892
295 8.85806
300 7.98283
305 8.27359
310 9.89328
315 7.32924
320 8.40931
325 7.43025
330 13.1649
335 11.1156
340 11.6392
345 10.7909
350 12.824
355 13.944
360 10.2766
365 8.63887
370 8.87594
375 11.2366
380 10.4623
385 10.3334
390 11.0968
395 12.3924
400 13.6967
405 10.6775
410 11.7785
415 11.3815
420 9.89701
425 12.3394
430 11.6157
435 17.5883
440 12.0764
445 11.7698
450 11.8195
455 12.1246
460 13.0755
465 14.0837
470 9.5821
475 8.56406
480 11.1163
485 14.2439
490 11.8987
495 11.4591
500 9.32483
505 10.6795
510 9.51644
515 12.5492
520 9.85964
525 9.21405
530 12.1387
535 9.01603
540 8.98336
545 7.57871
550 11.16
555 5.2831
560 10.7271
565 10.6235
570 10.4439
575 10.5962
580 8.28808
585 7.61078
590 6.979
595 10.2695
600 12.6893
Ex : 243
200 7.36765
205 9.19494
210 11.1694
215 7.01707
220 8.21843
225 10.3454
230 10.1245
235 7.72886
240 8.68655
245 8.65332
250 8.64927
255 8.01969
260 8.87284
265 7.62457
270 9.68027
275 8.22731
280 11.0624
285 6.19347
290 7.69994
295 6.79826
300 6.4756
305 7.15288
310 9.22179
315 7.80748
320 10.2253
325 9.88706
330 9.76719
335 8.92152
340 9.27797
345 8.40914
350 8.30739
355 11.2757
360 11.0691
365 9.76448
370 10.0221
375 9.97443
380 10.7187
385 9.59454
390 11.9724
395 8.85717
400 11.7115
405 10.1125
410 9.84588
415 11.9989
420 11.1781
425 7.37906
430 7.45823
435 9.91575
440 9.0507
445 11.8158
450 10.9627
455 9.77684
460 8.80387
465 11.6234
470 9.9192
475 9.25899
480 9.19004
485 10.3933
490 10.1486
495 10.986
500 9.6515
505 8.20748
510 9.67517
515 13.2699
520 10.1329
525 10.0446
530 10.6358
535 8.6854
540 8.41712
545 8.06318
550 8.95484
555 4.73854
560 7.28208
565 8.94682
570 8.31626
575 7.58244
580 9.62352
585 9.25476
590 9.83048
595 10.1091
600 7.86021
Ex : 248
200 7.57704
205 7.50231
210 8.20757
215 9.063
220 7.03236
225 6.91154
230 5.50424
235 6.59686
240 7.16713
245 6.41134
250 10.2475
255 9.39439
260 10.804
265 7.84107
270 7.21423
275 7.849
280 6.39896
285 9.37603
290 8.07602
295 6.51253
300 7.37972
305 8.08727
310 7.34125
315 6.86902
320 6.91693
325 8.68799
330 8.79306
335 8.31245
340 9.228
345 7.26726
350 7.48439
355 7.86725
360 9.68769
365 8.59938
370 9.81408
375 7.39774
380 8.2103
385 6.60931
390 7.59955
395 9.87323
400 9.78805
405 8.91453
410 9.72119
415 9.14961
420 10.3436
425 10.2163
430 8.44498
435 8.6886
440 8.01562
445 8.55829
450 6.75217
455 9.97268
460 9.24619
465 8.96217
470 9.96783
475 10.03
480 10.0578
485 7.85475
490 7.43936
495 10.3424
500 8.5425
505 8.84827
510 8.67391
515 6.19384
520 7.71659
525 8.62847
530 7.46704
535 6.19712
540 8.22256
545 6.88287
550 7.45647
555 7.55565
560 8.40321
565 6.70847
570 8.21447
575 6.29121
580 8.00583
585 5.47174
590 6.63484
595 7.50063
600 18.7042
Ex : 253
200 5.46667
205 6.75312
210 8.09704
215 4.90717
220 6.5738
225 4.91216
230 5.8335
235 6.18783
240 6.33819
245 5.2441
250 5.67307
255 5.29493
260 5.65912
265 5.35497
270 6.1476
275 5.80164
280 5.2613
285 5.84191
290 7.72324
295 6.06646
300 5.76004
305 6.01489
310 5.90054
315 6.76279
320 3.81164
325 5.90302
330 6.26535
335 4.82733
340 6.9962
345 7.60289
350 6.23888
355 7.41854
360 7.26529
365 6.41351
370 8.11341
375 6.66711
380 8.18634
385 7.82865
390 7.23096
395 7.2939
400 7.11963
405 6.14273
410 6.68036
415 6.57265
420 6.59515
425 7.42586
430 6.31839
435 6.37624
440 5.99156
445 7.07421
450 6.33001
455 10.4538
460 8.60514
465 7.06005
470 5.7186
475 7.85006
480 8.10039
485 5.54926
490 6.08959
495 6.64131
500 6.12537
505 5.99667
510 4.86866
515 5.45485
520 5.53354
525 5.4594
530 5.6943
535 5.08329
540 5.11696
545 6.4325
550 6.27418
555 6.79953
560 6.53301
565 6.15792
570 5.02019
575 5.0348
580 5.91221
585 6.71881
590 6.85557
595 5.96983
600 31.4011
Ex : 258
200 3.65291
205 5.54786
210 4.54794
215 4.6658
220 4.78606
225 6.18782
230 4.06016
235 3.50595
240 4.38516
245 4.00131
250 4.14526
255 4.61136
260 4.73637
265 4.60089
270 5.34377
275 4.80443
280 4.82889
285 3.74019
290 4.94784
295 5.19119
300 6.48964
305 5.27387
310 3.68564
315 4.56288
320 4.9366
325 4.20641
330 4.84578
335 5.29859
340 6.17314
345 5.80544
350 5.37169
355 4.41272
360 5.08751
365 6.14051
370 5.7567
375 4.57259
380 8.45918
385 5.03442
390 7.13863
395 5.80951
400 5.96287
405 7.06027
410 4.62581
415 4.60635
420 6.9025
425 5.37653
430 6.22215
435 5.78218
440 7.01811
445 5.58517
450 5.84963
455 5.54851
460 5.45165
465 6.0853
470 6.64805
475 4.97363
480 5.10314
485 4.91836
490 4.24098
495 4.5529
500 4.53556
505 4.53233
510 6.6283
515 5.40044
520 4.09145
525 4.35916
530 5.36581
535 4.27527
540 4.85314
545 6.03015
550 5.76328
555 5.23977
560 4.4462
565 4.55279
570 4.45505
575 4.43232
580 4.21949
585 5.25628
590 5.72242
595 4.619
600 1.95719
Ex : 263
200 3.28717
205 3.3853
210 3.33925
215 3.18809
220 3.07345
225 3.69925
230 4.22571
235 4.09726
240 4.07077
245 3.74019
250 4.01379
255 3.89947
260 3.06852
265 4.42229
270 3.14046
275 4.5144
280 3.74185
285 3.37804
290 3.00466
295 3.08204
300 2.83922
305 3.25881
310 2.92969
315 3.10524
320 3.42089
325 4.37126
330 4.86419
335 4.8535
340 4.89562
345 5.02888
350 4.01345
355 4.05016
360 4.95512
365 4.53633
370 5.21602
375 4.13706
380 6.0239
385 4.47496
390 3.96503
395 4.23927
400 5.50031
405 4.80467
410 5.19737
415 4.61152
420 3.70879
425 5.77883
430 4.81392
435 4.62277
440 5.57592
445 4.68461
450 4.94465
455 4.08541
460 4.782
465 4.35682
470 3.71107
475 4.45531
480 3.59556
485 3.63349
490 4.96862
495 3.2933
500 3.87984
505 3.68616
510 3.62932
515 3.73398
520 5.20254
525 4.4695
530 3.65132
535 3.29829
540 3.48763
545 3.54244
550 4.29829
555 3.88733
560 3.93497
565 3.00542
570 3.11039
575 3.01919
580 4.0189
585 3.79432
590 3.20575
595 3.83727
600 2.05269
Ex : 268
200 3.27558
205 2.2593
210 2.66977
215 2.78209
220 2.96594
225 2.42438
230 2.76729
235 2.67674
240 2.39204
245 2.7766
250 2.21587
255 2.28325
260 2.83033
265 3.02454
270 2.80195
275 2.59678
280 2.72893
285 2.72529
290 2.95559
295 2.82226
300 2.71422
305 3.06767
310 3.19745
315 2.4159
320 2.71998
325 3.23075
330 3.99701
335 3.12893
340 2.96102
345 4.14162
350 2.85962
355 3.33419
360 3.86078
365 4.42112
370 3.08847
375 3.7357
380 3.31531
385 4.04735
390 4.16595
395 4.17122
400 3.44161
405 3.64278
410 3.49189
415 3.63048
420 3.39813
425 4.25348
430 3.74588
435 3.63952
440 4.11409
445 3.55907
450 2.96181
455 3.4816
460 3.18258
465 4.1089
470 3.07394
475 3.78604
480 4.30667
485 3.1797
490 2.95553
495 3.45581
500 3.48716
505 2.76719
510 3.15844
515 3.24213
520 3.36116
525 3.38441
530 3.38292
535 3.77351
540 3.18901
545 3.22578
550 2.50269
555 3.17902
560 3.30715
565 3.9377
570 2.6101
575 2.7258
580 2.45847
585 2.71215
590 2.91378
595 3.3242
600 2.85032
Ex : 273
200 2.58867
205 2.02738
210 2.12735
215 2.59557
220 2.23845
225 2.25513
230 2.29597
235 1.98257
240 1.84411
245 1.54991
250 2.20103
255 2.33683
260 3.17929
265 2.74077
270 2.05391
275 2.20033
280 2.34309
285 1.78084
290 2.01373
295 2.20275
300 2.21464
305 1.88459
310 2.03693
315 1.56688
320 2.92937
325 2.3093
330 2.92566
335 3.15927
340 2.953
345 2.9963
350 2.23688
355 3.00037
360 2.69994
365 3.39053
370 2.63115
375 3.05271
380 3.234
385 3.64244
390 2.94026
395 3.01866
400 3.07398
405 2.39302
410 2.31176
415 3.029
420 3.40717
425 2.94942
430 2.54316
435 3.45645
440 2.86114
445 2.94589
450 2.75841
455 3.2746
460 3.59725
465 2.97269
470 2.69575
475 3.13441
480 2.74794
485 2.47604
490 2.78
495 2.60729
500 2.75402
505 2.78069
510 3.31157
515 2.6775
520 2.16662
525 2.24339
530 2.42138
535 3.61155
540 2.62731
545 2.41616
550 2.10738
555 2.35704
560 2.22711
565 2.2846
570 2.30538
575 2.51383
580 2.18734
585 2.22813
590 1.84822
595 2.62576
600 4.62757
Ex : 278
200 2.20105
205 1.63525
210 1.86118
215 2.04158
220 1.41776
225 1.87521
230 1.58109
235 2.12603
240 2.27129
245 1.49481
250 1.66177
255 1.87365
260 2.11627
265 1.66261
270 1.8587
275 2.2222
280 1.9023
285 2.05017
290 1.82985
295 1.26025
300 2.11875
305 1.91144
310 1.90303
315 2.08552
320 1.89293
325 2.12236
330 2.10185
335 3.10512
340 2.19022
345 2.32643
350 2.45143
355 2.28545
360 1.98999
365 3.20888
370 2.19184
375 2.39798
380 2.59617
385 2.2974
390 3.04675
395 2.7353
400 3.0408
405 2.86001
410 2.85961
415 2.44427
420 2.45687
425 3.00999
430 2.73062
435 3.03868
440 2.54685
445 1.92806
450 2.42741
455 2.68475
460 2.40632
465 2.18263
470 2.87426
475 2.87927
480 2.33523
485 2.39235
490 1.89695
495 1.82327
500 2.31893
505 2.29617
510 1.7197
515 1.84627
520 1.69165
525 1.65545
530 1.95108
535 1.64923
540 1.76862
545 1.84668
550 2.27452
555 2.44686
560 2.26403
565 1.39242
570 1.54801
575 1.44285
580 2.01648
585 1.86874
590 1.67637
595 1.65221
600 1.47704
Ex : 283
200 1.10283
205 1.32076
210 1.43767
215 1.64704
220 1.35381
225 1.62078
230 1.11513
235 1.43198
240 1.44068
245 1.48179
250 1.28109
255 1.85465
260 1.51406
265 1.65765
270 1.39725
275 1.56941
280 1.64959
285 1.33944
290 1.43014
295 1.25162
300 1.86924
305 1.3633
310 1.47648
315 1.54516
320 1.67468
325 1.73617
330 1.75113
335 2.19295
340 2.74118
345 1.96893
350 2.18616
355 1.8731
360 2.30373
365 1.89629
370 1.93874
375 2.25246
380 2.2477
385 2.80863
390 2.36112
395 2.97129
400 2.38395
405 2.53311
410 2.29247
415 2.25412
420 2.41996
425 2.55444
430 2.5377
435 2.54031
440 2.46607
445 2.39789
450 2.0942
455 2.33498
460 1.99603
465 2.00068
470 1.69036
475 2.08745
480 2.02416
485 2.55641
490 2.27069
495 1.52868
500 1.94351
505 1.77173
510 1.83428
515 1.88179
520 1.79886
525 1.67392
530 1.53713
535 1.63004
540 1.86192
545 1.72781
550 1.62993
555 1.51337
560 1.96124
565 1.9711
570 1.5083
575 1.61044
580 1.41845
585 1.99555
590 1.55582
595 1.27319
600 1.84344
Ex : 288
200 1.19903
205 1.24562
210 1.26533
215 1.43275
220 1.37918
225 1.27581
230 1.70015
235 1.3142
240 1.18306
245 1.04616
250 1.2566
255 1.65834
260 1.4082
265 1.67952
270 1.36252
275 1.0854
280 1.10963
285 1.38121
290 1.51061
295 1.36191
300 1.241
305 1.28624
310 1.50765
315 1.2351
320 1.49744
325 1.3287
330 1.65688
335 1.73219
340 1.84231
345 2.1702
350 1.96413
355 2.00932
360 2.07396
365 2.05347
370 1.81717
375 1.74689
380 1.79787
385 2.02495
390 2.10962
395 1.83227
400 1.96174
405 2.26992
410 2.08046
415 1.86209
420 2.35551
425 1.98223
430 2.37109
435 1.84406
440 1.95749
445 1.85001
450 1.91716
455 2.06109
460 1.55193
465 1.79701
470 2.13582
475 1.73756
480 1.74114
485 1.57805
490 1.47912
495 1.76847
500 1.6682
505 1.5696
510 1.43251
515 1.30358
520 1.32641
525 1.54127
530 1.67179
535 1.6283
540 1.44964
545 1.5434
550 1.82822
555 1.54694
560 1.6789
565 1.74131
570 1.75841
575 1.5531
580 1.66375
585 1.3124
590 1.48319
595 1.52429
600 2.04433
Ex : 293
200 1.01637
205 0.810207
210 1.09222
215 1.04043
220 0.946529
225 0.839775
230 1.13914
235 1.06532
240 1.02934
245 1.17351
250 1.01364
255 1.17668
260 0.831026
265 0.927649
270 0.941045
275 0.927211
280 0.857394
285 1.38948
290 1.28698
295 1.02776
300 1.07499
305 1.24575
310 0.893853
315 0.953645
320 0.925992
325 1.54381
330 1.62935
335 1.5807
340 1.93718
345 1.9414
350 2.15113
355 1.71015
360 1.6874
365 1.80041
370 1.864
375 1.69858
380 2.15647
385 1.71189
390 1.93072
395 2.0965
400 1.84843
405 1.84368
410 2.05688
415 1.91394
420 1.60372
425 2.13125
430 1.92327
435 1.73672
440 1.69346
445 1.91083
450 1.7422
455 1.58477
460 1.79169
465 1.49165
470 1.45602
475 1.80027
480 1.8082
485 1.29751
490 1.53685
495 1.31962
500 1.18592
505 1.46096
510 1.42352
515 1.35549
520 1.38838
525 1.24667
530 1.16174
535 1.25481
540 1.34199
545 0.918503
550 1.44326
555 0.935786
560 1.00456
565 1.07852
570 1.26231
575 1.18617
580 1.79196
585 1.55946
590 1.47449
595 1.05563
600 0.315091
Ex : 298
200 0.964738
205 0.962634
210 0.898512
215 0.891189
220 1.00334
225 0.923303
230 0.890258
235 0.692707
240 1.0128
245 0.814812
250 0.938612
255 0.832827
260 0.936019
265 1.16493
270 0.914804
275 0.95743
280 0.933952
285 1.07688
290 1.06121
295 1.10006
300 0.902894
305 0.625599
310 0.92554
315 0.926806
320 1.1692
325 1.39732
330 1.38433
335 1.48091
340 1.56979
345 1.36798
350 1.3884
355 1.23946
360 1.81419
365 1.40206
370 1.45318
375 1.79496
380 1.72936
385 1.61873
390 1.41896
395 1.50255
400 1.49583
405 1.88309
410 2.06775
415 1.96772
420 1.58555
425 1.69129
430 2.09306
435 1.81453
440 1.51704
445 1.32271
450 1.37436
455 1.63044
460 1.31278
465 1.76279
470 1.36343
475 1.51887
480 1.13266
485 1.54261
490 1.25211
495 1.12909
500 1.31128
505 1.66157
510 1.30517
515 1.34393
520 1.33906
525 1.41584
530 1.21541
535 1.0338
540 0.919684
545 1.19422
550 1.00144
555 1.1148
560 1.09655
565 0.940048
570 1.02396
575 0.776156
580 1.06993
585 1.40353
590 1.21523
595 1.23822
600 1.57246
Ex : 303
200 0.878151
205 0.817451
210 0.874052
215 0.936486
220 0.871856
225 0.912319
230 0.851758
235 0.711482
240 0.767756
245 1.15585
250 1.06571
255 0.916392
260 0.904501
265 0.761973
270 0.715205
275 0.791914
280 0.958032
285 0.535976
290 0.791923
295 0.785192
300 1.05767
305 0.956881
310 0.688663
315 0.730474
320 0.857024
325 1.31395
330 1.54213
335 1.77434
340 1.48917
345 1.50622
350 1.67749
355 1.44114
360 1.65499
365 1.45166
370 1.53954
375 1.68597
380 1.58972
385 1.37469
390 1.60941
395 1.44682
400 1.37017
405 1.50908
410 1.59401
415 1.77376
420 1.50093
425 1.32066
430 1.43043
435 1.55848
440 1.59903
445 1.51563
450 1.43663
455 1.42438
460 1.64416
465 1.32233
470 1.09722
475 1.24398
480 1.14268
485 1.19746
490 0.981693
495 0.99916
500 0.972474
505 0.913387
510 1.05413
515 1.02296
520 1.12142
525 1.01351
530 1.1018
535 1.19909
540 0.947975
545 0.893566
550 0.747436
555 0.783417
560 0.827757
565 0.857004
570 0.758353
575 1.00826
580 0.851486
585 0.880045
590 1.03184
595 1.14434
600 0.446723
Ex : 308
200 0.814132
205 0.809944
210 0.821805
215 0.731618
220 0.700438
225 0.665097
230 0.580545
235 0.672111
240 0.990107
245 0.791243
250 0.672316
255 0.928932
260 0.606025
265 0.74043
270 0.54983
275 0.728251
280 0.745242
285 0.870091
290 0.828347
295 0.795224
300 0.91039
305 0.925776
310 0.974532
315 0.911446
320 0.855202
325 1.11831
330 1.46266
335 1.35871
340 1.32407
345 1.45598
350 1.42725
355 1.2553
360 1.42915
365 1.43896
370 1.29222
375 1.7437
380 1.66768
385 1.38529
390 1.8548
395 1.65535
400 1.55361
405 1.62962
410 1.47319
415 1.25747
420 1.40981
425 1.26996
430 1.48967
435 1.20315
440 1.55736
445 1.42942
450 1.39688
455 1.3437
460 1.10306
465 1.17494
470 1.28725
475 1.37434
480 1.15714
485 1.09187
490 1.13702
495 0.993396
500 0.886174
505 0.970764
510 0.973619
515 0.693038
520 0.807558
525 1.05625
530 0.893858
535 0.782774
540 0.852979
545 0.807065
550 0.735929
555 0.952116
560 0.803549
565 0.538922
570 0.751388
575 0.56836
580 0.545381
585 0.664913
590 0.829198
595 0.774609
600 1.71094
Ex : 313
200 0.747205
205 0.628483
210 0.679674
215 0.656569
220 0.550322
225 0.548351
230 0.751014
235 0.712325
240 0.607853
245 0.87679
250 0.769796
255 0.543522
260 0.639555
265 0.825882
270 0.844015
275 0.849294
280 0.691539
285 0.886725
290 0.748526
295 0.734869
300 0.672809
305 0.762214
310 0.804175
315 0.660135
320 0.862294
325 1.23559
330 1.55942
335 1.42517
340 1.47137
345 1.36036
350 1.41272
355 1.36696
360 1.25736
365 1.53904
370 1.43411
375 1.46893
380 1.56432
385 1.7481
390 1.79322
395 1.83059
400 1.84602
405 1.71722
410 1.61751
415 1.61988
420 1.81602
425 1.55672
430 1.52932
435 1.68661
440 1.47691
445 1.39064
450 1.38278
455 1.50111
460 1.5108
465 1.37996
470 1.46269
475 1.11308
480 1.16118
485 1.10699
490 1.12893
495 0.993391
500 1.00458
505 1.0957
510 1.22026
515 0.81047
520 0.92978
525 0.845447
530 0.718302
535 0.764291
540 0.814146
545 0.951369
550 0.669052
555 0.765889
560 0.750366
565 0.810398
570 0.643037
575 0.612382
580 0.734582
585 0.613758
590 0.594425
595 0.82441
600 2.39176
Ex : 318
200 0.734035
205 0.635309
210 0.696547
215 0.501557
220 0.764378
225 0.518436
230 0.873221
235 0.771134
240 0.567113
245 0.593133
250 0.505876
255 0.54127
260 0.579023
265 0.555319
270 0.585264
275 0.497205
280 0.709411
285 0.681689
290 0.710702
295 0.60348
300 0.702963
305 0.734662
310 0.977247
315 2.8625
320 2.3862
325 1.85526
330 1.82128
335 1.97835
340 2.21564
345 2.65033
350 3.30039
355 3.56848
360 3.98117
365 4.55061
370 5.8804
375 5.77774
380 7.3051
385 7.13129
390 7.84727
395 8.56225
400 8.73938
405 8.8486
410 8.9458
415 9.22628
420 8.72925
425 8.08233
430 8.00061
435 8.01947
440 7.54669
445 6.96277
450 6.2425
455 6.41176
460 6.08197
465 5.2412
470 5.15685
475 4.59975
480 4.01718
485 3.91567
490 3.35684
495 3.53221
500 3.12341
505 2.905
510 2.27622
515 2.31593
520 1.95735
525 1.89899
530 1.50644
535 1.73716
540 1.28643
545 1.36794
550 1.18939
555 1.21773
560 0.954992
565 0.871436
570 0.885258
575 0.828622
580 0.675851
585 0.866082
590 0.678932
595 0.777427
600 0.820943
Ex : 323
200 0.560944
205 0.529286
210 0.506213
215 0.609117
220 0.618631
225 0.394643
230 0.532291
235 0.573316
240 0.630731
245 0.581455
250 0.60665
255 0.629414
260 0.746678
265 0.631141
270 0.458282
275 0.365761
280 0.549204
285 0.748185
290 0.694233
295 0.615697
300 0.64051
305 0.608429
310 0.597205
315 21.9858
320 100.56
325 43.4314
330 8.46952
335 4.81901
340 5.65435
345 7.32366
350 9.80417
355 13.3291
360 15.5113
365 17.6521
370 21.0749
375 24.2526
380 27.8237
385 30.2021
390 32.8973
395 34.5258
400 36.9728
405 36.1099
410 37.3749
415 37.5055
420 36.5766
425 34.8549
430 33.3473
435 32.0594
440 30.6272
445 29.8217
450 28.3866
455 26.1071
460 24.424
465 22.8319
470 21.1469
475 19.1491
480 17.5295
485 15.6886
490 13.7312
495 12.95
500 11.4096
505 10.0405
510 9.28007
515 8.33973
520 7.018
525 5.79925
530 5.19516
535 4.79245
540 4.48032
545 3.82079
550 3.31044
555 3.00121
560 2.43506
565 2.38878
570 2.19482
575 1.74454
580 1.39509
585 1.23924
590 1.09219
595 0.892069
600 0.87846
Ex : 328
200 0.612074
205 0.536787
210 0.610389
215 0.441409
220 0.370584
225 0.441552
230 0.589106
235 0.691155
240 0.448957
245 0.636534
250 0.546538
255 0.387387
260 0.631213
265 0.648192
270 0.635287
275 0.564609
280 0.60316
285 0.689406
290 0.64175
295 0.509514
300 0.643562
305 0.881213
310 0.689655
315 6.28544
320 250.074
325 592.783
330 174.365
335 25.9448
340 9.79891
345 9.04649
350 10.9786
355 14.6526
360 19.9057
365 22.8752
370 24.9413
375 28.1503
380 30.85
385 35.1705
390 38.1871
395 39.827
400 41.5481
405 42.5299
410 42.961
415 43.6957
420 42.0148
425 40.737
430 39.0905
435 37.1729
440 35.1584
445 34.5047
450 32.6247
455 30.1274
460 28.673
465 26.3391
470 24.7007
475 22.1202
480 20.4481
485 18.8698
490 17.6829
495 15.524
500 13.8523
505 12.6512
510 11.2108
515 9.82375
520 9.02036
525 7.79895
530 6.85934
535 6.76577
540 5.58979
545 5.06854
550 4.34332
555 4.17179
560 3.40336
565 3.10613
570 2.65317
575 2.34419
580 2.01201
585 1.50438
590 1.51588
595 1.20231
600 1.5769
Ex : 333
200 0.584489
205 0.533298
210 0.473197
215 0.580395
220 0.48699
225 0.487137
230 0.734429
235 0.539356
240 0.557094
245 0.483791
250 0.704598
255 0.723979
260 0.616189
265 0.531354
270 0.482691
275 0.751173
280 0.644654
285 0.591855
290 0.666675
295 0.683231
300 0.856006
305 0.834878
310 0.853569
315 1.18773
320 35.2897
325 719.836
330 1217.55
335 303.799
340 41.219
345 11.673
350 9.09559
355 9.33897
360 12.2751
365 17.0887
370 18.408
375 18.4743
380 20.2754
385 21.0314
390 23.9954
395 25.2978
400 26.5074
405 27.255
410 27.4022
415 27.6993
420 26.4043
425 25.0295
430 24.7289
435 23.6589
440 22.2222
445 22.1153
450 19.6014
455 19.283
460 17.5197
465 16.8254
470 15.9109
475 15.1656
480 14.1257
485 13.2021
490 12.6133
495 11.3838
500 9.97318
505 9.08512
510 8.40692
515 7.53487
520 6.83523
525 6.21965
530 5.95422
535 5.46287
540 5.08696
545 4.27126
550 3.76867
555 3.75382
560 3.37863
565 2.97803
570 2.43483
575 2.25351
580 2.06444
585 1.51791
590 1.38701
595 1.52626
600 1.13487
Ex : 338
200 0.474034
205 0.527162
210 0.70196
215 0.370989
220 0.51467
225 0.495724
230 0.607319
235 0.655619
240 0.489721
245 0.480498
250 0.543541
255 0.611296
260 0.593101
265 0.52695
270 0.635654
275 0.68969
280 0.645199
285 0.750913
290 0.703275
295 0.810169
300 0.765266
305 0.868845
310 0.940922
315 1.13617
320 1.5795
325 66.7311
330 1068.88
335 1553.96
340 368.996
345 48.1373
350 11.6819
355 7.14519
360 6.30576
365 8.41842
370 12.6638
375 13.8365
380 12.4112
385 12.5014
390 14.3209
395 15.1681
400 15.9904
405 16.5961
410 16.58
415 17.1485
420 16.7264
425 15.7585
430 15.0957
435 14.5733
440 14.2807
445 14.3118
450 13.4606
455 12.5309
460 11.9327
465 11.071
470 10.6726
475 10.4464
480 9.8987
485 9.50609
490 8.85361
495 7.98957
500 7.43921
505 7.14772
510 6.51213
515 5.88397
520 5.58897
525 5.26865
530 4.58484
535 4.40075
540 4.05172
545 4.08553
550 3.47819
555 3.32719
560 2.918
565 2.47143
570 2.23491
575 1.90216
580 1.92063
585 1.72518
590 1.49129
595 1.25366
600 2.14598
Ex : 343
200 0.541483
205 0.547818
210 0.521084
215 0.503359
220 0.504581
225 0.584702
230 0.56921
235 0.494348
240 0.482359
245 0.479573
250 0.555393
255 0.576979
260 0.550008
265 0.594256
270 0.492633
275 0.430631
280 0.467297
285 0.543143
290 0.56158
295 0.658555
300 0.619441
305 0.715442
310 0.794285
315 0.892579
320 1.33608
325 2.19945
330 76.1826
335 1201.74
340 1709.54
345 398.453
350 51.096
355 10.9926
360 5.9856
365 4.95884
370 6.04311
375 9.88374
380 11.8553
385 11.825
390 11.8018
395 11.6612
400 12.017
405 12.3404
410 13.542
415 14.2127
420 13.6818
425 12.8067
430 12.6656
435 12.8668
440 12.4528
445 11.9214
450 11.1843
455 11.0197
460 11.0623
465 10.4368
470 9.61849
475 9.22068
480 8.84657
485 8.56202
490 7.92053
495 7.26422
500 6.56416
505 6.71643
510 5.90185
515 5.56257
520 5.18531
525 4.92037
530 4.37752
535 4.24347
540 3.91963
545 3.58965
550 3.48811
555 3.11054
560 2.85854
565 2.61564
570 2.38789
575 2.18718
580 1.85385
585 1.62231
590 1.48239
595 1.35915
600 0.959779
Ex : 348
200 0.461018
205 0.43515
210 0.456532
215 0.451295
220 0.399302
225 0.415326
230 0.505959
235 0.482282
240 0.48291
245 0.522647
250 0.339175
255 0.467694
260 0.422866
265 0.49905
270 0.495695
275 0.606739
280 0.516205
285 0.464143
290 0.515422
295 0.589943
300 0.628779
305 0.62443
310 0.654226
315 0.78109
320 1.02993
325 1.34868
330 2.68766
335 75.5731
340 1184.68
345 1738.74
350 431.387
355 54.3214
360 10.9346
365 5.46513
370 4.11838
375 4.8345
380 9.01028
385 13.4262
390 13.4024
395 13.3234
400 11.993
405 12.8511
410 13.8472
415 14.3774
420 13.9591
425 13.204
430 12.7548
435 12.7522
440 12.2743
445 12.034
450 11.5432
455 11.1827
460 10.2615
465 10.3755
470 9.44503
475 9.60076
480 8.95407
485 8.25297
490 7.78352
495 7.49975
500 6.91057
505 6.74814
510 5.92518
515 5.84208
520 5.41912
525 5.13544
530 4.71786
535 4.14235
540 3.95653
545 3.43508
550 3.36778
555 2.93711
560 2.78946
565 2.27648
570 2.1844
575 2.00832
580 1.76836
585 1.61581
590 1.40724
595 1.13476
600 0.921225
Ex : 353
200 0.346764
205 0.417355
210 0.383882
215 0.358295
220 0.423172
225 0.437315
230 0.546837
235 0.469751
240 0.438905
245 0.455159
250 0.432721
255 0.365408
260 0.486681
265 0.443986
270 0.443906
275 0.454225
280 0.511185
285 0.452495
290 0.479094
295 0.514356
300 0.582469
305 0.633702
310 0.622552
315 0.665808
320 0.819483
325 1.0258
330 1.46865
335 2.65945
340 76.7535
345 1199.52
350 1704.15
355 408.227
360 51.6005
365 10.3025
370 5.20818
375 4.20631
380 5.24962
385 9.59825
390 14.7103
395 15.2602
400 13.3417
405 13.1051
410 13.6121
415 15.3702
420 14.7523
425 13.5103
430 13.2115
435 12.8931
440 12.2893
445 12.7387
450 12.0588
455 11.2558
460 10.7459
465 10.3345
470 9.75877
475 9.55506
480 9.5435
485 8.62062
490 7.83695
495 7.78686
500 7.43152
505 6.34232
510 6.18744
515 5.62794
520 5.06138
525 4.75803
530 4.40797
535 3.99003
540 3.76212
545 3.58854
550 3.31879
555 2.96986
560 2.64126
565 2.51147
570 2.17
575 1.89269
580 1.49594
585 1.39607
590 1.17152
595 1.11463
600 1.22612
Ex : 358
200 0.538753
205 0.44484
210 0.388046
215 0.341831
220 0.296163
225 0.452931
230 0.379177
235 0.330251
240 0.388599
245 0.441655
250 0.481221
255 0.388774
260 0.385534
265 0.4114
270 0.55289
275 0.433958
280 0.468616
285 0.421142
290 0.565597
295 0.619879
300 0.544281
305 0.466906
310 0.533705
315 0.566682
320 0.620833
325 0.906708
330 1.02965
335 1.65576
340 2.42162
345 71.7049
350 1129.37
355 1685.88
360 409.793
365 51.1803
370 9.72211
375 4.94069
380 4.71239
385 6.173
390 10.4113
395 14.984
400 14.3336
405 13.6852
410 13.0303
415 14.1891
420 13.7423
425 13.0415
430 12.3648
435 12.2044
440 12.0971
445 12.3268
450 11.1908
455 11.1202
460 10.938
465 10.411
470 9.89756
475 9.68599
480 9.00244
485 8.54105
490 7.72893
495 7.80966
500 6.97763
505 6.48976
510 6.21858
515 5.68086
520 5.19547
525 4.90236
530 4.59379
535 4.03778
540 3.89932
545 3.30654
550 3.01891
555 2.82023
560 2.61052
565 2.34407
570 2.12208
575 1.91583
580 1.45184
585 1.31516
590 1.13414
595 1.03459
600 0.935767
Ex : 363
200 0.365687
205 0.35
210 0.427952
215 0.423742
220 0.320331
225 0.376
230 0.335484
235 0.428376
240 0.3538
245 0.300758
250 0.420011
255 0.420504
260 0.488702
265 0.405411
270 0.425819
275 0.370685
280 0.337174
285 0.460039
290 0.371759
295 0.418056
300 0.469565
305 0.448316
310 0.437308
315 0.542926
320 0.618102
325 0.742014
330 0.890088
335 1.08433
340 1.57573
345 2.46855
350 63.7205
355 1077.27
360 1654.3
365 415.884
370 52.0217
375 9.91869
380 6.46738
385 7.44528
390 9.54321
395 11.0576
400 14.113
405 15.4793
410 15.2688
415 15.045
420 13.3846
425 12.8154
430 12.8259
435 12.7809
440 12.643
445 12.0351
450 12.048
455 10.9603
460 10.9496
465 10.4831
470 10.2912
475 9.97819
480 9.25709
485 8.48508
490 8.57889
495 7.53162
500 7.11444
505 6.80591
510 6.13902
515 5.81343
520 5.50779
525 5.09368
530 4.42374
535 4.18615
540 3.68021
545 3.43776
550 3.08142
555 2.97624
560 2.72873
565 2.23253
570 2.03656
575 1.75812
580 1.51651
585 1.3322
590 1.11188
595 1.04373
600 1.76336
Ex : 368
200 0.366591
205 0.349767
210 0.380584
215 0.409237
220 0.376248
225 0.383612
230 0.333048
235 0.356437
240 0.293886
245 0.32554
250 0.373389
255 0.320436
260 0.394725
265 0.363833
270 0.338022
275 0.387891
280 0.410528
285 0.346804
290 0.414715
295 0.46676
300 0.393655
305 0.431396
310 0.496055
315 0.39
320 0.450016
325 0.631034
330 0.722546
335 0.933129
340 1.23411
345 1.59448
350 2.47288
355 51.7195
360 1016.8
365 1652.73
370 428.589
375 53.7411
380 11.0549
385 8.63565
390 10.831
395 11.7542
400 11.8705
405 14.8838
410 18.5728
415 18.2808
420 17.1334
425 14.4765
430 13.6758
435 13.7241
440 13.6162
445 13.5329
450 12.8739
455 11.5007
460 11.2646
465 10.848
470 10.7195
475 10.5423
480 9.78664
485 9.13379
490 8.4573
495 7.78469
500 7.63659
505 7.05555
510 6.58783
515 5.76206
520 5.19364
525 4.65601
530 4.60732
535 4.22694
540 3.58846
545 3.32079
550 3.01325
555 2.78765
560 2.49713
565 2.26759
570 1.9112
575 1.59418
580 1.44583
585 1.25539
590 1.03002
595 1.00457
600 1.14889
Ex : 373
200 0.238367
205 0.317485
210 0.350307
215 0.29607
220 0.343904
225 0.343605
230 0.328106
235 0.370106
240 0.343711
245 0.359131
250 0.305691
255 0.307591
260 0.321985
265 0.369839
270 0.359595
275 0.371602
280 0.381461
285 0.262628
290 0.346277
295 0.339725
300 0.383138
305 0.358381
310 0.38863
315 0.388759
320 0.453438
325 0.495019
330 0.555314
335 0.768624
340 0.898789
345 1.09413
350 1.54404
355 2.39969
360 59.5929
365 1023.29
370 1614.25
375 417.525
380 52.9394
385 12.4697
390 11.7847
395 12.3657
400 11.6526
405 11.2744
410 15.0475
415 19.5095
420 18.05
425 15.6302
430 13.5344
435 12.9706
440 13.3393
445 13.1155
450 12.1569
455 11.447
460 11.0432
465 10.6692
470 10.2312
475 10.1572
480 9.57164
485 8.82798
490 8.39649
495 7.72366
500 7.00337
505 6.81118
510 6.44844
515 6.04851
520 5.46033
525 4.87958
530 4.23267
535 4.02403
540 3.75938
545 3.55904
550 3.15357
555 2.87526
560 2.59093
565 2.21185
570 2.04525
575 1.71108
580 1.4546
585 1.11233
590 1.02222
595 0.774769
600 0.182846
Ex : 378
200 0.322438
205 0.277606
210 0.345569
215 0.354812
220 0.395358
225 0.422438
230 0.32083
235 0.314454
240 0.381626
245 0.375537
250 0.37654
255 0.306158
260 0.261978
265 0.31377
270 0.295091
275 0.284594
280 0.277092
285 0.270342
290 0.320498
295 0.406426
300 0.357127
305 0.333073
310 0.354293
315 0.343585
320 0.400462
325 0.475466
330 0.592134
335 0.623659
340 0.718498
345 0.822336
350 0.965765
355 1.56339
360 2.29191
365 55.1159
370 1013.41
375 1619.98
380 420.61
385 54.4759
390 14.0101
395 10.5568
400 9.26909
405 9.33699
410 10.3052
415 12.9632
420 15.5796
425 14.0257
430 12.2355
435 11.42
440 11.3807
445 11.4534
450 10.6292
455 10.5046
460 9.95379
465 9.8211
470 9.69734
475 8.9942
480 8.85676
485 8.35376
490 7.98832
495 7.66049
500 6.9923
505 6.87103
510 6.27963
515 5.72957
520 5.25874
525 4.87539
530 4.59232
535 4.02407
540 3.5857
545 3.22632
550 3.1165
555 2.7309
560 2.4911
565 2.11584
570 2.05711
575 1.80143
580 1.39142
585 1.1625
590 1.0288
595 0.835875
600 0.664307
Ex : 383
200 0.266223
205 0.282507
210 0.27867
215 0.34813
220 0.259208
225 0.303569
230 0.325418
235 0.286543
240 0.307122
245 0.328542
250 0.238461
255 0.284322
260 0.265257
265 0.318262
270 0.349262
275 0.346584
280 0.408567
285 0.290329
290 0.319034
295 0.37441
300 0.462487
305 0.477997
310 0.419642
315 0.332534
320 0.42935
325 0.444186
330 0.52606
335 0.571014
340 0.722435
345 0.733987
350 0.791165
355 1.04256
360 1.39124
365 2.26385
370 50.9085
375 988.452
380 1653.3
385 439.126
390 59.0337
395 14.842
400 9.55236
405 9.57853
410 10.8195
415 11.3102
420 11.7316
425 13.6344
430 13.522
435 12.1913
440 11.4057
445 10.9685
450 10.5013
455 9.96158
460 9.69147
465 9.65724
470 9.2816
475 8.98582
480 8.87602
485 8.06115
490 8.02547
495 7.72088
500 7.03832
505 6.71572
510 6.02464
515 5.4804
520 5.22685
525 4.5842
530 4.34663
535 4.01756
540 3.83449
545 3.3113
550 2.92454
555 2.78135
560 2.53893
565 2.22494
570 2.08894
575 1.64763
580 1.31055
585 1.14492
590 1.01295
595 0.800319
600 0.734005
Ex : 388
200 0.273329
205 0.326425
210 0.308075
215 0.303075
220 0.260548
225 0.298334
230 0.259871
235 0.331704
240 0.28117
245 0.316223
250 0.353727
255 0.32154
260 0.323007
265 0.315139
270 0.337705
275 0.368308
280 0.378122
285 0.346587
290 0.329139
295 0.311043
300 0.328472
305 0.304385
310 0.315399
315 0.364059
320 0.347156
325 0.373376
330 0.381051
335 0.450048
340 0.477993
345 0.658435
350 0.624243
355 0.822206
360 1.00961
365 1.36597
370 2.30774
375 55.3798
380 999.851
385 1635.39
390 433.434
395 59.7193
400 15.7932
405 11.1889
410 12.2602
415 12.5777
420 12.564
425 11.6861
430 12.9945
435 14.1868
440 13.3845
445 12.3789
450 11.4708
455 10.4442
460 9.72409
465 9.78021
470 9.46539
475 9.21518
480 8.91463
485 8.69218
490 7.68539
495 7.74093
500 7.10509
505 6.75714
510 6.10609
515 5.76934
520 5.07705
525 4.80619
530 4.37663
535 3.98508
540 3.72709
545 3.3999
550 3.07207
555 2.82438
560 2.42742
565 2.05264
570 1.93136
575 1.6259
580 1.47728
585 1.14201
590 1.0335
595 0.822873
600 0.497061
Ex : 393
200 0.254569
205 0.211303
210 0.266771
215 0.272008
220 0.262371
225 0.265316
230 0.275884
235 0.268412
240 0.263028
245 0.277906
250 0.256657
255 0.271577
260 0.287318
265 0.287693
270 0.322307
275 0.31327
280 0.360027
285 0.35865
290 0.298324
295 0.368644
300 0.335455
305 0.31142
310 0.321162
315 0.337219
320 0.333675
325 0.353957
330 0.398863
335 0.477787
340 0.514407
345 0.552891
350 0.589528
355 0.713587
360 0.730785
365 1.04688
370 1.37489
375 2.25897
380 47.3156
385 983.08
390 1648.6
395 444.718
400 61.171
405 15.7761
410 11.8657
415 13.2735
420 13.1451
425 11.4657
430 10.49
435 11.7177
440 14.0161
445 13.3832
450 11.4856
455 10.2177
460 9.60776
465 9.37789
470 9.13772
475 8.88014
480 8.82239
485 8.18626
490 7.62502
495 7.07674
500 6.8719
505 6.41457
510 6.04529
515 5.78857
520 5.02079
525 4.68115
530 4.53499
535 3.83119
540 3.5723
545 3.26104
550 2.92736
555 2.74302
560 2.42091
565 2.1247
570 1.95505
575 1.55682
580 1.45576
585 1.0191
590 0.952657
595 0.839928
600 0.476744
Ex : 398
200 0.234722
205 0.262143
210 0.248195
215 0.271906
220 0.235869
225 0.336566
230 0.297379
235 0.247774
240 0.31239
245 0.232642
250 0.251146
255 0.258105
260 0.337676
265 0.288234
270 0.327347
275 0.300261
280 0.231423
285 0.281179
290 0.304736
295 0.207067
300 0.261812
305 0.281853
310 0.287766
315 0.262929
320 0.309007
325 0.34426
330 0.337074
335 0.38625
340 0.507383
345 0.472618
350 0.538246
355 0.510443
360 0.592043
365 0.767097
370 0.916738
375 1.27982
380 2.16304
385 49.8447
390 998.272
395 1662.27
400 440.083
405 56.9838
410 13.3581
415 9.30392
420 9.52283
425 8.33057
430 7.44205
435 7.30363
440 8.78419
445 11.3105
450 10.1538
455 9.05591
460 8.15387
465 7.88678
470 7.73336
475 7.44062
480 7.61184
485 7.14367
490 6.81163
495 6.56566
500 6.42301
505 6.06525
510 5.59822
515 5.40186
520 4.68424
525 4.45157
530 3.9846
535 3.81486
540 3.64866
545 3.19367
550 2.84435
555 2.70435
560 2.43719
565 2.12399
570 1.85613
575 1.57166
580 1.24222
585 1.05889
590 1.01939
595 0.786309
600 0.568387
Ex : 403
200 0.309003
205 0.281914
210 0.249159
215 0.229668
220 0.216145
225 0.283984
230 0.286162
235 0.266849
240 0.290014
245 0.286988
250 0.215558
255 0.297602
260 0.207044
265 0.252001
270 0.301089
275 0.30538
280 0.26878
285 0.235167
290 0.283776
295 0.287219
300 0.26182
305 0.376288
310 0.313439
315 0.318522
320 0.296093
325 0.368093
330 0.311336
335 0.37669
340 0.382906
345 0.499364
350 0.416411
355 0.513843
360 0.5475
365 0.620382
370 0.857692
375 0.968098
380 1.35314
385 2.28107
390 55.1928
395 1007.33
400 1636.45
405 437.863
410 55.3886
415 11.1488
420 6.03818
425 5.49996
430 4.94638
435 4.94071
440 5.48308
445 6.3522
450 8.85346
455 8.86855
460 7.56895
465 7.39056
470 7.04646
475 6.78377
480 6.59881
485 6.69573
490 6.43501
495 6.33752
500 5.97132
505 5.63399
510 5.44596
515 4.79271
520 4.63889
525 4.33338
530 4.26729
535 3.59652
540 3.37448
545 3.15966
550 2.89481
555 2.56942
560 2.41893
565 2.11268
570 1.82181
575 1.47129
580 1.23503
585 1.17338
590 0.807657
595 0.739425
600 0.68496
Ex : 408
200 0.293304
205 0.272466
210 0.195671
215 0.230201
220 0.220206
225 0.219472
230 0.240458
235 0.269621
240 0.33033
245 0.326047
250 0.267884
255 0.275209
260 0.220019
265 0.299415
270 0.262454
275 0.302627
280 0.308165
285 0.316002
290 0.268307
295 0.284851
300 0.25607
305 0.27025
310 0.295404
315 0.347193
320 0.336035
325 0.297198
330 0.401329
335 0.353526
340 0.392362
345 0.447327
350 0.4416
355 0.377022
360 0.517917
365 0.555871
370 0.682719
375 0.833144
380 1.04014
385 1.48503
390 2.42099
395 52.1548
400 1020.46
405 1643.32
410 424.807
415 53.7388
420 10.3431
425 5.24035
430 4.90773
435 4.92227
440 5.12711
445 5.38819
450 5.65765
455 7.19213
460 8.91146
465 7.83724
470 6.94962
475 6.93868
480 6.54729
485 6.50838
490 6.41554
495 5.93055
500 5.90653
505 5.80475
510 5.31584
515 5.02473
520 4.58797
525 4.2975
530 3.86062
535 3.5148
540 3.38553
545 2.99412
550 2.85983
555 2.51302
560 2.37516
565 2.05407
570 1.83445
575 1.47038
580 1.24584
585 1.09774
590 0.904512
595 0.779385
600 0.723405
Ex : 413
200 0.263736
205 0.315197
210 0.311795
215 0.239844
220 0.270769
225 0.272332
230 0.268914
235 0.355164
240 0.231675
245 0.220776
250 0.203644
255 0.288093
260 0.205908
265 0.237044
270 0.273801
275 0.245954
280 0.183201
285 0.239332
290 0.216058
295 0.231508
300 0.2511
305 0.301953
310 0.254413
315 0.285833
320 0.303932
325 0.267917
330 0.277618
335 0.32118
340 0.306663
345 0.33058
350 0.427213
355 0.4311
360 0.509478
365 0.544953
370 0.610137
375 0.698462
380 0.743888
385 1.05887
390 1.59474
395 2.41104
400 58.5892
405 1038.16
410 1632.77
415 410.729
420 51.6099
425 9.7805
430 4.77957
435 4.94116
440 4.928
445 4.77647
450 4.93883
455 5.10584
460 6.32822
465 8.42073
470 7.96226
475 6.94441
480 6.58446
485 6.16643
490 5.89176
495 5.66706
500 5.5527
505 5.42705
510 5.1273
515 4.64576
520 4.61753
525 4.12613
530 3.90268
535 3.45309
540 3.24191
545 3.10991
550 2.72174
555 2.56806
560 2.40756
565 2.03051
570 1.83438
575 1.57833
580 1.29829
585 1.10582
590 0.929455
595 0.701207
600 0.919202
Ex : 418
200 0.269414
205 0.214852
210 0.256259
215 0.183362
220 0.232706
225 0.229112
230 0.26404
235 0.207902
240 0.281564
245 0.232344
250 0.250619
255 0.228278
260 0.258153
265 0.282189
270 0.260686
275 0.276712
280 0.292612
285 0.273793
290 0.215483
295 0.289753
300 0.269224
305 0.231248
310 0.248199
315 0.220239
320 0.285469
325 0.243278
330 0.357434
335 0.3985
340 0.303708
345 0.335416
350 0.442582
355 0.373002
360 0.386794
365 0.466347
370 0.559161
375 0.53258
380 0.784496
385 0.891999
390 0.999924
395 1.42712
400 2.22287
405 54.5241
410 1017.57
415 1624.42
420 420.89
425 52.3829
430 9.27314
435 4.48679
440 4.31442
445 4.28856
450 4.05945
455 3.99175
460 4.37884
465 5.31996
470 7.07849
475 7.50309
480 6.33053
485 6.21958
490 5.60346
495 5.53006
500 5.09071
505 5.15125
510 4.97048
515 4.4589
520 4.25924
525 4.13617
530 3.8315
535 3.55076
540 3.32975
545 2.94284
550 2.81409
555 2.38549
560 2.3077
565 2.00051
570 1.78945
575 1.39588
580 1.22487
585 1.07311
590 0.877736
595 0.761406
600 0.934952
Ex : 423
200 0.249336
205 0.233812
210 0.194014
215 0.200087
220 0.206531
225 0.258096
230 0.23119
235 0.296283
240 0.254066
245 0.258497
250 0.250339
255 0.275917
260 0.262782
265 0.215783
270 0.233642
275 0.207667
280 0.301287
285 0.21442
290 0.234367
295 0.278631
300 0.235337
305 0.208751
310 0.275533
315 0.257898
320 0.282866
325 0.333582
330 0.33946
335 0.336212
340 0.346942
345 0.348639
350 0.361462
355 0.349157
360 0.415875
365 0.391628
370 0.408104
375 0.587528
380 0.540137
385 0.612238
390 0.80865
395 0.98779
400 1.49987
405 2.30783
410 55.7619
415 1044.97
420 1596.2
425 393.578
430 48.6926
435 8.66748
440 3.92119
445 3.68166
450 3.79109
455 3.63299
460 3.91453
465 4.09584
470 4.86046
475 6.63866
480 7.36627
485 6.12777
490 5.76901
495 5.29966
500 4.95
505 4.64701
510 4.34439
515 4.27636
520 4.16021
525 3.87353
530 3.64129
535 3.39064
540 3.165
545 2.93595
550 2.63935
555 2.38275
560 2.31899
565 1.99726
570 1.80127
575 1.55038
580 1.24403
585 0.999322
590 0.908302
595 0.741026
600 0.947285
Ex : 428
200 0.250179
205 0.254085
210 0.271833
215 0.297242
220 0.223041
225 0.26646
230 0.237648
235 0.262648
240 0.233652
245 0.230795
250 0.245029
255 0.239612
260 0.266195
265 0.240603
270 0.24504
275 0.258869
280 0.272358
285 0.228872
290 0.237193
295 0.294408
300 0.240374
305 0.285406
310 0.243268
315 0.275059
320 0.303185
325 0.267938
330 0.324233
335 0.303734
340 0.359359
345 0.421104
350 0.38496
355 0.402378
360 0.385012
365 0.462032
370 0.494895
375 0.487786
380 0.599034
385 0.631521
390 0.623269
395 0.810718
400 1.02336
405 1.45763
410 2.29635
415 61.4389
420 1047.46
425 1601.53
430 408.509
435 50.3133
440 8.68455
445 3.72594
450 3.56091
455 3.66906
460 3.53796
465 3.81539
470 3.84933
475 4.38512
480 5.86155
485 7.07367
490 6.0266
495 5.43493
500 4.87275
505 4.67707
510 4.32562
515 4.33069
520 3.83972
525 3.83393
530 3.41751
535 3.39709
540 3.04555
545 2.87267
550 2.61636
555 2.54571
560 2.19179
565 1.932
570 1.78107
575 1.594
580 1.27365
585 1.04828
590 0.975952
595 0.884798
600 0.311123
Ex : 433
200 0.233274
205 0.285762
210 0.241665
215 0.189269
220 0.245994
225 0.2077
230 0.257024
235 0.236969
240 0.262235
245 0.257889
250 0.31801
255 0.242863
260 0.267148
265 0.269647
270 0.269599
275 0.241155
280 0.252201
285 0.279188
290 0.341757
295 0.369028
300 0.259076
305 0.240545
310 0.235563
315 0.255651
320 0.277455
325 0.234705
330 0.307187
335 0.275983
340 0.327072
345 0.341156
350 0.37578
355 0.352605
360 0.409938
365 0.416027
370 0.352487
375 0.403529
380 0.42273
385 0.507257
390 0.655319
395 0.717793
400 0.814296
405 0.975112
410 1.45664
415 2.28072
420 65.7611
425 1094.91
430 1599.26
435 389.887
440 48.0542
445 8.43288
450 3.58462
455 3.48607
460 3.53503
465 3.65679
470 3.60013
475 3.89756
480 4.05198
485 5.01891
490 6.43183
495 5.9886
500 5.2646
505 4.87576
510 4.36769
515 3.88372
520 3.98254
525 3.71
530 3.43536
535 3.25077
540 3.15396
545 2.94375
550 2.73255
555 2.33717
560 2.03959
565 1.9582
570 1.78933
575 1.40752
580 1.26165
585 1.02207
590 0.923569
595 0.72867
600 0.829516
Ex : 438
200 0.215082
205 0.251578
210 0.25401
215 0.228625
220 0.302145
225 0.239379
230 0.206707
235 0.211636
240 0.202821
245 0.294971
250 0.309863
255 0.260652
260 0.243686
265 0.231626
270 0.268526
275 0.244649
280 0.291741
285 0.223982
290 0.255704
295 0.263413
300 0.30246
305 0.262621
310 0.317138
315 0.275283
320 0.246517
325 0.365002
330 0.276194
335 0.31239
340 0.310258
345 0.321428
350 0.336892
355 0.302136
360 0.359021
365 0.365508
370 0.375051
375 0.360608
380 0.391883
385 0.479004
390 0.533164
395 0.671327
400 0.669169
405 0.734564
410 1.0517
415 1.48857
420 2.25459
425 61.6808
430 1067.19
435 1664.6
440 409.092
445 50.3873
450 8.76187
455 3.6104
460 3.48437
465 3.56962
470 3.57391
475 3.52894
480 3.68508
485 3.64709
490 4.37614
495 6.03086
500 6.18696
505 4.68876
510 4.60477
515 4.07843
520 3.847
525 3.45082
530 3.48473
535 3.2044
540 3.10244
545 2.79669
550 2.56661
555 2.52326
560 2.11927
565 1.81107
570 1.69454
575 1.52421
580 1.28455
585 1.09157
590 0.929974
595 0.765171
600 1.80298
Ex : 443
200 0.237491
205 0.16969
210 0.298823
215 0.22521
220 0.239517
225 0.234383
230 0.220419
235 0.236195
240 0.22468
245 0.281054
250 0.268819
255 0.242621
260 0.268353
265 0.249148
270 0.226465
275 0.229059
280 0.185684
285 0.227076
290 0.270526
295 0.266882
300 0.272972
305 0.255441
310 0.272413
315 0.224809
320 0.257884
325 0.313982
330 0.307256
335 0.368683
340 0.376271
345 0.305545
350 0.350469
355 0.305889
360 0.422691
365 0.315247
370 0.326337
375 0.36668
380 0.343214
385 0.432182
390 0.508804
395 0.506589
400 0.508631
405 0.64895
410 0.779229
415 0.989652
420 1.47832
425 2.33911
430 67.4835
435 1115.24
440 1654.08
445 403.102
450 49.5895
455 8.69931
460 3.82025
465 3.44961
470 3.51842
475 3.57551
480 3.47443
485 3.50817
490 3.63234
495 4.0308
500 5.14873
505 6.14186
510 4.8298
515 4.31412
520 3.98391
525 3.8654
530 3.22989
535 3.16996
540 2.89188
545 2.70467
550 2.63415
555 2.35891
560 2.06699
565 1.88381
570 1.69014
575 1.4162
580 1.25802
585 1.00678
590 0.880706
595 0.909496
600 0.756808
Ex : 448
200 0.252243
205 0.272348
210 0.309406
215 0.249639
220 0.319913
225 0.271357
230 0.270737
235 0.231086
240 0.261796
245 0.261846
250 0.25838
255 0.230959
260 0.264099
265 0.238453
270 0.185935
275 0.159311
280 0.288146
285 0.31277
290 0.299284
295 0.238739
300 0.231341
305 0.292565
310 0.227186
315 0.264978
320 0.290836
325 0.284001
330 0.313219
335 0.348545
340 0.350922
345 0.313838
350 0.317947
355 0.341549
360 0.318028
365 0.40624
370 0.375323
375 0.323235
380 0.346257
385 0.383634
390 0.413889
395 0.546179
400 0.548329
405 0.579023
410 0.779983
415 0.740869
420 1.05046
425 1.4516
430 2.38445
435 67.9524
440 1165.27
445 1715.29
450 417.824
455 51.3285
460 9.07239
465 3.85235
470 3.48033
475 3.46226
480 3.4969
485 3.45411
490 3.46897
495 3.5491
500 3.60369
505 4.57504
510 5.83647
515 5.17448
520 4.17018
525 3.8346
530 3.72005
535 3.27143
540 3.02566
545 2.57115
550 2.48492
555 2.38497
560 2.11773
565 2.11227
570 1.83497
575 1.56111
580 1.2795
585 1.0829
590 1.01815
595 0.756209
600 1.0388
Ex : 453
200 0.216252
205 0.230653
210 0.275327
215 0.319831
220 0.188827
225 0.224894
230 0.239266
235 0.245047
240 0.257594
245 0.347002
250 0.276877
255 0.213012
260 0.247798
265 0.259014
270 0.279373
275 0.210624
280 0.234875
285 0.241857
290 0.221953
295 0.2334
300 0.224668
305 0.291845
310 0.273475
315 0.279334
320 0.210672
325 0.243038
330 0.294275
335 0.273166
340 0.356724
345 0.336064
350 0.29612
355 0.352282
360 0.32087
365 0.334751
370 0.397328
375 0.378491
380 0.377582
385 0.365279
390 0.483267
395 0.496588
400 0.488826
405 0.577211
410 0.655545
415 0.667155
420 0.831163
425 0.91933
430 1.3922
435 2.05217
440 71.8879
445 1234.98
450 1751.39
455 402.47
460 49.7096
465 8.90205
470 3.63136
475 3.40653
480 3.30597
485 3.51593
490 3.37443
495 3.27784
500 3.24224
505 3.32707
510 3.75896
515 5.2219
520 5.13757
525 4.06823
530 3.65853
535 3.38668
540 3.15052
545 2.66048
550 2.52092
555 2.31732
560 2.12466
565 1.95756
570 1.78379
575 1.51153
580 1.27331
585 1.10095
590 0.866617
595 0.743497
600 0.408688
Ex : 458
200 0.234208
205 0.247882
210 0.224607
215 0.28353
220 0.301926
225 0.228541
230 0.25224
235 0.23269
240 0.258858
245 0.23178
250 0.301993
255 0.269893
260 0.210882
265 0.222367
270 0.281286
275 0.320809
280 0.208383
285 0.249454
290 0.256286
295 0.235385
300 0.240604
305 0.261123
310 0.288285
315 0.286007
320 0.238175
325 0.369589
330 0.28312
335 0.290638
340 0.328024
345 0.301078
350 0.301074
355 0.236025
360 0.390319
365 0.329662
370 0.310099
375 0.325067
380 0.471412
385 0.432319
390 0.399614
395 0.335241
400 0.48072
405 0.486423
410 0.584582
415 0.59853
420 0.660219
425 0.879393
430 1.17462
435 1.364
440 2.32232
445 78.1493
450 1261.1
455 1828.21
460 431.532
465 53.2724
470 9.18776
475 3.85962
480 3.37543
485 3.549
490 3.42568
495 3.176
500 3.1816
505 3.13282
510 3.22816
515 3.40217
520 4.60773
525 5.29371
530 4.00431
535 3.5866
540 3.43408
545 2.85559
550 2.70373
555 2.42335
560 2.25088
565 2.03768
570 1.85565
575 1.5387
580 1.26067
585 1.11049
590 0.958046
595 0.845218
600 1.65295
Ex : 463
200 0.198387
205 0.208801
210 0.227287
215 0.177923
220 0.268995
225 0.231845
230 0.237589
235 0.256465
240 0.279642
245 0.226204
250 0.329261
255 0.230896
260 0.278337
265 0.249331
270 0.235225
275 0.22025
280 0.232239
285 0.195355
290 0.239516
295 0.245335
300 0.275324
305 0.249355
310 0.255009
315 0.308726
320 0.253148
325 0.290875
330 0.276023
335 0.307853
340 0.267879
345 0.254427
350 0.299257
355 0.334906
360 0.325615
365 0.329562
370 0.313966
375 0.33248
380 0.347052
385 0.386877
390 0.355131
395 0.340453
400 0.436139
405 0.393561
410 0.445114
415 0.548602
420 0.590977
425 0.703721
430 0.820998
435 1.00137
440 1.39315
445 2.39006
450 75.2053
455 1285.9
460 1922.21
465 452.068
470 55.3632
475 9.2362
480 3.77164
485 3.01336
490 3.35006
495 3.30673
500 3.11135
505 2.94885
510 2.96275
515 2.97645
520 2.90058
525 3.72286
530 4.63769
535 4.26875
540 3.43238
545 3.08584
550 2.80227
555 2.62328
560 2.28494
565 2.0291
570 1.85781
575 1.5468
580 1.4246
585 1.06071
590 0.833997
595 0.757094
600 0.639344
Ex : 468
200 0.196865
205 0.206906
210 0.210421
215 0.201793
220 0.237833
225 0.218044
230 0.20575
235 0.234918
240 0.273989
245 0.259857
250 0.186394
255 0.211018
260 0.241792
265 0.211179
270 0.226698
275 0.229777
280 0.303139
285 0.25699
290 0.217626
295 0.264284
300 0.326614
305 0.269965
310 0.257917
315 0.281063
320 0.24636
325 0.225513
330 0.257708
335 0.269044
340 0.276514
345 0.247664
350 0.305029
355 0.331113
360 0.254699
365 0.301109
370 0.305984
375 0.300454
380 0.278263
385 0.375097
390 0.391
395 0.378267
400 0.341301
405 0.432734
410 0.445921
415 0.367327
420 0.554816
425 0.478769
430 0.547643
435 0.751629
440 0.929892
445 1.35862
450 2.17831
455 80.4869
460 1298.77
465 1995.37
470 468.81
475 56.7855
480 9.41027
485 3.852
490 2.98364
495 3.04373
500 3.12097
505 3.09847
510 3.03403
515 2.9243
520 2.99457
525 2.93099
530 3.34262
535 4.38817
540 4.16128
545 3.2881
550 2.99652
555 2.74162
560 2.49104
565 2.01399
570 1.68156
575 1.45387
580 1.32195
585 1.06495
590 0.922557
595 0.817699
600 0.733922
Ex : 473
200 0.23197
205 0.201484
210 0.273212
215 0.236802
220 0.26999
225 0.27117
230 0.23477
235 0.234813
240 0.222825
245 0.231679
250 0.277543
255 0.22127
260 0.257901
265 0.250244
270 0.199124
275 0.273097
280 0.238858
285 0.250038
290 0.191752
295 0.245209
300 0.301433
305 0.317159
310 0.276388
315 0.278579
320 0.272675
325 0.27999
330 0.267453
335 0.265852
340 0.27001
345 0.236308
350 0.263343
355 0.390206
360 0.329808
365 0.37355
370 0.347346
375 0.314147
380 0.361312
385 0.354297
390 0.334233
395 0.325706
400 0.347557
405 0.431704
410 0.393556
415 0.487379
420 0.495494
425 0.567181
430 0.557684
435 0.590312
440 0.769342
445 0.989546
450 1.47898
455 2.42777
460 92.9282
465 1410.36
470 1931.53
475 434.845
480 53.0799
485 9.06405
490 3.65005
495 2.8809
500 2.84417
505 3.04785
510 2.88182
515 2.77815
520 2.73987
525 2.81034
530 2.88028
535 3.02242
540 4.08517
545 4.26368
550 3.43169
555 2.6697
560 2.44396
565 2.30004
570 1.89617
575 1.492
580 1.33718
585 1.13705
590 0.939027
595 0.840261
600 0.372557
Ex : 478
200 0.299706
205 0.250287
210 0.277775
215 0.24684
220 0.287449
225 0.293423
230 0.282397
235 0.293121
240 0.301347
245 0.276824
250 0.240686
255 0.322765
260 0.268817
265 0.243326
270 0.267192
275 0.335846
280 0.310646
285 0.271527
290 0.311017
295 0.331566
300 0.276745
305 0.272684
310 0.348811
315 0.346349
320 0.314511
325 0.272995
330 0.370762
335 0.315286
340 0.314417
345 0.315617
350 0.337016
355 0.345902
360 0.361106
365 0.414715
370 0.379693
375 0.348888
380 0.400551
385 0.392202
390 0.368744
395 0.451418
400 0.438436
405 0.457854
410 0.501106
415 0.55958
420 0.502157
425 0.50183
430 0.510133
435 0.585835
440 0.757897
445 0.932604
450 1.17485
455 1.60962
460 2.85869
465 101.054
470 1429.56
475 1944.75
480 458.703
485 55.9941
490 9.40553
495 3.56304
500 2.77192
505 2.81027
510 3.0603
515 3.01438
520 2.78117
525 2.84978
530 2.92618
535 2.80067
540 3.07208
545 3.23167
550 3.8356
555 3.59022
560 2.76604
565 2.29692
570 2.06033
575 1.4717
580 1.31218
585 1.11943
590 1.03904
595 0.900624
600 0.526324
Ex : 483
200 0.256878
205 0.339464
210 0.236868
215 0.244869
220 0.312271
225 0.271149
230 0.324002
235 0.263459
240 0.245544
245 0.275112
250 0.257442
255 0.309279
260 0.262232
265 0.210529
270 0.195754
275 0.311898
280 0.257639
285 0.294087
290 0.253651
295 0.278064
300 0.219062
305 0.222298
310 0.246732
315 0.29507
320 0.294416
325 0.269559
330 0.360073
335 0.324787
340 0.332948
345 0.371759
350 0.334521
355 0.33708
360 0.354794
365 0.346242
370 0.357587
375 0.395498
380 0.425897
385 0.404628
390 0.405667
395 0.398085
400 0.436599
405 0.379752
410 0.489503
415 0.449597
420 0.51391
425 0.503824
430 0.499271
435 0.614895
440 0.691141
445 0.752783
450 0.974564
455 1.10102
460 1.80424
465 2.86921
470 79.8018
475 1396.5
480 2066.51
485 482.505
490 58.6322
495 9.29454
500 3.50912
505 2.56808
510 2.83598
515 2.89969
520 2.87607
525 2.836
530 2.77517
535 2.56807
540 2.63624
545 2.73438
550 2.7317
555 3.23823
560 3.28851
565 2.54624
570 2.07758
575 1.77915
580 1.52757
585 1.16103
590 0.935444
595 0.860391
600 1.07081
Ex : 488
200 0.250024
205 0.302676
210 0.333722
215 0.227432
220 0.266688
225 0.250852
230 0.347921
235 0.258198
240 0.295354
245 0.349529
250 0.292489
255 0.334695
260 0.338038
265 0.299392
270 0.260973
275 0.292637
280 0.293495
285 0.285817
290 0.298539
295 0.318081
300 0.383031
305 0.321652
310 0.275821
315 0.367107
320 0.292451
325 0.324517
330 0.366085
335 0.378311
340 0.447123
345 0.380738
350 0.399194
355 0.422698
360 0.356817
365 0.347997
370 0.374343
375 0.408874
380 0.407053
385 0.344707
390 0.370145
395 0.412237
400 0.471415
405 0.475427
410 0.4676
415 0.523788
420 0.425869
425 0.453604
430 0.529268
435 0.606322
440 0.689863
445 0.823
450 0.843874
455 0.933766
460 1.39848
465 1.79524
470 2.86418
475 94.3415
480 1485.75
485 2017.29
490 463.432
495 56.4434
500 9.25543
505 3.41513
510 2.58121
515 2.85419
520 2.77044
525 3.09763
530 2.82304
535 2.74089
540 2.73959
545 2.59596
550 2.46109
555 2.46953
560 3.12192
565 3.11023
570 2.35476
575 1.81733
580 1.64592
585 1.35819
590 1.14216
595 0.853765
600 0.923337
Ex : 493
200 0.226892
205 0.287917
210 0.295066
215 0.297757
220 0.232628
225 0.263092
230 0.275557
235 0.275687
240 0.302351
245 0.278984
250 0.309004
255 0.338622
260 0.354557
265 0.303988
270 0.252859
275 0.277741
280 0.267983
285 0.363681
290 0.339712
295 0.325715
300 0.291103
305 0.284223
310 0.281538
315 0.285421
320 0.282541
325 0.317329
330 0.284796
335 0.360915
340 0.294502
345 0.303198
350 0.382591
355 0.380192
360 0.411395
365 0.407314
370 0.419668
375 0.403102
380 0.410083
385 0.419854
390 0.390076
395 0.416408
400 0.437721
405 0.599518
410 0.422127
415 0.475961
420 0.580069
425 0.476588
430 0.465262
435 0.552813
440 0.58299
445 0.552497
450 0.620605
455 0.889785
460 1.09157
465 1.39507
470 1.8031
475 2.71899
480 86.9067
485 1453.57
490 2092.18
495 474.074
500 57.4599
505 9.27135
510 3.6668
515 2.74401
520 2.82603
525 2.84908
530 2.96961
535 2.85476
540 2.55186
545 2.48357
550 2.34062
555 2.39789
560 2.27506
565 2.17824
570 2.80275
575 2.38893
580 1.58634
585 1.38836
590 1.21321
595 0.965387
600 0.813818
Ex : 498
200 0.342721
205 0.354192
210 0.295385
215 0.293415
220 0.356408
225 0.314121
230 0.438428
235 0.397628
240 0.286777
245 0.348233
250 0.324902
255 0.298478
260 0.303996
265 0.304221
270 0.340363
275 0.348988
280 0.335083
285 0.298396
290 0.321817
295 0.28269
300 0.375261
305 0.420985
310 0.385958
315 0.354295
320 0.306451
325 0.395005
330 0.521781
335 0.409721
340 0.347081
345 0.45368
350 0.390528
355 0.409658
360 0.408675
365 0.414376
370 0.398959
375 0.431969
380 0.443329
385 0.362959
390 0.37233
395 0.457326
400 0.443874
405 0.439267
410 0.418653
415 0.509971
420 0.488265
425 0.45294
430 0.507321
435 0.499368
440 0.548082
445 0.539841
450 0.740001
455 0.816948
460 1.0072
465 1.24979
470 1.44535
475 1.81381
480 2.89787
485 102.491
490 1521.9
495 2015.27
500 459.115
505 55.9246
510 9.08554
515 3.38486
520 2.7749
525 2.58702
530 2.89021
535 2.78022
540 2.65841
545 2.40513
550 2.14206
555 2.21884
560 1.98723
565 2.06051
570 1.87321
575 2.09561
580 1.98109
585 1.43473
590 1.13511
595 1.03866
600 1.09687
Ex : 503
200 0.389938
205 0.397357
210 0.347721
215 0.350624
220 0.334868
225 0.368228
230 0.447225
235 0.34713
240 0.469489
245 0.365359
250 0.318259
255 0.330347
260 0.367398
265 0.296166
270 0.353601
275 0.382347
280 0.283411
285 0.299208
290 0.372352
295 0.410891
300 0.362261
305 0.398114
310 0.279837
315 0.35281
320 0.449583
325 0.533652
330 0.423687
335 0.382297
340 0.341779
345 0.384956
350 0.374245
355 0.317952
360 0.388979
365 0.52435
370 0.377739
375 0.431018
380 0.53007
385 0.395148
390 0.497046
395 0.501972
400 0.474697
405 0.470018
410 0.461536
415 0.498461
420 0.477912
425 0.552114
430 0.459705
435 0.525809
440 0.584423
445 0.554221
450 0.688642
455 0.691806
460 0.909616
465 0.986826
470 1.12357
475 1.39231
480 2.07763
485 3.23145
490 94.6485
495 1499.66
500 2050.5
505 462.718
510 56.0813
515 8.99769
520 3.66496
525 2.81035
530 2.93049
535 2.80943
540 2.65609
545 2.46759
550 2.01646
555 2.05334
560 2.01827
565 1.94135
570 1.76324
575 1.49761
580 1.61391
585 1.91501
590 1.40738
595 1.02723
600 1.24193
Ex : 508
200 0.320532
205 0.435408
210 0.338596
215 0.306314
220 0.327828
225 0.27566
230 0.283795
235 0.359751
240 0.438866
245 0.395305
250 0.418018
255 0.34076
260 0.407709
265 0.355541
270 0.40169
275 0.362079
280 0.396081
285 0.318403
290 0.287708
295 0.36504
300 0.288116
305 0.29423
310 0.410054
315 0.372972
320 0.297321
325 0.414587
330 0.407579
335 0.335527
340 0.438201
345 0.437039
350 0.359604
355 0.459162
360 0.499249
365 0.474316
370 0.377548
375 0.352362
380 0.419232
385 0.476821
390 0.451291
395 0.449213
400 0.440321
405 0.39985
410 0.559641
415 0.475178
420 0.523008
425 0.57719
430 0.542877
435 0.583172
440 0.561521
445 0.585922
450 0.643344
455 0.739628
460 0.710549
465 0.851679
470 1.01041
475 1.12308
480 1.48148
485 1.98226
490 3.01795
495 100.365
500 1491.79
505 2036.3
510 483.199
515 58.5927
520 9.68969
525 3.89493
530 2.80005
535 2.72162
540 2.61969
545 2.52567
550 2.30597
555 2.121
560 2.01408
565 1.90629
570 1.81614
575 1.32347
580 1.33502
585 1.36222
590 1.51694
595 1.3151
600 1.28033
Ex : 513
200 0.361537
205 0.374448
210 0.3699
215 0.319648
220 0.471631
225 0.398036
230 0.408178
235 0.431107
240 0.349434
245 0.346119
250 0.398194
255 0.315416
260 0.398208
265 0.255492
270 0.369757
275 0.424683
280 0.374535
285 0.403072
290 0.419772
295 0.347976
300 0.408939
305 0.426903
310 0.427876
315 0.384486
320 0.335162
325 0.393951
330 0.409597
335 0.374219
340 0.393282
345 0.395665
350 0.450389
355 0.447565
360 0.485949
365 0.484208
370 0.434226
375 0.431672
380 0.443062
385 0.393812
390 0.460263
395 0.426821
400 0.459188
405 0.472165
410 0.517508
415 0.477536
420 0.450872
425 0.556792
430 0.511749
435 0.571058
440 0.547011
445 0.640216
450 0.639466
455 0.670566
460 0.737049
465 0.811349
470 0.860457
475 0.886059
480 1.07176
485 1.34339
490 1.91575
495 2.82452
500 91.7187
505 1455.6
510 2046.47
515 489.245
520 59.6597
525 9.74192
530 3.82649
535 2.73661
540 2.54392
545 2.43009
550 2.40569
555 2.29535
560 2.10202
565 1.94653
570 1.68172
575 1.52517
580 1.2746
585 1.17702
590 1.10989
595 1.2329
600 1.7113
Ex : 518
200 0.357433
205 0.436945
210 0.27169
215 0.369999
220 0.478826
225 0.428041
230 0.317902
235 0.415234
240 0.35407
245 0.354879
250 0.371258
255 0.389307
260 0.323392
265 0.30171
270 0.34754
275 0.386454
280 0.434406
285 0.285828
290 0.373025
295 0.400108
300 0.341923
305 0.368976
310 0.30341
315 0.392737
320 0.349552
325 0.300781
330 0.418685
335 0.428076
340 0.487899
345 0.481199
350 0.358735
355 0.30343
360 0.376871
365 0.464142
370 0.433346
375 0.387322
380 0.490632
385 0.415285
390 0.367821
395 0.540083
400 0.447458
405 0.481156
410 0.529237
415 0.558515
420 0.532808
425 0.516876
430 0.623679
435 0.542275
440 0.507445
445 0.553179
450 0.577131
455 0.598236
460 0.58916
465 0.772945
470 0.890181
475 0.840629
480 0.98728
485 1.07719
490 1.33328
495 1.8797
500 2.81409
505 90.4335
510 1400.04
515 2028.32
520 488.783
525 59.2548
530 9.53976
535 3.58129
540 2.47756
545 2.29395
550 2.1951
555 2.11803
560 2.13539
565 1.69659
570 1.6343
575 1.40976
580 1.29133
585 1.18578
590 1.11664
595 0.798894
600 1.57863
Ex : 523
200 0.480931
205 0.406794
210 0.356303
215 0.303963
220 0.300701
225 0.402486
230 0.427827
235 0.423833
240 0.38999
245 0.338949
250 0.430128
255 0.294096
260 0.417272
265 0.379668
270 0.481935
275 0.279027
280 0.419687
285 0.378009
290 0.346473
295 0.346423
300 0.394951
305 0.439673
310 0.441113
315 0.415581
320 0.387141
325 0.341801
330 0.357029
335 0.502179
340 0.432973
345 0.332751
350 0.499388
355 0.476429
360 0.43392
365 0.342619
370 0.439975
375 0.602949
380 0.494955
385 0.384799
390 0.467179
395 0.490966
400 0.54108
405 0.442057
410 0.378021
415 0.46967
420 0.596177
425 0.681184
430 0.498268
435 0.432299
440 0.49636
445 0.609564
450 0.582804
455 0.608946
460 0.542301
465 0.712058
470 0.667545
475 0.768839
480 0.887779
485 1.00562
490 1.07231
495 1.40723
500 1.81266
505 3.00978
510 81.672
515 1344.12
520 1977.12
525 495.846
530 59.796
535 9.41697
540 3.38232
545 2.50017
550 2.12129
555 1.99098
560 1.85901
565 1.77236
570 1.7372
575 1.39343
580 1.16792
585 1.0621
590 0.90168
595 0.906627
600 0.438491
Ex : 528
200 0.340852
205 0.374695
210 0.300243
215 0.365596
220 0.494769
225 0.446949
230 0.418942
235 0.406762
240 0.534585
245 0.370388
250 0.34151
255 0.522651
260 0.389327
265 0.353595
270 0.369554
275 0.305399
280 0.42725
285 0.440264
290 0.357175
295 0.441709
300 0.34156
305 0.439112
310 0.415196
315 0.501045
320 0.385977
325 0.43334
330 0.376382
335 0.360726
340 0.457181
345 0.514877
350 0.504334
355 0.483161
360 0.436722
365 0.352026
370 0.406878
375 0.447487
380 0.460885
385 0.493482
390 0.444705
395 0.380959
400 0.495904
405 0.553281
410 0.504251
415 0.556855
420 0.582477
425 0.459617
430 0.522006
435 0.620218
440 0.497134
445 0.513554
450 0.512642
455 0.658421
460 0.695245
465 0.708046
470 0.587195
475 0.573273
480 0.717023
485 0.951709
490 0.966173
495 1.1707
500 1.46
505 1.73561
510 2.85258
515 76.4668
520 1309.71
525 1949.09
530 478.277
535 57.9396
540 8.99353
545 3.19616
550 2.40894
555 1.77527
560 1.63328
565 1.62364
570 1.59063
575 1.35988
580 1.26491
585 1.13963
590 0.930553
595 0.814551
600 0.457887
Ex : 533
200 0.331661
205 0.407216
210 0.512063
215 0.310634
220 0.390294
225 0.360534
230 0.329408
235 0.341574
240 0.41399
245 0.400644
250 0.389437
255 0.31963
260 0.399138
265 0.412336
270 0.323808
275 0.372982
280 0.356685
285 0.416093
290 0.338124
295 0.337237
300 0.470223
305 0.324213
310 0.333386
315 0.376516
320 0.462761
325 0.432966
330 0.479959
335 0.46302
340 0.480147
345 0.349351
350 0.409602
355 0.441276
360 0.516178
365 0.433271
370 0.48029
375 0.437032
380 0.470819
385 0.385326
390 0.487801
395 0.530759
400 0.53057
405 0.455777
410 0.546202
415 0.475232
420 0.536747
425 0.481787
430 0.508146
435 0.550106
440 0.507759
445 0.597739
450 0.637273
455 0.549997
460 0.64042
465 0.643599
470 0.706294
475 0.695263
480 0.719524
485 0.730164
490 0.892734
495 0.985119
500 1.1007
505 1.39672
510 1.69082
515 2.71782
520 74.1967
525 1252.2
530 1897.64
535 479.41
540 57.9244
545 8.82571
550 3.0375
555 2.04774
560 1.80472
565 1.55703
570 1.45345
575 1.43283
580 1.27358
585 1.14339
590 1.0033
595 0.837728
600 0.579177
Ex : 538
200 0.42839
205 0.353028
210 0.480777
215 0.416134
220 0.478491
225 0.501069
230 0.427446
235 0.438261
240 0.457118
245 0.4476
250 0.419126
255 0.399238
260 0.325048
265 0.38599
270 0.437667
275 0.351268
280 0.378845
285 0.363855
290 0.406809
295 0.346496
300 0.383497
305 0.378703
310 0.426366
315 0.330191
320 0.426759
325 0.405111
330 0.378427
335 0.473655
340 0.441544
345 0.464119
350 0.452515
355 0.509589
360 0.437433
365 0.367842
370 0.519938
375 0.467325
380 0.60966
385 0.555546
390 0.493187
395 0.549313
400 0.525821
405 0.479913
410 0.555532
415 0.468544
420 0.515221
425 0.510166
430 0.623883
435 0.486933
440 0.560055
445 0.598737
450 0.554542
455 0.57989
460 0.689605
465 0.519573
470 0.658085
475 0.677929
480 0.627147
485 0.736679
490 0.816815
495 0.748916
500 0.832056
505 1.11213
510 1.22661
515 1.76576
520 2.73055
525 63.4597
530 1173.98
535 1866.12
540 490.055
545 59.4266
550 8.76371
555 2.86932
560 1.96062
565 1.54712
570 1.4444
575 1.2505
580 1.374
585 1.04004
590 0.938861
595 0.830178
600 1.26384
Ex : 543
200 0.399798
205 0.392361
210 0.32094
215 0.369953
220 0.394252
225 0.342641
230 0.431156
235 0.425362
240 0.396496
245 0.402953
250 0.40918
255 0.330401
260 0.418137
265 0.407684
270 0.498112
275 0.508211
280 0.479287
285 0.459666
290 0.409137
295 0.37317
300 0.444338
305 0.404142
310 0.384741
315 0.458532
320 0.405603
325 0.358683
330 0.307678
335 0.409176
340 0.432161
345 0.538283
350 0.438245
355 0.411571
360 0.429388
365 0.648674
370 0.563574
375 0.509884
380 0.389478
385 0.497488
390 0.477295
395 0.467714
400 0.557611
405 0.425599
410 0.570806
415 0.57049
420 0.453834
425 0.495387
430 0.670648
435 0.475975
440 0.573569
445 0.509533
450 0.69877
455 0.687487
460 0.623738
465 0.602366
470 0.715348
475 0.67995
480 0.744887
485 0.659288
490 0.751511
495 0.774917
500 0.796735
505 0.872512
510 1.10186
515 1.23706
520 1.57492
525 2.33742
530 58.1783
535 1111.1
540 1843.31
545 497.128
550 59.7702
555 8.87339
560 2.74336
565 1.74967
570 1.47955
575 1.20594
580 1.28587
585 1.11327
590 0.95755
595 0.95656
600 0.892387
Ex : 548
200 0.574776
205 0.386877
210 0.360696
215 0.424071
220 0.374052
225 0.379459
230 0.434347
235 0.366649
240 0.432092
245 0.433968
250 0.384066
255 0.399252
260 0.410481
265 0.462429
270 0.500028
275 0.494953
280 0.511351
285 0.448835
290 0.502783
295 0.43306
300 0.348934
305 0.390383
310 0.380813
315 0.330421
320 0.395912
325 0.378924
330 0.457254
335 0.445636
340 0.575506
345 0.491672
350 0.396613
355 0.455346
360 0.391039
365 0.439874
370 0.429497
375 0.494634
380 0.569535
385 0.584246
390 0.454514
395 0.58541
400 0.576521
405 0.50239
410 0.407579
415 0.609608
420 0.506919
425 0.731147
430 0.559325
435 0.559542
440 0.580703
445 0.614792
450 0.513994
455 0.591036
460 0.621433
465 0.718935
470 0.68796
475 0.726862
480 0.725395
485 0.891112
490 0.684685
495 0.734612
500 0.734909
505 0.736369
510 0.943024
515 1.06036
520 1.39108
525 1.57323
530 2.3748
535 61.7716
540 1104.48
545 1764.45
550 475.953
555 57.3767
560 8.2562
565 2.41914
570 1.6519
575 1.27598
580 1.08579
585 0.985345
590 0.921478
595 0.798637
600 1.21231
Ex : 553
200 0.354824
205 0.417182
210 0.365521
215 0.340558
220 0.407231
225 0.325003
230 0.500362
235 0.504503
240 0.372108
245 0.420151
250 0.381702
255 0.39715
260 0.514829
265 0.391014
270 0.39703
275 0.503434
280 0.404546
285 0.592361
290 0.429642
295 0.454658
300 0.450475
305 0.448602
310 0.428428
315 0.46538
320 0.466265
325 0.440602
330 0.471051
335 0.446191
340 0.479574
345 0.486107
350 0.523078
355 0.57907
360 0.491982
365 0.467149
370 0.570524
375 0.46314
380 0.506161
385 0.517472
390 0.428434
395 0.563094
400 0.493164
405 0.569582
410 0.575382
415 0.627896
420 0.497406
425 0.597258
430 0.452966
435 0.464011
440 0.613043
445 0.594935
450 0.491806
455 0.579027
460 0.733387
465 0.569721
470 0.556575
475 0.654868
480 0.744475
485 0.570033
490 0.609834
495 0.663612
500 0.806553
505 0.8119
510 0.762917
515 0.902837
520 0.966087
525 1.29528
530 1.6873
535 2.32556
540 53.2926
545 1038.88
550 1735.68
555 478.307
560 57.7553
565 8.37054
570 2.29345
575 1.44168
580 1.11855
585 1.03191
590 0.871748
595 0.933966
600 0.929997
Ex : 558
200 0.404235
205 0.300192
210 0.35401
215 0.482048
220 0.595662
225 0.62862
230 0.492578
235 0.365589
240 0.445489
245 0.489689
250 0.468236
255 0.421932
260 0.489072
265 0.529579
270 0.509244
275 0.375739
280 0.437869
285 0.36947
290 0.462966
295 0.412401
300 0.410759
305 0.51324
310 0.506303
315 0.500717
320 0.390209
325 0.474818
330 0.344584
335 0.559544
340 0.529501
345 0.380553
350 0.445583
355 0.481839
360 0.580366
365 0.434824
370 0.442317
375 0.618805
380 0.611868
385 0.515484
390 0.612149
395 0.599743
400 0.500588
405 0.612438
410 0.687821
415 0.555794
420 0.584328
425 0.637691
430 0.529476
435 0.59767
440 0.647871
445 0.492689
450 0.59882
455 0.648638
460 0.513013
465 0.785459
470 0.637392
475 0.579786
480 0.573288
485 0.799793
490 0.717463
495 0.697575
500 0.623991
505 0.797945
510 0.844467
515 0.828246
520 1.14014
525 1.03887
530 1.29072
535 1.49474
540 2.39232
545 48.6292
550 973.305
555 1694.85
560 468.68
565 56.525
570 8.2987
575 2.34957
580 1.32227
585 1.16659
590 0.940892
595 0.781371
600 1.77329
Ex : 563
200 0.507024
205 0.464813
210 0.380318
215 0.495555
220 0.572737
225 0.363786
230 0.417993
235 0.434124
240 0.44296
245 0.431403
250 0.458592
255 0.438506
260 0.43094
265 0.320461
270 0.501768
275 0.445918
280 0.415462
285 0.486221
290 0.475758
295 0.480391
300 0.461525
305 0.470582
310 0.401894
315 0.447509
320 0.501934
325 0.524792
330 0.521434
335 0.497615
340 0.449525
345 0.512703
350 0.506419
355 0.563759
360 0.537253
365 0.541731
370 0.57849
375 0.539213
380 0.597933
385 0.62645
390 0.542946
395 0.45403
400 0.521023
405 0.511702
410 0.583904
415 0.559448
420 0.439801
425 0.583318
430 0.569044
435 0.523635
440 0.61138
445 0.60719
450 0.505464
455 0.664101
460 0.684306
465 0.893542
470 0.605883
475 0.750721
480 0.660494
485 0.762529
490 0.63134
495 0.699797
500 0.641892
505 0.713863
510 0.813024
515 0.813469
520 0.770092
525 0.823993
530 1.01749
535 1.06892
540 1.48663
545 2.19468
550 47.8943
555 931.954
560 1593.33
565 451.855
570 54.433
575 7.75774
580 1.85976
585 1.31522
590 1.10259
595 0.748799
600 0.935728
Ex : 568
200 0.346206
205 0.439686
210 0.40267
215 0.422927
220 0.473856
225 0.477779
230 0.477633
235 0.587402
240 0.476915
245 0.416782
250 0.384814
255 0.497426
260 0.521802
265 0.561971
270 0.492239
275 0.511076
280 0.436677
285 0.458825
290 0.499387
295 0.508551
300 0.398073
305 0.368531
310 0.434326
315 0.501247
320 0.44247
325 0.598868
330 0.457804
335 0.730234
340 0.547787
345 0.529558
350 0.390289
355 0.561416
360 0.482978
365 0.608613
370 0.549641
375 0.475285
380 0.486616
385 0.54664
390 0.534084
395 0.66087
400 0.569275
405 0.579799
410 0.529266
415 0.610354
420 0.607331
425 0.623985
430 0.609826
435 0.621317
440 0.636729
445 0.638132
450 0.535122
455 0.585075
460 0.716753
465 0.555461
470 0.602808
475 0.609186
480 0.690671
485 0.606441
490 0.654796
495 0.629102
500 0.682837
505 0.795596
510 0.620932
515 0.739334
520 0.929129
525 0.883491
530 0.933285
535 0.93787
540 1.13902
545 1.56142
550 2.08894
555 35.8005
560 835.095
565 1525.47
570 450.096
575 54.4109
580 7.42003
585 1.90228
590 1.16979
595 1.12461
600 0.589801
Ex : 573
200 0.474826
205 0.488955
210 0.547839
215 0.451052
220 0.56204
225 0.557446
230 0.550754
235 0.474412
240 0.571853
245 0.56897
250 0.557168
255 0.466153
260 0.649777
265 0.411529
270 0.45494
275 0.404143
280 0.404857
285 0.45179
290 0.375151
295 0.445059
300 0.507856
305 0.565098
310 0.481234
315 0.397389
320 0.503093
325 0.535291
330 0.533546
335 0.612441
340 0.586245
345 0.565464
350 0.39551
355 0.680769
360 0.484129
365 0.601178
370 0.531183
375 0.575851
380 0.578431
385 0.456219
390 0.613374
395 0.465235
400 0.477028
405 0.418146
410 0.529175
415 0.690989
420 0.606392
425 0.68876
430 0.624371
435 0.560098
440 0.536771
445 0.561277
450 0.601095
455 0.73751
460 0.519733
465 0.640729
470 0.625339
475 0.640466
480 0.635266
485 0.683739
490 0.592452
495 0.720436
500 0.642816
505 0.692096
510 0.595336
515 0.675004
520 0.653811
525 0.717937
530 0.894492
535 0.722519
540 0.988352
545 1.17983
550 1.56713
555 2.10019
560 30.5302
565 721.889
570 1404.33
575 423.972
580 50.9175
585 7.05647
590 1.97121
595 1.04699
600 0.941129
Ex : 578
200 0.540029
205 0.482035
210 0.473071
215 0.57485
220 0.453428
225 0.501571
230 0.513313
235 0.523522
240 0.47238
245 0.387219
250 0.434084
255 0.464495
260 0.436719
265 0.456145
270 0.397525
275 0.447165
280 0.446666
285 0.415576
290 0.507219
295 0.435952
300 0.462189
305 0.521696
310 0.442785
315 0.445375
320 0.428934
325 0.511706
330 0.533126
335 0.524034
340 0.550446
345 0.506061
350 0.528754
355 0.582717
360 0.637787
365 0.498825
370 0.603666
375 0.605647
380 0.598372
385 0.536104
390 0.63032
395 0.611631
400 0.735214
405 0.563631
410 0.574757
415 0.663493
420 0.726164
425 0.652038
430 0.681734
435 0.63817
440 0.659861
445 0.523915
450 0.79399
455 0.660423
460 0.617315
465 0.479302
470 0.524613
475 0.500061
480 0.521359
485 0.537227
490 0.604405
495 0.644908
500 0.522259
505 0.695499
510 0.525045
515 0.666603
520 0.717436
525 0.643707
530 0.731142
535 0.803431
540 0.85381
545 0.964134
550 1.35854
555 1.44097
560 1.72801
565 26.7688
570 636.653
575 1221
580 364.371
585 43.7779
590 6.05707
595 1.41802
600 1.30549
Ex : 583
200 0.464812
205 0.520025
210 0.463737
215 0.461203
220 0.486364
225 0.573664
230 0.459943
235 0.370317
240 0.376199
245 0.600312
250 0.486665
255 0.378088
260 0.59954
265 0.527335
270 0.429979
275 0.396934
280 0.453162
285 0.383607
290 0.531428
295 0.502254
300 0.500092
305 0.448855
310 0.545206
315 0.397036
320 0.549935
325 0.51863
330 0.504691
335 0.672376
340 0.648868
345 0.505787
350 0.650283
355 0.619673
360 0.589157
365 0.577583
370 0.60415
375 0.465283
380 0.603943
385 0.579535
390 0.596979
395 0.577058
400 0.510905
405 0.635484
410 0.552515
415 0.597473
420 0.60944
425 0.545877
430 0.542042
435 0.65971
440 0.530905
445 0.521873
450 0.577677
455 0.593538
460 0.57152
465 0.546086
470 0.680897
475 0.551284
480 0.594654
485 0.591568
490 0.754085
495 0.616248
500 0.645234
505 0.898312
510 0.705709
515 0.609652
520 0.757929
525 0.552351
530 0.749237
535 0.734627
540 0.823775
545 0.891112
550 0.896263
555 1.23056
560 1.41557
565 1.76023
570 22.1579
575 562.352
580 1044.99
585 295.192
590 35.9
595 5.04017
600 1.07896
Ex : 588
200 0.43235
205 0.407609
210 0.410711
215 0.517197
220 0.473667
225 0.44259
230 0.544859
235 0.510722
240 0.475375
245 0.425258
250 0.435372
255 0.437777
260 0.510609
265 0.4633
270 0.58963
275 0.632695
280 0.521828
285 0.391326
290 0.447413
295 0.488158
300 0.416728
305 0.330831
310 0.497148
315 0.510483
320 0.389782
325 0.561975
330 0.456712
335 0.426238
340 0.564705
345 0.573531
350 0.578349
355 0.5944
360 0.626256
365 0.518885
370 0.644511
375 0.556218
380 0.611543
385 0.680023
390 0.57321
395 0.612465
400 0.603772
405 0.521674
410 0.525138
415 0.599401
420 0.611755
425 0.544106
430 0.539712
435 0.538199
440 0.604041
445 0.471527
450 0.72968
455 0.609691
460 0.737008
465 0.681218
470 0.677655
475 0.549598
480 0.606783
485 0.562952
490 0.60753
495 0.637649
500 0.567758
505 0.819029
510 0.745044
515 0.629826
520 0.511208
525 0.690737
530 0.788289
535 0.685096
540 0.694671
545 0.856598
550 0.951074
555 1.07893
560 0.959493
565 1.24471
570 1.71188
575 19.2149
580 464.747
585 879.994
590 259.836
595 31.0768
600 4.55127
Ex : 593
200 0.574354
205 0.479536
210 0.618241
215 0.593744
220 0.47108
225 0.372192
230 0.374793
235 0.419003
240 0.355957
245 0.406188
250 0.486846
255 0.470088
260 0.591972
265 0.623917
270 0.53174
275 0.50557
280 0.480703
285 0.48627
290 0.531946
295 0.405729
300 0.450073
305 0.496725
310 0.495631
315 0.451436
320 0.604936
325 0.61641
330 0.646519
335 0.603123
340 0.703941
345 0.488387
350 0.635256
355 0.513161
360 0.550158
365 0.656489
370 0.466095
375 0.565714
380 0.712322
385 0.631929
390 0.517682
395 0.339681
400 0.522151
405 0.706947
410 0.623272
415 0.711749
420 0.662065
425 0.659555
430 0.49277
435 0.724153
440 0.626084
445 0.637905
450 0.640202
455 0.544651
460 0.577388
465 0.584124
470 0.548723
475 0.600432
480 0.626327
485 0.647735
490 0.637043
495 0.553514
500 0.658715
505 0.818617
510 0.67113
515 0.662773
520 0.661591
525 0.601531
530 0.692941
535 0.673649
540 0.804281
545 0.714464
550 0.894013
555 0.996847
560 0.973195
565 1.13073
570 1.07801
575 1.51015
580 16.4655
585 407.859
590 746.408
595 220.468
600 33.8909
Ex : 598
200 0.484525
205 0.634385
210 0.54817
215 0.488849
220 0.517472
225 0.58122
230 0.523717
235 0.422126
240 0.580582
245 0.513367
250 0.493675
255 0.590137
260 0.69249
265 0.510332
270 0.608516
275 0.748875
280 0.572239
285 0.454556
290 0.441582
295 0.442725
300 0.750743
305 0.465954
310 0.478424
315 0.552396
320 0.574914
325 0.479956
330 0.740457
335 0.702321
340 0.646778
345 0.444175
350 0.65025
355 0.662687
360 0.448107
365 0.645375
370 0.674667
375 0.577558
380 0.620066
385 0.600229
390 0.811123
395 0.65751
400 0.592925
405 0.735369
410 0.469751
415 0.651948
420 0.628254
425 0.619233
430 0.565759
435 0.607418
440 0.60676
445 0.673489
450 0.509871
455 0.69415
460 0.651409
465 0.875435
470 0.739399
475 0.798037
480 0.61857
485 0.727656
490 0.695615
495 0.683565
500 0.536194
505 0.643077
510 0.558945
515 0.532871
520 0.606716
525 0.783596
530 0.676073
535 0.77231
540 0.674078
545 0.61943
550 0.78256
555 0.710776
560 0.673555
565 0.87311
570 0.918899
575 1.02873
580 1.24606
585 17.4482
590 360.594
595 635.316
600 415.423
Ex : 603
200 0.494551
205 0.763535
210 0.507482
215 0.413748
220 0.568621
225 0.515239
230 0.43174
235 0.525332
240 0.449539
245 0.642927
250 0.525676
255 0.411868
260 0.644759
265 0.709419
270 0.723271
275 0.626836
280 0.607476
285 0.469129
290 0.562752
295 0.567564
300 0.440794
305 0.519121
310 0.484202
315 0.483319
320 0.577678
325 0.591134
330 0.649654
335 0.593562
340 0.665815
345 0.552358
350 0.516799
355 0.571958
360 0.781746
365 0.658467
370 0.748384
375 0.610357
380 0.615294
385 0.741651
390 0.581655
395 0.581479
400 0.622574
405 0.747948
410 0.695354
415 0.596162
420 0.698552
425 0.606999
430 0.663552
435 0.591743
440 0.634087
445 0.783891
450 0.61134
455 0.833064
460 0.723838
465 0.708723
470 0.479743
475 0.665202
480 0.712638
485 0.717753
490 0.860161
495 0.747179
500 0.797307
505 0.658925
510 0.6706
515 0.909328
520 0.604367
525 0.600302
530 0.647625
535 0.699713
540 0.688049
545 0.724373
550 0.736775
555 0.761379
560 0.786112
565 0.827601
570 0.987199
575 0.961993
580 1.19046
585 1.38578
590 14.761
595 305.653
600 599.667
