File format V 1.0
ven. 9. déc. 18:38:03 2016
Operator : 
Comments : 

=============================================
SpectroFluorometer parameters
Mode : 3D measurement
Data : Fluorescence
Phospho. : Ordinary
Spectrum : Fluorescence

Scan speed : 2400 nm/mn
Response : 100 ms
PM Voltage : 700 V
Shutter : On

Lambda Ex. Start : 203
Lambda Ex. End : 603
Lambda Ex. Step : 5
Ex. Slit : 5 nm

Lambda Em. Start : 200
Lambda Em. End : 600
Lambda Em. Step : 5
Em. Slit : 5 nm

Repetition : 1
Decal lambda em : 10
=============================================
DATA
Ex : 203
200 15.8219
205 17.217
210 18.1803
215 21.1222
220 14.8493
225 18.1557
230 20.462
235 17.1026
240 16.4386
245 16.7611
250 17.2923
255 19.269
260 16.2781
265 20.4692
270 17.2104
275 19.6545
280 22.2005
285 15.0606
290 12.88
295 14.5155
300 16.9142
305 16.3763
310 11.654
315 16.1576
320 14.3721
325 18.8064
330 13.0978
335 18.56
340 20.7113
345 18.9525
350 17.3207
355 21.8005
360 18.9744
365 26.9146
370 14.1344
375 20.7756
380 18.2564
385 18.4611
390 21.0877
395 19.1225
400 19.9354
405 20.0343
410 17.6966
415 25.2853
420 18.0209
425 24.4917
430 21.4393
435 21.6635
440 17.549
445 21.9366
450 16.9743
455 17.8413
460 18.7549
465 24.1121
470 19.318
475 19.0088
480 19.9141
485 25.9661
490 19.3723
495 20.4739
500 17.1891
505 21.2626
510 16.0374
515 18.6111
520 19.1306
525 17.3115
530 17.0518
535 18.0362
540 18.3897
545 18.8722
550 17.7156
555 15.8622
560 13.6826
565 18.8322
570 17.121
575 17.2945
580 17.1474
585 20.6988
590 19.4366
595 14.8734
600 33.5959
Ex : 208
200 14.7278
205 15.0599
210 22.1942
215 16.2845
220 24.1118
225 18.2081
230 15.6586
235 16.8178
240 21.4453
245 17.6396
250 14.8971
255 16.7554
260 18.7446
265 14.0695
270 17.4636
275 16.939
280 14.3344
285 14.3587
290 20.6249
295 20.5499
300 21.3647
305 15.2682
310 12.1646
315 14.2953
320 14.2907
325 16.3669
330 27.3907
335 20.841
340 16.6378
345 18.7426
350 24.0263
355 20.9695
360 19.7454
365 19.4892
370 19.7175
375 21.6686
380 22.426
385 28.2578
390 16.7964
395 21.4906
400 16.9723
405 17.7573
410 26.9921
415 23.8283
420 20.5483
425 20.514
430 16.3986
435 21.4421
440 21.5706
445 19.1651
450 21.0729
455 16.3241
460 21.7373
465 21.243
470 18.9384
475 16.2783
480 17.7928
485 19.0538
490 18.1254
495 21.0871
500 16.9042
505 19.0122
510 21.9717
515 19.4167
520 15.1946
525 14.3053
530 15.8558
535 17.6459
540 20.3583
545 16.496
550 16.4065
555 19.7237
560 20.358
565 21.2388
570 20.9397
575 20.1672
580 16.581
585 16.433
590 19.839
595 19.0149
600 2.16382
Ex : 213
200 14.4667
205 23.1127
210 19.4852
215 20.7719
220 12.9746
225 19.8244
230 17.7237
235 13.4811
240 11.0502
245 17.1169
250 14.3132
255 14.5842
260 17.6167
265 17.2683
270 15.5846
275 23.2045
280 15.2481
285 16.6179
290 11.0793
295 14.8621
300 15.8045
305 19.1062
310 15.6111
315 14.3532
320 17.2513
325 19.3677
330 22.0666
335 17.1718
340 17.2854
345 17.8752
350 20.4525
355 16.9115
360 20.7904
365 21.4165
370 19.9063
375 22.6537
380 25.191
385 18.4164
390 21.5638
395 21.8132
400 19.0265
405 20.1283
410 21.9081
415 18.8432
420 22.0431
425 17.7714
430 21.1989
435 20.6639
440 19.9522
445 21.987
450 23.4943
455 22.3483
460 16.7224
465 17.3678
470 20.8028
475 17.9391
480 19.2524
485 18.8057
490 18.0971
495 16.662
500 16.7099
505 13.4166
510 18.7664
515 22.3521
520 21.7958
525 16.2302
530 19.2902
535 22.4496
540 16.904
545 18.3212
550 20.0629
555 15.0265
560 17.1025
565 19.2508
570 12.701
575 16.203
580 22.8956
585 22.4044
590 19.5636
595 17.6658
600 2.0103
Ex : 218
200 19.1553
205 17.5353
210 16.4931
215 11.9867
220 12.3074
225 12.2218
230 21.7682
235 14.4435
240 13.87
245 19.7068
250 15.9243
255 17.6702
260 17.2579
265 16.4106
270 19.8173
275 14.8891
280 13.6811
285 13.0191
290 14.394
295 20.4366
300 18.1902
305 19.9253
310 19.5666
315 17.0957
320 15.1703
325 17.1335
330 21.2647
335 23.4094
340 20.5357
345 19.0785
350 21.3892
355 18.1575
360 18.2871
365 19.4647
370 18.9042
375 19.4667
380 18.8663
385 20.0023
390 19.9106
395 22.0502
400 20.3629
405 17.3665
410 16.9221
415 19.9224
420 18.645
425 18.6606
430 20.3885
435 27.5222
440 22.9437
445 18.1168
450 19.4772
455 18.37
460 22.3796
465 16.5933
470 15.3329
475 19.5608
480 20.9995
485 18.6769
490 21.2345
495 19.2377
500 21.6485
505 18.1417
510 15.7479
515 17.3745
520 18.5035
525 17.4564
530 18.9748
535 22.7282
540 18.6727
545 16.6773
550 15.2557
555 15.0068
560 22.0958
565 23.9815
570 16.2935
575 13.5772
580 16.9077
585 18.1432
590 25.3938
595 22.0435
600 3.09927
Ex : 223
200 14.0973
205 13.5624
210 18.8558
215 17.3983
220 15.4587
225 13.5557
230 15.7813
235 12.5063
240 17.0458
245 14.7382
250 15.7843
255 14.6665
260 17.3874
265 15.7758
270 15.9796
275 17.9733
280 15.4532
285 16.7663
290 16.5196
295 17.6779
300 16.0254
305 17.7808
310 18.2434
315 16.7337
320 16.9697
325 19.3718
330 14.163
335 14.7339
340 22.9152
345 16.5513
350 17.7045
355 21.6545
360 21.9806
365 18.2659
370 17.111
375 22.6502
380 20.5532
385 18.3008
390 16.8651
395 16.1777
400 23.7821
405 22.5125
410 17.9538
415 19.2856
420 15.3927
425 21.8987
430 16.9916
435 22.8604
440 22.913
445 19.5457
450 19.7554
455 22.809
460 21.9389
465 18.4425
470 18.378
475 17.5196
480 20.9694
485 20.8636
490 21.4722
495 19.8166
500 19.2187
505 23.3999
510 19.0549
515 14.9436
520 15.832
525 17.4372
530 18.1396
535 14.4817
540 12.2726
545 16.9526
550 21.431
555 16.3564
560 17.616
565 16.9427
570 17.5719
575 18.7267
580 15.8672
585 16.7147
590 15.9988
595 14.125
600 1.60737
Ex : 228
200 14.8307
205 14.8926
210 14.3937
215 16.2652
220 14.0096
225 12.7023
230 16.9563
235 14.1113
240 12.9925
245 11.4732
250 19.4948
255 17.9548
260 18.8811
265 14.9758
270 16.2849
275 14.351
280 14.6292
285 12.0552
290 13.3183
295 11.8183
300 14.2399
305 13.2207
310 18.507
315 16.3849
320 15.6208
325 16.0061
330 15.7933
335 15.7838
340 14.0338
345 14.8656
350 17.7919
355 17.2946
360 16.8253
365 13.6794
370 17.1642
375 17.4836
380 17.151
385 21.0937
390 16.9987
395 15.8638
400 17.809
405 19.848
410 17.0798
415 20.1921
420 18.0553
425 18.774
430 17.4897
435 21.9044
440 22.7682
445 15.6077
450 16.1203
455 19.6308
460 15.6025
465 18.5589
470 20.3707
475 19.7977
480 15.3411
485 15.5168
490 17.2863
495 24.8098
500 18.8104
505 17.7285
510 20.6384
515 18.4384
520 17.4991
525 22.7806
530 19.3421
535 16.0849
540 17.2325
545 18.6695
550 12.8721
555 11.6658
560 15.2274
565 16.6442
570 16.6373
575 22.2025
580 18.4931
585 18.5288
590 11.6918
595 15.1733
600 33.1869
Ex : 233
200 12.6717
205 13.2749
210 16.1892
215 10.4132
220 12.7056
225 9.80022
230 16.5915
235 13.0139
240 15.0097
245 14.4257
250 13.5024
255 13.1462
260 13.1458
265 15.1813
270 16.2906
275 15.1776
280 17.245
285 15.8866
290 9.97295
295 11.8917
300 14.9712
305 11.8632
310 13.316
315 11.4334
320 14.913
325 11.8049
330 17.625
335 18.7937
340 17.9675
345 11.911
350 16.8014
355 18.3575
360 14.5434
365 18.6073
370 17.1957
375 15.4647
380 16.1845
385 17.4848
390 15.124
395 16.42
400 18.098
405 17.6301
410 17.1539
415 19.4989
420 18.961
425 19.4617
430 16.5324
435 13.6058
440 15.5106
445 15.8094
450 13.0425
455 14.8175
460 13.4926
465 14.8515
470 13.5313
475 16.53
480 16.5727
485 19.2147
490 17.1811
495 14.2814
500 15.775
505 17.1145
510 13.2163
515 12.4744
520 14.2718
525 16.0055
530 16.2696
535 18.4731
540 18.5783
545 15.9282
550 14.3648
555 13.1775
560 13.9022
565 14.268
570 11.0273
575 10.9278
580 13.4469
585 10.8559
590 14.1661
595 10.6135
600 1.20778
Ex : 238
200 12.9136
205 12.8841
210 16.1568
215 13.4419
220 12.2759
225 11.1836
230 14.4668
235 11.6977
240 9.67166
245 9.50969
250 11.9848
255 9.21582
260 9.16555
265 10.0215
270 11.3839
275 10.5906
280 12.1413
285 11.3071
290 13.2253
295 13.5857
300 12.5406
305 11.4694
310 11.2769
315 11.9829
320 13.272
325 15.9614
330 14.6795
335 11.6384
340 11.8694
345 12.2085
350 11.2535
355 16.9913
360 12.9801
365 12.0796
370 14.2186
375 15.3628
380 12.2062
385 14.9133
390 15.9176
395 16.9774
400 16.6867
405 12.631
410 14.1433
415 12.9284
420 12.2037
425 16.0554
430 16.182
435 13.0667
440 11.8607
445 12.3531
450 12.7
455 15.3586
460 14.3752
465 14.7532
470 12.1643
475 18.1456
480 11.5345
485 16.8618
490 13.0249
495 11.2678
500 11.9674
505 14.7843
510 16.5449
515 12.1216
520 12.5908
525 11.3583
530 16.3815
535 10.9635
540 14.2529
545 14.4842
550 15.5193
555 11.4953
560 12.5789
565 10.6526
570 9.0838
575 10.6793
580 11.1513
585 11.3225
590 14.0169
595 12.0491
600 5.65446
Ex : 243
200 12.1176
205 9.59937
210 10.7206
215 8.37435
220 10.2987
225 11.209
230 8.19332
235 7.81666
240 11.2816
245 8.13525
250 7.58561
255 10.1614
260 11.0227
265 8.35082
270 10.0025
275 14.3828
280 12.4382
285 8.65902
290 9.63457
295 11.99
300 9.33687
305 8.05441
310 9.33063
315 10.126
320 9.2872
325 11.7747
330 12.6167
335 11.5056
340 13.0086
345 13.6522
350 11.8612
355 11.4643
360 13.4482
365 15.3127
370 15.2858
375 12.7868
380 14.7235
385 12.9654
390 13.281
395 14.6961
400 14.2565
405 12.1478
410 11.7446
415 15.605
420 16.0344
425 11.7384
430 13.1915
435 13.7545
440 13.5866
445 12.9479
450 12.6473
455 13.032
460 13.7858
465 11.0696
470 12.3527
475 11.5313
480 11.6629
485 12.8056
490 12.6837
495 14.9738
500 11.7872
505 12.3516
510 11.8689
515 15.7971
520 10.4348
525 10.1461
530 10.4667
535 9.92651
540 10.5142
545 11.4455
550 9.64557
555 10.4348
560 11.7362
565 9.30437
570 10.4572
575 9.91247
580 10.5866
585 11.7486
590 10.7783
595 8.24799
600 15.8268
Ex : 248
200 7.80583
205 9.02671
210 8.54043
215 7.73399
220 8.33088
225 7.80747
230 8.35708
235 9.29449
240 7.93846
245 9.5217
250 9.82343
255 10.0664
260 8.62268
265 7.03411
270 7.03352
275 8.15677
280 10.3459
285 9.25725
290 9.39144
295 7.65152
300 6.92038
305 8.76045
310 8.24078
315 11.9756
320 9.31769
325 10.5495
330 9.59007
335 10.0505
340 10.9694
345 9.55091
350 11.7357
355 11.4757
360 11.8001
365 11.9552
370 11.2641
375 10.0334
380 8.54284
385 11.9988
390 9.74743
395 10.0013
400 12.1708
405 9.7968
410 9.07117
415 7.79733
420 12.3884
425 11.6444
430 10.424
435 10.0596
440 11.7763
445 13.3289
450 11.1447
455 11.5993
460 11.1721
465 10.4799
470 10.7316
475 12.4924
480 9.73675
485 12.4351
490 11.203
495 13.258
500 8.10019
505 10.5639
510 11.5919
515 10.7425
520 10.4361
525 8.6514
530 10.393
535 12.1516
540 11.6156
545 9.01231
550 8.80382
555 9.87262
560 13.0285
565 7.07207
570 9.81589
575 10.0625
580 9.5232
585 8.18445
590 8.20698
595 8.83232
600 14.2981
Ex : 253
200 5.22597
205 5.58017
210 7.94842
215 6.52021
220 8.06068
225 8.06126
230 6.51466
235 6.49361
240 7.43625
245 7.71668
250 7.92822
255 9.41688
260 8.01845
265 7.39269
270 8.34492
275 6.31761
280 8.15563
285 6.4342
290 7.04249
295 7.56836
300 6.32428
305 5.31102
310 6.60711
315 7.47166
320 6.79076
325 8.08046
330 9.12796
335 9.59927
340 9.82942
345 10.7415
350 9.7163
355 9.97896
360 10.2033
365 8.49496
370 9.06783
375 10.4313
380 8.84559
385 8.08946
390 8.24339
395 9.03191
400 8.36538
405 8.17739
410 8.8904
415 8.19676
420 8.40996
425 9.02484
430 9.38793
435 9.16458
440 8.93369
445 9.68699
450 10.5682
455 9.95128
460 7.07262
465 8.11373
470 9.23348
475 8.7915
480 7.25183
485 10.7642
490 7.91485
495 9.76272
500 10.2942
505 7.38389
510 7.31619
515 8.39743
520 6.84171
525 10.5151
530 6.06381
535 7.77967
540 9.205
545 6.84991
550 8.02603
555 6.78472
560 7.60884
565 7.08839
570 7.03908
575 8.1543
580 7.80006
585 6.97486
590 6.14692
595 6.43264
600 59.3199
Ex : 258
200 5.62451
205 6.1259
210 4.57082
215 5.04155
220 5.26126
225 4.57591
230 6.73323
235 4.34437
240 5.52323
245 6.30659
250 5.84832
255 5.46038
260 6.53586
265 6.52628
270 4.74745
275 4.90087
280 4.31542
285 4.78208
290 6.33584
295 5.31007
300 5.02805
305 6.20716
310 5.37842
315 4.69139
320 5.9833
325 5.49782
330 7.71881
335 6.31808
340 7.70895
345 7.85544
350 7.73341
355 7.38067
360 6.49539
365 6.3043
370 7.78949
375 7.35296
380 7.97398
385 6.63993
390 6.10518
395 7.16421
400 5.69114
405 5.89709
410 7.24003
415 6.04325
420 7.3395
425 6.78469
430 7.07616
435 6.54176
440 7.3813
445 7.90343
450 6.81343
455 9.03204
460 5.97444
465 7.8984
470 8.42165
475 6.70394
480 6.18469
485 6.84659
490 6.32481
495 7.22791
500 6.59188
505 5.9909
510 6.41631
515 5.80266
520 5.2426
525 5.4813
530 4.97886
535 5.04951
540 6.57932
545 6.3705
550 5.81387
555 5.22437
560 5.78968
565 5.81897
570 4.95308
575 5.03643
580 5.13951
585 5.41387
590 6.7058
595 6.39513
600 0.816362
Ex : 263
200 3.84394
205 3.72416
210 4.78686
215 4.41589
220 3.73908
225 3.89715
230 4.07528
235 4.59656
240 4.46668
245 4.5141
250 3.91395
255 4.47545
260 3.08885
265 3.68748
270 4.35845
275 3.96379
280 4.19044
285 4.98656
290 3.79965
295 4.03482
300 4.69976
305 3.93351
310 4.10459
315 4.63211
320 5.32385
325 4.01037
330 5.02607
335 4.94511
340 6.48136
345 6.76977
350 4.78404
355 5.98746
360 6.78692
365 5.48028
370 5.91632
375 6.87941
380 5.45267
385 5.0874
390 5.45509
395 7.19024
400 6.25169
405 5.59843
410 5.69684
415 6.59385
420 5.46087
425 5.76965
430 6.09612
435 6.55167
440 7.11111
445 4.5956
450 4.62521
455 4.84212
460 6.70931
465 7.20432
470 4.61862
475 6.15695
480 5.17278
485 4.77342
490 5.57094
495 4.56588
500 4.86607
505 4.54441
510 4.59841
515 5.09746
520 5.82423
525 4.32141
530 4.18544
535 5.2059
540 5.17246
545 5.28331
550 4.35447
555 3.9589
560 4.20238
565 4.86281
570 4.22594
575 4.29573
580 4.1467
585 4.80302
590 4.04199
595 3.98024
600 6.65636
Ex : 268
200 3.29964
205 2.76876
210 3.78934
215 3.91242
220 2.83172
225 2.96901
230 2.85305
235 2.57921
240 3.39896
245 3.14177
250 3.97365
255 4.03859
260 3.79956
265 3.40408
270 3.91644
275 3.16903
280 3.37009
285 3.38263
290 3.47259
295 3.15473
300 2.80006
305 3.62117
310 3.14784
315 3.09458
320 3.35552
325 3.8085
330 3.44908
335 3.61937
340 4.15919
345 3.85689
350 4.49179
355 4.46539
360 3.35643
365 3.6901
370 4.59321
375 4.09513
380 4.02551
385 4.78447
390 5.34561
395 4.74253
400 4.13982
405 3.87015
410 4.02661
415 4.18462
420 4.73296
425 4.87366
430 3.54824
435 3.88711
440 3.80991
445 5.72726
450 4.56767
455 4.36459
460 3.66668
465 4.64156
470 4.65014
475 4.60507
480 3.35735
485 4.26265
490 3.58055
495 3.62048
500 3.06846
505 3.39537
510 3.95335
515 3.61853
520 3.54881
525 3.97339
530 4.33106
535 3.90555
540 3.32036
545 3.28327
550 2.80016
555 3.66452
560 3.45136
565 3.48
570 3.60136
575 2.62156
580 2.97515
585 3.12241
590 3.46802
595 3.3362
600 3.96877
Ex : 273
200 1.99037
205 2.96678
210 1.95919
215 2.11891
220 2.38926
225 2.06658
230 3.12463
235 2.9924
240 2.60252
245 2.7413
250 3.1722
255 1.90588
260 2.85589
265 2.67822
270 3.19867
275 2.65941
280 2.10492
285 2.61394
290 2.72895
295 2.65205
300 2.43733
305 2.91183
310 3.0141
315 2.87427
320 2.62661
325 3.76718
330 2.88445
335 2.98429
340 3.38192
345 3.5398
350 3.63526
355 4.55645
360 3.30396
365 3.23124
370 3.24426
375 4.29816
380 3.73367
385 3.40036
390 3.72027
395 4.20035
400 3.71129
405 3.58385
410 3.56561
415 3.2218
420 4.21837
425 4.06808
430 3.87094
435 3.69303
440 3.75427
445 2.82907
450 3.7521
455 3.05434
460 3.49317
465 3.7278
470 3.22506
475 2.93794
480 3.1805
485 2.95897
490 3.43416
495 3.03228
500 3.95615
505 3.07462
510 2.51423
515 2.39519
520 2.44398
525 2.71496
530 2.98666
535 2.93895
540 3.14384
545 3.33336
550 2.68122
555 3.17002
560 2.98961
565 3.19066
570 2.92665
575 2.47434
580 2.83156
585 3.02373
590 2.80961
595 2.1927
600 3.31715
Ex : 278
200 1.9223
205 2.33696
210 2.19916
215 1.91189
220 2.17289
225 1.64388
230 2.38451
235 2.92717
240 2.24725
245 2.33907
250 2.44211
255 2.37525
260 1.7753
265 2.0071
270 2.3989
275 1.91909
280 1.98449
285 2.69738
290 2.39357
295 2.2522
300 1.76369
305 2.16175
310 2.27201
315 2.93959
320 2.31733
325 2.34537
330 2.87886
335 2.63075
340 3.35772
345 3.22166
350 3.49206
355 3.11605
360 2.60522
365 3.13246
370 3.78672
375 3.06423
380 2.54657
385 2.92112
390 2.62218
395 3.71981
400 3.40625
405 3.17798
410 3.16807
415 3.02683
420 3.42608
425 3.01063
430 3.66319
435 2.99345
440 4.23285
445 3.17335
450 3.08816
455 2.82859
460 3.08283
465 2.66506
470 3.60736
475 2.77884
480 2.60192
485 2.73914
490 2.79335
495 2.7925
500 1.98285
505 2.39428
510 2.07149
515 2.87608
520 2.42972
525 2.14149
530 2.20931
535 2.36748
540 2.23429
545 2.45892
550 2.2641
555 3.83668
560 2.31572
565 2.35914
570 2.2868
575 1.96479
580 2.50558
585 1.67174
590 2.28605
595 2.17248
600 1.50506
Ex : 283
200 1.71186
205 1.57567
210 1.41824
215 1.57076
220 1.62008
225 1.30492
230 1.7284
235 1.60969
240 1.65842
245 1.73412
250 1.86934
255 1.95024
260 1.71667
265 1.37853
270 2.42364
275 1.8339
280 2.38376
285 1.83898
290 1.90861
295 1.58542
300 1.99857
305 1.56636
310 1.4545
315 1.58179
320 2.16654
325 1.99697
330 2.32976
335 2.4263
340 2.87871
345 2.64898
350 2.89878
355 2.5631
360 2.48098
365 2.91203
370 2.36976
375 2.98869
380 2.44664
385 3.35789
390 2.68823
395 3.16015
400 2.36865
405 2.84467
410 2.81283
415 2.41635
420 2.52099
425 2.64891
430 2.84757
435 2.88322
440 3.0908
445 2.60469
450 2.32765
455 2.79865
460 2.45795
465 2.85675
470 2.40502
475 2.23343
480 2.26698
485 2.17623
490 2.08614
495 2.02978
500 1.95458
505 2.08503
510 1.96723
515 1.70126
520 2.18505
525 1.94648
530 2.02727
535 1.98335
540 1.94484
545 1.8652
550 2.15064
555 2.54724
560 2.63406
565 2.80283
570 1.86661
575 1.45895
580 1.69269
585 2.43543
590 1.98687
595 1.42262
600 2.19776
Ex : 288
200 1.02915
205 1.99628
210 1.45771
215 1.49494
220 1.06457
225 1.19046
230 1.18985
235 1.27425
240 1.39162
245 1.54671
250 1.60121
255 1.31289
260 1.48506
265 1.75712
270 1.74071
275 1.87273
280 1.88166
285 1.58269
290 1.50285
295 1.31476
300 1.46668
305 1.33782
310 1.49923
315 1.08014
320 1.42512
325 1.93902
330 2.32313
335 1.94849
340 1.97032
345 1.96824
350 2.39216
355 1.89749
360 2.02619
365 2.8422
370 2.56924
375 2.79648
380 2.17518
385 2.56612
390 2.71509
395 2.26787
400 2.03096
405 2.13501
410 2.54445
415 2.47011
420 2.69726
425 2.18825
430 2.39312
435 2.7537
440 2.10773
445 2.351
450 2.06856
455 2.10242
460 2.04419
465 2.56092
470 2.11725
475 2.43795
480 1.77244
485 1.82705
490 1.6616
495 1.37846
500 1.0416
505 1.44759
510 1.78806
515 1.56607
520 1.37459
525 1.59149
530 1.50003
535 1.59869
540 1.81285
545 1.71378
550 1.64722
555 1.75351
560 2.17709
565 1.49982
570 2.381
575 1.82021
580 1.45182
585 2.04371
590 1.68596
595 1.34504
600 0.668295
Ex : 293
200 1.44721
205 1.33868
210 1.43278
215 1.31449
220 1.04709
225 1.11247
230 1.48204
235 1.36457
240 1.10712
245 1.09796
250 1.15711
255 1.61678
260 1.14474
265 1.42765
270 1.52081
275 1.31015
280 1.03487
285 1.51461
290 1.05354
295 1.21548
300 1.22948
305 1.68175
310 1.48756
315 1.62267
320 1.50999
325 1.75502
330 1.77849
335 1.85029
340 2.12607
345 2.42732
350 2.07199
355 2.0717
360 1.7863
365 2.22542
370 2.15093
375 1.87654
380 1.97333
385 2.39121
390 2.06615
395 2.22174
400 2.11703
405 2.40005
410 2.35645
415 2.35063
420 2.38467
425 2.28251
430 1.9251
435 1.95072
440 1.89236
445 1.9944
450 2.32398
455 2.07909
460 1.97355
465 2.17297
470 1.91361
475 2.26157
480 1.673
485 1.86246
490 1.89293
495 2.02524
500 2.13296
505 1.79744
510 1.69368
515 1.57405
520 1.51657
525 1.48102
530 1.53954
535 1.41369
540 1.52019
545 1.55527
550 1.69329
555 1.48686
560 2.17896
565 1.33212
570 1.32623
575 1.77626
580 1.95661
585 1.7626
590 1.26838
595 1.58746
600 0.232777
Ex : 298
200 0.87439
205 1.24888
210 1.04312
215 0.813481
220 1.12538
225 1.02119
230 1.13461
235 0.964002
240 0.929871
245 1.22885
250 1.04576
255 1.2076
260 1.5525
265 1.03439
270 0.905608
275 1.05577
280 0.905674
285 1.0663
290 0.94885
295 1.40925
300 1.18967
305 0.937166
310 1.08709
315 1.23446
320 1.4942
325 1.73796
330 1.70771
335 1.99753
340 2.48617
345 2.17818
350 2.12581
355 1.89049
360 1.52607
365 1.89995
370 1.86712
375 1.71639
380 1.67318
385 2.02157
390 1.83022
395 1.97668
400 1.78859
405 1.67234
410 2.17049
415 1.70632
420 1.88056
425 1.99689
430 1.6431
435 1.60686
440 1.69126
445 2.03711
450 2.08432
455 2.01868
460 2.12063
465 1.64059
470 1.76419
475 1.74007
480 1.6661
485 1.56571
490 1.63449
495 1.42077
500 1.5213
505 1.53349
510 1.502
515 1.13028
520 1.25536
525 1.34337
530 1.16505
535 1.27561
540 1.3857
545 1.39815
550 1.21976
555 1.32341
560 1.10579
565 1.28477
570 0.961379
575 1.15124
580 1.33592
585 1.43979
590 1.5638
595 1.47828
600 0.880091
Ex : 303
200 1.22718
205 1.01439
210 0.873275
215 0.796268
220 0.803394
225 0.981111
230 1.03449
235 1.22556
240 0.903858
245 1.28021
250 0.902556
255 0.924749
260 1.09543
265 0.851725
270 1.01533
275 0.792926
280 0.928763
285 1.01809
290 1.20756
295 1.1404
300 1.26255
305 1.13421
310 0.908065
315 0.797764
320 1.27716
325 1.53985
330 1.70597
335 1.57474
340 1.91345
345 1.57568
350 1.31648
355 1.77029
360 1.60112
365 1.74581
370 2.26107
375 2.07343
380 2.02551
385 1.73264
390 1.8592
395 1.87752
400 1.96715
405 1.85938
410 1.79783
415 1.95931
420 1.82646
425 2.09599
430 1.79033
435 1.28952
440 1.81042
445 1.81977
450 1.75469
455 1.42736
460 1.53874
465 1.64968
470 1.53371
475 1.77002
480 1.28015
485 1.51062
490 1.29207
495 1.25741
500 1.07653
505 1.10273
510 1.04238
515 1.14546
520 1.28359
525 1.18136
530 1.12836
535 1.17083
540 1.18747
545 1.23138
550 1.02255
555 1.16258
560 1.32643
565 0.98932
570 1.18075
575 0.94422
580 1.14337
585 0.904316
590 1.02052
595 1.11137
600 1.49487
Ex : 308
200 0.895136
205 0.705481
210 0.76041
215 0.819818
220 0.848818
225 0.866873
230 1.02662
235 0.918351
240 0.927548
245 0.78677
250 0.738944
255 0.843972
260 0.783824
265 0.728159
270 0.774157
275 0.689388
280 0.959874
285 0.818919
290 0.682325
295 0.939061
300 1.00728
305 1.14797
310 0.98657
315 1.05139
320 1.09119
325 1.56598
330 1.87339
335 2.16322
340 1.99959
345 1.76928
350 1.74164
355 1.5849
360 1.73787
365 1.84245
370 1.31475
375 1.52803
380 1.7321
385 1.89587
390 1.92617
395 1.72904
400 2.01339
405 1.9401
410 1.60808
415 1.67893
420 1.78482
425 1.6666
430 1.531
435 1.81217
440 1.6741
445 1.34059
450 1.18492
455 1.52573
460 1.27171
465 1.32334
470 1.39015
475 1.44187
480 1.55441
485 1.08468
490 1.23678
495 1.14072
500 1.04334
505 1.16347
510 0.935344
515 1.0456
520 1.31263
525 1.04203
530 0.919808
535 1.07096
540 0.987725
545 1.07919
550 1.08335
555 0.875913
560 0.980018
565 1.03734
570 0.962326
575 0.897617
580 0.92194
585 0.660196
590 0.746789
595 0.905798
600 0.823855
Ex : 313
200 0.595856
205 0.734489
210 0.660995
215 0.861676
220 0.796569
225 0.695214
230 0.732611
235 0.803731
240 0.826224
245 0.854684
250 0.652184
255 0.763404
260 0.776911
265 0.710255
270 0.844904
275 0.878381
280 0.703449
285 0.840747
290 0.662235
295 0.780093
300 0.96459
305 1.22126
310 1.03968
315 0.7194
320 1.1462
325 1.5687
330 1.80268
335 1.81223
340 1.90767
345 1.80774
350 1.56321
355 1.63541
360 1.62435
365 1.80462
370 1.84164
375 1.88129
380 1.61175
385 1.82376
390 1.82564
395 1.78353
400 1.94074
405 1.61627
410 1.87175
415 1.86106
420 2.00264
425 1.74781
430 1.89137
435 1.76664
440 1.52812
445 1.68138
450 1.57263
455 1.57838
460 1.49026
465 1.33177
470 1.3218
475 1.37572
480 1.45594
485 1.18057
490 1.22201
495 1.27949
500 1.00976
505 0.926042
510 0.959802
515 0.971635
520 0.970008
525 0.898365
530 0.929987
535 0.871434
540 1.0865
545 0.731329
550 0.632541
555 0.602085
560 0.872052
565 0.867575
570 0.850057
575 0.859492
580 0.719182
585 0.772666
590 0.83853
595 0.755413
600 0.815778
Ex : 318
200 0.794689
205 0.636947
210 0.709842
215 0.582631
220 0.772064
225 0.636838
230 0.52145
235 0.646081
240 0.799122
245 0.744174
250 0.607758
255 0.969801
260 0.632674
265 0.74803
270 0.627679
275 0.895185
280 0.675609
285 0.600548
290 0.433496
295 0.551269
300 0.533971
305 0.577271
310 0.971618
315 3.46089
320 2.44896
325 2.2572
330 2.74195
335 2.78502
340 2.80217
345 2.82887
350 3.1424
355 3.15145
360 3.96236
365 4.31503
370 5.01944
375 5.45195
380 6.39316
385 6.8545
390 7.2177
395 7.68553
400 8.42311
405 8.7433
410 8.2184
415 8.71348
420 8.13544
425 7.27765
430 6.9606
435 7.02596
440 6.89326
445 6.71087
450 6.40008
455 6.45616
460 5.31821
465 5.55351
470 5.1623
475 4.44435
480 4.08416
485 3.44369
490 3.54853
495 2.83661
500 2.84458
505 2.33168
510 2.29784
515 1.9906
520 1.78986
525 1.94291
530 1.45721
535 1.30663
540 1.36655
545 1.17589
550 1.12651
555 1.13791
560 0.971417
565 0.990309
570 0.889116
575 0.810363
580 0.68817
585 0.673044
590 0.714887
595 0.786462
600 0.498514
Ex : 323
200 0.649967
205 0.485836
210 0.76604
215 0.570412
220 0.667931
225 0.620004
230 0.707254
235 0.604464
240 0.659917
245 0.556931
250 0.726785
255 0.840884
260 0.610068
265 0.641953
270 0.736664
275 0.623405
280 0.746977
285 0.478494
290 0.554849
295 0.634948
300 0.661412
305 0.776073
310 1.05784
315 25.8062
320 127.114
325 54.0177
330 10.4195
335 5.80711
340 6.39252
345 7.3265
350 9.65753
355 13.017
360 15.6348
365 16.7161
370 20.1079
375 23.847
380 26.8789
385 29.8985
390 31.4223
395 33.01
400 34.5963
405 35.1226
410 36.2977
415 35.4863
420 35.0757
425 33.2658
430 32.0736
435 30.782
440 29.6727
445 27.9954
450 25.5013
455 24.2881
460 23.3023
465 21.1041
470 20.4805
475 17.7775
480 15.5042
485 15.1838
490 13.8047
495 11.9619
500 11.1713
505 9.85096
510 8.07043
515 7.55909
520 6.48027
525 5.99878
530 5.16799
535 4.39074
540 3.91044
545 3.5962
550 2.92714
555 2.7173
560 2.30535
565 2.09213
570 1.86959
575 1.52913
580 1.41692
585 1.20159
590 1.02511
595 0.925493
600 1.41392
Ex : 328
200 0.573651
205 0.627744
210 0.607279
215 0.594692
220 0.567985
225 0.616875
230 0.654444
235 0.795495
240 0.584542
245 0.694516
250 0.543739
255 0.558788
260 0.638516
265 0.710546
270 0.773609
275 0.752687
280 0.747911
285 0.631469
290 0.78046
295 0.801103
300 0.796395
305 0.842683
310 0.718489
315 7.90008
320 322.094
325 795.666
330 232.429
335 33.7391
340 11.46
345 10.0778
350 11.6582
355 14.7527
360 20.121
365 22.0386
370 25.1501
375 27.8886
380 31.5103
385 34.477
390 38.3634
395 39.8466
400 41.2065
405 42.8859
410 42.5653
415 42.5559
420 41.2572
425 39.8323
430 38.0879
435 36.7871
440 36.3589
445 34.0896
450 31.4857
455 29.7766
460 26.9172
465 25.0212
470 23.9559
475 21.7846
480 19.8832
485 18.3362
490 16.3108
495 14.9257
500 13.1338
505 10.817
510 10.0748
515 9.02051
520 7.55651
525 6.82129
530 6.21014
535 5.47006
540 5.35051
545 4.19355
550 3.93741
555 3.48465
560 3.02935
565 2.87059
570 2.39453
575 2.32629
580 1.9272
585 1.42017
590 1.26333
595 1.32711
600 1.46531
Ex : 333
200 0.509937
205 0.727612
210 0.555573
215 0.587703
220 0.574531
225 0.571829
230 0.702482
235 0.568743
240 0.608185
245 0.690805
250 0.829239
255 0.574852
260 0.652063
265 0.759496
270 0.819339
275 0.877541
280 0.867035
285 0.636735
290 0.758262
295 0.792386
300 0.925367
305 1.05217
310 1.33005
315 1.43537
320 46.7049
325 979.616
330 1658.76
335 415.95
340 55.7491
345 13.8793
350 9.30036
355 9.29637
360 12.7296
365 17.117
370 17.6057
375 17.8021
380 19.3291
385 20.721
390 22.955
395 24.5095
400 25.0359
405 25.6605
410 25.5506
415 25.6799
420 26.0066
425 23.7126
430 23.5231
435 22.1505
440 20.6989
445 19.3318
450 18.7567
455 17.4241
460 16.5116
465 15.2536
470 14.1864
475 12.8811
480 12.0208
485 10.6278
490 10.2261
495 9.20938
500 8.5904
505 7.52908
510 6.75529
515 6.10427
520 5.43191
525 4.75549
530 4.46739
535 4.1303
540 3.81548
545 3.29442
550 3.01762
555 2.85419
560 2.41316
565 2.3096
570 2.16753
575 1.93089
580 1.7352
585 1.53203
590 1.33721
595 1.46206
600 0.289082
Ex : 338
200 0.616201
205 0.65537
210 0.642331
215 0.524113
220 0.72305
225 0.697507
230 0.658459
235 0.733779
240 0.798288
245 0.686482
250 0.801548
255 0.608767
260 0.750716
265 0.822834
270 0.67039
275 0.714692
280 0.796724
285 0.807625
290 0.858904
295 0.836546
300 1.0866
305 0.962692
310 1.1479
315 1.32908
320 2.08808
325 91.56
330 1478.46
335 2143.86
340 510.264
345 65.4972
350 14.0417
355 7.48473
360 6.41962
365 8.07183
370 12.8691
375 12.4301
380 11.208
385 11.3078
390 12.4403
395 13.6893
400 14.0069
405 13.8872
410 14.349
415 14.6939
420 14.5103
425 13.7212
430 12.7274
435 12.0895
440 12.4228
445 11.2843
450 10.9813
455 10.0226
460 9.42837
465 9.48915
470 8.89656
475 8.10292
480 7.47201
485 7.27935
490 6.61595
495 6.12599
500 5.32483
505 4.90867
510 4.21578
515 4.15764
520 3.95701
525 3.85375
530 3.2581
535 2.87377
540 2.76903
545 2.70184
550 2.26039
555 2.37673
560 2.00609
565 1.85261
570 1.77591
575 1.58227
580 1.52675
585 1.43585
590 1.53185
595 1.3
600 0.451777
Ex : 343
200 0.557415
205 0.520925
210 0.465035
215 0.531265
220 0.524625
225 0.570105
230 0.5225
235 0.614235
240 0.692583
245 0.866044
250 0.673588
255 0.765647
260 0.689187
265 0.709432
270 0.588656
275 0.754537
280 0.768597
285 0.844863
290 0.769933
295 0.871725
300 0.922083
305 0.878542
310 0.989768
315 1.10067
320 1.59607
325 2.84869
330 105.787
335 1664.8
340 2364.32
345 554.007
350 69.8535
355 13.6616
360 6.47511
365 5.16731
370 5.76783
375 9.84873
380 10.8106
385 9.88486
390 9.9257
395 9.8186
400 10.0169
405 10.0059
410 10.6375
415 11.2222
420 11.0967
425 10.4045
430 9.45471
435 9.66354
440 9.67431
445 9.2384
450 8.51005
455 8.05541
460 7.41954
465 7.03758
470 7.15152
475 6.64341
480 5.77081
485 5.654
490 5.33077
495 5.38612
500 5.20688
505 4.31997
510 3.79892
515 3.48328
520 3.586
525 3.27177
530 2.98263
535 2.91863
540 2.72449
545 2.40822
550 2.34387
555 2.02407
560 1.99264
565 1.81985
570 1.70746
575 1.41008
580 1.63751
585 1.23838
590 1.13349
595 1.34802
600 2.03514
Ex : 348
200 0.572817
205 0.604862
210 0.645924
215 0.570449
220 0.520658
225 0.528017
230 0.604966
235 0.594757
240 0.761276
245 0.54533
250 0.604211
255 0.571848
260 0.600797
265 0.613705
270 0.55986
275 0.652043
280 0.630665
285 0.629105
290 0.806196
295 0.72937
300 0.809185
305 0.852998
310 1.12073
315 0.97878
320 1.21764
325 1.84408
330 3.49098
335 104.058
340 1661
345 2450.1
350 611.486
355 75.9935
360 13.7487
365 5.99595
370 4.19843
375 4.40216
380 8.04434
385 12.2199
390 11.4662
395 10.6756
400 10.0927
405 9.95321
410 11.0003
415 11.7387
420 10.9998
425 10.5099
430 9.98175
435 9.43393
440 9.5871
445 9.6062
450 9.00504
455 8.18501
460 7.56639
465 7.25457
470 6.85669
475 6.9195
480 6.17485
485 5.82336
490 5.23652
495 4.66423
500 4.83384
505 4.48613
510 4.21264
515 3.49018
520 3.47313
525 3.16975
530 2.86451
535 2.6523
540 2.44342
545 2.40267
550 2.15126
555 2.09207
560 1.87031
565 1.67943
570 1.65101
575 1.58341
580 1.37598
585 1.1112
590 1.03797
595 1.04009
600 1.62543
Ex : 353
200 0.359029
205 0.467902
210 0.453714
215 0.495326
220 0.56555
225 0.39899
230 0.656401
235 0.584884
240 0.596479
245 0.526808
250 0.494621
255 0.521492
260 0.573373
265 0.675725
270 0.538901
275 0.641336
280 0.524879
285 0.6272
290 0.627383
295 0.67637
300 0.675168
305 0.63297
310 0.803216
315 0.840227
320 1.04326
325 1.31978
330 2.39578
335 3.63294
340 107.506
345 1699.03
350 2422.54
355 582.636
360 72.3016
365 13.1582
370 5.65869
375 4.18887
380 4.53623
385 8.74399
390 13.1822
395 12.8577
400 10.5697
405 9.73229
410 10.9891
415 12.1185
420 12.0348
425 10.9708
430 10.733
435 9.92327
440 10.1559
445 9.76219
450 9.16764
455 8.51306
460 8.24062
465 7.76082
470 7.21798
475 7.14553
480 6.39492
485 5.95238
490 5.6166
495 5.31672
500 4.77525
505 4.4415
510 3.85152
515 3.55167
520 3.32021
525 3.36722
530 3.02216
535 2.6806
540 2.50076
545 2.32531
550 1.94769
555 1.99193
560 1.816
565 1.9171
570 1.73703
575 1.47079
580 1.27713
585 1.1341
590 1.05203
595 1.08175
600 1.57901
Ex : 358
200 0.41607
205 0.333872
210 0.427042
215 0.423238
220 0.435678
225 0.591577
230 0.549608
235 0.550237
240 0.601398
245 0.555843
250 0.546177
255 0.567141
260 0.558602
265 0.531721
270 0.524211
275 0.475772
280 0.656035
285 0.476925
290 0.559813
295 0.642903
300 0.556484
305 0.662266
310 0.714173
315 0.788651
320 0.792574
325 1.03881
330 1.58323
335 2.122
340 3.79528
345 102.271
350 1608.62
355 2408.84
360 588.063
365 73.0487
370 12.9849
375 5.61446
380 4.56316
385 5.28371
390 8.77497
395 13.3867
400 12.206
405 10.9526
410 10.7951
415 10.9308
420 11.2417
425 10.1809
430 9.61668
435 9.83582
440 9.57486
445 9.37995
450 8.86994
455 8.27052
460 7.81063
465 7.51061
470 7.28046
475 6.90675
480 6.53726
485 5.81735
490 5.58069
495 5.20186
500 5.05221
505 4.63842
510 4.02394
515 3.56708
520 3.34391
525 3.1937
530 2.93648
535 2.70107
540 2.43274
545 2.39292
550 2.05368
555 1.98322
560 1.83471
565 1.71442
570 1.48792
575 1.31624
580 1.11273
585 1.09253
590 0.969226
595 0.918807
600 0.972201
Ex : 363
200 0.393194
205 0.443736
210 0.376054
215 0.485484
220 0.45514
225 0.53474
230 0.437946
235 0.479846
240 0.408032
245 0.489944
250 0.417832
255 0.426262
260 0.519666
265 0.47902
270 0.473844
275 0.507448
280 0.503215
285 0.429726
290 0.466643
295 0.532499
300 0.576857
305 0.637069
310 0.62573
315 0.706613
320 0.640476
325 0.870889
330 1.04197
335 1.62292
340 2.29359
345 3.6574
350 92.0856
355 1554.58
360 2373.67
365 602.796
370 74.4399
375 13.1136
380 6.401
385 6.81344
390 8.11847
395 9.31841
400 12.3368
405 13.4131
410 13.0609
415 12.5643
420 11.3957
425 10.6216
430 10.2651
435 10.4074
440 10.3626
445 10.1636
450 9.35026
455 8.58933
460 8.07679
465 8.07729
470 7.35453
475 6.66086
480 6.46631
485 5.93444
490 5.67337
495 5.44876
500 4.82854
505 4.57688
510 4.48766
515 3.72381
520 3.24643
525 3.13982
530 2.77533
535 2.73315
540 2.73773
545 2.27302
550 2.12786
555 2.14436
560 1.70757
565 1.6717
570 1.45451
575 1.22886
580 0.991177
585 0.988546
590 0.980977
595 0.886077
600 1.69515
Ex : 368
200 0.537307
205 0.387584
210 0.40378
215 0.417498
220 0.42894
225 0.385294
230 0.360942
235 0.420148
240 0.543551
245 0.336486
250 0.434657
255 0.416741
260 0.391671
265 0.428193
270 0.462856
275 0.411173
280 0.473722
285 0.466188
290 0.403888
295 0.453646
300 0.520864
305 0.503052
310 0.504717
315 0.553482
320 0.516528
325 0.718599
330 0.831092
335 1.18657
340 1.5444
345 2.09516
350 3.46283
355 75.5712
360 1489.59
365 2411.6
370 632.219
375 78.6105
380 14.2887
385 8.95261
390 10.0474
395 10.2583
400 9.90429
405 13.4162
410 16.7671
415 16.6371
420 15.1259
425 13.0744
430 11.9003
435 11.4292
440 11.8193
445 11.303
450 10.3809
455 9.4952
460 8.91214
465 8.95436
470 8.04235
475 7.69958
480 7.21837
485 6.30375
490 5.98694
495 5.45492
500 5.12511
505 4.61766
510 4.23276
515 3.982
520 3.4585
525 3.06886
530 3.1731
535 2.7083
540 2.36645
545 2.21178
550 2.00351
555 1.8075
560 1.72569
565 1.54107
570 1.53579
575 1.3017
580 1.13113
585 0.9717
590 0.813918
595 0.965074
600 0.708718
Ex : 373
200 0.329055
205 0.466846
210 0.456262
215 0.416333
220 0.536534
225 0.516768
230 0.402816
235 0.513176
240 0.379736
245 0.465984
250 0.449597
255 0.394433
260 0.361471
265 0.391381
270 0.418816
275 0.444189
280 0.362382
285 0.421379
290 0.428651
295 0.493391
300 0.480103
305 0.488713
310 0.513813
315 0.472663
320 0.45483
325 0.66007
330 0.882436
335 1.06522
340 1.33679
345 1.52643
350 2.03744
355 3.46789
360 87.7243
365 1507.32
370 2385.58
375 620.576
380 76.6579
385 15.1603
390 11.0264
395 11.3407
400 9.8339
405 9.91469
410 13.2469
415 18.0016
420 16.1939
425 13.236
430 11.512
435 10.8027
440 11.4261
445 11.1224
450 10.3881
455 9.53335
460 8.44164
465 8.39473
470 7.98493
475 7.69352
480 6.83489
485 6.54269
490 5.83736
495 5.27877
500 5.07945
505 4.56021
510 4.18747
515 3.90463
520 3.52053
525 3.38204
530 2.87336
535 2.61534
540 2.44436
545 2.22543
550 2.04792
555 1.80019
560 1.69213
565 1.53016
570 1.47261
575 1.16522
580 1.01715
585 1.01596
590 0.877379
595 0.71512
600 1.29087
Ex : 378
200 0.420245
205 0.365411
210 0.333498
215 0.462496
220 0.435994
225 0.414696
230 0.39683
235 0.461276
240 0.332815
245 0.401511
250 0.394218
255 0.444933
260 0.454571
265 0.457495
270 0.415574
275 0.530366
280 0.490321
285 0.454432
290 0.499481
295 0.432951
300 0.468152
305 0.519283
310 0.447204
315 0.517267
320 0.51334
325 0.587401
330 0.661872
335 0.784807
340 0.929895
345 1.25377
350 1.37724
355 2.12992
360 3.11211
365 80.6013
370 1502.61
375 2423.23
380 631.684
385 79.7418
390 17.0231
395 9.98273
400 8.53346
405 8.03294
410 9.17988
415 11.7953
420 14.2716
425 12.946
430 10.496
435 9.95637
440 9.62377
445 9.71853
450 8.86558
455 8.04256
460 7.36146
465 7.16716
470 7.04999
475 6.70426
480 6.32806
485 5.84775
490 5.48193
495 5.1967
500 5.01248
505 4.38908
510 4.18177
515 3.80656
520 3.50028
525 3.13967
530 3.02158
535 2.61526
540 2.38174
545 2.30768
550 1.88581
555 1.91143
560 1.72819
565 1.58289
570 1.42457
575 1.22758
580 1.14398
585 0.883132
590 0.872276
595 0.705043
600 0.338102
Ex : 383
200 0.396176
205 0.343435
210 0.378729
215 0.34237
220 0.343086
225 0.323296
230 0.383921
235 0.359957
240 0.406386
245 0.374312
250 0.428823
255 0.467925
260 0.313602
265 0.452221
270 0.43741
275 0.381792
280 0.403859
285 0.413869
290 0.391432
295 0.397866
300 0.388666
305 0.371851
310 0.447703
315 0.508063
320 0.546747
325 0.641534
330 0.639792
335 0.66244
340 0.836467
345 1.00062
350 1.22802
355 1.4119
360 2.00861
365 3.23717
370 75.9898
375 1475.67
380 2491.12
385 657.831
390 84.3844
395 17.4809
400 9.48586
405 8.96033
410 9.7423
415 10.5
420 10.9397
425 12.4084
430 12.5046
435 11.0236
440 10.5011
445 9.75993
450 9.18292
455 8.4738
460 7.94006
465 7.40494
470 7.43494
475 7.01899
480 6.62879
485 6.03234
490 5.77138
495 5.15971
500 4.71664
505 4.38539
510 4.13469
515 3.72452
520 3.42497
525 3.00809
530 2.71624
535 2.5214
540 2.35518
545 2.26226
550 1.90328
555 1.86491
560 1.62054
565 1.47392
570 1.24684
575 1.10956
580 1.03751
585 0.880944
590 0.793417
595 0.745984
600 0.867242
Ex : 388
200 0.333423
205 0.404162
210 0.370379
215 0.475249
220 0.409061
225 0.359191
230 0.386891
235 0.310815
240 0.354083
245 0.382725
250 0.380759
255 0.367636
260 0.39948
265 0.490419
270 0.41
275 0.395327
280 0.36099
285 0.408017
290 0.414627
295 0.412246
300 0.456522
305 0.463571
310 0.417816
315 0.384825
320 0.492207
325 0.554331
330 0.608735
335 0.677339
340 0.767425
345 0.771985
350 0.92665
355 1.08015
360 1.42477
365 2.11579
370 3.24075
375 81.3504
380 1511.16
385 2486.56
390 656.27
395 85.9543
400 18.3735
405 10.7809
410 11.7232
415 12.1589
420 12.0469
425 11.0392
430 12.3535
435 13.8278
440 12.2661
445 11.6972
450 10.1273
455 9.03402
460 8.36484
465 8.09159
470 7.45289
475 7.47942
480 6.7265
485 6.14954
490 5.89916
495 5.23691
500 4.81236
505 4.64357
510 4.00396
515 3.89537
520 3.5351
525 3.12767
530 2.89978
535 2.59579
540 2.40581
545 2.37008
550 2.11349
555 1.61096
560 1.5501
565 1.49386
570 1.31084
575 1.12385
580 0.996302
585 0.865374
590 0.812737
595 0.717834
600 0.47256
Ex : 393
200 0.434994
205 0.409116
210 0.313709
215 0.407203
220 0.351177
225 0.327498
230 0.337062
235 0.363197
240 0.374103
245 0.353249
250 0.354197
255 0.364779
260 0.31911
265 0.403572
270 0.404493
275 0.319372
280 0.409309
285 0.37521
290 0.389074
295 0.40247
300 0.448833
305 0.476557
310 0.448632
315 0.378892
320 0.448706
325 0.474312
330 0.663798
335 0.652254
340 0.657647
345 0.724639
350 0.721794
355 0.923928
360 1.14398
365 1.35802
370 2.07208
375 3.40164
380 71.7247
385 1495.33
390 2533.65
395 677.827
400 87.9999
405 18.5358
410 11.9492
415 13.2077
420 12.602
425 10.9198
430 9.58418
435 11.059
440 13.6405
445 12.4798
450 10.5379
455 8.94804
460 7.98606
465 7.68463
470 7.3808
475 6.82047
480 6.60043
485 6.05145
490 5.70525
495 5.14775
500 4.75455
505 4.1345
510 4.26961
515 3.72966
520 3.42042
525 3.08356
530 2.86438
535 2.7025
540 2.38719
545 2.32744
550 2.04246
555 1.7654
560 1.55701
565 1.49865
570 1.27346
575 1.18504
580 1.07691
585 0.918911
590 0.689138
595 0.657421
600 0.772462
Ex : 398
200 0.30755
205 0.252651
210 0.325831
215 0.332722
220 0.283926
225 0.352326
230 0.30707
235 0.275727
240 0.317681
245 0.329561
250 0.304177
255 0.384638
260 0.332267
265 0.326868
270 0.382075
275 0.336304
280 0.329487
285 0.38594
290 0.406391
295 0.402775
300 0.325277
305 0.354078
310 0.396603
315 0.428959
320 0.390037
325 0.500853
330 0.568219
335 0.533654
340 0.519776
345 0.686489
350 0.707203
355 0.809064
360 0.869791
365 1.13184
370 1.46702
375 1.87566
380 3.47372
385 74.8302
390 1519.37
395 2569.86
400 673.666
405 84.9418
410 17.0489
415 10.2021
420 9.32579
425 7.98739
430 6.84007
435 6.97122
440 7.96032
445 10.3101
450 9.52195
455 7.62571
460 7.20763
465 6.19816
470 5.86328
475 5.70771
480 5.51378
485 5.03176
490 4.96699
495 4.77287
500 4.35627
505 3.99206
510 3.81092
515 3.22355
520 3.17462
525 3.01166
530 2.93587
535 2.64902
540 2.34348
545 2.24809
550 2.00492
555 1.75495
560 1.68315
565 1.49148
570 1.31662
575 1.12789
580 0.978173
585 0.896548
590 0.785053
595 0.68868
600 0.514723
Ex : 403
200 0.305067
205 0.286294
210 0.289198
215 0.270677
220 0.345914
225 0.320965
230 0.384788
235 0.307852
240 0.330844
245 0.300812
250 0.317906
255 0.299093
260 0.303511
265 0.224558
270 0.295158
275 0.329425
280 0.312997
285 0.346352
290 0.430962
295 0.36422
300 0.310581
305 0.356375
310 0.326352
315 0.347182
320 0.364107
325 0.437129
330 0.487564
335 0.477319
340 0.598939
345 0.693866
350 0.657319
355 0.680399
360 0.750814
365 0.966025
370 1.00135
375 1.53526
380 2.11307
385 3.4249
390 82.0956
395 1544.91
400 2541.93
405 675.81
410 83.7537
415 15.686
420 7.27702
425 6.19547
430 5.46931
435 5.47472
440 5.69365
445 6.04881
450 8.31345
455 8.23799
460 6.93006
465 6.11307
470 5.70168
475 5.4647
480 5.03095
485 4.65152
490 4.43138
495 4.16205
500 4.24068
505 3.82232
510 3.63181
515 3.24657
520 3.27483
525 2.83686
530 2.71311
535 2.48534
540 2.2294
545 2.201
550 1.73098
555 1.69369
560 1.5117
565 1.37978
570 1.3025
575 1.02574
580 1.02569
585 0.823476
590 0.741992
595 0.626514
600 1.31017
Ex : 408
200 0.293248
205 0.336462
210 0.28654
215 0.30245
220 0.334937
225 0.350377
230 0.383447
235 0.327491
240 0.330812
245 0.343344
250 0.27297
255 0.388583
260 0.302827
265 0.30791
270 0.335995
275 0.298896
280 0.263235
285 0.4247
290 0.338054
295 0.370436
300 0.401492
305 0.400098
310 0.459523
315 0.367973
320 0.409893
325 0.466391
330 0.483061
335 0.454556
340 0.56674
345 0.62529
350 0.603656
355 0.653316
360 0.649778
365 0.763084
370 0.887043
375 1.15763
380 1.50589
385 2.05186
390 3.46835
395 78.9444
400 1568.91
405 2563.88
410 660.971
415 82.8402
420 15.426
425 6.92346
430 5.81948
435 5.81014
440 5.97695
445 5.93488
450 5.70475
455 7.56636
460 8.44386
465 7.36428
470 6.30039
475 5.73454
480 5.22775
485 4.93454
490 4.77858
495 4.22116
500 4.06031
505 3.8275
510 3.53618
515 3.25863
520 3.04734
525 2.72814
530 2.48653
535 2.33322
540 2.21118
545 1.92412
550 1.95041
555 1.6121
560 1.60921
565 1.4554
570 1.18318
575 1.11264
580 1.00402
585 0.853754
590 0.691414
595 0.683975
600 0.364283
Ex : 413
200 0.281854
205 0.315131
210 0.282873
215 0.273484
220 0.274336
225 0.321167
230 0.329398
235 0.296149
240 0.274475
245 0.387278
250 0.318541
255 0.330825
260 0.37976
265 0.380077
270 0.322175
275 0.281766
280 0.365517
285 0.335747
290 0.376437
295 0.346211
300 0.34637
305 0.401186
310 0.34801
315 0.334368
320 0.374511
325 0.367625
330 0.483588
335 0.492328
340 0.473079
345 0.497007
350 0.506891
355 0.558009
360 0.673416
365 0.724748
370 0.846811
375 0.92315
380 1.19228
385 1.45508
390 1.92302
395 3.43315
400 88.5754
405 1597.92
410 2540.26
415 636.97
420 79.6207
425 14.3918
430 6.51934
435 5.77159
440 5.62403
445 5.41501
450 5.00997
455 5.04796
460 6.10994
465 7.91198
470 6.95419
475 5.96251
480 5.48899
485 4.73859
490 4.22339
495 4.08277
500 3.9413
505 3.64164
510 3.30725
515 3.11739
520 2.9009
525 2.72511
530 2.48948
535 2.32608
540 2.12867
545 1.9351
550 1.77577
555 1.59044
560 1.46008
565 1.34093
570 1.23339
575 1.04944
580 0.852421
585 0.822643
590 0.738151
595 0.63421
600 0.645249
Ex : 418
200 0.302085
205 0.262319
210 0.315166
215 0.268602
220 0.271977
225 0.249474
230 0.28701
235 0.323992
240 0.382368
245 0.352606
250 0.267514
255 0.334866
260 0.281048
265 0.268027
270 0.278989
275 0.341363
280 0.296367
285 0.338523
290 0.299728
295 0.394389
300 0.313539
305 0.358485
310 0.335913
315 0.36594
320 0.305532
325 0.347072
330 0.413691
335 0.460057
340 0.458834
345 0.574967
350 0.547651
355 0.534809
360 0.5842
365 0.683525
370 0.696015
375 0.757371
380 0.809323
385 1.09814
390 1.49229
395 2.09873
400 3.2816
405 83.3395
410 1568.4
415 2546.65
420 661.479
425 80.9851
430 13.3146
435 5.37594
440 4.90031
445 4.57497
450 3.96816
455 3.76264
460 3.89394
465 4.43538
470 6.38264
475 6.37015
480 4.90439
485 4.39455
490 4.00757
495 3.65704
500 3.51374
505 3.0867
510 3.07133
515 2.86462
520 2.74026
525 2.62078
530 2.38738
535 2.17237
540 2.13761
545 1.84343
550 1.60993
555 1.56703
560 1.46344
565 1.39074
570 1.21382
575 1.05635
580 0.904409
585 0.766832
590 0.645393
595 0.592514
600 0.849029
Ex : 423
200 0.298306
205 0.347477
210 0.358676
215 0.3344
220 0.329859
225 0.267195
230 0.310766
235 0.386659
240 0.319671
245 0.297785
250 0.274338
255 0.286931
260 0.371787
265 0.361451
270 0.260541
275 0.312081
280 0.303912
285 0.318091
290 0.33048
295 0.295985
300 0.337338
305 0.377636
310 0.348706
315 0.376212
320 0.351217
325 0.353672
330 0.440113
335 0.518381
340 0.516828
345 0.515454
350 0.510592
355 0.471092
360 0.572561
365 0.549993
370 0.600208
375 0.690711
380 0.900071
385 0.881349
390 1.17413
395 1.47638
400 1.96283
405 3.48606
410 85.661
415 1620.57
420 2516.11
425 620.875
430 75.819
435 12.3699
440 4.64871
445 3.81421
450 3.28209
455 2.90183
460 2.97409
465 3.18475
470 3.60183
475 5.1644
480 5.97695
485 4.53405
490 3.89392
495 3.38974
500 3.27352
505 2.868
510 2.78322
515 2.63795
520 2.37705
525 2.33265
530 2.18789
535 2.22408
540 1.99544
545 1.75996
550 1.70665
555 1.60864
560 1.47751
565 1.42021
570 1.13563
575 0.993702
580 0.906476
585 0.71561
590 0.598962
595 0.598524
600 0.563341
Ex : 428
200 0.285429
205 0.330701
210 0.306825
215 0.286578
220 0.30012
225 0.331651
230 0.317166
235 0.289324
240 0.304733
245 0.309315
250 0.302748
255 0.30858
260 0.279119
265 0.324916
270 0.355527
275 0.320141
280 0.341614
285 0.356749
290 0.321361
295 0.283996
300 0.306145
305 0.316721
310 0.282824
315 0.37337
320 0.427029
325 0.390379
330 0.388313
335 0.411107
340 0.409187
345 0.48416
350 0.479908
355 0.509377
360 0.577274
365 0.617945
370 0.61523
375 0.69056
380 0.78302
385 0.797953
390 0.871569
395 1.25452
400 1.52174
405 2.19026
410 3.50871
415 92.5705
420 1612.15
425 2510.22
430 641.232
435 77.7126
440 12.22
445 4.1417
450 3.39395
455 2.96856
460 2.70646
465 2.63652
470 2.72347
475 2.89798
480 4.31848
485 5.55938
490 4.46383
495 3.61
500 3.3946
505 2.76139
510 2.73689
515 2.57562
520 2.34474
525 2.22485
530 2.19909
535 2.03829
540 1.96104
545 1.79488
550 1.72802
555 1.50546
560 1.3674
565 1.26881
570 1.1343
575 1.03039
580 0.829969
585 0.692145
590 0.672393
595 0.611619
600 0.699192
Ex : 433
200 0.29879
205 0.272214
210 0.344709
215 0.29059
220 0.29022
225 0.345932
230 0.293636
235 0.24294
240 0.329301
245 0.299819
250 0.421792
255 0.363605
260 0.286755
265 0.297352
270 0.28648
275 0.290011
280 0.343536
285 0.369692
290 0.406601
295 0.300551
300 0.293139
305 0.328082
310 0.391816
315 0.333952
320 0.391145
325 0.34474
330 0.413621
335 0.46696
340 0.484492
345 0.432926
350 0.460792
355 0.506549
360 0.521078
365 0.528361
370 0.607527
375 0.560841
380 0.655807
385 0.728451
390 0.763259
395 0.946174
400 1.25543
405 1.51521
410 2.11459
415 3.27671
420 100.837
425 1703.84
430 2515.69
435 613.824
440 74.5761
445 11.7895
450 4.23272
455 3.33067
460 3.08004
465 2.78275
470 2.54422
475 2.54996
480 2.63025
485 3.48235
490 5.20539
495 4.56111
500 3.44695
505 3.27964
510 2.79381
515 2.35296
520 2.29028
525 2.27343
530 2.16668
535 2.0952
540 1.99612
545 1.78718
550 1.73336
555 1.43146
560 1.3378
565 1.27315
570 1.10457
575 1.0158
580 0.825137
585 0.862545
590 0.648559
595 0.672482
600 0.56046
Ex : 438
200 0.305448
205 0.410495
210 0.322562
215 0.277716
220 0.280877
225 0.345765
230 0.276068
235 0.37597
240 0.306712
245 0.34823
250 0.35483
255 0.310785
260 0.249822
265 0.275846
270 0.289175
275 0.283181
280 0.361347
285 0.28274
290 0.318615
295 0.30345
300 0.307031
305 0.322197
310 0.348812
315 0.320298
320 0.326357
325 0.400047
330 0.431859
335 0.378884
340 0.428378
345 0.451082
350 0.480958
355 0.50054
360 0.44714
365 0.494634
370 0.538319
375 0.577518
380 0.652974
385 0.723053
390 0.720982
395 0.857734
400 1.02808
405 1.1544
410 1.46121
415 2.1393
420 3.48742
425 95.37
430 1668.05
435 2620.16
440 639.825
445 77.7737
450 12.3326
455 4.1194
460 3.26646
465 3.10648
470 2.68982
475 2.59151
480 2.33571
485 2.52034
490 2.9825
495 4.80847
500 4.84646
505 3.43324
510 2.98424
515 2.78956
520 2.34537
525 2.24313
530 2.07782
535 1.90247
540 1.83868
545 1.72546
550 1.55
555 1.4198
560 1.28914
565 1.1743
570 1.15476
575 0.96807
580 0.873819
585 0.757921
590 0.739108
595 0.688374
600 0.80586
Ex : 443
200 0.328573
205 0.297356
210 0.222051
215 0.39132
220 0.381969
225 0.355383
230 0.27019
235 0.292001
240 0.239917
245 0.308016
250 0.311835
255 0.321595
260 0.357714
265 0.279752
270 0.297674
275 0.323603
280 0.346602
285 0.308383
290 0.274529
295 0.312414
300 0.365492
305 0.318137
310 0.338813
315 0.360022
320 0.333016
325 0.387143
330 0.406653
335 0.387611
340 0.398737
345 0.397125
350 0.420135
355 0.466831
360 0.524058
365 0.525173
370 0.53205
375 0.601315
380 0.495428
385 0.518875
390 0.671346
395 0.706562
400 0.799067
405 0.877658
410 1.10991
415 1.46003
420 2.08999
425 3.1551
430 104.148
435 1749.73
440 2601.19
445 630.54
450 76.6958
455 12.1055
460 4.08659
465 3.44927
470 2.99277
475 2.68349
480 2.44024
485 2.37914
490 2.51752
495 2.63252
500 4.10385
505 4.86674
510 3.55534
515 2.97439
520 2.73004
525 2.41669
530 2.06009
535 1.94712
540 1.93871
545 1.71063
550 1.62146
555 1.39292
560 1.29586
565 1.22642
570 1.21038
575 1.08841
580 0.902892
585 0.836572
590 0.674294
595 0.617694
600 0.844202
Ex : 448
200 0.273565
205 0.32412
210 0.309679
215 0.311223
220 0.240332
225 0.301685
230 0.325586
235 0.320845
240 0.290023
245 0.272137
250 0.28497
255 0.322946
260 0.352159
265 0.337624
270 0.272045
275 0.333876
280 0.369838
285 0.401824
290 0.343977
295 0.261279
300 0.262345
305 0.321406
310 0.331611
315 0.376127
320 0.334656
325 0.318677
330 0.295219
335 0.391694
340 0.375734
345 0.46351
350 0.435617
355 0.466068
360 0.423838
365 0.459045
370 0.568496
375 0.62238
380 0.598729
385 0.589181
390 0.621259
395 0.746891
400 0.821775
405 0.929716
410 1.10464
415 1.17495
420 1.52466
425 2.16566
430 3.40366
435 106.869
440 1820.28
445 2711.53
450 657.952
455 79.6964
460 12.5899
465 4.30614
470 3.07472
475 3.03334
480 2.66272
485 2.52919
490 2.25274
495 2.19156
500 2.29304
505 3.32409
510 4.47379
515 3.80766
520 2.97131
525 2.61053
530 2.21473
535 2.07916
540 1.98155
545 1.67225
550 1.60983
555 1.63773
560 1.44364
565 1.34994
570 1.15947
575 1.07421
580 0.95023
585 0.763878
590 0.751597
595 0.556979
600 0.752315
Ex : 453
200 0.344577
205 0.348495
210 0.295546
215 0.327091
220 0.298848
225 0.284156
230 0.290829
235 0.361467
240 0.330546
245 0.316809
250 0.289656
255 0.278996
260 0.333686
265 0.337858
270 0.335133
275 0.30321
280 0.361489
285 0.298073
290 0.331244
295 0.312229
300 0.257407
305 0.373655
310 0.317381
315 0.31191
320 0.369409
325 0.306293
330 0.344439
335 0.389533
340 0.428114
345 0.377991
350 0.394028
355 0.504096
360 0.453611
365 0.514718
370 0.509498
375 0.485334
380 0.554092
385 0.504091
390 0.59922
395 0.65725
400 0.663254
405 0.723768
410 0.826034
415 0.886589
420 1.18217
425 1.495
430 1.92351
435 3.24038
440 109.023
445 1935.94
450 2771.71
455 634.639
460 77.089
465 12.4635
470 4.11699
475 2.97554
480 2.85411
485 2.62855
490 2.22843
495 2.28532
500 2.14474
505 2.1999
510 2.71408
515 3.94701
520 4.19767
525 2.8537
530 2.50009
535 2.17154
540 2.06709
545 1.7564
550 1.63975
555 1.55803
560 1.41662
565 1.4329
570 1.12769
575 1.01912
580 0.877067
585 0.786174
590 0.680609
595 0.649904
600 0.30854
Ex : 458
200 0.287963
205 0.350175
210 0.390693
215 0.325001
220 0.333716
225 0.288986
230 0.312455
235 0.275459
240 0.330502
245 0.337594
250 0.322805
255 0.277787
260 0.304295
265 0.317718
270 0.266493
275 0.283761
280 0.248862
285 0.364311
290 0.369299
295 0.330391
300 0.30755
305 0.373178
310 0.290746
315 0.350624
320 0.378002
325 0.297442
330 0.396603
335 0.33694
340 0.483622
345 0.393745
350 0.398275
355 0.456079
360 0.409211
365 0.398077
370 0.46367
375 0.410588
380 0.485717
385 0.5439
390 0.608945
395 0.660857
400 0.61023
405 0.710152
410 0.724397
415 0.820297
420 1.01547
425 1.36979
430 1.41121
435 2.03124
440 3.28629
445 120.259
450 1969.34
455 2876.21
460 679.434
465 82.8514
470 13.123
475 4.12086
480 3.03718
485 2.89798
490 2.58282
495 2.15793
500 2.10123
505 2.21691
510 1.99058
515 2.24416
520 3.48464
525 4.06142
530 2.98356
535 2.54544
540 2.33607
545 1.95283
550 1.67286
555 1.46299
560 1.42508
565 1.33766
570 1.23832
575 1.13927
580 0.951098
585 0.827181
590 0.771337
595 0.696803
600 0.29341
Ex : 463
200 0.297311
205 0.265838
210 0.248192
215 0.229504
220 0.313856
225 0.257922
230 0.287324
235 0.303672
240 0.296452
245 0.294624
250 0.382392
255 0.304399
260 0.31922
265 0.267815
270 0.274147
275 0.237079
280 0.315715
285 0.322626
290 0.276078
295 0.410578
300 0.364168
305 0.344003
310 0.296976
315 0.311841
320 0.309585
325 0.265085
330 0.359512
335 0.43732
340 0.369644
345 0.440859
350 0.431891
355 0.378033
360 0.393791
365 0.448789
370 0.436089
375 0.46799
380 0.450427
385 0.537045
390 0.620129
395 0.542765
400 0.648256
405 0.557505
410 0.651093
415 0.713072
420 0.766562
425 0.956106
430 1.00483
435 1.57177
440 2.11905
445 3.47351
450 116.206
455 2026.03
460 3039.66
465 712.723
470 86.1814
475 13.1031
480 4.04146
485 2.91816
490 2.65504
495 2.46555
500 2.19487
505 2.04902
510 1.94479
515 1.98048
520 2.02621
525 2.78162
530 4.0576
535 3.31488
540 2.46118
545 2.2453
550 2.02096
555 1.68344
560 1.53463
565 1.32387
570 1.21428
575 1.02539
580 0.910621
585 0.800057
590 0.714898
595 0.625586
600 0.25265
Ex : 468
200 0.323525
205 0.275402
210 0.250394
215 0.298644
220 0.24069
225 0.263104
230 0.259012
235 0.298282
240 0.232886
245 0.280278
250 0.288889
255 0.321983
260 0.333501
265 0.270873
270 0.291081
275 0.327259
280 0.293014
285 0.260878
290 0.344471
295 0.342635
300 0.337037
305 0.319587
310 0.277297
315 0.309121
320 0.289793
325 0.325796
330 0.389536
335 0.398426
340 0.367203
345 0.425572
350 0.378966
355 0.348975
360 0.428981
365 0.414411
370 0.415917
375 0.471112
380 0.452594
385 0.505286
390 0.485086
395 0.51732
400 0.534919
405 0.572431
410 0.610234
415 0.634254
420 0.691267
425 0.80687
430 0.81999
435 1.07944
440 1.39147
445 2.00102
450 3.1587
455 124.353
460 2031.07
465 3148.59
470 738.779
475 88.3798
480 13.2662
485 3.98389
490 2.64177
495 2.48846
500 2.42736
505 2.15362
510 2.05788
515 1.87732
520 1.96471
525 1.93554
530 2.41594
535 3.38429
540 3.51196
545 2.4502
550 1.99959
555 1.92402
560 1.6244
565 1.41335
570 1.24705
575 1.00162
580 0.937141
585 0.810129
590 0.757248
595 0.639007
600 0.373926
Ex : 473
200 0.286502
205 0.287692
210 0.347461
215 0.294744
220 0.220467
225 0.304939
230 0.262202
235 0.332772
240 0.384297
245 0.30567
250 0.318216
255 0.324547
260 0.381489
265 0.255702
270 0.246146
275 0.278415
280 0.269069
285 0.317829
290 0.368078
295 0.30356
300 0.311874
305 0.358607
310 0.297992
315 0.345138
320 0.333909
325 0.350286
330 0.34337
335 0.310474
340 0.383821
345 0.340291
350 0.391801
355 0.353954
360 0.39902
365 0.39703
370 0.387242
375 0.411382
380 0.486287
385 0.475351
390 0.472416
395 0.496414
400 0.511179
405 0.577054
410 0.593988
415 0.5973
420 0.681506
425 0.753871
430 0.775457
435 0.932317
440 1.12299
445 1.46892
450 2.11554
455 3.44064
460 143.351
465 2205.85
470 3053.82
475 687.16
480 82.6605
485 12.4919
490 3.95244
495 2.64777
500 2.53124
505 2.25708
510 2.08628
515 1.89604
520 1.9362
525 1.91554
530 1.99864
535 2.16762
540 3.05458
545 3.43137
550 2.57703
555 1.89965
560 1.85809
565 1.6876
570 1.34285
575 1.10453
580 0.994499
585 0.784285
590 0.734932
595 0.684046
600 0.343969
Ex : 478
200 0.38161
205 0.299006
210 0.367601
215 0.357307
220 0.359929
225 0.280924
230 0.322253
235 0.357441
240 0.350063
245 0.306918
250 0.330146
255 0.37877
260 0.36222
265 0.374712
270 0.356461
275 0.419235
280 0.346677
285 0.376518
290 0.38382
295 0.428002
300 0.38035
305 0.367391
310 0.375191
315 0.346342
320 0.422799
325 0.398485
330 0.384193
335 0.383053
340 0.444116
345 0.423518
350 0.451769
355 0.492615
360 0.468195
365 0.421263
370 0.461246
375 0.47491
380 0.456687
385 0.591768
390 0.546095
395 0.517128
400 0.571684
405 0.552708
410 0.60298
415 0.608201
420 0.718747
425 0.72704
430 0.727976
435 0.927681
440 1.03602
445 1.37677
450 1.82664
455 2.45216
460 4.19771
465 154.996
470 2261.7
475 3096.45
480 729.371
485 87.742
490 13.3057
495 4.06559
500 2.50128
505 2.48206
510 2.31412
515 2.17107
520 2.08031
525 2.10708
530 1.99341
535 1.92659
540 2.00081
545 2.60677
550 3.30086
555 2.89955
560 1.95667
565 1.68082
570 1.48452
575 1.21994
580 1.00227
585 0.839391
590 0.900283
595 0.735341
600 1.37646
Ex : 483
200 0.35251
205 0.31549
210 0.350007
215 0.339065
220 0.297942
225 0.386475
230 0.300078
235 0.298959
240 0.324059
245 0.371327
250 0.35994
255 0.36561
260 0.365886
265 0.45088
270 0.325131
275 0.341473
280 0.37796
285 0.321545
290 0.314137
295 0.353307
300 0.314233
305 0.328936
310 0.372898
315 0.337913
320 0.423564
325 0.352514
330 0.362427
335 0.397596
340 0.424958
345 0.488959
350 0.424522
355 0.410977
360 0.388038
365 0.437777
370 0.52941
375 0.505079
380 0.562219
385 0.492717
390 0.587249
395 0.590062
400 0.636668
405 0.685054
410 0.627545
415 0.650384
420 0.641524
425 0.680611
430 0.668642
435 0.736402
440 0.875485
445 1.12787
450 1.2959
455 1.72918
460 2.61462
465 4.44428
470 122.573
475 2190.45
480 3267.39
485 765.137
490 91.7916
495 13.663
500 4.0305
505 2.6037
510 2.4455
515 2.35549
520 2.36803
525 2.08003
530 1.99537
535 2.01562
540 1.97124
545 1.8898
550 2.00512
555 2.8354
560 2.81364
565 2.10864
570 1.58438
575 1.41004
580 1.2067
585 0.956419
590 0.794711
595 0.681518
600 1.42934
Ex : 488
200 0.329331
205 0.319704
210 0.32793
215 0.384445
220 0.307995
225 0.397247
230 0.336832
235 0.35238
240 0.334328
245 0.334787
250 0.263911
255 0.419955
260 0.426805
265 0.419408
270 0.411293
275 0.412799
280 0.363806
285 0.397082
290 0.284949
295 0.324088
300 0.317553
305 0.350016
310 0.350203
315 0.416141
320 0.412996
325 0.445549
330 0.440014
335 0.411674
340 0.379012
345 0.405426
350 0.456227
355 0.473063
360 0.546769
365 0.605447
370 0.42625
375 0.467477
380 0.547646
385 0.550298
390 0.56272
395 0.594233
400 0.669544
405 0.608068
410 0.559715
415 0.632628
420 0.825645
425 0.714898
430 0.836507
435 0.861972
440 0.969025
445 1.02165
450 1.11981
455 1.49829
460 1.97496
465 3.17665
470 4.51572
475 147.251
480 2345.88
485 3216.11
490 736.436
495 88.5724
500 13.2173
505 3.99734
510 2.58158
515 2.44127
520 2.52573
525 2.42908
530 2.33692
535 2.06539
540 2.01644
545 1.87441
550 1.8803
555 1.79186
560 2.41079
565 2.78903
570 2.05593
575 1.53743
580 1.19123
585 1.07482
590 0.867972
595 0.8193
600 1.19298
Ex : 493
200 0.337645
205 0.38277
210 0.38252
215 0.327357
220 0.389376
225 0.399657
230 0.320824
235 0.402067
240 0.377952
245 0.368351
250 0.36882
255 0.356716
260 0.432899
265 0.507042
270 0.409382
275 0.498002
280 0.397101
285 0.403006
290 0.375649
295 0.332216
300 0.379057
305 0.391368
310 0.422561
315 0.397744
320 0.431055
325 0.469016
330 0.374719
335 0.4944
340 0.438575
345 0.423905
350 0.511304
355 0.425158
360 0.512147
365 0.463417
370 0.475595
375 0.496967
380 0.48592
385 0.544262
390 0.418942
395 0.569322
400 0.497162
405 0.484266
410 0.578797
415 0.73862
420 0.815889
425 0.706946
430 0.655025
435 0.790137
440 0.822382
445 0.930886
450 0.954922
455 1.21341
460 1.55092
465 2.21867
470 2.79684
475 3.99778
480 135.264
485 2290.4
490 3344.39
495 752.054
500 90.0469
505 13.2097
510 4.00706
515 2.65582
520 2.47619
525 2.44258
530 2.29752
535 2.03013
540 1.97038
545 2.07027
550 1.95593
555 1.79244
560 1.65275
565 1.90571
570 2.39064
575 1.98298
580 1.45231
585 1.06347
590 1.00368
595 0.85884
600 0.955578
Ex : 498
200 0.38753
205 0.346193
210 0.407399
215 0.438753
220 0.414864
225 0.40601
230 0.44157
235 0.324776
240 0.41737
245 0.352293
250 0.443193
255 0.468811
260 0.474816
265 0.410904
270 0.381799
275 0.39062
280 0.389033
285 0.408849
290 0.395963
295 0.400902
300 0.357453
305 0.421087
310 0.336951
315 0.361615
320 0.420831
325 0.512931
330 0.47728
335 0.408285
340 0.530654
345 0.596733
350 0.459899
355 0.477909
360 0.511795
365 0.494357
370 0.486857
375 0.590006
380 0.51435
385 0.495303
390 0.534736
395 0.567726
400 0.64512
405 0.640669
410 0.727766
415 0.707149
420 0.661077
425 0.702715
430 0.742786
435 0.788537
440 0.887325
445 0.85439
450 0.918637
455 1.09115
460 1.28595
465 1.71559
470 2.08395
475 2.7051
480 4.22842
485 159.775
490 2391.69
495 3207.09
500 724.105
505 87.2145
510 13.1948
515 4.0404
520 2.72113
525 2.39561
530 2.33691
535 2.26691
540 2.17298
545 1.99075
550 1.84727
555 1.5653
560 1.60613
565 1.44394
570 1.60277
575 1.85794
580 1.97742
585 1.23079
590 0.884878
595 0.835792
600 0.827705
Ex : 503
200 0.428059
205 0.442736
210 0.444328
215 0.394577
220 0.386212
225 0.383819
230 0.442155
235 0.395919
240 0.433126
245 0.457394
250 0.498556
255 0.483882
260 0.35147
265 0.455498
270 0.394147
275 0.470763
280 0.426594
285 0.38957
290 0.391155
295 0.408244
300 0.401501
305 0.354266
310 0.485014
315 0.492674
320 0.374902
325 0.369921
330 0.484893
335 0.549919
340 0.488881
345 0.407679
350 0.442973
355 0.489035
360 0.571433
365 0.521683
370 0.506017
375 0.508021
380 0.502523
385 0.589048
390 0.595623
395 0.598041
400 0.664753
405 0.691423
410 0.67166
415 0.584864
420 0.698009
425 0.857155
430 0.637406
435 0.629184
440 0.795156
445 0.823358
450 0.991096
455 0.965944
460 1.27394
465 1.49752
470 1.71739
475 2.12175
480 2.87226
485 4.4281
490 142.31
495 2354.15
500 3273.27
505 738.766
510 88.5026
515 13.5621
520 4.49362
525 2.86168
530 2.44746
535 2.433
540 2.37809
545 2.17574
550 1.91149
555 1.74028
560 1.74257
565 1.3554
570 1.43164
575 1.49987
580 1.44354
585 1.69464
590 1.23946
595 1.02995
600 0.916036
Ex : 508
200 0.431418
205 0.393426
210 0.433148
215 0.39887
220 0.386983
225 0.558008
230 0.459152
235 0.397772
240 0.460654
245 0.409815
250 0.382933
255 0.514336
260 0.391927
265 0.480888
270 0.515981
275 0.496869
280 0.367679
285 0.498111
290 0.472289
295 0.440886
300 0.440991
305 0.399823
310 0.488496
315 0.498951
320 0.431611
325 0.462698
330 0.462487
335 0.465373
340 0.531142
345 0.500614
350 0.417294
355 0.535269
360 0.587739
365 0.562247
370 0.646008
375 0.632388
380 0.605656
385 0.547769
390 0.55251
395 0.479207
400 0.593285
405 0.625114
410 0.6098
415 0.639566
420 0.830021
425 0.668953
430 0.765325
435 0.785331
440 0.806179
445 0.720415
450 0.932919
455 0.858584
460 0.958948
465 1.22084
470 1.36206
475 1.63156
480 2.02851
485 2.65714
490 4.53989
495 151.851
500 2327.21
505 3233.62
510 764.153
515 91.5545
520 13.6975
525 4.46783
530 2.95167
535 2.42534
540 2.14607
545 2.14102
550 2.16546
555 1.81477
560 1.64989
565 1.50917
570 1.30495
575 1.14831
580 1.11691
585 1.21095
590 1.59846
595 1.39638
600 0.831196
Ex : 513
200 0.361085
205 0.460645
210 0.436166
215 0.403768
220 0.508431
225 0.408202
230 0.385599
235 0.390516
240 0.494939
245 0.403382
250 0.361929
255 0.437691
260 0.412442
265 0.432705
270 0.39142
275 0.403366
280 0.411163
285 0.436838
290 0.410072
295 0.510159
300 0.429515
305 0.420542
310 0.571014
315 0.440784
320 0.476366
325 0.529722
330 0.538873
335 0.430431
340 0.500578
345 0.578618
350 0.477365
355 0.514062
360 0.551487
365 0.592824
370 0.516692
375 0.552661
380 0.485015
385 0.516002
390 0.566024
395 0.710564
400 0.654852
405 0.585035
410 0.727493
415 0.581187
420 0.712464
425 0.658667
430 0.695093
435 0.649092
440 0.795865
445 0.65116
450 0.710852
455 0.788525
460 1.01794
465 1.08015
470 1.16502
475 1.46842
480 1.66624
485 2.20631
490 2.88844
495 3.91108
500 140.824
505 2294.96
510 3245.99
515 780.126
520 93.6176
525 13.8575
530 4.17629
535 2.70429
540 2.35249
545 2.19101
550 2.09962
555 2.02516
560 1.83609
565 1.64415
570 1.34516
575 1.24749
580 1.17223
585 1.14841
590 1.0062
595 1.15999
600 1.32939
Ex : 518
200 0.522755
205 0.414565
210 0.436187
215 0.445236
220 0.48252
225 0.421301
230 0.414853
235 0.484465
240 0.42709
245 0.504872
250 0.461319
255 0.489618
260 0.478973
265 0.457245
270 0.500158
275 0.430304
280 0.449549
285 0.432172
290 0.523679
295 0.468994
300 0.468221
305 0.552615
310 0.489994
315 0.480627
320 0.449226
325 0.431992
330 0.458414
335 0.447264
340 0.473284
345 0.601229
350 0.567644
355 0.453566
360 0.579266
365 0.522555
370 0.568808
375 0.562202
380 0.655958
385 0.58035
390 0.669143
395 0.558493
400 0.607369
405 0.628292
410 0.561114
415 0.607544
420 0.663291
425 0.625271
430 0.725432
435 0.588906
440 0.713049
445 0.738773
450 0.809236
455 0.909434
460 1.02363
465 1.14462
470 1.07843
475 1.10113
480 1.38159
485 1.48411
490 2.13277
495 2.77722
500 4.19005
505 139.855
510 2188.14
515 3189.21
520 770.5
525 92.4937
530 13.7344
535 4.37276
540 2.77964
545 2.27101
550 1.93777
555 1.88771
560 1.76279
565 1.59198
570 1.38741
575 1.39475
580 1.20218
585 0.916176
590 0.897879
595 0.892495
600 2.04564
Ex : 523
200 0.521601
205 0.484465
210 0.442174
215 0.548672
220 0.401982
225 0.355015
230 0.482986
235 0.361484
240 0.435562
245 0.54049
250 0.501243
255 0.482185
260 0.530266
265 0.493895
270 0.471512
275 0.467035
280 0.354545
285 0.416797
290 0.411215
295 0.39265
300 0.475477
305 0.530135
310 0.42421
315 0.475813
320 0.450941
325 0.39619
330 0.386651
335 0.52252
340 0.602229
345 0.515224
350 0.531424
355 0.527472
360 0.625224
365 0.637093
370 0.545885
375 0.551359
380 0.48165
385 0.60289
390 0.566918
395 0.576782
400 0.51935
405 0.668294
410 0.648722
415 0.610516
420 0.581793
425 0.61093
430 0.704268
435 0.68257
440 0.761002
445 0.652017
450 0.729009
455 0.659184
460 0.94489
465 1.01816
470 1.17225
475 1.08708
480 1.02619
485 1.49924
490 1.70126
495 2.01805
500 2.54904
505 4.05222
510 127.299
515 2092.22
520 3119.21
525 783.617
530 93.8714
535 13.7955
540 4.09335
545 2.59686
550 2.06075
555 2.00191
560 2.0417
565 1.74991
570 1.44316
575 1.26777
580 1.10588
585 0.938455
590 0.806018
595 0.766979
600 0.849605
Ex : 528
200 0.468956
205 0.425899
210 0.434626
215 0.421504
220 0.460571
225 0.343149
230 0.443224
235 0.44554
240 0.477527
245 0.49821
250 0.473613
255 0.406162
260 0.450337
265 0.568307
270 0.525054
275 0.610389
280 0.503712
285 0.580777
290 0.460403
295 0.558157
300 0.371546
305 0.375789
310 0.507173
315 0.439141
320 0.449142
325 0.48783
330 0.507916
335 0.464513
340 0.608549
345 0.596049
350 0.595322
355 0.505313
360 0.467913
365 0.687661
370 0.576794
375 0.648672
380 0.749977
385 0.565121
390 0.617525
395 0.593777
400 0.5697
405 0.592422
410 0.573464
415 0.652458
420 0.802648
425 0.64212
430 0.707317
435 0.789052
440 0.693781
445 0.830837
450 0.89826
455 0.881071
460 0.806963
465 0.894362
470 1.03089
475 0.959805
480 0.96308
485 1.13536
490 1.43401
495 1.39106
500 2.04122
505 2.55939
510 3.96718
515 117.409
520 2040.68
525 3052.86
530 759.089
535 91.0604
540 13.3371
545 4.02291
550 2.44275
555 1.9712
560 1.63916
565 1.81026
570 1.60887
575 1.26434
580 1.20281
585 1.04748
590 1.05227
595 0.822137
600 0.456754
Ex : 533
200 0.45519
205 0.40767
210 0.525496
215 0.516771
220 0.52793
225 0.502324
230 0.381291
235 0.567432
240 0.465228
245 0.330882
250 0.543324
255 0.435357
260 0.448845
265 0.555881
270 0.490002
275 0.490806
280 0.510241
285 0.522236
290 0.501554
295 0.449365
300 0.460639
305 0.437529
310 0.446092
315 0.442694
320 0.454846
325 0.441806
330 0.599206
335 0.582037
340 0.456626
345 0.520524
350 0.58725
355 0.555136
360 0.565912
365 0.586052
370 0.672421
375 0.712122
380 0.581282
385 0.555575
390 0.603148
395 0.557039
400 0.614832
405 0.544953
410 0.573772
415 0.642742
420 0.597336
425 0.647387
430 0.79039
435 0.722288
440 0.686716
445 0.83643
450 0.792261
455 0.836536
460 0.771053
465 0.844022
470 0.810668
475 0.97273
480 1.01411
485 1.19591
490 1.20007
495 1.20836
500 1.57315
505 2.14354
510 2.45274
515 4.09312
520 115.562
525 1946.42
530 2957.58
535 759.784
540 91.0572
545 13.1148
550 3.80804
555 2.36962
560 1.78046
565 1.43942
570 1.70266
575 1.40316
580 1.17919
585 1.15275
590 1.00849
595 0.926742
600 0.435909
Ex : 538
200 0.373309
205 0.418948
210 0.456692
215 0.444034
220 0.521807
225 0.500659
230 0.440868
235 0.457242
240 0.497776
245 0.433558
250 0.459391
255 0.534727
260 0.498827
265 0.513733
270 0.52154
275 0.489005
280 0.438528
285 0.462985
290 0.528096
295 0.491555
300 0.404062
305 0.479383
310 0.433673
315 0.356522
320 0.495771
325 0.672041
330 0.542048
335 0.655874
340 0.599289
345 0.562887
350 0.52752
355 0.579131
360 0.569742
365 0.469343
370 0.500111
375 0.567378
380 0.567245
385 0.55754
390 0.596101
395 0.609045
400 0.676
405 0.443488
410 0.650498
415 0.541855
420 0.541584
425 0.696214
430 0.699266
435 0.731498
440 0.676236
445 0.708475
450 0.855154
455 0.716385
460 0.841754
465 0.916455
470 0.84917
475 0.921745
480 0.894606
485 0.995309
490 1.07835
495 1.31038
500 1.36612
505 1.6711
510 1.82187
515 2.48472
520 3.79546
525 97.7004
530 1838.27
535 2902.8
540 774.071
545 92.867
550 13.395
555 3.91425
560 2.22519
565 1.77639
570 1.37662
575 1.29572
580 1.09499
585 1.14881
590 0.950069
595 0.916261
600 0.450358
Ex : 543
200 0.454834
205 0.402064
210 0.467281
215 0.420877
220 0.472595
225 0.533333
230 0.504706
235 0.479638
240 0.555501
245 0.560592
250 0.632489
255 0.648972
260 0.571511
265 0.490012
270 0.527295
275 0.50317
280 0.508042
285 0.507181
290 0.440245
295 0.496482
300 0.527703
305 0.466995
310 0.554404
315 0.40239
320 0.451687
325 0.526626
330 0.552423
335 0.590826
340 0.528533
345 0.558127
350 0.690912
355 0.546108
360 0.615491
365 0.616623
370 0.626062
375 0.568395
380 0.570696
385 0.641072
390 0.510602
395 0.705423
400 0.556063
405 0.545348
410 0.651657
415 0.679914
420 0.626054
425 0.735607
430 0.738277
435 0.742066
440 0.758145
445 0.714303
450 0.731142
455 0.738333
460 0.790274
465 0.873725
470 0.830108
475 0.92311
480 0.939272
485 1.03869
490 0.979109
495 0.954582
500 1.09216
505 1.26393
510 1.35535
515 1.91865
520 2.49606
525 3.60497
530 87.4097
535 1737.39
540 2873.19
545 785.234
550 94.3292
555 13.512
560 3.47715
565 2.06455
570 1.60228
575 1.3141
580 1.11101
585 1.28693
590 0.915453
595 0.94219
600 0.462761
Ex : 548
200 0.394713
205 0.443145
210 0.389814
215 0.447276
220 0.414896
225 0.512411
230 0.537296
235 0.546881
240 0.537511
245 0.619915
250 0.561851
255 0.587693
260 0.44596
265 0.464187
270 0.575036
275 0.517899
280 0.555321
285 0.530938
290 0.423905
295 0.549768
300 0.654521
305 0.509394
310 0.496197
315 0.502684
320 0.482047
325 0.556877
330 0.557955
335 0.545837
340 0.542258
345 0.711812
350 0.418508
355 0.602519
360 0.673906
365 0.69916
370 0.771688
375 0.574122
380 0.566594
385 0.640701
390 0.574579
395 0.577316
400 0.691612
405 0.631784
410 0.603828
415 0.592337
420 0.603662
425 0.775325
430 0.764028
435 0.604495
440 0.684525
445 0.68026
450 0.923606
455 0.634888
460 0.798219
465 0.798467
470 0.826373
475 0.905824
480 0.744584
485 0.88074
490 0.962805
495 1.00227
500 0.98347
505 1.05101
510 1.14616
515 1.54653
520 1.91943
525 2.49916
530 3.68919
535 96.0742
540 1735.47
545 2782.02
550 763.311
555 91.3828
560 13.0025
565 3.45535
570 1.83511
575 1.43466
580 1.23053
585 1.1416
590 1.04289
595 1.16129
600 0.658334
Ex : 553
200 0.491093
205 0.531943
210 0.617752
215 0.481485
220 0.524474
225 0.527928
230 0.565785
235 0.496946
240 0.555117
245 0.430884
250 0.609583
255 0.468559
260 0.521138
265 0.428214
270 0.504109
275 0.492964
280 0.607285
285 0.521047
290 0.512917
295 0.489865
300 0.350917
305 0.599901
310 0.582067
315 0.652752
320 0.484644
325 0.547881
330 0.703583
335 0.604449
340 0.617799
345 0.501359
350 0.456145
355 0.560471
360 0.611904
365 0.607152
370 0.644292
375 0.643839
380 0.576566
385 0.798917
390 0.751596
395 0.692182
400 0.651402
405 0.659561
410 0.710189
415 0.651116
420 0.603044
425 0.64716
430 0.735706
435 0.669255
440 0.730529
445 0.763038
450 0.713202
455 0.760784
460 0.825557
465 0.743178
470 0.856328
475 0.841957
480 0.832965
485 0.992843
490 0.912871
495 0.900996
500 0.976667
505 1.03851
510 1.25034
515 1.34088
520 1.51438
525 1.72639
530 2.48545
535 3.65356
540 80.9982
545 1614.53
550 2713.94
555 754.818
560 90.2447
565 12.5465
570 3.34912
575 1.63945
580 1.23368
585 1.10748
590 1.05561
595 1.06133
600 0.937924
Ex : 558
200 0.636983
205 0.484983
210 0.56511
215 0.54132
220 0.634584
225 0.429983
230 0.420228
235 0.518695
240 0.62147
245 0.555253
250 0.517268
255 0.447842
260 0.484164
265 0.581864
270 0.624163
275 0.41272
280 0.587034
285 0.596027
290 0.541289
295 0.596304
300 0.541169
305 0.518459
310 0.680176
315 0.436799
320 0.531914
325 0.523618
330 0.620501
335 0.621593
340 0.516942
345 0.648353
350 0.498519
355 0.631121
360 0.655131
365 0.541385
370 0.67266
375 0.648208
380 0.570384
385 0.64222
390 0.65468
395 0.568064
400 0.639807
405 0.632597
410 0.685339
415 0.638631
420 0.70123
425 0.724039
430 0.794689
435 0.733903
440 0.817596
445 0.688666
450 0.651161
455 0.727701
460 0.88338
465 0.78871
470 0.795346
475 0.871788
480 0.762833
485 0.808225
490 0.916487
495 0.821494
500 0.932874
505 0.773035
510 1.05262
515 1.15679
520 1.28117
525 1.2873
530 1.64753
535 2.38753
540 3.35886
545 75.6384
550 1531.57
555 2633.11
560 741.032
565 88.83
570 12.466
575 3.01001
580 1.82326
585 1.26855
590 1.10547
595 1.1105
600 1.73819
Ex : 563
200 0.407206
205 0.537486
210 0.615789
215 0.500558
220 0.545043
225 0.485484
230 0.462433
235 0.783075
240 0.600922
245 0.521179
250 0.592574
255 0.63287
260 0.611709
265 0.561864
270 0.560136
275 0.596226
280 0.492273
285 0.518832
290 0.555904
295 0.510973
300 0.437844
305 0.484256
310 0.517067
315 0.498812
320 0.458788
325 0.498227
330 0.741611
335 0.59178
340 0.586394
345 0.44376
350 0.699166
355 0.591542
360 0.690739
365 0.655425
370 0.644581
375 0.547062
380 0.607076
385 0.649407
390 0.689153
395 0.626253
400 0.618878
405 0.621353
410 0.567252
415 0.687672
420 0.697471
425 0.591922
430 0.675163
435 0.657528
440 0.82363
445 0.693358
450 0.729349
455 0.7253
460 0.822855
465 0.877891
470 0.858794
475 0.800911
480 0.877329
485 0.798396
490 0.893484
495 0.876572
500 1.10174
505 1.01479
510 0.968358
515 1.0482
520 1.06009
525 1.33507
530 1.34195
535 1.76042
540 2.29765
545 3.10287
550 72.9909
555 1469.73
560 2518.53
565 720.583
570 86.0945
575 11.7532
580 2.84097
585 1.49495
590 1.31793
595 1.13291
600 0.483402
Ex : 568
200 0.488982
205 0.671636
210 0.406183
215 0.541003
220 0.568204
225 0.594386
230 0.487594
235 0.776545
240 0.59434
245 0.497212
250 0.561558
255 0.510016
260 0.548131
265 0.591872
270 0.541759
275 0.584093
280 0.66296
285 0.518544
290 0.513094
295 0.524803
300 0.483406
305 0.548717
310 0.556288
315 0.509223
320 0.476801
325 0.64259
330 0.583165
335 0.619956
340 0.607304
345 0.585245
350 0.528742
355 0.702462
360 0.609574
365 0.877608
370 0.662093
375 0.645413
380 0.519048
385 0.659882
390 0.650066
395 0.59267
400 0.79893
405 0.579167
410 0.474263
415 0.671622
420 0.762928
425 0.727989
430 0.713822
435 0.704844
440 0.770216
445 0.73498
450 0.77525
455 0.792295
460 0.826396
465 0.960303
470 0.807134
475 0.829874
480 0.879829
485 0.726454
490 0.925513
495 0.877989
500 0.933685
505 0.950453
510 0.740389
515 1.12998
520 0.996606
525 0.926514
530 1.1981
535 1.28041
540 1.63397
545 2.22754
550 3.07804
555 54.0504
560 1311.98
565 2403.48
570 717.688
575 86.3686
580 11.7952
585 2.62242
590 1.59969
595 1.11233
600 1.8704
Ex : 573
200 0.561989
205 0.396879
210 0.628212
215 0.576512
220 0.671245
225 0.538618
230 0.485552
235 0.400831
240 0.717863
245 0.647118
250 0.59634
255 0.572822
260 0.478591
265 0.655075
270 0.46156
275 0.451238
280 0.722687
285 0.516513
290 0.814566
295 0.489121
300 0.375665
305 0.602043
310 0.709544
315 0.559377
320 0.622896
325 0.526455
330 0.557276
335 0.556905
340 0.644096
345 0.545277
350 0.705431
355 0.541862
360 0.65816
365 0.623209
370 0.604752
375 0.736136
380 0.743748
385 0.634848
390 0.625227
395 0.659422
400 0.736827
405 0.654592
410 0.646759
415 0.573129
420 0.696048
425 0.897634
430 0.787183
435 0.845018
440 0.821827
445 0.603445
450 0.722037
455 0.788153
460 0.825572
465 0.938798
470 0.868629
475 0.83109
480 0.748327
485 0.990585
490 0.832629
495 0.817395
500 0.821583
505 0.798896
510 0.92452
515 1.01059
520 0.880629
525 0.983314
530 1.06806
535 1.18318
540 1.29567
545 1.57503
550 2.32519
555 2.889
560 47.6255
565 1130.58
570 2209.24
575 676.382
580 81.002
585 10.8472
590 2.38629
595 1.59622
600 0.375702
Ex : 578
200 0.481654
205 0.485867
210 0.61616
215 0.562541
220 0.648042
225 0.494599
230 0.485758
235 0.488921
240 0.585565
245 0.647213
250 0.738142
255 0.600298
260 0.557086
265 0.481626
270 0.609327
275 0.583318
280 0.582126
285 0.643959
290 0.557509
295 0.449006
300 0.60805
305 0.502994
310 0.549752
315 0.669985
320 0.652387
325 0.519991
330 0.536223
335 0.64697
340 0.564048
345 0.668585
350 0.671738
355 0.717017
360 0.637902
365 0.62901
370 0.756577
375 0.630598
380 0.749689
385 0.74386
390 0.789294
395 0.681105
400 0.565137
405 0.680876
410 0.729852
415 0.666848
420 0.678375
425 0.711938
430 0.761257
435 0.771006
440 0.586127
445 0.693369
450 0.685101
455 0.801351
460 0.629548
465 0.77508
470 0.866137
475 0.991147
480 0.907089
485 0.793046
490 0.843455
495 0.853917
500 1.00976
505 0.770476
510 1.00295
515 0.82425
520 0.94244
525 0.843059
530 0.941192
535 0.968213
540 1.18449
545 1.17731
550 1.48449
555 2.0866
560 2.9329
565 41.3895
570 1012.11
575 1928.11
580 582.159
585 69.6742
590 9.5227
595 2.31215
600 1.16264
Ex : 583
200 0.471195
205 0.53073
210 0.649379
215 0.574099
220 0.72379
225 0.594629
230 0.559484
235 0.518388
240 0.463017
245 0.676143
250 0.647526
255 0.632026
260 0.597436
265 0.653824
270 0.542448
275 0.561903
280 0.492799
285 0.537165
290 0.577345
295 0.570988
300 0.479918
305 0.512501
310 0.596243
315 0.528795
320 0.631133
325 0.569617
330 0.750069
335 0.671684
340 0.790152
345 0.831774
350 0.625945
355 0.674293
360 0.649663
365 0.659536
370 0.748085
375 0.60041
380 0.812497
385 0.711964
390 0.652996
395 0.721817
400 0.616744
405 0.641377
410 0.620875
415 0.734321
420 0.741801
425 0.744244
430 0.529209
435 0.587689
440 0.887344
445 0.837744
450 0.743006
455 0.782387
460 0.915253
465 0.893211
470 0.909518
475 0.797833
480 0.813115
485 0.748946
490 0.715764
495 0.816959
500 0.784193
505 0.679378
510 0.746222
515 0.776331
520 0.866301
525 0.733989
530 0.944285
535 0.788897
540 1.11078
545 1.24584
550 1.33002
555 1.65565
560 1.70815
565 2.39254
570 34.6776
575 895.515
580 1662.32
585 475.378
590 57.2781
595 7.94294
600 2.08548
Ex : 588
200 0.541651
205 0.688653
210 0.826575
215 0.656293
220 0.671626
225 0.701573
230 0.500938
235 0.53322
240 0.553543
245 0.583269
250 0.60192
255 0.565793
260 0.415409
265 0.476678
270 0.618919
275 0.561105
280 0.504989
285 0.715715
290 0.665771
295 0.656731
300 0.725113
305 0.640117
310 0.689792
315 0.642041
320 0.569547
325 0.699123
330 0.611005
335 0.580348
340 0.606243
345 0.706224
350 0.748614
355 0.575852
360 0.695822
365 0.660151
370 0.698622
375 0.68156
380 0.589378
385 0.757178
390 0.620919
395 0.677607
400 0.727492
405 0.622036
410 0.58926
415 0.769854
420 0.746793
425 0.684388
430 0.665064
435 0.737643
440 0.680375
445 0.70302
450 0.766188
455 0.759909
460 0.784048
465 0.75932
470 0.685194
475 0.837892
480 0.866028
485 0.9549
490 0.799947
495 0.986097
500 0.85322
505 0.794729
510 0.861576
515 0.990717
520 0.96199
525 0.964523
530 0.710959
535 0.871799
540 0.798077
545 0.941226
550 0.967262
555 1.43734
560 1.32375
565 1.60115
570 2.29907
575 31.061
580 738.057
585 1410.79
590 414.22
595 50.0581
600 7.27189
Ex : 593
200 0.507232
205 0.715176
210 0.590177
215 0.556274
220 0.65333
225 0.624932
230 0.650576
235 0.780366
240 0.563872
245 0.590378
250 0.714588
255 0.66056
260 0.446597
265 0.485297
270 0.634954
275 0.578861
280 0.707391
285 0.557754
290 0.624816
295 0.637159
300 0.547437
305 0.538606
310 0.581513
315 0.609459
320 0.664891
325 0.604965
330 0.66815
335 0.634765
340 0.725095
345 0.597083
350 0.610364
355 0.665889
360 0.581314
365 0.733118
370 0.500558
375 0.617625
380 0.640989
385 0.721973
390 0.707095
395 0.70901
400 0.722533
405 0.787039
410 0.638951
415 0.783795
420 0.67097
425 0.567191
430 0.73759
435 0.648078
440 0.799133
445 0.839264
450 0.756367
455 0.816839
460 0.727441
465 0.803526
470 1.06002
475 0.686965
480 0.761074
485 0.920482
490 0.629951
495 0.767799
500 0.938171
505 0.794739
510 0.745876
515 0.842361
520 0.843364
525 0.659371
530 0.939853
535 0.844534
540 0.867407
545 1.04075
550 0.995383
555 0.960385
560 0.960823
565 1.20797
570 1.8163
575 2.12016
580 26.6306
585 645.71
590 1207.11
595 352.72
600 53.0676
Ex : 598
200 0.815591
205 0.603967
210 0.642495
215 0.682238
220 0.652476
225 0.583162
230 0.557793
235 0.633778
240 0.781494
245 0.726327
250 0.680304
255 0.517421
260 0.733194
265 0.619227
270 0.574949
275 0.532975
280 0.649767
285 0.507707
290 0.714872
295 0.656215
300 0.561492
305 0.583912
310 0.559765
315 0.786089
320 0.65296
325 0.661435
330 0.656816
335 0.641416
340 0.891285
345 0.682915
350 0.858612
355 0.640016
360 0.919569
365 0.848545
370 0.724359
375 0.501542
380 0.808766
385 0.752332
390 0.805887
395 0.818416
400 0.811072
405 0.827891
410 0.628966
415 0.683597
420 0.658773
425 0.705605
430 0.850688
435 0.882137
440 0.716262
445 0.688359
450 0.832211
455 0.656507
460 0.946654
465 0.936313
470 0.732126
475 0.81611
480 0.766721
485 0.826189
490 0.87561
495 0.799462
500 0.863578
505 0.717125
510 0.74785
515 0.751855
520 0.889255
525 0.854857
530 0.840559
535 0.801442
540 0.753004
545 0.83173
550 0.789346
555 0.959926
560 0.943211
565 1.27874
570 1.3967
575 1.7399
580 1.76399
585 25.7699
590 580.398
595 1051.85
600 626.029
Ex : 603
200 0.669506
205 0.596864
210 0.673941
215 0.688256
220 0.659874
225 0.618362
230 0.65264
235 0.584792
240 0.543194
245 0.606749
250 0.672186
255 0.645904
260 0.526263
265 0.661386
270 0.490835
275 0.713714
280 0.5983
285 0.563264
290 0.654834
295 0.550725
300 0.505286
305 0.557103
310 0.731774
315 0.682752
320 0.706878
325 0.731517
330 0.710807
335 0.696933
340 0.900735
345 0.764714
350 0.799952
355 0.705742
360 0.635608
365 0.717108
370 0.54725
375 0.716466
380 0.716239
385 0.86029
390 0.783915
395 0.685851
400 0.736899
405 0.651363
410 0.777971
415 0.779957
420 0.856591
425 0.650769
430 0.776028
435 0.674552
440 0.653829
445 0.642438
450 0.709859
455 0.709388
460 0.787534
465 0.887085
470 0.820757
475 0.842273
480 0.747382
485 0.691974
490 0.901689
495 0.92854
500 0.624385
505 0.898553
510 0.838763
515 1.06448
520 0.792387
525 0.805718
530 0.787302
535 0.944097
540 0.701172
545 0.820405
550 0.749676
555 1.05824
560 1.10025
565 1.13627
570 1.05514
575 1.32132
580 1.50002
585 2.06887
590 22.2697
595 493.99
600 1006.22
