File format V 1.0
sam. 10. déc. 03:33:46 2016
Operator : 
Comments : 

=============================================
SpectroFluorometer parameters
Mode : 3D measurement
Data : Fluorescence
Phospho. : Ordinary
Spectrum : Fluorescence

Scan speed : 2400 nm/mn
Response : 100 ms
PM Voltage : 700 V
Shutter : On

Lambda Ex. Start : 203
Lambda Ex. End : 603
Lambda Ex. Step : 5
Ex. Slit : 5 nm

Lambda Em. Start : 200
Lambda Em. End : 600
Lambda Em. Step : 5
Em. Slit : 5 nm

Repetition : 1
Decal lambda em : 10
=============================================
DATA
Ex : 203
200 9.95
205 10.9886
210 14.5488
215 11.7229
220 10.386
225 10.6806
230 11.8225
235 13.0128
240 12.0327
245 14.7314
250 15.9738
255 12.5252
260 12.4314
265 17.6757
270 14.8036
275 14.6675
280 12.2787
285 14.206
290 11.096
295 14.325
300 16.9185
305 10.8495
310 14.485
315 14.427
320 13.4074
325 12.3171
330 12.8745
335 11.7015
340 20.37
345 21.8686
350 18.5556
355 12.4419
360 15.6443
365 25.9361
370 20.6809
375 18.1103
380 20.428
385 16.9823
390 16.6456
395 15.8336
400 19.4185
405 18.5281
410 20.7242
415 23.1664
420 19.1934
425 20.2314
430 23.1792
435 20.0158
440 21.2052
445 17.5336
450 21.7979
455 21.1015
460 21.8882
465 23.2441
470 19.985
475 16.9811
480 22.4456
485 20.5153
490 21.7568
495 20.0969
500 19.6739
505 19.198
510 16.2028
515 17.4485
520 14.5162
525 18.5071
530 20.1273
535 17.2229
540 13.9427
545 13.9093
550 14.9937
555 14.0887
560 15.9165
565 15.2866
570 18.7033
575 14.2364
580 13.9978
585 12.2492
590 14.8511
595 12.4581
600 17.6648
Ex : 208
200 11.1183
205 13.9726
210 12.511
215 14.9205
220 13.0958
225 14.9636
230 13.2805
235 12.0388
240 11.9002
245 16.8682
250 12.186
255 9.16341
260 14.4632
265 13.8338
270 14.1661
275 9.61629
280 12.8255
285 13.3746
290 14.9619
295 12.0295
300 15.6333
305 12.1025
310 14.704
315 20.348
320 10.6755
325 16.1522
330 15.4724
335 16.5715
340 15.1733
345 14.0449
350 18.1668
355 16.4111
360 19.143
365 16.5854
370 16.7736
375 14.8279
380 24.5957
385 19.1198
390 20.7518
395 16.3796
400 23.5445
405 18.7322
410 21.2767
415 22.1
420 16.42
425 21.3497
430 19.5984
435 24.3043
440 23.4016
445 22.1083
450 18.6989
455 22.7963
460 21.4926
465 23.6506
470 22.1321
475 22.6732
480 19.1243
485 23.1247
490 15.3453
495 17.7082
500 17.587
505 16.0104
510 16.7193
515 13.7668
520 16.9721
525 15.8989
530 14.7543
535 14.7887
540 19.0933
545 20.6974
550 17.2293
555 13.0328
560 17.1211
565 15.6798
570 14.5528
575 14.2213
580 14.1747
585 15.2886
590 14.4177
595 15.8252
600 7.11806
Ex : 213
200 10.2935
205 12.1407
210 15.8889
215 14.0076
220 16.3412
225 13.1673
230 12.0122
235 15.1782
240 16.5897
245 11.9366
250 10.4383
255 12.2106
260 11.7836
265 11.7427
270 14.3474
275 12.7577
280 11.6912
285 14.3818
290 10.4986
295 9.49838
300 14.4992
305 13.8109
310 15.2776
315 12.559
320 11.6022
325 14.2957
330 12.9392
335 14.2507
340 13.2676
345 13.5482
350 13.903
355 15.8917
360 19.5609
365 15.2601
370 16.4131
375 18.8541
380 20.5572
385 21.3279
390 15.7673
395 19.2029
400 19.7504
405 17.0093
410 19.4456
415 19.413
420 18.0481
425 21.0914
430 22.2112
435 17.3577
440 18.8836
445 22.4772
450 19.9847
455 17.6726
460 22.8834
465 22.2997
470 20.9993
475 18.0714
480 19.3479
485 19.7093
490 19.3274
495 18.1214
500 18.4415
505 17.9251
510 15.0408
515 16.6656
520 16.5786
525 16.1792
530 17.514
535 18.0721
540 18.2425
545 15.1228
550 18.8591
555 12.9197
560 12.3157
565 16.0659
570 13.7531
575 18.0321
580 15.4463
585 13.9884
590 13.0795
595 17.4303
600 16.6059
Ex : 218
200 12.4044
205 12.4569
210 15.5447
215 11.9841
220 10.4427
225 10.6628
230 13.5443
235 14.8163
240 12.2441
245 16.1829
250 11.8013
255 11.8195
260 11.4516
265 12.1057
270 14.9171
275 9.72203
280 10.5744
285 10.2776
290 13.3778
295 10.9687
300 10.2652
305 14.2983
310 10.0854
315 12.4173
320 11.6442
325 12.0374
330 14.2573
335 14.19
340 16.4769
345 15.7226
350 17.1755
355 14.8629
360 16.724
365 14.7833
370 15.9399
375 20.9183
380 15.9989
385 13.2202
390 18.3472
395 17.8689
400 22.1997
405 21.8093
410 16.7141
415 20.0289
420 19.7227
425 21.7458
430 20.7944
435 17.1941
440 18.6665
445 18.4003
450 21.4919
455 17.9887
460 19.5566
465 18.2475
470 16.0893
475 17.528
480 17.0462
485 16.016
490 16.7805
495 17.7695
500 20.3338
505 15.1516
510 19.7518
515 20.2573
520 15.5742
525 11.693
530 15.0494
535 15.5506
540 15.8174
545 10.3584
550 16.2142
555 17.0412
560 14.0678
565 21.0137
570 13.4805
575 14.3503
580 10.601
585 13.3451
590 11.1504
595 14.8637
600 18.8247
Ex : 223
200 12.4412
205 11.8533
210 12.751
215 10.623
220 20.5527
225 11.8256
230 12.7384
235 12.2229
240 14.9763
245 14.056
250 12.9786
255 15.9547
260 12.0314
265 9.14649
270 12.6133
275 10.8104
280 17.2587
285 11.0393
290 10.0991
295 12.3154
300 12.2014
305 13.0561
310 14.6238
315 11.7727
320 13.8108
325 14.0671
330 17.6524
335 15.3266
340 12.801
345 18.6491
350 14.0836
355 19.7258
360 16.2134
365 18.9241
370 17.2044
375 19.4032
380 20.1707
385 20.8251
390 17.7191
395 19.295
400 20.1104
405 18.4921
410 18.8082
415 21.7235
420 20.0375
425 19.0561
430 20.9522
435 19.9341
440 21.2104
445 17.9811
450 18.5997
455 16.8036
460 18.9586
465 22.2912
470 19.8876
475 14.0186
480 16.9888
485 19.4717
490 22.964
495 16.6301
500 14.0163
505 18.7216
510 15.1618
515 16.6472
520 17.5929
525 16.639
530 15.7454
535 15.3621
540 18.2601
545 12.4284
550 15.449
555 17.0754
560 14.7675
565 15.8598
570 13.2598
575 16.1216
580 17.2227
585 13.0704
590 12.3572
595 10.0229
600 19.3077
Ex : 228
200 8.97573
205 12.1728
210 14.7993
215 14.3755
220 10.6661
225 15.3704
230 11.9523
235 11.6846
240 10.0611
245 9.65247
250 13.328
255 15.2742
260 13.007
265 13.2916
270 12.7743
275 13.3783
280 14.1188
285 12.0048
290 12.7195
295 11.0793
300 11.6186
305 11.4528
310 12.6784
315 10.7226
320 10.0514
325 14.5057
330 14.1956
335 11.0973
340 10.3979
345 16.7389
350 17.0729
355 19.7859
360 14.3341
365 15.1154
370 16.2574
375 14.3433
380 15.421
385 17.6525
390 16.0052
395 18.7678
400 17.4679
405 14.7316
410 19.4949
415 16.224
420 17.9697
425 23.2485
430 23.9098
435 18.5983
440 14.9205
445 17.0572
450 14.5269
455 19.3549
460 16.1716
465 20.9865
470 21.5283
475 16.764
480 17.7535
485 15.6414
490 13.9652
495 15.3109
500 18.1154
505 13.125
510 10.7656
515 12.0669
520 17.5358
525 16.6304
530 12.4348
535 14.363
540 16.0824
545 16.4459
550 13.9419
555 16.365
560 13.4332
565 9.14276
570 13.6598
575 15.804
580 12.2136
585 13.2458
590 10.9556
595 10.5882
600 21.883
Ex : 233
200 8.78924
205 9.76059
210 11.7452
215 10.6295
220 11.4665
225 12.7461
230 10.4574
235 8.82984
240 12.9313
245 12.0576
250 9.0151
255 9.09796
260 10.8923
265 10.4944
270 13.0971
275 9.40263
280 9.89137
285 8.25995
290 9.79393
295 11.8288
300 11.4033
305 10.7369
310 7.16414
315 9.61706
320 8.9252
325 9.56007
330 11.9906
335 11.3648
340 12.1242
345 11.3318
350 13.5454
355 14.1393
360 13.4265
365 14.3717
370 14.1989
375 16.1975
380 17.6274
385 19.7381
390 18.3816
395 17.3191
400 18.7883
405 20.9388
410 18.559
415 15.6197
420 13.7021
425 17.26
430 19.084
435 18.3194
440 16.5662
445 15.6014
450 17.4018
455 19.2497
460 15.91
465 15.6028
470 15.6953
475 16.9005
480 14.1471
485 12.738
490 12.347
495 16.5485
500 14.8217
505 13.9742
510 12.0433
515 17.249
520 14.9717
525 12.9581
530 11.3831
535 13.4744
540 10.7045
545 13.0368
550 11.3753
555 12.3615
560 12.3932
565 11.8641
570 13.5618
575 9.61516
580 12.1466
585 14.609
590 9.09105
595 10.7342
600 12.7422
Ex : 238
200 8.5041
205 9.86609
210 9.28665
215 9.97742
220 6.71262
225 11.5167
230 9.63103
235 9.44892
240 11.31
245 7.20848
250 9.78681
255 11.5304
260 8.34099
265 9.50682
270 9.70219
275 12.105
280 8.988
285 8.87729
290 11.0229
295 7.9027
300 9.72541
305 9.93287
310 7.38175
315 13.4953
320 11.1345
325 11.0928
330 11.0609
335 11.8969
340 12.603
345 14.0484
350 13.671
355 13.4337
360 12.5403
365 13.0003
370 13.0809
375 13.8878
380 18.4637
385 14.9584
390 13.6195
395 16.1647
400 17.0421
405 15.4494
410 14.0582
415 16.0449
420 14.4026
425 16.4931
430 14.2515
435 15.8166
440 13.5368
445 14.1607
450 16.2284
455 12.6455
460 14.8083
465 16.6017
470 14.1591
475 14.098
480 13.0004
485 16.1976
490 15.9173
495 10.4554
500 14.4602
505 16.4286
510 11.7308
515 11.6929
520 12.4136
525 14.1411
530 14.3841
535 11.9284
540 11.0912
545 12.4514
550 11.9079
555 10.321
560 9.653
565 11.9856
570 11.5333
575 8.34377
580 12.5652
585 10.8335
590 8.96476
595 12.8573
600 9.58665
Ex : 243
200 10.3053
205 8.44268
210 10.9892
215 9.63929
220 10.6944
225 8.94967
230 6.62088
235 8.00131
240 10.5037
245 7.54962
250 9.65323
255 8.13855
260 6.06487
265 9.09606
270 8.76459
275 8.6789
280 14.265
285 10.1654
290 9.27866
295 7.28293
300 8.35989
305 7.80441
310 7.95099
315 6.95297
320 7.15193
325 9.39506
330 9.92805
335 8.60523
340 9.32269
345 11.9376
350 10.5486
355 10.9876
360 11.8136
365 12.824
370 13.3045
375 11.7524
380 12.0226
385 13.6165
390 13.5116
395 13.6884
400 13.9941
405 11.6647
410 11.503
415 16.3152
420 13.4212
425 16.7388
430 12.9012
435 13.0174
440 13.1081
445 14.4295
450 14.4531
455 12.7556
460 14.3806
465 17.934
470 14.7442
475 10.8396
480 11.3003
485 13.2225
490 11.4064
495 12.1499
500 10.251
505 10.7145
510 11.8636
515 8.74449
520 7.21127
525 10.9584
530 10.075
535 13.7701
540 9.08401
545 6.93966
550 9.77483
555 9.78582
560 12.2682
565 10.3141
570 8.3945
575 9.05165
580 10.5182
585 8.70767
590 8.96988
595 10.1739
600 4.95576
Ex : 248
200 8.59292
205 7.76234
210 5.96195
215 7.24223
220 6.36162
225 6.3134
230 7.9343
235 5.22933
240 5.63962
245 6.69796
250 6.94912
255 8.50837
260 8.1023
265 7.18524
270 7.41853
275 5.67414
280 8.60301
285 6.06803
290 6.81943
295 5.69734
300 5.64478
305 6.05144
310 6.74344
315 7.8052
320 6.23971
325 7.39588
330 7.6042
335 9.26547
340 8.92214
345 8.24044
350 8.16632
355 10.8827
360 7.62509
365 9.13018
370 9.69923
375 10.3417
380 9.98034
385 11.0596
390 12.4944
395 11.8085
400 10.7966
405 8.87996
410 10.3342
415 11.9732
420 9.91572
425 11.2445
430 12.5181
435 10.4038
440 13.1718
445 11.6485
450 10.8117
455 10.7971
460 9.77874
465 11.9565
470 11.4998
475 11.8982
480 14.169
485 11.3022
490 11.2299
495 7.96497
500 8.5119
505 7.84713
510 7.27692
515 8.75255
520 8.98786
525 8.68154
530 8.26298
535 8.06029
540 8.86141
545 7.58729
550 8.36589
555 9.52218
560 7.6794
565 7.91908
570 7.5999
575 7.65278
580 8.33947
585 6.67251
590 8.72195
595 5.98298
600 6.35254
Ex : 253
200 5.47087
205 4.70643
210 7.47968
215 5.0309
220 6.01936
225 6.12565
230 5.73571
235 7.15601
240 5.98174
245 4.48473
250 4.71091
255 4.4733
260 6.48929
265 6.20121
270 5.55726
275 5.93467
280 6.98417
285 5.06427
290 5.87142
295 5.6291
300 5.25014
305 6.77193
310 4.44512
315 5.13144
320 5.42735
325 5.129
330 5.94027
335 6.15529
340 7.87025
345 7.3625
350 8.46717
355 7.60251
360 8.78585
365 9.37498
370 8.4326
375 8.71659
380 8.60246
385 9.84096
390 9.34233
395 9.45079
400 8.36602
405 8.15686
410 9.61302
415 11.3645
420 10.6848
425 8.96569
430 9.66674
435 8.74434
440 9.40341
445 11.1755
450 7.91195
455 8.88265
460 9.77912
465 8.40406
470 8.48801
475 8.12254
480 8.97721
485 7.52991
490 8.86094
495 7.94272
500 8.50484
505 9.82102
510 10.6362
515 6.92574
520 6.37272
525 6.76826
530 5.25756
535 7.45785
540 7.58253
545 6.42866
550 7.47667
555 5.60627
560 7.12549
565 6.46257
570 6.71675
575 6.25047
580 8.29753
585 6.62725
590 6.58923
595 5.63281
600 0.640993
Ex : 258
200 4.56023
205 4.81335
210 4.86798
215 5.38995
220 5.0078
225 4.8064
230 5.67769
235 3.9847
240 4.18634
245 4.73633
250 4.58134
255 5.32577
260 4.69
265 4.91596
270 4.7321
275 5.24337
280 4.44088
285 5.2616
290 4.5677
295 4.77391
300 4.21936
305 3.33721
310 3.96311
315 4.09659
320 4.73845
325 5.45206
330 5.61097
335 5.02261
340 5.44989
345 7.50887
350 6.10134
355 6.35607
360 5.30844
365 5.25327
370 6.55078
375 6.56085
380 6.3468
385 6.63422
390 7.54578
395 9.11727
400 7.57963
405 9.74725
410 8.986
415 7.06891
420 9.20424
425 9.46976
430 6.82231
435 7.18311
440 8.46244
445 8.52861
450 7.6162
455 7.37015
460 8.11047
465 7.86572
470 8.35848
475 5.48764
480 7.67174
485 6.16467
490 7.85685
495 7.89843
500 6.50058
505 5.52524
510 6.71584
515 7.33227
520 5.90778
525 5.52728
530 5.5739
535 5.53727
540 4.71354
545 4.88496
550 5.45528
555 4.85103
560 5.38176
565 4.75693
570 4.85815
575 6.08987
580 4.90588
585 4.39141
590 5.2221
595 5.15625
600 3.10903
Ex : 263
200 3.38381
205 4.56886
210 4.36899
215 3.89192
220 3.6658
225 3.54438
230 3.26342
235 3.31106
240 3.17122
245 3.50616
250 3.41869
255 3.08468
260 3.82675
265 3.55093
270 2.97886
275 4.24171
280 3.15185
285 4.20193
290 3.42601
295 3.88348
300 3.56099
305 3.37677
310 3.96039
315 3.97697
320 3.37798
325 3.53036
330 5.20037
335 3.85815
340 5.18439
345 5.33691
350 3.80239
355 4.96922
360 4.52155
365 5.36541
370 5.90932
375 5.49351
380 5.15035
385 5.12518
390 5.14724
395 6.53074
400 5.9776
405 7.68241
410 6.40669
415 6.61663
420 6.92198
425 7.36311
430 7.23991
435 6.83081
440 5.85524
445 6.00316
450 6.535
455 5.74965
460 6.54649
465 6.67268
470 5.73103
475 5.42168
480 6.13098
485 4.70128
490 5.18261
495 4.93268
500 3.78531
505 4.32688
510 3.89609
515 5.41421
520 5.16301
525 5.54
530 6.3336
535 4.77995
540 4.13842
545 5.50203
550 3.94674
555 4.74339
560 4.65373
565 3.39471
570 3.69977
575 3.86312
580 4.25373
585 3.99173
590 3.10765
595 3.4176
600 0.38891
Ex : 268
200 2.66168
205 3.29409
210 3.32286
215 3.01723
220 3.36417
225 2.47862
230 2.44691
235 2.79423
240 1.94508
245 3.0489
250 3.26787
255 2.69366
260 2.65762
265 2.53329
270 2.72014
275 2.57986
280 2.45344
285 3.10083
290 3.50668
295 3.23198
300 2.75624
305 3.39386
310 2.92652
315 2.90631
320 3.13158
325 2.79832
330 2.82724
335 3.61349
340 4.06525
345 3.38945
350 3.94276
355 3.20343
360 3.05539
365 4.17769
370 4.381
375 4.7452
380 5.09998
385 4.99603
390 4.92434
395 5.06714
400 4.61157
405 4.97043
410 5.55323
415 5.9244
420 5.19483
425 4.26331
430 4.90683
435 4.43206
440 5.7452
445 4.30077
450 4.87627
455 5.42587
460 5.41609
465 5.50491
470 5.14067
475 4.95658
480 4.58433
485 4.44894
490 4.63266
495 4.12304
500 4.0266
505 4.37989
510 3.62045
515 3.9506
520 3.9673
525 3.33804
530 3.97838
535 4.43299
540 4.2613
545 3.58356
550 2.8789
555 3.91994
560 3.28821
565 2.10721
570 3.19072
575 3.18696
580 2.80049
585 3.95034
590 4.41341
595 3.14418
600 4.69553
Ex : 273
200 3.02237
205 2.21705
210 1.75412
215 1.99212
220 2.04122
225 2.77728
230 2.71114
235 2.12061
240 2.02959
245 2.27642
250 2.2296
255 2.23154
260 1.79813
265 2.28151
270 2.14499
275 2.02145
280 1.92845
285 1.43412
290 1.82771
295 1.97874
300 2.08852
305 2.13739
310 1.9555
315 2.4551
320 3.21215
325 2.62777
330 2.61057
335 2.80982
340 3.77953
345 4.56238
350 3.35487
355 3.43959
360 3.59667
365 3.32264
370 3.29672
375 3.33219
380 4.06839
385 4.07324
390 4.32317
395 4.32246
400 4.0971
405 4.16709
410 4.56773
415 5.14285
420 4.32108
425 4.36252
430 4.45844
435 4.19836
440 4.05208
445 4.56761
450 4.48415
455 3.1516
460 3.97188
465 4.47728
470 4.48494
475 4.34022
480 3.98678
485 3.32002
490 3.25466
495 3.54865
500 3.16165
505 3.50292
510 4.19664
515 3.12709
520 3.03752
525 2.95467
530 3.02738
535 2.65797
540 3.13749
545 2.80445
550 3.11076
555 2.87105
560 2.54264
565 2.35268
570 2.68918
575 3.59093
580 2.23731
585 2.58732
590 2.58111
595 2.82823
600 2.37783
Ex : 278
200 1.90076
205 2.31644
210 2.01126
215 1.80678
220 1.62693
225 2.01982
230 1.58465
235 1.77412
240 1.50554
245 1.70323
250 1.45611
255 1.82095
260 1.44776
265 2.11467
270 2.86974
275 2.43794
280 1.89485
285 2.14284
290 1.80915
295 2.36493
300 1.78112
305 1.744
310 2.12271
315 1.99207
320 2.36189
325 2.11259
330 2.33155
335 2.28189
340 2.17406
345 2.61265
350 2.56501
355 2.52889
360 2.43304
365 2.61757
370 2.82519
375 3.48133
380 3.57579
385 3.95651
390 4.63377
395 3.54383
400 3.54194
405 3.71416
410 3.73928
415 3.31139
420 4.01739
425 4.64362
430 3.91759
435 4.30941
440 3.18536
445 3.88314
450 3.96029
455 3.02728
460 3.15206
465 3.64492
470 3.04576
475 2.93636
480 2.97492
485 2.77681
490 2.2377
495 3.01248
500 2.99867
505 2.74928
510 3.01072
515 2.60918
520 2.54473
525 2.21139
530 2.12375
535 2.70984
540 2.34167
545 2.37606
550 2.23363
555 2.47746
560 2.40703
565 1.89508
570 1.87746
575 2.29103
580 2.1203
585 2.16185
590 1.82702
595 2.06866
600 1.86488
Ex : 283
200 1.36673
205 1.69373
210 1.48474
215 1.42057
220 1.63469
225 1.62632
230 1.68954
235 1.72988
240 1.34018
245 1.95341
250 1.54588
255 1.84762
260 1.37804
265 1.57175
270 1.33525
275 1.57159
280 1.638
285 1.77539
290 1.59521
295 1.3982
300 1.49041
305 1.57885
310 1.50013
315 1.39692
320 1.93309
325 1.46329
330 1.88242
335 2.0169
340 1.97691
345 2.29011
350 2.37369
355 2.40486
360 2.62391
365 2.48884
370 2.65907
375 2.4106
380 2.94143
385 2.64743
390 3.11727
395 3.38132
400 3.10009
405 3.18278
410 3.18286
415 3.44682
420 3.3598
425 3.93
430 3.58204
435 3.6994
440 3.15033
445 2.96271
450 2.50021
455 3.22719
460 2.98232
465 2.97296
470 2.45725
475 2.68487
480 2.53743
485 2.76909
490 2.1005
495 2.8199
500 2.78043
505 1.97631
510 2.44069
515 2.30846
520 2.22808
525 1.90016
530 1.95584
535 1.90401
540 1.80386
545 2.37607
550 2.22958
555 2.00554
560 2.577
565 2.23017
570 2.12775
575 1.63114
580 1.56727
585 1.23175
590 1.42366
595 1.67337
600 0.190423
Ex : 288
200 1.42476
205 1.02135
210 0.996694
215 1.04034
220 1.12122
225 1.39435
230 1.19805
235 1.14683
240 1.29177
245 1.20448
250 1.65689
255 1.32706
260 1.49639
265 1.4284
270 1.1389
275 1.3793
280 1.4242
285 1.4455
290 1.01915
295 1.44029
300 1.26126
305 1.46588
310 0.988113
315 1.11636
320 1.59718
325 1.99754
330 1.96408
335 1.78202
340 1.57343
345 3.08061
350 2.09907
355 2.17732
360 2.43981
365 2.0836
370 2.63436
375 3.06481
380 2.43298
385 2.47371
390 2.09354
395 2.38411
400 3.29252
405 2.86437
410 3.03353
415 3.02446
420 2.68802
425 2.95541
430 3.13101
435 2.85961
440 3.03573
445 3.06158
450 2.92234
455 2.71793
460 3.23598
465 2.34449
470 2.19598
475 2.40299
480 2.27382
485 1.90278
490 1.84647
495 1.93925
500 1.96826
505 2.07656
510 2.01584
515 1.86702
520 1.62613
525 2.40485
530 1.72909
535 1.69734
540 1.36407
545 1.78429
550 1.37698
555 1.77603
560 1.94438
565 1.77439
570 2.04257
575 1.86869
580 1.56578
585 1.5841
590 1.5086
595 1.06266
600 3.53088
Ex : 293
200 1.01007
205 1.13447
210 1.40378
215 1.3442
220 1.06412
225 1.08715
230 1.54114
235 1.0624
240 0.923852
245 1.17652
250 0.827899
255 1.07548
260 1.13077
265 1.27824
270 0.819958
275 0.918451
280 1.41843
285 1.39817
290 1.23884
295 1.19857
300 1.39969
305 0.995196
310 1.26474
315 1.02399
320 0.90794
325 1.25007
330 1.09717
335 1.57877
340 1.99672
345 1.89498
350 1.65495
355 1.89455
360 2.33783
365 1.72069
370 2.52358
375 2.40397
380 2.23746
385 2.18543
390 2.9555
395 2.67826
400 2.51679
405 2.63478
410 2.61448
415 2.60718
420 2.78192
425 2.76231
430 2.48546
435 2.75962
440 2.95956
445 2.36269
450 2.47767
455 2.29194
460 2.26009
465 2.22448
470 2.17103
475 1.9146
480 1.91616
485 1.77354
490 1.62813
495 1.66242
500 1.81197
505 1.51579
510 1.77625
515 1.76499
520 1.66734
525 1.6699
530 1.10915
535 1.50224
540 1.24291
545 1.58285
550 1.13314
555 1.05675
560 1.27011
565 1.21314
570 1.10355
575 1.70432
580 1.3697
585 1.5129
590 1.19101
595 0.926173
600 1.4347
Ex : 298
200 0.86563
205 0.937711
210 0.636426
215 0.784315
220 0.890782
225 0.924501
230 0.919242
235 1.00114
240 1.21479
245 0.939819
250 0.757787
255 0.955567
260 1.03369
265 1.00205
270 0.955371
275 0.872056
280 0.816145
285 1.09221
290 1.15784
295 1.05383
300 0.819102
305 0.872181
310 1.23754
315 0.991997
320 1.1104
325 1.21266
330 1.69228
335 1.90749
340 1.83503
345 1.56265
350 1.60792
355 2.07782
360 1.86992
365 1.96497
370 1.7037
375 1.93577
380 2.13216
385 2.24587
390 2.17156
395 2.25978
400 2.20602
405 2.54155
410 2.20617
415 2.41109
420 2.51612
425 2.5264
430 2.20982
435 2.66496
440 2.2867
445 2.34871
450 2.34117
455 2.1571
460 1.77797
465 2.13508
470 1.9889
475 1.63688
480 2.11469
485 1.95623
490 1.70129
495 1.77664
500 1.41791
505 1.71203
510 1.52
515 1.54402
520 1.67961
525 1.38862
530 1.11381
535 1.28064
540 1.18788
545 1.2358
550 0.999653
555 1.15572
560 0.870798
565 1.44313
570 0.888558
575 0.891842
580 1.381
585 1.22202
590 1.63446
595 1.52406
600 2.28199
Ex : 303
200 0.842344
205 0.841674
210 0.797344
215 0.913304
220 0.790075
225 1.04803
230 0.796467
235 0.91909
240 0.896683
245 1.06222
250 0.841777
255 1.0357
260 1.19376
265 0.611286
270 0.923551
275 0.786602
280 0.663545
285 0.769262
290 0.916939
295 0.794726
300 0.937813
305 0.792262
310 0.7841
315 0.9409
320 1.11351
325 1.28182
330 1.56228
335 1.21039
340 1.36313
345 1.73424
350 1.86222
355 1.63077
360 1.80971
365 2.11882
370 1.95247
375 2.38829
380 1.99052
385 2.31612
390 2.15963
395 2.16503
400 2.00759
405 2.13497
410 2.30304
415 2.87042
420 2.37445
425 2.00405
430 1.94563
435 2.04532
440 1.93149
445 1.86122
450 1.8523
455 1.8119
460 2.12905
465 2.01688
470 1.78852
475 1.77021
480 1.53168
485 1.68897
490 1.50257
495 1.40172
500 1.37937
505 1.43872
510 1.1189
515 1.03302
520 1.40431
525 1.22418
530 1.01921
535 1.0575
540 1.07058
545 0.980759
550 0.985994
555 1.19365
560 0.962065
565 0.943149
570 0.929204
575 0.983222
580 1.02679
585 1.03786
590 0.945993
595 1.25187
600 1.18739
Ex : 308
200 0.698131
205 0.609117
210 0.817445
215 0.719448
220 0.644422
225 0.910121
230 0.916516
235 0.741625
240 0.586869
245 0.737327
250 0.634737
255 0.532682
260 0.909193
265 0.765014
270 0.700032
275 0.776903
280 0.603058
285 0.715211
290 1.03587
295 0.70676
300 0.977411
305 1.14875
310 0.765052
315 0.6343
320 0.7092
325 1.15083
330 1.55346
335 1.64931
340 1.56334
345 1.47859
350 1.4273
355 1.53513
360 1.70737
365 1.76747
370 1.62434
375 1.84289
380 2.01085
385 2.02479
390 2.24519
395 2.17399
400 2.19489
405 1.91477
410 2.16667
415 2.41466
420 1.93542
425 1.72901
430 1.91343
435 1.73742
440 1.76966
445 1.90577
450 1.98294
455 1.8178
460 1.99934
465 1.96885
470 1.74487
475 1.6079
480 1.47832
485 1.71483
490 1.42983
495 1.12638
500 1.26318
505 1.26754
510 1.31041
515 1.24886
520 1.12145
525 1.11642
530 0.963329
535 1.00634
540 1.03766
545 0.967027
550 1.05599
555 0.755574
560 0.671917
565 0.889548
570 0.749048
575 0.766511
580 0.747352
585 0.885594
590 0.647132
595 0.96176
600 0.311364
Ex : 313
200 0.828159
205 0.592348
210 0.537105
215 0.575651
220 0.550543
225 0.690204
230 0.690954
235 0.666161
240 0.820979
245 0.595808
250 0.537625
255 0.640094
260 0.742373
265 0.578736
270 0.578514
275 0.693631
280 0.565294
285 0.457328
290 0.625326
295 0.61577
300 0.775644
305 1.08302
310 1.04125
315 0.710745
320 1.02712
325 1.21833
330 1.51365
335 1.53478
340 1.6283
345 1.49717
350 1.55533
355 1.70873
360 1.59669
365 1.99332
370 1.95867
375 2.16401
380 2.10556
385 2.098
390 2.54007
395 2.66726
400 2.28542
405 2.42916
410 2.63787
415 2.63177
420 2.57213
425 2.52658
430 2.24014
435 2.43486
440 2.253
445 2.39711
450 2.2234
455 2.27573
460 1.87248
465 2.08672
470 1.78012
475 1.6101
480 1.85324
485 1.56054
490 1.37465
495 1.24464
500 1.14177
505 1.2817
510 1.15813
515 1.07509
520 1.10292
525 0.994758
530 0.860066
535 0.834178
540 0.84011
545 0.866868
550 0.956286
555 0.828589
560 0.725555
565 0.666466
570 0.721168
575 0.653316
580 0.744395
585 0.779728
590 0.716882
595 0.665147
600 0.0756912
Ex : 318
200 0.720216
205 0.500926
210 0.496374
215 0.605367
220 0.664433
225 0.705926
230 0.623241
235 0.70806
240 0.571785
245 0.53749
250 0.506788
255 0.643351
260 0.716022
265 0.69477
270 0.590317
275 0.575037
280 0.61762
285 0.580141
290 0.432347
295 0.479535
300 0.561377
305 0.574892
310 1.15927
315 3.89768
320 2.70092
325 1.97215
330 2.19798
335 2.45969
340 2.78753
345 3.56001
350 4.07025
355 4.66713
360 4.98664
365 6.316
370 7.3075
375 8.68752
380 8.92025
385 9.85015
390 11.2714
395 12.1416
400 12.2469
405 12.6112
410 12.0401
415 13.264
420 11.9852
425 11.5957
430 11.9243
435 11.7484
440 10.9158
445 10.3428
450 10.593
455 9.46968
460 8.73657
465 7.92217
470 7.49345
475 6.57054
480 6.08213
485 5.66049
490 5.21353
495 4.55122
500 4.12652
505 3.63641
510 3.37113
515 2.9908
520 2.673
525 2.45861
530 2.08137
535 2.3733
540 2.01786
545 1.77906
550 1.45235
555 1.45864
560 1.22719
565 1.23396
570 0.842477
575 0.876913
580 0.971825
585 1.07019
590 0.81718
595 0.674796
600 0.456591
Ex : 323
200 0.502198
205 0.555503
210 0.422317
215 0.572939
220 0.472416
225 0.469075
230 0.612639
235 0.598226
240 0.486234
245 0.495494
250 0.475469
255 0.580549
260 0.533592
265 0.535234
270 0.662743
275 0.471276
280 0.74718
285 0.499168
290 0.634865
295 0.53064
300 0.541095
305 0.720162
310 0.851628
315 28.0593
320 122.857
325 51.3903
330 9.73359
335 5.98294
340 6.51415
345 7.78229
350 10.6065
355 14.1436
360 16.2984
365 18.735
370 22.796
375 25.9843
380 29.1749
385 33.6987
390 35.9441
395 38.8401
400 40.9714
405 41.8584
410 42.1454
415 42.8261
420 42.0744
425 41.4652
430 39.2751
435 38.3372
440 37.1935
445 35.7252
450 32.9123
455 30.7443
460 28.8887
465 26.8775
470 24.9351
475 22.6096
480 20.4254
485 18.6764
490 16.9172
495 15.5395
500 13.1951
505 11.602
510 10.7441
515 9.68083
520 8.08069
525 7.39279
530 6.59472
535 5.46474
540 5.19739
545 4.25276
550 3.81082
555 3.52919
560 3.24512
565 2.85629
570 2.28395
575 2.13325
580 1.59506
585 1.40468
590 1.01899
595 1.01766
600 1.70769
Ex : 328
200 0.684836
205 0.522726
210 0.53166
215 0.540043
220 0.578526
225 0.553987
230 0.603055
235 0.548496
240 0.602164
245 0.543802
250 0.556313
255 0.425664
260 0.50827
265 0.553238
270 0.610662
275 0.575082
280 0.656662
285 0.707038
290 0.685684
295 0.744154
300 0.58085
305 0.680526
310 0.879211
315 7.89527
320 284.037
325 674.719
330 196.883
335 28.7481
340 10.7294
345 9.56844
350 11.5684
355 15.153
360 19.4693
365 23.0509
370 24.5552
375 28.3966
380 31.6252
385 35.5229
390 39.0994
395 41.2106
400 42.8128
405 43.8682
410 46.2386
415 46.71
420 46.319
425 44.2077
430 42.2276
435 40.5315
440 40.0741
445 38.2416
450 37.4162
455 33.9424
460 31.8469
465 29.7755
470 27.3349
475 25.892
480 23.4871
485 21.1582
490 19.3749
495 17.3219
500 15.8593
505 13.5174
510 12.4228
515 11.064
520 9.68754
525 8.78195
530 7.46841
535 6.6416
540 6.06093
545 5.43441
550 4.99801
555 4.47146
560 3.57682
565 3.32314
570 2.73462
575 2.61191
580 2.09895
585 1.91651
590 1.29655
595 1.34441
600 1.60246
Ex : 333
200 0.522906
205 0.431055
210 0.71726
215 0.417047
220 0.509557
225 0.642149
230 0.704124
235 0.556963
240 0.549745
245 0.503067
250 0.501162
255 0.587807
260 0.676991
265 0.561413
270 0.584669
275 0.707547
280 0.685538
285 0.650161
290 0.787007
295 0.670835
300 0.710995
305 0.830246
310 0.86388
315 1.09666
320 40.0165
325 798.909
330 1371.08
335 349.809
340 47.2684
345 12.6103
350 8.92629
355 9.54888
360 12.7655
365 17.3566
370 17.9165
375 18.0166
380 19.847
385 23.3665
390 26.7686
395 28.8148
400 28.9106
405 29.5439
410 31.7283
415 32.7697
420 31.8405
425 31.1935
430 29.8459
435 28.3718
440 27.8183
445 26.6739
450 25.2162
455 23.5997
460 22.4002
465 20.9633
470 19.5699
475 17.9966
480 16.8848
485 15.9974
490 14.4226
495 12.9534
500 12.1074
505 10.7202
510 9.67821
515 8.94845
520 7.99292
525 7.5777
530 7.31927
535 5.86922
540 5.21826
545 4.87064
550 4.3043
555 4.41242
560 3.86222
565 3.39368
570 2.92918
575 2.23287
580 1.94628
585 1.91861
590 1.80591
595 1.65745
600 1.39036
Ex : 338
200 0.509745
205 0.602986
210 0.611967
215 0.550526
220 0.593293
225 0.707126
230 0.53753
235 0.463948
240 0.62287
245 0.638925
250 0.504779
255 0.512085
260 0.586951
265 0.566083
270 0.565232
275 0.581822
280 0.683776
285 0.690484
290 0.70683
295 0.629272
300 0.827902
305 1.00907
310 0.930689
315 1.20567
320 1.90737
325 74.4427
330 1226.72
335 1822.39
340 441.076
345 57.4464
350 13.135
355 8.09237
360 7.33944
365 9.33749
370 13.5894
375 14.1076
380 13.5276
385 15.4261
390 18.8092
395 20.2498
400 20.3669
405 21.3173
410 23.6072
415 25.8746
420 25.2029
425 23.8099
430 21.9391
435 22.4723
440 22.9072
445 22.2029
450 20.2207
455 19.3079
460 18.0496
465 16.3591
470 15.9149
475 14.9581
480 14.0227
485 12.5038
490 12.3343
495 11.0895
500 10.1191
505 9.42713
510 8.38169
515 7.87987
520 7.32624
525 6.97171
530 5.94773
535 5.52676
540 5.35892
545 4.92175
550 4.53691
555 4.11367
560 3.59591
565 3.31308
570 2.92422
575 2.55335
580 2.04142
585 1.99171
590 1.59064
595 1.55034
600 1.3539
Ex : 343
200 0.560808
205 0.480023
210 0.473217
215 0.447442
220 0.438262
225 0.5244
230 0.61845
235 0.557305
240 0.513178
245 0.526962
250 0.545183
255 0.564628
260 0.594458
265 0.577464
270 0.517799
275 0.596671
280 0.706669
285 0.59922
290 0.647987
295 0.648656
300 0.792028
305 0.766732
310 0.841976
315 0.965448
320 1.42699
325 2.71434
330 88.092
335 1457.87
340 2134.85
345 510.465
350 65.1261
355 13.4502
360 7.18698
365 5.99626
370 7.15701
375 11.5352
380 13.6723
385 13.6319
390 16.7813
395 18.2093
400 17.6621
405 18.5165
410 21.1422
415 23.4568
420 24.1204
425 22.6656
430 21.1989
435 21.6083
440 21.8564
445 21.3551
450 20.1995
455 18.6682
460 16.9717
465 16.3562
470 16.0267
475 14.9638
480 13.6363
485 12.4394
490 11.9925
495 10.9702
500 10.3913
505 9.25483
510 8.4767
515 7.97849
520 6.92922
525 6.44826
530 6.15109
535 5.6169
540 4.99918
545 4.71936
550 4.26272
555 3.63692
560 3.46126
565 3.19338
570 2.80687
575 2.41346
580 2.36932
585 1.98423
590 1.52368
595 1.48505
600 2.84487
Ex : 348
200 0.399546
205 0.4374
210 0.457679
215 0.582173
220 0.554952
225 0.447552
230 0.394586
235 0.515125
240 0.443632
245 0.495494
250 0.600204
255 0.584937
260 0.472502
265 0.583148
270 0.548806
275 0.591896
280 0.461941
285 0.702255
290 0.69781
295 0.58382
300 0.694598
305 0.758996
310 0.893838
315 0.957483
320 1.1297
325 1.6056
330 3.01711
335 93.9202
340 1542.49
345 2356.49
350 605.33
355 76.0739
360 14.3227
365 7.09368
370 5.55164
375 6.3341
380 10.5707
385 15.8458
390 19.4501
395 19.8184
400 18.8002
405 20.2716
410 24.0594
415 27.9704
420 28.1812
425 25.2282
430 24.2726
435 24.3
440 24.9112
445 24.4015
450 22.9077
455 20.7384
460 19.1279
465 18.4552
470 17.1996
475 16.4157
480 14.9597
485 13.9655
490 12.2707
495 11.4242
500 10.5692
505 9.87949
510 8.98093
515 8.16319
520 7.33229
525 6.57893
530 6.1795
535 5.45329
540 5.24039
545 4.93535
550 4.28762
555 4.13449
560 3.97841
565 3.25944
570 2.92533
575 2.57792
580 1.95551
585 1.8314
590 1.59565
595 1.31203
600 1.01959
Ex : 353
200 0.420612
205 0.364676
210 0.430719
215 0.470307
220 0.476493
225 0.507472
230 0.440497
235 0.428286
240 0.484353
245 0.51214
250 0.458887
255 0.457039
260 0.468915
265 0.451924
270 0.61814
275 0.604441
280 0.688141
285 0.511699
290 0.564514
295 0.606958
300 0.657445
305 0.728786
310 0.738454
315 0.822341
320 0.953985
325 1.25812
330 2.06433
335 3.39478
340 104.816
345 1705.91
350 2504.37
355 620.437
360 78.0057
365 14.7759
370 6.96335
375 5.7355
380 6.88971
385 13.0157
390 21.7773
395 23.1744
400 21.9131
405 21.2684
410 25.8231
415 31.0615
420 31.6628
425 27.9808
430 25.9686
435 26.524
440 27.493
445 26.7785
450 24.9554
455 22.1646
460 20.177
465 19.7098
470 18.1168
475 17.2752
480 16.0295
485 14.8791
490 13.226
495 11.9025
500 11.198
505 10.0739
510 9.42914
515 8.4846
520 7.84936
525 6.90815
530 6.59045
535 5.95208
540 5.82363
545 4.9988
550 4.23445
555 4.24519
560 3.72774
565 3.41013
570 2.96731
575 2.43478
580 2.07569
585 1.86945
590 1.49025
595 1.5692
600 1.51522
Ex : 358
200 0.406614
205 0.471417
210 0.50737
215 0.360588
220 0.346629
225 0.490914
230 0.478024
235 0.487983
240 0.351515
245 0.487884
250 0.572846
255 0.466774
260 0.505424
265 0.50265
270 0.603362
275 0.640525
280 0.470274
285 0.500585
290 0.597545
295 0.611109
300 0.705539
305 0.64812
310 0.610074
315 0.755894
320 0.836222
325 1.096
330 1.35885
335 2.10731
340 3.71683
345 105.499
350 1756.63
355 2711.43
360 682.094
365 85.2384
370 15.4509
375 7.32354
380 6.8543
385 9.54746
390 16.6059
395 21.8094
400 20.7725
405 20.5006
410 23.9269
415 28.3409
420 28.5417
425 25.5578
430 24.1327
435 25.1433
440 26.0668
445 25.6913
450 23.7293
455 21.8545
460 20.1055
465 19.3167
470 18.4366
475 17.4965
480 16.0059
485 14.6019
490 13.8047
495 12.6349
500 11.7323
505 10.5539
510 9.75605
515 8.83105
520 8.0625
525 7.34796
530 6.49825
535 6.02581
540 5.50474
545 5.02743
550 4.54236
555 4.17537
560 3.6824
565 3.19892
570 2.79682
575 2.51809
580 2.25536
585 2.00921
590 1.62891
595 1.26765
600 1.67125
Ex : 363
200 0.423191
205 0.438814
210 0.494724
215 0.355537
220 0.458901
225 0.494351
230 0.45983
235 0.521985
240 0.527005
245 0.448628
250 0.499065
255 0.54889
260 0.403058
265 0.477715
270 0.508216
275 0.542833
280 0.522856
285 0.470841
290 0.461536
295 0.468135
300 0.640074
305 0.533012
310 0.701703
315 0.645691
320 0.695694
325 0.882633
330 1.15391
335 1.5895
340 2.08538
345 3.71367
350 105.333
355 1839.68
360 2951.95
365 766.806
370 95.5296
375 17.0411
380 8.68548
385 10.8436
390 16.0287
395 18.4144
400 21.2014
405 23.118
410 27.4802
415 30.6423
420 30.3492
425 28.0117
430 27.2134
435 27.529
440 28.8193
445 28.4589
450 26.2483
455 23.7184
460 21.9056
465 20.8547
470 19.8867
475 18.2878
480 17.1387
485 15.6229
490 14.1439
495 13.1456
500 12.2736
505 11.0861
510 10.3838
515 9.5151
520 8.37637
525 7.70184
530 7.0059
535 6.30599
540 5.89425
545 5.3179
550 4.79358
555 4.17156
560 3.83248
565 3.45634
570 2.72029
575 2.52573
580 2.17463
585 1.86928
590 1.48921
595 1.30412
600 0.69802
Ex : 368
200 0.367484
205 0.387787
210 0.35407
215 0.43228
220 0.475004
225 0.439113
230 0.40915
235 0.441803
240 0.477395
245 0.515744
250 0.430262
255 0.488287
260 0.418487
265 0.488035
270 0.504917
275 0.478873
280 0.53653
285 0.564571
290 0.438215
295 0.532195
300 0.528488
305 0.659181
310 0.653342
315 0.616115
320 0.70029
325 0.834626
330 1.04717
335 1.31014
340 1.57475
345 2.27428
350 3.93215
355 94.7345
360 1941
365 3298.47
370 877.551
375 109.085
380 20.1479
385 14.4041
390 20.4792
395 22.5385
400 21.8812
405 25.7527
410 34.968
415 39.8889
420 39.5457
425 35.1325
430 31.2958
435 33.017
440 35.1594
445 34.2834
450 31.606
455 28.0301
460 25.8078
465 23.9691
470 23.1518
475 21.8243
480 19.9098
485 17.5403
490 15.8631
495 14.9714
500 13.4873
505 12.2759
510 11.1589
515 10.3184
520 8.92843
525 8.0557
530 7.3512
535 6.51184
540 5.91224
545 5.62841
550 5.03738
555 4.46309
560 4.05778
565 3.67807
570 3.08597
575 2.41952
580 2.14407
585 1.76992
590 1.49447
595 1.38982
600 0.979371
Ex : 373
200 0.379408
205 0.430401
210 0.498535
215 0.467484
220 0.42226
225 0.456992
230 0.387696
235 0.398436
240 0.498857
245 0.480909
250 0.439432
255 0.508262
260 0.403818
265 0.440085
270 0.51518
275 0.450814
280 0.428935
285 0.482676
290 0.518155
295 0.578287
300 0.567377
305 0.563889
310 0.582335
315 0.652869
320 0.524582
325 0.677831
330 0.864048
335 1.06313
340 1.31343
345 1.70474
350 2.55784
355 4.15811
360 119.155
365 2133.25
370 3527.31
375 939.931
380 117.09
385 25.3285
390 22.7208
395 24.4287
400 22.7969
405 22.6542
410 31.5513
415 41.0688
420 40.2864
425 35.1686
430 30.5972
435 31.5277
440 33.09
445 33.1141
450 30.5381
455 26.8759
460 24.2351
465 22.5206
470 22.0245
475 20.7309
480 18.8043
485 17.3929
490 15.9054
495 14.4972
500 13.3081
505 12.5871
510 11.1066
515 10.4447
520 9.26689
525 8.31959
530 7.33563
535 6.56508
540 6.02651
545 5.61406
550 5.20381
555 4.50117
560 3.96111
565 3.61755
570 3.04548
575 2.45125
580 2.14358
585 1.72449
590 1.57997
595 1.40952
600 1.00857
Ex : 378
200 0.376731
205 0.402688
210 0.403307
215 0.381199
220 0.352665
225 0.446833
230 0.386665
235 0.44078
240 0.431351
245 0.42613
250 0.414655
255 0.476353
260 0.520867
265 0.411132
270 0.506417
275 0.483962
280 0.479237
285 0.635202
290 0.603504
295 0.594757
300 0.536721
305 0.602209
310 0.615181
315 0.642434
320 0.606814
325 0.75355
330 0.736442
335 1.00187
340 1.0879
345 1.45081
350 1.85766
355 2.4664
360 4.47973
365 120.503
370 2322.95
375 3874.02
380 1026.4
385 130.126
390 29.5796
395 19.8373
400 17.0084
405 16.9647
410 22.4078
415 28.9113
420 32.2874
425 29.291
430 25.9849
435 25.6586
440 26.6719
445 26.5884
450 24.908
455 22.6952
460 21.3889
465 20.6093
470 19.5093
475 18.6856
480 17.2828
485 15.5945
490 14.6557
495 13.8907
500 12.3482
505 11.5577
510 11.1808
515 9.65891
520 8.97166
525 7.94843
530 7.27514
535 6.37126
540 6.20238
545 5.42265
550 4.73104
555 4.30002
560 3.7551
565 3.45973
570 2.93503
575 2.49135
580 2.12404
585 1.66081
590 1.50989
595 1.34917
600 1.05063
Ex : 383
200 0.461288
205 0.379339
210 0.484102
215 0.407832
220 0.406275
225 0.43287
230 0.427104
235 0.430295
240 0.429297
245 0.50342
250 0.452713
255 0.427016
260 0.438914
265 0.437682
270 0.48672
275 0.453529
280 0.495786
285 0.451389
290 0.499134
295 0.526088
300 0.541593
305 0.554938
310 0.527526
315 0.599794
320 0.627386
325 0.711884
330 0.801253
335 0.976721
340 0.97396
345 1.13335
350 1.48604
355 1.86225
360 2.67215
365 4.89784
370 121.773
375 2463.26
380 4291.92
385 1147.67
390 148.693
395 32.7266
400 17.933
405 18.0276
410 23.7456
415 28.7198
420 29.7167
425 29.9355
430 28.2281
435 28.0844
440 29.2717
445 28.4301
450 26.63
455 24.149
460 22.3821
465 21.4705
470 20.4649
475 19.7751
480 18.5074
485 16.8446
490 15.211
495 13.9393
500 13.4691
505 12.2727
510 10.8786
515 9.78824
520 9.12043
525 7.94034
530 7.39435
535 6.7752
540 6.03996
545 5.80085
550 5.12187
555 4.41304
560 4.03582
565 3.47186
570 3.20234
575 2.54714
580 2.1902
585 1.84104
590 1.52814
595 1.29514
600 0.628268
Ex : 388
200 0.468778
205 0.329163
210 0.415915
215 0.421262
220 0.405492
225 0.340239
230 0.454436
235 0.410386
240 0.378867
245 0.391033
250 0.403331
255 0.382328
260 0.380607
265 0.500424
270 0.445176
275 0.38993
280 0.468771
285 0.473518
290 0.505829
295 0.500382
300 0.470503
305 0.546313
310 0.54943
315 0.605892
320 0.691871
325 0.687867
330 0.62842
335 0.739386
340 0.987413
345 1.17986
350 1.23364
355 1.50833
360 1.98855
365 2.82321
370 4.94829
375 143.033
380 2687.49
385 4529.94
390 1209.12
395 160.439
400 36.972
405 23.4879
410 29.0146
415 34.7779
420 35.623
425 31.8387
430 32.4794
435 34.1989
440 34.4901
445 33.4088
450 30.9579
455 27.5474
460 24.9721
465 23.7814
470 22.6379
475 21.6826
480 19.8324
485 17.9055
490 16.4812
495 15.0717
500 13.4771
505 12.6399
510 11.7477
515 10.6554
520 9.48526
525 8.79242
530 7.91451
535 7.17384
540 6.32923
545 5.77285
550 5.14873
555 4.47025
560 4.0714
565 3.56538
570 2.99292
575 2.49491
580 1.96346
585 1.73266
590 1.5607
595 1.27364
600 1.6565
Ex : 393
200 0.335902
205 0.421707
210 0.363526
215 0.360489
220 0.39812
225 0.345879
230 0.408744
235 0.429916
240 0.401491
245 0.469736
250 0.411644
255 0.465454
260 0.459607
265 0.422335
270 0.40804
275 0.497405
280 0.439728
285 0.547745
290 0.514194
295 0.448431
300 0.521553
305 0.576127
310 0.559406
315 0.522125
320 0.583367
325 0.614119
330 0.696497
335 0.737299
340 0.83085
345 0.989515
350 1.13877
355 1.31829
360 1.54191
365 2.12499
370 3.00263
375 5.37224
380 130.702
385 2801.93
390 4830.1
395 1298.17
400 171.08
405 40.0867
410 30.9109
415 35.9979
420 35.7556
425 31.5558
430 28.0182
435 29.884
440 34.6159
445 33.0352
450 30.1999
455 26.2238
460 23.4689
465 22.2966
470 21.2894
475 20.4175
480 18.8354
485 17.1172
490 15.4236
495 13.9147
500 13.1057
505 12.3867
510 11.2765
515 10.1807
520 9.18568
525 8.60569
530 7.59496
535 6.85195
540 6.07629
545 5.60668
550 5.03638
555 4.70537
560 4.22283
565 3.55213
570 3.1766
575 2.46852
580 2.0537
585 1.70382
590 1.4141
595 1.23217
600 1.1918
Ex : 398
200 0.382017
205 0.383136
210 0.32581
215 0.377416
220 0.451817
225 0.375306
230 0.334043
235 0.458015
240 0.338101
245 0.481935
250 0.421978
255 0.393526
260 0.405288
265 0.474783
270 0.549473
275 0.493819
280 0.467603
285 0.468753
290 0.450475
295 0.520577
300 0.480713
305 0.510103
310 0.449506
315 0.473674
320 0.532757
325 0.601325
330 0.683743
335 0.721019
340 0.808417
345 0.831752
350 1.00204
355 1.14345
360 1.24095
365 1.6393
370 2.27438
375 3.18562
380 5.63001
385 143.253
390 2968.23
395 5101.79
400 1349.17
405 171.147
410 37.7053
415 26.2606
420 24.9045
425 21.302
430 19.7579
435 20.8041
440 23.0553
445 25.1914
450 23.78
455 20.6668
460 18.9158
465 17.9107
470 17.2172
475 16.8696
480 15.8084
485 14.9691
490 13.7788
495 12.7427
500 11.9895
505 11.3963
510 10.4172
515 9.4599
520 8.86824
525 7.9207
530 7.11981
535 6.69116
540 6.04115
545 5.47429
550 5.04522
555 4.50989
560 4.19038
565 3.46906
570 2.93931
575 2.76118
580 2.14856
585 1.65869
590 1.40108
595 1.20082
600 1.51519
Ex : 403
200 0.331636
205 0.369028
210 0.435047
215 0.346697
220 0.398189
225 0.329628
230 0.398785
235 0.420544
240 0.443861
245 0.501869
250 0.41264
255 0.377328
260 0.366772
265 0.420474
270 0.398245
275 0.453796
280 0.389953
285 0.447821
290 0.479471
295 0.397385
300 0.477462
305 0.493361
310 0.496437
315 0.494325
320 0.570855
325 0.618155
330 0.64798
335 0.624697
340 0.806598
345 0.846585
350 0.924994
355 0.91096
360 1.20505
365 1.44481
370 1.75788
375 2.38273
380 3.50973
385 6.16174
390 164.803
395 3135.14
400 5196.15
405 1388.82
410 176.005
415 37.7459
420 21.2128
425 18.2496
430 17.2188
435 17.3604
440 18.7245
445 20.3004
450 21.4041
455 20.7324
460 18.3786
465 17.7119
470 16.7449
475 16.0602
480 15.4731
485 14.3331
490 13.3629
495 12.4569
500 12.0933
505 10.8626
510 10.1248
515 9.28353
520 8.57236
525 7.9431
530 7.34673
535 6.43477
540 5.99887
545 5.15535
550 4.69902
555 4.57184
560 4.09296
565 3.57707
570 3.16912
575 2.39688
580 1.85427
585 1.80734
590 1.51125
595 1.35191
600 0.973278
Ex : 408
200 0.443081
205 0.38519
210 0.382435
215 0.379656
220 0.362503
225 0.391546
230 0.384662
235 0.405371
240 0.383368
245 0.34308
250 0.431106
255 0.371094
260 0.432424
265 0.4375
270 0.45977
275 0.463449
280 0.412667
285 0.420974
290 0.414152
295 0.386857
300 0.567679
305 0.501565
310 0.528157
315 0.494521
320 0.56365
325 0.53314
330 0.655169
335 0.610509
340 0.694818
345 0.745959
350 0.899442
355 0.856539
360 0.982315
365 1.39526
370 1.39495
375 1.83475
380 2.41691
385 4.00047
390 6.46996
395 163.283
400 3293.07
405 5438.85
410 1403.41
415 180.807
420 39.4225
425 21.7128
430 18.525
435 19.0209
440 20.3445
445 21.8545
450 20.8685
455 20.9601
460 20.6018
465 19.5023
470 18.6969
475 17.2012
480 16.2315
485 15.4146
490 14.0232
495 13.3172
500 12.1372
505 11.6717
510 10.6458
515 9.6566
520 9.17034
525 8.23287
530 7.63936
535 7.13125
540 6.26424
545 5.66489
550 5.22448
555 4.4522
560 4.09678
565 3.66964
570 3.09011
575 2.63332
580 2.14966
585 1.69081
590 1.37622
595 1.33504
600 0.553668
Ex : 413
200 0.34144
205 0.317456
210 0.359768
215 0.448704
220 0.462985
225 0.406772
230 0.377477
235 0.416418
240 0.399522
245 0.40034
250 0.443594
255 0.393352
260 0.417371
265 0.424964
270 0.349794
275 0.375925
280 0.390035
285 0.449639
290 0.430152
295 0.527209
300 0.501974
305 0.439653
310 0.453224
315 0.489452
320 0.563309
325 0.606423
330 0.585437
335 0.578541
340 0.70176
345 0.785596
350 0.775613
355 0.788604
360 0.946865
365 1.16846
370 1.31896
375 1.51413
380 1.90288
385 2.64922
390 3.99025
395 6.72984
400 191.468
405 3484.94
410 5605.2
415 1412.72
420 181.994
425 37.5848
430 19.7839
435 18.4357
440 19.6106
445 19.5848
450 18.5153
455 17.5282
460 17.8857
465 19.2281
470 18.3168
475 17.0259
480 15.5275
485 14.5753
490 13.4065
495 12.4985
500 11.8051
505 10.9604
510 10.2178
515 9.65094
520 8.52879
525 7.92298
530 7.3266
535 6.40869
540 6.15086
545 5.50591
550 4.73381
555 4.35533
560 3.91197
565 3.49929
570 3.05027
575 2.53417
580 2.08772
585 1.74349
590 1.47033
595 1.13056
600 1.15618
Ex : 418
200 0.297822
205 0.351472
210 0.296386
215 0.35161
220 0.359728
225 0.384692
230 0.353867
235 0.314567
240 0.386914
245 0.395294
250 0.413791
255 0.390603
260 0.373736
265 0.393744
270 0.467826
275 0.450017
280 0.466965
285 0.378162
290 0.449036
295 0.47251
300 0.453114
305 0.491354
310 0.47927
315 0.484222
320 0.543326
325 0.530328
330 0.62904
335 0.675743
340 0.630399
345 0.63884
350 0.740386
355 0.706768
360 0.950711
365 0.89211
370 1.1874
375 1.2406
380 1.66845
385 1.98877
390 2.71558
395 4.2011
400 7.2541
405 185.926
410 3559.54
415 5837.09
420 1516.23
425 188.537
430 33.5175
435 15.1044
440 13.5682
445 13.3473
450 12.5474
455 11.9036
460 11.5196
465 12.4174
470 14.3722
475 14.3252
480 13.1413
485 12.4736
490 11.3108
495 10.4663
500 10.1177
505 9.41018
510 8.95623
515 8.47917
520 7.71037
525 7.20122
530 6.61041
535 6.27276
540 5.76951
545 5.06038
550 4.73998
555 4.40314
560 3.80833
565 3.40297
570 2.92256
575 2.51232
580 2.0902
585 1.68966
590 1.42378
595 1.18214
600 0.971169
Ex : 423
200 0.411528
205 0.420049
210 0.409376
215 0.325477
220 0.379688
225 0.434892
230 0.423979
235 0.314032
240 0.379963
245 0.346024
250 0.34103
255 0.427683
260 0.427616
265 0.374063
270 0.466159
275 0.490165
280 0.342835
285 0.363609
290 0.421149
295 0.418188
300 0.50952
305 0.526247
310 0.532522
315 0.435575
320 0.608173
325 0.529401
330 0.541003
335 0.628684
340 0.656303
345 0.607034
350 0.805531
355 0.757047
360 0.774654
365 0.895898
370 0.985298
375 1.20507
380 1.531
385 1.79696
390 2.30914
395 2.83082
400 4.34543
405 7.27782
410 201.062
415 3805.05
420 5975.16
425 1488.62
430 181.916
435 29.8211
440 11.0754
445 8.87542
450 8.38024
455 7.86564
460 7.90857
465 8.41514
470 8.96607
475 11.0279
480 11.9333
485 10.4927
490 9.91905
495 9.58623
500 8.67055
505 8.31255
510 7.9204
515 7.34038
520 7.14453
525 6.68667
530 6.14578
535 5.90655
540 5.2858
545 4.90582
550 4.6995
555 3.9283
560 3.64243
565 3.23623
570 2.80611
575 2.35618
580 2.01609
585 1.70255
590 1.29531
595 1.10805
600 1.1904
Ex : 428
200 0.373029
205 0.387932
210 0.341408
215 0.363374
220 0.45817
225 0.391341
230 0.432806
235 0.442087
240 0.363288
245 0.379379
250 0.508955
255 0.453184
260 0.47243
265 0.464957
270 0.459146
275 0.41843
280 0.403126
285 0.436165
290 0.417136
295 0.47596
300 0.473109
305 0.461888
310 0.551685
315 0.601943
320 0.528351
325 0.500023
330 0.522035
335 0.512253
340 0.68997
345 0.70022
350 0.644368
355 0.845345
360 0.785427
365 0.87513
370 0.891356
375 1.19219
380 1.20335
385 1.48119
390 1.84993
395 2.27357
400 3.07279
405 4.59191
410 7.7072
415 223.462
420 3908.44
425 6140.56
430 1558.9
435 188.82
440 29.02
445 9.97823
450 7.48153
455 7.00529
460 6.51815
465 6.65396
470 7.23739
475 7.73024
480 9.20357
485 10.792
490 9.7065
495 8.81598
500 8.60823
505 7.88388
510 7.34295
515 6.87056
520 6.44587
525 6.13671
530 5.60955
535 5.57533
540 5.28841
545 4.6721
550 4.27378
555 3.81183
560 3.54349
565 3.20202
570 2.63721
575 2.25838
580 1.89004
585 1.63885
590 1.49941
595 1.20446
600 1.10951
Ex : 433
200 0.368642
205 0.345174
210 0.357467
215 0.414964
220 0.394179
225 0.360342
230 0.402745
235 0.358737
240 0.35234
245 0.360798
250 0.428912
255 0.373847
260 0.505073
265 0.488633
270 0.451187
275 0.403021
280 0.481374
285 0.469102
290 0.433411
295 0.536529
300 0.536455
305 0.50733
310 0.64191
315 0.496548
320 0.478769
325 0.559188
330 0.559633
335 0.632757
340 0.647723
345 0.669937
350 0.724293
355 0.848596
360 0.869073
365 0.858109
370 0.898367
375 0.997871
380 1.19607
385 1.18453
390 1.59881
395 1.91439
400 2.44141
405 2.94007
410 4.33871
415 7.64248
420 249.282
425 4242.67
430 6298.22
435 1528.63
440 184.771
445 28.5295
450 9.44417
455 6.93331
460 6.46754
465 6.43518
470 6.48044
475 6.51369
480 6.82511
485 8.09599
490 9.80122
495 9.07831
500 8.01508
505 7.68499
510 7.23021
515 6.71166
520 6.22958
525 5.89114
530 5.6201
535 5.10034
540 4.65672
545 4.58249
550 4.10357
555 3.77365
560 3.49826
565 2.95936
570 2.68459
575 2.37744
580 2.03027
585 1.65474
590 1.44959
595 1.1971
600 0.847003
Ex : 438
200 0.40258
205 0.447792
210 0.401588
215 0.42907
220 0.441921
225 0.379571
230 0.44216
235 0.419489
240 0.489971
245 0.433141
250 0.40641
255 0.462339
260 0.390104
265 0.379332
270 0.411175
275 0.462046
280 0.401484
285 0.453646
290 0.439552
295 0.436742
300 0.386684
305 0.389059
310 0.441239
315 0.477198
320 0.432851
325 0.559127
330 0.576433
335 0.556113
340 0.631135
345 0.649883
350 0.663723
355 0.698622
360 0.789739
365 0.836105
370 0.903797
375 0.956521
380 1.04036
385 1.05437
390 1.27719
395 1.54772
400 1.79351
405 2.30342
410 3.21227
415 4.58724
420 8.17351
425 241.326
430 4201.09
435 6632.89
440 1615.08
445 194.84
450 29.6269
455 9.55853
460 7.09718
465 6.66774
470 6.29531
475 6.33863
480 6.32403
485 6.56451
490 7.20122
495 8.82607
500 9.30617
505 7.51504
510 7.17069
515 6.64482
520 5.87644
525 5.86177
530 5.14226
535 5.09421
540 4.91921
545 4.34824
550 3.86372
555 3.54838
560 3.27919
565 3.15769
570 2.62233
575 2.21936
580 1.91669
585 1.4631
590 1.36371
595 1.16536
600 0.741502
Ex : 443
200 0.429858
205 0.451186
210 0.382623
215 0.376457
220 0.462845
225 0.384106
230 0.404176
235 0.487063
240 0.461297
245 0.423975
250 0.392237
255 0.416669
260 0.424579
265 0.375704
270 0.446622
275 0.468437
280 0.457747
285 0.485809
290 0.463467
295 0.491991
300 0.463422
305 0.476629
310 0.530089
315 0.507072
320 0.507021
325 0.617424
330 0.478799
335 0.564621
340 0.558149
345 0.56974
350 0.65479
355 0.716276
360 0.812686
365 0.697847
370 0.855177
375 0.913736
380 0.99091
385 1.11936
390 1.24967
395 1.30641
400 1.76239
405 2.0543
410 2.4177
415 3.27468
420 4.48046
425 7.91972
430 263.426
435 4445.24
440 6616.18
445 1596.44
450 193.052
455 29.616
460 9.74485
465 7.1712
470 6.66714
475 6.24335
480 6.28084
485 6.03989
490 6.1706
495 6.4515
500 7.75958
505 8.51804
510 7.10789
515 6.47612
520 6.03159
525 5.52737
530 5.2193
535 4.76751
540 4.43141
545 4.17615
550 3.85917
555 3.6958
560 3.33816
565 2.94284
570 2.46272
575 2.28787
580 1.79853
585 1.58711
590 1.28236
595 1.23049
600 0.983593
Ex : 448
200 0.366302
205 0.356662
210 0.381206
215 0.373561
220 0.376506
225 0.414288
230 0.375371
235 0.395436
240 0.402263
245 0.389855
250 0.420508
255 0.466495
260 0.440682
265 0.38022
270 0.374652
275 0.384601
280 0.422728
285 0.460267
290 0.485902
295 0.423642
300 0.496847
305 0.513692
310 0.496043
315 0.528659
320 0.533753
325 0.552493
330 0.608261
335 0.616194
340 0.553763
345 0.576135
350 0.579889
355 0.657346
360 0.763099
365 0.737787
370 0.889292
375 0.920253
380 0.939443
385 1.07441
390 1.04914
395 1.21815
400 1.50845
405 1.68155
410 1.95298
415 2.44645
420 3.21277
425 5.10143
430 8.09146
435 267.655
440 4596.82
445 6796.07
450 1630.97
455 196.787
460 30.5838
465 10.0212
470 6.9975
475 6.20417
480 5.91235
485 5.84083
490 5.91795
495 5.7136
500 5.75751
505 6.37738
510 7.70147
515 7.03462
520 5.91269
525 5.62566
530 5.23989
535 4.71179
540 4.16318
545 3.96505
550 3.73315
555 3.43046
560 3.27329
565 3.01219
570 2.56221
575 2.16134
580 1.86397
585 1.63037
590 1.33876
595 1.05702
600 1.17948
Ex : 453
200 0.399739
205 0.372107
210 0.399129
215 0.407814
220 0.349248
225 0.365191
230 0.342677
235 0.357032
240 0.421864
245 0.406827
250 0.428738
255 0.403435
260 0.398543
265 0.392279
270 0.425129
275 0.436195
280 0.448446
285 0.366361
290 0.41047
295 0.507547
300 0.479631
305 0.468046
310 0.439006
315 0.44736
320 0.513401
325 0.553248
330 0.521327
335 0.513831
340 0.599555
345 0.563372
350 0.609693
355 0.608878
360 0.681225
365 0.675777
370 0.736084
375 0.834888
380 0.928333
385 0.974079
390 1.02686
395 1.09726
400 1.23127
405 1.34172
410 1.62624
415 1.91156
420 2.39591
425 3.21735
430 4.55167
435 7.62553
440 274.117
445 4814.63
450 6828.08
455 1551.98
460 187.761
465 29.5292
470 9.40477
475 6.44513
480 5.8213
485 5.58711
490 5.44984
495 5.35012
500 5.19808
505 5.15029
510 5.51264
515 6.92868
520 6.71888
525 5.51284
530 5.03824
535 4.70507
540 4.30273
545 3.67413
550 3.51718
555 3.23707
560 2.93642
565 2.7928
570 2.36343
575 1.98671
580 1.72864
585 1.58172
590 1.31369
595 1.21417
600 1.01865
Ex : 458
200 0.393706
205 0.37093
210 0.408104
215 0.344808
220 0.373926
225 0.384616
230 0.469707
235 0.41221
240 0.419885
245 0.382448
250 0.381038
255 0.465837
260 0.415111
265 0.426979
270 0.416721
275 0.441069
280 0.386131
285 0.462128
290 0.520145
295 0.403316
300 0.515628
305 0.503266
310 0.450556
315 0.52596
320 0.488138
325 0.518316
330 0.513334
335 0.55885
340 0.536014
345 0.505379
350 0.779006
355 0.683509
360 0.60079
365 0.779515
370 0.80317
375 0.790131
380 0.890683
385 0.886513
390 0.989639
395 1.08198
400 1.25264
405 1.31002
410 1.56742
415 1.89557
420 2.14247
425 2.47344
430 3.42851
435 5.04427
440 8.02711
445 293.085
450 4803.38
455 6962.25
460 1623.96
465 196.975
470 30.2468
475 9.19197
480 6.42734
485 5.8633
490 5.45256
495 5.08256
500 4.81517
505 4.69153
510 4.77207
515 4.88436
520 5.73805
525 6.67738
530 5.35986
535 4.51326
540 4.29081
545 3.86647
550 3.46274
555 3.09964
560 2.91621
565 2.87964
570 2.50649
575 2.00559
580 1.78313
585 1.39968
590 1.31764
595 1.12131
600 0.631872
Ex : 463
200 0.394682
205 0.457245
210 0.38592
215 0.328858
220 0.341175
225 0.453751
230 0.470206
235 0.399372
240 0.364529
245 0.444776
250 0.417537
255 0.419533
260 0.394204
265 0.438623
270 0.425304
275 0.458671
280 0.407249
285 0.393602
290 0.476124
295 0.471305
300 0.42609
305 0.440371
310 0.493515
315 0.53178
320 0.50515
325 0.492607
330 0.520979
335 0.475113
340 0.484761
345 0.507997
350 0.529498
355 0.50827
360 0.599616
365 0.759037
370 0.642815
375 0.774708
380 0.760808
385 0.795235
390 0.927828
395 1.03504
400 1.04815
405 1.06955
410 1.30984
415 1.4507
420 1.70728
425 1.91512
430 2.45342
435 3.29611
440 4.95496
445 8.19036
450 278.927
455 4840.42
460 7219.89
465 1685.07
470 202.983
475 30.0841
480 8.90236
485 5.8502
490 5.66663
495 5.14793
500 4.56164
505 4.26622
510 4.43735
515 4.24933
520 4.3177
525 4.91496
530 5.8182
535 5.22457
540 4.26444
545 4.00751
550 3.66259
555 3.21064
560 2.68209
565 2.61939
570 2.2697
575 2.02795
580 1.79004
585 1.4804
590 1.19668
595 1.04789
600 1.14115
Ex : 468
200 0.390736
205 0.375288
210 0.402922
215 0.355513
220 0.349892
225 0.340729
230 0.414192
235 0.354347
240 0.3889
245 0.335786
250 0.397682
255 0.35184
260 0.378661
265 0.381418
270 0.443698
275 0.42351
280 0.384206
285 0.39431
290 0.356193
295 0.424605
300 0.459886
305 0.44182
310 0.468417
315 0.468045
320 0.429448
325 0.501937
330 0.531051
335 0.463056
340 0.541233
345 0.504363
350 0.505468
355 0.609348
360 0.586378
365 0.605677
370 0.628918
375 0.678694
380 0.833216
385 0.731546
390 0.852473
395 0.917841
400 0.932873
405 0.945301
410 1.0905
415 1.23075
420 1.31673
425 1.60349
430 1.82016
435 2.32985
440 3.10602
445 4.52389
450 7.40195
455 294.447
460 4781.78
465 7346.14
470 1706.44
475 203.785
480 29.7466
485 8.62256
490 5.49993
495 5.18726
500 4.61054
505 4.41019
510 4.35284
515 4.14801
520 4.13538
525 4.15781
530 4.44935
535 5.35423
540 5.14232
545 4.1174
550 3.56228
555 3.26215
560 2.96849
565 2.61316
570 2.31327
575 1.94396
580 1.65548
585 1.3682
590 1.2485
595 1.00196
600 0.990294
Ex : 473
200 0.360199
205 0.381508
210 0.377333
215 0.381283
220 0.393809
225 0.39248
230 0.452897
235 0.412913
240 0.377877
245 0.402617
250 0.34287
255 0.380967
260 0.3681
265 0.395079
270 0.476697
275 0.456789
280 0.402254
285 0.38324
290 0.399677
295 0.441051
300 0.463326
305 0.435543
310 0.468293
315 0.435348
320 0.478493
325 0.418264
330 0.539491
335 0.509141
340 0.570721
345 0.629646
350 0.568846
355 0.570308
360 0.647757
365 0.676374
370 0.670194
375 0.592428
380 0.688548
385 0.849612
390 0.832518
395 0.917174
400 0.957647
405 1.03703
410 1.07712
415 1.12629
420 1.34188
425 1.38507
430 1.51119
435 1.92667
440 2.59936
445 3.22495
450 5.00923
455 7.98321
460 330.851
465 5120.61
470 7003.75
475 1571.49
480 188.198
485 27.8328
490 8.1473
495 5.17953
500 4.58979
505 4.34922
510 4.14449
515 4.06767
520 3.97789
525 3.85536
530 3.94311
535 3.73837
540 4.50756
545 4.93187
550 4.08759
555 3.28702
560 3.10329
565 2.76216
570 2.26714
575 1.87741
580 1.79967
585 1.5145
590 1.17033
595 1.11887
600 1.82013
Ex : 478
200 0.438354
205 0.419891
210 0.414532
215 0.417101
220 0.452781
225 0.447631
230 0.455717
235 0.43247
240 0.457104
245 0.376024
250 0.386342
255 0.417388
260 0.477684
265 0.492504
270 0.382079
275 0.458008
280 0.467503
285 0.48574
290 0.395814
295 0.395019
300 0.557477
305 0.511825
310 0.453135
315 0.491387
320 0.489287
325 0.483424
330 0.521618
335 0.586394
340 0.634813
345 0.622489
350 0.594861
355 0.637973
360 0.605785
365 0.697028
370 0.672234
375 0.742021
380 0.774618
385 0.675909
390 0.846754
395 0.862685
400 0.931282
405 1.01689
410 1.14263
415 1.22937
420 1.31662
425 1.31388
430 1.52376
435 1.8798
440 2.22126
445 2.88015
450 3.74461
455 5.64924
460 9.37233
465 359.805
470 5163.78
475 7050.21
480 1648.79
485 197.886
490 29.5244
495 8.63829
500 5.38196
505 4.59475
510 4.50259
515 4.28096
520 3.86355
525 3.82588
530 3.86178
535 3.8258
540 3.59889
545 3.94559
550 4.71338
555 3.89246
560 3.17162
565 2.88351
570 2.56802
575 1.85205
580 1.95653
585 1.42254
590 1.28005
595 1.15751
600 0.623514
Ex : 483
200 0.427773
205 0.463907
210 0.4597
215 0.390145
220 0.372063
225 0.458087
230 0.38319
235 0.442363
240 0.447351
245 0.454176
250 0.409607
255 0.470149
260 0.388915
265 0.435128
270 0.373487
275 0.437308
280 0.465496
285 0.440264
290 0.415653
295 0.347307
300 0.472984
305 0.422427
310 0.505144
315 0.485036
320 0.544275
325 0.542002
330 0.529962
335 0.584527
340 0.537205
345 0.598546
350 0.554172
355 0.618172
360 0.646239
365 0.663469
370 0.649152
375 0.660688
380 0.671519
385 0.754346
390 0.900376
395 0.933376
400 0.883619
405 0.999892
410 1.0186
415 1.08948
420 1.1518
425 1.21488
430 1.39544
435 1.65694
440 1.86609
445 2.29632
450 2.73068
455 3.74651
460 5.89357
465 9.39438
470 277.688
475 5028.84
480 7507.37
485 1743.78
490 208.52
495 30.2252
500 8.39423
505 5.13242
510 4.53366
515 4.25567
520 3.88649
525 3.64996
530 3.73627
535 3.71056
540 3.64029
545 3.28139
550 3.51515
555 4.11113
560 3.71117
565 2.98382
570 2.60494
575 2.27379
580 1.85298
585 1.62275
590 1.37294
595 1.054
600 0.731006
Ex : 488
200 0.467048
205 0.378387
210 0.461256
215 0.414953
220 0.456606
225 0.460196
230 0.563061
235 0.489616
240 0.458256
245 0.519036
250 0.534794
255 0.405639
260 0.46291
265 0.509178
270 0.456828
275 0.464339
280 0.362786
285 0.501706
290 0.451494
295 0.495893
300 0.424379
305 0.481459
310 0.440783
315 0.398139
320 0.60528
325 0.568766
330 0.620803
335 0.568915
340 0.661838
345 0.577164
350 0.564099
355 0.677606
360 0.59389
365 0.745906
370 0.73035
375 0.737467
380 0.685319
385 0.839691
390 0.794624
395 0.914834
400 0.915346
405 1.01067
410 1.12442
415 1.0115
420 1.27245
425 1.30476
430 1.39445
435 1.61238
440 1.73402
445 1.94169
450 2.24189
455 3.1362
460 4.22213
465 6.36259
470 9.38855
475 335.993
480 5391.8
485 7413.63
490 1688.27
495 202.012
500 29.3093
505 8.21751
510 5.00285
515 4.31181
520 4.19104
525 4.14747
530 3.75509
535 3.54613
540 3.4186
545 3.27406
550 3.24654
555 3.02558
560 3.6457
565 3.91079
570 2.91832
575 2.23875
580 1.89266
585 1.5576
590 1.46068
595 1.30571
600 1.29356
Ex : 493
200 0.49829
205 0.414082
210 0.500192
215 0.516149
220 0.376151
225 0.424856
230 0.549271
235 0.498748
240 0.496519
245 0.47314
250 0.40106
255 0.413968
260 0.453246
265 0.415006
270 0.440085
275 0.417855
280 0.498509
285 0.426961
290 0.496577
295 0.481609
300 0.502122
305 0.454907
310 0.620606
315 0.527941
320 0.600313
325 0.586779
330 0.458519
335 0.516851
340 0.549231
345 0.620883
350 0.651967
355 0.633115
360 0.677415
365 0.64155
370 0.737616
375 0.695488
380 0.805644
385 0.696292
390 0.851632
395 0.908708
400 1.00953
405 0.953126
410 0.97581
415 1.10257
420 1.18413
425 1.17388
430 1.32415
435 1.31266
440 1.57389
445 1.71615
450 2.03582
455 2.42362
460 3.25502
465 4.32828
470 6.01614
475 8.7124
480 309.189
485 5296.51
490 7725.86
495 1718.99
500 205.046
505 29.6144
510 8.21511
515 4.87061
520 4.16039
525 4.24524
530 4.01773
535 3.51206
540 3.45721
545 3.33724
550 3.21144
555 3.01721
560 2.97864
565 3.01663
570 3.24713
575 2.9338
580 2.18898
585 1.72492
590 1.43883
595 1.39894
600 1.30062
Ex : 498
200 0.469822
205 0.493269
210 0.479072
215 0.400145
220 0.42812
225 0.484053
230 0.481541
235 0.432314
240 0.455987
245 0.422688
250 0.58125
255 0.475794
260 0.496867
265 0.496805
270 0.48164
275 0.543422
280 0.414298
285 0.506892
290 0.514229
295 0.463572
300 0.411214
305 0.466101
310 0.492664
315 0.469993
320 0.523423
325 0.543487
330 0.605942
335 0.601091
340 0.646209
345 0.626728
350 0.574231
355 0.77255
360 0.687451
365 0.678814
370 0.626983
375 0.726397
380 0.717177
385 0.736616
390 0.842576
395 0.845166
400 0.922128
405 0.958696
410 1.04117
415 1.11836
420 1.14408
425 1.15286
430 1.32006
435 1.39162
440 1.29708
445 1.62273
450 1.755
455 2.01279
460 2.60156
465 3.35761
470 4.33985
475 5.9335
480 9.35561
485 369.654
490 5545.97
495 7391.59
500 1662.53
505 198.908
510 29.0832
515 8.29772
520 5.02601
525 4.34998
530 4.26669
535 4.04173
540 3.6732
545 3.35385
550 3.05985
555 3.15991
560 2.90181
565 2.69296
570 2.77455
575 2.60167
580 2.58588
585 1.95184
590 1.47813
595 1.15353
600 1.18925
Ex : 503
200 0.529745
205 0.52147
210 0.426229
215 0.482887
220 0.43246
225 0.472171
230 0.506611
235 0.554331
240 0.543191
245 0.536153
250 0.540769
255 0.524551
260 0.458243
265 0.540434
270 0.550201
275 0.479742
280 0.557108
285 0.50425
290 0.456745
295 0.508219
300 0.477503
305 0.480671
310 0.494937
315 0.588974
320 0.575093
325 0.559882
330 0.563769
335 0.630014
340 0.601507
345 0.636325
350 0.573157
355 0.732432
360 0.610712
365 0.631277
370 0.70105
375 0.739275
380 0.874072
385 0.796875
390 0.868022
395 0.780125
400 0.868727
405 0.937896
410 1.04169
415 1.02463
420 1.03253
425 1.16841
430 1.13809
435 1.32099
440 1.38707
445 1.44482
450 1.60833
455 1.85548
460 2.40934
465 2.92347
470 3.43804
475 4.14076
480 5.94972
485 9.55787
490 334.007
495 5432.39
500 7494.59
505 1670.72
510 199.883
515 29.3794
520 8.28809
525 5.14017
530 4.26388
535 3.91535
540 3.8362
545 3.28709
550 3.15804
555 2.91312
560 2.76683
565 2.45832
570 2.20084
575 2.15499
580 2.21323
585 2.20816
590 1.83204
595 1.3229
600 2.77171
Ex : 508
200 0.496973
205 0.480671
210 0.510502
215 0.443047
220 0.421297
225 0.435663
230 0.507983
235 0.437579
240 0.546565
245 0.546601
250 0.54191
255 0.574237
260 0.531472
265 0.532941
270 0.607172
275 0.513444
280 0.487343
285 0.441552
290 0.501802
295 0.451319
300 0.560512
305 0.479004
310 0.529775
315 0.441706
320 0.564898
325 0.460036
330 0.490107
335 0.548814
340 0.585685
345 0.577728
350 0.604443
355 0.669035
360 0.669525
365 0.681587
370 0.811703
375 0.676939
380 0.681873
385 0.758111
390 0.67121
395 0.784887
400 0.851533
405 0.868346
410 0.939193
415 1.1054
420 1.06102
425 1.16038
430 1.21461
435 1.26642
440 1.37016
445 1.53815
450 1.50949
455 1.71103
460 1.8998
465 2.26347
470 2.65672
475 3.20303
480 4.39508
485 6.10907
490 9.76608
495 353.459
500 5350.71
505 7357.41
510 1719.73
515 205.172
520 29.5658
525 8.04408
530 5.1643
535 3.91803
540 3.65123
545 3.4615
550 3.23363
555 3.01567
560 2.68873
565 2.49657
570 2.36691
575 2.22313
580 1.87205
585 1.74258
590 1.96884
595 1.7881
600 1.77171
Ex : 513
200 0.486324
205 0.370043
210 0.651247
215 0.527521
220 0.418109
225 0.491642
230 0.441384
235 0.479863
240 0.483992
245 0.46204
250 0.46971
255 0.421507
260 0.503737
265 0.512166
270 0.700038
275 0.46283
280 0.50515
285 0.43724
290 0.471957
295 0.468161
300 0.612013
305 0.449477
310 0.484031
315 0.522208
320 0.551535
325 0.549098
330 0.497887
335 0.591508
340 0.533023
345 0.652594
350 0.511223
355 0.685961
360 0.72539
365 0.784338
370 0.749497
375 0.670161
380 0.751403
385 0.859044
390 0.812998
395 0.821738
400 0.889031
405 0.88456
410 0.931946
415 1.04476
420 1.03021
425 1.26233
430 1.09811
435 1.12242
440 1.21517
445 1.26723
450 1.46032
455 1.5419
460 1.78497
465 2.09375
470 2.35548
475 2.58504
480 3.11632
485 4.28781
490 5.92635
495 8.80172
500 316.633
505 5182.36
510 7368.63
515 1744.02
520 208.013
525 29.9006
530 8.19096
535 4.86464
540 3.72471
545 3.52621
550 3.15923
555 3.06897
560 2.77756
565 2.47947
570 2.1372
575 1.95733
580 1.75116
585 1.67467
590 1.3918
595 1.53433
600 1.92429
Ex : 518
200 0.587735
205 0.50971
210 0.506101
215 0.61686
220 0.505732
225 0.566172
230 0.460007
235 0.515387
240 0.567261
245 0.387912
250 0.455311
255 0.528704
260 0.508988
265 0.621607
270 0.552359
275 0.524768
280 0.504743
285 0.553247
290 0.569233
295 0.595524
300 0.388411
305 0.485266
310 0.562885
315 0.559692
320 0.563216
325 0.57234
330 0.480784
335 0.643822
340 0.578489
345 0.618301
350 0.732645
355 0.622344
360 0.685008
365 0.705794
370 0.746509
375 0.850192
380 0.730556
385 0.707085
390 0.80604
395 0.82165
400 0.751124
405 0.910489
410 1.11091
415 1.10297
420 1.0795
425 0.93472
430 1.20342
435 1.10236
440 1.17642
445 1.32045
450 1.41408
455 1.31883
460 1.58745
465 1.78097
470 1.99997
475 1.97732
480 2.45082
485 2.97102
490 4.15726
495 5.55267
500 8.72576
505 317.55
510 4948.3
515 7182.82
520 1717.29
525 205.02
530 29.4407
535 7.95863
540 4.81676
545 3.87657
550 3.39913
555 3.2717
560 2.67197
565 2.57233
570 2.22922
575 2.11261
580 1.73881
585 1.67967
590 1.45446
595 1.41802
600 0.746077
Ex : 523
200 0.546817
205 0.473477
210 0.613437
215 0.505227
220 0.500595
225 0.591559
230 0.62434
235 0.451562
240 0.581045
245 0.455784
250 0.550697
255 0.519448
260 0.549192
265 0.522854
270 0.509114
275 0.567322
280 0.525176
285 0.560074
290 0.58429
295 0.420789
300 0.526238
305 0.443067
310 0.491186
315 0.531805
320 0.540601
325 0.602201
330 0.569758
335 0.604017
340 0.608703
345 0.546305
350 0.622402
355 0.736585
360 0.661241
365 0.716532
370 0.676486
375 0.709364
380 0.661288
385 0.684085
390 0.763939
395 0.845301
400 0.709029
405 0.836022
410 0.856719
415 0.875854
420 0.835565
425 0.974691
430 0.976537
435 1.08385
440 1.16881
445 1.26881
450 1.17239
455 1.3289
460 1.5542
465 1.81918
470 1.81797
475 1.92918
480 2.12283
485 2.59592
490 3.03444
495 4.01721
500 5.29864
505 8.51636
510 279.998
515 4680.55
520 6992.63
525 1739
530 207.333
535 29.2761
540 7.90498
545 4.5205
550 3.70294
555 3.16606
560 2.96341
565 2.78934
570 2.50048
575 2.02918
580 1.91453
585 1.54854
590 1.4419
595 1.33599
600 1.26217
Ex : 528
200 0.456922
205 0.539396
210 0.652772
215 0.479031
220 0.51836
225 0.541803
230 0.464347
235 0.529205
240 0.45779
245 0.518932
250 0.399421
255 0.533846
260 0.577878
265 0.552803
270 0.513234
275 0.477003
280 0.537921
285 0.464375
290 0.530585
295 0.526063
300 0.516034
305 0.438106
310 0.500621
315 0.503158
320 0.48185
325 0.582784
330 0.6388
335 0.596075
340 0.584096
345 0.533878
350 0.588121
355 0.531896
360 0.556005
365 0.620802
370 0.77982
375 0.745422
380 0.76202
385 0.743773
390 0.808619
395 0.847925
400 0.800403
405 0.972215
410 0.866369
415 1.0941
420 1.00847
425 1.03321
430 0.979214
435 1.131
440 1.18853
445 1.24954
450 1.0387
455 1.2568
460 1.47764
465 1.694
470 1.80764
475 1.734
480 1.74466
485 2.04944
490 2.50871
495 3.11743
500 3.96043
505 5.27328
510 8.00812
515 256.527
520 4497.74
525 6817.35
530 1670.1
535 199.539
540 28.2363
545 7.54153
550 4.39458
555 3.18007
560 2.87058
565 2.72152
570 2.27705
575 2.1016
580 1.76624
585 1.57403
590 1.26388
595 1.31798
600 0.962945
Ex : 533
200 0.516243
205 0.616921
210 0.446261
215 0.512373
220 0.589449
225 0.540437
230 0.513117
235 0.4384
240 0.561099
245 0.407511
250 0.514805
255 0.576752
260 0.620058
265 0.474461
270 0.579536
275 0.521351
280 0.497238
285 0.48675
290 0.622769
295 0.585725
300 0.585008
305 0.576218
310 0.594407
315 0.597953
320 0.711041
325 0.616278
330 0.689328
335 0.568549
340 0.627489
345 0.624309
350 0.608256
355 0.66444
360 0.755808
365 0.719323
370 0.728683
375 0.805018
380 0.723554
385 0.652204
390 0.658139
395 0.79871
400 0.821171
405 0.778383
410 0.917497
415 0.855903
420 0.980933
425 1.03793
430 1.01732
435 0.869064
440 1.12223
445 1.22416
450 1.22982
455 1.31288
460 1.25955
465 1.51851
470 1.51159
475 1.85767
480 1.94777
485 1.92497
490 2.11293
495 2.36374
500 2.91055
505 3.64825
510 5.30459
515 7.82426
520 255.679
525 4261.76
530 6538.08
535 1654.73
540 197.057
545 27.4538
550 7.17285
555 4.11557
560 3.10499
565 2.50171
570 2.47789
575 1.90835
580 1.81721
585 1.60415
590 1.48775
595 1.29442
600 1.15504
Ex : 538
200 0.446835
205 0.455066
210 0.494573
215 0.589836
220 0.524476
225 0.536194
230 0.47392
235 0.48716
240 0.432929
245 0.544416
250 0.499844
255 0.577401
260 0.505716
265 0.449955
270 0.427615
275 0.63156
280 0.524463
285 0.632325
290 0.553265
295 0.545764
300 0.664926
305 0.579961
310 0.53843
315 0.569111
320 0.597011
325 0.709256
330 0.576949
335 0.466978
340 0.560781
345 0.674066
350 0.663457
355 0.719519
360 0.715257
365 0.623332
370 0.700293
375 0.78973
380 0.74327
385 0.787058
390 0.882431
395 0.842817
400 0.88009
405 0.910075
410 0.879445
415 0.89495
420 1.04104
425 0.902223
430 0.982454
435 1.09361
440 1.06771
445 1.16386
450 1.11344
455 1.21793
460 1.47789
465 1.41164
470 1.38087
475 1.4811
480 1.53812
485 1.81951
490 1.97884
495 2.06786
500 2.33646
505 2.91643
510 3.70993
515 5.20438
520 7.26633
525 214.045
530 4013.48
535 6388.61
540 1671.84
545 199.083
550 27.7139
555 6.96363
560 3.71452
565 2.62645
570 2.205
575 1.90755
580 1.71802
585 1.49829
590 1.39846
595 1.34904
600 0.908625
Ex : 543
200 0.528532
205 0.516588
210 0.594585
215 0.578759
220 0.56042
225 0.621415
230 0.588761
235 0.526268
240 0.534497
245 0.677956
250 0.505795
255 0.524388
260 0.491738
265 0.602685
270 0.59705
275 0.627575
280 0.466599
285 0.521283
290 0.535333
295 0.471015
300 0.507934
305 0.531263
310 0.568174
315 0.500794
320 0.617906
325 0.626168
330 0.616731
335 0.441654
340 0.579616
345 0.589723
350 0.5251
355 0.718852
360 0.688795
365 0.561288
370 0.615835
375 0.634109
380 0.698999
385 0.729495
390 0.808277
395 0.846649
400 0.792898
405 0.851211
410 0.84221
415 0.931945
420 0.983884
425 1.02937
430 1.01007
435 0.970899
440 1.04029
445 1.06396
450 1.28494
455 1.22496
460 1.30266
465 1.49287
470 1.52509
475 1.42524
480 1.51315
485 1.56401
490 1.5553
495 1.76309
500 1.87122
505 2.27375
510 2.73884
515 3.7128
520 4.80924
525 7.37318
530 191.404
535 3757.95
540 6244.48
545 1672.75
550 200.432
555 27.7265
560 6.64602
565 3.44839
570 2.46288
575 1.94091
580 1.81199
585 1.74666
590 1.65899
595 1.39305
600 0.88802
Ex : 548
200 0.611626
205 0.491306
210 0.585223
215 0.628469
220 0.619531
225 0.537907
230 0.47349
235 0.437115
240 0.42173
245 0.544137
250 0.673087
255 0.568106
260 0.450454
265 0.596321
270 0.529536
275 0.603915
280 0.486473
285 0.460097
290 0.414127
295 0.542062
300 0.518153
305 0.457769
310 0.596756
315 0.605507
320 0.618533
325 0.599222
330 0.573019
335 0.665268
340 0.646602
345 0.766736
350 0.597864
355 0.695801
360 0.620199
365 0.662306
370 0.657924
375 0.683685
380 0.729288
385 0.758579
390 0.713647
395 0.952706
400 0.791807
405 0.759078
410 0.850651
415 0.942573
420 0.905937
425 0.960075
430 1.04087
435 0.920546
440 1.09093
445 1.04665
450 1.08569
455 1.14869
460 1.34752
465 1.35402
470 1.37673
475 1.47392
480 1.4787
485 1.4867
490 1.5319
495 1.66016
500 1.87238
505 1.85779
510 2.2146
515 2.86825
520 3.4934
525 4.65607
530 7.04463
535 201.878
540 3696.48
545 5919.97
550 1604.08
555 190.926
560 26.0694
565 6.29876
570 3.4582
575 2.21859
580 1.85005
585 1.52594
590 1.38694
595 1.35281
600 0.984412
Ex : 553
200 0.450717
205 0.538996
210 0.524752
215 0.491557
220 0.562144
225 0.534505
230 0.556669
235 0.612241
240 0.767481
245 0.712585
250 0.526035
255 0.531592
260 0.525979
265 0.529102
270 0.582723
275 0.6422
280 0.664793
285 0.493386
290 0.490252
295 0.578306
300 0.463613
305 0.568699
310 0.565032
315 0.519528
320 0.433043
325 0.565572
330 0.595474
335 0.653459
340 0.531417
345 0.590473
350 0.607112
355 0.769213
360 0.617417
365 0.660195
370 0.715717
375 0.679039
380 0.663924
385 0.606182
390 0.787933
395 0.667314
400 0.763001
405 0.819349
410 0.876778
415 0.84718
420 0.842046
425 0.986134
430 1.17867
435 0.964193
440 1.11556
445 1.08951
450 0.997351
455 1.02157
460 1.20303
465 1.41922
470 1.37494
475 1.17941
480 1.41702
485 1.29189
490 1.38682
495 1.30592
500 1.57431
505 1.69846
510 1.79663
515 2.01362
520 2.58256
525 3.38421
530 4.41554
535 6.63773
540 172.326
545 3404.59
550 5729.17
555 1576.11
560 188.288
565 25.6077
570 5.73836
575 2.96196
580 1.95606
585 1.71298
590 1.55295
595 1.30156
600 0.758097
Ex : 558
200 0.599048
205 0.627308
210 0.478863
215 0.524068
220 0.522838
225 0.609579
230 0.602945
235 0.468898
240 0.657723
245 0.514047
250 0.51476
255 0.535373
260 0.592167
265 0.461785
270 0.49699
275 0.652456
280 0.553417
285 0.578129
290 0.562176
295 0.620552
300 0.61995
305 0.621071
310 0.611765
315 0.805882
320 0.68062
325 0.62165
330 0.68725
335 0.779543
340 0.756129
345 0.692327
350 0.602114
355 0.639766
360 0.67668
365 0.632414
370 0.707254
375 0.895733
380 0.82996
385 0.66883
390 0.865899
395 0.822473
400 0.703195
405 0.898372
410 0.762879
415 0.918036
420 0.816569
425 0.834263
430 1.0452
435 0.994682
440 0.935095
445 1.02825
450 1.06822
455 0.964253
460 1.21628
465 1.3444
470 1.25619
475 1.21706
480 1.1913
485 1.17369
490 1.27471
495 1.42405
500 1.49933
505 1.65941
510 1.52763
515 1.81821
520 2.15635
525 2.4944
530 3.42553
535 4.56493
540 6.33948
545 157.98
550 3177.71
555 5504.43
560 1537.55
565 183.714
570 24.8294
575 5.58261
580 2.79822
585 1.92928
590 1.44986
595 1.42895
600 1.46859
Ex : 563
200 0.365111
205 0.603342
210 0.637048
215 0.500005
220 0.566951
225 0.64483
230 0.622849
235 0.498996
240 0.641407
245 0.554832
250 0.551997
255 0.524861
260 0.744851
265 0.564397
270 0.553414
275 0.444384
280 0.585123
285 0.439286
290 0.647159
295 0.617804
300 0.617958
305 0.735266
310 0.588415
315 0.554904
320 0.565756
325 0.577646
330 0.592678
335 0.497786
340 0.497861
345 0.617093
350 0.61047
355 0.651865
360 0.639171
365 0.639678
370 0.666964
375 0.781817
380 0.696089
385 0.809569
390 0.772586
395 0.922216
400 0.886201
405 1.07775
410 0.732786
415 0.936629
420 0.953079
425 1.00344
430 1.00156
435 0.982375
440 0.879619
445 1.00956
450 1.03232
455 0.925671
460 0.93054
465 1.15352
470 1.39717
475 1.17745
480 1.1307
485 1.17616
490 1.15917
495 1.312
500 1.41995
505 1.60744
510 1.49049
515 1.81227
520 1.79672
525 2.16315
530 2.46189
535 3.17618
540 4.25158
545 6.14299
550 149.961
555 3021.88
560 5167.67
565 1464.45
570 174.79
575 23.1592
580 4.9472
585 2.50481
590 1.75491
595 1.32703
600 1.83959
Ex : 568
200 0.528372
205 0.525372
210 0.72749
215 0.671532
220 0.512186
225 0.581534
230 0.458873
235 0.47238
240 0.600504
245 0.562702
250 0.65363
255 0.515522
260 0.52253
265 0.615717
270 0.725608
275 0.446575
280 0.535913
285 0.479934
290 0.559985
295 0.687422
300 0.587937
305 0.556079
310 0.709511
315 0.524368
320 0.672676
325 0.649382
330 0.644895
335 0.586253
340 0.726898
345 0.573376
350 0.616389
355 0.551388
360 0.608194
365 0.710601
370 0.639594
375 0.817152
380 0.657951
385 0.651529
390 0.849739
395 0.867015
400 0.665652
405 0.935262
410 0.824884
415 0.961755
420 0.954383
425 0.930862
430 0.972808
435 1.06863
440 1.11725
445 1.00595
450 0.964167
455 1.09317
460 1.42037
465 1.11797
470 1.27013
475 1.0605
480 1.11185
485 1.23432
490 1.26649
495 1.26755
500 1.26268
505 1.34126
510 1.29606
515 1.43637
520 1.72151
525 1.76696
530 1.92193
535 2.58127
540 3.1046
545 3.88158
550 5.38264
555 111.68
560 2673.01
565 4899.32
570 1451.81
575 173.576
580 22.8951
585 4.77696
590 2.39089
595 1.73807
600 1.32911
Ex : 573
200 0.654186
205 0.539635
210 0.602659
215 0.504418
220 0.568428
225 0.726202
230 0.599708
235 0.497577
240 0.577261
245 0.654997
250 0.622021
255 0.577651
260 0.725512
265 0.544766
270 0.576909
275 0.518292
280 0.622984
285 0.644182
290 0.595433
295 0.684726
300 0.563661
305 0.447936
310 0.690682
315 0.750462
320 0.575119
325 0.608242
330 0.680007
335 0.709015
340 0.654264
345 0.741663
350 0.556504
355 0.697525
360 0.739157
365 0.72336
370 0.777235
375 0.847519
380 0.543184
385 0.784328
390 0.769403
395 0.853801
400 0.754955
405 0.982011
410 0.822902
415 0.884476
420 0.793945
425 0.84723
430 0.844029
435 0.779779
440 0.916643
445 0.949357
450 0.95163
455 1.16951
460 0.920977
465 1.19438
470 1.08936
475 1.08999
480 1.17767
485 1.12335
490 1.25043
495 1.15452
500 1.35456
505 1.22288
510 1.32921
515 1.25076
520 1.34828
525 1.52928
530 1.47886
535 1.97645
540 2.28795
545 2.61694
550 3.85669
555 5.02111
560 96.7277
565 2264.14
570 4403.8
575 1345.11
580 161.037
585 20.9627
590 4.28184
595 1.98299
600 0.882104
Ex : 578
200 0.602872
205 0.526765
210 0.485053
215 0.620917
220 0.47633
225 0.518376
230 0.514641
235 0.475376
240 0.59571
245 0.488524
250 0.656406
255 0.607732
260 0.583589
265 0.678792
270 0.4546
275 0.532915
280 0.570203
285 0.457218
290 0.590318
295 0.621134
300 0.620055
305 0.618255
310 0.530453
315 0.530313
320 0.645329
325 0.569608
330 0.597442
335 0.676406
340 0.520313
345 0.764141
350 0.764463
355 0.772129
360 0.689127
365 0.681032
370 0.753259
375 0.697914
380 0.809348
385 0.900328
390 0.846493
395 0.756492
400 0.705721
405 0.866764
410 0.833036
415 0.800302
420 0.81049
425 0.917676
430 0.850765
435 0.824067
440 0.97725
445 1.03081
450 1.09801
455 0.984659
460 1.12433
465 1.0941
470 1.11236
475 1.21033
480 0.961048
485 1.10087
490 1.13407
495 1.05555
500 1.19574
505 1.02936
510 1.13565
515 1.2587
520 1.30802
525 1.35021
530 1.59943
535 1.68883
540 1.67041
545 2.12741
550 2.73554
555 3.62891
560 4.98825
565 83.0405
570 2028.33
575 3774.31
580 1147.31
585 137.037
590 17.9281
595 3.55354
600 1.9888
Ex : 583
200 0.670793
205 0.61607
210 0.5988
215 0.540354
220 0.505661
225 0.454431
230 0.654937
235 0.522565
240 0.593754
245 0.499581
250 0.617386
255 0.501954
260 0.472205
265 0.483904
270 0.525939
275 0.441187
280 0.546367
285 0.501826
290 0.505825
295 0.499758
300 0.478386
305 0.560935
310 0.700997
315 0.516776
320 0.59769
325 0.517747
330 0.620152
335 0.522574
340 0.542446
345 0.603554
350 0.697989
355 0.603574
360 0.700293
365 0.718337
370 0.783178
375 0.781289
380 0.665688
385 0.749827
390 0.738346
395 0.818821
400 0.740631
405 0.84637
410 0.683616
415 0.714071
420 0.939087
425 0.749077
430 0.770959
435 0.77724
440 0.95899
445 0.890371
450 0.997597
455 0.992135
460 1.0572
465 1.07905
470 1.04317
475 0.963824
480 1.00066
485 1.03643
490 1.024
495 1.23552
500 1.10675
505 1.14426
510 1.08142
515 1.13142
520 1.22737
525 1.20328
530 1.21505
535 1.27861
540 1.54603
545 1.69643
550 2.12112
555 2.67753
560 3.20441
565 4.33298
570 69.3996
575 1777.03
580 3245.07
585 934.889
590 112.154
595 15.0952
600 4.03138
Ex : 588
200 0.492939
205 0.68021
210 0.456553
215 0.447389
220 0.591093
225 0.56977
230 0.650807
235 0.545546
240 0.676794
245 0.694679
250 0.497888
255 0.523358
260 0.591618
265 0.581438
270 0.57983
275 0.461101
280 0.556331
285 0.548219
290 0.499772
295 0.49734
300 0.573179
305 0.559298
310 0.496613
315 0.479431
320 0.517353
325 0.590154
330 0.524724
335 0.635412
340 0.766886
345 0.565954
350 0.699222
355 0.625698
360 0.585629
365 0.784823
370 0.765245
375 0.93629
380 0.726007
385 0.743729
390 0.743881
395 0.792627
400 0.830349
405 0.783157
410 0.812054
415 0.868156
420 0.854447
425 0.711164
430 0.72275
435 0.868486
440 0.809726
445 0.926248
450 0.811539
455 0.936354
460 0.910054
465 1.14427
470 1.01574
475 1.04985
480 0.987132
485 1.13866
490 1.17904
495 1.1229
500 1.14577
505 1.12509
510 1.11069
515 1.04516
520 1.1768
525 1.31179
530 1.19506
535 1.17722
540 1.27658
545 1.38954
550 1.5695
555 2.17226
560 2.46755
565 2.84877
570 4.09905
575 60.5892
580 1478.62
585 2763.98
590 819.297
595 97.9472
600 13.2658
Ex : 593
200 0.600915
205 0.459171
210 0.611726
215 0.748923
220 0.473461
225 0.45955
230 0.531203
235 0.503194
240 0.585893
245 0.820707
250 0.670253
255 0.602378
260 0.534049
265 0.486235
270 0.600332
275 0.4589
280 0.570241
285 0.592203
290 0.562774
295 0.604587
300 0.541786
305 0.609967
310 0.513224
315 0.661776
320 0.563726
325 0.63468
330 0.678876
335 0.572349
340 0.535023
345 0.557549
350 0.591148
355 0.700527
360 0.719743
365 0.646486
370 0.742357
375 0.741938
380 0.724397
385 0.671935
390 0.809757
395 0.908243
400 0.788454
405 0.756861
410 0.875678
415 0.762435
420 0.819602
425 0.91701
430 0.885307
435 0.857636
440 0.895464
445 0.890849
450 0.885338
455 0.851572
460 1.02627
465 0.917542
470 1.00808
475 0.914968
480 1.19942
485 1.02091
490 1.18197
495 0.923208
500 0.924173
505 1.12302
510 1.02072
515 1.10379
520 1.14916
525 1.35458
530 1.11558
535 1.42766
540 1.35638
545 1.25718
550 1.37634
555 1.66735
560 1.69132
565 2.20917
570 2.6865
575 3.43624
580 50.9815
585 1286.85
590 2357.1
595 695.319
600 99.9834
Ex : 598
200 0.591573
205 0.660933
210 0.560368
215 0.579825
220 0.449426
225 0.556877
230 0.588737
235 0.639029
240 0.476715
245 0.62216
250 0.684081
255 0.585022
260 0.613594
265 0.600836
270 0.588219
275 0.499181
280 0.566195
285 0.531803
290 0.639765
295 0.707061
300 0.548979
305 0.534715
310 0.580071
315 0.524836
320 0.541751
325 0.56955
330 0.644253
335 0.542491
340 0.623338
345 0.673814
350 0.624506
355 0.598351
360 0.573404
365 0.631236
370 0.631294
375 0.684647
380 0.738515
385 0.760006
390 0.89755
395 0.804427
400 0.987836
405 0.748823
410 0.659807
415 0.865366
420 0.832091
425 0.898785
430 0.885688
435 0.855475
440 0.935443
445 0.97985
450 0.787831
455 0.918519
460 0.949766
465 0.940381
470 0.815788
475 1.04416
480 1.21235
485 1.00443
490 1.06317
495 0.910071
500 0.972151
505 1.04349
510 1.03112
515 0.949815
520 1.00852
525 0.980837
530 0.94242
535 0.985418
540 1.14202
545 1.23944
550 1.37942
555 1.49357
560 1.51267
565 1.81531
570 2.27911
575 2.37237
580 3.07464
585 50.0725
590 1147.34
595 2058.85
600 1242.48
Ex : 603
200 0.590401
205 0.655981
210 0.654149
215 0.644336
220 0.563279
225 0.577874
230 0.662559
235 0.66099
240 0.57936
245 0.509324
250 0.464715
255 0.497258
260 0.390379
265 0.662782
270 0.516087
275 0.572926
280 0.564782
285 0.611694
290 0.662435
295 0.624384
300 0.680903
305 0.533246
310 0.596242
315 0.482739
320 0.584938
325 0.748244
330 0.575983
335 0.63786
340 0.752087
345 0.781762
350 0.857736
355 0.631973
360 0.757627
365 0.732678
370 0.67164
375 0.84256
380 0.638824
385 0.671519
390 0.562443
395 0.67167
400 0.681133
405 0.936191
410 0.952039
415 0.996691
420 0.918416
425 0.817655
430 0.737895
435 1.02094
440 0.930428
445 0.853546
450 1.00367
455 1.08612
460 1.08948
465 1.00162
470 0.988389
475 0.92928
480 0.90683
485 0.866493
490 1.05757
495 1.11901
500 1.11776
505 1.11407
510 1.14042
515 0.958453
520 0.981522
525 0.971631
530 0.992059
535 1.16074
540 1.16029
545 1.08719
550 1.15782
555 1.41691
560 1.36499
565 1.54228
570 1.64139
575 1.82967
580 2.35082
585 2.7313
590 43.0986
595 966.606
600 2036.94
