File format V 1.0
ven. 9. déc. 17:18:38 2016
Operator : 
Comments : 

=============================================
SpectroFluorometer parameters
Mode : 3D measurement
Data : Fluorescence
Phospho. : Ordinary
Spectrum : Fluorescence

Scan speed : 2400 nm/mn
Response : 100 ms
PM Voltage : 700 V
Shutter : On

Lambda Ex. Start : 203
Lambda Ex. End : 603
Lambda Ex. Step : 5
Ex. Slit : 5 nm

Lambda Em. Start : 200
Lambda Em. End : 600
Lambda Em. Step : 5
Em. Slit : 5 nm

Repetition : 1
Decal lambda em : 10
=============================================
DATA
Ex : 203
200 16.2722
205 17.977
210 15.4012
215 14.0346
220 15.54
225 18.1043
230 18.8031
235 15.5005
240 14.605
245 18.5597
250 11.5688
255 12.1479
260 19.8076
265 16.0387
270 12.56
275 17.7895
280 13.7469
285 15.122
290 20.7929
295 12.61
300 17.1742
305 16.1223
310 16.0853
315 19.9626
320 13.702
325 12.2536
330 17.551
335 11.6123
340 20.0433
345 18.7478
350 15.9704
355 11.9656
360 20.8814
365 15.9775
370 13.7997
375 14.5811
380 15.425
385 21.6426
390 14.895
395 17.809
400 13.5952
405 23.0553
410 21.1114
415 16.3904
420 19.6993
425 20.5422
430 16.7469
435 19.2345
440 16.0668
445 12.833
450 14.8467
455 17.3561
460 16.302
465 24.5148
470 22.299
475 13.9467
480 13.0466
485 22.8784
490 18.9919
495 16.962
500 13.4329
505 15.5155
510 16.1877
515 16.895
520 16.5754
525 18.3795
530 18.0608
535 14.902
540 12.2363
545 10.9544
550 17.7152
555 17.8127
560 17.5917
565 12.8366
570 15.8028
575 16.1876
580 13.572
585 11.8835
590 13.9567
595 11.1135
600 15.4439
Ex : 208
200 12.3333
205 15.0061
210 13.4068
215 16.8171
220 21.4321
225 15.494
230 15.4309
235 17.506
240 10.4083
245 12.2557
250 15.4262
255 13.8378
260 15.8236
265 12.2704
270 14.6768
275 19.9355
280 16.9213
285 12.6291
290 13.0533
295 16.493
300 18.4651
305 13.1189
310 13.975
315 13.4759
320 15.4621
325 17.6384
330 14.1853
335 13.3504
340 14.0738
345 17.6999
350 12.5402
355 20.9303
360 13.8442
365 13.1952
370 12.2303
375 14.6176
380 18.3882
385 13.5251
390 13.9646
395 14.8242
400 16.2635
405 15.5742
410 16.3845
415 16.2487
420 17.3202
425 13.1233
430 24.0529
435 16.7801
440 13.7557
445 20.3334
450 18.2963
455 15.3914
460 18.0734
465 16.4575
470 16.8587
475 14.7159
480 18.4905
485 16.1898
490 17.5866
495 14.9044
500 15.414
505 11.1583
510 22.7342
515 17.9775
520 19.4118
525 17.4517
530 14.364
535 20.7643
540 15.1404
545 14.8851
550 17.3933
555 17.3286
560 13.5625
565 13.5416
570 18.7251
575 14.9837
580 13.0162
585 15.581
590 12.5083
595 14.33
600 1.6307
Ex : 213
200 15.449
205 18.7015
210 15.791
215 13.153
220 18.2002
225 16.4061
230 18.5874
235 13.6593
240 14.8811
245 16.0009
250 15.4093
255 13.0646
260 18.6377
265 14.8988
270 17.785
275 14.4726
280 15.6253
285 16.4457
290 15.0178
295 10.0969
300 12.8293
305 11.3764
310 16.2806
315 11.7381
320 14.9405
325 17.055
330 19.2539
335 16.4892
340 12.4502
345 13.8031
350 17.7782
355 16.2349
360 17.9676
365 15.0646
370 16.3884
375 17.9468
380 16.3988
385 16.3623
390 24.3393
395 17.5029
400 13.6934
405 13.5756
410 15.3549
415 15.9661
420 16.9742
425 14.1752
430 17.3099
435 19.3798
440 13.1735
445 16.8889
450 16.8089
455 10.7276
460 12.2702
465 13.7368
470 15.3893
475 17.1161
480 13.0752
485 12.316
490 18.6625
495 15.4699
500 16.1701
505 14.0224
510 17.4262
515 18.1191
520 20.7025
525 13.8519
530 10.5452
535 19.9248
540 15.317
545 15.8798
550 15.4055
555 24.9327
560 11.1235
565 18.2772
570 14.1723
575 13.5211
580 19.4931
585 19.8706
590 14.1375
595 12.3023
600 27.9861
Ex : 218
200 18.8718
205 14.6436
210 17.0504
215 13.2482
220 17.6283
225 12.8836
230 13.4753
235 13.2615
240 12.2513
245 11.849
250 23.1785
255 14.2741
260 22.2666
265 14.5127
270 15.9716
275 18.2548
280 18.2162
285 16.9381
290 14.2538
295 13.1371
300 13.5485
305 16.1953
310 14.275
315 15.6608
320 16.457
325 14.4332
330 14.6565
335 13.5308
340 11.9499
345 10.8541
350 16.8662
355 13.8102
360 13.0741
365 10.6198
370 13.7212
375 16.5855
380 16.5162
385 17.3046
390 12.2918
395 10.9339
400 14.3271
405 13.8722
410 15.161
415 16.7304
420 18.597
425 15.8174
430 16.2198
435 16.0804
440 15.5605
445 12.7717
450 13.6691
455 15.8548
460 15.8191
465 11.9405
470 15.3165
475 17.3971
480 14.0834
485 16.7782
490 10.9929
495 16.0003
500 19.3664
505 15.2462
510 12.2564
515 13.3301
520 15.0936
525 17.8336
530 15.3836
535 15.7657
540 13.8037
545 14.4321
550 15.4599
555 13.2345
560 16.2363
565 12.8898
570 14.8249
575 17.6862
580 14.4933
585 11.7628
590 13.187
595 16.7293
600 11.652
Ex : 223
200 13.1034
205 13.9234
210 13.6326
215 14.421
220 12.5349
225 14.453
230 14.8241
235 18.2176
240 13.5813
245 16.0509
250 14.3773
255 13.118
260 13.7054
265 14.6056
270 12.209
275 11.2497
280 9.64636
285 11.789
290 18.1219
295 15.2165
300 12.4023
305 13.7486
310 13.0524
315 13.4634
320 19.4086
325 13.0192
330 11.9398
335 14.422
340 15.2441
345 14.2097
350 13.6032
355 11.9066
360 15.9202
365 14.9483
370 13.0509
375 16.6819
380 12.1919
385 15.0023
390 18.0133
395 19.5005
400 12.1637
405 13.6752
410 13.6371
415 13.4725
420 13.3077
425 11.6149
430 12.2094
435 17.7786
440 19.8994
445 18.2216
450 15.5073
455 16.7733
460 15.1686
465 11.3889
470 11.2215
475 15.867
480 14.8092
485 10.8292
490 12.8595
495 15.1912
500 14.0612
505 14.9478
510 20.0636
515 13.2982
520 14.9983
525 17.2729
530 13.4591
535 15.876
540 13.2507
545 15.8027
550 14.1788
555 14.7187
560 15.9938
565 11.8581
570 16.3055
575 14.6748
580 12.3649
585 22.8439
590 13.8362
595 13.7656
600 26.3802
Ex : 228
200 8.85165
205 13.2037
210 16.9433
215 13.0335
220 12.8983
225 14.2249
230 12.9318
235 12.6356
240 10.8854
245 11.9833
250 14.2275
255 12.7299
260 13.9341
265 12.2673
270 12.8199
275 17.672
280 11.7322
285 12.7003
290 13.5077
295 13.0323
300 9.76445
305 13.6386
310 10.6369
315 14.6223
320 12.0127
325 12.2673
330 13.4815
335 11.112
340 10.6444
345 14.4318
350 14.2536
355 11.7215
360 14.2162
365 14.2346
370 13.7559
375 14.5942
380 15.5602
385 12.5153
390 12.7546
395 13.2208
400 14.9706
405 15.1886
410 14.7851
415 13.9977
420 11.8943
425 13.7655
430 15.3552
435 15.3303
440 14.957
445 13.7029
450 13.327
455 11.8072
460 14.664
465 13.6377
470 15.4104
475 12.669
480 15.7317
485 16.5737
490 10.2251
495 14.8997
500 13.719
505 16.2862
510 12.0621
515 14.2049
520 11.467
525 14.0447
530 12.6254
535 15.3463
540 15.4655
545 16.2014
550 10.0434
555 11.2456
560 11.5178
565 13.3793
570 13.8006
575 16.5144
580 17.2789
585 12.9708
590 13.603
595 12.9365
600 2.80143
Ex : 233
200 15.2707
205 15.7836
210 13.8018
215 16.7487
220 13.5362
225 13.1712
230 14.5222
235 15.641
240 11.4888
245 11.4834
250 12.896
255 14.1958
260 16.4405
265 11.9794
270 14.6462
275 12.2355
280 12.2263
285 11.2209
290 13.182
295 13.5821
300 11.1763
305 14.4292
310 10.5522
315 13.6595
320 9.303
325 10.966
330 13.8972
335 12.4547
340 13.5093
345 13.5761
350 14.2728
355 16.1443
360 14.8712
365 11.0627
370 12.3364
375 10.5582
380 14.3211
385 8.71931
390 12.9462
395 12.9762
400 12.6698
405 12.8057
410 13.2311
415 14.6565
420 13.1753
425 9.6684
430 12.7883
435 10.6298
440 17.0528
445 13.8763
450 13.0538
455 11.9983
460 13.4517
465 11.5682
470 12.3963
475 12.9885
480 12.1302
485 10.9896
490 12.0623
495 11.8672
500 9.95321
505 15.4385
510 13.6116
515 9.76255
520 12.0724
525 13.0572
530 13.5818
535 13.2718
540 14.2434
545 11.6454
550 11.9237
555 13.3519
560 14.5364
565 13.1315
570 10.8152
575 13.1628
580 13.6172
585 10.5638
590 11.6476
595 11.1513
600 1.26898
Ex : 238
200 9.80909
205 8.91328
210 8.43309
215 8.60564
220 10.6415
225 12.1287
230 14.7478
235 9.33073
240 9.03764
245 11.05
250 9.40481
255 10.3227
260 11.382
265 14.3333
270 11.4345
275 10.2486
280 11.1092
285 9.90467
290 11.168
295 9.38216
300 11.23
305 11.4769
310 13.3078
315 8.85604
320 11.1049
325 10.7996
330 9.90484
335 11.4833
340 9.88553
345 13.1961
350 10.8149
355 11.8424
360 11.6959
365 10.5687
370 10.3302
375 9.22897
380 9.90835
385 8.50985
390 8.91185
395 9.80264
400 12.1721
405 11.0201
410 7.64908
415 11.9699
420 12.9774
425 9.29149
430 7.44815
435 12.3218
440 12.2238
445 11.6787
450 13.9305
455 9.93679
460 10.0284
465 12.2497
470 9.91801
475 11.8322
480 12.5894
485 10.8534
490 10.6465
495 8.13057
500 9.37888
505 11.5009
510 12.2695
515 9.38018
520 8.55767
525 11.6245
530 14.1119
535 11.9357
540 9.64853
545 8.53646
550 8.51769
555 10.4055
560 10.8716
565 10.9584
570 10.7582
575 9.28663
580 9.02013
585 9.79003
590 12.0426
595 11.8444
600 14.9954
Ex : 243
200 6.40601
205 7.7507
210 7.38703
215 9.95586
220 10.5707
225 8.93804
230 7.68623
235 8.51187
240 9.33707
245 9.64674
250 9.382
255 10.7989
260 12.5662
265 9.631
270 7.94741
275 10.6312
280 7.64717
285 8.28943
290 9.45227
295 8.06398
300 11.2842
305 8.39508
310 9.95452
315 8.69601
320 9.25161
325 10.956
330 8.40216
335 7.51745
340 7.51067
345 9.48296
350 12.4578
355 10.9837
360 8.30531
365 8.41853
370 12.0553
375 10.28
380 10.3016
385 8.26543
390 13.8315
395 9.82305
400 10.6534
405 12.6337
410 9.87754
415 9.83718
420 8.65565
425 8.31884
430 10.1223
435 9.83596
440 9.46004
445 9.43919
450 10.1789
455 10.0377
460 6.56474
465 6.7906
470 9.41323
475 8.78327
480 11.0122
485 12.633
490 8.87694
495 8.75102
500 10.6905
505 7.16578
510 8.32104
515 8.25544
520 8.76868
525 8.26257
530 11.4195
535 9.15263
540 8.60783
545 12.6975
550 8.83601
555 8.07032
560 8.49198
565 7.73607
570 8.72462
575 8.46636
580 9.75731
585 8.64833
590 8.9671
595 8.25775
600 30.7752
Ex : 248
200 9.63036
205 9.16205
210 6.81575
215 7.39016
220 9.25105
225 8.66882
230 6.49299
235 9.60701
240 7.66175
245 10.0036
250 6.85895
255 9.18594
260 8.61034
265 7.5024
270 7.58222
275 7.0427
280 6.82232
285 6.89422
290 5.96384
295 7.23891
300 6.54586
305 6.79177
310 7.55631
315 8.15402
320 8.73576
325 9.72599
330 8.66905
335 7.21541
340 7.24384
345 6.3465
350 9.53279
355 8.15676
360 9.32195
365 8.62498
370 9.36918
375 9.95471
380 10.5886
385 6.90674
390 7.08954
395 9.05972
400 9.2086
405 8.45014
410 7.27148
415 7.41558
420 7.42997
425 7.53816
430 7.73394
435 6.41163
440 9.11757
445 7.76679
450 7.7424
455 8.87432
460 8.29769
465 7.08437
470 6.55491
475 7.31409
480 8.15985
485 9.33719
490 9.21214
495 8.34016
500 7.80371
505 6.76839
510 7.44629
515 8.31385
520 8.28728
525 6.81344
530 9.62006
535 7.66789
540 8.95185
545 7.54969
550 9.3566
555 8.98247
560 6.20747
565 8.05892
570 10.2762
575 6.03912
580 7.32217
585 5.96178
590 7.41715
595 5.33434
600 3.59797
Ex : 253
200 6.98698
205 5.9476
210 6.61577
215 7.70452
220 5.00299
225 6.36557
230 5.51415
235 4.83293
240 6.04629
245 6.36866
250 5.96397
255 5.27189
260 5.95269
265 7.59168
270 6.63376
275 6.38845
280 5.28633
285 5.74017
290 4.9017
295 7.24349
300 5.48926
305 5.95121
310 4.36459
315 5.49227
320 6.11013
325 7.08209
330 5.53617
335 6.18447
340 4.52289
345 5.7641
350 4.28842
355 7.93911
360 6.42405
365 5.96854
370 5.67116
375 6.37428
380 6.03556
385 6.47888
390 5.12266
395 5.61564
400 7.38782
405 5.77846
410 5.78976
415 5.4411
420 5.8211
425 5.65696
430 6.22243
435 7.91954
440 7.11155
445 6.64068
450 5.20984
455 6.9498
460 5.966
465 8.08173
470 6.81687
475 6.02722
480 6.19115
485 4.86594
490 6.86003
495 8.63352
500 6.95902
505 5.70547
510 5.72709
515 6.52914
520 6.47011
525 5.26628
530 6.33566
535 5.44739
540 5.38007
545 6.6004
550 7.57789
555 5.98966
560 6.90911
565 6.50563
570 7.05046
575 5.71307
580 5.9276
585 5.41642
590 4.70547
595 5.99532
600 9.93815
Ex : 258
200 3.73589
205 5.68685
210 5.74056
215 5.71132
220 4.38849
225 3.88622
230 5.88658
235 4.43624
240 4.12778
245 5.25056
250 4.81491
255 4.69383
260 5.54288
265 4.91287
270 5.32491
275 4.625
280 6.27264
285 4.91066
290 3.85797
295 3.57161
300 3.96027
305 3.93853
310 5.93212
315 4.5103
320 6.1392
325 5.71625
330 6.43
335 4.10848
340 5.05016
345 4.49274
350 4.66731
355 5.32799
360 4.66457
365 3.73689
370 5.06147
375 6.27819
380 7.01275
385 6.43062
390 5.64486
395 5.85658
400 4.80267
405 5.4161
410 5.3213
415 5.41382
420 5.13589
425 5.283
430 4.32904
435 4.26125
440 4.83076
445 3.68775
450 4.80471
455 5.96019
460 4.67954
465 5.15048
470 4.53143
475 5.43121
480 4.29455
485 3.8577
490 5.12398
495 5.53263
500 6.39081
505 4.92279
510 5.47845
515 5.22696
520 4.74117
525 4.21873
530 4.12065
535 5.34943
540 5.34617
545 5.66878
550 4.09081
555 5.14871
560 5.17097
565 4.03141
570 3.73991
575 6.74366
580 5.43096
585 5.26301
590 4.14191
595 3.60125
600 3.75769
Ex : 263
200 3.14506
205 2.96042
210 3.2601
215 3.95386
220 4.10087
225 3.73542
230 2.83995
235 3.94565
240 3.18449
245 2.68089
250 3.09738
255 3.19906
260 3.63244
265 3.7938
270 2.87604
275 3.14625
280 3.34672
285 3.41709
290 2.55331
295 2.81304
300 3.65252
305 4.03079
310 3.67118
315 4.40016
320 3.07565
325 3.13262
330 3.37524
335 4.7372
340 4.21307
345 4.19213
350 3.57244
355 5.47612
360 4.03379
365 3.62264
370 3.16948
375 4.51177
380 3.55262
385 3.11267
390 3.59334
395 4.03048
400 2.89053
405 4.21885
410 4.94413
415 4.55546
420 5.06314
425 4.03851
430 4.37774
435 4.64651
440 4.02766
445 3.57666
450 5.29507
455 5.63453
460 4.47353
465 4.12774
470 3.33142
475 1.8949
480 4.98761
485 4.64771
490 4.02537
495 4.40571
500 2.94716
505 3.08317
510 3.35727
515 4.53109
520 5.35009
525 5.31326
530 4.66952
535 5.62495
540 4.0273
545 4.06494
550 4.83688
555 3.85081
560 3.04813
565 3.8378
570 3.74863
575 3.96163
580 4.28347
585 3.43868
590 2.62805
595 4.28698
600 6.50137
Ex : 268
200 2.70524
205 2.99535
210 3.31034
215 2.6193
220 3.36561
225 2.78559
230 2.40097
235 2.33676
240 2.93208
245 3.67414
250 3.27616
255 2.48665
260 2.10413
265 2.65395
270 2.62629
275 3.06691
280 2.85707
285 2.92276
290 2.84261
295 2.78516
300 3.03478
305 2.33438
310 2.33382
315 2.29781
320 3.49824
325 2.98285
330 2.81865
335 2.69917
340 2.61193
345 2.66798
350 2.91269
355 2.38309
360 2.62081
365 3.8528
370 2.66948
375 3.49922
380 3.77124
385 4.18223
390 3.03337
395 3.6902
400 3.07639
405 3.27621
410 3.57621
415 3.65057
420 1.78422
425 3.21248
430 2.66862
435 2.74074
440 3.21238
445 3.63977
450 3.88764
455 3.36547
460 2.54317
465 3.13603
470 4.14761
475 3.70377
480 3.62611
485 2.97483
490 2.96388
495 3.12157
500 2.64316
505 1.85596
510 2.66653
515 3.24683
520 3.15786
525 2.93631
530 4.09083
535 3.45125
540 2.74943
545 2.83813
550 2.46732
555 2.07771
560 2.42727
565 2.36109
570 2.6942
575 2.46463
580 2.32768
585 1.85011
590 3.53594
595 2.51473
600 4.99704
Ex : 273
200 2.05728
205 2.01959
210 2.15553
215 2.13083
220 1.70942
225 2.45572
230 2.79902
235 2.01338
240 2.2541
245 2.17574
250 1.93678
255 1.75371
260 3.26597
265 2.44778
270 1.84751
275 2.12889
280 2.06782
285 1.95762
290 1.96832
295 1.7039
300 2.46716
305 2.53734
310 2.4417
315 2.14784
320 2.47608
325 1.98279
330 2.23534
335 2.47205
340 2.54104
345 1.94306
350 3.21507
355 2.76657
360 2.37402
365 2.69011
370 2.31433
375 2.31484
380 2.62373
385 2.21386
390 2.14909
395 2.13196
400 2.92379
405 2.94888
410 2.9325
415 1.93658
420 2.87283
425 2.73639
430 2.22271
435 2.49263
440 3.81367
445 2.7712
450 2.52999
455 3.12691
460 2.61186
465 2.13485
470 2.94646
475 2.6532
480 2.27329
485 2.14862
490 3.0585
495 2.32689
500 2.77311
505 1.97506
510 2.16059
515 2.79053
520 2.65885
525 2.44321
530 2.76705
535 2.67034
540 3.21346
545 2.89681
550 2.82434
555 2.43646
560 1.98737
565 1.9325
570 2.44843
575 1.72439
580 2.31943
585 2.38925
590 3.27201
595 2.12654
600 1.53965
Ex : 278
200 1.94219
205 2.02817
210 2.02561
215 1.5004
220 1.3241
225 2.23842
230 1.5978
235 1.73621
240 1.69366
245 1.79075
250 1.84807
255 2.00682
260 1.97471
265 1.5407
270 2.04966
275 2.31511
280 1.76296
285 2.16988
290 2.75724
295 2.05442
300 2.18372
305 1.93758
310 1.59279
315 1.87945
320 1.63676
325 1.81642
330 2.6114
335 1.80605
340 1.83329
345 1.96195
350 1.77761
355 1.94335
360 2.33038
365 2.03476
370 2.74531
375 2.24536
380 2.18385
385 1.85644
390 2.17447
395 3.08586
400 2.00024
405 3.37032
410 2.41521
415 2.58408
420 2.14316
425 2.17347
430 2.39771
435 1.94228
440 2.02397
445 2.10831
450 2.41353
455 2.26353
460 2.1435
465 1.55476
470 1.63298
475 1.68883
480 2.0358
485 1.81986
490 2.34792
495 2.16964
500 1.8115
505 1.43102
510 2.37023
515 2.15682
520 2.13074
525 2.31099
530 1.86892
535 1.78216
540 1.51591
545 2.15938
550 2.84742
555 2.49785
560 2.45236
565 1.72762
570 1.65908
575 1.94148
580 2.08154
585 1.74034
590 1.47081
595 2.02812
600 1.64872
Ex : 283
200 1.38584
205 1.36944
210 1.40163
215 1.39675
220 1.68331
225 2.21523
230 1.81559
235 1.37696
240 1.67919
245 1.607
250 1.70977
255 1.34006
260 1.60915
265 1.40672
270 1.68123
275 1.55638
280 1.63091
285 1.60764
290 1.42645
295 1.63363
300 1.38717
305 1.56992
310 1.28685
315 1.45671
320 1.37112
325 1.41188
330 2.06849
335 2.04599
340 1.84028
345 1.92547
350 1.85714
355 1.91322
360 1.54555
365 1.96059
370 1.84264
375 1.8136
380 1.63726
385 1.60081
390 1.35986
395 2.13619
400 1.82026
405 1.86707
410 2.14196
415 1.80552
420 1.76998
425 1.75213
430 1.74325
435 2.11269
440 2.09248
445 1.80374
450 1.81454
455 1.84579
460 2.06162
465 1.6358
470 1.72211
475 2.14081
480 1.87246
485 1.6399
490 1.47564
495 1.92784
500 1.32432
505 1.90243
510 1.61136
515 1.76172
520 1.50494
525 1.67573
530 1.94998
535 1.78106
540 1.77288
545 1.5828
550 1.72935
555 2.1298
560 2.30087
565 1.84514
570 1.76361
575 1.45531
580 1.50907
585 1.69329
590 1.62266
595 1.37445
600 1.83035
Ex : 288
200 1.46162
205 1.03916
210 1.12591
215 1.12318
220 1.19234
225 0.970694
230 1.2909
235 1.31568
240 1.30154
245 1.24621
250 1.16266
255 1.09083
260 1.25554
265 1.61824
270 1.92113
275 1.37329
280 1.59984
285 1.6935
290 1.26302
295 1.12753
300 1.2749
305 0.988162
310 1.12329
315 1.37228
320 1.38363
325 1.15493
330 1.12212
335 1.25977
340 1.14483
345 1.5486
350 1.25381
355 2.15664
360 1.63682
365 1.43438
370 1.42459
375 1.4584
380 1.41975
385 1.64759
390 1.53125
395 1.78402
400 1.88334
405 1.63993
410 1.51121
415 1.56111
420 1.84247
425 1.86319
430 1.84851
435 1.44303
440 1.72871
445 1.60471
450 1.60461
455 1.76072
460 2.06903
465 1.4136
470 1.60236
475 2.13466
480 1.69981
485 1.31914
490 1.35036
495 1.22398
500 1.60184
505 1.66143
510 1.36039
515 1.30166
520 1.37742
525 1.51162
530 1.3528
535 1.44198
540 1.25962
545 1.5691
550 1.43811
555 1.14361
560 1.86341
565 1.62212
570 2.09801
575 2.43838
580 1.48594
585 1.58891
590 1.74572
595 1.42067
600 1.17153
Ex : 293
200 1.06947
205 1.81754
210 1.25193
215 0.959138
220 1.20653
225 1.06882
230 1.0452
235 0.837975
240 0.976936
245 1.04832
250 1.38554
255 1.24925
260 0.947569
265 0.936763
270 1.07233
275 1.23051
280 1.35845
285 1.58875
290 1.87773
295 1.20369
300 1.12169
305 1.20181
310 1.53699
315 1.31883
320 1.28786
325 1.14364
330 1.12911
335 0.859723
340 1.21792
345 1.05559
350 1.18365
355 1.38202
360 1.45849
365 1.36874
370 1.49706
375 1.24291
380 1.4242
385 1.63142
390 1.5362
395 1.60162
400 1.25695
405 1.51646
410 1.44086
415 1.41134
420 1.47605
425 1.36747
430 1.34076
435 1.36509
440 1.40239
445 1.27692
450 1.3733
455 1.34127
460 1.3973
465 1.58006
470 2.0439
475 1.46132
480 1.71789
485 1.22251
490 1.21465
495 1.21791
500 1.51727
505 1.07193
510 1.21645
515 1.15208
520 1.3454
525 1.22548
530 1.23717
535 0.972714
540 1.33247
545 0.99782
550 1.46907
555 0.96694
560 1.00095
565 0.929653
570 1.25596
575 1.75218
580 2.21563
585 1.62926
590 1.33375
595 1.06134
600 0.120777
Ex : 298
200 1.01844
205 0.861187
210 0.93201
215 1.00512
220 1.11909
225 0.766119
230 0.732129
235 1.09517
240 0.902685
245 1.47284
250 1.01691
255 0.929902
260 0.899802
265 0.881035
270 1.18641
275 0.865879
280 0.935788
285 0.977236
290 1.42051
295 1.25856
300 0.925551
305 1.00359
310 1.04518
315 1.18282
320 0.802826
325 0.944252
330 0.966723
335 1.11779
340 1.16429
345 1.15413
350 1.32534
355 1.14899
360 1.00998
365 1.20181
370 1.36206
375 1.15694
380 1.42859
385 1.41733
390 1.45325
395 1.24266
400 1.42177
405 1.33732
410 1.4359
415 1.37728
420 1.22253
425 1.52045
430 1.27275
435 1.4625
440 1.15285
445 1.43295
450 1.45032
455 1.16114
460 0.954853
465 1.16235
470 1.38454
475 1.32938
480 1.00983
485 0.958203
490 0.96755
495 1.25951
500 0.996344
505 1.20711
510 0.972328
515 1.25999
520 1.02886
525 1.00401
530 1.05517
535 1.12807
540 0.888183
545 1.04837
550 1.30321
555 1.06682
560 1.03327
565 0.801004
570 1.06168
575 1.05491
580 0.762543
585 1.15887
590 1.69481
595 1.41736
600 1.29625
Ex : 303
200 0.752326
205 1.0236
210 0.69221
215 0.665616
220 0.832463
225 0.774677
230 0.9156
235 0.871387
240 0.872429
245 0.873309
250 0.864983
255 0.773286
260 0.756194
265 0.742119
270 0.802829
275 0.702929
280 0.752459
285 0.666597
290 0.753711
295 0.996079
300 1.3422
305 1.21144
310 0.833818
315 0.885223
320 0.841376
325 0.927771
330 0.997928
335 0.955565
340 0.696052
345 0.957431
350 0.927306
355 1.1682
360 1.02556
365 1.04846
370 1.0616
375 1.43986
380 0.978312
385 1.36212
390 1.05078
395 1.26149
400 1.41331
405 1.24823
410 1.29867
415 1.40263
420 1.3105
425 1.51046
430 1.34723
435 1.14641
440 1.26776
445 1.44637
450 1.28068
455 1.32265
460 1.40234
465 1.00345
470 0.965124
475 1.25758
480 1.15891
485 1.21783
490 1.0139
495 1.01952
500 0.773267
505 0.993609
510 1.13408
515 0.981949
520 1.12436
525 1.29589
530 0.839061
535 1.2002
540 0.905321
545 0.764067
550 0.848479
555 0.930218
560 0.828921
565 0.89419
570 1.1039
575 0.69578
580 0.652866
585 0.838704
590 0.835911
595 1.28698
600 1.3501
Ex : 308
200 0.695927
205 0.563943
210 0.645403
215 0.82518
220 0.887043
225 0.771345
230 0.722331
235 0.683994
240 0.741229
245 0.73365
250 0.636691
255 0.557352
260 0.690485
265 0.58262
270 0.754378
275 0.786122
280 0.688153
285 0.616949
290 0.687038
295 0.698863
300 0.92333
305 1.12342
310 0.879959
315 0.723345
320 0.612744
325 0.794317
330 0.784419
335 0.792154
340 0.842142
345 0.670907
350 0.903489
355 1.07376
360 0.953776
365 1.08116
370 1.18401
375 1.02262
380 1.40937
385 1.20843
390 1.05539
395 1.28022
400 1.40754
405 1.34957
410 1.54614
415 1.207
420 1.24222
425 1.23088
430 1.21113
435 1.24361
440 1.05678
445 0.998822
450 1.11716
455 1.0887
460 1.00165
465 0.904882
470 0.961995
475 0.942347
480 0.951319
485 0.900953
490 0.722189
495 1.12638
500 1.01746
505 0.94923
510 0.944755
515 0.947655
520 0.899123
525 0.819667
530 0.604275
535 0.621584
540 0.713168
545 0.919793
550 0.833137
555 1.09796
560 1.03001
565 0.729282
570 0.926832
575 0.889937
580 0.871247
585 0.636272
590 0.684523
595 0.834838
600 1.19988
Ex : 313
200 0.587448
205 0.614334
210 0.60937
215 0.437785
220 0.518649
225 0.591286
230 0.45845
235 0.702716
240 0.361557
245 0.459146
250 0.567098
255 0.918209
260 0.691972
265 0.905052
270 0.548466
275 0.5654
280 0.565303
285 0.837561
290 0.838361
295 0.634367
300 0.58511
305 1.00882
310 1.20182
315 0.786945
320 0.510144
325 0.708858
330 0.942029
335 0.794444
340 0.902696
345 0.937017
350 0.890081
355 0.978286
360 1.2555
365 1.05054
370 0.934451
375 1.18506
380 1.01608
385 1.19738
390 1.26307
395 1.21812
400 1.30527
405 1.29725
410 1.40097
415 1.43538
420 1.56031
425 1.65678
430 1.12677
435 1.13421
440 1.25056
445 1.33746
450 1.3921
455 1.30037
460 1.09177
465 1.1263
470 0.995992
475 0.91779
480 0.70354
485 0.949188
490 0.743339
495 0.937492
500 0.833761
505 0.986299
510 0.849457
515 0.82648
520 0.595571
525 0.844257
530 0.741512
535 0.903452
540 0.627021
545 0.636526
550 0.64466
555 0.661688
560 0.759774
565 0.943571
570 0.716188
575 0.740299
580 0.60411
585 0.81779
590 0.527212
595 0.763803
600 0.814871
Ex : 318
200 0.543701
205 0.659372
210 0.676482
215 0.730325
220 0.496522
225 0.427518
230 0.559818
235 0.434142
240 0.477157
245 0.56795
250 0.641688
255 0.514456
260 0.5686
265 0.512707
270 0.570196
275 0.546645
280 0.637614
285 0.548098
290 0.609254
295 0.754327
300 0.482077
305 0.594014
310 0.769686
315 1.04188
320 0.847651
325 0.842385
330 0.747896
335 1.36085
340 1.35586
345 1.81231
350 2.34902
355 2.58565
360 3.41681
365 3.39378
370 4.13138
375 4.96565
380 5.48694
385 6.06576
390 6.62293
395 6.93178
400 6.7907
405 6.52336
410 6.98466
415 7.22865
420 7.04045
425 7.1519
430 6.98202
435 6.61764
440 6.45304
445 5.99848
450 5.46851
455 5.57422
460 5.14922
465 4.74237
470 4.43724
475 3.88978
480 3.77848
485 3.25539
490 2.8961
495 2.44453
500 2.30139
505 2.26862
510 1.95519
515 1.90873
520 1.77311
525 1.43812
530 1.27174
535 1.43631
540 1.27226
545 1.22942
550 1.07478
555 0.880026
560 1.00017
565 0.69767
570 0.986792
575 0.770117
580 0.716721
585 0.577462
590 0.627035
595 0.598697
600 0.363531
Ex : 323
200 0.503115
205 0.670055
210 0.644652
215 0.670948
220 0.430793
225 0.520199
230 0.500986
235 0.590214
240 0.672347
245 0.525075
250 0.476096
255 0.512987
260 0.490754
265 0.514014
270 0.574019
275 0.467378
280 0.511936
285 0.485131
290 0.582661
295 0.570193
300 0.602938
305 0.721917
310 0.528424
315 2.24838
320 9.31813
325 4.49139
330 2.20548
335 2.93995
340 4.24073
345 6.38649
350 8.75652
355 11.3599
360 13.7506
365 16.0712
370 19.8354
375 22.3972
380 24.8531
385 27.665
390 29.826
395 32.3019
400 33.5948
405 34.1182
410 34.8347
415 34.8516
420 33.8844
425 32.7917
430 32.1416
435 29.944
440 28.9224
445 28.604
450 27.4216
455 25.0196
460 23.9295
465 21.6399
470 20.1407
475 17.9463
480 16.1112
485 14.4803
490 13.4813
495 11.9692
500 10.5066
505 9.83634
510 8.33913
515 7.49206
520 6.67286
525 5.44457
530 4.78651
535 4.26979
540 3.66549
545 3.33337
550 3.13751
555 2.71364
560 2.29114
565 2.06673
570 1.77502
575 1.35929
580 1.41024
585 0.957067
590 0.888666
595 0.858977
600 1.77819
Ex : 328
200 0.57823
205 0.521485
210 0.502897
215 0.6499
220 0.568435
225 0.536867
230 0.53365
235 0.519015
240 0.554775
245 0.581398
250 0.59517
255 0.473056
260 0.54241
265 0.535727
270 0.443369
275 0.608903
280 0.570848
285 0.551263
290 0.434512
295 0.440749
300 0.506613
305 0.608099
310 0.513931
315 1.04952
320 23.0656
325 57.5301
330 20.3612
335 6.14244
340 6.45931
345 7.77101
350 9.75879
355 14.4119
360 19.2292
365 21.9124
370 25.3012
375 28.2044
380 31.1276
385 35.3161
390 38.4833
395 41.1253
400 41.7612
405 43.3192
410 44.2633
415 44.5841
420 43.0704
425 40.9545
430 40.6193
435 38.9243
440 37.5194
445 35.4738
450 33.6018
455 30.5065
460 28.8628
465 27.2838
470 24.9685
475 22.5566
480 20.982
485 19.5212
490 17.9762
495 15.2611
500 13.3764
505 11.9107
510 10.6799
515 9.38818
520 8.13722
525 7.45621
530 6.59145
535 5.82103
540 4.85628
545 4.16068
550 3.82516
555 3.55016
560 2.82965
565 2.38536
570 2.12414
575 1.73074
580 1.70956
585 1.28798
590 1.23053
595 0.938858
600 0.924873
Ex : 333
200 0.472202
205 0.375528
210 0.452406
215 0.362298
220 0.2914
225 0.387509
230 0.593438
235 0.426088
240 0.494477
245 0.385203
250 0.403876
255 0.555957
260 0.436292
265 0.667054
270 0.593316
275 0.467674
280 0.423156
285 0.359893
290 0.505322
295 0.474212
300 0.465186
305 0.520724
310 0.546997
315 0.447927
320 4.08269
325 75.25
330 133.997
335 36.1781
340 8.13687
345 6.23418
350 6.77326
355 8.22598
360 11.4424
365 16.3258
370 17.4119
375 17.3795
380 18.8221
385 21.5917
390 24.1309
395 25.2017
400 26.3135
405 26.5672
410 27.8212
415 27.2996
420 26.7278
425 25.1743
430 24.4993
435 24.2099
440 23.1562
445 21.5146
450 19.9158
455 19.244
460 17.6219
465 16.3622
470 15.2774
475 14.2399
480 13.127
485 11.7886
490 10.6516
495 9.7494
500 8.76104
505 7.54262
510 6.8378
515 6.44683
520 5.56199
525 5.23291
530 4.38063
535 3.63949
540 3.35731
545 2.94518
550 2.7618
555 2.7472
560 2.23011
565 2.40739
570 1.88729
575 1.52816
580 1.29374
585 1.12226
590 0.978551
595 0.790894
600 1.62884
Ex : 338
200 0.410213
205 0.546029
210 0.39991
215 0.438406
220 0.474597
225 0.530194
230 0.50464
235 0.415022
240 0.343536
245 0.360786
250 0.583826
255 0.380552
260 0.559173
265 0.508097
270 0.443909
275 0.506299
280 0.446854
285 0.492214
290 0.418852
295 0.440913
300 0.443857
305 0.519446
310 0.44941
315 0.531584
320 0.628313
325 7.67352
330 120.907
335 184.121
340 45.8741
345 8.24568
350 4.79424
355 5.10074
360 4.82805
365 7.40552
370 12.0755
375 12.1045
380 10.7914
385 11.301
390 13.3994
395 14.7295
400 14.5102
405 14.5106
410 15.7198
415 16.2503
420 16.0599
425 15.3553
430 14.6111
435 13.801
440 13.4202
445 12.5811
450 12.3292
455 11.8303
460 11.1452
465 10.4383
470 9.31623
475 8.96452
480 8.42385
485 7.36431
490 7.39195
495 6.0033
500 5.36361
505 5.30737
510 4.6084
515 4.15605
520 3.77397
525 3.66093
530 3.25275
535 2.99797
540 2.73435
545 2.44834
550 2.10154
555 1.92575
560 1.87694
565 1.73071
570 1.48144
575 1.29731
580 1.09897
585 0.940728
590 0.729328
595 0.782972
600 2.04256
Ex : 343
200 0.364666
205 0.34464
210 0.382996
215 0.423821
220 0.427073
225 0.385208
230 0.481777
235 0.415772
240 0.344715
245 0.428781
250 0.367345
255 0.361298
260 0.393112
265 0.328365
270 0.302364
275 0.47488
280 0.352111
285 0.362917
290 0.386924
295 0.338969
300 0.420308
305 0.418505
310 0.45769
315 0.385641
320 0.633584
325 0.686702
330 9.72484
335 145.91
340 208.265
345 51.0987
350 8.4252
355 4.01258
360 4.03431
365 3.26547
370 4.69537
375 8.69786
380 10.5592
385 10.0419
390 9.99024
395 10.6428
400 10.8967
405 11.7031
410 12.6853
415 13.0382
420 13.0103
425 12.1524
430 11.5245
435 11.1525
440 10.8635
445 10.5975
450 9.95495
455 9.2215
460 8.74728
465 8.25896
470 7.92348
475 7.41352
480 6.57617
485 6.43609
490 5.92651
495 5.43888
500 4.91818
505 4.67384
510 4.33763
515 3.77252
520 3.22981
525 2.96438
530 2.96829
535 2.59511
540 2.29831
545 2.19339
550 2.19256
555 1.88052
560 1.69746
565 1.50699
570 1.45104
575 1.18999
580 1.04337
585 0.935432
590 0.827716
595 0.669551
600 1.01487
Ex : 348
200 0.420288
205 0.314204
210 0.392968
215 0.325417
220 0.325919
225 0.344875
230 0.359303
235 0.33646
240 0.337653
245 0.332507
250 0.372252
255 0.502574
260 0.325176
265 0.377388
270 0.374696
275 0.382916
280 0.329546
285 0.311725
290 0.353423
295 0.326302
300 0.302481
305 0.336734
310 0.345018
315 0.472258
320 0.4545
325 0.428094
330 0.624144
335 9.93033
340 147.358
345 220.305
350 56.0685
355 8.80894
360 3.5833
365 3.22424
370 2.7716
375 3.12981
380 7.97818
385 11.9304
390 11.9699
395 11.4411
400 11.1582
405 11.475
410 12.5666
415 13.4754
420 13.5953
425 12.5078
430 11.705
435 11.9191
440 11.2589
445 10.7477
450 10.012
455 9.25383
460 8.88581
465 8.16567
470 7.90185
475 7.04697
480 6.75604
485 6.06873
490 5.61955
495 5.24508
500 4.95192
505 4.46473
510 4.21753
515 3.73262
520 3.35812
525 3.00602
530 2.8164
535 2.61401
540 2.30414
545 2.1494
550 1.91724
555 1.79148
560 1.66173
565 1.32881
570 1.28964
575 1.42808
580 0.997793
585 0.918697
590 0.787871
595 0.714796
600 0.848664
Ex : 353
200 0.269205
205 0.31712
210 0.335349
215 0.350632
220 0.360394
225 0.415031
230 0.384762
235 0.312715
240 0.376983
245 0.352341
250 0.489588
255 0.385166
260 0.348571
265 0.484855
270 0.266503
275 0.304755
280 0.245014
285 0.32048
290 0.392544
295 0.327514
300 0.373383
305 0.352227
310 0.313709
315 0.331021
320 0.420283
325 0.413716
330 0.513635
335 0.566179
340 10.0311
345 150.589
350 217.386
355 53.7466
360 8.13464
365 3.23678
370 2.88564
375 2.69971
380 3.69043
385 8.07321
390 14.0562
395 14.4857
400 12.7439
405 11.6616
410 12.7458
415 13.7679
420 13.7061
425 12.6128
430 11.776
435 11.2545
440 11.3745
445 11.2619
450 9.98996
455 9.73893
460 8.91383
465 8.57345
470 7.87348
475 7.51839
480 6.57047
485 6.37628
490 5.78534
495 5.35363
500 5.02202
505 4.59341
510 4.04904
515 3.72108
520 3.40897
525 3.18009
530 2.85893
535 2.44596
540 2.34706
545 2.22658
550 1.87822
555 1.81421
560 1.65927
565 1.60396
570 1.40058
575 1.10297
580 0.923156
585 0.912353
590 0.738406
595 0.71031
600 0.0808306
Ex : 358
200 0.35345
205 0.280119
210 0.371243
215 0.327514
220 0.300465
225 0.304021
230 0.360946
235 0.310033
240 0.28282
245 0.308159
250 0.351442
255 0.376651
260 0.367421
265 0.358116
270 0.275823
275 0.297823
280 0.308552
285 0.323902
290 0.360212
295 0.348558
300 0.250312
305 0.332087
310 0.332783
315 0.306971
320 0.351922
325 0.417533
330 0.469121
335 0.434293
340 0.549373
345 9.33591
350 146.377
355 221.865
360 55.0943
365 8.19889
370 3.10838
375 3.11503
380 3.30388
385 5.27289
390 9.22713
395 13.9117
400 13.5552
405 12.0252
410 11.7874
415 13.0185
420 12.293
425 12.0483
430 11.2266
435 10.6687
440 10.7703
445 10.8994
450 9.55101
455 9.15896
460 8.77299
465 8.36384
470 7.9011
475 7.58094
480 6.70935
485 6.10418
490 5.91646
495 5.43475
500 4.96919
505 4.49265
510 4.12532
515 3.61917
520 3.2026
525 3.30128
530 2.72962
535 2.46989
540 2.27301
545 2.18755
550 2.07615
555 1.71297
560 1.66728
565 1.56866
570 1.3052
575 1.18409
580 0.872019
585 0.739195
590 0.874031
595 0.748248
600 0.760132
Ex : 363
200 0.274041
205 0.319608
210 0.359811
215 0.369682
220 0.339524
225 0.291499
230 0.230082
235 0.197469
240 0.287622
245 0.336434
250 0.252706
255 0.296583
260 0.301198
265 0.29189
270 0.29853
275 0.234557
280 0.229853
285 0.299745
290 0.341171
295 0.350185
300 0.278455
305 0.413244
310 0.251812
315 0.413339
320 0.393458
325 0.376279
330 0.301247
335 0.465646
340 0.469179
345 0.486814
350 8.98629
355 142.184
360 223.148
365 57.7044
370 8.43441
375 3.24996
380 4.01728
385 5.80229
390 8.04132
395 10.0414
400 13.6637
405 15.474
410 14.5982
415 14.2375
420 13.1826
425 11.9923
430 10.9854
435 11.3695
440 11.2909
445 10.5254
450 9.99104
455 9.33208
460 9.05351
465 8.44685
470 7.59417
475 7.41586
480 6.90697
485 6.28607
490 5.87413
495 5.19818
500 4.9894
505 4.43374
510 4.02246
515 3.68811
520 3.43639
525 2.91072
530 2.82434
535 2.29421
540 2.31058
545 2.24452
550 2.06296
555 1.82515
560 1.52929
565 1.42332
570 1.28118
575 1.05247
580 0.948017
585 0.905197
590 0.681609
595 0.611501
600 0.631569
Ex : 368
200 0.378889
205 0.29341
210 0.296704
215 0.342848
220 0.321566
225 0.261999
230 0.283796
235 0.298331
240 0.284299
245 0.357851
250 0.242574
255 0.259035
260 0.289484
265 0.305205
270 0.280877
275 0.293575
280 0.329641
285 0.268746
290 0.319495
295 0.349016
300 0.315562
305 0.310889
310 0.312617
315 0.284024
320 0.267895
325 0.309576
330 0.289717
335 0.332312
340 0.359382
345 0.454464
350 0.607157
355 7.62032
360 137.679
365 223.994
370 60.1158
375 8.91949
380 4.27088
385 6.68045
390 10.1255
395 11.1334
400 11.356
405 14.1692
410 17.812
415 17.2761
420 15.9212
425 13.7393
430 12.467
435 12.0365
440 12.5008
445 12.014
450 11.0749
455 10.1303
460 9.33626
465 8.96835
470 8.57682
475 7.7887
480 7.2071
485 6.57498
490 6.17901
495 5.87856
500 5.42666
505 4.8131
510 4.2592
515 4.2198
520 3.43659
525 3.21115
530 3.02208
535 2.43161
540 2.37617
545 2.10454
550 1.78628
555 1.75693
560 1.57992
565 1.35424
570 1.13238
575 1.01108
580 0.932861
585 0.816551
590 0.717421
595 0.612219
600 0.420121
Ex : 373
200 0.250953
205 0.261653
210 0.369555
215 0.279691
220 0.247381
225 0.271651
230 0.269111
235 0.320949
240 0.331013
245 0.265494
250 0.292822
255 0.261758
260 0.210251
265 0.216412
270 0.415098
275 0.316607
280 0.411924
285 0.351757
290 0.28726
295 0.260297
300 0.254364
305 0.291766
310 0.281856
315 0.279436
320 0.319629
325 0.398259
330 0.369242
335 0.32884
340 0.353016
345 0.493911
350 0.433957
355 0.472829
360 8.86404
365 139.767
370 222.162
375 59.609
380 9.58463
385 5.98199
390 9.81102
395 11.3487
400 10.6669
405 10.7184
410 14.5065
415 18.4322
420 17.1697
425 14.1508
430 12.1125
435 11.5837
440 11.8026
445 11.4075
450 10.1999
455 9.64679
460 8.61882
465 8.52385
470 7.8438
475 7.39678
480 6.93324
485 6.1198
490 5.53839
495 5.47477
500 5.09699
505 4.51193
510 4.41465
515 3.83125
520 3.57598
525 3.10585
530 2.84238
535 2.62175
540 2.57217
545 2.07825
550 2.00378
555 1.75711
560 1.49344
565 1.3314
570 1.15105
575 1.11225
580 0.924869
585 0.787597
590 0.632349
595 0.676833
600 0.388904
Ex : 378
200 0.343844
205 0.215985
210 0.297047
215 0.251586
220 0.277294
225 0.219829
230 0.217722
235 0.261992
240 0.214512
245 0.232592
250 0.259873
255 0.278774
260 0.269107
265 0.258185
270 0.201498
275 0.257488
280 0.24994
285 0.269427
290 0.258388
295 0.244493
300 0.19714
305 0.324826
310 0.326899
315 0.2981
320 0.29472
325 0.277155
330 0.294095
335 0.349133
340 0.30875
345 0.329808
350 0.323864
355 0.45781
360 0.595671
365 8.62227
370 149.004
375 238.327
380 62.6553
385 11.1131
390 7.7936
395 8.80591
400 8.60761
405 8.24102
410 9.11716
415 11.5184
420 13.9984
425 13.0175
430 10.9599
435 10.1154
440 9.53912
445 9.15807
450 8.64236
455 8.1653
460 7.67954
465 7.44398
470 6.93511
475 6.58791
480 6.15477
485 5.87803
490 5.60831
495 5.09133
500 4.83919
505 4.38333
510 4.16336
515 3.64568
520 3.37772
525 3.00848
530 2.88641
535 2.47899
540 2.24732
545 2.08681
550 1.7828
555 1.75189
560 1.37055
565 1.23964
570 1.17043
575 0.942296
580 0.853022
585 0.717063
590 0.600778
595 0.479933
600 0.0546145
Ex : 383
200 0.227887
205 0.215601
210 0.227079
215 0.252581
220 0.292019
225 0.241237
230 0.342504
235 0.32296
240 0.26582
245 0.315603
250 0.27273
255 0.245403
260 0.232325
265 0.23363
270 0.266828
275 0.296952
280 0.279047
285 0.258263
290 0.198063
295 0.22291
300 0.216794
305 0.197138
310 0.258466
315 0.223084
320 0.251009
325 0.228567
330 0.246131
335 0.34217
340 0.306668
345 0.347553
350 0.359241
355 0.333831
360 0.375792
365 0.59689
370 7.84994
375 141.666
380 236.404
385 66.7538
390 14.066
395 8.0889
400 7.69472
405 8.16173
410 9.13965
415 9.95004
420 10.2045
425 11.8671
430 11.7906
435 10.1236
440 9.43767
445 8.8245
450 8.71819
455 7.63291
460 7.08679
465 6.82643
470 6.69275
475 6.24277
480 6.16377
485 5.92559
490 5.20415
495 4.90627
500 4.76766
505 4.30234
510 3.95638
515 3.57365
520 3.2401
525 2.88254
530 2.73688
535 2.49446
540 2.21966
545 1.94377
550 1.80209
555 1.48041
560 1.56737
565 1.31156
570 1.17354
575 1.00515
580 0.810215
585 0.735846
590 0.549843
595 0.509905
600 0.413902
Ex : 388
200 0.270587
205 0.358695
210 0.239913
215 0.230379
220 0.235494
225 0.181688
230 0.20987
235 0.242802
240 0.325721
245 0.279804
250 0.188842
255 0.178605
260 0.183944
265 0.336014
270 0.244216
275 0.225458
280 0.230586
285 0.226636
290 0.240703
295 0.184174
300 0.255868
305 0.22217
310 0.217443
315 0.222357
320 0.227557
325 0.25014
330 0.324488
335 0.30798
340 0.29371
345 0.249492
350 0.342437
355 0.383531
360 0.367572
365 0.405917
370 0.577124
375 8.87757
380 146.717
385 238.277
390 69.9958
395 16.1292
400 9.45702
405 9.344
410 10.6946
415 11.8558
420 10.8774
425 10.1977
430 11.5722
435 12.519
440 11.3443
445 10.3555
450 9.05714
455 8.2157
460 7.56826
465 7.21153
470 6.99732
475 6.78294
480 6.47633
485 5.86978
490 5.12462
495 4.93328
500 4.5658
505 4.11896
510 4.14723
515 3.52215
520 3.25559
525 2.9883
530 2.71164
535 2.56405
540 2.233
545 2.04966
550 1.87678
555 1.63321
560 1.40047
565 1.34789
570 1.14971
575 0.977937
580 0.880666
585 0.659628
590 0.52286
595 0.550885
600 0.149966
Ex : 393
200 0.239105
205 0.223251
210 0.21434
215 0.241576
220 0.206866
225 0.229419
230 0.205679
235 0.260118
240 0.237118
245 0.268008
250 0.214604
255 0.306979
260 0.177332
265 0.207086
270 0.315316
275 0.264038
280 0.235507
285 0.199757
290 0.327832
295 0.278228
300 0.250986
305 0.245456
310 0.308714
315 0.297996
320 0.240883
325 0.303049
330 0.247993
335 0.258994
340 0.287109
345 0.31863
350 0.298174
355 0.276616
360 0.323352
365 0.351792
370 0.395805
375 0.557583
380 7.99202
385 146.108
390 246.395
395 73.3013
400 15.9481
405 9.05469
410 9.89546
415 11.8406
420 11.5703
425 9.95054
430 8.88812
435 10.0989
440 12.5265
445 11.193
450 9.49155
455 8.57468
460 7.54715
465 6.88998
470 6.71607
475 6.56488
480 6.23691
485 5.74943
490 5.35045
495 5.08354
500 4.55386
505 4.46632
510 3.79365
515 3.47107
520 3.19668
525 2.82809
530 2.43148
535 2.3011
540 2.32178
545 1.97002
550 1.86016
555 1.49119
560 1.57055
565 1.4481
570 1.18436
575 1.0196
580 0.884212
585 0.718678
590 0.590253
595 0.552954
600 0.4155
Ex : 398
200 0.268063
205 0.207716
210 0.172574
215 0.183293
220 0.172363
225 0.203737
230 0.206705
235 0.278474
240 0.231457
245 0.206662
250 0.151662
255 0.190831
260 0.207058
265 0.198646
270 0.266306
275 0.220796
280 0.234107
285 0.217901
290 0.208047
295 0.204504
300 0.177608
305 0.258442
310 0.230268
315 0.238609
320 0.168635
325 0.240525
330 0.271619
335 0.229471
340 0.263001
345 0.24769
350 0.213754
355 0.286693
360 0.265108
365 0.262835
370 0.319319
375 0.412972
380 0.656454
385 8.46382
390 149.063
395 250.387
400 70.0847
405 12.4243
410 6.56923
415 7.7504
420 8.20602
425 6.8039
430 6.00867
435 5.89944
440 7.40178
445 10.0986
450 8.94848
455 6.93255
460 6.19788
465 5.68137
470 5.28774
475 5.25507
480 5.31606
485 4.78736
490 4.54142
495 4.22354
500 4.21053
505 3.78232
510 3.65131
515 3.22215
520 2.97795
525 2.82894
530 2.45056
535 2.33221
540 2.0534
545 1.82259
550 1.84783
555 1.62661
560 1.44438
565 1.4558
570 1.03772
575 0.94702
580 0.817046
585 0.681056
590 0.549158
595 0.471238
600 0.39609
Ex : 403
200 0.170054
205 0.227337
210 0.229415
215 0.158885
220 0.226889
225 0.250708
230 0.238293
235 0.248307
240 0.224821
245 0.205308
250 0.172251
255 0.180933
260 0.210097
265 0.239335
270 0.229761
275 0.307476
280 0.202675
285 0.195922
290 0.239067
295 0.184021
300 0.218891
305 0.19992
310 0.193104
315 0.192149
320 0.241838
325 0.214539
330 0.184619
335 0.204868
340 0.209555
345 0.204611
350 0.235607
355 0.190765
360 0.339321
365 0.2934
370 0.313794
375 0.389508
380 0.46734
385 0.781877
390 9.08626
395 154.463
400 250.346
405 69.571
410 11.0427
415 4.59656
420 4.54438
425 4.47015
430 3.95126
435 3.85535
440 4.34315
445 4.92251
450 7.07883
455 7.66264
460 5.76786
465 5.39331
470 4.77169
475 4.76439
480 4.61143
485 4.43412
490 4.22802
495 3.94161
500 3.67508
505 3.45322
510 3.23061
515 2.9958
520 2.91373
525 2.6265
530 2.49347
535 2.19623
540 1.95987
545 1.85163
550 1.6421
555 1.50309
560 1.43215
565 1.17562
570 1.0599
575 0.895714
580 0.662428
585 0.644193
590 0.536482
595 0.529406
600 0.639919
Ex : 408
200 0.194514
205 0.254967
210 0.234997
215 0.242268
220 0.173956
225 0.22871
230 0.22007
235 0.235529
240 0.211905
245 0.239388
250 0.19391
255 0.226436
260 0.213328
265 0.245376
270 0.232076
275 0.240162
280 0.2085
285 0.226557
290 0.230056
295 0.201351
300 0.225079
305 0.211376
310 0.221556
315 0.225372
320 0.194292
325 0.247753
330 0.219685
335 0.22432
340 0.296384
345 0.272939
350 0.22713
355 0.219238
360 0.231643
365 0.273434
370 0.264768
375 0.294432
380 0.351643
385 0.427313
390 0.75319
395 8.54268
400 157.338
405 258.201
410 68.9422
415 10.8472
420 4.17749
425 3.42723
430 3.68284
435 3.78664
440 3.78311
445 3.8455
450 4.3288
455 6.09094
460 7.29059
465 5.76155
470 5.00491
475 4.55443
480 4.23747
485 3.94048
490 3.76345
495 3.81602
500 3.57076
505 3.40486
510 3.29016
515 3.0341
520 2.77322
525 2.53539
530 2.24818
535 2.04363
540 2.05123
545 1.85953
550 1.74933
555 1.51901
560 1.3289
565 1.24772
570 1.1003
575 0.917135
580 0.711237
585 0.710306
590 0.681399
595 0.483971
600 0.483104
Ex : 413
200 0.203499
205 0.167334
210 0.170561
215 0.207554
220 0.233213
225 0.191486
230 0.199088
235 0.218211
240 0.258834
245 0.214071
250 0.211996
255 0.174627
260 0.17528
265 0.193401
270 0.18886
275 0.231938
280 0.263501
285 0.257119
290 0.217104
295 0.224876
300 0.253604
305 0.190226
310 0.254982
315 0.206924
320 0.226527
325 0.180415
330 0.286676
335 0.267177
340 0.291332
345 0.298324
350 0.287048
355 0.253028
360 0.246247
365 0.247143
370 0.344493
375 0.312043
380 0.311483
385 0.376517
390 0.459741
395 0.690281
400 9.6763
405 167.171
410 264.174
415 68.3591
420 10.4939
425 3.69791
430 3.18857
435 3.54668
440 3.75645
445 3.51009
450 3.49104
455 3.65905
460 4.96216
465 6.74113
470 5.75107
475 4.60803
480 4.21731
485 4.08835
490 3.61087
495 3.49918
500 3.28996
505 3.07446
510 3.02988
515 2.76233
520 2.52868
525 2.31824
530 2.18535
535 2.01798
540 1.92409
545 1.59807
550 1.70041
555 1.45246
560 1.24889
565 1.22243
570 1.02893
575 0.917309
580 0.678003
585 0.620183
590 0.548673
595 0.455959
600 0.539005
Ex : 418
200 0.256925
205 0.247083
210 0.261675
215 0.202333
220 0.305596
225 0.257869
230 0.222114
235 0.190446
240 0.199095
245 0.214287
250 0.250295
255 0.265953
260 0.273826
265 0.162769
270 0.223291
275 0.210511
280 0.244891
285 0.188038
290 0.214698
295 0.178127
300 0.244492
305 0.197608
310 0.256969
315 0.228063
320 0.175956
325 0.297954
330 0.208592
335 0.250757
340 0.259545
345 0.263384
350 0.225828
355 0.176856
360 0.282517
365 0.285642
370 0.251463
375 0.313702
380 0.281858
385 0.315138
390 0.384604
395 0.441476
400 0.650454
405 9.06137
410 162.715
415 264.008
420 70.5665
425 10.1248
430 3.16814
435 2.49538
440 3.01325
445 2.95305
450 2.65623
455 2.59033
460 2.73354
465 3.66807
470 5.88377
475 5.68517
480 4.29136
485 3.63957
490 3.44606
495 3.13442
500 2.92452
505 2.88321
510 2.74555
515 2.62858
520 2.45573
525 2.2143
530 2.00084
535 1.97745
540 1.80396
545 1.64432
550 1.6566
555 1.45998
560 1.21237
565 1.15121
570 1.01418
575 0.919029
580 0.704428
585 0.537206
590 0.524217
595 0.464886
600 0.51209
Ex : 423
200 0.310941
205 0.227749
210 0.196088
215 0.218618
220 0.212894
225 0.221098
230 0.194665
235 0.210761
240 0.20759
245 0.195065
250 0.203654
255 0.162383
260 0.205589
265 0.241774
270 0.232795
275 0.226615
280 0.153448
285 0.220646
290 0.200213
295 0.189038
300 0.194133
305 0.176452
310 0.173853
315 0.2633
320 0.232265
325 0.214034
330 0.226074
335 0.223067
340 0.221005
345 0.288551
350 0.241363
355 0.295604
360 0.226392
365 0.218848
370 0.224012
375 0.22985
380 0.288421
385 0.299435
390 0.348566
395 0.379405
400 0.441223
405 0.63317
410 9.59415
415 172.572
420 266.551
425 67.5972
430 9.24189
435 2.64361
440 1.93306
445 2.26957
450 2.25223
455 2.27743
460 2.24741
465 2.42081
470 2.87853
475 4.69596
480 5.61745
485 4.27583
490 3.61085
495 3.10939
500 2.77544
505 2.58524
510 2.59777
515 2.37732
520 2.18
525 2.26351
530 1.93877
535 1.74248
540 1.76175
545 1.57297
550 1.49221
555 1.3007
560 1.21982
565 1.11411
570 0.976858
575 0.769191
580 0.771891
585 0.569865
590 0.520092
595 0.507235
600 0.0577214
Ex : 428
200 0.228805
205 0.203121
210 0.219698
215 0.22811
220 0.202338
225 0.203192
230 0.2074
235 0.214333
240 0.255339
245 0.221194
250 0.245681
255 0.21418
260 0.231082
265 0.252507
270 0.270223
275 0.204496
280 0.217654
285 0.250205
290 0.218836
295 0.224122
300 0.233718
305 0.231232
310 0.235206
315 0.272762
320 0.244255
325 0.225079
330 0.180153
335 0.242787
340 0.232401
345 0.23743
350 0.221399
355 0.240032
360 0.266587
365 0.236549
370 0.2743
375 0.26029
380 0.271985
385 0.253591
390 0.303435
395 0.290107
400 0.395256
405 0.407799
410 0.620706
415 10.5502
420 175.72
425 276.49
430 72.5086
435 9.67628
440 2.59921
445 1.72832
450 2.1574
455 2.16597
460 2.12455
465 2.0875
470 2.1688
475 2.46296
480 3.81206
485 4.98351
490 4.26619
495 3.25641
500 3.00822
505 2.66995
510 2.53554
515 2.27936
520 2.11991
525 2.14901
530 1.99731
535 1.87149
540 1.73933
545 1.68801
550 1.49273
555 1.29622
560 1.21009
565 1.11102
570 0.91571
575 0.842122
580 0.71222
585 0.627815
590 0.517415
595 0.40534
600 0.279653
Ex : 433
200 0.182389
205 0.198637
210 0.226488
215 0.162414
220 0.200217
225 0.23368
230 0.216714
235 0.29287
240 0.266616
245 0.193222
250 0.174867
255 0.264352
260 0.225787
265 0.255346
270 0.262618
275 0.219353
280 0.230169
285 0.269377
290 0.247177
295 0.25786
300 0.251296
305 0.248545
310 0.311211
315 0.248914
320 0.258943
325 0.238501
330 0.291683
335 0.298981
340 0.247125
345 0.238537
350 0.295542
355 0.219697
360 0.209243
365 0.2528
370 0.227563
375 0.258619
380 0.248844
385 0.284458
390 0.342702
395 0.323376
400 0.333795
405 0.399771
410 0.428163
415 0.687039
420 11.9164
425 192.267
430 285.453
435 71.2347
440 9.53701
445 2.51396
450 1.69477
455 2.12143
460 2.19999
465 2.04022
470 2.04584
475 2.06798
480 2.22059
485 3.21955
490 4.90037
495 4.17597
500 3.12758
505 3.02169
510 2.57166
515 2.25838
520 1.99811
525 1.98663
530 1.82659
535 1.77962
540 1.65872
545 1.45153
550 1.64636
555 1.26348
560 1.22424
565 1.08448
570 0.943982
575 0.904947
580 0.800849
585 0.674005
590 0.584189
595 0.505389
600 0.283584
Ex : 438
200 0.18429
205 0.205014
210 0.227261
215 0.274303
220 0.229414
225 0.25809
230 0.200656
235 0.291208
240 0.22003
245 0.165906
250 0.219303
255 0.234069
260 0.20017
265 0.231361
270 0.262355
275 0.276803
280 0.259706
285 0.263686
290 0.250925
295 0.213096
300 0.29823
305 0.270018
310 0.234891
315 0.223238
320 0.232624
325 0.272603
330 0.233265
335 0.291332
340 0.302213
345 0.235588
350 0.202937
355 0.231531
360 0.227626
365 0.217341
370 0.220673
375 0.253775
380 0.264713
385 0.330858
390 0.249072
395 0.337097
400 0.279633
405 0.335495
410 0.322444
415 0.40443
420 0.608482
425 11.2398
430 190.432
435 302.383
440 76.5912
445 10.1964
450 2.58002
455 1.68732
460 2.03721
465 2.10766
470 1.95896
475 1.84412
480 1.93639
485 1.95282
490 2.42162
495 4.45061
500 4.62385
505 2.9816
510 2.75688
515 2.42314
520 2.1855
525 2.05483
530 1.82957
535 1.73427
540 1.62672
545 1.64597
550 1.4782
555 1.39345
560 1.13388
565 1.06439
570 1.01905
575 0.878115
580 0.788585
585 0.5707
590 0.591242
595 0.548954
600 0.228821
Ex : 443
200 0.276158
205 0.265828
210 0.248886
215 0.243367
220 0.249648
225 0.17167
230 0.202165
235 0.217545
240 0.303442
245 0.254666
250 0.256757
255 0.244495
260 0.254456
265 0.288528
270 0.252491
275 0.186861
280 0.196818
285 0.21236
290 0.212102
295 0.173061
300 0.26058
305 0.228058
310 0.26601
315 0.270999
320 0.29855
325 0.239798
330 0.249021
335 0.237561
340 0.315991
345 0.271878
350 0.244653
355 0.238549
360 0.226454
365 0.252526
370 0.233245
375 0.275924
380 0.348863
385 0.266311
390 0.298192
395 0.241993
400 0.253114
405 0.259946
410 0.369144
415 0.352014
420 0.396037
425 0.672461
430 13.4534
435 206.757
440 302.528
445 74.5936
450 9.89952
455 2.78599
460 1.69429
465 1.86197
470 2.14585
475 1.97911
480 1.91436
485 1.80417
490 1.94558
495 2.18498
500 3.69743
505 4.45489
510 3.28343
515 2.65122
520 2.59274
525 2.13453
530 1.83236
535 1.77891
540 1.75573
545 1.56813
550 1.46117
555 1.32457
560 1.25116
565 1.11049
570 1.04807
575 0.906621
580 0.766033
585 0.668182
590 0.618846
595 0.496972
600 0.676896
Ex : 448
200 0.267372
205 0.280021
210 0.200815
215 0.211917
220 0.225382
225 0.205116
230 0.183762
235 0.234661
240 0.266301
245 0.217798
250 0.211106
255 0.222906
260 0.238479
265 0.207947
270 0.223654
275 0.180056
280 0.220847
285 0.241785
290 0.24061
295 0.220891
300 0.208239
305 0.248545
310 0.24014
315 0.302579
320 0.250019
325 0.255112
330 0.306703
335 0.18526
340 0.215033
345 0.215758
350 0.235463
355 0.263329
360 0.213599
365 0.272234
370 0.242032
375 0.298558
380 0.280577
385 0.256307
390 0.351515
395 0.26389
400 0.29678
405 0.306344
410 0.25292
415 0.373098
420 0.393159
425 0.469323
430 0.651979
435 13.353
440 214.743
445 321.431
450 79.3407
455 10.3435
460 2.54685
465 1.71917
470 1.90728
475 2.02835
480 2.19892
485 1.86569
490 1.70027
495 1.86738
500 2.04432
505 2.87047
510 4.09637
515 3.37886
520 2.59354
525 2.33305
530 2.09788
535 1.76446
540 1.67447
545 1.51311
550 1.48476
555 1.34739
560 1.23092
565 1.07188
570 0.938102
575 0.817252
580 0.677358
585 0.604538
590 0.567907
595 0.560174
600 0.85402
Ex : 453
200 0.278162
205 0.239689
210 0.269818
215 0.26752
220 0.223577
225 0.257704
230 0.21051
235 0.213767
240 0.211711
245 0.25403
250 0.215249
255 0.216932
260 0.273684
265 0.226739
270 0.210574
275 0.240328
280 0.235798
285 0.226492
290 0.256493
295 0.159247
300 0.220448
305 0.220195
310 0.217136
315 0.220458
320 0.226432
325 0.17876
330 0.220251
335 0.262012
340 0.23767
345 0.270107
350 0.230174
355 0.263682
360 0.260445
365 0.236451
370 0.266435
375 0.242553
380 0.266696
385 0.238174
390 0.260691
395 0.303167
400 0.286863
405 0.286208
410 0.322546
415 0.330981
420 0.364309
425 0.376621
430 0.387685
435 0.586593
440 13.7465
445 236.152
450 336.262
455 78.3408
460 10.3504
465 2.69855
470 1.70286
475 1.81581
480 2.21886
485 2.01059
490 1.84959
495 1.79238
500 1.81017
505 1.93016
510 2.37066
515 4.08834
520 3.87241
525 2.79313
530 2.23987
535 1.99683
540 1.91348
545 1.61462
550 1.43271
555 1.28752
560 1.25936
565 1.04735
570 0.911095
575 0.783047
580 0.722091
585 0.591532
590 0.5362
595 0.581996
600 0.394982
Ex : 458
200 0.316218
205 0.192905
210 0.235937
215 0.261485
220 0.227979
225 0.238004
230 0.200806
235 0.255887
240 0.20859
245 0.266955
250 0.16774
255 0.175444
260 0.154411
265 0.275819
270 0.266027
275 0.241776
280 0.275253
285 0.264948
290 0.273549
295 0.251425
300 0.226553
305 0.226915
310 0.296622
315 0.200959
320 0.226195
325 0.221712
330 0.257734
335 0.255646
340 0.285138
345 0.252086
350 0.259586
355 0.26068
360 0.37156
365 0.238718
370 0.255195
375 0.217099
380 0.283947
385 0.278567
390 0.304235
395 0.236239
400 0.297807
405 0.281245
410 0.387256
415 0.263115
420 0.308719
425 0.374646
430 0.454144
435 0.537239
440 0.693061
445 15.214
450 238.306
455 348.521
460 83.4493
465 11.0186
470 2.72018
475 1.75944
480 1.8323
485 1.87514
490 1.98501
495 1.9035
500 1.72796
505 1.65083
510 1.76287
515 2.06303
520 3.19684
525 3.86148
530 2.74469
535 2.1496
540 2.05114
545 1.88609
550 1.50026
555 1.49677
560 1.36952
565 1.08188
570 1.09141
575 0.812057
580 0.713673
585 0.642648
590 0.553086
595 0.49716
600 0.095496
Ex : 463
200 0.217486
205 0.266672
210 0.214922
215 0.21183
220 0.21966
225 0.280808
230 0.230632
235 0.23515
240 0.333249
245 0.305046
250 0.214571
255 0.244514
260 0.172911
265 0.183236
270 0.191582
275 0.225408
280 0.218844
285 0.185039
290 0.236673
295 0.311413
300 0.285804
305 0.183163
310 0.203439
315 0.196594
320 0.237702
325 0.181745
330 0.233712
335 0.322401
340 0.277501
345 0.225211
350 0.178699
355 0.199443
360 0.288617
365 0.224579
370 0.207925
375 0.26875
380 0.26955
385 0.264118
390 0.30759
395 0.225736
400 0.24071
405 0.253623
410 0.221803
415 0.272672
420 0.250666
425 0.328338
430 0.342624
435 0.396006
440 0.491882
445 0.65188
450 15.0715
455 253.528
460 378.525
465 90.658
470 11.8068
475 2.8852
480 1.68528
485 1.72477
490 1.86662
495 1.95842
500 1.83906
505 1.70087
510 1.71964
515 1.71356
520 1.70553
525 2.54942
530 3.53452
535 3.15059
540 2.18839
545 2.0179
550 1.81401
555 1.49024
560 1.33468
565 1.16239
570 1.01748
575 0.907982
580 0.740129
585 0.728705
590 0.63513
595 0.524688
600 0.526423
Ex : 468
200 0.24457
205 0.224719
210 0.217418
215 0.184994
220 0.164253
225 0.18808
230 0.211403
235 0.216199
240 0.187197
245 0.202705
250 0.216134
255 0.212406
260 0.194078
265 0.184332
270 0.211938
275 0.208278
280 0.217621
285 0.228846
290 0.200661
295 0.208393
300 0.201737
305 0.215967
310 0.220077
315 0.2424
320 0.249406
325 0.234624
330 0.250453
335 0.265887
340 0.205199
345 0.18957
350 0.258826
355 0.26662
360 0.282807
365 0.270081
370 0.270826
375 0.220806
380 0.226749
385 0.206835
390 0.247612
395 0.222031
400 0.239148
405 0.287498
410 0.277319
415 0.286464
420 0.3212
425 0.31168
430 0.273426
435 0.36117
440 0.383209
445 0.440971
450 0.620003
455 16.5969
460 253.001
465 394.532
470 93.7429
475 12.0434
480 2.84379
485 1.56197
490 1.48189
495 1.80481
500 2.03183
505 1.77266
510 1.59363
515 1.649
520 1.6845
525 1.7622
530 2.11231
535 3.35997
540 3.41527
545 2.34232
550 1.87543
555 1.78004
560 1.495
565 1.37091
570 1.13396
575 0.934364
580 0.770066
585 0.698658
590 0.606052
595 0.564698
600 0.316392
Ex : 473
200 0.199459
205 0.294511
210 0.237762
215 0.243332
220 0.220196
225 0.235692
230 0.172106
235 0.211384
240 0.271576
245 0.258935
250 0.180195
255 0.207404
260 0.256776
265 0.279374
270 0.220975
275 0.257664
280 0.213713
285 0.253315
290 0.222525
295 0.294136
300 0.227392
305 0.246192
310 0.207959
315 0.269911
320 0.215341
325 0.213211
330 0.249122
335 0.219793
340 0.19824
345 0.21202
350 0.292069
355 0.255829
360 0.201243
365 0.223257
370 0.229969
375 0.298044
380 0.235729
385 0.220027
390 0.240872
395 0.190576
400 0.280184
405 0.231986
410 0.279692
415 0.252757
420 0.269938
425 0.253822
430 0.265406
435 0.29919
440 0.35371
445 0.411027
450 0.503569
455 0.723925
460 18.5453
465 276.462
470 382.299
475 87.2968
480 11.3665
485 2.68776
490 1.67559
495 1.52866
500 1.71085
505 1.69759
510 1.64766
515 1.58456
520 1.67139
525 1.59205
530 1.71833
535 1.99266
540 2.81162
545 3.51034
550 2.46388
555 1.92868
560 1.56856
565 1.36934
570 1.09812
575 0.963273
580 0.871154
585 0.703472
590 0.591058
595 0.590693
600 0.737146
Ex : 478
200 0.279709
205 0.227791
210 0.228697
215 0.235411
220 0.246915
225 0.266173
230 0.248645
235 0.289742
240 0.257408
245 0.241906
250 0.311697
255 0.314702
260 0.209264
265 0.273327
270 0.242293
275 0.262345
280 0.274826
285 0.309089
290 0.270827
295 0.342468
300 0.231354
305 0.240148
310 0.29557
315 0.28657
320 0.370866
325 0.305604
330 0.252468
335 0.269584
340 0.271764
345 0.31798
350 0.260247
355 0.302478
360 0.325369
365 0.329336
370 0.322556
375 0.259012
380 0.238071
385 0.30152
390 0.346372
395 0.306734
400 0.284941
405 0.269004
410 0.318807
415 0.312411
420 0.255723
425 0.288953
430 0.301004
435 0.374323
440 0.371414
445 0.400337
450 0.505892
455 0.573696
460 0.788997
465 21.3871
470 294.7
475 403.305
480 96.009
485 12.3805
490 2.82664
495 1.75143
500 1.41108
505 1.66071
510 1.95246
515 1.89431
520 1.65413
525 1.76624
530 1.87775
535 1.77956
540 1.67002
545 2.29703
550 3.272
555 2.69612
560 1.86964
565 1.61507
570 1.42675
575 1.11466
580 0.873191
585 0.794205
590 0.642229
595 0.602187
600 0.439121
Ex : 483
200 0.288845
205 0.295134
210 0.243209
215 0.266968
220 0.260271
225 0.320115
230 0.272427
235 0.285288
240 0.328632
245 0.290576
250 0.271781
255 0.279596
260 0.259061
265 0.251818
270 0.293737
275 0.263842
280 0.203142
285 0.21872
290 0.266694
295 0.235962
300 0.269601
305 0.246821
310 0.215567
315 0.273152
320 0.246266
325 0.293631
330 0.224459
335 0.283819
340 0.264042
345 0.278941
350 0.285702
355 0.266077
360 0.338866
365 0.290085
370 0.246579
375 0.372318
380 0.357956
385 0.318997
390 0.339219
395 0.294992
400 0.375696
405 0.269164
410 0.302247
415 0.289781
420 0.288263
425 0.340642
430 0.368687
435 0.309843
440 0.287918
445 0.366837
450 0.404777
455 0.440247
460 0.592398
465 0.832014
470 16.4439
475 282.146
480 422.72
485 99.5503
490 12.6653
495 2.86779
500 1.66143
505 1.35152
510 1.67042
515 1.80661
520 1.95735
525 1.86077
530 1.7464
535 1.78109
540 1.71894
545 1.56646
550 1.76363
555 2.5768
560 2.86848
565 1.90002
570 1.40588
575 1.28555
580 1.04659
585 0.759186
590 0.735945
595 0.616918
600 0.905402
Ex : 488
200 0.238356
205 0.315705
210 0.307211
215 0.279624
220 0.289188
225 0.29706
230 0.227237
235 0.274657
240 0.307542
245 0.322536
250 0.256237
255 0.328403
260 0.295061
265 0.275821
270 0.337266
275 0.352525
280 0.300016
285 0.234251
290 0.264135
295 0.322459
300 0.346591
305 0.283329
310 0.299495
315 0.287527
320 0.275168
325 0.228899
330 0.366749
335 0.293395
340 0.288547
345 0.28996
350 0.316089
355 0.346373
360 0.367767
365 0.282952
370 0.380824
375 0.259582
380 0.358349
385 0.256202
390 0.316846
395 0.291497
400 0.338866
405 0.26271
410 0.251898
415 0.294096
420 0.334348
425 0.292584
430 0.279242
435 0.356515
440 0.388535
445 0.286717
450 0.407474
455 0.388117
460 0.446611
465 0.604271
470 0.858821
475 19.9156
480 305.757
485 416.368
490 96.0507
495 12.1762
500 2.67629
505 1.68324
510 1.48894
515 1.73436
520 2.08278
525 1.89508
530 1.66199
535 1.6287
540 1.51786
545 1.50506
550 1.3886
555 1.56758
560 2.25269
565 2.55981
570 1.89705
575 1.16748
580 1.0101
585 0.984218
590 0.727838
595 0.635108
600 0.310729
Ex : 493
200 0.261266
205 0.257541
210 0.314878
215 0.29175
220 0.222767
225 0.287591
230 0.25718
235 0.274263
240 0.264148
245 0.296838
250 0.349945
255 0.289992
260 0.337866
265 0.307015
270 0.268597
275 0.277017
280 0.309281
285 0.33346
290 0.285476
295 0.307217
300 0.234023
305 0.38176
310 0.280013
315 0.300997
320 0.323544
325 0.314795
330 0.334943
335 0.289256
340 0.305797
345 0.29314
350 0.331633
355 0.281208
360 0.269515
365 0.272478
370 0.276525
375 0.291314
380 0.351732
385 0.28044
390 0.343326
395 0.328811
400 0.320118
405 0.298404
410 0.324795
415 0.340972
420 0.387308
425 0.322544
430 0.305607
435 0.334505
440 0.362018
445 0.411184
450 0.414239
455 0.362583
460 0.500076
465 0.542007
470 0.649849
475 0.831029
480 19.1566
485 298.509
490 436.168
495 97.7509
500 12.5717
505 2.73397
510 1.70298
515 1.56167
520 1.68075
525 1.96248
530 1.8562
535 1.78274
540 1.72874
545 1.70977
550 1.48674
555 1.46481
560 1.3714
565 1.76588
570 2.24506
575 1.87816
580 1.11061
585 0.891652
590 0.7776
595 0.691955
600 0.929639
Ex : 498
200 0.379299
205 0.315731
210 0.341875
215 0.299782
220 0.292382
225 0.315229
230 0.343404
235 0.293211
240 0.316292
245 0.310608
250 0.298952
255 0.292098
260 0.33003
265 0.306953
270 0.340465
275 0.22597
280 0.33806
285 0.42577
290 0.348957
295 0.248798
300 0.253548
305 0.322487
310 0.259596
315 0.290088
320 0.326828
325 0.263495
330 0.345383
335 0.268256
340 0.31228
345 0.327549
350 0.402628
355 0.42135
360 0.307624
365 0.354135
370 0.374716
375 0.328604
380 0.378466
385 0.41043
390 0.390801
395 0.379268
400 0.363773
405 0.401754
410 0.377524
415 0.347184
420 0.387006
425 0.359191
430 0.318168
435 0.444243
440 0.354292
445 0.414741
450 0.456946
455 0.482995
460 0.578723
465 0.488988
470 0.537567
475 0.61125
480 0.842102
485 22.3976
490 319.789
495 423.486
500 96.9036
505 12.3957
510 2.7378
515 1.71771
520 1.57274
525 1.58452
530 1.79875
535 1.99584
540 1.80892
545 1.50525
550 1.57432
555 1.40825
560 1.25078
565 1.27357
570 1.3277
575 1.9217
580 1.79445
585 1.10914
590 0.794195
595 0.786342
600 0.544401
Ex : 503
200 0.281008
205 0.31736
210 0.296987
215 0.302288
220 0.26967
225 0.266413
230 0.262621
235 0.224024
240 0.283847
245 0.318931
250 0.401987
255 0.377719
260 0.377238
265 0.341575
270 0.353258
275 0.430101
280 0.285715
285 0.265873
290 0.283471
295 0.368869
300 0.323379
305 0.307381
310 0.262682
315 0.34043
320 0.328612
325 0.364018
330 0.278922
335 0.238963
340 0.361699
345 0.395942
350 0.343459
355 0.284966
360 0.266531
365 0.341596
370 0.347108
375 0.36042
380 0.303047
385 0.353044
390 0.489905
395 0.401215
400 0.36963
405 0.326612
410 0.417674
415 0.375444
420 0.341662
425 0.381302
430 0.411055
435 0.392196
440 0.477899
445 0.392323
450 0.326989
455 0.406512
460 0.434276
465 0.508043
470 0.5453
475 0.583485
480 0.640243
485 0.913403
490 20.2777
495 315.315
500 434.947
505 98.0843
510 12.537
515 2.90407
520 1.91034
525 1.62013
530 1.71277
535 1.88192
540 1.78559
545 1.71567
550 1.44909
555 1.37389
560 1.39655
565 1.22972
570 1.21916
575 1.01354
580 1.39303
585 1.61667
590 1.10969
595 0.799497
600 0.444629
Ex : 508
200 0.33345
205 0.401556
210 0.284732
215 0.342862
220 0.31729
225 0.3036
230 0.348101
235 0.291679
240 0.349193
245 0.355164
250 0.359763
255 0.377758
260 0.34126
265 0.381992
270 0.292815
275 0.384273
280 0.358719
285 0.301775
290 0.380967
295 0.351538
300 0.385519
305 0.367346
310 0.372813
315 0.457657
320 0.434064
325 0.407084
330 0.392555
335 0.355406
340 0.359956
345 0.362876
350 0.39277
355 0.393305
360 0.341934
365 0.424058
370 0.41195
375 0.343392
380 0.375219
385 0.435035
390 0.401057
395 0.359177
400 0.356629
405 0.411799
410 0.359566
415 0.385354
420 0.441274
425 0.373344
430 0.454448
435 0.398699
440 0.364137
445 0.42433
450 0.370276
455 0.400455
460 0.371488
465 0.37198
470 0.421506
475 0.513611
480 0.692983
485 0.748716
490 0.976317
495 22.2392
500 323.791
505 434.38
510 103.276
515 13.3182
520 2.9514
525 1.80946
530 1.66276
535 1.5354
540 1.75496
545 1.72126
550 1.69867
555 1.50994
560 1.19021
565 1.21965
570 1.09763
575 1.0911
580 1.01161
585 0.976549
590 1.42443
595 1.19143
600 0.375684
Ex : 513
200 0.374341
205 0.339072
210 0.306226
215 0.330141
220 0.296036
225 0.310192
230 0.365951
235 0.401278
240 0.427124
245 0.389065
250 0.292155
255 0.305784
260 0.331382
265 0.478932
270 0.348004
275 0.319597
280 0.378478
285 0.341767
290 0.428224
295 0.381752
300 0.335906
305 0.34091
310 0.363357
315 0.360819
320 0.326148
325 0.273873
330 0.409226
335 0.314413
340 0.425704
345 0.395783
350 0.413923
355 0.352605
360 0.324803
365 0.35985
370 0.435534
375 0.397395
380 0.415861
385 0.360291
390 0.455436
395 0.396845
400 0.397982
405 0.362552
410 0.393183
415 0.38258
420 0.377257
425 0.427576
430 0.334221
435 0.307533
440 0.463037
445 0.39266
450 0.379605
455 0.432977
460 0.361425
465 0.469203
470 0.54305
475 0.462793
480 0.490816
485 0.60135
490 0.71952
495 0.948873
500 20.4629
505 327.18
510 457.837
515 108.261
520 14.0831
525 3.07337
530 2.05815
535 1.50342
540 1.39081
545 1.62151
550 1.76542
555 1.46014
560 1.37375
565 1.16747
570 1.06597
575 1.06315
580 0.968342
585 0.902458
590 0.80833
595 0.938633
600 1.28691
Ex : 518
200 0.411801
205 0.32282
210 0.296621
215 0.338734
220 0.341045
225 0.323586
230 0.336619
235 0.312324
240 0.403665
245 0.328543
250 0.341736
255 0.329099
260 0.284624
265 0.326574
270 0.335918
275 0.321184
280 0.446688
285 0.349579
290 0.348442
295 0.311472
300 0.348404
305 0.3262
310 0.342013
315 0.379818
320 0.389368
325 0.303669
330 0.316546
335 0.360402
340 0.31039
345 0.288966
350 0.338197
355 0.43876
360 0.35184
365 0.385387
370 0.362752
375 0.369008
380 0.470661
385 0.402141
390 0.464954
395 0.435248
400 0.383503
405 0.383371
410 0.488992
415 0.350385
420 0.469326
425 0.365963
430 0.367519
435 0.559373
440 0.411216
445 0.439999
450 0.452489
455 0.473047
460 0.481699
465 0.501228
470 0.566892
475 0.494606
480 0.482565
485 0.484548
490 0.62747
495 0.719282
500 1.00465
505 20.1106
510 309.646
515 444.055
520 108.239
525 13.7963
530 2.84974
535 1.72679
540 1.47855
545 1.23951
550 1.41846
555 1.39893
560 1.37293
565 1.18712
570 1.13825
575 0.987021
580 0.785208
585 0.802626
590 0.815226
595 0.715373
600 0.77771
Ex : 523
200 0.431853
205 0.354837
210 0.415994
215 0.363783
220 0.331253
225 0.421409
230 0.417436
235 0.315443
240 0.37531
245 0.394664
250 0.359297
255 0.342898
260 0.368808
265 0.43337
270 0.414556
275 0.231616
280 0.358441
285 0.423659
290 0.390184
295 0.316296
300 0.413766
305 0.348305
310 0.434088
315 0.482701
320 0.392259
325 0.379694
330 0.381166
335 0.443644
340 0.405423
345 0.380531
350 0.306302
355 0.380389
360 0.450035
365 0.371856
370 0.343366
375 0.329962
380 0.437485
385 0.354578
390 0.424352
395 0.347569
400 0.434027
405 0.424204
410 0.353592
415 0.384733
420 0.351112
425 0.378169
430 0.434067
435 0.304752
440 0.307279
445 0.407177
450 0.423119
455 0.384834
460 0.430991
465 0.42207
470 0.491587
475 0.421343
480 0.473833
485 0.547296
490 0.57597
495 0.647958
500 0.732237
505 0.937575
510 18.0473
515 295.597
520 439.923
525 112.202
530 14.3362
535 2.89378
540 1.67262
545 1.41308
550 1.42344
555 1.33496
560 1.42061
565 1.41308
570 1.0938
575 0.977898
580 0.931284
585 0.929899
590 0.70244
595 0.615072
600 0.761895
Ex : 528
200 0.422372
205 0.354216
210 0.342915
215 0.34024
220 0.421148
225 0.435366
230 0.365382
235 0.386941
240 0.45532
245 0.313361
250 0.406313
255 0.41208
260 0.317858
265 0.392508
270 0.420653
275 0.475105
280 0.411115
285 0.321651
290 0.414574
295 0.324548
300 0.413501
305 0.336348
310 0.466863
315 0.286127
320 0.401802
325 0.335718
330 0.444589
335 0.376636
340 0.463186
345 0.437522
350 0.335063
355 0.409295
360 0.45436
365 0.426921
370 0.389212
375 0.39673
380 0.369069
385 0.399487
390 0.472632
395 0.440502
400 0.37175
405 0.418996
410 0.372146
415 0.434296
420 0.395859
425 0.405901
430 0.439979
435 0.422679
440 0.33805
445 0.416203
450 0.367816
455 0.379699
460 0.438841
465 0.438868
470 0.435734
475 0.41486
480 0.450521
485 0.470805
490 0.513558
495 0.613875
500 0.637608
505 0.764442
510 0.967502
515 17.4801
520 288.537
525 432.22
530 107.331
535 13.5557
540 2.68615
545 1.61393
550 1.39654
555 1.17646
560 1.18308
565 1.10978
570 1.15406
575 0.98522
580 0.895611
585 0.857354
590 0.735734
595 0.651894
600 0.247463
Ex : 533
200 0.446528
205 0.524405
210 0.416425
215 0.392714
220 0.38063
225 0.396594
230 0.444112
235 0.413821
240 0.362023
245 0.358319
250 0.337679
255 0.434351
260 0.41697
265 0.355721
270 0.374196
275 0.388453
280 0.391632
285 0.370267
290 0.472699
295 0.377543
300 0.390318
305 0.381013
310 0.297519
315 0.39905
320 0.417628
325 0.419482
330 0.305602
335 0.324211
340 0.348846
345 0.467192
350 0.453401
355 0.389116
360 0.322091
365 0.369101
370 0.416518
375 0.478384
380 0.446282
385 0.380448
390 0.468077
395 0.538077
400 0.406237
405 0.359905
410 0.394246
415 0.511082
420 0.431817
425 0.415794
430 0.382022
435 0.44118
440 0.489952
445 0.441986
450 0.512557
455 0.509826
460 0.418685
465 0.448689
470 0.457185
475 0.409366
480 0.392441
485 0.481802
490 0.545075
495 0.549891
500 0.585465
505 0.574428
510 0.85524
515 0.82054
520 17.755
525 271.966
530 406.207
535 104.535
540 13.1226
545 2.63363
550 1.58943
555 1.09184
560 1.0302
565 0.902677
570 0.985133
575 0.959831
580 0.85367
585 0.772133
590 0.746521
595 0.681013
600 0.540971
Ex : 538
200 0.373722
205 0.389929
210 0.43189
215 0.377114
220 0.402517
225 0.398151
230 0.407725
235 0.457674
240 0.429031
245 0.485994
250 0.462721
255 0.365825
260 0.388694
265 0.50034
270 0.41109
275 0.381962
280 0.456625
285 0.376639
290 0.30047
295 0.519801
300 0.394584
305 0.406055
310 0.376971
315 0.463788
320 0.398259
325 0.486276
330 0.380391
335 0.319095
340 0.398941
345 0.458371
350 0.415272
355 0.421437
360 0.385786
365 0.3669
370 0.41717
375 0.393474
380 0.496554
385 0.453869
390 0.375151
395 0.388708
400 0.441484
405 0.383555
410 0.485047
415 0.501682
420 0.409307
425 0.465105
430 0.428274
435 0.623346
440 0.638824
445 0.461509
450 0.485224
455 0.461414
460 0.475006
465 0.387493
470 0.442554
475 0.431883
480 0.488859
485 0.480555
490 0.529869
495 0.504025
500 0.515456
505 0.645322
510 0.586083
515 0.62315
520 0.98402
525 14.9858
530 266.967
535 421.389
540 113.044
545 14.1579
550 2.63946
555 1.38723
560 1.16517
565 1.08865
570 1.00518
575 1.07659
580 0.918824
585 0.857101
590 0.818061
595 0.787016
600 0.676866
Ex : 543
200 0.507657
205 0.385372
210 0.375067
215 0.400193
220 0.530083
225 0.374067
230 0.494205
235 0.348588
240 0.424215
245 0.568239
250 0.546025
255 0.4395
260 0.458357
265 0.538392
270 0.390009
275 0.515399
280 0.437677
285 0.449418
290 0.406703
295 0.391309
300 0.391671
305 0.450656
310 0.364167
315 0.412113
320 0.463691
325 0.354511
330 0.372442
335 0.387118
340 0.394148
345 0.341164
350 0.395944
355 0.399176
360 0.33836
365 0.424894
370 0.438884
375 0.423983
380 0.462716
385 0.40101
390 0.430631
395 0.42954
400 0.417325
405 0.520391
410 0.449071
415 0.507929
420 0.433223
425 0.498469
430 0.416801
435 0.509989
440 0.542878
445 0.471257
450 0.380775
455 0.385261
460 0.534561
465 0.43564
470 0.494997
475 0.498913
480 0.495487
485 0.495361
490 0.501017
495 0.46842
500 0.580292
505 0.590671
510 0.61766
515 0.624535
520 0.722498
525 0.806661
530 14.1718
535 264.157
540 427.383
545 114.295
550 14.4029
555 2.55421
560 1.22022
565 1.22259
570 0.927135
575 0.81255
580 0.835261
585 0.821373
590 0.732991
595 0.710892
600 0.489088
Ex : 548
200 0.464566
205 0.2833
210 0.375216
215 0.434536
220 0.383415
225 0.37695
230 0.385882
235 0.402582
240 0.40942
245 0.393903
250 0.468425
255 0.411452
260 0.369477
265 0.335858
270 0.47425
275 0.445996
280 0.401547
285 0.545799
290 0.471405
295 0.517578
300 0.44962
305 0.315588
310 0.504249
315 0.418283
320 0.411385
325 0.508212
330 0.451523
335 0.479195
340 0.562783
345 0.545003
350 0.421147
355 0.416179
360 0.432054
365 0.406954
370 0.448052
375 0.466495
380 0.460066
385 0.382924
390 0.479367
395 0.427563
400 0.439914
405 0.53559
410 0.438008
415 0.505073
420 0.394664
425 0.453672
430 0.497393
435 0.356117
440 0.332881
445 0.570237
450 0.539012
455 0.470836
460 0.539305
465 0.434272
470 0.535887
475 0.499845
480 0.517137
485 0.407333
490 0.45912
495 0.533536
500 0.472062
505 0.549487
510 0.542067
515 0.564648
520 0.663671
525 0.756627
530 0.870668
535 15.8506
540 266.749
545 421.163
550 114.679
555 14.3971
560 2.61354
565 1.30291
570 0.982715
575 0.816179
580 0.734837
585 0.864543
590 0.793809
595 0.702817
600 0.121389
Ex : 553
200 0.515309
205 0.447692
210 0.485086
215 0.373663
220 0.47739
225 0.438948
230 0.492221
235 0.440878
240 0.540647
245 0.48937
250 0.480388
255 0.416407
260 0.338169
265 0.556786
270 0.458101
275 0.41206
280 0.472181
285 0.451854
290 0.419937
295 0.389405
300 0.414638
305 0.526058
310 0.44982
315 0.442872
320 0.537077
325 0.386059
330 0.398358
335 0.391391
340 0.425907
345 0.486704
350 0.481725
355 0.471734
360 0.387314
365 0.506388
370 0.403273
375 0.514154
380 0.420878
385 0.415662
390 0.385615
395 0.589745
400 0.537834
405 0.614391
410 0.570682
415 0.537501
420 0.400222
425 0.46882
430 0.525807
435 0.469929
440 0.44065
445 0.400148
450 0.390673
455 0.470115
460 0.447809
465 0.585029
470 0.518356
475 0.490689
480 0.439874
485 0.485121
490 0.535609
495 0.578669
500 0.58035
505 0.546576
510 0.572566
515 0.663275
520 0.539863
525 0.596153
530 0.692939
535 0.765621
540 13.1651
545 242.195
550 405.41
555 114.833
560 14.3605
565 2.57443
570 1.33302
575 0.897199
580 0.783455
585 0.705049
590 0.787602
595 0.75541
600 0.903557
Ex : 558
200 0.430906
205 0.464044
210 0.324449
215 0.417797
220 0.405175
225 0.510647
230 0.48803
235 0.48654
240 0.436384
245 0.464907
250 0.36882
255 0.489266
260 0.511406
265 0.434836
270 0.443712
275 0.400071
280 0.392709
285 0.403387
290 0.401292
295 0.430084
300 0.490552
305 0.544841
310 0.450582
315 0.39353
320 0.560539
325 0.386134
330 0.422111
335 0.467248
340 0.495637
345 0.50891
350 0.483455
355 0.42197
360 0.514397
365 0.471119
370 0.387937
375 0.622906
380 0.496188
385 0.56212
390 0.492058
395 0.452484
400 0.46323
405 0.481001
410 0.49182
415 0.517776
420 0.528822
425 0.410211
430 0.455268
435 0.46077
440 0.544691
445 0.495541
450 0.43048
455 0.589241
460 0.381338
465 0.543098
470 0.561044
475 0.580478
480 0.530434
485 0.592422
490 0.528122
495 0.40574
500 0.45484
505 0.54044
510 0.444888
515 0.432552
520 0.55141
525 0.516079
530 0.60286
535 0.778675
540 0.956304
545 12.4812
550 229.538
555 394.903
560 111.593
565 13.8806
570 2.45258
575 1.07368
580 0.942456
585 0.698521
590 0.66765
595 0.698917
600 0.193304
Ex : 563
200 0.515107
205 0.497406
210 0.484314
215 0.557832
220 0.529856
225 0.425324
230 0.416815
235 0.355028
240 0.44693
245 0.418695
250 0.532837
255 0.531846
260 0.525128
265 0.415998
270 0.532896
275 0.547586
280 0.436772
285 0.442544
290 0.398037
295 0.567598
300 0.407194
305 0.457799
310 0.481531
315 0.542508
320 0.498165
325 0.535782
330 0.684158
335 0.456365
340 0.351637
345 0.517843
350 0.489659
355 0.511152
360 0.512533
365 0.525312
370 0.494619
375 0.525366
380 0.617245
385 0.576496
390 0.429917
395 0.483899
400 0.455362
405 0.485337
410 0.448527
415 0.444844
420 0.579109
425 0.412409
430 0.472686
435 0.507067
440 0.391365
445 0.506305
450 0.548733
455 0.615736
460 0.490854
465 0.592448
470 0.441411
475 0.613781
480 0.512875
485 0.572513
490 0.558282
495 0.604483
500 0.585764
505 0.528999
510 0.525948
515 0.539976
520 0.615215
525 0.599016
530 0.643112
535 0.640313
540 0.677602
545 0.810655
550 12.1068
555 226.355
560 382.361
565 111.325
570 13.9548
575 2.40208
580 1.04066
585 0.898733
590 0.789844
595 0.765544
600 0.378471
Ex : 568
200 0.532299
205 0.490765
210 0.380417
215 0.428071
220 0.432719
225 0.430395
230 0.390222
235 0.460758
240 0.485959
245 0.465213
250 0.358038
255 0.391441
260 0.501321
265 0.440803
270 0.395595
275 0.40278
280 0.630621
285 0.535834
290 0.740323
295 0.405126
300 0.538035
305 0.537602
310 0.423845
315 0.557475
320 0.4337
325 0.459812
330 0.426807
335 0.383487
340 0.542392
345 0.384281
350 0.441589
355 0.544092
360 0.430766
365 0.474699
370 0.578781
375 0.567707
380 0.468656
385 0.461884
390 0.542476
395 0.461111
400 0.477567
405 0.52719
410 0.540901
415 0.461754
420 0.52434
425 0.567472
430 0.507144
435 0.655914
440 0.537853
445 0.406964
450 0.590176
455 0.476142
460 0.3823
465 0.581459
470 0.559595
475 0.514598
480 0.600229
485 0.558383
490 0.571132
495 0.504857
500 0.664271
505 0.453263
510 0.401869
515 0.438995
520 0.468869
525 0.683424
530 0.6104
535 0.434395
540 0.597212
545 0.674557
550 0.97174
555 9.42566
560 204.341
565 371.748
570 110.58
575 13.8765
580 2.43845
585 0.99257
590 0.744439
595 0.707826
600 1.13133
Ex : 573
200 0.418714
205 0.447648
210 0.525343
215 0.604841
220 0.697557
225 0.465397
230 0.47914
235 0.512451
240 0.399447
245 0.388997
250 0.480917
255 0.555401
260 0.464596
265 0.606979
270 0.444171
275 0.431099
280 0.608634
285 0.69077
290 0.513018
295 0.59253
300 0.484227
305 0.445555
310 0.470794
315 0.517651
320 0.51101
325 0.503739
330 0.532939
335 0.596935
340 0.517936
345 0.444184
350 0.475419
355 0.421804
360 0.515018
365 0.561655
370 0.548868
375 0.455585
380 0.361317
385 0.412595
390 0.638943
395 0.649613
400 0.508255
405 0.523149
410 0.490306
415 0.555741
420 0.625053
425 0.472329
430 0.478307
435 0.428639
440 0.640252
445 0.629478
450 0.476918
455 0.615086
460 0.471408
465 0.619623
470 0.606786
475 0.505399
480 0.554674
485 0.534356
490 0.556815
495 0.463844
500 0.489926
505 0.534246
510 0.542242
515 0.534078
520 0.536557
525 0.648197
530 0.592914
535 0.656824
540 0.647065
545 0.692998
550 0.880279
555 0.796197
560 8.54284
565 183.114
570 354.873
575 108.814
580 13.8693
585 2.19802
590 0.850856
595 0.749007
600 0.457697
Ex : 578
200 0.641431
205 0.425864
210 0.422658
215 0.509681
220 0.496137
225 0.544564
230 0.442351
235 0.495446
240 0.553624
245 0.474532
250 0.464464
255 0.509529
260 0.481337
265 0.518145
270 0.424718
275 0.45918
280 0.490551
285 0.599644
290 0.744436
295 0.544537
300 0.351953
305 0.489486
310 0.483073
315 0.57069
320 0.510217
325 0.426859
330 0.537053
335 0.47286
340 0.611593
345 0.555316
350 0.508137
355 0.482738
360 0.507549
365 0.673496
370 0.576609
375 0.491666
380 0.493827
385 0.493263
390 0.60589
395 0.563972
400 0.436483
405 0.453858
410 0.654446
415 0.487329
420 0.585019
425 0.591504
430 0.594875
435 0.522232
440 0.576756
445 0.552868
450 0.480027
455 0.499979
460 0.456857
465 0.564564
470 0.479563
475 0.578735
480 0.67634
485 0.572763
490 0.467867
495 0.558588
500 0.637644
505 0.585711
510 0.513368
515 0.568175
520 0.6945
525 0.599706
530 0.537145
535 0.579513
540 0.608609
545 0.727007
550 0.702816
555 0.777161
560 0.832785
565 7.44102
570 163.3
575 305.622
580 91.7072
585 11.5756
590 2.0302
595 0.839567
600 0.637843
Ex : 583
200 0.527891
205 0.567609
210 0.527095
215 0.682594
220 0.566897
225 0.497758
230 0.45739
235 0.534998
240 0.460804
245 0.417949
250 0.661824
255 0.489324
260 0.71295
265 0.642647
270 0.568488
275 0.621682
280 0.519217
285 0.535037
290 0.448135
295 0.601897
300 0.567775
305 0.538996
310 0.5755
315 0.613172
320 0.618786
325 0.576302
330 0.480211
335 0.563816
340 0.636812
345 0.503036
350 0.542522
355 0.627476
360 0.49006
365 0.511661
370 0.4848
375 0.557213
380 0.424036
385 0.557895
390 0.532176
395 0.634306
400 0.487848
405 0.572315
410 0.469666
415 0.562873
420 0.416122
425 0.587564
430 0.58369
435 0.391844
440 0.51159
445 0.490132
450 0.630659
455 0.506051
460 0.649218
465 0.559196
470 0.468115
475 0.477351
480 0.561123
485 0.545281
490 0.699918
495 0.686391
500 0.517828
505 0.4392
510 0.567318
515 0.693445
520 0.54996
525 0.580443
530 0.502134
535 0.45685
540 0.524949
545 0.632328
550 0.578005
555 0.768546
560 0.658416
565 0.888692
570 6.08793
575 144.713
580 270.136
585 77.2568
590 9.75757
595 1.75849
600 0.857838
Ex : 588
200 0.579935
205 0.577601
210 0.433125
215 0.608283
220 0.505997
225 0.494774
230 0.500781
235 0.478503
240 0.595045
245 0.399976
250 0.514501
255 0.552481
260 0.414014
265 0.623944
270 0.520692
275 0.540601
280 0.477618
285 0.480374
290 0.611273
295 0.582062
300 0.456974
305 0.499903
310 0.433127
315 0.577416
320 0.409603
325 0.556489
330 0.547913
335 0.676774
340 0.465335
345 0.4618
350 0.392664
355 0.603803
360 0.586232
365 0.612499
370 0.603966
375 0.629849
380 0.419649
385 0.541139
390 0.48218
395 0.637832
400 0.679926
405 0.435786
410 0.537991
415 0.502617
420 0.407067
425 0.566021
430 0.67151
435 0.600921
440 0.57693
445 0.649575
450 0.602788
455 0.561102
460 0.47029
465 0.421433
470 0.399053
475 0.476013
480 0.514919
485 0.496685
490 0.507248
495 0.530616
500 0.557053
505 0.539274
510 0.483508
515 0.663304
520 0.709777
525 0.518139
530 0.436874
535 0.582359
540 0.603503
545 0.700334
550 0.603353
555 0.785291
560 0.616938
565 0.755076
570 0.837995
575 5.99432
580 121.829
585 223.805
590 67.0627
595 8.5187
600 1.56973
Ex : 593
200 0.490494
205 0.46254
210 0.480274
215 0.493322
220 0.548493
225 0.526252
230 0.478501
235 0.487444
240 0.49688
245 0.413938
250 0.416162
255 0.457459
260 0.642325
265 0.623219
270 0.5504
275 0.48623
280 0.477639
285 0.716333
290 0.461929
295 0.4477
300 0.63391
305 0.518705
310 0.543692
315 0.566253
320 0.73313
325 0.56996
330 0.623365
335 0.462171
340 0.602828
345 0.553245
350 0.551143
355 0.473245
360 0.408942
365 0.534871
370 0.580543
375 0.423161
380 0.410458
385 0.513328
390 0.564436
395 0.546789
400 0.566061
405 0.552203
410 0.484916
415 0.538355
420 0.458847
425 0.619029
430 0.606308
435 0.62087
440 0.547853
445 0.681001
450 0.728399
455 0.550672
460 0.705911
465 0.604053
470 0.488098
475 0.593678
480 0.517781
485 0.557534
490 0.450068
495 0.646393
500 0.453207
505 0.530273
510 0.537365
515 0.50141
520 0.599865
525 0.672623
530 0.584283
535 0.602321
540 0.594277
545 0.522593
550 0.598212
555 0.666846
560 0.62249
565 0.736113
570 0.658607
575 0.790555
580 4.90612
585 109.344
590 202.68
595 59.6933
600 9.39935
Ex : 598
200 0.616852
205 0.485844
210 0.71122
215 0.684586
220 0.472682
225 0.676249
230 0.597282
235 0.506852
240 0.506001
245 0.518721
250 0.58831
255 0.521329
260 0.542454
265 0.625984
270 0.549056
275 0.407406
280 0.456287
285 0.530376
290 0.573302
295 0.531249
300 0.578817
305 0.450175
310 0.603584
315 0.589828
320 0.55499
325 0.488578
330 0.609452
335 0.58829
340 0.586166
345 0.534328
350 0.545599
355 0.541786
360 0.535665
365 0.516206
370 0.511853
375 0.487803
380 0.506011
385 0.545593
390 0.73218
395 0.46711
400 0.543812
405 0.464584
410 0.569587
415 0.65387
420 0.642343
425 0.675445
430 0.464023
435 0.707318
440 0.512173
445 0.537393
450 0.417026
455 0.606162
460 0.536645
465 0.604599
470 0.518656
475 0.817228
480 0.597362
485 0.595721
490 0.58758
495 0.563243
500 0.533095
505 0.663245
510 0.77079
515 0.611677
520 0.55406
525 0.73631
530 0.661748
535 0.63944
540 0.580635
545 0.612495
550 0.652827
555 0.44576
560 0.756887
565 0.682589
570 0.798611
575 0.780357
580 0.744206
585 4.94188
590 97.4579
595 174.095
600 106.095
Ex : 603
200 0.562185
205 0.485166
210 0.464393
215 0.577154
220 0.783953
225 0.814941
230 0.755515
235 0.400586
240 0.501403
245 0.571388
250 0.53305
255 0.656925
260 0.600486
265 0.728972
270 0.766491
275 0.508431
280 0.672536
285 0.62661
290 0.488631
295 0.573402
300 0.653839
305 0.633256
310 0.602766
315 0.689405
320 0.624411
325 0.621907
330 0.595775
335 0.627875
340 0.493842
345 0.403015
350 0.593032
355 0.715703
360 0.527283
365 0.623435
370 0.653603
375 0.693052
380 0.422261
385 0.494352
390 0.710233
395 0.608138
400 0.876324
405 0.755412
410 0.666009
415 0.572532
420 0.621132
425 0.507508
430 0.660647
435 0.67452
440 0.67897
445 0.753252
450 0.581058
455 0.453128
460 0.575017
465 0.488761
470 0.594561
475 0.457229
480 0.708138
485 0.776803
490 0.553083
495 0.631284
500 0.513379
505 0.606733
510 0.553996
515 0.488764
520 0.506718
525 0.505163
530 0.606369
535 0.606504
540 0.745065
545 0.58844
550 0.659136
555 0.708177
560 0.704385
565 0.665949
570 0.654093
575 0.736981
580 0.771721
585 0.824203
590 4.40561
595 81.5983
600 169.299
