File format V 1.0
ven. 9. déc. 21:15:14 2016
Operator : 
Comments : 

=============================================
SpectroFluorometer parameters
Mode : 3D measurement
Data : Fluorescence
Phospho. : Ordinary
Spectrum : Fluorescence

Scan speed : 2400 nm/mn
Response : 100 ms
PM Voltage : 700 V
Shutter : On

Lambda Ex. Start : 203
Lambda Ex. End : 603
Lambda Ex. Step : 5
Ex. Slit : 5 nm

Lambda Em. Start : 200
Lambda Em. End : 600
Lambda Em. Step : 5
Em. Slit : 5 nm

Repetition : 1
Decal lambda em : 10
=============================================
DATA
Ex : 203
200 19.96
205 14.9569
210 18.6634
215 15.5427
220 16.5088
225 15.8818
230 12.7114
235 17.7888
240 15.5551
245 20.2575
250 15.666
255 15.3175
260 13.6151
265 16.3328
270 15.4907
275 11.926
280 15.5778
285 20.9561
290 20.6359
295 17.3141
300 15.4384
305 13.5514
310 14.9109
315 14.0676
320 16.1882
325 20.2309
330 20.1404
335 16.5406
340 18.631
345 14.1368
350 18.7531
355 16.4194
360 21.5632
365 14.8887
370 11.4959
375 16.1253
380 11.0203
385 12.4616
390 14.9081
395 17.7656
400 17.322
405 16.3645
410 13.8933
415 17.6863
420 20.0659
425 16.8894
430 15.1335
435 14.0786
440 18.0412
445 16.5045
450 18.251
455 16.3636
460 15.3593
465 14.3015
470 14.1202
475 16.6614
480 14.6788
485 13.2759
490 13.584
495 18.8945
500 19.3854
505 13.929
510 11.8233
515 12.1751
520 15.8971
525 13.8721
530 14.8717
535 15.7581
540 12.8975
545 14.7104
550 16.3476
555 16.7806
560 16.5907
565 17.7616
570 15.7708
575 16.8225
580 12.9171
585 14.5836
590 17.1017
595 13.0366
600 9.45935
Ex : 208
200 20.2439
205 15.1825
210 16.8572
215 19.5074
220 17.2163
225 11.8973
230 13.5313
235 17.818
240 19.1754
245 11.9711
250 16.0798
255 13.9549
260 12.8922
265 13.9009
270 17.2566
275 18.0509
280 17.447
285 13.3468
290 15.7194
295 16.0939
300 17.6788
305 14.8671
310 15.6623
315 17.816
320 13.2838
325 17.8925
330 12.6537
335 14.0385
340 13.9654
345 14.8217
350 16.554
355 17.9485
360 16.3476
365 12.7247
370 13.1902
375 13.954
380 18.8578
385 15.2034
390 11.667
395 14.0602
400 16.0423
405 13.3573
410 18.4173
415 14.4546
420 14.7731
425 12.3156
430 18.567
435 16.5515
440 17.0967
445 14.9378
450 13.9634
455 16.8048
460 13.438
465 23.545
470 15.7645
475 12.528
480 16.0373
485 15.4963
490 17.1096
495 14.4298
500 21.9191
505 18.098
510 15.2978
515 14.8334
520 14.6683
525 16.2222
530 11.9133
535 10.5582
540 16.2888
545 15.5441
550 17.4214
555 11.7672
560 19.5844
565 14.5463
570 10.9174
575 18.7677
580 12.781
585 16.6712
590 19.6043
595 15.2067
600 9.92785
Ex : 213
200 18.9114
205 19.0319
210 17.0755
215 11.9951
220 14.5751
225 16.8127
230 16.8521
235 13.7355
240 13.867
245 16.6027
250 15.5894
255 11.8884
260 14.2261
265 15.1536
270 15.1868
275 15.8514
280 16.9011
285 14.8795
290 16.2341
295 13.6521
300 16.9423
305 14.1522
310 14.1478
315 14.878
320 14.6513
325 18.7934
330 17.9485
335 11.4424
340 14.6771
345 15.2276
350 14.4249
355 14.9346
360 16.2144
365 14.4059
370 20.4687
375 19.6978
380 14.6948
385 17.8602
390 14.0735
395 16.0762
400 16.0684
405 15.9257
410 15.1053
415 15.5709
420 13.7012
425 15.3162
430 16.5074
435 17.7481
440 17.6034
445 18.9096
450 14.9963
455 14.6334
460 15.7372
465 18.8244
470 17.5918
475 15.7059
480 16.898
485 16.576
490 15.3374
495 15.4135
500 14.0482
505 16.2661
510 13.2421
515 12.2381
520 12.8314
525 17.7497
530 15.895
535 17.7446
540 18.3529
545 14.9877
550 13.8361
555 18.5584
560 20.465
565 21.6143
570 16.6389
575 11.1262
580 19.5301
585 15.2249
590 12.3158
595 13.3469
600 17.4705
Ex : 218
200 12.5944
205 16.6413
210 15.4578
215 15.3799
220 11.3507
225 12.8738
230 21.702
235 21.6848
240 21.7529
245 17.4473
250 18.645
255 14.4642
260 13.9899
265 12.1688
270 15.509
275 14.383
280 14.2312
285 13.2959
290 15.5719
295 15.5462
300 17.4489
305 18.8285
310 21.2593
315 16.8355
320 15.5777
325 15.0233
330 20.0832
335 15.0891
340 14.9873
345 14.9986
350 17.4535
355 12.4746
360 17.2571
365 12.4791
370 13.421
375 17.0727
380 14.8188
385 20.1194
390 18.7216
395 19.0544
400 14.7288
405 13.1149
410 14.4377
415 13.1743
420 15.8536
425 17.5965
430 16.1975
435 22.1521
440 14.5284
445 14.8668
450 14.2175
455 18.7097
460 16.7047
465 16.014
470 13.4777
475 15.8852
480 16.3212
485 17.2979
490 11.6767
495 14.1838
500 17.5606
505 18.9773
510 14.3657
515 13.5985
520 18.6842
525 14.0319
530 11.8645
535 14.0723
540 16.558
545 13.2904
550 11.3966
555 11.0607
560 16.5431
565 17.2838
570 12.6818
575 14.905
580 17.3412
585 13.1681
590 16.8882
595 15.3634
600 42.5137
Ex : 223
200 15.0402
205 16.841
210 15.5886
215 15.6647
220 13.7028
225 14.5639
230 16.1372
235 15.8312
240 17.2277
245 15.9679
250 20.9735
255 16.0259
260 16.9822
265 14.3543
270 17.9096
275 15.0437
280 14.7858
285 15.981
290 11.9847
295 13.3176
300 15.4875
305 13.9747
310 14.1371
315 13.77
320 14.4415
325 15.8577
330 13.2827
335 12.1658
340 15.1403
345 17.1469
350 17.3367
355 15.8443
360 16.0279
365 20.0929
370 16.4808
375 11.1983
380 15.3116
385 14.8374
390 14.9767
395 13.3935
400 16.384
405 16.3528
410 15.8652
415 13.5401
420 9.58936
425 17.35
430 14.9204
435 12.7087
440 17.0286
445 15.7853
450 13.9156
455 14.2009
460 14.1274
465 16.9702
470 12.8324
475 14.9919
480 16.9159
485 14.1996
490 16.5686
495 20.3766
500 15.344
505 13.8034
510 13.8539
515 14.5842
520 14.4933
525 12.2479
530 10.5003
535 12.7814
540 15.519
545 16.0994
550 16.3209
555 16.3454
560 11.4564
565 16.1651
570 16.579
575 15.0132
580 10.3865
585 19.7821
590 19.7949
595 12.8507
600 24.0606
Ex : 228
200 16.3622
205 13.8952
210 14.0174
215 13.3122
220 13.5041
225 13.5891
230 11.0993
235 11.4258
240 12.6763
245 15.1787
250 11.5966
255 13.2834
260 12.2962
265 12.3809
270 12.0206
275 11.7985
280 9.42272
285 11.5911
290 13.3239
295 12.2364
300 12.5913
305 13.7016
310 10.3312
315 17.1873
320 19.3814
325 16.8207
330 15.7425
335 14.5857
340 14.7124
345 11.7443
350 12.6039
355 13.9321
360 12.4322
365 13.5141
370 15.1295
375 16.1156
380 15.2815
385 15.3479
390 12.3095
395 13.1759
400 15.0607
405 14.5005
410 15.8677
415 15.6545
420 14.1028
425 13.8708
430 14.6662
435 16.0652
440 13.7105
445 15.2824
450 15.4474
455 14.1599
460 12.2458
465 13.2967
470 15.0556
475 12.9401
480 17.0925
485 15.6905
490 11.6365
495 11.6459
500 12.7251
505 11.927
510 12.5663
515 14.1468
520 14.3335
525 16.2187
530 12.9806
535 12.4024
540 13.3966
545 15.475
550 13.2367
555 16.6977
560 14.0786
565 13.6192
570 14.7892
575 12.9341
580 15.5892
585 13.9581
590 8.12003
595 11.4858
600 1.60244
Ex : 233
200 11.1422
205 8.85131
210 10.5571
215 14.892
220 16.4832
225 16.7155
230 13.6078
235 14.2339
240 11.0555
245 10.1581
250 11.5856
255 10.7288
260 10.6496
265 11.8763
270 10.1184
275 9.99237
280 11.0889
285 15.4831
290 8.95952
295 13.0442
300 11.0622
305 12.502
310 13.1306
315 13.2723
320 11.8079
325 12.4027
330 12.5693
335 10.2716
340 15.0844
345 12.2094
350 14.3807
355 11.8341
360 11.7795
365 15.3969
370 14.3836
375 13.47
380 11.4227
385 12.2775
390 13.1666
395 16.4043
400 15.5179
405 9.22264
410 12.6461
415 10.8696
420 12.7143
425 10.2387
430 13.3515
435 11.6179
440 11.9565
445 12.289
450 10.2089
455 11.8686
460 18.882
465 14.3531
470 13.0999
475 13.8
480 14.3968
485 8.90178
490 12.1948
495 12.7795
500 12.691
505 13.2727
510 13.6134
515 14.1094
520 13.4782
525 11.9786
530 13.8274
535 13.3379
540 11.6317
545 13.6945
550 11.6733
555 11.2355
560 14.8313
565 13.2691
570 10.0466
575 11.5679
580 12.5601
585 13.36
590 14.5413
595 13.8114
600 38.1276
Ex : 238
200 14.5422
205 11.1719
210 14.2428
215 11.8857
220 8.08696
225 10.8843
230 13.1502
235 11.8328
240 12.8516
245 11.9076
250 10.3755
255 12.0245
260 14.119
265 11.3476
270 11.0704
275 12.6156
280 9.85646
285 13.0968
290 12.6265
295 11.634
300 11.165
305 12.5314
310 12.1926
315 10.4064
320 12.8489
325 9.8644
330 8.82509
335 8.00415
340 8.93925
345 10.5996
350 11.025
355 14.1932
360 10.0619
365 11.2295
370 11.5459
375 13.057
380 10.3772
385 10.5825
390 8.71029
395 9.02711
400 11.6577
405 10.2994
410 11.8928
415 12.1161
420 8.36307
425 14.4205
430 9.37263
435 11.9162
440 13.717
445 12.1586
450 15.8332
455 12.0795
460 13.1119
465 16.8871
470 12.9934
475 9.91969
480 9.50308
485 9.23743
490 9.35393
495 10.2344
500 10.3123
505 9.26878
510 10.4155
515 12.7537
520 11.3722
525 12.9281
530 11.763
535 14.4295
540 8.87037
545 12.1148
550 11.0013
555 11.4305
560 11.9691
565 9.12191
570 11.053
575 9.54478
580 7.50198
585 9.30169
590 10.2054
595 9.85581
600 1.12155
Ex : 243
200 8.81852
205 8.88391
210 7.76026
215 10.0683
220 12.8681
225 9.95377
230 9.09858
235 8.54497
240 7.06105
245 9.72095
250 10.2093
255 10.4751
260 8.07541
265 8.94769
270 8.03371
275 8.13728
280 12.5468
285 11.4477
290 10.6825
295 8.51893
300 7.73008
305 7.02997
310 9.70797
315 9.34544
320 6.68274
325 9.68363
330 10.6381
335 9.93109
340 7.33682
345 8.65647
350 9.84019
355 8.47359
360 10.2978
365 12.3142
370 11.0052
375 7.32099
380 7.57352
385 10.3802
390 8.65877
395 11.0278
400 12.2873
405 9.29172
410 13.1083
415 9.19749
420 10.9864
425 9.59286
430 8.58377
435 10.5411
440 9.88306
445 10.8042
450 7.17552
455 11.4713
460 9.74231
465 10.0714
470 9.54254
475 8.80148
480 9.34446
485 7.67707
490 9.47296
495 9.50364
500 9.94676
505 10.4025
510 11.4329
515 8.83052
520 9.60039
525 7.37767
530 11.9577
535 9.35619
540 9.75826
545 9.03911
550 9.62446
555 7.24924
560 8.02118
565 9.42631
570 12.0769
575 9.07584
580 9.1432
585 8.81151
590 8.90607
595 11.153
600 10.2789
Ex : 248
200 8.59494
205 7.86404
210 6.60746
215 7.46598
220 8.42846
225 8.25132
230 6.8314
235 8.69145
240 7.9759
245 8.88626
250 7.00261
255 7.4211
260 7.44861
265 6.52219
270 8.83601
275 9.56025
280 6.29167
285 6.66738
290 8.26153
295 7.18652
300 9.62168
305 7.0093
310 8.05492
315 7.69581
320 7.17291
325 6.17188
330 8.32425
335 9.0497
340 8.54718
345 8.34631
350 7.83089
355 10.1384
360 7.45294
365 6.42166
370 10.2363
375 7.78184
380 10.2582
385 6.96673
390 9.35314
395 9.54862
400 8.64425
405 7.83472
410 9.73415
415 9.28698
420 7.90351
425 11.1017
430 7.48992
435 11.1655
440 8.50333
445 10.5992
450 7.61681
455 8.56062
460 8.30625
465 6.61476
470 7.90235
475 8.63288
480 9.63329
485 10.0853
490 8.10519
495 6.90079
500 9.11154
505 9.39974
510 7.96858
515 9.28775
520 7.85205
525 9.7941
530 8.62469
535 8.67244
540 7.41257
545 7.80616
550 7.88796
555 7.668
560 10.1066
565 8.57906
570 10.0051
575 9.08283
580 9.31015
585 9.88826
590 8.14332
595 8.50506
600 8.05747
Ex : 253
200 6.96725
205 5.76271
210 5.26493
215 6.28139
220 5.86929
225 6.77911
230 7.96027
235 7.64144
240 6.36087
245 5.87753
250 6.33784
255 7.62735
260 6.7804
265 8.0024
270 7.24293
275 6.13698
280 6.93066
285 5.9426
290 6.24634
295 6.9798
300 6.29189
305 5.45662
310 4.83964
315 6.8173
320 4.99474
325 4.80322
330 7.45
335 4.79995
340 7.32482
345 8.14585
350 10.151
355 8.20897
360 8.301
365 5.25995
370 7.10817
375 6.66804
380 6.25638
385 6.65831
390 6.68531
395 7.65597
400 9.82571
405 8.56771
410 6.26118
415 7.1989
420 7.11485
425 7.64422
430 7.47448
435 6.43213
440 6.45139
445 6.82736
450 8.3296
455 5.68025
460 6.42588
465 7.75253
470 6.30911
475 7.62148
480 6.13108
485 7.57455
490 7.83342
495 7.93381
500 8.8434
505 7.50443
510 6.91935
515 7.19005
520 6.93346
525 4.84795
530 7.5373
535 5.18501
540 6.62329
545 5.00391
550 6.82445
555 8.1012
560 7.2115
565 7.09641
570 6.03767
575 5.12936
580 6.65551
585 7.59511
590 5.73392
595 6.0557
600 13.8556
Ex : 258
200 5.00198
205 4.72532
210 4.35576
215 6.61495
220 6.24827
225 5.26562
230 4.44827
235 5.49692
240 4.16683
245 4.33623
250 4.29045
255 4.39171
260 4.0638
265 5.28733
270 4.63922
275 5.54046
280 4.45461
285 5.32363
290 5.13908
295 5.19761
300 5.20979
305 6.04805
310 5.20251
315 5.26232
320 5.24303
325 4.79518
330 4.48919
335 5.17149
340 5.6482
345 5.27787
350 4.82605
355 4.57802
360 7.31404
365 4.81575
370 5.22009
375 4.88483
380 5.29775
385 5.66914
390 5.86934
395 6.74473
400 6.26982
405 5.81443
410 5.48714
415 4.07821
420 6.47038
425 5.46849
430 6.26032
435 5.70519
440 6.45624
445 7.20651
450 4.93821
455 4.81538
460 4.94538
465 6.19649
470 5.68245
475 5.80194
480 6.01622
485 6.15158
490 5.02138
495 5.70613
500 7.22389
505 4.40715
510 5.02518
515 4.22183
520 3.50957
525 3.62544
530 5.31941
535 4.86369
540 5.09227
545 4.55676
550 4.41096
555 5.04948
560 5.30277
565 4.52904
570 5.22533
575 4.34796
580 4.91165
585 5.67749
590 4.01158
595 5.06931
600 0.657432
Ex : 263
200 3.36756
205 4.1074
210 3.45987
215 3.37918
220 3.75888
225 4.22292
230 3.28486
235 3.83229
240 3.59104
245 3.23712
250 2.79441
255 4.06331
260 4.19662
265 4.71744
270 3.21376
275 4.51433
280 4.71533
285 4.71186
290 4.16633
295 4.10808
300 4.21533
305 5.32806
310 2.96596
315 3.05211
320 4.30105
325 3.84265
330 5.05063
335 4.26613
340 3.57491
345 4.36691
350 4.0618
355 5.83627
360 4.02631
365 4.79483
370 4.89572
375 3.2438
380 3.61855
385 3.91235
390 4.82024
395 4.48371
400 4.7854
405 4.51046
410 4.16636
415 4.82295
420 5.71658
425 4.65118
430 4.38393
435 4.21069
440 5.72947
445 3.6774
450 4.89776
455 4.6288
460 4.1712
465 6.08819
470 6.0432
475 4.41264
480 4.95464
485 4.26463
490 4.49661
495 4.44152
500 5.09396
505 4.84582
510 4.39302
515 3.81426
520 4.81892
525 4.18468
530 5.07133
535 3.82215
540 3.82273
545 3.91379
550 3.72502
555 3.66479
560 4.04689
565 4.7786
570 3.87376
575 3.44932
580 3.80028
585 4.28697
590 4.44586
595 4.14861
600 0.590256
Ex : 268
200 3.71665
205 3.8824
210 3.35193
215 3.55092
220 3.1368
225 2.33695
230 3.21538
235 3.34124
240 2.78743
245 3.67226
250 3.76101
255 3.22237
260 2.69033
265 3.03357
270 2.56601
275 2.71952
280 3.23436
285 3.52243
290 3.74791
295 2.94197
300 2.94803
305 2.59964
310 2.53936
315 2.41238
320 2.69674
325 3.24425
330 2.87992
335 2.37904
340 3.31032
345 3.22801
350 3.89013
355 3.16511
360 3.37786
365 4.55482
370 3.30187
375 3.43774
380 3.05706
385 3.92423
390 3.57342
395 3.87099
400 3.08545
405 2.89581
410 3.03348
415 4.03346
420 3.12393
425 3.08838
430 4.65452
435 3.81241
440 2.81292
445 3.49106
450 2.87027
455 3.05771
460 3.79651
465 3.15104
470 2.95622
475 3.42918
480 3.34144
485 2.94167
490 3.28429
495 2.67388
500 3.99524
505 3.33454
510 3.41862
515 3.70275
520 2.93771
525 3.25412
530 3.38977
535 3.34961
540 4.57307
545 3.49975
550 3.465
555 2.62733
560 3.45285
565 3.63393
570 2.75534
575 2.75891
580 3.80522
585 3.44944
590 3.01658
595 2.69846
600 1.40428
Ex : 273
200 1.8652
205 2.97952
210 2.01384
215 2.18302
220 2.4762
225 2.39134
230 2.29418
235 2.28081
240 2.31602
245 3.03348
250 2.32532
255 2.96534
260 2.27617
265 2.43417
270 2.17916
275 2.307
280 2.04831
285 2.3211
290 3.93397
295 2.89973
300 2.10833
305 2.50918
310 2.34659
315 2.17322
320 2.46536
325 2.00489
330 2.95394
335 3.12438
340 2.75962
345 2.59442
350 2.44363
355 2.88326
360 2.92318
365 2.75343
370 2.61917
375 3.19622
380 3.39569
385 3.59339
390 2.66166
395 3.12957
400 2.9008
405 3.70036
410 2.81392
415 2.49133
420 2.85566
425 2.62723
430 2.48716
435 2.81432
440 2.66654
445 2.96713
450 2.86566
455 2.29479
460 2.20271
465 3.38448
470 2.7506
475 3.13846
480 3.30472
485 2.99831
490 2.88598
495 2.6493
500 3.07375
505 2.7746
510 2.901
515 3.02065
520 2.6997
525 3.30041
530 2.6066
535 2.93484
540 3.26416
545 2.73777
550 2.59558
555 2.89822
560 2.85929
565 2.17185
570 2.13388
575 3.12321
580 2.12956
585 2.11706
590 2.2479
595 2.04525
600 1.72156
Ex : 278
200 1.8198
205 2.17342
210 2.0308
215 1.77692
220 2.03078
225 1.97791
230 2.22475
235 1.88674
240 2.5542
245 2.21933
250 2.01248
255 1.75129
260 1.98546
265 2.51553
270 2.88857
275 1.86233
280 1.68339
285 1.78496
290 2.172
295 2.25705
300 2.62783
305 2.43553
310 2.14476
315 2.61214
320 2.20471
325 1.64479
330 2.13155
335 1.5894
340 2.07601
345 1.78796
350 2.5738
355 2.33276
360 2.12197
365 2.44187
370 3.07762
375 2.41734
380 2.61308
385 2.32425
390 2.31919
395 2.31578
400 3.19647
405 2.78955
410 2.64565
415 2.78981
420 2.80415
425 3.13954
430 2.85506
435 2.83592
440 2.76986
445 2.55436
450 2.24936
455 1.94497
460 2.0378
465 2.39817
470 2.42541
475 2.17482
480 2.52769
485 1.89905
490 1.90273
495 1.96543
500 2.2065
505 1.7166
510 1.98381
515 1.88966
520 1.77545
525 2.00065
530 1.8647
535 2.17372
540 2.29439
545 2.46135
550 2.25882
555 2.22069
560 1.94911
565 2.43243
570 2.05273
575 2.08808
580 2.51475
585 1.78859
590 1.70746
595 1.71962
600 0.36721
Ex : 283
200 1.53368
205 1.58655
210 1.73441
215 1.7878
220 1.53889
225 1.78682
230 2.09592
235 1.8887
240 1.97418
245 2.00057
250 1.91924
255 2.03712
260 1.98706
265 1.25636
270 1.44204
275 1.32892
280 1.53715
285 1.4652
290 1.63258
295 1.59791
300 1.34233
305 1.63304
310 1.59739
315 1.71695
320 1.84673
325 1.43908
330 1.55845
335 1.93163
340 1.65429
345 1.4449
350 2.06119
355 2.1205
360 1.89219
365 1.68692
370 2.05015
375 1.70036
380 1.5737
385 1.84526
390 2.07732
395 2.08639
400 1.71092
405 1.52602
410 1.79472
415 1.94056
420 2.93276
425 2.09285
430 2.02983
435 2.06694
440 2.37871
445 1.8405
450 2.04556
455 1.7986
460 1.90784
465 1.58324
470 1.82418
475 1.59501
480 1.85641
485 2.17799
490 1.47904
495 2.09626
500 1.94757
505 1.46452
510 1.6699
515 2.13525
520 1.61869
525 1.98924
530 2.04406
535 2.64405
540 1.67827
545 1.86111
550 1.84648
555 1.93455
560 2.13409
565 2.00598
570 1.84222
575 1.72827
580 1.78657
585 1.47942
590 1.4744
595 1.39744
600 1.90871
Ex : 288
200 1.56122
205 1.35894
210 1.66211
215 1.38786
220 1.49374
225 1.07022
230 1.69575
235 1.81423
240 1.49297
245 1.72282
250 1.22695
255 1.21178
260 1.43293
265 1.54513
270 2.05514
275 1.90608
280 1.49649
285 1.83217
290 1.77224
295 1.89317
300 1.51788
305 1.56381
310 1.39371
315 0.99943
320 2.04454
325 1.20835
330 1.36307
335 1.45818
340 1.44526
345 1.55996
350 1.7721
355 1.47445
360 1.5221
365 1.6491
370 1.77753
375 1.81993
380 2.02333
385 2.14447
390 1.79032
395 1.57795
400 1.6577
405 1.69161
410 1.82313
415 1.70375
420 1.99644
425 2.04519
430 1.78628
435 2.01159
440 1.91815
445 1.91977
450 1.64538
455 2.40998
460 1.58602
465 1.93645
470 1.93925
475 1.54563
480 2.05221
485 1.67122
490 1.57518
495 1.70191
500 1.8602
505 1.9376
510 1.47623
515 1.81614
520 1.71645
525 1.35642
530 1.36895
535 1.39502
540 1.26977
545 1.88188
550 1.60357
555 1.20469
560 1.45961
565 1.33388
570 1.92661
575 1.81865
580 1.34559
585 1.34913
590 1.78385
595 1.5802
600 2.15832
Ex : 293
200 1.35196
205 1.14009
210 1.18802
215 1.34635
220 1.16721
225 1.34467
230 1.40555
235 1.42297
240 1.10287
245 1.32022
250 1.27851
255 1.24375
260 1.17731
265 1.48854
270 1.40403
275 1.16248
280 1.35312
285 1.24412
290 1.45675
295 1.20328
300 1.24035
305 1.02818
310 0.967693
315 1.20806
320 1.27466
325 1.09232
330 1.41647
335 1.27555
340 1.16664
345 1.73181
350 1.29358
355 1.72653
360 1.37075
365 1.98013
370 1.30713
375 1.69415
380 1.48998
385 1.32677
390 1.6678
395 1.56493
400 1.38564
405 1.8318
410 1.40648
415 1.44927
420 1.75663
425 1.26417
430 1.41484
435 1.37445
440 1.65133
445 1.77336
450 1.55177
455 1.92075
460 1.62267
465 1.8205
470 1.66124
475 1.40633
480 1.05375
485 1.11148
490 1.59543
495 1.63046
500 1.8173
505 1.4764
510 1.18093
515 1.41469
520 1.27422
525 1.83075
530 1.29297
535 1.30509
540 1.01946
545 1.07284
550 1.04349
555 1.45493
560 1.25895
565 1.2806
570 1.25359
575 1.6557
580 1.78829
585 1.66274
590 1.49694
595 1.22333
600 4.57023
Ex : 298
200 1.33605
205 1.0278
210 0.662982
215 0.963468
220 0.945048
225 1.08045
230 0.9866
235 0.905418
240 0.905129
245 1.2709
250 1.03011
255 1.07204
260 0.997764
265 0.848451
270 1.11818
275 1.0822
280 1.10457
285 1.04101
290 1.02807
295 1.35348
300 1.12246
305 1.21602
310 1.19814
315 0.95002
320 1.08697
325 0.93656
330 1.12198
335 0.937726
340 0.810886
345 1.12564
350 1.25103
355 1.33836
360 1.00705
365 0.982541
370 1.31736
375 1.24883
380 1.43005
385 1.37276
390 1.6692
395 1.65931
400 1.45306
405 1.06463
410 1.31555
415 1.81192
420 1.53839
425 1.72241
430 1.65225
435 1.45931
440 1.22316
445 1.56425
450 1.2753
455 1.64713
460 1.5677
465 1.30025
470 1.37474
475 1.3524
480 1.19958
485 1.2965
490 1.13389
495 1.20916
500 1.12896
505 0.99197
510 1.19509
515 1.31218
520 1.44952
525 0.829058
530 0.920256
535 0.895393
540 1.1097
545 0.92748
550 1.27484
555 1.06995
560 1.33929
565 1.41142
570 1.26057
575 0.825365
580 1.04193
585 1.11956
590 1.45095
595 1.27918
600 0.631548
Ex : 303
200 1.20542
205 1.05537
210 0.934224
215 1.01954
220 0.724599
225 1.1737
230 0.973754
235 1.12533
240 1.07359
245 0.812175
250 0.671296
255 0.767993
260 1.01641
265 1.08396
270 0.766776
275 1.2597
280 1.0953
285 1.2836
290 0.86823
295 1.27603
300 1.34561
305 0.922254
310 1.04393
315 0.999587
320 0.889295
325 1.11195
330 0.874426
335 0.876818
340 1.02615
345 1.0846
350 1.09391
355 1.28197
360 1.13757
365 1.01248
370 1.23029
375 1.24191
380 1.15738
385 1.0875
390 1.28429
395 1.31337
400 1.59421
405 1.1819
410 1.40018
415 1.41274
420 1.24985
425 1.6834
430 1.30387
435 1.26973
440 1.60116
445 1.15245
450 1.36279
455 0.974252
460 1.21642
465 1.34041
470 1.24862
475 1.49424
480 1.24709
485 0.93087
490 1.29119
495 1.16883
500 1.0466
505 1.29005
510 1.04148
515 1.19009
520 1.48397
525 0.990702
530 0.880065
535 1.18742
540 0.841939
545 0.83285
550 0.795334
555 0.689215
560 0.980408
565 0.877859
570 1.10509
575 1.15423
580 1.0904
585 1.11663
590 1.07698
595 0.974506
600 0.81583
Ex : 308
200 0.901675
205 0.701183
210 0.98955
215 0.846438
220 0.638737
225 0.776672
230 0.857074
235 0.858019
240 0.619329
245 0.781859
250 0.848497
255 0.967772
260 0.936345
265 0.80731
270 0.912727
275 0.868773
280 0.799744
285 0.744235
290 0.729152
295 0.729431
300 0.73888
305 1.13921
310 0.860406
315 0.697027
320 0.665223
325 0.890996
330 0.91949
335 0.809103
340 0.684737
345 0.830583
350 0.847569
355 1.43768
360 1.04648
365 1.09444
370 1.0777
375 0.934348
380 1.02113
385 1.116
390 1.12818
395 1.16367
400 1.19045
405 1.60269
410 1.46073
415 1.36302
420 1.1449
425 1.61986
430 1.37312
435 1.25698
440 1.19098
445 1.2235
450 1.37075
455 1.33437
460 1.18022
465 1.19569
470 1.07039
475 0.868932
480 1.12983
485 1.10218
490 1.13675
495 0.964962
500 0.89128
505 0.880041
510 1.14604
515 0.905774
520 1.05923
525 1.17036
530 0.835162
535 0.795628
540 1.13608
545 0.909649
550 0.646293
555 0.708875
560 0.743236
565 0.904877
570 0.988339
575 0.603366
580 0.835062
585 0.816148
590 0.994396
595 0.784491
600 1.32529
Ex : 313
200 0.743795
205 0.911748
210 0.826399
215 0.688533
220 0.736191
225 0.651786
230 0.598543
235 0.808852
240 0.822134
245 0.707213
250 0.789539
255 0.623863
260 0.5972
265 0.633139
270 0.689788
275 0.470669
280 0.670125
285 0.764792
290 0.638392
295 0.739863
300 0.781639
305 0.917945
310 0.74101
315 0.713028
320 0.763303
325 0.693005
330 0.636832
335 0.853015
340 0.994069
345 0.89181
350 1.02745
355 0.839656
360 1.0665
365 0.951903
370 1.28027
375 1.26158
380 1.21854
385 1.39201
390 1.59215
395 1.80768
400 1.63862
405 1.51788
410 1.36285
415 1.43383
420 1.93533
425 1.59666
430 1.82559
435 1.63583
440 1.46747
445 1.528
450 1.25393
455 1.18481
460 1.26129
465 1.28234
470 1.26098
475 1.26399
480 1.22275
485 1.15603
490 1.00544
495 0.96008
500 0.783783
505 0.971227
510 1.14356
515 0.908311
520 0.947074
525 1.01154
530 0.872571
535 0.869575
540 0.683156
545 0.623002
550 0.821812
555 0.579787
560 0.706014
565 0.715483
570 0.799996
575 0.869874
580 0.752917
585 0.825614
590 0.808473
595 0.736827
600 0.486668
Ex : 318
200 0.606261
205 0.571486
210 0.605115
215 0.572139
220 0.536276
225 0.705059
230 0.813184
235 0.822144
240 0.738711
245 0.492858
250 0.607774
255 0.812473
260 0.651955
265 0.891882
270 0.52212
275 0.473548
280 0.596861
285 0.540504
290 0.622429
295 0.60636
300 0.687401
305 0.830248
310 0.773513
315 1.26566
320 1.00045
325 0.721612
330 1.15059
335 1.28209
340 1.86719
345 2.54843
350 3.09245
355 3.11841
360 4.42048
365 5.21939
370 5.49331
375 6.7079
380 7.33649
385 8.37736
390 8.90209
395 9.28097
400 9.62417
405 10.6768
410 9.91539
415 10.3772
420 10.2285
425 10.1532
430 9.18839
435 9.1956
440 8.94639
445 8.85121
450 7.62072
455 7.79428
460 6.88927
465 7.04701
470 6.03342
475 5.3386
480 4.67286
485 4.65472
490 4.11467
495 3.78604
500 3.28832
505 3.22547
510 2.54466
515 2.09782
520 2.25796
525 1.82262
530 1.84322
535 1.65582
540 1.68527
545 1.29226
550 1.53692
555 1.09837
560 1.11094
565 1.01461
570 0.916232
575 0.946312
580 0.773777
585 0.773976
590 0.805689
595 0.732885
600 0.629444
Ex : 323
200 0.635093
205 0.58514
210 0.61223
215 0.508034
220 0.651107
225 0.387509
230 0.679206
235 0.713282
240 0.540967
245 0.563722
250 0.596345
255 0.543753
260 0.544598
265 0.594835
270 0.613945
275 0.672915
280 0.613399
285 0.600331
290 0.531078
295 0.475529
300 0.751461
305 0.673878
310 0.570993
315 3.05599
320 11.5246
325 5.3146
330 2.72474
335 3.58669
340 4.31556
345 6.6641
350 9.83808
355 12.9008
360 14.9737
365 18.2291
370 20.7967
375 24.8515
380 27.5411
385 31.702
390 34.3917
395 36.9681
400 37.8014
405 38.4864
410 40.0768
415 38.7536
420 37.7672
425 35.9799
430 36.1822
435 35.6354
440 33.3228
445 31.8955
450 30.0897
455 28.3069
460 26.203
465 24.138
470 21.8468
475 20.7574
480 18.5395
485 16.7406
490 15.2096
495 13.8045
500 12.2981
505 10.8584
510 9.0359
515 8.36102
520 7.24571
525 6.50196
530 5.79942
535 4.89573
540 4.41744
545 4.30175
550 3.87516
555 2.92861
560 2.72098
565 2.59482
570 2.07441
575 1.76541
580 1.58043
585 1.20822
590 0.870329
595 1.04921
600 0.570703
Ex : 328
200 0.408964
205 0.553144
210 0.494507
215 0.516882
220 0.580945
225 0.499135
230 0.529634
235 0.726714
240 0.535442
245 0.526485
250 0.566569
255 0.516143
260 0.61349
265 0.564496
270 0.531807
275 0.388292
280 0.580256
285 0.576008
290 0.444863
295 0.4606
300 0.682278
305 0.594071
310 0.560296
315 1.1234
320 23.3274
325 54.1585
330 18.6507
335 5.83674
340 5.95219
345 7.59662
350 10.0773
355 13.9472
360 19.5215
365 21.6873
370 24.3448
375 26.5443
380 31.2637
385 34.755
390 38.052
395 40.0444
400 41.1888
405 41.6367
410 43.3237
415 43.4501
420 42.3911
425 40.3903
430 38.8805
435 38.7037
440 36.7487
445 34.9581
450 32.47
455 30.6141
460 28.9864
465 26.0919
470 24.3058
475 23.0776
480 20.753
485 19.0943
490 17.0166
495 15.1321
500 13.1151
505 12.4832
510 10.7132
515 10.0571
520 8.73562
525 7.66605
530 6.78536
535 6.02967
540 5.55438
545 4.84484
550 4.39694
555 3.68626
560 3.41534
565 2.9929
570 2.5927
575 2.19509
580 1.7037
585 1.65223
590 1.41422
595 1.13371
600 0.52288
Ex : 333
200 0.559515
205 0.481583
210 0.478902
215 0.477244
220 0.483411
225 0.530486
230 0.485897
235 0.501507
240 0.528385
245 0.515193
250 0.58956
255 0.433056
260 0.532842
265 0.51063
270 0.339055
275 0.523203
280 0.441723
285 0.511406
290 0.480744
295 0.510319
300 0.482763
305 0.441369
310 0.432791
315 0.518244
320 4.16951
325 64.7447
330 108.751
335 29.9068
340 7.29746
345 6.30937
350 6.70259
355 7.8383
360 11.2336
365 16.1836
370 17.0183
375 16.9901
380 18.6253
385 21.3092
390 24.5714
395 25.286
400 24.9257
405 27.0211
410 27.4207
415 27.9616
420 26.9385
425 25.1483
430 24.5828
435 24.0403
440 23.136
445 21.3657
450 20.2476
455 19.5415
460 18.7781
465 17.1626
470 15.1998
475 14.3245
480 13.1311
485 12.6652
490 11.6917
495 10.5667
500 10.2266
505 8.8396
510 8.02812
515 7.13759
520 6.55803
525 5.76778
530 5.72077
535 4.92659
540 4.64218
545 4.12158
550 3.80807
555 3.26778
560 3.08257
565 2.68523
570 2.22064
575 2.011
580 1.95865
585 1.45388
590 1.3829
595 0.94373
600 1.1163
Ex : 338
200 0.544736
205 0.386188
210 0.50907
215 0.427045
220 0.414245
225 0.534327
230 0.426875
235 0.452037
240 0.481609
245 0.407629
250 0.561688
255 0.660439
260 0.524748
265 0.566672
270 0.420019
275 0.497996
280 0.490601
285 0.611373
290 0.636814
295 0.742571
300 0.706189
305 0.63601
310 0.395025
315 0.410231
320 0.585473
325 6.55135
330 95.5151
335 141.651
340 36.0865
345 7.20355
350 4.82084
355 4.67068
360 4.98106
365 7.50786
370 11.8409
375 12.6129
380 12.1271
385 13.2859
390 15.7458
395 17.0817
400 17.3081
405 17.0988
410 18.4418
415 18.1727
420 17.5386
425 16.4017
430 16.4536
435 15.4167
440 14.8586
445 14.8799
450 13.3564
455 12.693
460 11.9528
465 11.7468
470 10.8244
475 10.4822
480 10.0826
485 9.29093
490 8.6166
495 8.09015
500 7.3755
505 7.23421
510 6.56738
515 5.81875
520 5.61037
525 4.9318
530 4.79403
535 4.20457
540 3.95362
545 3.44596
550 3.25089
555 3.01243
560 2.65406
565 2.30065
570 2.19727
575 1.9806
580 1.57525
585 1.29867
590 1.21865
595 1.05789
600 2.12994
Ex : 343
200 0.426837
205 0.420215
210 0.395201
215 0.439118
220 0.404479
225 0.437533
230 0.344591
235 0.359231
240 0.494318
245 0.42723
250 0.524473
255 0.434695
260 0.41181
265 0.368013
270 0.465453
275 0.523211
280 0.474995
285 0.533052
290 0.581568
295 0.490944
300 0.487467
305 0.4796
310 0.453079
315 0.444314
320 0.521645
325 0.675451
330 8.10692
335 109.55
340 156.514
345 38.3391
350 7.06526
355 4.16309
360 4.01441
365 3.78643
370 5.16186
375 9.57916
380 12.015
385 12.5303
390 13.2644
395 13.5925
400 13.4496
405 14.33
410 15.3945
415 16.3352
420 15.2311
425 14.3532
430 13.7302
435 13.4399
440 13.3666
445 12.7562
450 11.753
455 11.4665
460 10.7325
465 10.4655
470 9.79178
475 9.50304
480 9.04193
485 8.59625
490 7.81097
495 7.63055
500 7.17693
505 7.01479
510 6.39358
515 5.63751
520 5.15097
525 4.8677
530 4.35563
535 3.96569
540 3.94547
545 3.52092
550 3.2495
555 2.87048
560 2.57011
565 2.28397
570 2.15638
575 1.8618
580 1.51988
585 1.29747
590 1.14953
595 1.00997
600 0.25304
Ex : 348
200 0.391088
205 0.330295
210 0.366773
215 0.390798
220 0.418317
225 0.456738
230 0.513841
235 0.485559
240 0.378531
245 0.419853
250 0.391833
255 0.445906
260 0.315071
265 0.332148
270 0.35615
275 0.294619
280 0.433342
285 0.377711
290 0.447874
295 0.573068
300 0.388828
305 0.496216
310 0.432703
315 0.313892
320 0.362391
325 0.52648
330 0.675193
335 8.05886
340 111.505
345 161.64
350 41.3302
355 7.11361
360 3.6313
365 3.30979
370 3.38408
375 4.56699
380 9.15422
385 14.3261
390 16.1051
395 16.0125
400 14.4628
405 15.6645
410 16.445
415 17.2627
420 17.2814
425 15.5441
430 14.9118
435 14.4522
440 14.3466
445 13.7388
450 12.6202
455 11.7118
460 11.5097
465 10.6234
470 10.5658
475 9.66125
480 9.34695
485 8.85418
490 8.38241
495 7.95082
500 7.73786
505 7.00896
510 6.50032
515 5.97058
520 5.39239
525 4.90263
530 4.62321
535 4.15517
540 3.74325
545 3.46786
550 3.55605
555 3.00923
560 2.69598
565 2.44872
570 2.24937
575 1.78484
580 1.41891
585 1.27291
590 1.20766
595 1.11949
600 1.39961
Ex : 353
200 0.321368
205 0.401603
210 0.290856
215 0.292858
220 0.283632
225 0.313607
230 0.359963
235 0.512524
240 0.470146
245 0.411316
250 0.369394
255 0.413342
260 0.409623
265 0.42525
270 0.353013
275 0.477278
280 0.362009
285 0.386442
290 0.35477
295 0.536319
300 0.349306
305 0.439556
310 0.39593
315 0.332717
320 0.429484
325 0.411545
330 0.498248
335 0.657306
340 7.88924
345 115.165
350 162.77
355 40.8512
360 6.91481
365 3.46385
370 3.33617
375 3.63592
380 5.31064
385 10.6916
390 17.5222
395 18.5375
400 16.5775
405 16.1606
410 17.1635
415 18.3975
420 18.1021
425 16.3127
430 15.1997
435 14.6359
440 14.6537
445 13.934
450 13.2507
455 12.5931
460 11.7495
465 10.9959
470 10.9887
475 10.143
480 9.97092
485 9.44448
490 8.80954
495 8.41113
500 8.02816
505 7.08237
510 6.81414
515 6.29179
520 5.8239
525 5.15997
530 4.6774
535 4.37209
540 4.09909
545 3.73342
550 3.24937
555 3.28831
560 2.9754
565 2.63739
570 2.34901
575 1.98524
580 1.78993
585 1.28155
590 1.16145
595 1.13609
600 1.17057
Ex : 358
200 0.339788
205 0.35663
210 0.339362
215 0.348582
220 0.313665
225 0.306171
230 0.341889
235 0.353951
240 0.351122
245 0.34551
250 0.286219
255 0.277691
260 0.365556
265 0.352028
270 0.322236
275 0.361131
280 0.338769
285 0.488857
290 0.387107
295 0.464567
300 0.470374
305 0.385331
310 0.445398
315 0.359831
320 0.365241
325 0.363749
330 0.372346
335 0.506108
340 0.691518
345 7.23621
350 107.871
355 162.75
360 40.2802
365 6.60208
370 3.38624
375 3.51529
380 4.58553
385 7.1604
390 12.4635
395 17.9897
400 16.9468
405 15.6116
410 15.8054
415 17.1518
420 16.5495
425 14.8708
430 13.9302
435 13.9374
440 13.8803
445 13.3434
450 12.2083
455 12.0166
460 10.8703
465 11.0161
470 10.623
475 10.6381
480 9.82001
485 9.70347
490 8.98915
495 8.26912
500 8.21272
505 7.62896
510 7.02199
515 6.52522
520 6.21557
525 5.59256
530 5.21197
535 4.56654
540 4.27013
545 3.81044
550 3.44803
555 3.11022
560 3.1102
565 2.53473
570 2.24865
575 1.96563
580 1.60336
585 1.44549
590 1.19232
595 1.18015
600 0.819505
Ex : 363
200 0.32151
205 0.291869
210 0.297735
215 0.385425
220 0.36621
225 0.415995
230 0.249466
235 0.342325
240 0.293616
245 0.238477
250 0.430573
255 0.324951
260 0.303065
265 0.328418
270 0.332843
275 0.312473
280 0.288145
285 0.280767
290 0.234752
295 0.279666
300 0.290652
305 0.264299
310 0.374837
315 0.43201
320 0.38241
325 0.33744
330 0.321078
335 0.373184
340 0.44524
345 0.606902
350 7.37116
355 105.364
360 162.476
365 42.2806
370 6.70463
375 3.66818
380 5.31474
385 8.3828
390 11.4375
395 13.7249
400 16.77
405 18.3286
410 18.4239
415 18.226
420 16.894
425 15.0969
430 13.8603
435 14.2135
440 14.7298
445 13.5645
450 12.7669
455 12.1047
460 11.4538
465 11.1027
470 11.3848
475 10.515
480 9.97729
485 9.88379
490 9.25245
495 8.41204
500 8.13876
505 7.65522
510 7.31912
515 6.46162
520 6.12102
525 5.66312
530 5.22089
535 5.05677
540 4.29027
545 4.17589
550 3.79448
555 3.49859
560 3.01143
565 2.6462
570 2.08666
575 1.95342
580 1.69271
585 1.50734
590 1.18271
595 1.12801
600 1.3895
Ex : 368
200 0.297466
205 0.307731
210 0.261507
215 0.418023
220 0.276168
225 0.363501
230 0.274347
235 0.311023
240 0.270868
245 0.290508
250 0.242406
255 0.39118
260 0.349696
265 0.357415
270 0.32196
275 0.314612
280 0.348574
285 0.288764
290 0.461706
295 0.383606
300 0.286157
305 0.316821
310 0.28458
315 0.297697
320 0.330562
325 0.352858
330 0.34952
335 0.376139
340 0.435874
345 0.492317
350 0.600698
355 5.74833
360 100.339
365 163.408
370 43.9809
375 7.21633
380 4.81834
385 9.1201
390 14.008
395 16.3718
400 15.6379
405 18.3866
410 22.9874
415 22.4967
420 21.23
425 17.8024
430 16.3149
435 15.9236
440 15.9009
445 15.3413
450 14.2337
455 13.2621
460 12.3576
465 12.1668
470 11.5487
475 11.3013
480 10.8623
485 10.3266
490 9.8776
495 9.28635
500 9.0127
505 8.37547
510 7.74841
515 7.42829
520 6.87075
525 6.14748
530 5.42788
535 5.14642
540 4.57275
545 4.13825
550 3.73455
555 3.40694
560 3.09831
565 2.83692
570 2.3916
575 2.07891
580 1.67748
585 1.30743
590 1.24532
595 1.02081
600 0.825929
Ex : 373
200 0.287377
205 0.302678
210 0.262801
215 0.346798
220 0.24873
225 0.437867
230 0.394775
235 0.326997
240 0.256589
245 0.384374
250 0.30931
255 0.318794
260 0.263865
265 0.228922
270 0.343641
275 0.340859
280 0.359485
285 0.326572
290 0.265459
295 0.280631
300 0.23762
305 0.245495
310 0.328288
315 0.311635
320 0.234866
325 0.242023
330 0.298104
335 0.330991
340 0.310316
345 0.376988
350 0.41705
355 0.519057
360 7.04805
365 103.471
370 162.473
375 43.8811
380 8.03355
385 7.33391
390 13.4868
395 16.6074
400 15.5039
405 15.3372
410 19.0825
415 24.1771
420 22.7064
425 18.8332
430 16.1206
435 15.343
440 15.3908
445 15.3444
450 14.1677
455 12.3319
460 12.0115
465 11.5531
470 11.8038
475 11.6096
480 10.9912
485 10.4948
490 10.1641
495 9.42397
500 8.90507
505 8.43658
510 8.12545
515 7.51365
520 6.93515
525 6.30696
530 5.90199
535 5.20874
540 5.01243
545 4.40233
550 4.19526
555 3.87825
560 3.36741
565 2.96584
570 2.48908
575 2.0334
580 1.94589
585 1.49794
590 1.13067
595 0.973557
600 0.451635
Ex : 378
200 0.360922
205 0.264408
210 0.313525
215 0.274015
220 0.379575
225 0.30313
230 0.286939
235 0.273056
240 0.298979
245 0.286046
250 0.320128
255 0.317883
260 0.293246
265 0.320771
270 0.289135
275 0.244437
280 0.269279
285 0.28076
290 0.261352
295 0.308866
300 0.29874
305 0.275553
310 0.274417
315 0.265146
320 0.299522
325 0.261221
330 0.289884
335 0.37744
340 0.352785
345 0.324459
350 0.368173
355 0.355864
360 0.532525
365 6.14527
370 104.206
375 166.121
380 45.7088
385 10.2928
390 10.2217
395 12.1304
400 11.7444
405 11.0466
410 12.7207
415 15.7797
420 18.5391
425 16.2619
430 13.6783
435 12.8228
440 12.1733
445 11.944
450 11.049
455 10.8084
460 10.7496
465 10.7631
470 10.5213
475 10.383
480 10.498
485 9.99669
490 9.79781
495 9.54806
500 9.06349
505 8.90621
510 8.36773
515 7.81467
520 7.04138
525 6.45544
530 6.27549
535 5.74349
540 5.09456
545 4.56409
550 4.08973
555 3.63623
560 3.56608
565 3.08675
570 2.51393
575 2.12058
580 1.72514
585 1.45426
590 1.20793
595 1.00578
600 0.843951
Ex : 383
200 0.273934
205 0.227777
210 0.252506
215 0.259649
220 0.293827
225 0.263821
230 0.268367
235 0.271173
240 0.275775
245 0.296784
250 0.288762
255 0.309907
260 0.247786
265 0.234754
270 0.30245
275 0.209397
280 0.259101
285 0.25531
290 0.248804
295 0.247414
300 0.262172
305 0.315163
310 0.272202
315 0.257011
320 0.282519
325 0.290129
330 0.374819
335 0.361547
340 0.32087
345 0.29948
350 0.34316
355 0.373873
360 0.373559
365 0.468416
370 6.07403
375 105.658
380 175.807
385 52.313
390 14.6385
395 11.0922
400 10.6841
405 11.6874
410 12.8642
415 13.5228
420 13.7684
425 14.6713
430 14.716
435 13.0922
440 12.8513
445 11.6856
450 10.3188
455 10.0494
460 10.2357
465 10.3592
470 10.7468
475 10.4293
480 10.2163
485 10.1435
490 9.9518
495 9.655
500 9.28186
505 8.57689
510 8.26769
515 7.80479
520 7.08696
525 6.45787
530 6.21296
535 5.50599
540 4.7519
545 4.5715
550 4.12244
555 3.88465
560 3.28932
565 2.91653
570 2.37818
575 1.98756
580 1.65142
585 1.36513
590 1.19561
595 0.931506
600 0.805272
Ex : 388
200 0.304181
205 0.29111
210 0.24803
215 0.260849
220 0.254503
225 0.238305
230 0.234821
235 0.317466
240 0.297196
245 0.201454
250 0.237342
255 0.213069
260 0.315734
265 0.245693
270 0.252408
275 0.235128
280 0.327629
285 0.295975
290 0.292997
295 0.276894
300 0.267761
305 0.221138
310 0.30826
315 0.321738
320 0.307531
325 0.266713
330 0.254799
335 0.253335
340 0.322953
345 0.271512
350 0.312631
355 0.343009
360 0.304519
365 0.395223
370 0.490334
375 6.82477
380 109.847
385 180.808
390 57.4038
395 18.3137
400 13.0322
405 13.1626
410 15.191
415 16.1407
420 15.5021
425 14.4656
430 14.6777
435 16.0565
440 14.7687
445 13.6599
450 12.1452
455 10.7322
460 10.9706
465 10.8056
470 10.8045
475 10.6759
480 10.472
485 10.1636
490 9.92192
495 9.57942
500 9.2093
505 8.7759
510 8.19305
515 7.5277
520 7.05701
525 6.47567
530 6.04416
535 5.61611
540 4.92642
545 4.57536
550 4.21681
555 3.93852
560 3.5965
565 3.06868
570 2.64741
575 2.07287
580 1.68898
585 1.35676
590 1.17801
595 1.07252
600 0.894978
Ex : 393
200 0.263381
205 0.235709
210 0.24239
215 0.264942
220 0.252954
225 0.249671
230 0.252564
235 0.303783
240 0.254236
245 0.221371
250 0.206912
255 0.26448
260 0.266408
265 0.224032
270 0.302153
275 0.22345
280 0.224882
285 0.24822
290 0.217178
295 0.259755
300 0.24581
305 0.261423
310 0.2341
315 0.273403
320 0.293652
325 0.248846
330 0.209312
335 0.257621
340 0.27359
345 0.239139
350 0.242513
355 0.328754
360 0.270475
365 0.318638
370 0.382995
375 0.525799
380 6.49983
385 111.795
390 191.218
395 61.7187
400 18.3503
405 12.2326
410 13.6084
415 16.6153
420 16.8475
425 14.3973
430 12.5338
435 13.3873
440 15.5689
445 14.7895
450 12.9596
455 11.7392
460 10.7737
465 10.7217
470 10.7887
475 10.7333
480 10.2786
485 9.84473
490 9.82487
495 9.75208
500 9.1202
505 8.9247
510 8.50628
515 7.82437
520 7.2428
525 6.63683
530 6.15696
535 5.8028
540 5.23206
545 4.75957
550 4.3679
555 4.01977
560 3.63364
565 3.14044
570 2.57065
575 2.2885
580 1.72613
585 1.34745
590 1.09665
595 0.958109
600 0.334494
Ex : 398
200 0.203526
205 0.193745
210 0.218283
215 0.220167
220 0.256804
225 0.245224
230 0.199839
235 0.196489
240 0.27302
245 0.235749
250 0.218045
255 0.193289
260 0.228395
265 0.234226
270 0.191807
275 0.236039
280 0.23857
285 0.181014
290 0.210382
295 0.221306
300 0.267123
305 0.235439
310 0.264757
315 0.298594
320 0.227784
325 0.271635
330 0.216771
335 0.188106
340 0.243513
345 0.236725
350 0.267668
355 0.36524
360 0.311505
365 0.284538
370 0.316552
375 0.389431
380 0.68514
385 7.39328
390 115.85
395 192.251
400 56.4908
405 12.3829
410 8.53238
415 10.0186
420 10.4897
425 9.12144
430 7.54858
435 7.60914
440 9.05091
445 11.9341
450 11.185
455 9.83548
460 9.16833
465 8.80964
470 9.21562
475 9.2228
480 9.66714
485 9.2921
490 9.31078
495 9.21427
500 9.01298
505 8.53576
510 8.15915
515 7.80305
520 7.42934
525 6.68258
530 5.85248
535 5.50629
540 5.17887
545 4.76282
550 4.27191
555 3.83585
560 3.61889
565 3.21402
570 2.58075
575 2.19566
580 1.65292
585 1.42799
590 1.02603
595 0.976872
600 0.6035
Ex : 403
200 0.269412
205 0.227974
210 0.270057
215 0.287176
220 0.222072
225 0.2001
230 0.205233
235 0.183801
240 0.237031
245 0.201422
250 0.219141
255 0.274709
260 0.207117
265 0.240955
270 0.212909
275 0.229383
280 0.233535
285 0.208752
290 0.23342
295 0.224634
300 0.253379
305 0.252797
310 0.294478
315 0.214391
320 0.26538
325 0.275477
330 0.285112
335 0.292753
340 0.319733
345 0.246513
350 0.209666
355 0.325065
360 0.187751
365 0.231702
370 0.233701
375 0.337386
380 0.420221
385 0.849561
390 8.01896
395 117.68
400 188.639
405 53.4259
410 9.32271
415 4.5273
420 4.84931
425 4.87645
430 4.21943
435 4.41375
440 4.69892
445 5.67724
450 8.18678
455 8.74504
460 8.29738
465 8.17523
470 8.11861
475 8.58592
480 8.7589
485 8.70876
490 8.87817
495 9.03518
500 8.56477
505 8.32627
510 8.137
515 7.60305
520 6.96143
525 6.89909
530 6.19142
535 5.64066
540 5.34952
545 4.81906
550 4.36337
555 3.87578
560 3.54237
565 3.18375
570 2.66524
575 2.2058
580 1.72355
585 1.43581
590 1.18112
595 1.00165
600 0.668614
Ex : 408
200 0.269758
205 0.274128
210 0.227549
215 0.236871
220 0.212113
225 0.20347
230 0.24718
235 0.218846
240 0.216238
245 0.229661
250 0.235764
255 0.215873
260 0.257443
265 0.210125
270 0.252444
275 0.226006
280 0.280725
285 0.164432
290 0.199469
295 0.225414
300 0.221771
305 0.218419
310 0.249143
315 0.246893
320 0.243682
325 0.242454
330 0.308159
335 0.219756
340 0.255654
345 0.243401
350 0.250147
355 0.210782
360 0.287754
365 0.313178
370 0.305715
375 0.302782
380 0.368248
385 0.447347
390 0.625897
395 6.84167
400 120.051
405 191.684
410 51.0729
415 8.292
420 3.51437
425 3.16197
430 3.51643
435 3.49165
440 3.77822
445 4.10497
450 4.94447
455 7.20369
460 8.9082
465 8.48826
470 8.53918
475 8.67515
480 8.50541
485 8.65908
490 8.78909
495 8.59781
500 8.38703
505 8.2031
510 7.8268
515 7.42048
520 6.73312
525 6.54266
530 6.10306
535 5.85399
540 5.23034
545 4.85257
550 4.38341
555 3.92104
560 3.60569
565 2.97221
570 2.44376
575 2.16071
580 1.78325
585 1.39781
590 1.1523
595 0.89863
600 0.922598
Ex : 413
200 0.233989
205 0.200248
210 0.18907
215 0.273888
220 0.225406
225 0.204953
230 0.298786
235 0.276633
240 0.183698
245 0.196296
250 0.207635
255 0.221737
260 0.223882
265 0.266603
270 0.200433
275 0.200684
280 0.263897
285 0.201859
290 0.293014
295 0.221523
300 0.207492
305 0.191206
310 0.240335
315 0.238488
320 0.221918
325 0.208967
330 0.239392
335 0.27473
340 0.265847
345 0.23947
350 0.272331
355 0.251997
360 0.23808
365 0.230027
370 0.256056
375 0.318855
380 0.297454
385 0.394218
390 0.423945
395 0.558364
400 7.53062
405 124.441
410 195.374
415 50.965
420 7.91924
425 2.9153
430 2.94166
435 3.37549
440 3.46228
445 3.61594
450 4.12212
455 4.9233
460 6.65498
465 9.03704
470 8.83735
475 8.44064
480 8.49321
485 8.65179
490 8.23304
495 8.90886
500 8.51287
505 8.13275
510 7.69578
515 7.37414
520 6.83855
525 6.69173
530 6.1735
535 5.48473
540 5.15584
545 4.51471
550 4.3083
555 3.96544
560 3.42948
565 2.81364
570 2.63145
575 2.1451
580 1.80911
585 1.41665
590 1.19047
595 1.06918
600 0.507358
Ex : 418
200 0.222846
205 0.253549
210 0.275079
215 0.249435
220 0.270835
225 0.217504
230 0.199487
235 0.205204
240 0.221891
245 0.210572
250 0.192308
255 0.184719
260 0.201328
265 0.212831
270 0.232586
275 0.194492
280 0.227553
285 0.24666
290 0.204218
295 0.202738
300 0.220551
305 0.193549
310 0.233804
315 0.199912
320 0.271831
325 0.245871
330 0.248195
335 0.237386
340 0.229219
345 0.275018
350 0.294299
355 0.210341
360 0.261483
365 0.232371
370 0.254693
375 0.259452
380 0.314943
385 0.311023
390 0.387363
395 0.411297
400 0.615551
405 7.39426
410 126.615
415 203.167
420 54.4508
425 8.0251
430 2.69423
435 2.47438
440 2.90013
445 3.28686
450 3.46
455 4.01983
460 4.8099
465 6.10318
470 8.53436
475 9.52669
480 8.68059
485 8.64659
490 8.48629
495 8.37246
500 8.22835
505 7.91218
510 7.61456
515 7.356
520 6.68358
525 6.46786
530 6.06193
535 5.55856
540 5.17939
545 4.54037
550 4.34948
555 3.87523
560 3.46515
565 2.98133
570 2.70294
575 2.22894
580 1.75228
585 1.46463
590 1.16655
595 1.01762
600 0.925456
Ex : 423
200 0.237775
205 0.196591
210 0.157694
215 0.222599
220 0.189005
225 0.208044
230 0.243103
235 0.212313
240 0.180037
245 0.185919
250 0.243771
255 0.263926
260 0.225032
265 0.220436
270 0.203218
275 0.184512
280 0.231819
285 0.20478
290 0.252522
295 0.218323
300 0.248446
305 0.206267
310 0.232049
315 0.250254
320 0.23319
325 0.243551
330 0.254419
335 0.218528
340 0.26166
345 0.241438
350 0.206535
355 0.215839
360 0.286369
365 0.266304
370 0.279608
375 0.280364
380 0.250646
385 0.29317
390 0.339486
395 0.364391
400 0.36492
405 0.567132
410 7.77425
415 134.142
420 205.353
425 52.8337
430 7.61638
435 2.55152
440 2.31783
445 2.78781
450 3.4539
455 3.71916
460 4.28857
465 5.05244
470 5.93538
475 8.28258
480 9.2489
485 8.71122
490 8.61125
495 8.17631
500 7.71243
505 7.90648
510 7.30717
515 6.68254
520 6.55031
525 6.04604
530 5.69905
535 5.46163
540 5.1099
545 4.34843
550 4.08249
555 3.70562
560 3.3109
565 2.87517
570 2.56195
575 2.13548
580 1.7179
585 1.33548
590 1.16308
595 0.906292
600 0.371592
Ex : 428
200 0.257519
205 0.240668
210 0.240947
215 0.250268
220 0.29672
225 0.227173
230 0.234166
235 0.234304
240 0.278224
245 0.241654
250 0.209061
255 0.281379
260 0.246345
265 0.324313
270 0.326827
275 0.27891
280 0.269006
285 0.243627
290 0.224595
295 0.24392
300 0.22524
305 0.238148
310 0.25935
315 0.266192
320 0.236123
325 0.214373
330 0.2836
335 0.185347
340 0.250494
345 0.238847
350 0.223931
355 0.247193
360 0.263257
365 0.235403
370 0.230619
375 0.325018
380 0.298676
385 0.284111
390 0.25447
395 0.322245
400 0.344497
405 0.411776
410 0.59994
415 8.587
420 135.193
425 213.426
430 55.7278
435 7.90922
440 2.56013
445 2.32754
450 2.95553
455 3.42275
460 3.94238
465 4.3293
470 5.07052
475 5.83629
480 7.48459
485 9.16599
490 8.28971
495 8.12073
500 7.80792
505 7.41259
510 6.73418
515 6.54552
520 6.40585
525 5.86813
530 5.62998
535 5.16807
540 4.9043
545 4.52637
550 4.12684
555 3.51863
560 3.4248
565 2.84446
570 2.51296
575 2.07122
580 1.50879
585 1.31194
590 1.07968
595 0.979384
600 1.22741
Ex : 433
200 0.267267
205 0.271633
210 0.256966
215 0.183169
220 0.209288
225 0.215008
230 0.184404
235 0.259196
240 0.20107
245 0.275099
250 0.222718
255 0.257658
260 0.191592
265 0.334975
270 0.237107
275 0.245526
280 0.348956
285 0.21143
290 0.233302
295 0.214137
300 0.252857
305 0.264703
310 0.26565
315 0.260795
320 0.230848
325 0.167532
330 0.207661
335 0.288024
340 0.224241
345 0.242888
350 0.26782
355 0.192728
360 0.280731
365 0.241127
370 0.320382
375 0.304759
380 0.26679
385 0.240204
390 0.247634
395 0.226115
400 0.29665
405 0.365132
410 0.395989
415 0.634349
420 9.93851
425 156.659
430 225.17
435 55.8973
440 8.23324
445 2.92127
450 2.52931
455 3.25701
460 3.84536
465 4.29967
470 4.6277
475 4.9271
480 5.82928
485 7.05386
490 8.8115
495 8.54958
500 7.38746
505 7.04883
510 6.71669
515 6.01346
520 5.84096
525 5.335
530 5.0304
535 4.73299
540 4.75265
545 4.18022
550 3.69777
555 3.71836
560 3.06965
565 2.46348
570 2.39983
575 2.17791
580 1.63736
585 1.2496
590 1.1019
595 0.99489
600 0.554804
Ex : 438
200 0.216967
205 0.161549
210 0.249549
215 0.236135
220 0.272423
225 0.260088
230 0.27055
235 0.195641
240 0.209885
245 0.225176
250 0.224373
255 0.255098
260 0.189543
265 0.26158
270 0.222897
275 0.226439
280 0.229577
285 0.280512
290 0.235193
295 0.191982
300 0.230711
305 0.218002
310 0.304654
315 0.229656
320 0.295536
325 0.236512
330 0.275774
335 0.282211
340 0.257805
345 0.25794
350 0.278359
355 0.213328
360 0.274945
365 0.216772
370 0.255404
375 0.254613
380 0.271585
385 0.280946
390 0.231638
395 0.312449
400 0.289258
405 0.333216
410 0.338418
415 0.430979
420 0.603915
425 9.03806
430 149.695
435 234.007
440 59.6035
445 8.4358
450 3.04311
455 2.70513
460 3.23172
465 4.16878
470 4.21652
475 4.75966
480 5.0657
485 5.52083
490 6.23929
495 8.08987
500 8.34763
505 6.95548
510 6.59048
515 6.11382
520 5.442
525 4.99868
530 4.83733
535 4.36302
540 4.22686
545 3.78238
550 3.3038
555 3.08148
560 2.64356
565 2.50786
570 2.20502
575 1.95099
580 1.55419
585 1.26372
590 1.06902
595 0.800296
600 1.16824
Ex : 443
200 0.289666
205 0.208557
210 0.208416
215 0.200434
220 0.262376
225 0.233699
230 0.227229
235 0.291018
240 0.247532
245 0.245201
250 0.187317
255 0.212258
260 0.230287
265 0.272729
270 0.285038
275 0.249931
280 0.262475
285 0.24283
290 0.246469
295 0.272254
300 0.178998
305 0.234406
310 0.223048
315 0.281926
320 0.223293
325 0.272081
330 0.243874
335 0.195804
340 0.235163
345 0.247214
350 0.280164
355 0.242976
360 0.246064
365 0.277939
370 0.288497
375 0.28387
380 0.274417
385 0.233809
390 0.323849
395 0.291679
400 0.230642
405 0.279292
410 0.322629
415 0.321846
420 0.438683
425 0.537118
430 10.4671
435 160.527
440 239.635
445 59.713
450 8.67276
455 3.13088
460 2.68826
465 3.40261
470 3.82756
475 4.28579
480 4.58993
485 4.80132
490 5.16506
495 5.34194
500 6.49525
505 7.6153
510 6.26095
515 5.72341
520 5.1745
525 4.71859
530 4.20626
535 4.03917
540 3.79656
545 3.52152
550 3.24283
555 2.92308
560 2.61986
565 2.32257
570 2.07642
575 1.75311
580 1.32694
585 1.13941
590 0.871854
595 0.815345
600 0.918079
Ex : 448
200 0.240667
205 0.238911
210 0.266217
215 0.264859
220 0.195079
225 0.227328
230 0.241093
235 0.261156
240 0.276368
245 0.261492
250 0.239805
255 0.324772
260 0.341109
265 0.220228
270 0.233957
275 0.213985
280 0.182783
285 0.210007
290 0.327808
295 0.183389
300 0.22698
305 0.26866
310 0.284603
315 0.2437
320 0.324734
325 0.290549
330 0.245849
335 0.242581
340 0.235905
345 0.289446
350 0.243784
355 0.260733
360 0.228977
365 0.329555
370 0.182581
375 0.221933
380 0.242728
385 0.345923
390 0.242945
395 0.298313
400 0.293906
405 0.285373
410 0.32342
415 0.35951
420 0.373283
425 0.3852
430 0.582913
435 11.0286
440 170.392
445 251.807
450 62.1956
455 9.07455
460 3.16625
465 2.91064
470 3.37206
475 3.88022
480 4.15407
485 3.97165
490 4.35477
495 4.38525
500 4.63329
505 5.50817
510 6.61798
515 6.07882
520 5.00095
525 4.84233
530 4.32576
535 3.9322
540 3.46472
545 3.32735
550 3.02401
555 2.67356
560 2.352
565 2.1729
570 2.02671
575 1.65008
580 1.35474
585 1.09329
590 0.991654
595 0.804404
600 0.832562
Ex : 453
200 0.224155
205 0.230463
210 0.296573
215 0.200842
220 0.175067
225 0.2557
230 0.192964
235 0.26144
240 0.252663
245 0.212325
250 0.213132
255 0.241512
260 0.249582
265 0.157545
270 0.223385
275 0.226462
280 0.204676
285 0.305543
290 0.240819
295 0.290788
300 0.193612
305 0.292396
310 0.228627
315 0.220033
320 0.204769
325 0.262833
330 0.252995
335 0.233256
340 0.265806
345 0.222644
350 0.211851
355 0.261483
360 0.23933
365 0.217312
370 0.199273
375 0.249755
380 0.241835
385 0.237543
390 0.22818
395 0.254068
400 0.246086
405 0.271664
410 0.303708
415 0.253555
420 0.314999
425 0.35245
430 0.417905
435 0.642783
440 11.3381
445 185.433
450 262.782
455 61.6854
460 9.00757
465 3.25935
470 2.73565
475 3.17977
480 3.50844
485 3.66633
490 3.65396
495 3.85995
500 3.58087
505 3.93487
510 4.33449
515 5.61906
520 5.45169
525 4.42018
530 4.04067
535 3.68833
540 3.34639
545 3.06414
550 2.73367
555 2.52388
560 2.22194
565 1.91716
570 1.84405
575 1.62268
580 1.29977
585 1.02466
590 0.846785
595 0.709459
600 0.783387
Ex : 458
200 0.242238
205 0.231469
210 0.214276
215 0.247521
220 0.26063
225 0.290265
230 0.289767
235 0.312783
240 0.300335
245 0.253897
250 0.242779
255 0.326136
260 0.318316
265 0.312807
270 0.287849
275 0.276771
280 0.282679
285 0.310123
290 0.213217
295 0.238339
300 0.188347
305 0.265785
310 0.285334
315 0.235078
320 0.262721
325 0.229405
330 0.259294
335 0.258436
340 0.246134
345 0.268662
350 0.291627
355 0.333245
360 0.234738
365 0.274148
370 0.259936
375 0.260026
380 0.264414
385 0.260932
390 0.271152
395 0.237786
400 0.336948
405 0.227887
410 0.309688
415 0.253709
420 0.307485
425 0.335769
430 0.355408
435 0.395011
440 0.774824
445 13.2905
450 190.155
455 270.578
460 65.9003
465 9.36478
470 3.14102
475 2.65105
480 2.86162
485 3.43487
490 3.35702
495 3.26707
500 3.37101
505 3.13606
510 3.20947
515 3.57129
520 4.44716
525 5.32494
530 4.14623
535 3.52975
540 3.18613
545 3.13048
550 2.64453
555 2.33725
560 2.10678
565 1.83685
570 1.67458
575 1.45741
580 1.18936
585 0.983039
590 0.924723
595 0.785182
600 0.931096
Ex : 463
200 0.270485
205 0.241511
210 0.196455
215 0.192602
220 0.209716
225 0.195107
230 0.242069
235 0.226546
240 0.233151
245 0.184868
250 0.222274
255 0.234678
260 0.181999
265 0.210769
270 0.218816
275 0.310038
280 0.363245
285 0.195069
290 0.240593
295 0.210371
300 0.214395
305 0.25024
310 0.261565
315 0.254042
320 0.246463
325 0.256764
330 0.257461
335 0.252813
340 0.246354
345 0.217049
350 0.270435
355 0.226677
360 0.224054
365 0.276188
370 0.239893
375 0.255683
380 0.310421
385 0.260546
390 0.239226
395 0.259901
400 0.218664
405 0.2205
410 0.278436
415 0.276936
420 0.271987
425 0.313472
430 0.309475
435 0.382557
440 0.491363
445 0.758167
450 12.5381
455 200.891
460 300.737
465 71.9716
470 10.1935
475 3.18923
480 2.47751
485 2.59388
490 2.94253
495 2.97898
500 2.87456
505 2.75405
510 2.87988
515 2.92159
520 2.92573
525 3.75759
530 4.73379
535 4.21225
540 3.30365
545 3.05389
550 2.72671
555 2.27262
560 2.07037
565 1.86138
570 1.61092
575 1.43442
580 1.22811
585 0.979115
590 0.775624
595 0.72848
600 0.798518
Ex : 468
200 0.189767
205 0.246595
210 0.234562
215 0.211738
220 0.213893
225 0.189872
230 0.197781
235 0.245573
240 0.228383
245 0.218951
250 0.190622
255 0.222901
260 0.202367
265 0.198888
270 0.223117
275 0.175506
280 0.222428
285 0.221496
290 0.202817
295 0.184273
300 0.239185
305 0.205541
310 0.265464
315 0.240315
320 0.246193
325 0.233992
330 0.201529
335 0.246378
340 0.260918
345 0.21835
350 0.278254
355 0.26167
360 0.226937
365 0.272834
370 0.242794
375 0.230702
380 0.220392
385 0.249245
390 0.287225
395 0.257798
400 0.254511
405 0.24011
410 0.21305
415 0.208104
420 0.283589
425 0.229412
430 0.320439
435 0.358802
440 0.312749
445 0.454515
450 0.629946
455 13.4896
460 202.318
465 305.174
470 73.5822
475 10.0203
480 2.97707
485 2.19649
490 2.20538
495 2.61892
500 2.78359
505 2.70082
510 2.51136
515 2.45356
520 2.59718
525 2.55321
530 3.01682
535 4.16742
540 3.91405
545 3.01486
550 2.68999
555 2.31617
560 2.02226
565 1.70632
570 1.49136
575 1.31537
580 1.09827
585 1.04539
590 0.805231
595 0.650723
600 0.377749
Ex : 473
200 0.234907
205 0.260988
210 0.204624
215 0.305927
220 0.243741
225 0.215927
230 0.206407
235 0.207535
240 0.217446
245 0.180863
250 0.220144
255 0.215066
260 0.25256
265 0.199983
270 0.195415
275 0.193656
280 0.185279
285 0.229337
290 0.213737
295 0.201142
300 0.26074
305 0.21557
310 0.193437
315 0.214367
320 0.198506
325 0.268959
330 0.212987
335 0.235523
340 0.252906
345 0.276591
350 0.33603
355 0.268842
360 0.312823
365 0.247261
370 0.281429
375 0.243769
380 0.246615
385 0.292941
390 0.266891
395 0.227327
400 0.24502
405 0.217924
410 0.209356
415 0.302633
420 0.366302
425 0.318057
430 0.298022
435 0.243334
440 0.308227
445 0.374732
450 0.500078
455 0.686358
460 15.2861
465 216.265
470 293.702
475 67.4207
480 9.35613
485 2.93946
490 2.1108
495 2.03337
500 2.41151
505 2.46895
510 2.48138
515 2.2638
520 2.56224
525 2.47997
530 2.49987
535 2.61915
540 3.446
545 3.83272
550 3.15613
555 2.45074
560 2.25703
565 1.97693
570 1.55516
575 1.26699
580 1.08605
585 1.01773
590 0.785253
595 0.768498
600 0.448302
Ex : 478
200 0.298848
205 0.263326
210 0.265858
215 0.281533
220 0.23727
225 0.263296
230 0.329183
235 0.301649
240 0.327137
245 0.26107
250 0.30673
255 0.307337
260 0.257784
265 0.218188
270 0.287991
275 0.324304
280 0.337671
285 0.257131
290 0.341519
295 0.261674
300 0.251503
305 0.286156
310 0.253378
315 0.259246
320 0.309051
325 0.276581
330 0.23437
335 0.282333
340 0.302221
345 0.229888
350 0.359227
355 0.290752
360 0.26614
365 0.306342
370 0.276123
375 0.247779
380 0.312658
385 0.278391
390 0.259788
395 0.273163
400 0.258297
405 0.411869
410 0.280956
415 0.304602
420 0.305206
425 0.270716
430 0.367057
435 0.307654
440 0.363254
445 0.37316
450 0.408586
455 0.5769
460 0.858129
465 15.9525
470 218.136
475 299.387
480 71.8936
485 9.72321
490 2.80883
495 1.999
500 1.87674
505 2.35252
510 2.24383
515 2.2357
520 2.2213
525 2.34026
530 2.3549
535 2.18063
540 2.15632
545 2.85504
550 3.65909
555 3.14655
560 2.1355
565 1.93724
570 1.75619
575 1.57021
580 1.22555
585 0.962731
590 0.878119
595 0.772599
600 0.68846
Ex : 483
200 0.30853
205 0.282136
210 0.309823
215 0.338335
220 0.287768
225 0.2852
230 0.258738
235 0.212753
240 0.254747
245 0.270702
250 0.251991
255 0.295131
260 0.23833
265 0.24197
270 0.287713
275 0.277411
280 0.222647
285 0.22888
290 0.274226
295 0.311703
300 0.249541
305 0.250082
310 0.350471
315 0.256256
320 0.265728
325 0.295847
330 0.303225
335 0.354323
340 0.318097
345 0.31419
350 0.314705
355 0.280317
360 0.272104
365 0.277447
370 0.336094
375 0.254724
380 0.250441
385 0.283556
390 0.231476
395 0.285179
400 0.362599
405 0.300912
410 0.341384
415 0.27501
420 0.299762
425 0.333678
430 0.318396
435 0.382437
440 0.323678
445 0.383793
450 0.444831
455 0.380428
460 0.64669
465 0.886633
470 12.9765
475 220.19
480 319.358
485 75.6624
490 10.0637
495 2.73649
500 1.88322
505 1.69463
510 1.93942
515 2.3
520 2.22184
525 2.16445
530 2.18833
535 2.08189
540 2.08298
545 1.95173
550 2.32067
555 3.02549
560 2.89478
565 2.17093
570 1.8053
575 1.50569
580 1.27317
585 0.961025
590 0.788508
595 0.699331
600 1.07817
Ex : 488
200 0.350627
205 0.350657
210 0.365625
215 0.263094
220 0.257815
225 0.267981
230 0.26867
235 0.274233
240 0.30046
245 0.280825
250 0.253807
255 0.323061
260 0.293349
265 0.276234
270 0.277283
275 0.322271
280 0.262347
285 0.340327
290 0.279431
295 0.272805
300 0.333592
305 0.354232
310 0.297069
315 0.315202
320 0.322198
325 0.346021
330 0.319648
335 0.289576
340 0.254418
345 0.304707
350 0.319864
355 0.308952
360 0.313393
365 0.406235
370 0.349604
375 0.348043
380 0.278147
385 0.272031
390 0.252635
395 0.307668
400 0.330015
405 0.316102
410 0.405294
415 0.290679
420 0.326373
425 0.319711
430 0.29372
435 0.390001
440 0.338332
445 0.339137
450 0.456864
455 0.407053
460 0.468689
465 0.603207
470 0.779767
475 14.8065
480 232.594
485 313.574
490 74.1162
495 9.89006
500 2.57877
505 1.93572
510 1.69022
515 1.83066
520 2.32609
525 2.38902
530 2.25417
535 2.13132
540 1.98589
545 1.93244
550 1.96774
555 1.80224
560 2.57278
565 2.83381
570 2.28395
575 1.62148
580 1.36661
585 0.957396
590 0.892641
595 0.821075
600 0.979639
Ex : 493
200 0.197633
205 0.23987
210 0.294603
215 0.33374
220 0.299335
225 0.286027
230 0.230082
235 0.250901
240 0.312822
245 0.293964
250 0.246502
255 0.229835
260 0.238405
265 0.288857
270 0.276022
275 0.309135
280 0.343186
285 0.260286
290 0.291211
295 0.234448
300 0.232888
305 0.279167
310 0.400174
315 0.345032
320 0.373885
325 0.289798
330 0.359035
335 0.301545
340 0.347681
345 0.354828
350 0.331858
355 0.323434
360 0.357025
365 0.269908
370 0.268169
375 0.273301
380 0.297999
385 0.317493
390 0.354762
395 0.326488
400 0.386968
405 0.370657
410 0.376943
415 0.372012
420 0.42566
425 0.347115
430 0.390124
435 0.319112
440 0.483831
445 0.391977
450 0.31405
455 0.431283
460 0.394356
465 0.489673
470 0.629438
475 0.701514
480 14.2506
485 226.015
490 325.373
495 75.3351
500 10.0846
505 2.57136
510 1.83498
515 1.72349
520 1.93506
525 2.21191
530 2.2324
535 1.98649
540 2.13876
545 1.94149
550 1.87345
555 1.85401
560 1.72094
565 1.90872
570 2.24123
575 2.06327
580 1.43357
585 1.19961
590 1.01745
595 0.867368
600 1.20201
Ex : 498
200 0.291913
205 0.261822
210 0.349002
215 0.283001
220 0.350657
225 0.303444
230 0.323339
235 0.333743
240 0.356115
245 0.322494
250 0.301662
255 0.347858
260 0.308255
265 0.315265
270 0.333284
275 0.351271
280 0.347992
285 0.329802
290 0.344819
295 0.343621
300 0.35884
305 0.322599
310 0.329202
315 0.308296
320 0.371356
325 0.353168
330 0.318694
335 0.356681
340 0.324366
345 0.353903
350 0.38091
355 0.391966
360 0.374
365 0.337112
370 0.417218
375 0.319954
380 0.349027
385 0.331805
390 0.320629
395 0.381048
400 0.282498
405 0.304789
410 0.276513
415 0.452694
420 0.442788
425 0.320378
430 0.458018
435 0.373289
440 0.380202
445 0.318509
450 0.379194
455 0.535507
460 0.40098
465 0.501855
470 0.554412
475 0.594605
480 0.784325
485 17.2358
490 239.083
495 314.302
500 72.9351
505 9.72196
510 2.69526
515 1.97664
520 1.85254
525 1.97851
530 2.11911
535 2.18194
540 2.10899
545 1.72247
550 1.74186
555 1.73769
560 1.66698
565 1.47422
570 1.52697
575 1.91002
580 1.87462
585 1.40046
590 1.17001
595 0.937468
600 1.72361
Ex : 503
200 0.314522
205 0.32112
210 0.354695
215 0.380664
220 0.368203
225 0.389041
230 0.303378
235 0.34864
240 0.293961
245 0.35213
250 0.399057
255 0.356253
260 0.339689
265 0.390492
270 0.316922
275 0.317405
280 0.449814
285 0.383941
290 0.384624
295 0.415038
300 0.327036
305 0.308738
310 0.277627
315 0.380064
320 0.439833
325 0.37207
330 0.411845
335 0.302067
340 0.371481
345 0.421846
350 0.328767
355 0.363914
360 0.312754
365 0.327884
370 0.342045
375 0.299072
380 0.336187
385 0.320513
390 0.315372
395 0.357397
400 0.481221
405 0.333625
410 0.438559
415 0.441382
420 0.335125
425 0.357854
430 0.401305
435 0.377518
440 0.444956
445 0.391251
450 0.371939
455 0.524508
460 0.362812
465 0.381426
470 0.492769
475 0.560303
480 0.685284
485 0.761094
490 15.1872
495 238.843
500 330.547
505 76.1276
510 10.2293
515 2.73197
520 2.00143
525 1.88303
530 2.00849
535 2.11394
540 2.16038
545 2.25936
550 1.8526
555 1.61059
560 1.43681
565 1.5687
570 1.47327
575 1.37845
580 1.39646
585 1.76402
590 1.18287
595 0.975993
600 0.497466
Ex : 508
200 0.363531
205 0.468738
210 0.325334
215 0.317863
220 0.469042
225 0.364468
230 0.383931
235 0.440248
240 0.307114
245 0.3983
250 0.314038
255 0.406923
260 0.368363
265 0.446616
270 0.380664
275 0.461019
280 0.395539
285 0.413846
290 0.385666
295 0.436267
300 0.433684
305 0.323218
310 0.281697
315 0.401047
320 0.308537
325 0.451891
330 0.404009
335 0.398221
340 0.412413
345 0.404407
350 0.4671
355 0.396504
360 0.371486
365 0.333752
370 0.321137
375 0.39693
380 0.420169
385 0.419771
390 0.387728
395 0.401392
400 0.474066
405 0.377794
410 0.317628
415 0.439655
420 0.34345
425 0.434037
430 0.376569
435 0.42261
440 0.452503
445 0.387683
450 0.423458
455 0.343486
460 0.414949
465 0.46303
470 0.592436
475 0.432865
480 0.573844
485 0.981477
490 0.875818
495 17.1346
500 238.144
505 327.403
510 79.2143
515 10.7455
520 2.82893
525 1.89727
530 2.02659
535 1.85332
540 2.03022
545 1.90021
550 1.6902
555 1.49665
560 1.48749
565 1.44667
570 1.38787
575 1.23534
580 1.08882
585 1.10679
590 1.31763
595 1.19844
600 1.23873
Ex : 513
200 0.450048
205 0.318424
210 0.443531
215 0.303658
220 0.408971
225 0.403302
230 0.331686
235 0.326875
240 0.322676
245 0.397872
250 0.400786
255 0.416482
260 0.404334
265 0.431675
270 0.47344
275 0.438453
280 0.394719
285 0.377472
290 0.384575
295 0.432724
300 0.337261
305 0.432805
310 0.410803
315 0.382622
320 0.341224
325 0.341274
330 0.335172
335 0.338571
340 0.45731
345 0.466584
350 0.392516
355 0.432774
360 0.398701
365 0.37949
370 0.42967
375 0.366421
380 0.376633
385 0.346889
390 0.292661
395 0.345797
400 0.36407
405 0.42339
410 0.397856
415 0.354734
420 0.380354
425 0.387013
430 0.46463
435 0.421778
440 0.497105
445 0.392166
450 0.509219
455 0.491717
460 0.41245
465 0.56753
470 0.4729
475 0.468506
480 0.535332
485 0.663371
490 0.722898
495 0.910122
500 15.3694
505 239.479
510 339.338
515 82.3735
520 11.2162
525 2.79686
530 2.10782
535 1.84876
540 1.57768
545 1.90271
550 1.81706
555 1.75156
560 1.40303
565 1.46237
570 1.19038
575 1.3245
580 0.963496
585 0.835019
590 0.878467
595 1.12593
600 1.1133
Ex : 518
200 0.459526
205 0.446677
210 0.367552
215 0.373768
220 0.443848
225 0.348297
230 0.391557
235 0.407803
240 0.365745
245 0.308751
250 0.391138
255 0.470886
260 0.401878
265 0.353184
270 0.406354
275 0.356905
280 0.384706
285 0.40978
290 0.4336
295 0.365029
300 0.347412
305 0.389543
310 0.31631
315 0.344619
320 0.398306
325 0.405055
330 0.318072
335 0.362041
340 0.306949
345 0.370094
350 0.347023
355 0.381752
360 0.366485
365 0.388629
370 0.385598
375 0.400379
380 0.361992
385 0.286241
390 0.391004
395 0.356914
400 0.407057
405 0.445475
410 0.304398
415 0.310656
420 0.362293
425 0.472976
430 0.414569
435 0.467893
440 0.47084
445 0.429973
450 0.451208
455 0.49687
460 0.41996
465 0.473936
470 0.458966
475 0.512007
480 0.395735
485 0.510653
490 0.589986
495 0.69526
500 0.88753
505 15.9138
510 230.596
515 332.105
520 81.9354
525 10.9346
530 2.72403
535 1.75971
540 1.53811
545 1.72052
550 1.67232
555 1.67741
560 1.5698
565 1.44631
570 1.17039
575 1.16753
580 0.903324
585 0.889609
590 0.999201
595 0.838451
600 0.85764
Ex : 523
200 0.531349
205 0.350475
210 0.348062
215 0.344498
220 0.358118
225 0.314376
230 0.316872
235 0.438412
240 0.389732
245 0.419562
250 0.446707
255 0.349735
260 0.434111
265 0.348256
270 0.426662
275 0.437426
280 0.524228
285 0.460949
290 0.553575
295 0.495264
300 0.413751
305 0.381252
310 0.415961
315 0.411895
320 0.366713
325 0.392591
330 0.403147
335 0.332175
340 0.358998
345 0.446977
350 0.35087
355 0.482172
360 0.41589
365 0.397311
370 0.392637
375 0.354487
380 0.479286
385 0.370252
390 0.373448
395 0.499558
400 0.502056
405 0.344281
410 0.356175
415 0.323631
420 0.408257
425 0.453194
430 0.421411
435 0.457971
440 0.50271
445 0.553923
450 0.430914
455 0.434066
460 0.456067
465 0.455754
470 0.429367
475 0.477452
480 0.394082
485 0.489544
490 0.536611
495 0.64871
500 0.740236
505 0.910767
510 14.4711
515 221.049
520 331.319
525 84.6042
530 11.2003
535 2.73233
540 1.65822
545 1.43631
550 1.31761
555 1.41083
560 1.35935
565 1.53181
570 1.26329
575 1.1936
580 1.12693
585 0.980259
590 0.877941
595 0.83875
600 0.752953
Ex : 528
200 0.515917
205 0.354542
210 0.403871
215 0.396755
220 0.373093
225 0.404723
230 0.432619
235 0.395428
240 0.422608
245 0.373763
250 0.33277
255 0.471337
260 0.389592
265 0.419709
270 0.432679
275 0.383135
280 0.300598
285 0.398567
290 0.456757
295 0.379332
300 0.394401
305 0.286595
310 0.445579
315 0.345833
320 0.398972
325 0.446172
330 0.404711
335 0.584132
340 0.482407
345 0.446332
350 0.451137
355 0.479363
360 0.432493
365 0.42705
370 0.408389
375 0.352337
380 0.434186
385 0.403443
390 0.395017
395 0.368906
400 0.391921
405 0.499096
410 0.372354
415 0.482201
420 0.435796
425 0.416321
430 0.387724
435 0.354305
440 0.498393
445 0.42885
450 0.373821
455 0.451809
460 0.414171
465 0.386383
470 0.493421
475 0.465708
480 0.443006
485 0.465048
490 0.490069
495 0.512169
500 0.682069
505 0.726701
510 0.920463
515 13.9179
520 216.148
525 320.352
530 81.1877
535 10.7248
540 2.61292
545 1.55645
550 1.36536
555 1.21764
560 1.39685
565 1.27164
570 1.31947
575 1.07381
580 0.987975
585 0.889676
590 0.843417
595 0.754264
600 0.604825
Ex : 533
200 0.301299
205 0.555789
210 0.383992
215 0.322716
220 0.372448
225 0.38309
230 0.383577
235 0.435717
240 0.360909
245 0.42049
250 0.4513
255 0.42361
260 0.542932
265 0.413951
270 0.369749
275 0.436391
280 0.348576
285 0.422874
290 0.472477
295 0.391529
300 0.346445
305 0.369118
310 0.458741
315 0.373302
320 0.380862
325 0.401604
330 0.396674
335 0.479132
340 0.463428
345 0.389286
350 0.507526
355 0.453669
360 0.405308
365 0.433426
370 0.424671
375 0.47005
380 0.49483
385 0.496202
390 0.396449
395 0.392764
400 0.436228
405 0.389984
410 0.442056
415 0.450541
420 0.406212
425 0.408492
430 0.452121
435 0.496004
440 0.364862
445 0.49988
450 0.487018
455 0.446608
460 0.388418
465 0.44131
470 0.476136
475 0.453016
480 0.445298
485 0.521154
490 0.447985
495 0.548382
500 0.534171
505 0.570859
510 0.693583
515 0.86311
520 13.5004
525 213.032
530 324.709
535 84.0469
540 11.0349
545 2.52573
550 1.53641
555 1.28756
560 1.11664
565 1.15135
570 1.22589
575 1.2071
580 1.10969
585 0.841491
590 0.89704
595 0.806979
600 1.26504
Ex : 538
200 0.388967
205 0.388877
210 0.402665
215 0.377914
220 0.548959
225 0.500762
230 0.453381
235 0.401361
240 0.434509
245 0.434958
250 0.490592
255 0.352111
260 0.393375
265 0.498805
270 0.344596
275 0.335653
280 0.35923
285 0.417494
290 0.458486
295 0.350966
300 0.471378
305 0.343277
310 0.455086
315 0.418049
320 0.545575
325 0.444874
330 0.467907
335 0.374291
340 0.391528
345 0.412978
350 0.412575
355 0.43059
360 0.36936
365 0.393488
370 0.37624
375 0.364435
380 0.460942
385 0.392564
390 0.423237
395 0.54054
400 0.425615
405 0.408183
410 0.420235
415 0.506298
420 0.509439
425 0.4837
430 0.394962
435 0.435342
440 0.382353
445 0.47848
450 0.506065
455 0.480606
460 0.407989
465 0.456071
470 0.504562
475 0.576333
480 0.589023
485 0.489515
490 0.425847
495 0.408334
500 0.552546
505 0.554963
510 0.681581
515 0.641052
520 0.866401
525 11.5699
530 209.167
535 323.585
540 86.5057
545 11.1759
550 2.38827
555 1.45002
560 1.06168
565 1.22259
570 1.0456
575 1.21016
580 0.955446
585 0.905018
590 0.824754
595 0.875129
600 1.17867
Ex : 543
200 0.354137
205 0.49113
210 0.432525
215 0.446869
220 0.45121
225 0.418828
230 0.392686
235 0.468635
240 0.434033
245 0.475315
250 0.394551
255 0.310798
260 0.4212
265 0.402618
270 0.415733
275 0.457756
280 0.355589
285 0.396102
290 0.621371
295 0.420324
300 0.35202
305 0.515557
310 0.394059
315 0.434264
320 0.422414
325 0.324757
330 0.360878
335 0.51608
340 0.465871
345 0.404787
350 0.335672
355 0.517656
360 0.430997
365 0.533547
370 0.387858
375 0.404418
380 0.4314
385 0.483617
390 0.45703
395 0.482343
400 0.427329
405 0.552419
410 0.39672
415 0.537853
420 0.546428
425 0.530074
430 0.522598
435 0.466017
440 0.409996
445 0.580335
450 0.39488
455 0.463075
460 0.413306
465 0.546177
470 0.449843
475 0.557063
480 0.463024
485 0.520571
490 0.417262
495 0.470082
500 0.624747
505 0.492825
510 0.683512
515 0.649122
520 0.794681
525 0.900848
530 10.9945
535 194.093
540 318.843
545 88.5954
550 11.4751
555 2.39665
560 1.32011
565 1.16775
570 1.00736
575 1.03291
580 0.96097
585 0.920247
590 0.694876
595 0.775423
600 1.65244
Ex : 548
200 0.415468
205 0.321353
210 0.357809
215 0.479111
220 0.603957
225 0.508783
230 0.483254
235 0.361114
240 0.450438
245 0.575178
250 0.4602
255 0.583721
260 0.449613
265 0.574061
270 0.532749
275 0.425119
280 0.443065
285 0.535228
290 0.470555
295 0.511578
300 0.366028
305 0.488865
310 0.466463
315 0.396581
320 0.452025
325 0.462016
330 0.502366
335 0.530119
340 0.458925
345 0.482984
350 0.465861
355 0.356911
360 0.397064
365 0.468335
370 0.507476
375 0.480722
380 0.413541
385 0.416576
390 0.479534
395 0.538786
400 0.532798
405 0.52506
410 0.459126
415 0.467125
420 0.549415
425 0.579529
430 0.379117
435 0.539501
440 0.472963
445 0.518793
450 0.52787
455 0.511061
460 0.48208
465 0.627789
470 0.523404
475 0.450869
480 0.548151
485 0.56198
490 0.462172
495 0.518982
500 0.447702
505 0.400761
510 0.504421
515 0.497883
520 0.708036
525 0.949428
530 0.880578
535 11.9713
540 194.91
545 311.042
550 85.7982
555 11.0995
560 2.3015
565 1.24603
570 1.08049
575 1.03372
580 0.989897
585 0.782951
590 0.975168
595 0.823229
600 0.750128
Ex : 553
200 0.465869
205 0.48973
210 0.445993
215 0.484758
220 0.446278
225 0.478027
230 0.472956
235 0.458148
240 0.554591
245 0.509989
250 0.442139
255 0.456013
260 0.513892
265 0.489233
270 0.468594
275 0.576561
280 0.453658
285 0.458552
290 0.446534
295 0.511393
300 0.483518
305 0.518439
310 0.54779
315 0.423807
320 0.41668
325 0.544265
330 0.443503
335 0.479688
340 0.606008
345 0.524186
350 0.548722
355 0.513089
360 0.473055
365 0.550921
370 0.554543
375 0.554805
380 0.588404
385 0.563331
390 0.717155
395 0.47933
400 0.457304
405 0.496371
410 0.414488
415 0.421625
420 0.475305
425 0.431975
430 0.523019
435 0.520344
440 0.501294
445 0.5054
450 0.497247
455 0.591483
460 0.416174
465 0.602828
470 0.472379
475 0.543788
480 0.54969
485 0.593563
490 0.525714
495 0.504768
500 0.54882
505 0.400231
510 0.471628
515 0.506266
520 0.64532
525 0.691615
530 0.712765
535 0.846151
540 10.5962
545 186.866
550 315.719
555 89.1655
560 11.3524
565 2.25886
570 1.29228
575 1.04986
580 0.988375
585 0.876827
590 0.93009
595 0.896879
600 0.970774
Ex : 558
200 0.422742
205 0.54098
210 0.44841
215 0.432805
220 0.422851
225 0.394544
230 0.517119
235 0.413525
240 0.427924
245 0.505315
250 0.454319
255 0.439866
260 0.362591
265 0.488372
270 0.382695
275 0.528861
280 0.481377
285 0.475281
290 0.396514
295 0.411564
300 0.419065
305 0.487888
310 0.542468
315 0.456525
320 0.481922
325 0.538263
330 0.52918
335 0.490491
340 0.598778
345 0.561817
350 0.460262
355 0.446166
360 0.557597
365 0.501257
370 0.459488
375 0.524057
380 0.469184
385 0.469185
390 0.515488
395 0.457094
400 0.639363
405 0.576424
410 0.581512
415 0.474909
420 0.485776
425 0.502694
430 0.494524
435 0.623141
440 0.53001
445 0.557307
450 0.481944
455 0.538831
460 0.537374
465 0.549832
470 0.549634
475 0.569596
480 0.454674
485 0.439939
490 0.450921
495 0.459021
500 0.55799
505 0.583777
510 0.614885
515 0.702021
520 0.651097
525 0.634729
530 0.669104
535 0.677726
540 0.78279
545 9.88311
550 175.202
555 306.085
560 87.1053
565 11.1865
570 2.162
575 1.18526
580 0.956504
585 0.738003
590 0.806856
595 0.684467
600 1.08816
Ex : 563
200 0.507707
205 0.426614
210 0.616014
215 0.535757
220 0.462487
225 0.555909
230 0.4902
235 0.597344
240 0.502458
245 0.55319
250 0.669301
255 0.564379
260 0.527842
265 0.611917
270 0.426151
275 0.495372
280 0.454667
285 0.446859
290 0.51891
295 0.377077
300 0.408487
305 0.442482
310 0.495421
315 0.446937
320 0.598479
325 0.505073
330 0.67601
335 0.51908
340 0.608083
345 0.60558
350 0.398262
355 0.460811
360 0.54722
365 0.543466
370 0.667955
375 0.478151
380 0.520858
385 0.598662
390 0.559943
395 0.465914
400 0.602425
405 0.594268
410 0.474993
415 0.382244
420 0.514874
425 0.542967
430 0.434445
435 0.433557
440 0.469832
445 0.52915
450 0.606586
455 0.609192
460 0.490157
465 0.563466
470 0.471592
475 0.502104
480 0.60455
485 0.652804
490 0.434439
495 0.541062
500 0.603953
505 0.587164
510 0.561538
515 0.561636
520 0.449256
525 0.694578
530 0.598128
535 0.723415
540 0.638037
545 0.973692
550 9.49588
555 171.955
560 296.904
565 87.1053
570 11.0433
575 2.08719
580 1.18742
585 0.889405
590 0.853253
595 0.747175
600 0.540267
Ex : 568
200 0.454117
205 0.64298
210 0.510234
215 0.592807
220 0.501396
225 0.673579
230 0.514206
235 0.469224
240 0.441894
245 0.467608
250 0.573969
255 0.502657
260 0.524769
265 0.564787
270 0.613829
275 0.425473
280 0.512648
285 0.53131
290 0.425111
295 0.510449
300 0.462818
305 0.465525
310 0.459158
315 0.444844
320 0.414641
325 0.513735
330 0.490939
335 0.462842
340 0.549753
345 0.435179
350 0.547644
355 0.519943
360 0.504679
365 0.511898
370 0.57916
375 0.610822
380 0.547147
385 0.538374
390 0.623255
395 0.557397
400 0.467629
405 0.555221
410 0.574511
415 0.487472
420 0.56498
425 0.509127
430 0.535832
435 0.652628
440 0.465898
445 0.465521
450 0.558772
455 0.460232
460 0.512641
465 0.454458
470 0.494213
475 0.494309
480 0.419612
485 0.51053
490 0.476569
495 0.441833
500 0.501097
505 0.555512
510 0.4726
515 0.477427
520 0.561355
525 0.614435
530 0.632649
535 0.809141
540 0.713707
545 0.854217
550 1.06792
555 7.38506
560 157.295
565 291.718
570 87.7849
575 11.315
580 2.1285
585 1.02858
590 0.853114
595 0.817319
600 0.143648
Ex : 573
200 0.556436
205 0.504722
210 0.6455
215 0.605989
220 0.500715
225 0.582195
230 0.49747
235 0.599667
240 0.64387
245 0.422136
250 0.635042
255 0.485765
260 0.612116
265 0.526181
270 0.571786
275 0.572598
280 0.483043
285 0.42271
290 0.506446
295 0.488591
300 0.502433
305 0.445809
310 0.450967
315 0.585541
320 0.416759
325 0.460688
330 0.515908
335 0.628533
340 0.448876
345 0.614563
350 0.575557
355 0.485825
360 0.404386
365 0.552109
370 0.496436
375 0.541802
380 0.583965
385 0.578447
390 0.556629
395 0.506289
400 0.657382
405 0.691889
410 0.498908
415 0.528501
420 0.599811
425 0.554109
430 0.52621
435 0.666165
440 0.546177
445 0.629138
450 0.53858
455 0.548375
460 0.456615
465 0.540078
470 0.480733
475 0.517429
480 0.483795
485 0.538073
490 0.572341
495 0.535741
500 0.676259
505 0.725341
510 0.720111
515 0.616167
520 0.523955
525 0.684442
530 0.610787
535 0.614647
540 0.643588
545 0.664864
550 0.550129
555 0.769491
560 6.50683
565 138.668
570 266.972
575 82.4549
580 10.4248
585 1.96865
590 0.968896
595 0.913432
600 1.95341
Ex : 578
200 0.470041
205 0.489167
210 0.586972
215 0.462061
220 0.57605
225 0.481522
230 0.474932
235 0.556996
240 0.683759
245 0.526178
250 0.476129
255 0.497605
260 0.580692
265 0.511582
270 0.438888
275 0.467
280 0.490632
285 0.509652
290 0.572385
295 0.454344
300 0.518361
305 0.449752
310 0.588737
315 0.510018
320 0.531375
325 0.463245
330 0.585955
335 0.588551
340 0.607515
345 0.575284
350 0.616633
355 0.461667
360 0.527932
365 0.523367
370 0.500168
375 0.550105
380 0.643686
385 0.537565
390 0.551647
395 0.627205
400 0.588206
405 0.558094
410 0.466808
415 0.50108
420 0.448633
425 0.515293
430 0.573941
435 0.562864
440 0.445956
445 0.456751
450 0.449919
455 0.655029
460 0.475825
465 0.577733
470 0.532007
475 0.521951
480 0.465806
485 0.465187
490 0.472185
495 0.569643
500 0.589547
505 0.553484
510 0.583972
515 0.621846
520 0.489365
525 0.542115
530 0.702378
535 0.564753
540 0.633466
545 0.487004
550 0.62655
555 0.742462
560 0.72098
565 5.60976
570 125.025
575 235.182
580 71.2112
585 9.13985
590 1.78966
595 0.853176
600 0.372348
Ex : 583
200 0.440281
205 0.554567
210 0.587104
215 0.490131
220 0.481166
225 0.619467
230 0.59865
235 0.550777
240 0.516545
245 0.603594
250 0.625861
255 0.619894
260 0.604403
265 0.519207
270 0.637157
275 0.48991
280 0.474671
285 0.48316
290 0.517471
295 0.436513
300 0.593825
305 0.783412
310 0.450556
315 0.564702
320 0.5624
325 0.481444
330 0.662858
335 0.451291
340 0.507089
345 0.607649
350 0.568274
355 0.633863
360 0.525911
365 0.519855
370 0.456058
375 0.506273
380 0.483709
385 0.501367
390 0.472142
395 0.49099
400 0.516087
405 0.5661
410 0.461105
415 0.521697
420 0.471814
425 0.534006
430 0.489506
435 0.482413
440 0.601099
445 0.565413
450 0.587538
455 0.648591
460 0.467312
465 0.628321
470 0.703937
475 0.518926
480 0.558118
485 0.477412
490 0.443785
495 0.556076
500 0.531089
505 0.437939
510 0.437571
515 0.476844
520 0.532952
525 0.402639
530 0.521121
535 0.580821
540 0.554066
545 0.660608
550 0.538395
555 0.636566
560 0.803278
565 0.876785
570 4.90682
575 112.371
580 210.472
585 60.2
590 8.00617
595 1.74243
600 0.456468
Ex : 588
200 0.588685
205 0.588116
210 0.495805
215 0.567568
220 0.616911
225 0.561798
230 0.660232
235 0.611977
240 0.655569
245 0.631838
250 0.634781
255 0.730946
260 0.506402
265 0.456819
270 0.696031
275 0.629146
280 0.625239
285 0.431467
290 0.439443
295 0.605779
300 0.533438
305 0.527807
310 0.459033
315 0.457003
320 0.643946
325 0.642324
330 0.566037
335 0.59219
340 0.588665
345 0.502698
350 0.440378
355 0.636727
360 0.708588
365 0.642455
370 0.58171
375 0.516481
380 0.522552
385 0.50214
390 0.478148
395 0.505436
400 0.682031
405 0.450409
410 0.525089
415 0.593441
420 0.593491
425 0.531804
430 0.598968
435 0.572306
440 0.601128
445 0.554109
450 0.718068
455 0.549432
460 0.639981
465 0.503264
470 0.651341
475 0.554572
480 0.59932
485 0.761442
490 0.688292
495 0.680589
500 0.729767
505 0.59188
510 0.474611
515 0.464714
520 0.572957
525 0.617097
530 0.579662
535 0.637621
540 0.607612
545 0.75505
550 0.578862
555 0.667681
560 0.74349
565 0.694031
570 0.92584
575 4.58812
580 95.5619
585 177.838
590 53.5044
595 7.11853
600 1.90521
Ex : 593
200 0.586337
205 0.599261
210 0.543098
215 0.668967
220 0.551849
225 0.572632
230 0.445271
235 0.641178
240 0.53561
245 0.466266
250 0.601071
255 0.594439
260 0.609539
265 0.477763
270 0.558556
275 0.527839
280 0.466139
285 0.524989
290 0.535227
295 0.472188
300 0.563929
305 0.551192
310 0.57742
315 0.699067
320 0.594563
325 0.460352
330 0.653707
335 0.639146
340 0.572168
345 0.618544
350 0.613505
355 0.709011
360 0.58589
365 0.544966
370 0.684357
375 0.600556
380 0.618711
385 0.709418
390 0.544508
395 0.534641
400 0.583956
405 0.602895
410 0.489661
415 0.462247
420 0.523778
425 0.617465
430 0.733845
435 0.719922
440 0.583781
445 0.479531
450 0.691255
455 0.547514
460 0.511643
465 0.590442
470 0.61189
475 0.498359
480 0.554803
485 0.540075
490 0.605092
495 0.53206
500 0.634098
505 0.657628
510 0.643778
515 0.597834
520 0.590185
525 0.560585
530 0.589589
535 0.479875
540 0.526871
545 0.557805
550 0.640951
555 0.708743
560 0.621954
565 0.6385
570 0.752212
575 0.740002
580 4.27474
585 85.0763
590 157.364
595 46.4774
600 5.46919
Ex : 598
200 0.592701
205 0.577121
210 0.601953
215 0.566067
220 0.586319
225 0.649318
230 0.441161
235 0.455409
240 0.569963
245 0.524857
250 0.634511
255 0.439301
260 0.608806
265 0.456402
270 0.526022
275 0.594686
280 0.466212
285 0.547949
290 0.485777
295 0.546
300 0.757542
305 0.474036
310 0.487419
315 0.709382
320 0.63381
325 0.563545
330 0.802946
335 0.58662
340 0.523887
345 0.628656
350 0.592582
355 0.624566
360 0.579796
365 0.60235
370 0.629584
375 0.54741
380 0.542072
385 0.602177
390 0.638148
395 0.581118
400 0.453948
405 0.665584
410 0.595827
415 0.564651
420 0.653008
425 0.666795
430 0.595027
435 0.554621
440 0.623708
445 0.583598
450 0.609544
455 0.605906
460 0.664476
465 0.711455
470 0.579147
475 0.546656
480 0.484103
485 0.635194
490 0.660401
495 0.484471
500 0.641271
505 0.546882
510 0.659632
515 0.653462
520 0.547874
525 0.593994
530 0.67511
535 0.737869
540 0.557869
545 0.560567
550 0.612562
555 0.663129
560 0.701602
565 0.495306
570 0.729236
575 0.54425
580 1.01281
585 4.4047
590 74.9347
595 135.589
600 86.2958
Ex : 603
200 0.679303
205 0.603254
210 0.550956
215 0.764584
220 0.651345
225 0.58829
230 0.742362
235 0.54525
240 0.627506
245 0.508552
250 0.700574
255 0.568602
260 0.618703
265 0.549875
270 0.677602
275 0.890909
280 0.648663
285 0.588486
290 0.692764
295 0.530551
300 0.705207
305 0.618442
310 0.622889
315 0.594381
320 0.495205
325 0.503376
330 0.535062
335 0.581233
340 0.765612
345 0.578092
350 0.685561
355 0.661058
360 0.554292
365 0.572653
370 0.598063
375 0.588673
380 0.668168
385 0.553207
390 0.594285
395 0.618183
400 0.621946
405 0.556639
410 0.560681
415 0.480703
420 0.651385
425 0.446965
430 0.667557
435 0.596268
440 0.700604
445 0.738889
450 0.637789
455 0.569598
460 0.566773
465 0.582395
470 0.584985
475 0.509476
480 0.756481
485 0.607209
490 0.701433
495 0.619512
500 0.685287
505 0.573627
510 0.682639
515 0.637955
520 0.605843
525 0.67174
530 0.713872
535 0.781261
540 0.737909
545 0.486333
550 0.77174
555 0.708027
560 0.711986
565 0.679871
570 0.998171
575 0.755929
580 0.589547
585 0.59195
590 3.67204
595 64.2576
600 135.837
