File format V 1.0
sam. 10. déc. 00:41:20 2016
Operator : 
Comments : 

=============================================
SpectroFluorometer parameters
Mode : 3D measurement
Data : Fluorescence
Phospho. : Ordinary
Spectrum : Fluorescence

Scan speed : 2400 nm/mn
Response : 100 ms
PM Voltage : 700 V
Shutter : On

Lambda Ex. Start : 203
Lambda Ex. End : 603
Lambda Ex. Step : 5
Ex. Slit : 5 nm

Lambda Em. Start : 200
Lambda Em. End : 600
Lambda Em. Step : 5
Em. Slit : 5 nm

Repetition : 1
Decal lambda em : 10
=============================================
DATA
Ex : 203
200 12.5549
205 14.599
210 15.5488
215 16.6587
220 11.7588
225 11.248
230 15.5977
235 16.2412
240 16.1259
245 16.828
250 10.2205
255 12.8686
260 9.33388
265 16.0654
270 15.7559
275 15.2909
280 14.9914
285 14.2554
290 13.2702
295 14.2052
300 16.2913
305 14.9664
310 11.3638
315 14.7849
320 14.9403
325 17.5159
330 14.2385
335 15.0208
340 16.9216
345 12.1465
350 12.883
355 13.513
360 18.1077
365 20.089
370 14.0647
375 15.7743
380 15.334
385 14.289
390 13.576
395 20.5747
400 19.8999
405 19.033
410 15.1767
415 14.6201
420 15.0648
425 14.5957
430 19.2318
435 14.2377
440 13.6213
445 17.2063
450 19.0673
455 20.6453
460 18.4098
465 16.1476
470 13.674
475 21.4689
480 11.5598
485 15.0837
490 14.9032
495 17.526
500 19.1599
505 11.374
510 13.5054
515 14.5431
520 13.3682
525 11.16
530 14.0628
535 15.5781
540 12.7862
545 11.5792
550 16.6113
555 13.6832
560 11.9559
565 13.0246
570 14.0068
575 14.5438
580 12.8683
585 17.5786
590 18.6653
595 18.2349
600 4.43827
Ex : 208
200 12.012
205 16.8805
210 13.2584
215 12.1849
220 13.3795
225 13.3458
230 18.9023
235 13.992
240 13.3787
245 15.7628
250 11.7692
255 17.5387
260 17.2145
265 14.9724
270 13.27
275 11.8284
280 13.5166
285 11.6897
290 14.0089
295 15.7511
300 12.9032
305 14.7819
310 14.4555
315 16.7526
320 12.5306
325 10.7627
330 17.5531
335 15.3121
340 15.1322
345 19.8081
350 17.0469
355 11.8507
360 11.8302
365 11.4006
370 22.0569
375 17.39
380 17.1717
385 15.2155
390 15.5467
395 17.2963
400 17.0815
405 16.6022
410 16.6809
415 11.6957
420 15.4015
425 13.7136
430 13.3712
435 15.5802
440 14.7428
445 14.6718
450 14.1155
455 12.9081
460 18.2077
465 13.087
470 16.6376
475 16.5569
480 15.858
485 16.955
490 19.2164
495 14.2666
500 15.2876
505 12.0116
510 16.1921
515 17.0213
520 12.8164
525 12.7712
530 11.2411
535 15.3886
540 13.2718
545 11.8286
550 10.9875
555 13.3963
560 12.5718
565 17.4655
570 11.579
575 12.8538
580 13.156
585 15.1765
590 16.4521
595 17.8348
600 38.3639
Ex : 213
200 13.4886
205 12.7887
210 16.1327
215 14.2579
220 14.7054
225 13.5278
230 17.6755
235 15.8288
240 11.4742
245 17.7056
250 13.0974
255 11.1946
260 13.1395
265 15.0407
270 15.1079
275 15.0022
280 13.4103
285 14.5839
290 12.0116
295 13.467
300 12.7524
305 15.7119
310 14.9455
315 12.2107
320 15.8906
325 17.9891
330 10.8985
335 13.35
340 12.7244
345 12.2207
350 10.3138
355 15.5432
360 11.8628
365 12.6567
370 16.5858
375 12.9157
380 14.1931
385 16.1121
390 21.2578
395 15.1943
400 12.6788
405 15.6771
410 20.384
415 13.1224
420 13.7959
425 13.4461
430 14.3479
435 13.0485
440 14.8746
445 16.2461
450 12.5933
455 11.1865
460 13.5739
465 13.6274
470 15.975
475 15.3554
480 15.514
485 15.6646
490 12.3134
495 12.5941
500 15.7833
505 13.7101
510 15.4825
515 14.6544
520 15.2206
525 9.82737
530 12.9136
535 15.1171
540 14.4399
545 17.9972
550 14.8325
555 14.68
560 12.9237
565 19.1674
570 14.6877
575 16.1587
580 13.2335
585 12.6438
590 16.2328
595 11.1931
600 10.8447
Ex : 218
200 9.28161
205 13.6191
210 13.9145
215 14.1894
220 12.9725
225 16.5469
230 11.8169
235 16.9087
240 13.0069
245 16.7551
250 14.5323
255 13.3111
260 12.1044
265 10.1736
270 16.7764
275 10.0745
280 16.5501
285 10.5789
290 12.9737
295 14.9936
300 13.095
305 17.8611
310 13.2828
315 12.1255
320 14.0692
325 11.8645
330 10.0429
335 14.0479
340 11.9307
345 13.9776
350 11.7389
355 15.1639
360 15.7335
365 10.8872
370 17.0303
375 12.5095
380 15.2446
385 11.136
390 15.7305
395 13.738
400 22.8054
405 14.0842
410 20.3153
415 18.7191
420 13.1334
425 18.9361
430 16.5073
435 13.435
440 16.6983
445 14.7263
450 14.8918
455 11.8075
460 14.6763
465 15.4805
470 17.5965
475 12.2407
480 14.4885
485 13.7462
490 11.7075
495 15.5696
500 15.0316
505 12.1168
510 16.7923
515 15.1562
520 14.019
525 12.5318
530 11.5101
535 11.058
540 11.77
545 21.4472
550 13.3143
555 14.0145
560 13.7904
565 17.6695
570 14.4953
575 14.7577
580 10.4407
585 12.217
590 10.7249
595 12.5292
600 16.0481
Ex : 223
200 14.8506
205 12.8366
210 12.2807
215 14.2401
220 11.3687
225 14.7811
230 15.596
235 13.2567
240 12.0637
245 15.5926
250 15.2437
255 14.3251
260 11.2717
265 11.026
270 12.0385
275 15.6798
280 16.6492
285 12.5968
290 14.3332
295 10.4931
300 11.5712
305 14.3628
310 14.4969
315 16.1525
320 13.5009
325 13.1193
330 13.0883
335 16.2857
340 13.1631
345 12.0543
350 14.7223
355 12.3337
360 14.3636
365 14.4768
370 17.4118
375 13.3925
380 15.2098
385 12.6943
390 15.2228
395 19.0786
400 14.6646
405 14.3662
410 14.0853
415 14.986
420 14.6569
425 16.5954
430 15.5139
435 14.2872
440 10.7011
445 15.8232
450 15.8134
455 13.7782
460 12.2856
465 12.184
470 13.328
475 11.8395
480 13.3632
485 12.485
490 13.4751
495 15.4911
500 15.8499
505 16.5669
510 16.6648
515 16.3226
520 15.3425
525 17.4923
530 16.4856
535 16.2141
540 13.125
545 12.6656
550 12.8976
555 13.4092
560 17.2612
565 11.5362
570 15.6276
575 13.8118
580 18.1714
585 11.0199
590 12.9136
595 16.3301
600 11.0157
Ex : 228
200 13.4709
205 13.068
210 10.8536
215 10.5624
220 9.11417
225 12.5024
230 14.4537
235 13.8236
240 12.1936
245 10.446
250 14.0182
255 14.4241
260 10.5517
265 18.6776
270 16.1413
275 9.93856
280 12.5257
285 12.3848
290 8.24577
295 9.52487
300 13.6222
305 12.2166
310 13.0061
315 11.3368
320 11.4019
325 10.1456
330 11.5523
335 13.4167
340 10.7516
345 12.7209
350 11.2576
355 9.82426
360 14.3411
365 11.5191
370 13.0745
375 15.0265
380 10.6822
385 13.2406
390 13.2194
395 11.4087
400 13.3833
405 16.052
410 16.636
415 13.7364
420 17.1689
425 12.5038
430 15.464
435 12.8373
440 15.9611
445 10.5836
450 11.2465
455 12.929
460 14.3348
465 12.225
470 14.2218
475 11.9403
480 17.1698
485 13.1952
490 16.4799
495 15.444
500 14.4629
505 12.9726
510 10.8402
515 12.9915
520 12.9176
525 11.4245
530 11.7285
535 15.154
540 11.4975
545 13.1449
550 14.1628
555 14.4498
560 10.5658
565 12.9115
570 12.9899
575 12.4584
580 10.0143
585 10.3317
590 13.3148
595 12.3046
600 12.2119
Ex : 233
200 11.9623
205 11.2959
210 9.00524
215 11.3106
220 14.7417
225 11.4008
230 7.85861
235 12.3117
240 12.4147
245 13.8868
250 11.2554
255 12.8828
260 12.8135
265 10.8278
270 12.9097
275 12.4956
280 8.88716
285 11.2862
290 11.8881
295 11.6947
300 7.69931
305 10.5701
310 12.0128
315 9.72521
320 9.07831
325 12.9641
330 12.052
335 16.9705
340 13.4104
345 8.90085
350 9.96354
355 13.1704
360 11.2834
365 9.61347
370 11.471
375 11.6127
380 11.3344
385 12.7373
390 10.6889
395 12.6919
400 12.0493
405 13.0647
410 11.6695
415 9.17233
420 9.59353
425 12.982
430 9.37894
435 14.0866
440 14.2097
445 10.7181
450 9.77479
455 11.9182
460 15.6002
465 14.9746
470 11.5032
475 13.0459
480 11.4555
485 9.48046
490 10.6451
495 12.0146
500 12.5385
505 13.0488
510 11.7135
515 10.9335
520 12.8696
525 12.2889
530 12.2051
535 10.5657
540 11.398
545 9.43985
550 13.4243
555 15.093
560 9.77952
565 10.818
570 10.1839
575 11.399
580 10.5917
585 9.63053
590 9.87169
595 9.89678
600 3.78483
Ex : 238
200 8.29752
205 10.7362
210 11.1357
215 11.9647
220 14.5934
225 8.32725
230 8.48779
235 8.33333
240 8.42901
245 8.80951
250 10.9214
255 8.73218
260 10.2988
265 8.22557
270 8.86681
275 10.5443
280 11.2114
285 12.8078
290 9.06307
295 10.5014
300 9.64224
305 9.34773
310 8.95204
315 8.79443
320 10.3982
325 12.1407
330 10.7622
335 11.2537
340 9.54329
345 12.3813
350 12.4774
355 8.97065
360 12.7839
365 10.57
370 8.7432
375 11.4096
380 14.2083
385 13.5449
390 9.13959
395 11.0456
400 8.93354
405 9.21595
410 9.4296
415 11.9825
420 11.1785
425 10.9858
430 10.3141
435 8.80591
440 12.2887
445 11.637
450 11.6608
455 15.9046
460 11.3412
465 8.84783
470 9.02774
475 8.86653
480 13.88
485 8.6803
490 9.88939
495 11.6349
500 10.5707
505 12.8871
510 9.14445
515 11.9346
520 11.2268
525 11.642
530 12.4144
535 10.7595
540 10.3298
545 10.1343
550 10.4719
555 9.9227
560 11.9675
565 13.4234
570 8.87504
575 9.10283
580 9.99178
585 10.2545
590 10.0893
595 9.24594
600 30.74
Ex : 243
200 9.33333
205 9.33444
210 7.4593
215 9.37774
220 6.88267
225 7.55395
230 10.8976
235 9.07442
240 7.46779
245 9.63718
250 7.39091
255 8.59965
260 7.4624
265 7.51471
270 10.0147
275 10.1404
280 8.62012
285 7.51709
290 8.72679
295 8.36483
300 10.0098
305 8.33823
310 9.16101
315 11.1597
320 8.87679
325 8.48591
330 8.0519
335 11.9078
340 8.5722
345 9.51051
350 10.5931
355 7.38182
360 6.84262
365 9.20091
370 10.2447
375 10.3018
380 9.0719
385 14.2365
390 12.0031
395 10.3804
400 10.7977
405 9.01565
410 6.8384
415 7.58101
420 9.25813
425 11.1461
430 8.52212
435 7.44994
440 9.25672
445 10.6462
450 9.91003
455 8.42978
460 9.60876
465 9.35788
470 11.2169
475 13.0925
480 10.4511
485 10.4692
490 11.1081
495 7.55174
500 6.73211
505 9.20885
510 9.58829
515 9.1881
520 6.23989
525 10.6094
530 8.65476
535 9.14968
540 9.38214
545 7.51599
550 7.27241
555 10.3948
560 9.01843
565 9.26504
570 9.92298
575 7.49259
580 7.58845
585 8.6162
590 9.12249
595 8.90151
600 10.3814
Ex : 248
200 6.26506
205 8.52993
210 7.9509
215 6.57045
220 6.17042
225 6.76401
230 8.33306
235 6.6221
240 7.07868
245 7.89782
250 7.25079
255 8.85965
260 8.7514
265 7.79381
270 5.95453
275 6.9017
280 7.37089
285 10.1907
290 7.00861
295 7.32574
300 8.40024
305 8.41188
310 6.48771
315 7.22442
320 8.31188
325 7.03224
330 7.75828
335 6.17899
340 9.66582
345 7.73183
350 11.1122
355 8.72227
360 8.80676
365 8.13802
370 8.52779
375 7.16337
380 7.49216
385 9.35156
390 6.90733
395 9.80364
400 9.24912
405 9.04755
410 6.90637
415 8.06642
420 7.28682
425 9.32041
430 6.54227
435 7.85607
440 8.98444
445 7.65525
450 7.22131
455 7.29131
460 9.14059
465 9.33996
470 8.80418
475 10.0354
480 9.41051
485 7.79465
490 7.90005
495 10.2747
500 8.52444
505 8.38517
510 5.81635
515 7.83459
520 8.00535
525 8.46994
530 7.21037
535 8.87518
540 7.13932
545 8.56809
550 7.62965
555 6.19341
560 8.26143
565 7.57699
570 7.62507
575 7.57978
580 6.95864
585 6.97083
590 8.37819
595 7.95033
600 4.22798
Ex : 253
200 5.78744
205 5.30845
210 6.16517
215 4.36236
220 4.41754
225 4.84705
230 4.8058
235 5.46029
240 5.7074
245 5.28968
250 5.9453
255 5.27193
260 5.84311
265 5.93266
270 6.27338
275 5.25046
280 7.0384
285 7.59668
290 5.25361
295 6.45175
300 6.61796
305 6.42656
310 6.42097
315 5.79014
320 6.91484
325 5.86418
330 5.60597
335 5.35297
340 6.10965
345 6.66653
350 6.81362
355 8.07517
360 8.19501
365 6.40455
370 8.4055
375 5.84166
380 7.30048
385 6.46728
390 7.55704
395 5.87963
400 7.45823
405 7.69686
410 5.83554
415 6.75589
420 5.81554
425 6.4424
430 6.50458
435 8.34136
440 7.96408
445 5.97181
450 5.68428
455 5.58798
460 6.09491
465 5.71321
470 6.51393
475 5.85244
480 7.47124
485 5.53996
490 7.1177
495 7.25273
500 6.42967
505 7.70541
510 4.71404
515 5.99773
520 7.32355
525 6.7688
530 7.50847
535 5.67248
540 5.37918
545 6.9507
550 6.25589
555 6.62447
560 6.2641
565 5.99888
570 8.22874
575 6.0337
580 8.87246
585 5.84033
590 7.45663
595 4.61768
600 0.525474
Ex : 258
200 5.68031
205 4.98049
210 4.71306
215 4.73791
220 3.44451
225 4.15189
230 5.25938
235 4.65997
240 4.27619
245 4.10026
250 4.19871
255 4.25664
260 5.26577
265 5.21645
270 4.40964
275 3.95423
280 4.76249
285 5.064
290 3.24177
295 5.02361
300 4.82789
305 4.76615
310 4.94559
315 5.00926
320 5.36172
325 5.50768
330 4.98025
335 4.45667
340 6.01801
345 5.013
350 3.92262
355 5.00005
360 4.52501
365 4.70318
370 6.12244
375 5.40264
380 5.4499
385 3.85009
390 3.52005
395 5.24141
400 4.79103
405 3.93213
410 6.61251
415 6.16798
420 4.74477
425 5.00497
430 5.62381
435 5.46105
440 5.60461
445 4.70769
450 5.91698
455 4.59698
460 5.33021
465 4.55372
470 5.75738
475 4.75344
480 4.91782
485 4.30617
490 5.76423
495 4.01473
500 5.03529
505 4.88495
510 5.47406
515 4.89282
520 5.67474
525 5.45244
530 4.37481
535 5.20622
540 5.74079
545 5.0141
550 5.62387
555 6.19539
560 4.0111
565 4.84385
570 4.2906
575 5.91691
580 3.91532
585 5.81154
590 3.63333
595 4.26
600 0.484772
Ex : 263
200 3.59352
205 3.11648
210 4.50186
215 4.12986
220 3.50081
225 3.1666
230 3.30395
235 2.897
240 4.24373
245 3.47182
250 3.72502
255 3.29872
260 3.54379
265 3.2278
270 4.24647
275 4.38512
280 4.0759
285 4.09418
290 3.64058
295 3.82297
300 3.05289
305 3.9937
310 3.81911
315 3.15292
320 3.44914
325 2.97715
330 4.316
335 4.36812
340 4.54376
345 3.53488
350 3.43463
355 4.08048
360 4.26831
365 4.02389
370 4.07501
375 4.69003
380 4.48453
385 4.30349
390 4.33214
395 3.57997
400 4.09496
405 4.31963
410 3.29547
415 3.89717
420 3.74415
425 5.09136
430 5.12829
435 4.36046
440 3.98437
445 4.56254
450 4.69683
455 3.70184
460 3.93598
465 4.01631
470 4.81187
475 4.22221
480 4.57685
485 4.27118
490 4.70028
495 3.64452
500 3.29986
505 3.57805
510 4.05485
515 3.83062
520 4.3827
525 4.71598
530 3.69293
535 3.58431
540 4.33386
545 3.01872
550 3.956
555 4.25588
560 3.45884
565 3.82715
570 3.63265
575 3.8672
580 4.45509
585 3.89477
590 2.94215
595 4.34107
600 1.79724
Ex : 268
200 2.24971
205 3.96394
210 2.36717
215 3.04275
220 2.78749
225 2.44104
230 3.07208
235 3.2832
240 2.53425
245 2.88889
250 2.5541
255 3.28866
260 2.72669
265 2.64796
270 3.44087
275 3.11542
280 2.87175
285 3.14805
290 2.74135
295 2.47433
300 2.82082
305 2.19626
310 2.70829
315 3.36962
320 3.37892
325 2.78464
330 2.22038
335 3.90904
340 3.04297
345 3.88481
350 2.90155
355 3.35625
360 3.15814
365 3.59283
370 3.12737
375 3.34734
380 3.27187
385 3.12548
390 3.40571
395 2.73573
400 3.20061
405 2.63269
410 3.56798
415 3.55136
420 3.36164
425 3.42906
430 3.58843
435 3.74265
440 3.37819
445 2.75078
450 2.8825
455 3.26865
460 2.59053
465 3.29091
470 3.14311
475 2.96385
480 3.6388
485 3.1803
490 3.28481
495 3.43277
500 3.37169
505 3.18319
510 3.4073
515 2.48269
520 1.96444
525 3.36265
530 3.61582
535 4.61635
540 2.81156
545 2.31651
550 3.24695
555 2.58604
560 3.02098
565 3.1461
570 2.59017
575 3.08194
580 2.86506
585 2.5803
590 3.62481
595 3.15233
600 3.90354
Ex : 273
200 2.71241
205 2.60237
210 2.39814
215 2.20229
220 2.56838
225 2.8022
230 2.60611
235 1.9681
240 2.192
245 2.98932
250 2.22814
255 2.14272
260 2.84575
265 2.00425
270 2.01559
275 2.52696
280 2.85342
285 1.62661
290 1.7646
295 1.93308
300 1.94707
305 1.93792
310 2.65176
315 1.91072
320 1.74184
325 2.82745
330 2.46659
335 2.1299
340 2.29446
345 2.8192
350 2.82126
355 2.09594
360 2.53489
365 2.48303
370 2.60558
375 2.51922
380 3.55894
385 2.79791
390 3.02605
395 3.50412
400 3.21059
405 2.99944
410 2.56189
415 2.7202
420 2.74345
425 2.81348
430 2.71401
435 2.14011
440 2.24894
445 2.37865
450 2.74348
455 2.68296
460 3.17009
465 2.76757
470 2.79281
475 3.02733
480 3.14971
485 2.38332
490 2.96734
495 2.56482
500 2.61092
505 2.89141
510 3.33768
515 2.61127
520 2.28241
525 2.336
530 2.76262
535 2.50402
540 2.70547
545 3.08182
550 2.51178
555 2.5026
560 2.28082
565 2.86402
570 2.03813
575 2.43976
580 1.73185
585 1.8856
590 2.73917
595 1.86236
600 6.04042
Ex : 278
200 1.61337
205 2.34131
210 1.80793
215 1.81632
220 1.71828
225 1.66449
230 1.59471
235 1.74424
240 1.95787
245 2.00571
250 1.71145
255 1.90716
260 1.74893
265 2.64384
270 1.98733
275 2.03445
280 2.1109
285 1.95533
290 1.49578
295 1.88029
300 1.83683
305 1.98351
310 1.8779
315 1.57847
320 1.44219
325 1.88529
330 1.94471
335 2.01271
340 2.13317
345 2.33229
350 1.98166
355 2.13223
360 1.94206
365 1.95512
370 2.42878
375 2.2419
380 3.1209
385 2.60283
390 1.76178
395 2.31895
400 2.56135
405 3.32622
410 3.33089
415 2.74248
420 2.20416
425 2.04573
430 2.01896
435 2.3411
440 2.73332
445 1.78479
450 2.25176
455 2.37734
460 2.72985
465 2.18602
470 2.01149
475 2.30293
480 1.9243
485 2.65913
490 2.59902
495 2.00506
500 1.9694
505 2.09053
510 1.85019
515 1.65088
520 1.71714
525 2.38582
530 1.58548
535 1.66711
540 1.5464
545 2.10429
550 2.24392
555 2.60224
560 2.09478
565 1.83646
570 1.68876
575 1.89297
580 1.88067
585 1.50266
590 2.04936
595 1.99109
600 2.05437
Ex : 283
200 1.07194
205 1.21778
210 1.30759
215 1.42995
220 1.62676
225 1.51123
230 1.91692
235 1.29804
240 1.75442
245 1.40956
250 1.62191
255 1.56426
260 1.4628
265 1.64289
270 1.97536
275 1.73946
280 1.73769
285 1.32278
290 1.43521
295 1.33708
300 1.58609
305 1.30398
310 1.33669
315 1.59241
320 1.61068
325 1.67554
330 1.76781
335 1.51663
340 1.87029
345 1.91618
350 1.7278
355 2.01925
360 1.7274
365 1.42437
370 1.69379
375 2.06478
380 1.61062
385 1.94236
390 1.97561
395 2.02309
400 2.0032
405 2.26525
410 2.50313
415 2.29143
420 1.97636
425 1.9177
430 1.98775
435 1.69145
440 2.03121
445 2.05291
450 2.11421
455 2.31989
460 2.48122
465 2.07553
470 1.57922
475 1.87229
480 1.77223
485 1.88806
490 1.86786
495 1.61796
500 1.7928
505 1.88826
510 1.65596
515 1.31128
520 1.69457
525 1.49268
530 1.85474
535 1.3742
540 1.6092
545 2.00995
550 1.79403
555 1.90457
560 2.50341
565 1.76054
570 1.61931
575 1.48765
580 1.54107
585 1.43889
590 1.1144
595 1.58655
600 0.180543
Ex : 288
200 1.25374
205 1.73361
210 1.44444
215 1.32701
220 1.39266
225 0.894341
230 1.13777
235 1.38765
240 1.17071
245 1.56257
250 1.21939
255 1.43031
260 1.61956
265 0.880123
270 1.13334
275 0.947153
280 1.80519
285 1.30657
290 1.23802
295 1.7347
300 1.28177
305 1.33691
310 1.19244
315 1.30694
320 1.31805
325 1.53158
330 1.4032
335 1.50005
340 1.77126
345 1.83759
350 1.20011
355 1.78327
360 1.58723
365 1.9119
370 1.8181
375 1.86456
380 1.87647
385 1.91673
390 2.05498
395 2.05107
400 1.91045
405 2.30676
410 1.83658
415 1.84588
420 1.5281
425 1.90652
430 1.88437
435 1.67993
440 1.7931
445 2.32532
450 1.95659
455 1.76513
460 1.47101
465 1.7452
470 2.14115
475 2.13693
480 1.49434
485 1.61932
490 1.51046
495 1.72515
500 1.66914
505 1.70647
510 1.58094
515 1.55251
520 1.37386
525 1.59301
530 1.49069
535 1.55165
540 1.12398
545 1.77646
550 1.41638
555 1.37815
560 1.29809
565 1.79159
570 2.24393
575 1.71886
580 1.42168
585 1.16618
590 1.78324
595 1.64587
600 1.2423
Ex : 293
200 1.07365
205 1.0433
210 1.06846
215 1.09952
220 1.28015
225 1.15689
230 0.890722
235 0.898532
240 1.1569
245 1.09601
250 1.25299
255 1.27832
260 1.11754
265 1.38358
270 0.859885
275 0.923093
280 1.17135
285 1.22664
290 1.23128
295 1.00696
300 1.20011
305 1.45604
310 1.07606
315 1.13455
320 1.04922
325 1.2225
330 1.26641
335 1.5182
340 1.20743
345 1.37497
350 1.38415
355 1.46104
360 1.3916
365 1.59174
370 1.80117
375 1.68761
380 1.75133
385 1.69697
390 1.80372
395 1.99584
400 1.77281
405 2.10269
410 2.09173
415 1.68381
420 1.84252
425 1.79067
430 1.45107
435 1.74297
440 1.79425
445 1.62385
450 1.66803
455 1.9185
460 1.693
465 1.52114
470 1.61189
475 1.32384
480 1.30821
485 1.47612
490 1.15215
495 1.49338
500 1.39577
505 1.1468
510 1.1154
515 1.16117
520 1.43622
525 1.40371
530 0.985498
535 1.00329
540 1.34346
545 1.0184
550 1.01242
555 1.29889
560 1.39806
565 1.18017
570 1.36299
575 1.32598
580 1.89377
585 1.90522
590 1.46618
595 1.40151
600 1.43767
Ex : 298
200 1.06645
205 1.03863
210 1.00188
215 1.20954
220 1.2262
225 1.20696
230 0.72659
235 0.798724
240 1.06211
245 1.07479
250 0.989074
255 1.24283
260 0.79966
265 0.995821
270 0.917162
275 0.782561
280 0.849732
285 0.896101
290 1.14663
295 0.968492
300 0.734947
305 0.6299
310 0.947878
315 0.789394
320 0.851445
325 0.932065
330 0.85238
335 0.973491
340 1.24062
345 0.994758
350 1.2281
355 1.21183
360 1.30301
365 1.25147
370 1.54542
375 1.62257
380 1.6358
385 1.24127
390 1.53082
395 1.59904
400 1.77255
405 1.40208
410 1.71551
415 1.76147
420 1.51818
425 1.34364
430 1.341
435 1.18941
440 1.46591
445 1.31466
450 1.50635
455 1.53186
460 1.05981
465 1.46477
470 1.46863
475 0.996763
480 1.4555
485 1.1474
490 1.09487
495 1.13519
500 0.973149
505 1.09461
510 1.17527
515 1.20508
520 1.21912
525 0.939474
530 1.09316
535 0.934958
540 0.858629
545 1.07512
550 1.14036
555 1.27407
560 0.944817
565 1.01187
570 1.04514
575 1.38165
580 0.96568
585 1.2207
590 1.56778
595 1.6101
600 1.58012
Ex : 303
200 0.866106
205 1.07616
210 0.939698
215 0.739038
220 0.91519
225 1.02926
230 0.905596
235 0.907305
240 0.830381
245 1.09461
250 0.716511
255 1.12966
260 0.860972
265 0.641132
270 0.891307
275 0.820341
280 0.65608
285 0.863749
290 1.01858
295 1.11633
300 0.840981
305 1.10284
310 0.92821
315 0.803376
320 1.05563
325 1.05014
330 1.14876
335 0.880926
340 0.899945
345 1.11459
350 1.00021
355 1.16292
360 1.16817
365 1.36294
370 1.28977
375 1.32429
380 1.47494
385 1.53646
390 1.30226
395 1.50679
400 1.34865
405 1.56687
410 1.21147
415 1.29108
420 1.26364
425 1.32728
430 1.42897
435 1.48788
440 1.32738
445 1.42703
450 1.43596
455 1.30223
460 1.38569
465 1.20176
470 1.27781
475 1.05835
480 1.0252
485 1.04025
490 1.08432
495 0.963351
500 1.15201
505 0.701021
510 1.01183
515 0.957161
520 0.821427
525 0.797604
530 0.900626
535 1.12445
540 1.12902
545 0.861127
550 0.857103
555 0.927689
560 0.71396
565 0.809379
570 0.896947
575 0.971105
580 0.685614
585 0.788535
590 0.765714
595 1.14927
600 3.19943
Ex : 308
200 0.890673
205 0.634178
210 0.648116
215 0.721513
220 0.622803
225 0.598553
230 0.632995
235 0.601312
240 0.675257
245 0.680984
250 0.781114
255 0.750921
260 0.810578
265 0.717245
270 0.633848
275 0.653632
280 0.608697
285 0.915252
290 0.717275
295 0.855263
300 1.06923
305 1.08373
310 0.763713
315 0.792951
320 0.645659
325 0.930156
330 0.883775
335 0.794169
340 0.881076
345 0.900262
350 0.907886
355 1.33
360 1.06716
365 0.936351
370 1.2346
375 1.11106
380 1.25978
385 1.22041
390 1.42969
395 1.34338
400 1.4089
405 1.33551
410 1.41264
415 1.47423
420 1.36632
425 1.42259
430 1.16907
435 1.25356
440 1.26128
445 1.32532
450 1.26987
455 1.15321
460 1.20214
465 1.17699
470 1.28317
475 1.03058
480 1.19873
485 0.937963
490 0.910438
495 0.893136
500 0.901134
505 0.692517
510 0.762401
515 0.889181
520 0.757449
525 0.905536
530 0.75496
535 0.775366
540 0.862351
545 0.906133
550 0.670904
555 0.829193
560 0.76341
565 0.841295
570 0.649132
575 0.802905
580 0.554793
585 0.685257
590 0.890562
595 0.703862
600 0.716346
Ex : 313
200 0.589359
205 0.573017
210 0.503388
215 0.51176
220 0.591183
225 0.676631
230 0.696777
235 0.657175
240 0.583749
245 0.853733
250 0.716053
255 0.633557
260 0.67447
265 0.594295
270 0.597017
275 0.772319
280 0.754675
285 0.511638
290 0.655753
295 0.596579
300 0.929232
305 0.872494
310 0.775568
315 0.621974
320 0.647506
325 0.899376
330 1.02386
335 0.851347
340 0.992392
345 1.08309
350 0.993976
355 1.11399
360 1.2552
365 1.34619
370 1.92049
375 1.63452
380 1.7516
385 1.76732
390 1.76347
395 1.73285
400 1.76406
405 1.84372
410 1.80733
415 1.87947
420 1.75602
425 1.80217
430 1.94665
435 1.66258
440 1.37023
445 1.49138
450 1.32105
455 1.49239
460 1.39374
465 1.39247
470 1.40795
475 1.24303
480 1.2289
485 1.18264
490 1.14518
495 0.900494
500 0.998874
505 1.03775
510 0.960414
515 0.988394
520 1.13096
525 0.856523
530 0.777991
535 0.742711
540 0.735851
545 0.819015
550 0.766471
555 0.666917
560 0.577796
565 0.893742
570 0.672615
575 0.777266
580 0.761317
585 0.637333
590 0.583328
595 0.636574
600 0.27385
Ex : 318
200 0.680177
205 0.487298
210 0.436757
215 0.583006
220 0.52838
225 0.697503
230 0.689012
235 0.589805
240 0.505377
245 0.818489
250 0.462247
255 0.633006
260 0.483643
265 0.509178
270 0.688112
275 0.589113
280 0.582079
285 0.505497
290 0.74601
295 0.618854
300 0.519809
305 0.618418
310 0.922569
315 1.88399
320 1.34669
325 1.09645
330 1.14346
335 1.69893
340 2.09964
345 2.67649
350 3.33149
355 3.95706
360 4.68793
365 5.73658
370 6.77084
375 7.89591
380 8.98371
385 9.27777
390 10.1713
395 11.2891
400 11.5508
405 11.8972
410 11.9736
415 12.0755
420 11.2623
425 10.8868
430 10.3458
435 9.64426
440 9.77623
445 9.55407
450 9.14565
455 8.62552
460 8.11837
465 6.95587
470 6.72967
475 6.04905
480 5.5971
485 4.86664
490 4.56174
495 4.11075
500 4.0181
505 3.51014
510 3.12812
515 2.58167
520 2.46204
525 2.01853
530 2.01099
535 1.75602
540 1.3917
545 1.4648
550 1.35707
555 1.14509
560 1.30294
565 1.14971
570 0.91026
575 0.746977
580 0.753004
585 0.760652
590 0.547579
595 0.688675
600 0.290688
Ex : 323
200 0.56286
205 0.525285
210 0.788632
215 0.567612
220 0.436574
225 0.698892
230 0.517185
235 0.606664
240 0.581478
245 0.571442
250 0.495283
255 0.412417
260 0.500442
265 0.640728
270 0.555417
275 0.675942
280 0.588055
285 0.626036
290 0.559928
295 0.543687
300 0.585589
305 0.562485
310 0.709618
315 8.18288
320 33.8343
325 14.5025
330 3.83161
335 3.88563
340 5.36712
345 7.18535
350 10.1326
355 14.2814
360 17.0855
365 18.9821
370 22.6621
375 25.8304
380 29.0219
385 33.2818
390 36.0014
395 37.8135
400 39.4925
405 40.5333
410 40.8559
415 39.3282
420 39.041
425 37.7557
430 35.948
435 35.196
440 33.1991
445 31.2842
450 30.1586
455 28.0205
460 25.4497
465 25.1743
470 22.1309
475 20.1379
480 18.4839
485 16.7339
490 15.2138
495 13.8993
500 12.3402
505 10.8767
510 8.96218
515 8.4963
520 7.21944
525 6.42114
530 5.47538
535 4.75667
540 4.09004
545 3.46312
550 3.37556
555 2.76944
560 2.38131
565 1.93061
570 1.93172
575 1.38473
580 1.28008
585 1.16636
590 0.863247
595 0.889804
600 0.72729
Ex : 328
200 0.382388
205 0.47161
210 0.377893
215 0.31315
220 0.447304
225 0.561341
230 0.421473
235 0.578003
240 0.62715
245 0.561342
250 0.632687
255 0.42397
260 0.440211
265 0.449783
270 0.516713
275 0.468502
280 0.44758
285 0.546885
290 0.490148
295 0.601489
300 0.400172
305 0.563428
310 0.68887
315 2.41636
320 73.9319
325 170.685
330 51.0079
335 10.2951
340 7.27103
345 8.12091
350 10.5826
355 14.2919
360 20.3519
365 22.4949
370 23.961
375 27.8307
380 31.1243
385 33.7963
390 36.7841
395 39.2098
400 41.3578
405 42.4006
410 41.1371
415 41.241
420 39.8279
425 37.9869
430 37.9445
435 35.1892
440 33.2814
445 32.2537
450 30.2091
455 28.4992
460 26.5222
465 24.396
470 21.9545
475 20.9896
480 19.5568
485 17.286
490 15.3696
495 13.7486
500 12.568
505 11.089
510 9.75939
515 8.11599
520 7.41835
525 6.63658
530 5.74847
535 5.09177
540 4.48062
545 4.2695
550 3.46551
555 3.097
560 2.53143
565 2.37036
570 2.29989
575 1.56274
580 1.32714
585 1.23193
590 1.219
595 0.938807
600 0.441952
Ex : 333
200 0.44123
205 0.425646
210 0.38697
215 0.394475
220 0.464124
225 0.432594
230 0.414858
235 0.520003
240 0.507478
245 0.532856
250 0.471937
255 0.491421
260 0.466292
265 0.48093
270 0.558919
275 0.391971
280 0.532865
285 0.453079
290 0.572941
295 0.589939
300 0.409685
305 0.518698
310 0.597333
315 0.510671
320 10.4555
325 193.814
330 324.253
335 81.6788
340 13.7176
345 6.57182
350 7.01969
355 7.53322
360 11.077
365 15.9401
370 16.0803
375 16.6422
380 17.0376
385 19.9097
390 21.9263
395 22.7547
400 22.8645
405 22.9783
410 23.6244
415 23.8202
420 23.0282
425 21.2803
430 20.459
435 19.7538
440 18.0085
445 18.3396
450 17.4515
455 15.6404
460 15.1325
465 14.0171
470 12.6283
475 11.6208
480 10.2753
485 9.47618
490 8.59853
495 7.70205
500 6.76371
505 6.10134
510 5.37315
515 4.75773
520 4.25467
525 3.91784
530 3.69899
535 3.45681
540 2.86202
545 2.52592
550 2.40071
555 2.11795
560 1.79528
565 1.74213
570 1.66056
575 1.32876
580 1.17154
585 0.969118
590 0.883862
595 0.910522
600 0.880746
Ex : 338
200 0.359257
205 0.377756
210 0.386251
215 0.446936
220 0.417251
225 0.571721
230 0.388862
235 0.508667
240 0.395401
245 0.448835
250 0.439166
255 0.42644
260 0.412485
265 0.422638
270 0.49023
275 0.339431
280 0.371724
285 0.380867
290 0.471844
295 0.489344
300 0.430773
305 0.517722
310 0.446295
315 0.562802
320 0.656141
325 17.9147
330 278.218
335 401.187
340 98.2158
345 14.6949
350 6.12493
355 4.73564
360 4.86133
365 6.9609
370 10.9038
375 11.5733
380 10.6851
385 10.5525
390 11.9508
395 13.1394
400 12.4775
405 13.0571
410 13.5588
415 13.777
420 13.4738
425 12.0887
430 11.5252
435 11.33
440 10.9315
445 10.0798
450 9.64636
455 8.76065
460 7.86579
465 7.95323
470 7.28839
475 6.82254
480 6.05506
485 5.64898
490 4.80447
495 4.66441
500 4.46585
505 4.28861
510 3.61337
515 3.12537
520 2.83428
525 2.94678
530 2.47446
535 2.39129
540 2.04826
545 2.07504
550 1.6606
555 1.57118
560 1.33314
565 1.2156
570 1.22149
575 1.00725
580 0.927489
585 0.961858
590 0.861513
595 0.934593
600 0.389446
Ex : 343
200 0.323466
205 0.340705
210 0.364696
215 0.43642
220 0.312528
225 0.384287
230 0.458122
235 0.436686
240 0.356028
245 0.454815
250 0.335578
255 0.379109
260 0.572588
265 0.335535
270 0.437378
275 0.29665
280 0.317662
285 0.372673
290 0.5161
295 0.390799
300 0.570668
305 0.503494
310 0.628085
315 0.50778
320 0.486019
325 0.856054
330 20.9475
335 319.484
340 441.625
345 103.829
350 14.8516
355 5.16178
360 3.73433
365 3.02353
370 4.45073
375 8.37473
380 10.1454
385 9.66198
390 9.53106
395 9.51025
400 9.27031
405 9.54077
410 10.4755
415 11.0505
420 10.1654
425 9.17876
430 8.98803
435 9.30183
440 8.91181
445 8.01329
450 7.22773
455 6.43364
460 6.58834
465 6.05917
470 5.88611
475 5.42427
480 5.13295
485 4.85833
490 4.78483
495 4.1519
500 3.85141
505 3.67442
510 3.16999
515 2.85903
520 2.62942
525 2.32345
530 2.15536
535 2.00089
540 2.05919
545 1.72285
550 1.72232
555 1.52881
560 1.31446
565 1.31184
570 1.20124
575 1.01987
580 1.07496
585 0.832228
590 0.757123
595 0.632801
600 0.440303
Ex : 348
200 0.40184
205 0.356155
210 0.351348
215 0.365657
220 0.470533
225 0.381435
230 0.372871
235 0.384054
240 0.372143
245 0.38881
250 0.385122
255 0.400802
260 0.352166
265 0.393388
270 0.40289
275 0.373925
280 0.469209
285 0.435251
290 0.385864
295 0.4353
300 0.478964
305 0.505099
310 0.446158
315 0.424764
320 0.506451
325 0.667962
330 0.965882
335 21.5975
340 312.644
345 454.815
350 115.528
355 15.5492
360 4.49233
365 3.41161
370 2.48642
375 2.98134
380 7.26972
385 11.4787
390 11.9653
395 10.9555
400 9.90366
405 9.92
410 11.2206
415 11.7242
420 11.0159
425 10.43
430 9.33794
435 9.63868
440 9.07866
445 8.40113
450 7.93353
455 7.1974
460 7.40961
465 6.53073
470 6.09308
475 5.59909
480 5.43295
485 5.1245
490 4.43729
495 4.22503
500 3.73118
505 3.6172
510 3.16711
515 3.06644
520 2.53196
525 2.52012
530 2.20355
535 2.18943
540 1.87822
545 1.77394
550 1.46702
555 1.37167
560 1.34552
565 1.25701
570 1.1005
575 0.891213
580 0.921181
585 0.677992
590 0.704293
595 0.735781
600 0.784636
Ex : 353
200 0.282119
205 0.34712
210 0.263554
215 0.362274
220 0.338696
225 0.428198
230 0.308422
235 0.349227
240 0.300251
245 0.280654
250 0.334047
255 0.331756
260 0.31624
265 0.299185
270 0.383606
275 0.395178
280 0.317784
285 0.341628
290 0.423911
295 0.467687
300 0.455334
305 0.410966
310 0.410092
315 0.4595
320 0.503093
325 0.474639
330 0.747888
335 1.0571
340 21.5792
345 319.3
350 453.105
355 110.343
360 14.847
365 4.36561
370 3.15233
375 2.54824
380 3.19531
385 8.28658
390 13.6154
395 13.2106
400 11.4045
405 10.3281
410 11.0734
415 12.1949
420 12.0175
425 10.5069
430 10.0287
435 9.72643
440 9.50682
445 9.08507
450 8.56793
455 7.92287
460 6.96413
465 6.77328
470 6.45749
475 5.68654
480 5.28687
485 5.1049
490 4.89788
495 4.30197
500 4.06
505 3.82012
510 3.23509
515 3.02652
520 2.43702
525 2.45616
530 2.38248
535 2.01065
540 2.0924
545 1.72536
550 1.49778
555 1.36923
560 1.17693
565 1.29175
570 1.03789
575 1.07994
580 0.905357
585 0.780746
590 0.733293
595 0.732624
600 1.09758
Ex : 358
200 0.286731
205 0.293773
210 0.240539
215 0.303158
220 0.265682
225 0.335281
230 0.261197
235 0.246348
240 0.317402
245 0.321115
250 0.296721
255 0.358462
260 0.276291
265 0.281312
270 0.353851
275 0.293799
280 0.284324
285 0.353032
290 0.355682
295 0.331588
300 0.270259
305 0.390141
310 0.372551
315 0.425591
320 0.350879
325 0.446033
330 0.517215
335 0.662104
340 0.991964
345 19.7818
350 298.698
355 450.11
360 111.082
365 14.9336
370 3.73488
375 2.78417
380 3.30858
385 4.89875
390 8.78432
395 13.5662
400 12.3347
405 11.0213
410 10.8028
415 11.7151
420 11.0967
425 9.79442
430 9.12435
435 9.27655
440 8.85423
445 8.66604
450 8.18589
455 7.65558
460 6.8765
465 6.69803
470 6.35149
475 5.8322
480 5.58523
485 5.15759
490 4.78709
495 4.53546
500 4.1506
505 3.77666
510 3.46284
515 2.99937
520 2.9936
525 2.48449
530 2.35215
535 2.10858
540 1.98286
545 1.81179
550 1.67237
555 1.5852
560 1.4374
565 1.21589
570 1.05433
575 0.907935
580 0.893679
585 0.76448
590 0.718542
595 0.567075
600 0.184538
Ex : 363
200 0.321653
205 0.285819
210 0.258925
215 0.297335
220 0.285517
225 0.320181
230 0.311792
235 0.359104
240 0.354891
245 0.477623
250 0.399864
255 0.374365
260 0.272049
265 0.258263
270 0.232316
275 0.366483
280 0.327996
285 0.327211
290 0.33472
295 0.318954
300 0.313854
305 0.316147
310 0.351224
315 0.342579
320 0.364048
325 0.503486
330 0.436015
335 0.519948
340 0.768582
345 1.00009
350 18.2554
355 290.658
360 447.6
365 114.137
370 15.2698
375 4.17549
380 4.0708
385 6.16212
390 7.90625
395 9.77684
400 12.5027
405 13.9683
410 13.7893
415 13.5205
420 11.7317
425 10.3636
430 9.52057
435 9.90875
440 9.84902
445 9.10385
450 8.82637
455 7.57209
460 7.05247
465 6.75316
470 6.57481
475 6.17418
480 5.79005
485 5.45899
490 4.91042
495 4.95942
500 4.22945
505 3.87971
510 3.66848
515 3.36546
520 3.03893
525 2.93761
530 2.3336
535 2.29035
540 2.14572
545 1.85356
550 1.655
555 1.45825
560 1.31302
565 1.2244
570 1.13774
575 0.979819
580 0.758926
585 0.695927
590 0.610957
595 0.495265
600 0.877719
Ex : 368
200 0.247191
205 0.234936
210 0.330909
215 0.312024
220 0.340359
225 0.220958
230 0.325355
235 0.305964
240 0.305913
245 0.307696
250 0.252954
255 0.233176
260 0.326682
265 0.262148
270 0.27168
275 0.24875
280 0.264435
285 0.358326
290 0.269896
295 0.302526
300 0.297615
305 0.258923
310 0.355205
315 0.38959
320 0.309379
325 0.298295
330 0.425451
335 0.44073
340 0.42964
345 0.659035
350 0.83505
355 14.7637
360 275.262
365 446.902
370 117.652
375 15.7544
380 5.10861
385 7.33899
390 9.98976
395 11.2271
400 10.9656
405 13.8989
410 17.1774
415 17.035
420 15.2583
425 13.0153
430 11.3592
435 11.0621
440 11.1648
445 10.9575
450 9.59415
455 8.63521
460 8.02805
465 7.65409
470 7.53355
475 6.78847
480 6.2752
485 5.86568
490 5.34582
495 4.8138
500 4.72191
505 4.20963
510 3.73491
515 3.37379
520 3.00702
525 2.81665
530 2.45652
535 2.10449
540 2.01574
545 1.87297
550 1.58791
555 1.49462
560 1.42087
565 1.35497
570 1.11811
575 0.897421
580 0.741254
585 0.756012
590 0.564497
595 0.560431
600 0.58437
Ex : 373
200 0.373026
205 0.260502
210 0.328859
215 0.221096
220 0.255301
225 0.305098
230 0.331225
235 0.283235
240 0.291174
245 0.257181
250 0.27034
255 0.228853
260 0.378832
265 0.249106
270 0.289676
275 0.315228
280 0.267335
285 0.28676
290 0.24179
295 0.262881
300 0.314462
305 0.347681
310 0.273067
315 0.358913
320 0.345087
325 0.322104
330 0.383119
335 0.396401
340 0.419936
345 0.569889
350 0.559379
355 0.862506
360 17.4696
365 299.268
370 459.484
375 117.337
380 16.1378
385 6.94266
390 10.3693
395 12.0787
400 10.5256
405 10.292
410 13.4661
415 18.0306
420 16.5577
425 13.5462
430 11.0073
435 10.5797
440 11.0129
445 10.4286
450 9.78329
455 8.75323
460 7.94735
465 7.19795
470 6.9525
475 6.60471
480 6.38958
485 5.54717
490 5.33053
495 4.96736
500 4.50772
505 4.08983
510 3.85676
515 3.49953
520 2.98876
525 2.70928
530 2.60497
535 2.43687
540 2.14859
545 1.83367
550 1.61144
555 1.66525
560 1.40016
565 1.25021
570 1.27824
575 1.03266
580 0.748673
585 0.590778
590 0.543544
595 0.557788
600 1.71848
Ex : 378
200 0.275812
205 0.245814
210 0.28494
215 0.246953
220 0.304411
225 0.251353
230 0.213225
235 0.306538
240 0.223926
245 0.218661
250 0.234103
255 0.253769
260 0.274737
265 0.237509
270 0.251489
275 0.256642
280 0.222347
285 0.250218
290 0.254381
295 0.253376
300 0.316241
305 0.27395
310 0.26312
315 0.31923
320 0.29454
325 0.258718
330 0.291605
335 0.338498
340 0.400774
345 0.441581
350 0.468122
355 0.648557
360 0.905858
365 17.5337
370 282.032
375 449.496
380 120.22
385 18.2629
390 8.78552
395 9.19758
400 8.32641
405 7.77832
410 9.24534
415 11.7262
420 14.1127
425 12.528
430 10.4429
435 9.36394
440 8.88029
445 8.52133
450 7.97044
455 7.22702
460 6.55121
465 6.46095
470 6.48496
475 5.98131
480 5.69311
485 4.82892
490 4.84107
495 4.68143
500 4.26666
505 4.01296
510 3.75694
515 3.29208
520 3.02234
525 2.75703
530 2.61837
535 2.43202
540 2.01015
545 1.86656
550 1.66336
555 1.60598
560 1.29428
565 1.33191
570 1.08936
575 0.907054
580 0.890158
585 0.844823
590 0.626177
595 0.532338
600 0.263139
Ex : 383
200 0.257924
205 0.324449
210 0.306308
215 0.254415
220 0.224676
225 0.233921
230 0.234279
235 0.267091
240 0.21418
245 0.243036
250 0.203708
255 0.207037
260 0.243848
265 0.212212
270 0.310215
275 0.344507
280 0.265585
285 0.287358
290 0.301024
295 0.243827
300 0.253332
305 0.252782
310 0.24887
315 0.306026
320 0.2245
325 0.303033
330 0.303903
335 0.317409
340 0.314433
345 0.406497
350 0.38175
355 0.490846
360 0.562235
365 0.825422
370 14.7222
375 271.294
380 458.621
385 124.411
390 20.864
395 9.23643
400 8.01494
405 8.71419
410 9.27938
415 10.1421
420 10.0543
425 11.8524
430 11.6614
435 10.1568
440 9.65517
445 8.63602
450 7.63604
455 7.03653
460 6.82112
465 6.46271
470 6.14306
475 6.14898
480 5.70942
485 5.81115
490 5.03784
495 4.68229
500 4.37506
505 3.79464
510 3.48027
515 3.35104
520 3.05057
525 2.88656
530 2.40792
535 2.27835
540 2.04347
545 1.91679
550 1.66576
555 1.49099
560 1.30732
565 1.2044
570 1.1397
575 1.04279
580 0.77563
585 0.605843
590 0.560033
595 0.542768
600 0.927279
Ex : 388
200 0.191908
205 0.232924
210 0.246382
215 0.218889
220 0.205886
225 0.299764
230 0.253741
235 0.277465
240 0.273041
245 0.313899
250 0.262104
255 0.287302
260 0.270146
265 0.254475
270 0.222942
275 0.246981
280 0.261266
285 0.220995
290 0.230867
295 0.266806
300 0.250558
305 0.256902
310 0.273553
315 0.315582
320 0.315185
325 0.277013
330 0.271966
335 0.299277
340 0.27491
345 0.359644
350 0.370917
355 0.397189
360 0.474293
365 0.46872
370 0.809642
375 16.1695
380 278.831
385 457.91
390 125.672
395 23.2334
400 10.5432
405 10.002
410 11.2372
415 12.2855
420 11.6023
425 10.3182
430 11.7818
435 12.7401
440 11.318
445 10.1746
450 8.45404
455 7.70889
460 7.14477
465 6.73275
470 6.74909
475 6.29146
480 5.85258
485 5.30595
490 4.97454
495 4.76301
500 4.51842
505 4.2144
510 3.62501
515 3.2883
520 3.00235
525 2.59974
530 2.57419
535 2.41498
540 2.21169
545 1.90922
550 1.70502
555 1.56147
560 1.4709
565 1.2044
570 1.04446
575 0.829954
580 0.759498
585 0.650136
590 0.572793
595 0.420219
600 0.196622
Ex : 393
200 0.269182
205 0.211113
210 0.230805
215 0.214597
220 0.254233
225 0.215103
230 0.232339
235 0.267304
240 0.225419
245 0.199625
250 0.247723
255 0.197615
260 0.261691
265 0.213014
270 0.18967
275 0.22566
280 0.29251
285 0.3025
290 0.220743
295 0.215403
300 0.251258
305 0.232336
310 0.257764
315 0.246591
320 0.213666
325 0.25449
330 0.311264
335 0.311587
340 0.322222
345 0.331817
350 0.311604
355 0.360257
360 0.45685
365 0.429797
370 0.537077
375 0.899273
380 14.5943
385 276.418
390 465.485
395 129.921
400 23.3075
405 9.98766
410 10.3328
415 12.6357
420 12.0991
425 10.6179
430 9.31684
435 10.1043
440 12.3193
445 11.1211
450 9.68045
455 7.87269
460 6.8397
465 6.49463
470 6.16333
475 5.98513
480 5.45856
485 5.25983
490 4.79264
495 4.47487
500 4.16863
505 3.82918
510 3.60166
515 3.27361
520 2.95173
525 2.66494
530 2.47282
535 2.22131
540 1.95115
545 1.91799
550 1.63988
555 1.51181
560 1.38255
565 1.24302
570 0.928186
575 0.921019
580 0.720766
585 0.70067
590 0.626043
595 0.488518
600 0.539547
Ex : 398
200 0.238325
205 0.257621
210 0.244984
215 0.241693
220 0.245537
225 0.165353
230 0.204392
235 0.199926
240 0.192822
245 0.223225
250 0.224961
255 0.183216
260 0.162964
265 0.193894
270 0.237953
275 0.295662
280 0.292841
285 0.269002
290 0.236907
295 0.235039
300 0.309995
305 0.257097
310 0.176021
315 0.249342
320 0.253575
325 0.242033
330 0.267881
335 0.275789
340 0.276609
345 0.259912
350 0.389092
355 0.35657
360 0.362333
365 0.382975
370 0.433864
375 0.495272
380 0.916099
385 14.9504
390 282.107
395 469.904
400 127.98
405 19.5719
410 7.98706
415 8.13596
420 8.35392
425 6.99978
430 5.86789
435 5.73032
440 7.19648
445 9.19422
450 8.44412
455 6.88092
460 5.9227
465 5.21345
470 4.88262
475 4.97035
480 4.6977
485 4.63887
490 4.11132
495 4.0512
500 3.87599
505 3.38124
510 3.20404
515 2.99032
520 2.76278
525 2.49466
530 2.29253
535 2.19687
540 1.95456
545 1.71908
550 1.6148
555 1.56533
560 1.41633
565 1.24834
570 1.08545
575 0.974859
580 0.706441
585 0.644501
590 0.532797
595 0.453917
600 0.779714
Ex : 403
200 0.228454
205 0.25465
210 0.201234
215 0.247911
220 0.215712
225 0.265519
230 0.229898
235 0.252425
240 0.284841
245 0.191091
250 0.168411
255 0.26555
260 0.203691
265 0.222091
270 0.329182
275 0.174602
280 0.239809
285 0.211858
290 0.229833
295 0.202084
300 0.265807
305 0.243226
310 0.215468
315 0.243257
320 0.174746
325 0.239766
330 0.217893
335 0.231725
340 0.2161
345 0.233588
350 0.277455
355 0.26145
360 0.314848
365 0.334067
370 0.351177
375 0.477436
380 0.53821
385 1.02182
390 16.7334
395 283.325
400 459.324
405 125.178
410 17.4463
415 5.71755
420 4.49052
425 4.44839
430 3.78522
435 3.63533
440 4.17812
445 4.6572
450 6.41468
455 6.94699
460 5.44925
465 4.94297
470 4.64128
475 4.07168
480 4.09671
485 3.86138
490 3.8249
495 3.91034
500 3.61421
505 3.4351
510 3.12292
515 2.92381
520 2.70603
525 2.59761
530 2.47027
535 1.88883
540 1.88242
545 1.66216
550 1.52281
555 1.39762
560 1.21321
565 1.18917
570 0.995028
575 0.949099
580 0.782501
585 0.589777
590 0.513939
595 0.426259
600 0.763478
Ex : 408
200 0.151476
205 0.148983
210 0.249593
215 0.193522
220 0.230181
225 0.229612
230 0.186717
235 0.232427
240 0.241321
245 0.259361
250 0.237562
255 0.252913
260 0.183682
265 0.212839
270 0.281214
275 0.209141
280 0.200535
285 0.193222
290 0.229341
295 0.269231
300 0.228045
305 0.226417
310 0.185617
315 0.18434
320 0.221725
325 0.260614
330 0.289651
335 0.244296
340 0.311664
345 0.269164
350 0.255822
355 0.228223
360 0.328723
365 0.358484
370 0.281867
375 0.362736
380 0.428354
385 0.512375
390 0.848168
395 15.6252
400 283.942
405 457.537
410 118.697
415 16.7241
420 4.93864
425 3.56494
430 3.68862
435 3.5387
440 3.59334
445 3.82532
450 3.81561
455 5.56558
460 6.66896
465 5.63607
470 4.80879
475 4.51447
480 3.94392
485 3.59608
490 3.74055
495 3.34871
500 3.3403
505 3.17488
510 3.00164
515 2.85971
520 2.54494
525 2.38893
530 2.25314
535 1.94383
540 1.89814
545 1.69341
550 1.53798
555 1.43521
560 1.37356
565 1.09283
570 0.94941
575 0.81325
580 0.777485
585 0.596381
590 0.554038
595 0.46702
600 0.264999
Ex : 413
200 0.203244
205 0.217807
210 0.176044
215 0.222837
220 0.243
225 0.183668
230 0.245602
235 0.269506
240 0.205413
245 0.240869
250 0.224602
255 0.210922
260 0.224902
265 0.239073
270 0.258526
275 0.249189
280 0.278054
285 0.222732
290 0.175591
295 0.19074
300 0.244491
305 0.209767
310 0.182717
315 0.195648
320 0.215653
325 0.246792
330 0.202943
335 0.26086
340 0.271971
345 0.209201
350 0.259378
355 0.320205
360 0.240008
365 0.338931
370 0.286289
375 0.316533
380 0.378365
385 0.491288
390 0.658853
395 0.853395
400 17.1038
405 290.713
410 455.289
415 115.975
420 15.9239
425 4.39281
430 2.96589
435 3.34657
440 3.466
445 3.33796
450 3.17519
455 3.37182
460 4.59343
465 6.19282
470 5.36418
475 4.52626
480 4.37473
485 3.88607
490 3.34093
495 3.35373
500 3.12
505 3.07757
510 2.85303
515 2.71261
520 2.4683
525 2.32733
530 2.01429
535 2.00198
540 1.85458
545 1.49756
550 1.5308
555 1.39926
560 1.28618
565 1.03504
570 0.996244
575 0.851113
580 0.807177
585 0.580503
590 0.606909
595 0.413942
600 0.0648291
Ex : 418
200 0.193854
205 0.222785
210 0.205141
215 0.200529
220 0.230839
225 0.200758
230 0.188468
235 0.230875
240 0.235195
245 0.258952
250 0.236031
255 0.202969
260 0.227536
265 0.218339
270 0.179353
275 0.191444
280 0.19865
285 0.238642
290 0.193009
295 0.174145
300 0.218793
305 0.1793
310 0.221026
315 0.204001
320 0.214805
325 0.183133
330 0.182971
335 0.30753
340 0.247845
345 0.237825
350 0.251035
355 0.225384
360 0.267544
365 0.315069
370 0.30044
375 0.264556
380 0.290199
385 0.328448
390 0.407794
395 0.600545
400 0.780623
405 15.584
410 285.289
415 456.13
420 119.204
425 15.7915
430 3.8634
435 2.61517
440 2.63578
445 2.72772
450 2.41374
455 2.42338
460 2.53987
465 3.10625
470 5.10171
475 5.40558
480 4.24263
485 3.80774
490 3.22583
495 3.12044
500 2.88322
505 2.87038
510 2.55067
515 2.49462
520 2.20277
525 2.17676
530 1.96577
535 1.78352
540 1.79382
545 1.46075
550 1.48694
555 1.3137
560 1.23586
565 1.17347
570 0.92759
575 0.823229
580 0.691225
585 0.563289
590 0.509404
595 0.409336
600 0.528908
Ex : 423
200 0.230433
205 0.241898
210 0.264171
215 0.232835
220 0.229829
225 0.210095
230 0.190742
235 0.167464
240 0.225513
245 0.233088
250 0.234151
255 0.211811
260 0.232855
265 0.215943
270 0.182192
275 0.218228
280 0.145208
285 0.248069
290 0.234778
295 0.242072
300 0.221156
305 0.212396
310 0.184922
315 0.261435
320 0.210869
325 0.20321
330 0.241181
335 0.217556
340 0.263439
345 0.25106
350 0.287889
355 0.236827
360 0.242622
365 0.245675
370 0.246531
375 0.333455
380 0.274953
385 0.371487
390 0.37683
395 0.458759
400 0.48882
405 0.777032
410 16.5591
415 298.644
420 457.87
425 113.075
430 14.6025
435 3.13999
440 1.91792
445 2.15184
450 2.10574
455 1.89744
460 1.90975
465 2.12369
470 2.64149
475 4.26508
480 5.03858
485 3.91781
490 3.38852
495 3.02035
500 2.7151
505 2.58354
510 2.3559
515 2.25966
520 2.17077
525 1.95646
530 1.97148
535 1.7955
540 1.57419
545 1.45582
550 1.41783
555 1.31897
560 1.19154
565 1.0259
570 0.89239
575 0.750862
580 0.654292
585 0.607572
590 0.559678
595 0.494817
600 0.568916
Ex : 428
200 0.228094
205 0.180313
210 0.161302
215 0.199881
220 0.21511
225 0.221159
230 0.232029
235 0.185466
240 0.197374
245 0.172353
250 0.194273
255 0.202015
260 0.213068
265 0.240329
270 0.218327
275 0.207582
280 0.1962
285 0.208101
290 0.188725
295 0.224881
300 0.307189
305 0.230547
310 0.231674
315 0.280433
320 0.254478
325 0.294145
330 0.241258
335 0.229095
340 0.250742
345 0.285027
350 0.267235
355 0.33035
360 0.229538
365 0.249827
370 0.294069
375 0.304695
380 0.265564
385 0.263101
390 0.388173
395 0.450141
400 0.470189
405 0.526214
410 0.950157
415 17.4569
420 289.941
425 445.931
430 114.728
435 14.5559
440 3.06616
445 1.74514
450 1.90536
455 2.03612
460 1.81035
465 1.69655
470 1.99158
475 2.17026
480 3.48911
485 4.80517
490 3.95583
495 3.0885
500 2.90598
505 2.42347
510 2.31552
515 2.24091
520 2.09592
525 1.87686
530 1.75889
535 1.76884
540 1.61064
545 1.45405
550 1.44916
555 1.24844
560 1.1659
565 0.903559
570 0.850616
575 0.848196
580 0.695613
585 0.57016
590 0.563915
595 0.50281
600 0.16725
Ex : 433
200 0.162013
205 0.248575
210 0.240406
215 0.230517
220 0.247042
225 0.277644
230 0.255648
235 0.20313
240 0.20266
245 0.22251
250 0.229069
255 0.167857
260 0.309805
265 0.212336
270 0.204175
275 0.205934
280 0.164328
285 0.19442
290 0.178701
295 0.213138
300 0.234393
305 0.254325
310 0.229545
315 0.223707
320 0.235311
325 0.167602
330 0.210808
335 0.238012
340 0.253943
345 0.281021
350 0.254469
355 0.243128
360 0.2178
365 0.224539
370 0.245908
375 0.279184
380 0.343659
385 0.276333
390 0.311744
395 0.381503
400 0.357055
405 0.392145
410 0.504119
415 0.751184
420 19.5467
425 309.118
430 453.065
435 110.961
440 14.2839
445 3.09327
450 1.72688
455 1.94729
460 2.03178
465 1.77612
470 1.63876
475 1.90701
480 2.11541
485 2.88553
490 4.55007
495 3.99419
500 3.03109
505 2.75581
510 2.35747
515 2.10862
520 1.86727
525 1.98041
530 1.74171
535 1.73514
540 1.51829
545 1.52534
550 1.21445
555 1.20694
560 1.06561
565 1.09741
570 0.895581
575 0.876489
580 0.697538
585 0.668544
590 0.507553
595 0.448118
600 0.141423
Ex : 438
200 0.193874
205 0.192043
210 0.208772
215 0.230447
220 0.23055
225 0.241574
230 0.227289
235 0.300492
240 0.198437
245 0.187164
250 0.234437
255 0.211774
260 0.274984
265 0.218343
270 0.215121
275 0.207686
280 0.219353
285 0.19642
290 0.223912
295 0.224735
300 0.211868
305 0.256809
310 0.242564
315 0.23469
320 0.261729
325 0.173137
330 0.214078
335 0.240109
340 0.17739
345 0.22781
350 0.19549
355 0.272417
360 0.266249
365 0.254426
370 0.25097
375 0.222989
380 0.256
385 0.337037
390 0.291883
395 0.274193
400 0.245697
405 0.350209
410 0.427472
415 0.577065
420 0.859883
425 18.6638
430 302.914
435 474.012
440 117.399
445 14.9292
450 3.18719
455 1.61926
460 1.73167
465 2.06462
470 1.8214
475 1.72985
480 1.82645
485 1.86789
490 2.40271
495 3.81054
500 4.29267
505 2.85908
510 2.55369
515 2.36272
520 1.86272
525 1.87644
530 1.68293
535 1.70816
540 1.47603
545 1.43811
550 1.35475
555 1.25519
560 1.17712
565 0.979858
570 0.919954
575 0.795422
580 0.660254
585 0.566483
590 0.52446
595 0.490984
600 0.29458
Ex : 443
200 0.23724
205 0.261328
210 0.245158
215 0.1789
220 0.2327
225 0.188767
230 0.212639
235 0.205735
240 0.175426
245 0.241839
250 0.202514
255 0.268809
260 0.225883
265 0.203526
270 0.19235
275 0.186161
280 0.26287
285 0.310751
290 0.264469
295 0.250704
300 0.223597
305 0.195222
310 0.193587
315 0.202603
320 0.191364
325 0.272852
330 0.268282
335 0.221935
340 0.232092
345 0.237533
350 0.231667
355 0.255289
360 0.239857
365 0.237729
370 0.277346
375 0.24252
380 0.220913
385 0.268326
390 0.26175
395 0.314226
400 0.287315
405 0.28176
410 0.411166
415 0.42147
420 0.537064
425 0.725823
430 19.7733
435 320.332
440 471.188
445 115.715
450 14.6791
455 3.17238
460 1.61291
465 1.72425
470 1.90479
475 1.96281
480 1.80779
485 1.64219
490 1.68323
495 2.18753
500 3.18285
505 4.01646
510 3.00925
515 2.46505
520 2.24089
525 2.04875
530 1.7579
535 1.73694
540 1.47427
545 1.37866
550 1.32366
555 1.14991
560 1.14619
565 0.985172
570 0.893354
575 0.894758
580 0.730983
585 0.614716
590 0.536647
595 0.421999
600 0.410972
Ex : 448
200 0.160572
205 0.201725
210 0.302196
215 0.163051
220 0.243596
225 0.180474
230 0.186728
235 0.229392
240 0.172477
245 0.200377
250 0.226581
255 0.225509
260 0.190502
265 0.188602
270 0.207618
275 0.192358
280 0.20865
285 0.211812
290 0.227805
295 0.254082
300 0.246921
305 0.226614
310 0.277911
315 0.239562
320 0.254341
325 0.241864
330 0.309587
335 0.237377
340 0.262503
345 0.243943
350 0.250055
355 0.201898
360 0.244707
365 0.246527
370 0.278074
375 0.2952
380 0.30802
385 0.259552
390 0.265959
395 0.342162
400 0.296963
405 0.326443
410 0.295591
415 0.402642
420 0.44215
425 0.594831
430 0.814924
435 20.0486
440 330.473
445 489.26
450 119.834
455 15.1916
460 3.19364
465 1.74391
470 1.79614
475 1.87366
480 1.84498
485 1.64259
490 1.59674
495 1.67661
500 1.80761
505 2.52133
510 3.90645
515 3.33514
520 2.43471
525 2.20994
530 1.98275
535 1.60211
540 1.58196
545 1.41499
550 1.26308
555 1.16024
560 1.13408
565 0.923394
570 0.839767
575 0.746998
580 0.661405
585 0.596604
590 0.480742
595 0.413128
600 0.27007
Ex : 453
200 0.175142
205 0.214573
210 0.184027
215 0.20067
220 0.21542
225 0.164278
230 0.192845
235 0.212017
240 0.28026
245 0.258333
250 0.262584
255 0.241507
260 0.201867
265 0.180234
270 0.199321
275 0.192156
280 0.214932
285 0.178004
290 0.287922
295 0.198303
300 0.253852
305 0.242545
310 0.239935
315 0.225609
320 0.258345
325 0.208302
330 0.199829
335 0.241818
340 0.299806
345 0.269755
350 0.236098
355 0.164389
360 0.251015
365 0.30646
370 0.230865
375 0.263562
380 0.301307
385 0.278694
390 0.293749
395 0.2445
400 0.294048
405 0.317448
410 0.27357
415 0.34399
420 0.435515
425 0.443709
430 0.513233
435 0.838079
440 20.7381
445 353.598
450 505.044
455 118.706
460 15.0818
465 3.06646
470 1.61728
475 1.66349
480 1.79396
485 1.85928
490 1.59096
495 1.59176
500 1.60681
505 1.68228
510 2.1488
515 3.42058
520 3.48615
525 2.51116
530 2.14039
535 1.99722
540 1.64013
545 1.41314
550 1.22532
555 1.24793
560 1.15839
565 0.975694
570 1.00167
575 0.875716
580 0.666047
585 0.531009
590 0.49205
595 0.451874
600 0.514534
Ex : 458
200 0.177675
205 0.154682
210 0.233585
215 0.180765
220 0.30132
225 0.223562
230 0.273943
235 0.232402
240 0.235679
245 0.196375
250 0.179527
255 0.226628
260 0.237739
265 0.173074
270 0.273546
275 0.181414
280 0.192618
285 0.24026
290 0.257403
295 0.246485
300 0.260011
305 0.323472
310 0.232145
315 0.20495
320 0.228094
325 0.250479
330 0.204021
335 0.176241
340 0.245391
345 0.247817
350 0.241977
355 0.249605
360 0.166393
365 0.21728
370 0.212889
375 0.297052
380 0.258567
385 0.206179
390 0.343427
395 0.36124
400 0.315475
405 0.339788
410 0.321449
415 0.306417
420 0.32021
425 0.365478
430 0.438957
435 0.603526
440 0.9015
445 22.9204
450 356.013
455 523.084
460 125.063
465 15.8777
470 3.2847
475 1.73209
480 1.53575
485 1.93464
490 1.76669
495 1.48723
500 1.45803
505 1.41028
510 1.67949
515 1.77792
520 2.80667
525 3.43238
530 2.55949
535 1.99194
540 1.93093
545 1.63438
550 1.36241
555 1.20871
560 1.06809
565 1.0615
570 0.840537
575 0.855059
580 0.671471
585 0.521503
590 0.490261
595 0.460428
600 0.498451
Ex : 463
200 0.197328
205 0.175132
210 0.181893
215 0.202802
220 0.212112
225 0.226363
230 0.252331
235 0.204743
240 0.144318
245 0.199872
250 0.186317
255 0.143727
260 0.242859
265 0.247744
270 0.246328
275 0.211501
280 0.230582
285 0.201949
290 0.208803
295 0.155769
300 0.228473
305 0.24715
310 0.208819
315 0.198486
320 0.171732
325 0.228569
330 0.22766
335 0.216272
340 0.225313
345 0.213894
350 0.25425
355 0.22464
360 0.258967
365 0.213242
370 0.231094
375 0.192352
380 0.205769
385 0.241872
390 0.284441
395 0.24193
400 0.294206
405 0.30562
410 0.329847
415 0.306045
420 0.332418
425 0.327482
430 0.327854
435 0.451114
440 0.555972
445 0.840786
450 22.7058
455 375.422
460 554.448
465 130.886
470 16.4503
475 3.28659
480 1.64419
485 1.48684
490 1.73813
495 1.61748
500 1.45212
505 1.27766
510 1.27054
515 1.49791
520 1.56662
525 2.25927
530 3.49362
535 2.85877
540 1.97444
545 1.74068
550 1.57496
555 1.33337
560 1.12126
565 1.06823
570 0.940753
575 0.788426
580 0.750859
585 0.687347
590 0.504599
595 0.418204
600 0.196671
Ex : 468
200 0.151594
205 0.138627
210 0.224979
215 0.201187
220 0.211356
225 0.227918
230 0.230167
235 0.192719
240 0.210244
245 0.215881
250 0.185521
255 0.226669
260 0.264357
265 0.198692
270 0.194329
275 0.187158
280 0.260879
285 0.166502
290 0.164686
295 0.190144
300 0.218539
305 0.16411
310 0.175714
315 0.202708
320 0.164371
325 0.18408
330 0.190014
335 0.196727
340 0.197205
345 0.209913
350 0.217826
355 0.225342
360 0.176402
365 0.202464
370 0.238396
375 0.188697
380 0.234162
385 0.240817
390 0.257701
395 0.246824
400 0.246972
405 0.254532
410 0.247506
415 0.271184
420 0.305746
425 0.282324
430 0.295318
435 0.334573
440 0.403503
445 0.576585
450 0.783874
455 24.5814
460 381.515
465 586.303
470 136.686
475 17.0667
480 3.29068
485 1.47112
490 1.35468
495 1.53726
500 1.58137
505 1.57689
510 1.38015
515 1.37968
520 1.39802
525 1.38767
530 1.85333
535 2.80609
540 2.94802
545 2.02444
550 1.83123
555 1.5789
560 1.30553
565 0.963627
570 0.932753
575 0.824211
580 0.736732
585 0.582181
590 0.444972
595 0.479768
600 0.440443
Ex : 473
200 0.215407
205 0.197201
210 0.227855
215 0.188556
220 0.187636
225 0.197867
230 0.189808
235 0.19535
240 0.203161
245 0.18022
250 0.207584
255 0.164233
260 0.235878
265 0.207849
270 0.166151
275 0.200724
280 0.216056
285 0.212154
290 0.162058
295 0.210333
300 0.195438
305 0.200386
310 0.158653
315 0.174166
320 0.187341
325 0.205836
330 0.197958
335 0.229846
340 0.209868
345 0.23699
350 0.22268
355 0.193232
360 0.189391
365 0.206932
370 0.22514
375 0.191919
380 0.267509
385 0.199191
390 0.219107
395 0.229579
400 0.205953
405 0.239396
410 0.246562
415 0.278933
420 0.278843
425 0.305182
430 0.337851
435 0.306499
440 0.370132
445 0.469172
450 0.640425
455 0.893927
460 28.0256
465 413.658
470 561.352
475 127.396
480 15.905
485 3.1805
490 1.47241
495 1.31129
500 1.47226
505 1.46194
510 1.43756
515 1.29101
520 1.42724
525 1.43047
530 1.46832
535 1.6493
540 2.42354
545 3.0194
550 2.0875
555 1.55988
560 1.48419
565 1.36534
570 1.02319
575 0.87414
580 0.768031
585 0.563198
590 0.530594
595 0.449986
600 1.03322
Ex : 478
200 0.228761
205 0.181125
210 0.213234
215 0.223744
220 0.234176
225 0.224192
230 0.26508
235 0.257633
240 0.264557
245 0.231199
250 0.211342
255 0.273844
260 0.249439
265 0.182033
270 0.230016
275 0.24654
280 0.236405
285 0.210185
290 0.241531
295 0.244818
300 0.27211
305 0.243859
310 0.216186
315 0.169344
320 0.336815
325 0.18228
330 0.233879
335 0.28987
340 0.235319
345 0.310348
350 0.212728
355 0.186383
360 0.200825
365 0.246026
370 0.22827
375 0.208471
380 0.244015
385 0.214028
390 0.259438
395 0.365302
400 0.344312
405 0.269641
410 0.312704
415 0.396473
420 0.298219
425 0.363496
430 0.415133
435 0.370768
440 0.403287
445 0.459631
450 0.524622
455 0.716912
460 1.05589
465 30.0521
470 418.606
475 693.954
480 153.874
485 19.0815
490 3.46965
495 1.4973
500 1.27025
505 1.43476
510 1.57298
515 1.54094
520 1.39789
525 1.36814
530 1.43958
535 1.52946
540 1.62829
545 2.00607
550 2.64211
555 2.36695
560 1.7135
565 1.49591
570 1.20678
575 0.959128
580 0.798983
585 0.632652
590 0.598427
595 0.598481
600 0.46448
Ex : 483
200 0.228267
205 0.198029
210 0.247369
215 0.193014
220 0.226496
225 0.198597
230 0.253228
235 0.211483
240 0.249707
245 0.212737
250 0.22976
255 0.300565
260 0.237256
265 0.245585
270 0.191588
275 0.219443
280 0.300479
285 0.203643
290 0.256754
295 0.28694
300 0.216214
305 0.200096
310 0.317174
315 0.278143
320 0.293974
325 0.231502
330 0.279733
335 0.304912
340 0.275331
345 0.331852
350 0.22449
355 0.288792
360 0.313073
365 0.280174
370 0.189574
375 0.215755
380 0.218623
385 0.275118
390 0.294296
395 0.293989
400 0.267412
405 0.312058
410 0.294459
415 0.27134
420 0.301095
425 0.320185
430 0.294867
435 0.348468
440 0.402084
445 0.371626
450 0.500958
455 0.556131
460 0.705122
465 1.00152
470 24.1625
475 416.347
480 621.344
485 145.705
490 18.0715
495 3.43999
500 1.51154
505 1.18854
510 1.3813
515 1.60197
520 1.61359
525 1.71143
530 1.55514
535 1.5396
540 1.49673
545 1.41046
550 1.65694
555 2.48858
560 2.53446
565 1.57254
570 1.24809
575 1.12303
580 0.835165
585 0.65228
590 0.572269
595 0.502961
600 0.274787
Ex : 488
200 0.409221
205 0.32944
210 0.23724
215 0.289789
220 0.22917
225 0.188369
230 0.222061
235 0.263432
240 0.306638
245 0.251472
250 0.3524
255 0.270883
260 0.305439
265 0.327633
270 0.226329
275 0.271183
280 0.276201
285 0.361752
290 0.210653
295 0.26223
300 0.242822
305 0.267361
310 0.258095
315 0.209882
320 0.328735
325 0.249937
330 0.249
335 0.254103
340 0.283384
345 0.344021
350 0.293526
355 0.285719
360 0.341164
365 0.252131
370 0.258167
375 0.322751
380 0.356791
385 0.24571
390 0.245658
395 0.325586
400 0.380789
405 0.372335
410 0.374514
415 0.31181
420 0.293387
425 0.329415
430 0.252425
435 0.301469
440 0.378552
445 0.394781
450 0.393775
455 0.612802
460 0.5234
465 0.772697
470 1.04508
475 29.0306
480 442.827
485 619.206
490 143.35
495 17.8083
500 3.26911
505 1.57568
510 1.36083
515 1.40154
520 1.79253
525 1.69918
530 1.42777
535 1.43245
540 1.58134
545 1.49517
550 1.24879
555 1.36682
560 1.87258
565 2.32204
570 1.6461
575 1.26707
580 0.969126
585 0.861009
590 0.72101
595 0.594429
600 0.708273
Ex : 493
200 0.283019
205 0.26842
210 0.244054
215 0.199437
220 0.273656
225 0.261682
230 0.306642
235 0.218662
240 0.18797
245 0.22365
250 0.231307
255 0.281503
260 0.210991
265 0.329539
270 0.332618
275 0.281853
280 0.250791
285 0.266852
290 0.302054
295 0.292023
300 0.2926
305 0.253277
310 0.32671
315 0.260808
320 0.291056
325 0.256237
330 0.249384
335 0.259924
340 0.274192
345 0.252477
350 0.305032
355 0.310742
360 0.266098
365 0.26149
370 0.326712
375 0.28428
380 0.248966
385 0.239457
390 0.254152
395 0.375896
400 0.338092
405 0.299637
410 0.37292
415 0.327045
420 0.315641
425 0.344642
430 0.294828
435 0.308961
440 0.283507
445 0.290005
450 0.345417
455 0.385685
460 0.3801
465 0.627335
470 0.784662
475 1.06398
480 27.8322
485 433.972
490 628.605
495 141.672
500 17.6288
505 3.27634
510 1.56628
515 1.31862
520 1.54251
525 1.73476
530 1.8178
535 1.58628
540 1.53978
545 1.40473
550 1.22818
555 1.16811
560 1.14238
565 1.42369
570 1.87291
575 1.53636
580 1.06878
585 1.01361
590 0.771107
595 0.597703
600 0.1351
Ex : 498
200 0.230696
205 0.320429
210 0.304836
215 0.319012
220 0.304559
225 0.288856
230 0.269217
235 0.258134
240 0.327039
245 0.287405
250 0.283343
255 0.323812
260 0.260874
265 0.328624
270 0.334895
275 0.227287
280 0.293432
285 0.266126
290 0.275119
295 0.267729
300 0.345229
305 0.315019
310 0.275649
315 0.275114
320 0.322299
325 0.281143
330 0.273469
335 0.36209
340 0.329299
345 0.246537
350 0.320826
355 0.283422
360 0.305273
365 0.366535
370 0.308408
375 0.239822
380 0.328895
385 0.307971
390 0.34888
395 0.343137
400 0.310786
405 0.322065
410 0.363499
415 0.318156
420 0.300452
425 0.379746
430 0.316067
435 0.359961
440 0.303478
445 0.332852
450 0.282341
455 0.47302
460 0.451166
465 0.586327
470 0.516505
475 0.762393
480 1.18189
485 32.2652
490 467.574
495 609.7
500 137.987
505 17.2163
510 3.22078
515 1.81433
520 1.61476
525 1.56387
530 1.79495
535 1.71075
540 1.65343
545 1.44801
550 1.27209
555 1.21949
560 1.0964
565 1.12352
570 1.11709
575 1.5171
580 1.55743
585 1.06485
590 0.785852
595 0.604977
600 0.633505
Ex : 503
200 0.294302
205 0.317232
210 0.406314
215 0.245832
220 0.289689
225 0.358328
230 0.317262
235 0.313516
240 0.321184
245 0.28704
250 0.32153
255 0.226061
260 0.335497
265 0.3443
270 0.376482
275 0.368619
280 0.283858
285 0.245647
290 0.318357
295 0.276408
300 0.277872
305 0.351694
310 0.424359
315 0.272859
320 0.300505
325 0.281523
330 0.363198
335 0.310561
340 0.346844
345 0.323712
350 0.341655
355 0.377845
360 0.350894
365 0.295004
370 0.367132
375 0.349927
380 0.293309
385 0.314024
390 0.248432
395 0.307381
400 0.293359
405 0.357396
410 0.327711
415 0.278675
420 0.334937
425 0.432182
430 0.466742
435 0.322362
440 0.402742
445 0.368014
450 0.410293
455 0.401211
460 0.433527
465 0.583058
470 0.4993
475 0.612854
480 0.603869
485 1.06693
490 29.8802
495 460.922
500 627.649
505 142.792
510 17.7444
515 3.44604
520 1.76262
525 1.58099
530 1.54053
535 1.64012
540 1.79222
545 1.63426
550 1.38841
555 1.2066
560 1.1514
565 0.9275
570 0.992945
575 1.0946
580 1.17697
585 1.31258
590 1.02385
595 0.836438
600 1.07292
Ex : 508
200 0.387722
205 0.317935
210 0.293001
215 0.357398
220 0.313317
225 0.336474
230 0.299351
235 0.270247
240 0.258246
245 0.279802
250 0.324851
255 0.246454
260 0.290127
265 0.273269
270 0.29366
275 0.239634
280 0.257897
285 0.327845
290 0.347484
295 0.35924
300 0.35378
305 0.276524
310 0.379221
315 0.37176
320 0.303984
325 0.289851
330 0.332683
335 0.318468
340 0.392921
345 0.29933
350 0.289903
355 0.268533
360 0.307555
365 0.339459
370 0.483973
375 0.34697
380 0.409537
385 0.40215
390 0.344558
395 0.376806
400 0.374545
405 0.363914
410 0.317011
415 0.410732
420 0.385433
425 0.335099
430 0.339604
435 0.330368
440 0.364233
445 0.352477
450 0.418119
455 0.474754
460 0.387666
465 0.456818
470 0.476531
475 0.571672
480 0.692097
485 0.933163
490 1.03209
495 30.532
500 452.564
505 620.5
510 147.472
515 18.4095
520 3.38075
525 1.88319
530 1.50612
535 1.37993
540 1.45322
545 1.58754
550 1.45016
555 1.39612
560 1.13271
565 1.03079
570 0.939195
575 0.903325
580 0.896918
585 0.807418
590 1.20939
595 0.817314
600 1.2848
Ex : 513
200 0.25333
205 0.3364
210 0.288439
215 0.286193
220 0.346625
225 0.358294
230 0.372395
235 0.324375
240 0.353414
245 0.277958
250 0.359874
255 0.302824
260 0.181821
265 0.292477
270 0.428532
275 0.263389
280 0.322162
285 0.433473
290 0.334554
295 0.398472
300 0.284053
305 0.327547
310 0.245748
315 0.30485
320 0.366417
325 0.356187
330 0.345512
335 0.304643
340 0.294402
345 0.350018
350 0.321956
355 0.353856
360 0.321126
365 0.335839
370 0.399977
375 0.366444
380 0.34683
385 0.334727
390 0.302279
395 0.375657
400 0.359265
405 0.366082
410 0.308726
415 0.343232
420 0.24569
425 0.414852
430 0.346644
435 0.383939
440 0.422851
445 0.414986
450 0.307765
455 0.506412
460 0.389313
465 0.510562
470 0.4997
475 0.495008
480 0.481806
485 0.657335
490 0.810464
495 1.13189
500 28.7965
505 449.042
510 644.161
515 154.217
520 19.2591
525 3.6158
530 1.84753
535 1.62358
540 1.39927
545 1.4425
550 1.47678
555 1.3099
560 1.07912
565 1.04126
570 1.09609
575 0.942274
580 0.771237
585 0.719803
590 0.748223
595 1.0073
600 1.20909
Ex : 518
200 0.339031
205 0.340091
210 0.42616
215 0.330745
220 0.277075
225 0.390677
230 0.32814
235 0.273949
240 0.302369
245 0.386001
250 0.299644
255 0.356184
260 0.365813
265 0.388552
270 0.363864
275 0.285077
280 0.35636
285 0.348189
290 0.35799
295 0.279352
300 0.405594
305 0.393753
310 0.306563
315 0.327541
320 0.323198
325 0.360717
330 0.29574
335 0.360325
340 0.214267
345 0.31197
350 0.375332
355 0.360056
360 0.344742
365 0.333306
370 0.338737
375 0.302369
380 0.268904
385 0.437495
390 0.272986
395 0.383664
400 0.412911
405 0.43783
410 0.423942
415 0.290719
420 0.245829
425 0.380246
430 0.391533
435 0.313956
440 0.461677
445 0.399634
450 0.344564
455 0.37071
460 0.408811
465 0.569748
470 0.447262
475 0.500144
480 0.528623
485 0.601767
490 0.670956
495 0.815575
500 1.20558
505 28.8007
510 433.494
515 625.483
520 151.849
525 18.9144
530 3.6174
535 1.70918
540 1.47381
545 1.46289
550 1.40947
555 1.32259
560 1.13296
565 1.08593
570 0.881182
575 0.874579
580 0.712231
585 0.576726
590 0.650156
595 0.593257
600 0.766424
Ex : 523
200 0.299112
205 0.427176
210 0.452934
215 0.361759
220 0.275727
225 0.284026
230 0.418819
235 0.342492
240 0.303496
245 0.341921
250 0.289617
255 0.270522
260 0.426161
265 0.328636
270 0.438004
275 0.279764
280 0.2803
285 0.263308
290 0.362149
295 0.367636
300 0.35828
305 0.350288
310 0.459337
315 0.352541
320 0.388261
325 0.398664
330 0.321407
335 0.381519
340 0.360565
345 0.47778
350 0.376284
355 0.473089
360 0.383401
365 0.466541
370 0.341604
375 0.420703
380 0.356392
385 0.325167
390 0.379364
395 0.384708
400 0.355098
405 0.31707
410 0.441001
415 0.437238
420 0.45753
425 0.379713
430 0.4078
435 0.393596
440 0.373528
445 0.362451
450 0.455689
455 0.502249
460 0.427664
465 0.484784
470 0.570757
475 0.458603
480 0.421962
485 0.582532
490 0.582484
495 0.701354
500 0.809847
505 1.24927
510 27.4232
515 420.156
520 622.35
525 157.346
530 19.6436
535 3.57396
540 1.6867
545 1.43833
550 1.33783
555 1.17918
560 1.22395
565 1.04599
570 1.04901
575 0.89068
580 0.727483
585 0.635462
590 0.624779
595 0.581851
600 0.714189
Ex : 528
200 0.389408
205 0.396801
210 0.35408
215 0.274398
220 0.31507
225 0.320931
230 0.324481
235 0.340461
240 0.341206
245 0.237509
250 0.358469
255 0.310527
260 0.347645
265 0.340419
270 0.316698
275 0.418256
280 0.352998
285 0.365592
290 0.348266
295 0.356258
300 0.393941
305 0.295891
310 0.347002
315 0.308637
320 0.277413
325 0.310615
330 0.518395
335 0.356628
340 0.431697
345 0.40105
350 0.270672
355 0.365943
360 0.389534
365 0.351904
370 0.372122
375 0.495916
380 0.336553
385 0.466673
390 0.410989
395 0.37958
400 0.426096
405 0.451426
410 0.359996
415 0.344824
420 0.3207
425 0.477892
430 0.42163
435 0.430929
440 0.402887
445 0.469668
450 0.442285
455 0.361351
460 0.457619
465 0.445617
470 0.403495
475 0.423477
480 0.407933
485 0.451867
490 0.53002
495 0.654577
500 0.818233
505 1.05709
510 1.1948
515 24.9145
520 418.551
525 620.238
530 153.608
535 19.0997
540 3.46669
545 1.62026
550 1.24144
555 1.16852
560 1.07884
565 1.08299
570 0.973229
575 0.923035
580 0.724616
585 0.557123
590 0.637933
595 0.737306
600 0.828118
Ex : 533
200 0.432793
205 0.365282
210 0.41085
215 0.310527
220 0.385199
225 0.374882
230 0.313207
235 0.384067
240 0.33612
245 0.315747
250 0.356537
255 0.312382
260 0.42557
265 0.295825
270 0.408391
275 0.383612
280 0.329908
285 0.32686
290 0.330891
295 0.438729
300 0.28542
305 0.286797
310 0.349927
315 0.346168
320 0.380212
325 0.501698
330 0.478289
335 0.279432
340 0.441292
345 0.37554
350 0.376824
355 0.312748
360 0.391812
365 0.426209
370 0.47081
375 0.427754
380 0.292913
385 0.404366
390 0.397368
395 0.512985
400 0.32574
405 0.337958
410 0.327675
415 0.45342
420 0.331061
425 0.366397
430 0.340714
435 0.377707
440 0.467996
445 0.400913
450 0.388865
455 0.391941
460 0.419822
465 0.456801
470 0.480243
475 0.459928
480 0.537118
485 0.54128
490 0.548633
495 0.596405
500 0.569147
505 0.681638
510 0.738428
515 1.06097
520 24.4132
525 404.636
530 608.655
535 155.151
540 19.0219
545 3.31683
550 1.60846
555 1.20428
560 1.17514
565 0.97923
570 0.90794
575 0.930976
580 0.845828
585 0.612212
590 0.753081
595 0.578169
600 0.77783
Ex : 538
200 0.422598
205 0.373767
210 0.376745
215 0.425389
220 0.382596
225 0.326427
230 0.467728
235 0.319601
240 0.274241
245 0.346568
250 0.385446
255 0.337416
260 0.411561
265 0.334797
270 0.294435
275 0.384795
280 0.333128
285 0.340826
290 0.360824
295 0.372508
300 0.350777
305 0.408896
310 0.346289
315 0.407818
320 0.468482
325 0.329999
330 0.334346
335 0.47128
340 0.450644
345 0.427274
350 0.427164
355 0.322246
360 0.455236
365 0.390713
370 0.416599
375 0.412789
380 0.413943
385 0.437451
390 0.275316
395 0.403761
400 0.566461
405 0.444353
410 0.436995
415 0.418646
420 0.371566
425 0.340234
430 0.33036
435 0.408347
440 0.459838
445 0.502389
450 0.34755
455 0.439381
460 0.483735
465 0.373347
470 0.430381
475 0.460045
480 0.55219
485 0.611481
490 0.529037
495 0.547035
500 0.571081
505 0.528628
510 0.698247
515 0.829632
520 1.19041
525 20.5182
530 376.94
535 605.853
540 158.951
545 19.8012
550 3.35083
555 1.56004
560 1.18359
565 0.900217
570 0.804811
575 0.815458
580 0.816773
585 0.685709
590 0.578342
595 0.608658
600 0.210846
Ex : 543
200 0.376606
205 0.338558
210 0.397882
215 0.31698
220 0.518456
225 0.312107
230 0.395658
235 0.380209
240 0.435229
245 0.372252
250 0.371581
255 0.34185
260 0.332376
265 0.323237
270 0.291745
275 0.339345
280 0.469735
285 0.370635
290 0.469387
295 0.423732
300 0.409695
305 0.340013
310 0.403388
315 0.316782
320 0.451376
325 0.365812
330 0.306751
335 0.36478
340 0.367036
345 0.419637
350 0.348594
355 0.405835
360 0.293791
365 0.320839
370 0.439659
375 0.428007
380 0.417356
385 0.386666
390 0.362968
395 0.317564
400 0.373591
405 0.445029
410 0.419057
415 0.365027
420 0.413977
425 0.408121
430 0.413745
435 0.432917
440 0.37778
445 0.397937
450 0.474662
455 0.529868
460 0.433104
465 0.455989
470 0.411781
475 0.433374
480 0.39383
485 0.405834
490 0.503966
495 0.58464
500 0.616147
505 0.695118
510 0.567429
515 0.829847
520 0.846778
525 1.20038
530 19.06
535 355.967
540 587.964
545 160.35
550 19.9887
555 3.35555
560 1.12978
565 1.16065
570 0.882061
575 0.777977
580 0.628154
585 0.662412
590 0.613117
595 0.581819
600 1.23536
Ex : 548
200 0.442285
205 0.338297
210 0.481401
215 0.481561
220 0.513731
225 0.444816
230 0.450938
235 0.370601
240 0.429131
245 0.345704
250 0.393636
255 0.424501
260 0.41873
265 0.480165
270 0.428777
275 0.29947
280 0.316365
285 0.383226
290 0.281171
295 0.329307
300 0.311582
305 0.413616
310 0.452913
315 0.400373
320 0.347355
325 0.359221
330 0.315376
335 0.408426
340 0.389277
345 0.454376
350 0.39285
355 0.476292
360 0.529536
365 0.520416
370 0.385683
375 0.392956
380 0.467949
385 0.402837
390 0.430974
395 0.401004
400 0.372115
405 0.391689
410 0.34702
415 0.430027
420 0.305101
425 0.451391
430 0.446003
435 0.45431
440 0.448724
445 0.542913
450 0.36468
455 0.486192
460 0.497702
465 0.585112
470 0.409519
475 0.49822
480 0.545438
485 0.499738
490 0.564597
495 0.564315
500 0.401969
505 0.485328
510 0.632731
515 0.658896
520 0.704945
525 0.89985
530 1.02746
535 20.8071
540 355.822
545 565.605
550 155.069
555 19.0085
560 3.24267
565 1.37379
570 0.921383
575 0.848404
580 0.681472
585 0.7187
590 0.776639
595 0.716255
600 0.319674
Ex : 553
200 0.462469
205 0.51887
210 0.487467
215 0.514
220 0.357161
225 0.403287
230 0.411538
235 0.43735
240 0.406885
245 0.399385
250 0.385192
255 0.409562
260 0.317145
265 0.325719
270 0.276702
275 0.423947
280 0.443099
285 0.372171
290 0.443088
295 0.402685
300 0.382592
305 0.374786
310 0.414926
315 0.39684
320 0.461015
325 0.361178
330 0.45101
335 0.357734
340 0.418833
345 0.390146
350 0.504807
355 0.428328
360 0.492187
365 0.317662
370 0.491104
375 0.63481
380 0.381938
385 0.400273
390 0.509699
395 0.405904
400 0.560134
405 0.391079
410 0.479709
415 0.384279
420 0.377677
425 0.355458
430 0.492107
435 0.427014
440 0.469231
445 0.422295
450 0.504974
455 0.411946
460 0.514061
465 0.505975
470 0.461381
475 0.431796
480 0.55395
485 0.449647
490 0.484214
495 0.489663
500 0.49663
505 0.414491
510 0.484127
515 0.615994
520 0.557407
525 0.668593
530 0.702652
535 1.11939
540 17.676
545 340.895
550 562.858
555 156.619
560 19.2612
565 3.0218
570 1.13514
575 0.941631
580 0.752452
585 0.681181
590 0.567876
595 0.697332
600 1.36321
Ex : 558
200 0.36033
205 0.444883
210 0.333885
215 0.481803
220 0.460798
225 0.334212
230 0.393971
235 0.408385
240 0.582889
245 0.493405
250 0.480365
255 0.367799
260 0.452225
265 0.428052
270 0.469146
275 0.401654
280 0.399763
285 0.383799
290 0.460106
295 0.480059
300 0.493486
305 0.432298
310 0.387866
315 0.361345
320 0.385676
325 0.467571
330 0.420188
335 0.46179
340 0.421413
345 0.407438
350 0.352021
355 0.399024
360 0.300644
365 0.424367
370 0.468872
375 0.411001
380 0.471324
385 0.484807
390 0.408517
395 0.509225
400 0.421228
405 0.437869
410 0.585322
415 0.448083
420 0.453771
425 0.459053
430 0.492196
435 0.527558
440 0.425363
445 0.451032
450 0.493299
455 0.460719
460 0.443112
465 0.550381
470 0.526025
475 0.487079
480 0.575249
485 0.549231
490 0.518117
495 0.563462
500 0.431944
505 0.480811
510 0.564859
515 0.558628
520 0.505329
525 0.662669
530 0.689635
535 0.755574
540 1.02519
545 17.4329
550 323.229
555 556.45
560 161.592
565 19.882
570 3.09495
575 1.06186
580 0.713524
585 0.686202
590 0.606026
595 0.614613
600 0.475393
Ex : 563
200 0.419222
205 0.416945
210 0.54449
215 0.388672
220 0.342702
225 0.498033
230 0.381272
235 0.389358
240 0.508607
245 0.471595
250 0.516689
255 0.431211
260 0.479596
265 0.46689
270 0.376392
275 0.396552
280 0.394654
285 0.404867
290 0.452606
295 0.469099
300 0.432722
305 0.322178
310 0.460524
315 0.453628
320 0.502325
325 0.487909
330 0.351561
335 0.410291
340 0.547156
345 0.407254
350 0.469704
355 0.367938
360 0.426071
365 0.417251
370 0.452779
375 0.51738
380 0.440713
385 0.47116
390 0.436046
395 0.403108
400 0.438229
405 0.494942
410 0.55781
415 0.545169
420 0.422187
425 0.418995
430 0.475655
435 0.372904
440 0.425273
445 0.514833
450 0.499491
455 0.428953
460 0.51894
465 0.457144
470 0.45691
475 0.458767
480 0.432781
485 0.458221
490 0.434156
495 0.590754
500 0.619032
505 0.563362
510 0.643044
515 0.512403
520 0.589944
525 0.706446
530 0.706964
535 0.703772
540 0.796347
545 0.958718
550 16.6186
555 309.688
560 529.128
565 150.308
570 18.391
575 2.79417
580 1.00276
585 0.686763
590 0.714896
595 0.577222
600 0.37525
Ex : 568
200 0.4
205 0.397861
210 0.403419
215 0.393539
220 0.39782
225 0.446147
230 0.364624
235 0.434478
240 0.46164
245 0.410776
250 0.464802
255 0.415829
260 0.454503
265 0.428813
270 0.432409
275 0.423151
280 0.563823
285 0.352535
290 0.402149
295 0.406848
300 0.347346
305 0.389474
310 0.484639
315 0.492538
320 0.495459
325 0.361202
330 0.347394
335 0.424323
340 0.443057
345 0.382745
350 0.423249
355 0.490294
360 0.440262
365 0.568503
370 0.459704
375 0.392406
380 0.414686
385 0.470876
390 0.523371
395 0.61683
400 0.564657
405 0.436461
410 0.479324
415 0.595359
420 0.382905
425 0.415623
430 0.527816
435 0.542298
440 0.549447
445 0.577993
450 0.711533
455 0.594019
460 0.59818
465 0.637698
470 0.457696
475 0.450356
480 0.442452
485 0.440074
490 0.484883
495 0.534317
500 0.471674
505 0.495124
510 0.538507
515 0.402918
520 0.565022
525 0.479517
530 0.710237
535 0.629002
540 0.614877
545 0.850525
550 0.960955
555 12.4328
560 278.96
565 501.146
570 151.272
575 18.6039
580 2.87404
585 0.932382
590 0.738246
595 0.721114
600 1.10025
Ex : 573
200 0.524378
205 0.457177
210 0.460198
215 0.355445
220 0.440554
225 0.462711
230 0.425021
235 0.52703
240 0.407727
245 0.529669
250 0.465405
255 0.428983
260 0.37856
265 0.455784
270 0.479678
275 0.435723
280 0.475054
285 0.46791
290 0.311936
295 0.444849
300 0.341229
305 0.460692
310 0.48303
315 0.479924
320 0.695747
325 0.407644
330 0.522765
335 0.61261
340 0.455363
345 0.436298
350 0.479258
355 0.503517
360 0.581634
365 0.397546
370 0.484864
375 0.517523
380 0.494725
385 0.415758
390 0.45873
395 0.442448
400 0.504773
405 0.68234
410 0.480849
415 0.44532
420 0.425286
425 0.438357
430 0.503107
435 0.477757
440 0.432091
445 0.463248
450 0.413589
455 0.572027
460 0.508506
465 0.552011
470 0.458314
475 0.427664
480 0.495181
485 0.590172
490 0.614978
495 0.509594
500 0.483858
505 0.48436
510 0.48705
515 0.684096
520 0.494694
525 0.620327
530 0.518049
535 0.5828
540 0.753117
545 0.662556
550 0.780556
555 0.908075
560 11.1012
565 244.193
570 468.504
575 143.989
580 17.6987
585 2.69652
590 1.01037
595 0.669008
600 0.54813
Ex : 578
200 0.461456
205 0.595907
210 0.405573
215 0.402494
220 0.445914
225 0.563691
230 0.563654
235 0.475593
240 0.522476
245 0.453838
250 0.338363
255 0.38914
260 0.422757
265 0.437909
270 0.506512
275 0.452677
280 0.528158
285 0.412158
290 0.435118
295 0.546263
300 0.387088
305 0.413875
310 0.473047
315 0.510772
320 0.487171
325 0.456336
330 0.532721
335 0.445678
340 0.564731
345 0.51945
350 0.475364
355 0.585079
360 0.423244
365 0.422171
370 0.433618
375 0.508971
380 0.491692
385 0.506007
390 0.560666
395 0.507225
400 0.671481
405 0.483937
410 0.50161
415 0.525204
420 0.433285
425 0.380334
430 0.437952
435 0.42651
440 0.415939
445 0.502341
450 0.567796
455 0.523231
460 0.468277
465 0.568836
470 0.541856
475 0.437747
480 0.534268
485 0.551148
490 0.501749
495 0.40307
500 0.48344
505 0.631965
510 0.551039
515 0.550693
520 0.418467
525 0.464846
530 0.422405
535 0.611914
540 0.857015
545 0.594036
550 0.64576
555 0.734174
560 1.03043
565 9.62669
570 217.164
575 407.433
580 124.434
585 15.3557
590 2.38498
595 0.848486
600 0.42127
Ex : 583
200 0.491128
205 0.566008
210 0.626344
215 0.447271
220 0.509081
225 0.639626
230 0.413788
235 0.468972
240 0.460262
245 0.434372
250 0.398122
255 0.381694
260 0.383232
265 0.481932
270 0.489767
275 0.505929
280 0.492792
285 0.436279
290 0.540589
295 0.361265
300 0.553499
305 0.415688
310 0.551304
315 0.473758
320 0.566864
325 0.50925
330 0.446183
335 0.472697
340 0.530838
345 0.502437
350 0.480388
355 0.555025
360 0.548977
365 0.502683
370 0.406734
375 0.440116
380 0.51114
385 0.484808
390 0.424352
395 0.643322
400 0.417279
405 0.407737
410 0.457409
415 0.497963
420 0.506669
425 0.440831
430 0.50217
435 0.530646
440 0.467368
445 0.541828
450 0.493028
455 0.464013
460 0.562399
465 0.529883
470 0.379418
475 0.416097
480 0.535135
485 0.444093
490 0.59216
495 0.494959
500 0.575766
505 0.383272
510 0.601613
515 0.582674
520 0.536355
525 0.506193
530 0.59965
535 0.654829
540 0.472722
545 0.594061
550 0.62571
555 0.658724
560 0.811055
565 1.08981
570 8.41195
575 192.422
580 350.055
585 101.45
590 12.4879
595 2.05969
600 0.635946
Ex : 588
200 0.429525
205 0.486633
210 0.389193
215 0.555291
220 0.561424
225 0.445247
230 0.526949
235 0.534443
240 0.640081
245 0.485935
250 0.591809
255 0.554184
260 0.506507
265 0.494857
270 0.523175
275 0.467009
280 0.406039
285 0.513811
290 0.555126
295 0.548874
300 0.422162
305 0.39333
310 0.469743
315 0.44738
320 0.426695
325 0.462434
330 0.510655
335 0.51485
340 0.418278
345 0.417813
350 0.423758
355 0.575301
360 0.58754
365 0.538675
370 0.457498
375 0.619096
380 0.56737
385 0.510546
390 0.528605
395 0.448006
400 0.697193
405 0.402552
410 0.552987
415 0.55867
420 0.498062
425 0.465407
430 0.54063
435 0.502246
440 0.490842
445 0.679695
450 0.515596
455 0.536239
460 0.551158
465 0.455907
470 0.43775
475 0.484344
480 0.533296
485 0.738203
490 0.66274
495 0.515701
500 0.606106
505 0.557779
510 0.513998
515 0.536714
520 0.524272
525 0.513703
530 0.494183
535 0.541445
540 0.611554
545 0.568901
550 0.54135
555 0.635308
560 0.720829
565 0.814902
570 1.0079
575 7.15894
580 174.823
585 313.131
590 96.581
595 12.0967
600 2.04298
Ex : 593
200 0.527573
205 0.422066
210 0.474832
215 0.486168
220 0.56165
225 0.65192
230 0.513447
235 0.708689
240 0.627589
245 0.472942
250 0.362443
255 0.404711
260 0.445778
265 0.48649
270 0.572446
275 0.45903
280 0.549392
285 0.458656
290 0.683753
295 0.620702
300 0.717655
305 0.40643
310 0.45543
315 0.426354
320 0.501684
325 0.411749
330 0.511808
335 0.472989
340 0.487775
345 0.433918
350 0.670627
355 0.500546
360 0.399915
365 0.48353
370 0.47204
375 0.526039
380 0.543423
385 0.580981
390 0.539562
395 0.627418
400 0.5469
405 0.646563
410 0.560962
415 0.458534
420 0.473977
425 0.581253
430 0.567606
435 0.526096
440 0.511623
445 0.469507
450 0.54765
455 0.677869
460 0.623053
465 0.674537
470 0.57327
475 0.70175
480 0.601509
485 0.776308
490 0.578441
495 0.725524
500 0.580461
505 0.40033
510 0.582408
515 0.664908
520 0.426231
525 0.653373
530 0.560803
535 0.598797
540 0.557392
545 0.597076
550 0.526117
555 0.674736
560 0.746886
565 0.736269
570 0.826569
575 0.721201
580 6.9071
585 144.829
590 262.338
595 75.2369
600 11.466
Ex : 598
200 0.473783
205 0.546769
210 0.543564
215 0.615174
220 0.509299
225 0.551741
230 0.576818
235 0.520439
240 0.53654
245 0.496122
250 0.559241
255 0.495304
260 0.380105
265 0.590085
270 0.586745
275 0.569484
280 0.549611
285 0.629961
290 0.604415
295 0.515143
300 0.507676
305 0.462585
310 0.640269
315 0.561142
320 0.52165
325 0.509275
330 0.847011
335 0.589178
340 0.417466
345 0.559215
350 0.530353
355 0.760223
360 0.663255
365 0.758417
370 0.48397
375 0.48511
380 0.566281
385 0.542635
390 0.589252
395 0.590393
400 0.542822
405 0.618386
410 0.494467
415 0.424312
420 0.424899
425 0.604823
430 0.702018
435 0.607584
440 0.578153
445 0.632183
450 0.525005
455 0.546122
460 0.694377
465 0.6503
470 0.487663
475 0.479436
480 0.463446
485 0.640747
490 0.526746
495 0.446513
500 0.637632
505 0.705776
510 0.608056
515 0.636432
520 0.600064
525 0.634798
530 0.666423
535 0.727899
540 0.657809
545 0.554027
550 0.763731
555 0.592005
560 0.712693
565 0.746687
570 0.737089
575 0.666421
580 0.666514
585 6.37741
590 128.671
595 229.144
600 143.055
Ex : 603
200 0.50678
205 0.449239
210 0.688553
215 0.66093
220 0.498988
225 0.457457
230 0.380244
235 0.458206
240 0.64763
245 0.495347
250 0.370784
255 0.586067
260 0.583774
265 0.484127
270 0.425104
275 0.620264
280 0.560609
285 0.49377
290 0.500845
295 0.603574
300 0.63157
305 0.567148
310 0.535974
315 0.425761
320 0.459888
325 0.407399
330 0.612382
335 0.395763
340 0.473807
345 0.565564
350 0.489145
355 0.548692
360 0.587814
365 0.66796
370 0.597617
375 0.583214
380 0.474244
385 0.430589
390 0.414183
395 0.694601
400 0.562409
405 0.502095
410 0.583546
415 0.600805
420 0.576356
425 0.563503
430 0.590289
435 0.754637
440 0.674392
445 0.585573
450 0.782296
455 0.636124
460 0.589634
465 0.744187
470 0.639392
475 0.58728
480 0.616351
485 0.562929
490 0.672086
495 0.489705
500 0.506592
505 0.65965
510 0.523744
515 0.691465
520 0.523629
525 0.551315
530 0.63585
535 0.599061
540 0.503673
545 0.59571
550 0.604977
555 0.607762
560 0.657491
565 0.539022
570 0.567575
575 0.713534
580 0.774603
585 0.96616
590 5.6443
595 111.856
600 217.961
