File format V 1.0
sam. 10. déc. 03:03:18 2016
Operator : 
Comments : 

=============================================
SpectroFluorometer parameters
Mode : 3D measurement
Data : Fluorescence
Phospho. : Ordinary
Spectrum : Fluorescence

Scan speed : 2400 nm/mn
Response : 100 ms
PM Voltage : 700 V
Shutter : On

Lambda Ex. Start : 203
Lambda Ex. End : 603
Lambda Ex. Step : 5
Ex. Slit : 5 nm

Lambda Em. Start : 200
Lambda Em. End : 600
Lambda Em. Step : 5
Em. Slit : 5 nm

Repetition : 1
Decal lambda em : 10
=============================================
DATA
Ex : 203
200 14.5789
205 14.3935
210 15.8854
215 12.9686
220 11.2949
225 21.0156
230 14.3877
235 15.6435
240 18.5121
245 15.8273
250 10.8796
255 12.0966
260 12.9073
265 8.65957
270 10.8661
275 18.2115
280 15.0684
285 11.1869
290 12.8494
295 15.1163
300 14.1687
305 15.7973
310 12.3894
315 12.7772
320 12.2252
325 11.6672
330 13.5167
335 19.2517
340 19.6383
345 17.249
350 13.9714
355 14.8727
360 18.2771
365 15.3778
370 16.9321
375 17.4299
380 21.0525
385 18.4556
390 18.4146
395 20.5113
400 20.5466
405 24.4772
410 22.6833
415 23.5428
420 21.92
425 24.0482
430 20.3646
435 20.1149
440 18.6643
445 21.9717
450 22.9094
455 21.6276
460 19.7959
465 19.4948
470 19.7444
475 20.8299
480 17.5533
485 18.6742
490 22.5634
495 17.2298
500 20.5488
505 17.963
510 14.3851
515 17.5057
520 16.9407
525 16.0778
530 19.6598
535 14.1828
540 15.8082
545 20.2864
550 16.659
555 10.9934
560 14.8044
565 13.0129
570 12.2591
575 15.7598
580 13.4793
585 13.5789
590 13.2187
595 15.4055
600 12.166
Ex : 208
200 12.6608
205 16.9384
210 14.3702
215 11.7881
220 12.7873
225 11.5338
230 13.5421
235 12.077
240 12.5053
245 10.6574
250 13.747
255 19.4515
260 13.7186
265 13.7567
270 16.0087
275 14.0305
280 10.7591
285 13.407
290 13.6556
295 13.8891
300 13.2354
305 14.0284
310 13.0485
315 14.0044
320 13.4539
325 12.4998
330 15.4758
335 17.6594
340 19.0924
345 16.0582
350 20.0976
355 15.1808
360 14.8266
365 23.3084
370 17.869
375 15.0258
380 19.7294
385 19.3629
390 21.3414
395 23.6373
400 17.9094
405 19.6195
410 20.6877
415 23.5522
420 22.2513
425 20.6779
430 23.0611
435 19.2938
440 22.9914
445 18.2708
450 19.1905
455 18.9411
460 15.8766
465 17.8994
470 18.3625
475 20.8241
480 23.9501
485 18.8052
490 20.2992
495 15.0981
500 20.7255
505 16.1116
510 17.2469
515 16.492
520 18.7423
525 25.7793
530 11.9729
535 12.1348
540 16.0182
545 16.2163
550 20.2429
555 16.1671
560 14.4669
565 18.8087
570 16.1976
575 15.7984
580 17.7281
585 11.7027
590 14.6359
595 13.5354
600 39.4698
Ex : 213
200 10.5698
205 13.624
210 19.049
215 17.5786
220 17.6774
225 11.0863
230 10.7108
235 12.2388
240 15.9144
245 16.4588
250 14.9587
255 14.3724
260 10.9479
265 15.123
270 14.2456
275 11.4218
280 12.6301
285 10.4497
290 14.2874
295 16.384
300 16.0285
305 17.4821
310 16.2005
315 10.3794
320 12.7396
325 14.8238
330 15.4152
335 15.1305
340 16.0342
345 13.9199
350 15.7894
355 12.8891
360 18.2747
365 15.677
370 15.1539
375 17.8128
380 16.4
385 18.3455
390 20.7082
395 18.5462
400 21.4111
405 15.9406
410 23.9107
415 22.2019
420 22.774
425 19.571
430 19.5691
435 18.308
440 21.3315
445 23.5979
450 17.9096
455 23.1458
460 24.7789
465 19.5221
470 19.1089
475 22.8157
480 17.2371
485 22.9202
490 19.1965
495 13.1064
500 17.6595
505 18.3499
510 19.3949
515 16.8579
520 16.3049
525 20.0947
530 15.5646
535 17.955
540 24.9174
545 19.8047
550 22.4613
555 15.9649
560 18.8277
565 16.6315
570 16.0667
575 15.6172
580 13.896
585 13.873
590 13.8545
595 14.5296
600 35.5507
Ex : 218
200 12.8307
205 13.8766
210 14.9613
215 13.6204
220 14.9986
225 12.7154
230 14.2114
235 14.7162
240 13.3687
245 15.7703
250 13.7801
255 13.3876
260 14.7165
265 15.7877
270 17.8724
275 12.9669
280 15.2399
285 14.7692
290 13.5643
295 12.9327
300 14.8999
305 11.6479
310 9.70877
315 11.1667
320 11.5449
325 13.8649
330 12.0604
335 13.8334
340 13.4253
345 16.3303
350 16.1708
355 19.0571
360 18.0903
365 15.718
370 16.2473
375 25.4502
380 22.0183
385 17.1096
390 17.7124
395 19.6059
400 18.1494
405 19.4511
410 18.2777
415 25.9919
420 19.4529
425 19.5052
430 23.2806
435 25.7496
440 21.9688
445 20.6645
450 20.5698
455 22.8808
460 22.8184
465 20.8131
470 23.9064
475 21.5617
480 23.0579
485 18.3836
490 21.6331
495 14.9818
500 15.3798
505 18.2476
510 19.5854
515 16.6671
520 17.7402
525 14.3893
530 17.2245
535 15.4017
540 12.2018
545 18.0539
550 15.1011
555 17.2622
560 13.6242
565 14.1575
570 13.401
575 16.5855
580 18.3197
585 13.5357
590 14.6219
595 11.9628
600 13.1774
Ex : 223
200 14.1582
205 11.8966
210 13.9369
215 13.764
220 11.3938
225 14.3572
230 16.9569
235 12.9301
240 13.9624
245 16.7528
250 18.5394
255 11.887
260 10.0503
265 10.5163
270 12.5064
275 14.9694
280 11.1763
285 9.71304
290 12.6112
295 10.8647
300 10.8614
305 12.1468
310 10.3117
315 10.1962
320 13.3554
325 12.9617
330 14.1602
335 17.589
340 14.3125
345 13.3256
350 17.412
355 13.4364
360 17.943
365 14.9252
370 14.611
375 17.503
380 18.2898
385 20.8268
390 21.2575
395 12.4533
400 22.7855
405 22.0894
410 19.9839
415 19.4038
420 22.3191
425 22.2492
430 20.1972
435 16.5808
440 19.577
445 20.1556
450 17.2648
455 21.7818
460 19.6839
465 16.3218
470 20.1673
475 18.2757
480 19.4484
485 17.2445
490 20.5359
495 19.1797
500 14.8145
505 17.019
510 18.2149
515 15.7636
520 16.5417
525 16.6296
530 14.2334
535 17.1521
540 14.8287
545 12.6295
550 16.038
555 13.4565
560 14.6188
565 17.053
570 19.5904
575 18.8998
580 16.3055
585 16.1917
590 14.3685
595 13.2748
600 15.8671
Ex : 228
200 10.601
205 9.98981
210 12.1375
215 14.0936
220 15.4591
225 11.3626
230 11.7745
235 14.2041
240 15.8047
245 12.9013
250 11.5354
255 8.50606
260 13.0245
265 13.3728
270 8.30376
275 12.1012
280 13.3589
285 14.7719
290 13.1057
295 11.1525
300 12.7714
305 12.6916
310 13.119
315 11.6614
320 15.6826
325 11.7668
330 12.0108
335 12.4007
340 14.8683
345 16.5042
350 18.9448
355 14.8899
360 14.8739
365 14.3111
370 12.1595
375 16.1374
380 14.7459
385 17.8163
390 20.1411
395 17.3122
400 15.8916
405 18.2811
410 19.506
415 18.885
420 16.0359
425 19.3217
430 18.471
435 15.5266
440 17.6789
445 21.2406
450 17.4291
455 15.8172
460 20.5222
465 24.5176
470 19.6893
475 15.2031
480 15.0822
485 19.2018
490 17.0333
495 16.0131
500 17.5558
505 18.6175
510 15.3588
515 17.5168
520 18.2342
525 13.7433
530 12.4248
535 15.3487
540 12.4942
545 11.5245
550 18.0291
555 16.3932
560 13.3193
565 9.94587
570 12.1529
575 12.0937
580 11.2305
585 12.4077
590 11.0393
595 14.6279
600 42.2527
Ex : 233
200 11.0186
205 11.2247
210 8.35106
215 10.7648
220 11.7889
225 12.9168
230 11.3343
235 11.8331
240 11.2922
245 11.6171
250 11.1471
255 9.62528
260 12.8967
265 11.4352
270 9.50277
275 9.93937
280 11.7368
285 8.88554
290 11.2408
295 11.6006
300 11.8617
305 14.2462
310 12.1698
315 13.5481
320 10.1142
325 13.7123
330 11.5144
335 14.1281
340 14.6506
345 10.5607
350 12.7781
355 12.8738
360 11.9813
365 17.6447
370 16.5711
375 13.4906
380 15.8675
385 17.4661
390 15.9798
395 19.1523
400 16.0237
405 15.022
410 18.3141
415 18.8538
420 18.996
425 12.951
430 17.7114
435 16.448
440 20.1418
445 16.6761
450 17.7052
455 16.8041
460 20.9064
465 17.683
470 18.6886
475 12.4156
480 20.5532
485 14.0508
490 16.2311
495 17.0087
500 14.9346
505 18.4013
510 11.9384
515 14.0164
520 16.581
525 13.7205
530 13.2677
535 12.4803
540 13.4636
545 15.0848
550 11.4167
555 11.5474
560 11.622
565 12.8553
570 11.9591
575 12.66
580 12.7387
585 11.0502
590 12.5249
595 12.7276
600 5.87937
Ex : 238
200 11.5665
205 10.3074
210 10.4206
215 14.9903
220 8.99319
225 7.64164
230 6.69116
235 10.0722
240 11.1797
245 7.69004
250 9.54101
255 11.4816
260 10.1167
265 10.0469
270 10.1628
275 11.3126
280 10.0462
285 12.2429
290 12.2777
295 10.0747
300 9.62351
305 7.89182
310 8.59192
315 6.94483
320 7.42793
325 9.21456
330 11.6567
335 12.747
340 11.4051
345 11.2901
350 10.3457
355 12.9093
360 13.675
365 13.8508
370 16.2114
375 13.0862
380 15.9688
385 18.7874
390 14.4073
395 17.2374
400 16.1408
405 16.9905
410 14.2231
415 18.4491
420 16.1156
425 16.1821
430 14.4534
435 16.2413
440 16.3338
445 15.9935
450 12.8252
455 16.4517
460 14.8114
465 17.8227
470 16.7884
475 14.6811
480 13.7732
485 12.7093
490 12.3873
495 13.6986
500 12.446
505 12.3964
510 11.9554
515 11.2466
520 12.2798
525 10.6646
530 12.5769
535 7.91134
540 9.57675
545 11.0182
550 12.2136
555 10.025
560 12.4835
565 11.2726
570 10.3162
575 11.4401
580 8.82731
585 9.75485
590 8.18818
595 11.2163
600 45.0548
Ex : 243
200 6.33091
205 7.58283
210 7.81845
215 10.0227
220 8.25918
225 7.37491
230 7.04593
235 7.61141
240 10.2619
245 11.2147
250 9.48642
255 8.99797
260 8.19872
265 8.36566
270 9.64618
275 8.22716
280 8.01282
285 7.24405
290 6.73774
295 6.54632
300 6.56813
305 7.65519
310 6.84677
315 6.87257
320 7.88776
325 8.97333
330 9.73171
335 11.8609
340 11.0948
345 11.0442
350 12.0174
355 13.3816
360 11.9167
365 10.4381
370 11.1305
375 12.5071
380 16.4389
385 15.7
390 14.1377
395 15.7024
400 11.9004
405 12.2776
410 12.5127
415 12.9965
420 12.8329
425 12.7157
430 13.3961
435 15.2015
440 13.5675
445 12.4928
450 11.9937
455 12.8792
460 13.4327
465 14.4866
470 14.0025
475 12.6726
480 13.4768
485 10.9148
490 13.4618
495 10.7719
500 11.4764
505 9.9851
510 10.2474
515 13.6798
520 10.1568
525 12.5401
530 10.1435
535 9.4163
540 9.70118
545 8.49771
550 9.82904
555 11.1153
560 8.23249
565 9.36547
570 8.43109
575 7.12126
580 7.0847
585 9.38789
590 9.3271
595 8.45886
600 3.7478
Ex : 248
200 8.39474
205 8.61835
210 7.12202
215 7.24414
220 5.88533
225 6.60027
230 7.94739
235 5.97038
240 5.84579
245 9.84396
250 7.03365
255 6.24205
260 6.47763
265 5.81167
270 6.57916
275 6.70364
280 6.50426
285 8.6019
290 4.84917
295 6.66366
300 5.22466
305 8.99981
310 6.73349
315 7.64656
320 7.76759
325 9.6957
330 8.35511
335 8.7829
340 8.45988
345 10.9857
350 9.47529
355 9.12981
360 10.4473
365 12.0911
370 10.582
375 11.9267
380 13.5357
385 10.3163
390 11.3598
395 12.3104
400 11.4472
405 13.4659
410 11.8475
415 10.6573
420 13.0884
425 11.9286
430 11.4732
435 12.1773
440 12.105
445 11.1843
450 11.9937
455 12.0292
460 10.9548
465 13.9361
470 12.2652
475 11.0112
480 10.6351
485 10.6846
490 11.1536
495 10.7404
500 9.11289
505 10.269
510 8.25291
515 8.65594
520 7.58775
525 8.77916
530 8.82539
535 9.05286
540 10.3379
545 9.84273
550 7.22733
555 8.74093
560 9.07462
565 8.77305
570 7.20447
575 9.12902
580 9.59343
585 7.3986
590 6.99307
595 8.04011
600 9.33387
Ex : 253
200 4.09739
205 6.14801
210 5.01173
215 4.96377
220 5.09151
225 6.2799
230 5.83562
235 6.46349
240 6.4969
245 5.88764
250 6.07866
255 5.584
260 5.76692
265 5.7421
270 4.52655
275 5.69079
280 5.13669
285 5.24045
290 6.09828
295 5.10529
300 6.56174
305 5.29284
310 6.60365
315 5.35317
320 6.85636
325 6.82601
330 7.10861
335 7.47751
340 8.77331
345 8.19009
350 9.33243
355 6.68708
360 8.1781
365 9.5598
370 8.05616
375 7.81618
380 9.50724
385 9.98283
390 10.2853
395 10.7622
400 9.79353
405 9.3645
410 11.2372
415 9.57646
420 9.26136
425 8.75523
430 9.46808
435 9.67339
440 8.87512
445 10.4908
450 11.124
455 9.34347
460 9.71019
465 8.17284
470 11.0645
475 12.437
480 8.38866
485 8.97335
490 10.1025
495 8.39903
500 7.81495
505 8.4753
510 6.73922
515 8.07754
520 6.19329
525 8.1583
530 7.09034
535 6.98265
540 8.04087
545 5.64801
550 6.58158
555 6.49638
560 5.88098
565 6.22321
570 7.18215
575 7.11919
580 5.43467
585 5.69275
590 6.03782
595 6.79906
600 8.87614
Ex : 258
200 3.18985
205 5.04595
210 3.88339
215 3.85184
220 4.95087
225 6.1175
230 4.69623
235 4.58884
240 4.48885
245 5.0235
250 4.12157
255 4.2752
260 4.63837
265 4.53138
270 4.55086
275 4.84677
280 4.27801
285 4.35544
290 4.30391
295 4.49332
300 4.28153
305 5.27341
310 5.10021
315 5.90108
320 4.43326
325 4.82409
330 5.04462
335 5.47524
340 5.51705
345 5.64623
350 5.96669
355 6.41772
360 7.90509
365 6.49601
370 6.38811
375 6.77617
380 7.36359
385 7.8981
390 6.18041
395 8.08662
400 8.19514
405 8.17829
410 8.79635
415 9.06324
420 7.92617
425 9.36434
430 8.08373
435 9.94197
440 7.8072
445 7.54009
450 10.2714
455 9.0393
460 7.99703
465 9.65007
470 8.78319
475 7.45812
480 7.78045
485 6.83661
490 8.5476
495 6.59608
500 6.37342
505 6.89619
510 6.76579
515 7.47999
520 6.52595
525 6.09248
530 6.55748
535 5.30141
540 6.20367
545 4.74711
550 4.95226
555 4.60013
560 6.04258
565 5.15817
570 4.9461
575 5.85635
580 5.4272
585 4.4772
590 4.84242
595 5.76575
600 5.17576
Ex : 263
200 2.75332
205 3.19019
210 3.62133
215 2.97825
220 3.15422
225 3.3585
230 3.90261
235 3.72279
240 2.91247
245 4.248
250 4.15272
255 4.03957
260 2.74372
265 2.47106
270 3.58873
275 3.29152
280 3.90615
285 3.40615
290 3.99299
295 3.50261
300 3.5127
305 3.34109
310 3.47338
315 4.22607
320 3.11025
325 4.76632
330 4.10993
335 4.58156
340 4.82484
345 4.6095
350 3.90811
355 5.18318
360 4.3714
365 5.14738
370 5.64389
375 6.17238
380 7.45768
385 5.49431
390 5.53437
395 6.2494
400 6.29764
405 6.42218
410 6.38233
415 6.99069
420 6.80304
425 7.0245
430 5.65672
435 4.57475
440 4.87272
445 6.16582
450 5.71918
455 6.74481
460 5.63833
465 6.07421
470 5.15035
475 4.87473
480 7.26171
485 5.43487
490 5.42798
495 5.86623
500 4.53083
505 5.35726
510 4.04317
515 4.89886
520 6.19659
525 5.15934
530 5.57616
535 5.42031
540 4.25011
545 3.52491
550 4.40162
555 5.42753
560 3.91967
565 5.52301
570 5.27231
575 3.34413
580 3.64018
585 4.06362
590 3.00085
595 2.75554
600 1.76948
Ex : 268
200 2.27491
205 2.29796
210 3.41647
215 3.2715
220 3.24051
225 2.8309
230 2.57206
235 3.03496
240 3.54878
245 2.4068
250 2.27502
255 2.9527
260 2.93228
265 2.40973
270 2.37843
275 2.74606
280 2.54279
285 2.32907
290 3.22044
295 2.89921
300 2.52467
305 2.47444
310 3.32194
315 2.22034
320 2.84976
325 3.60784
330 3.64
335 3.04859
340 3.74386
345 3.93673
350 4.2768
355 3.72509
360 4.53162
365 4.16295
370 3.79259
375 4.94437
380 4.41847
385 5.2364
390 5.34757
395 4.79246
400 4.63814
405 5.9104
410 6.02958
415 5.80563
420 5.48646
425 4.93376
430 5.33491
435 5.29924
440 4.592
445 4.84383
450 4.14075
455 4.51412
460 4.95594
465 4.41698
470 5.43393
475 4.87214
480 3.96575
485 4.37188
490 3.82206
495 4.32949
500 3.94503
505 3.0477
510 3.31694
515 3.84729
520 3.91032
525 4.11951
530 3.7088
535 3.83021
540 4.1436
545 3.28209
550 3.35313
555 3.14795
560 3.68669
565 3.03545
570 2.79084
575 2.7051
580 2.76049
585 3.08199
590 3.2301
595 2.9316
600 0.575297
Ex : 273
200 2.32498
205 2.44651
210 2.01368
215 2.19776
220 2.64335
225 2.11636
230 2.01409
235 1.98101
240 1.90049
245 2.12612
250 2.06492
255 2.09785
260 1.90419
265 2.5151
270 2.24345
275 2.41588
280 2.34495
285 1.86536
290 1.95059
295 2.28506
300 2.22067
305 1.9354
310 2.09321
315 1.76444
320 1.65879
325 2.31033
330 2.61599
335 2.86718
340 3.8134
345 3.2128
350 3.21215
355 3.56134
360 3.61442
365 2.72252
370 3.69259
375 3.72478
380 4.1817
385 4.05489
390 4.55825
395 4.48514
400 3.72205
405 4.26322
410 5.00227
415 4.38686
420 4.25876
425 4.41188
430 4.47786
435 4.07096
440 4.87829
445 4.4489
450 3.51635
455 4.09266
460 4.28821
465 4.29525
470 3.92431
475 3.91712
480 3.68007
485 4.52435
490 3.93894
495 2.97811
500 3.44103
505 3.22859
510 2.60358
515 3.3172
520 3.16365
525 3.47393
530 3.27819
535 2.3013
540 3.17605
545 4.25469
550 3.03263
555 2.68221
560 2.86203
565 2.34454
570 2.3822
575 2.68954
580 2.43491
585 3.02616
590 2.55333
595 2.1226
600 0.309713
Ex : 278
200 1.71232
205 2.04267
210 1.99309
215 1.74091
220 1.98284
225 1.83286
230 1.35392
235 2.09191
240 1.55969
245 1.93135
250 1.77132
255 1.85945
260 2.07809
265 1.77316
270 2.1148
275 1.60563
280 1.92248
285 2.56424
290 2.12677
295 2.37082
300 1.86837
305 1.85147
310 1.37131
315 1.1291
320 1.44867
325 2.5393
330 2.2795
335 2.37507
340 2.53827
345 2.64405
350 2.94642
355 3.01301
360 2.8484
365 2.95212
370 2.87878
375 2.96471
380 3.39651
385 3.27329
390 3.35142
395 4.09555
400 3.48053
405 3.36213
410 3.4261
415 3.45819
420 3.26162
425 3.18344
430 4.04928
435 3.73192
440 3.336
445 3.31128
450 3.43569
455 3.44864
460 3.93931
465 3.06368
470 3.50005
475 3.37954
480 3.61401
485 2.81657
490 2.93605
495 2.94882
500 2.77245
505 3.18025
510 2.44901
515 2.25917
520 2.89038
525 2.96466
530 2.52657
535 2.24972
540 2.42153
545 2.32693
550 2.56646
555 2.67921
560 1.8126
565 1.98552
570 2.25797
575 2.54145
580 1.86208
585 2.54559
590 1.79568
595 1.66719
600 0.266782
Ex : 283
200 1.05488
205 1.39813
210 1.47187
215 1.41689
220 1.57847
225 1.31334
230 1.47788
235 1.76803
240 1.58524
245 1.43599
250 1.62145
255 1.71809
260 1.66605
265 1.66927
270 1.4544
275 1.42954
280 1.23993
285 1.08946
290 1.12991
295 1.21197
300 1.36009
305 1.34877
310 1.59471
315 1.45093
320 1.66993
325 2.02986
330 2.69777
335 2.51907
340 2.2701
345 2.21383
350 2.55847
355 2.20795
360 2.6993
365 2.24617
370 2.74087
375 2.60696
380 2.51245
385 3.05565
390 3.96605
395 3.56214
400 3.66587
405 3.56483
410 3.45338
415 3.48438
420 3.70048
425 3.15294
430 2.66281
435 3.18927
440 3.75842
445 3.30242
450 2.98477
455 3.26635
460 2.94783
465 3.7854
470 2.94717
475 2.42664
480 2.4115
485 2.24484
490 1.91481
495 2.78326
500 2.64845
505 2.35822
510 2.00598
515 2.32432
520 1.87708
525 2.07731
530 1.79763
535 1.82575
540 1.9327
545 2.16958
550 2.38999
555 1.78648
560 1.912
565 2.43821
570 2.08887
575 1.46263
580 1.38775
585 1.68916
590 1.50221
595 1.40474
600 0.159854
Ex : 288
200 1.32922
205 1.54345
210 1.21331
215 1.14971
220 1.27248
225 1.05254
230 1.54664
235 1.2887
240 1.11744
245 0.998076
250 1.0671
255 1.27909
260 1.19218
265 1.39259
270 1.48587
275 1.36006
280 1.21257
285 1.23478
290 1.23288
295 1.10317
300 1.67306
305 1.54703
310 1.06991
315 0.922826
320 1.34788
325 1.33918
330 2.02359
335 1.79999
340 2.26212
345 2.19314
350 2.04973
355 2.41464
360 1.97337
365 2.7047
370 2.51373
375 3.0532
380 2.62728
385 2.61158
390 2.91528
395 3.09462
400 2.95255
405 2.67806
410 3.11385
415 2.97649
420 2.9232
425 2.73396
430 2.79039
435 2.72356
440 2.80133
445 2.96161
450 2.70471
455 2.48051
460 2.67875
465 2.99282
470 2.43817
475 2.32295
480 2.04877
485 2.74182
490 2.13562
495 2.47311
500 2.14504
505 1.85329
510 2.22478
515 2.00438
520 1.5138
525 1.76064
530 1.50758
535 1.95264
540 1.84868
545 1.4211
550 1.56686
555 1.46074
560 1.61952
565 1.82425
570 1.69269
575 1.41853
580 1.23422
585 1.06801
590 1.26822
595 1.26954
600 0.538337
Ex : 293
200 1.16705
205 1.10968
210 1.21458
215 1.20306
220 1.13682
225 1.0985
230 1.46976
235 1.19122
240 1.13392
245 1.28979
250 1.33816
255 1.08351
260 1.02303
265 1.0833
270 1.11711
275 0.911765
280 1.01714
285 1.31113
290 1.38891
295 1.14605
300 0.926769
305 1.08936
310 0.784151
315 0.965572
320 1.05134
325 1.21203
330 1.5217
335 1.68107
340 1.63303
345 2.09534
350 1.82347
355 2.05792
360 1.80728
365 1.74572
370 2.0962
375 2.28186
380 1.94574
385 2.6386
390 2.64639
395 2.85299
400 2.83153
405 2.90332
410 2.98652
415 2.44176
420 2.72588
425 2.96019
430 2.63893
435 2.58742
440 2.59241
445 2.78136
450 2.35983
455 2.53799
460 2.65339
465 2.14135
470 2.41808
475 2.1786
480 2.36164
485 1.85207
490 1.66602
495 1.84414
500 1.67466
505 1.72554
510 1.99056
515 1.57837
520 1.72213
525 1.41738
530 1.94734
535 1.35682
540 1.26857
545 1.43282
550 1.41523
555 1.52305
560 1.21197
565 1.19973
570 1.24163
575 1.30716
580 1.43282
585 1.54733
590 1.32071
595 1.14302
600 1.66389
Ex : 298
200 0.909346
205 1.04186
210 0.974855
215 0.783327
220 1.03159
225 1.14516
230 0.939286
235 1.0006
240 0.931651
245 0.907583
250 0.788301
255 0.934273
260 0.816854
265 0.895776
270 0.858163
275 0.908033
280 0.824826
285 0.853772
290 1.18621
295 1.21071
300 1.0376
305 0.880481
310 0.930609
315 0.926857
320 1.1197
325 1.5358
330 1.46027
335 1.85766
340 1.88745
345 1.5293
350 1.70279
355 2.27708
360 1.61107
365 2.26282
370 2.0249
375 2.24168
380 2.25754
385 2.35586
390 2.06009
395 2.23447
400 2.4022
405 2.48691
410 2.76366
415 2.70941
420 2.47166
425 2.51878
430 2.54884
435 2.36793
440 2.41499
445 2.38928
450 2.29898
455 2.43694
460 2.13691
465 2.23651
470 2.11429
475 2.1393
480 1.9062
485 1.77441
490 1.76508
495 1.7427
500 1.41275
505 1.412
510 1.78839
515 1.1957
520 1.18389
525 1.37232
530 1.50958
535 1.59336
540 1.13989
545 1.21281
550 1.35632
555 1.27775
560 1.07138
565 0.822764
570 1.00805
575 1.24218
580 1.30218
585 1.20578
590 1.34723
595 1.14534
600 1.2342
Ex : 303
200 0.767838
205 0.792646
210 0.936878
215 0.853055
220 0.958332
225 0.946618
230 0.668503
235 0.728361
240 0.7753
245 0.68007
250 0.971127
255 0.898734
260 0.780474
265 0.705725
270 0.723395
275 0.813274
280 0.752121
285 0.838425
290 1.0182
295 1.09258
300 1.04535
305 0.863518
310 0.724779
315 0.739598
320 0.968808
325 1.32742
330 1.57327
335 1.58574
340 1.47121
345 1.70292
350 1.31365
355 1.75378
360 1.79631
365 1.76383
370 1.80824
375 2.11641
380 1.94871
385 2.33781
390 2.44369
395 2.24989
400 2.70843
405 2.24277
410 2.4022
415 2.47885
420 2.02576
425 2.13081
430 2.12698
435 2.26514
440 2.09983
445 1.9976
450 2.2262
455 2.29247
460 2.50884
465 1.90693
470 2.03934
475 1.91062
480 1.76302
485 1.61899
490 1.63221
495 1.34546
500 1.71355
505 1.37212
510 1.60386
515 1.39999
520 1.13644
525 1.25858
530 1.23255
535 1.18079
540 1.28981
545 1.16917
550 1.15018
555 1.07625
560 0.958538
565 0.789043
570 0.737881
575 1.41047
580 1.12878
585 0.832805
590 1.01991
595 0.849994
600 0.513763
Ex : 308
200 0.685191
205 0.637868
210 0.729657
215 0.9592
220 0.884167
225 0.785895
230 0.706683
235 0.615386
240 0.723079
245 0.873952
250 0.686215
255 0.72457
260 0.686319
265 0.765074
270 0.714973
275 0.664678
280 0.732403
285 0.555673
290 0.617665
295 0.717793
300 0.986864
305 0.946553
310 0.820752
315 0.604863
320 0.837849
325 1.23655
330 1.47637
335 1.57457
340 1.37597
345 1.63359
350 1.43879
355 1.5006
360 1.7127
365 1.62451
370 1.70088
375 1.79261
380 1.94528
385 2.22381
390 2.25647
395 2.31927
400 2.2914
405 2.36603
410 2.15912
415 1.94996
420 1.99072
425 2.34364
430 2.36096
435 1.89642
440 1.86374
445 1.86468
450 2.17817
455 2.18639
460 1.92975
465 1.7944
470 1.85888
475 1.62149
480 1.64139
485 1.59206
490 1.44179
495 1.23299
500 1.37967
505 1.17494
510 1.19197
515 1.11212
520 1.17123
525 1.06109
530 1.16075
535 1.17459
540 1.0069
545 0.763713
550 1.03885
555 0.836081
560 0.793131
565 1.05546
570 0.82274
575 0.895638
580 1.16652
585 1.01479
590 0.858011
595 0.595463
600 0.98805
Ex : 313
200 0.733025
205 0.47319
210 0.809892
215 0.651047
220 0.698335
225 0.668972
230 0.701668
235 0.653659
240 0.565362
245 0.634194
250 0.712435
255 0.922037
260 0.656698
265 0.480095
270 0.475024
275 0.638206
280 0.678848
285 0.609846
290 0.670786
295 0.587218
300 0.946688
305 0.807454
310 1.07203
315 0.757105
320 0.912697
325 1.17126
330 1.77739
335 1.68017
340 1.77961
345 1.64141
350 1.80787
355 1.46249
360 1.62804
365 1.69592
370 1.83148
375 2.06042
380 2.09325
385 2.35381
390 2.4547
395 2.54234
400 2.57066
405 2.91627
410 2.55857
415 2.88057
420 2.6819
425 2.82748
430 2.64173
435 2.67137
440 2.39407
445 2.37924
450 2.4671
455 2.25879
460 2.12083
465 2.34702
470 1.75656
475 2.04255
480 1.81359
485 1.61258
490 1.47886
495 1.54737
500 1.28079
505 1.38082
510 1.46003
515 1.09491
520 1.11607
525 0.953418
530 1.01075
535 0.923616
540 1.11326
545 0.882209
550 0.841603
555 0.892063
560 0.909465
565 0.663176
570 0.760869
575 0.848366
580 0.702069
585 0.684056
590 0.825387
595 0.705518
600 0.996701
Ex : 318
200 0.839678
205 0.547488
210 0.569081
215 0.532178
220 0.523443
225 0.709039
230 0.570447
235 0.723624
240 0.611252
245 0.553062
250 0.626309
255 0.602297
260 0.603075
265 0.671369
270 0.628339
275 0.486521
280 0.619811
285 0.669875
290 0.570772
295 0.458894
300 0.720695
305 0.762914
310 1.23592
315 4.1937
320 2.86996
325 2.19391
330 2.37027
335 2.76223
340 2.79583
345 3.13038
350 3.79927
355 4.62442
360 5.81658
365 6.04043
370 6.86837
375 8.29218
380 9.7753
385 10.1909
390 10.9498
395 11.3352
400 12.1032
405 12.0442
410 12.8737
415 12.4319
420 12.5107
425 12.184
430 11.3183
435 11.1459
440 10.8308
445 10.331
450 10.3379
455 9.26465
460 8.78125
465 8.04082
470 7.65935
475 7.28352
480 6.31791
485 6.03288
490 5.06976
495 4.34339
500 4.36937
505 3.74948
510 3.48182
515 2.70898
520 2.86741
525 2.61413
530 2.37515
535 1.97601
540 1.75306
545 1.65501
550 1.77605
555 1.33998
560 1.40585
565 1.30378
570 0.874282
575 0.901899
580 1.01374
585 0.788778
590 0.777465
595 0.759565
600 0.122242
Ex : 323
200 0.831503
205 0.66261
210 0.639619
215 0.624873
220 0.626777
225 0.560272
230 0.660774
235 0.64282
240 0.512056
245 0.385958
250 0.618239
255 0.542811
260 0.603209
265 0.45765
270 0.552544
275 0.597584
280 0.69897
285 0.646129
290 0.532479
295 0.535016
300 0.549646
305 0.486572
310 0.742634
315 28.6979
320 128.946
325 53.7059
330 10.0744
335 5.93181
340 6.14574
345 7.78938
350 10.4767
355 14.023
360 16.7905
365 19.2472
370 22.9776
375 26.109
380 28.659
385 32.2107
390 36.0613
395 39.3468
400 40.7798
405 41.6242
410 43.0341
415 42.9794
420 41.65
425 40.3938
430 38.974
435 37.6562
440 36.2449
445 35.2745
450 33.7126
455 30.5567
460 28.4038
465 26.3978
470 25.2809
475 23.5867
480 20.7437
485 19.4127
490 16.7351
495 15.0954
500 13.7941
505 12.1423
510 10.5326
515 9.95315
520 8.66762
525 7.40527
530 6.3578
535 6.01429
540 5.18404
545 4.41308
550 3.93169
555 3.68636
560 3.14893
565 2.8883
570 2.24236
575 1.72813
580 1.70537
585 1.45676
590 1.08663
595 1.00576
600 1.16033
Ex : 328
200 0.444777
205 0.438417
210 0.367801
215 0.697609
220 0.629887
225 0.528165
230 0.492519
235 0.509726
240 0.47523
245 0.587481
250 0.506013
255 0.606295
260 0.576979
265 0.607861
270 0.572387
275 0.502873
280 0.463949
285 0.548641
290 0.478425
295 0.617256
300 0.947033
305 0.656371
310 0.916229
315 7.76271
320 298.929
325 698.662
330 204.368
335 29.9195
340 10.928
345 9.53415
350 11.0047
355 15.6883
360 19.5116
365 21.9336
370 24.6156
375 28.5587
380 30.817
385 35.1465
390 38.7444
395 42.3106
400 43.6293
405 45.4421
410 45.3098
415 45.6209
420 45.0679
425 43.8577
430 42.9484
435 41.5021
440 40.1384
445 37.6324
450 36.3984
455 33.8947
460 31.0665
465 29.5947
470 27.5126
475 25.2508
480 22.8767
485 21.0427
490 19.5269
495 16.8093
500 15.7845
505 13.9229
510 12.2286
515 11.1129
520 9.76367
525 8.68705
530 7.7885
535 6.82171
540 5.83666
545 5.33506
550 5.09168
555 4.70255
560 4.09116
565 3.51242
570 3.26431
575 2.54432
580 2.21182
585 1.77284
590 1.5886
595 1.38049
600 1.80727
Ex : 333
200 0.533587
205 0.678032
210 0.490448
215 0.558792
220 0.526344
225 0.432631
230 0.50593
235 0.541267
240 0.596251
245 0.543597
250 0.577424
255 0.7817
260 0.629204
265 0.600905
270 0.509855
275 0.623633
280 0.591034
285 0.604173
290 0.605861
295 0.74708
300 0.865606
305 0.859177
310 0.904533
315 1.36374
320 40.0615
325 841.888
330 1427.71
335 360.37
340 48.4803
345 12.6451
350 9.06294
355 9.37935
360 13.0227
365 17.7539
370 17.972
375 18.3123
380 19.9558
385 22.6868
390 26.3672
395 28.4365
400 28.6597
405 30.1523
410 30.8914
415 32.8203
420 31.8406
425 30.2391
430 29.5794
435 29.377
440 29.1342
445 27.0926
450 25.4923
455 23.1892
460 22.176
465 21.3864
470 19.807
475 18.2441
480 16.9492
485 16.0971
490 14.6463
495 12.9122
500 12.2864
505 11.1712
510 10.0255
515 8.83349
520 7.67686
525 7.38555
530 6.9406
535 6.19457
540 5.60353
545 5.01825
550 4.52407
555 3.91785
560 3.69688
565 3.29726
570 2.92534
575 2.74014
580 2.30994
585 1.84104
590 1.75591
595 1.53442
600 0.798982
Ex : 338
200 0.576127
205 0.497606
210 0.648271
215 0.636449
220 0.592364
225 0.464585
230 0.605155
235 0.520958
240 0.464609
245 0.510286
250 0.538339
255 0.522757
260 0.597301
265 0.53452
270 0.653815
275 0.508038
280 0.775769
285 0.718219
290 0.715333
295 0.735615
300 0.701277
305 1.03053
310 0.966487
315 1.247
320 1.94541
325 76.5298
330 1274.49
335 1906.81
340 461.177
345 60.026
350 13.836
355 8.07035
360 7.22538
365 9.08609
370 13.4053
375 13.8075
380 13.9373
385 14.8139
390 18.1149
395 20.1924
400 19.855
405 20.5078
410 22.6513
415 25.0026
420 24.0748
425 23.1417
430 23.0255
435 22.009
440 22.7061
445 21.8714
450 20.4468
455 19.3393
460 17.4555
465 16.9679
470 16.1293
475 14.9415
480 13.9016
485 12.8488
490 12.1654
495 11.4228
500 10.3527
505 9.55727
510 8.49648
515 7.39028
520 7.43301
525 6.60944
530 5.87255
535 5.30524
540 5.32999
545 4.56904
550 4.5846
555 3.91322
560 3.90538
565 3.39149
570 3.11037
575 2.65677
580 2.34231
585 1.81438
590 1.61369
595 1.81209
600 0.455844
Ex : 343
200 0.472621
205 0.477738
210 0.525396
215 0.546539
220 0.532346
225 0.512163
230 0.482322
235 0.612074
240 0.51055
245 0.676638
250 0.571908
255 0.528346
260 0.59681
265 0.576803
270 0.525877
275 0.57832
280 0.637409
285 0.714912
290 0.745052
295 0.71017
300 0.657724
305 0.696176
310 0.924162
315 0.962583
320 1.39491
325 2.62617
330 93.6623
335 1517.16
340 2227.6
345 532.447
350 68.0065
355 14.0614
360 7.52449
365 6.09748
370 7.05057
375 11.4347
380 13.1829
385 13.6484
390 16.04
395 17.5668
400 16.576
405 17.5267
410 21.3062
415 23.9614
420 23.5863
425 21.6964
430 21.0305
435 20.6584
440 21.2455
445 21.0418
450 19.439
455 18.0709
460 16.3175
465 16.4462
470 15.418
475 14.7067
480 13.7807
485 12.8653
490 11.6593
495 11.2893
500 10.1973
505 9.4625
510 8.33407
515 7.63489
520 7.18183
525 6.55891
530 6.16446
535 5.66149
540 5.232
545 4.72246
550 4.14456
555 3.81567
560 3.47774
565 3.06569
570 2.8069
575 2.48477
580 2.23876
585 1.77908
590 1.85127
595 1.57991
600 2.00365
Ex : 348
200 0.421179
205 0.407842
210 0.421348
215 0.476637
220 0.532131
225 0.36437
230 0.46601
235 0.440974
240 0.42617
245 0.508981
250 0.511538
255 0.512965
260 0.508527
265 0.537415
270 0.556663
275 0.503532
280 0.731093
285 0.626534
290 0.656322
295 0.765155
300 0.675608
305 0.770724
310 0.80376
315 0.892621
320 1.1343
325 1.70633
330 3.15499
335 98.074
340 1608.58
345 2459.91
350 624.792
355 78.5167
360 14.9592
365 7.28658
370 5.6867
375 6.3563
380 10.7756
385 15.8752
390 18.5743
395 20.2809
400 19.7977
405 19.5354
410 23.4911
415 27.9221
420 27.8067
425 25.2836
430 23.4159
435 24.6253
440 24.9122
445 24.1129
450 22.8151
455 20.5047
460 19.0871
465 17.9674
470 16.6246
475 15.8335
480 15.0232
485 13.7121
490 13.0958
495 11.9254
500 10.7469
505 10.0164
510 8.54475
515 8.41713
520 7.56699
525 6.91849
530 6.15977
535 5.52759
540 5.37107
545 4.79835
550 4.37662
555 4.17334
560 3.66289
565 3.05047
570 2.96221
575 2.60674
580 2.04608
585 1.89594
590 1.67601
595 1.41578
600 1.11024
Ex : 353
200 0.535997
205 0.441854
210 0.451205
215 0.486995
220 0.459643
225 0.407236
230 0.440237
235 0.468488
240 0.541941
245 0.578711
250 0.518089
255 0.494686
260 0.548253
265 0.559837
270 0.540976
275 0.543263
280 0.641226
285 0.487728
290 0.648116
295 0.761814
300 0.534634
305 0.745564
310 0.737736
315 0.80712
320 0.960301
325 1.29651
330 2.01924
335 3.62138
340 108.683
345 1778.59
350 2603.26
355 645.983
360 81.1553
365 14.7347
370 6.99409
375 5.89615
380 7.18312
385 12.8305
390 21.9484
395 23.2091
400 21.1143
405 20.8053
410 25.5071
415 30.0878
420 29.7948
425 28.0518
430 25.7195
435 25.666
440 26.3558
445 26.307
450 25.1921
455 22.1128
460 20.1994
465 19.1802
470 18.7619
475 17.7537
480 15.9929
485 14.9893
490 13.3339
495 12.1463
500 11.6329
505 10.7081
510 9.57161
515 8.6025
520 7.75463
525 7.12512
530 6.21507
535 5.82853
540 5.2345
545 4.7415
550 4.44843
555 3.99893
560 3.3653
565 3.22921
570 2.9177
575 2.44612
580 2.28088
585 1.77254
590 1.5369
595 1.4868
600 1.12884
Ex : 358
200 0.426959
205 0.519834
210 0.416678
215 0.505106
220 0.488885
225 0.423145
230 0.507486
235 0.49942
240 0.637343
245 0.50471
250 0.522222
255 0.462088
260 0.530699
265 0.566762
270 0.535049
275 0.629322
280 0.524405
285 0.547601
290 0.536379
295 0.60585
300 0.487474
305 0.622039
310 0.622863
315 0.814101
320 0.800335
325 1.10329
330 1.51996
335 2.2466
340 3.82079
345 110.526
350 1827.53
355 2829.44
360 709.382
365 88.4291
370 16.0582
375 7.76106
380 6.93852
385 9.70818
390 16.3106
395 21.9606
400 21.0671
405 20.4826
410 23.9867
415 28.0871
420 28.6247
425 26.4349
430 24.2423
435 24.5536
440 25.3286
445 25.3345
450 23.7071
455 21.6442
460 19.7717
465 19.5114
470 18.373
475 17.4343
480 16.2077
485 15.1677
490 13.2411
495 12.2363
500 11.5802
505 10.7828
510 9.25243
515 8.556
520 7.79332
525 7.15576
530 6.44452
535 6.10109
540 5.23892
545 4.8034
550 4.38075
555 3.84753
560 3.45425
565 3.24151
570 2.84817
575 2.50743
580 1.95465
585 1.70691
590 1.62998
595 1.22017
600 1.57322
Ex : 363
200 0.502345
205 0.5226
210 0.435615
215 0.436755
220 0.390329
225 0.474444
230 0.531264
235 0.476912
240 0.418484
245 0.430964
250 0.544482
255 0.565218
260 0.471996
265 0.490116
270 0.485137
275 0.511421
280 0.551192
285 0.452494
290 0.551019
295 0.578282
300 0.635567
305 0.628342
310 0.67732
315 0.678742
320 0.840462
325 1.0134
330 1.25173
335 1.50087
340 2.3428
345 3.81499
350 109.43
355 1899.65
360 3066.96
365 796.665
370 98.7604
375 17.4166
380 8.93455
385 10.9599
390 15.8207
395 18.032
400 20.4898
405 23.1698
410 26.7436
415 30.6365
420 30.2667
425 27.97
430 26.1458
435 25.9595
440 28.1129
445 28.1521
450 25.514
455 23.9289
460 21.6576
465 21.0006
470 19.9123
475 18.6054
480 17.3544
485 15.4428
490 14.04
495 13.1947
500 11.9831
505 11.3832
510 10.5078
515 9.29042
520 8.3591
525 7.60005
530 6.83572
535 6.31448
540 5.65912
545 5.09355
550 4.9189
555 4.14545
560 3.9399
565 3.5069
570 2.92983
575 2.32716
580 2.03835
585 1.78009
590 1.53115
595 1.43639
600 1.17748
Ex : 368
200 0.464792
205 0.507343
210 0.388466
215 0.358805
220 0.442323
225 0.451551
230 0.417583
235 0.362439
240 0.474438
245 0.410773
250 0.438791
255 0.445831
260 0.492876
265 0.485194
270 0.430461
275 0.478888
280 0.511959
285 0.427606
290 0.436236
295 0.652686
300 0.493574
305 0.487399
310 0.726671
315 0.710692
320 0.725273
325 0.956076
330 1.11962
335 1.26106
340 1.57943
345 2.49691
350 4.07269
355 97.5828
360 2008.6
365 3404.63
370 909.823
375 112.832
380 20.5124
385 14.5091
390 19.9238
395 22.6506
400 21.2876
405 24.9675
410 33.7769
415 39.4173
420 38.4127
425 34.1113
430 31.6392
435 32.2565
440 34.2056
445 33.1515
450 31.3099
455 28.159
460 25.143
465 23.8938
470 23.1947
475 21.3085
480 20.0403
485 17.7164
490 16.2346
495 15.0736
500 13.5466
505 12.236
510 11.4104
515 9.90662
520 8.72114
525 8.16513
530 7.25275
535 6.64225
540 5.90532
545 5.33708
550 4.72179
555 4.31086
560 3.82757
565 3.63708
570 3.14601
575 2.54132
580 2.00054
585 1.87216
590 1.47375
595 1.41943
600 1.0357
Ex : 373
200 0.384818
205 0.344623
210 0.439467
215 0.390016
220 0.420684
225 0.466486
230 0.43117
235 0.403057
240 0.403873
245 0.450414
250 0.469677
255 0.423063
260 0.566436
265 0.448322
270 0.414281
275 0.472278
280 0.508303
285 0.581093
290 0.522917
295 0.545574
300 0.592774
305 0.465747
310 0.604188
315 0.64095
320 0.695069
325 0.817479
330 0.910506
335 1.13072
340 1.37535
345 1.81661
350 2.44454
355 4.26998
360 124.499
365 2219.26
370 3657.31
375 967.903
380 120.454
385 25.5056
390 22.0239
395 23.5783
400 21.9344
405 22.5401
410 30.5406
415 39.8041
420 39.322
425 34.761
430 29.9444
435 30.3813
440 32.2753
445 31.7835
450 28.842
455 26.01
460 23.9347
465 23.0771
470 22.1199
475 20.8828
480 18.6866
485 17.5012
490 15.8991
495 14.4688
500 13.3394
505 12.0365
510 11.1017
515 9.94949
520 9.13225
525 8.21498
530 7.41943
535 6.64574
540 6.0366
545 5.38164
550 4.74407
555 4.23429
560 4.08419
565 3.49412
570 3.24931
575 2.49754
580 2.07801
585 1.84753
590 1.47926
595 1.24445
600 1.09193
Ex : 378
200 0.454024
205 0.427624
210 0.383935
215 0.393052
220 0.379208
225 0.406492
230 0.411046
235 0.454826
240 0.436992
245 0.458546
250 0.401268
255 0.548102
260 0.425943
265 0.471375
270 0.441371
275 0.556479
280 0.446539
285 0.447345
290 0.524544
295 0.487778
300 0.499696
305 0.541081
310 0.571304
315 0.602592
320 0.659718
325 0.791595
330 0.830244
335 1.05163
340 1.09544
345 1.48231
350 1.93773
355 2.66375
360 4.58938
365 124.908
370 2413.78
375 4031.51
380 1068.21
385 134.766
390 30.5382
395 19.2397
400 16.8878
405 17.0557
410 21.913
415 28.1968
420 31.4577
425 28.4813
430 25.5804
435 25.7708
440 26.6188
445 26.7461
450 24.7516
455 22.4405
460 20.7113
465 20.2874
470 19.5797
475 18.3621
480 17.3705
485 16.1387
490 14.649
495 13.4238
500 12.7473
505 12.3094
510 10.7535
515 9.76534
520 8.86891
525 7.85744
530 6.98718
535 6.55294
540 6.00765
545 5.29543
550 4.72642
555 4.38107
560 4.02935
565 3.52372
570 3.02947
575 2.54535
580 2.18108
585 1.68789
590 1.62984
595 1.29076
600 1.95892
Ex : 383
200 0.39827
205 0.368458
210 0.465766
215 0.415529
220 0.364914
225 0.333045
230 0.415016
235 0.408163
240 0.330003
245 0.406577
250 0.402829
255 0.494272
260 0.35801
265 0.508059
270 0.50026
275 0.500195
280 0.535521
285 0.539532
290 0.478355
295 0.482905
300 0.497602
305 0.542247
310 0.576667
315 0.579976
320 0.623958
325 0.707664
330 0.778563
335 0.883809
340 1.05506
345 1.2548
350 1.69088
355 2.13806
360 2.94246
365 4.81219
370 125.952
375 2557.06
380 4460.8
385 1193.27
390 153.851
395 33.1341
400 18.099
405 18.1091
410 23.1912
415 28.0816
420 29.3134
425 29.0319
430 28.3454
435 26.8925
440 28.5134
445 28.2219
450 25.8401
455 23.83
460 22.4927
465 21.4327
470 20.669
475 19.5738
480 18.2134
485 16.6894
490 15.4867
495 13.9983
500 12.8115
505 12.1824
510 11.1359
515 9.91423
520 8.96429
525 7.88054
530 7.49794
535 6.7136
540 6.13695
545 5.65481
550 4.80649
555 4.54184
560 4.03965
565 3.46169
570 3.16115
575 2.61636
580 2.16919
585 1.8082
590 1.61861
595 1.39577
600 1.44159
Ex : 388
200 0.438538
205 0.408609
210 0.410758
215 0.415045
220 0.411438
225 0.359044
230 0.349274
235 0.448089
240 0.423201
245 0.435764
250 0.458703
255 0.404305
260 0.482107
265 0.461333
270 0.460742
275 0.503139
280 0.44486
285 0.557762
290 0.477898
295 0.566875
300 0.510903
305 0.528337
310 0.494799
315 0.615774
320 0.652431
325 0.679165
330 0.801352
335 0.897316
340 0.999278
345 1.03544
350 1.2514
355 1.64263
360 2.07716
365 3.16736
370 5.52675
375 146.763
380 2787.15
385 4697.8
390 1252.52
395 165.718
400 36.7778
405 23.3914
410 28.529
415 34.8183
420 34.7156
425 32.2832
430 31.7756
435 33.8727
440 34.6096
445 33.2466
450 30.3616
455 27.239
460 24.9601
465 24.0385
470 23.2619
475 21.9779
480 20.0768
485 18.0232
490 16.6964
495 15.1238
500 13.9811
505 12.4791
510 11.6262
515 10.4365
520 9.41248
525 8.46425
530 7.74216
535 7.1605
540 6.33928
545 5.90944
550 4.93046
555 4.48221
560 4.02178
565 3.55886
570 3.07174
575 2.58665
580 2.19459
585 1.70063
590 1.50094
595 1.28782
600 1.94917
Ex : 393
200 0.402983
205 0.402664
210 0.320114
215 0.3935
220 0.403295
225 0.37227
230 0.43673
235 0.468624
240 0.449887
245 0.467511
250 0.463214
255 0.431145
260 0.530291
265 0.427971
270 0.434984
275 0.539887
280 0.431075
285 0.480442
290 0.514088
295 0.47746
300 0.469929
305 0.531244
310 0.600069
315 0.600941
320 0.560897
325 0.573382
330 0.695569
335 0.840653
340 0.848714
345 0.941965
350 1.12152
355 1.41455
360 1.67821
365 2.13001
370 3.29387
375 5.35048
380 136.762
385 2901.11
390 5010.25
395 1347.97
400 176.845
405 40.0496
410 30.3188
415 35.089
420 35.0308
425 31.4557
430 28.0087
435 29.8899
440 33.5216
445 33.37
450 29.7851
455 25.8752
460 22.9618
465 21.5106
470 21.0913
475 19.7004
480 19.1617
485 17.387
490 15.848
495 14.4688
500 13.2239
505 12.4001
510 11.5373
515 10.6938
520 9.27658
525 8.47428
530 7.48688
535 6.93733
540 6.34575
545 5.46536
550 5.03022
555 4.68573
560 4.13702
565 3.6267
570 3.07124
575 2.57531
580 2.30842
585 1.78518
590 1.55142
595 1.31213
600 0.831253
Ex : 398
200 0.32229
205 0.343502
210 0.367752
215 0.447502
220 0.432069
225 0.401874
230 0.414217
235 0.385606
240 0.416376
245 0.399146
250 0.406446
255 0.430541
260 0.435074
265 0.437085
270 0.370912
275 0.455139
280 0.52174
285 0.444225
290 0.538889
295 0.487317
300 0.511337
305 0.517068
310 0.583998
315 0.569043
320 0.538435
325 0.631415
330 0.652367
335 0.636697
340 0.785082
345 0.833988
350 0.966164
355 1.20963
360 1.29561
365 1.72816
370 2.24023
375 3.43015
380 6.08661
385 147.672
390 3068.72
395 5276.08
400 1398.47
405 176.745
410 38.283
415 25.8312
420 24.7704
425 21.8069
430 19.5229
435 19.9916
440 22.0444
445 25.524
450 24.3249
455 20.7803
460 19.0008
465 17.7206
470 17.2835
475 16.7029
480 15.8772
485 14.8309
490 14.0222
495 12.9923
500 12.2609
505 11.4514
510 10.7648
515 9.48621
520 8.73625
525 7.86112
530 7.34657
535 6.51676
540 5.93879
545 5.53684
550 4.81834
555 4.42502
560 4.05786
565 3.38163
570 2.84969
575 2.58389
580 2.13596
585 1.73625
590 1.47849
595 1.27166
600 1.05768
Ex : 403
200 0.331479
205 0.416219
210 0.35625
215 0.339303
220 0.388047
225 0.387623
230 0.434992
235 0.355751
240 0.361223
245 0.386875
250 0.350979
255 0.42862
260 0.530186
265 0.412709
270 0.443836
275 0.394083
280 0.500899
285 0.496012
290 0.472518
295 0.446832
300 0.563883
305 0.527574
310 0.517508
315 0.528984
320 0.584922
325 0.584895
330 0.65411
335 0.645484
340 0.78904
345 0.782389
350 0.819432
355 0.990567
360 1.16804
365 1.52179
370 1.76431
375 2.41395
380 3.58551
385 6.4858
390 170.793
395 3239.87
400 5373.38
405 1441.06
410 181.762
415 38.0174
420 20.9881
425 17.8095
430 16.6249
435 16.8503
440 18.4857
445 19.3932
450 20.8883
455 20.5308
460 18.1253
465 17.2469
470 16.7015
475 15.8494
480 15.4941
485 14.4416
490 13.3056
495 12.4088
500 11.9618
505 11.2342
510 10.357
515 9.6385
520 8.91777
525 7.99244
530 7.15106
535 6.49237
540 5.97165
545 5.42602
550 5.27228
555 4.47579
560 3.7867
565 3.55231
570 3.0137
575 2.53961
580 2.20947
585 1.81909
590 1.39124
595 1.18571
600 1.56069
Ex : 408
200 0.366012
205 0.389871
210 0.40255
215 0.457998
220 0.339989
225 0.349687
230 0.339743
235 0.38187
240 0.387398
245 0.376456
250 0.445705
255 0.461201
260 0.419277
265 0.39919
270 0.453323
275 0.456894
280 0.453784
285 0.493488
290 0.475866
295 0.590727
300 0.547953
305 0.51549
310 0.509615
315 0.460897
320 0.527992
325 0.556855
330 0.598403
335 0.731706
340 0.701116
345 0.746379
350 0.731716
355 0.873141
360 1.08679
365 1.23261
370 1.3842
375 1.9496
380 2.55161
385 3.91854
390 6.6986
395 167.841
400 3399.39
405 5614.88
410 1458.5
415 187.583
420 40.0656
425 22.0794
430 18.7928
435 19.3329
440 20.6272
445 21.4532
450 20.7782
455 21.266
460 21.0929
465 19.2867
470 18.689
475 17.8869
480 16.3214
485 15.2955
490 14.2202
495 13.1116
500 12.5899
505 11.7993
510 10.8224
515 9.86719
520 8.90837
525 8.33145
530 7.311
535 6.54624
540 6.18451
545 5.59609
550 4.94666
555 4.72656
560 4.08575
565 3.56891
570 3.04581
575 2.49106
580 2.12967
585 1.73306
590 1.35037
595 1.33475
600 0.877506
Ex : 413
200 0.44636
205 0.37697
210 0.341109
215 0.379148
220 0.349267
225 0.372266
230 0.431615
235 0.45654
240 0.445166
245 0.442679
250 0.429975
255 0.465305
260 0.342247
265 0.398991
270 0.452935
275 0.429126
280 0.509536
285 0.385946
290 0.46735
295 0.369205
300 0.515969
305 0.471978
310 0.455209
315 0.422874
320 0.543363
325 0.598153
330 0.526962
335 0.642256
340 0.70407
345 0.759553
350 0.761844
355 0.804001
360 0.919053
365 1.08918
370 1.35154
375 1.71138
380 1.9395
385 2.63291
390 4.16742
395 6.93053
400 198.573
405 3592.44
410 5786.21
415 1465.81
420 187.931
425 38.3349
430 19.7068
435 18.6452
440 19.5332
445 19.6764
450 18.3546
455 17.6065
460 17.9571
465 19.1146
470 18.4404
475 16.8458
480 15.7557
485 14.6595
490 13.7206
495 12.6157
500 12.0652
505 10.9199
510 10.6548
515 9.44121
520 8.73157
525 8.0049
530 7.46613
535 6.63427
540 5.94597
545 5.52503
550 5.16048
555 4.49513
560 3.95267
565 3.53386
570 3.16072
575 2.60232
580 2.2176
585 1.70187
590 1.58308
595 1.22449
600 1.30632
Ex : 418
200 0.384411
205 0.403402
210 0.332668
215 0.364356
220 0.375568
225 0.28186
230 0.397533
235 0.349824
240 0.380137
245 0.419289
250 0.425059
255 0.442712
260 0.415582
265 0.407425
270 0.433556
275 0.446398
280 0.475429
285 0.448908
290 0.447498
295 0.410497
300 0.411735
305 0.564462
310 0.55853
315 0.504296
320 0.595442
325 0.512441
330 0.603008
335 0.580186
340 0.70842
345 0.726889
350 0.743188
355 0.775992
360 0.84439
365 1.18036
370 1.25774
375 1.32657
380 1.64461
385 1.96969
390 2.75837
395 4.24473
400 7.19784
405 191.205
410 3672.75
415 6018.9
420 1564
425 193.929
430 34.2356
435 15.3636
440 13.6325
445 13.5585
450 12.786
455 11.973
460 11.8571
465 12.807
470 14.501
475 14.3007
480 13.023
485 11.9991
490 11.2324
495 10.637
500 9.93313
505 9.96851
510 9.18241
515 8.76903
520 7.94262
525 7.31466
530 6.7291
535 6.26071
540 5.94029
545 5.21898
550 4.79414
555 4.24967
560 3.9476
565 3.57102
570 2.91437
575 2.42329
580 2.06206
585 1.77723
590 1.34219
595 1.33728
600 1.13136
Ex : 423
200 0.355182
205 0.357009
210 0.329083
215 0.34178
220 0.388544
225 0.385078
230 0.367146
235 0.396803
240 0.391346
245 0.441107
250 0.469002
255 0.496818
260 0.42363
265 0.41213
270 0.371264
275 0.37261
280 0.506838
285 0.462344
290 0.46286
295 0.447664
300 0.47854
305 0.439187
310 0.437666
315 0.475978
320 0.578206
325 0.581677
330 0.589881
335 0.62607
340 0.695414
345 0.671401
350 0.77394
355 0.688761
360 0.926079
365 0.926781
370 1.00999
375 1.17313
380 1.46142
385 1.78832
390 2.33175
395 2.95765
400 4.40432
405 7.50276
410 201.69
415 3916.09
420 6150.43
425 1526.47
430 186.914
435 30.3714
440 11.362
445 9.28577
450 8.59143
455 8.2329
460 7.85883
465 8.38756
470 8.98168
475 11.2061
480 12.0066
485 10.7502
490 9.80895
495 9.27277
500 8.71739
505 8.31054
510 7.8778
515 7.65757
520 7.2607
525 6.72793
530 6.39151
535 5.67719
540 5.28933
545 4.94607
550 4.6692
555 4.0407
560 3.57932
565 3.37459
570 2.78453
575 2.29892
580 2.04374
585 1.72489
590 1.36772
595 1.29137
600 1.14976
Ex : 428
200 0.438088
205 0.337228
210 0.377314
215 0.367038
220 0.387652
225 0.383495
230 0.378792
235 0.369063
240 0.37149
245 0.418572
250 0.432042
255 0.380141
260 0.431316
265 0.361138
270 0.427715
275 0.433376
280 0.446074
285 0.448553
290 0.488367
295 0.498605
300 0.522232
305 0.552302
310 0.480302
315 0.535849
320 0.481325
325 0.594241
330 0.610545
335 0.609726
340 0.601646
345 0.585197
350 0.738087
355 0.782699
360 0.78559
365 0.905297
370 0.981254
375 1.14738
380 1.27889
385 1.49396
390 1.87277
395 2.48201
400 3.04395
405 4.56859
410 7.69704
415 228.626
420 4034.41
425 6358.67
430 1620.18
435 196.466
440 30.1697
445 10.0487
450 7.2629
455 6.555
460 6.66167
465 6.80819
470 7.05923
475 7.30512
480 8.97585
485 10.3174
490 9.91782
495 8.75908
500 8.33907
505 7.81502
510 7.32087
515 6.95697
520 6.90811
525 6.23733
530 5.90034
535 5.44591
540 4.89801
545 4.75988
550 4.45603
555 4.03803
560 3.6413
565 3.26146
570 2.83856
575 2.37856
580 1.98546
585 1.70649
590 1.44853
595 1.18336
600 1.12828
Ex : 433
200 0.328592
205 0.366253
210 0.413464
215 0.444516
220 0.407739
225 0.392521
230 0.424438
235 0.416738
240 0.44134
245 0.425222
250 0.424957
255 0.506019
260 0.387814
265 0.445581
270 0.467213
275 0.392014
280 0.49164
285 0.49187
290 0.457172
295 0.415269
300 0.416765
305 0.479737
310 0.443349
315 0.507996
320 0.570892
325 0.51125
330 0.625969
335 0.633443
340 0.652767
345 0.643836
350 0.752956
355 0.692529
360 0.85575
365 0.893637
370 0.934863
375 1.15503
380 1.11974
385 1.4221
390 1.50811
395 1.88112
400 2.39553
405 3.27666
410 4.77841
415 8.22172
420 255.669
425 4371.29
430 6514.97
435 1589.51
440 192.059
445 29.6577
450 9.71213
455 7.34632
460 6.71115
465 6.54227
470 6.39626
475 6.76252
480 6.99268
485 8.08778
490 9.65504
495 9.12936
500 8.16222
505 7.73919
510 7.09246
515 6.55146
520 6.58513
525 5.9292
530 5.55246
535 5.18076
540 5.08096
545 4.85703
550 4.18413
555 3.84829
560 3.32814
565 3.16971
570 2.67676
575 2.30969
580 2.01507
585 1.70841
590 1.38831
595 1.28201
600 1.20933
Ex : 438
200 0.530085
205 0.421746
210 0.320445
215 0.366046
220 0.352876
225 0.387691
230 0.421572
235 0.4772
240 0.39435
245 0.337265
250 0.418612
255 0.403066
260 0.406812
265 0.405065
270 0.4119
275 0.381499
280 0.38816
285 0.446913
290 0.408791
295 0.466186
300 0.442086
305 0.400537
310 0.595418
315 0.531522
320 0.47398
325 0.547827
330 0.54234
335 0.610868
340 0.676363
345 0.69762
350 0.674627
355 0.778755
360 0.742024
365 0.854535
370 0.846081
375 0.970817
380 1.18342
385 1.25167
390 1.40568
395 1.68425
400 1.83996
405 2.55209
410 3.33919
415 4.85163
420 8.03078
425 247.3
430 4347.81
435 6849.11
440 1670.51
445 201.766
450 30.6611
455 9.81072
460 7.00648
465 6.8278
470 6.4302
475 6.11466
480 6.34999
485 6.68393
490 7.2439
495 8.97155
500 8.97436
505 7.45924
510 6.81842
515 6.70895
520 6.00176
525 5.73566
530 5.49836
535 5.08559
540 4.61799
545 4.3323
550 3.88279
555 3.86617
560 3.4323
565 3.05879
570 2.73899
575 2.32676
580 1.88147
585 1.55004
590 1.36444
595 1.14757
600 0.88161
Ex : 443
200 0.395852
205 0.382077
210 0.348967
215 0.408189
220 0.417658
225 0.423985
230 0.409267
235 0.462076
240 0.442465
245 0.346698
250 0.517575
255 0.44374
260 0.4417
265 0.457813
270 0.385789
275 0.487768
280 0.4544
285 0.429611
290 0.448147
295 0.445059
300 0.413214
305 0.488408
310 0.560254
315 0.532704
320 0.506266
325 0.563419
330 0.593857
335 0.574147
340 0.537069
345 0.620147
350 0.665981
355 0.681477
360 0.7062
365 0.821318
370 0.822174
375 1.01268
380 0.991448
385 1.13916
390 1.16311
395 1.36354
400 1.77553
405 1.98809
410 2.4026
415 3.25419
420 4.91887
425 8.01519
430 272.194
435 4568.96
440 6837.83
445 1649.43
450 199.023
455 30.6611
460 10.1236
465 7.64378
470 7.15803
475 6.10312
480 6.22932
485 6.17804
490 6.13415
495 6.57816
500 7.72969
505 8.51443
510 7.32913
515 6.43586
520 6.1089
525 5.74086
530 5.09279
535 4.69631
540 4.4343
545 4.04246
550 3.75041
555 3.50113
560 3.28015
565 2.92996
570 2.70092
575 2.17603
580 1.8804
585 1.52073
590 1.3564
595 1.09521
600 1.18149
Ex : 448
200 0.463092
205 0.406324
210 0.394872
215 0.428774
220 0.471551
225 0.432749
230 0.38329
235 0.375536
240 0.488936
245 0.429054
250 0.449687
255 0.485417
260 0.457333
265 0.39067
270 0.479555
275 0.43705
280 0.395425
285 0.433503
290 0.47747
295 0.463083
300 0.459935
305 0.525301
310 0.436607
315 0.45319
320 0.574117
325 0.54225
330 0.560945
335 0.600874
340 0.619486
345 0.698948
350 0.729488
355 0.7291
360 0.760316
365 0.749572
370 0.722282
375 0.839951
380 0.971165
385 1.0941
390 1.25331
395 1.3903
400 1.4164
405 1.69862
410 2.1032
415 2.6135
420 3.33928
425 4.89951
430 8.33134
435 276.222
440 4749.55
445 7031.89
450 1693.18
455 204.442
460 31.1879
465 10.1368
470 6.95202
475 6.21539
480 6.14963
485 5.69882
490 5.67526
495 5.65496
500 5.78649
505 6.86742
510 7.9189
515 7.21794
520 5.88601
525 5.67267
530 5.01834
535 4.51232
540 4.25385
545 4.09846
550 3.76502
555 3.29857
560 3.16801
565 2.82287
570 2.56531
575 2.10595
580 1.88356
585 1.59484
590 1.3184
595 1.15621
600 1.47896
Ex : 453
200 0.398236
205 0.383807
210 0.376311
215 0.346814
220 0.408218
225 0.410835
230 0.368881
235 0.389542
240 0.465154
245 0.43957
250 0.393186
255 0.428026
260 0.378751
265 0.459072
270 0.438739
275 0.446618
280 0.480935
285 0.429556
290 0.427608
295 0.47867
300 0.446351
305 0.525616
310 0.438685
315 0.529902
320 0.415521
325 0.530594
330 0.507569
335 0.578608
340 0.571728
345 0.519679
350 0.603815
355 0.695235
360 0.68773
365 0.618479
370 0.809928
375 0.814643
380 0.835336
385 0.879094
390 1.05115
395 1.17738
400 1.21971
405 1.5364
410 1.77961
415 2.06213
420 2.42509
425 3.44661
430 4.91732
435 7.99476
440 281.101
445 4963.49
450 7066.67
455 1603.09
460 194.148
465 30.4107
470 9.5888
475 6.38384
480 6.11
485 5.61431
490 5.31033
495 5.1554
500 5.17204
505 5.33827
510 5.42915
515 6.96222
520 6.75952
525 5.45713
530 5.23708
535 4.89084
540 4.06161
545 3.76968
550 3.48007
555 3.19859
560 2.96255
565 2.77836
570 2.26822
575 1.93863
580 1.70269
585 1.50601
590 1.3843
595 1.21053
600 1.03816
Ex : 458
200 0.356802
205 0.371659
210 0.426516
215 0.323526
220 0.365732
225 0.492131
230 0.434933
235 0.410137
240 0.406555
245 0.515054
250 0.415662
255 0.478752
260 0.428657
265 0.412255
270 0.465791
275 0.470096
280 0.412696
285 0.464639
290 0.431435
295 0.515474
300 0.44254
305 0.479856
310 0.471315
315 0.475527
320 0.459572
325 0.49996
330 0.529254
335 0.521104
340 0.616172
345 0.735912
350 0.705374
355 0.654872
360 0.672848
365 0.726175
370 0.752726
375 0.803703
380 0.759875
385 0.888139
390 0.934769
395 1.20082
400 1.27965
405 1.24684
410 1.51622
415 1.9187
420 2.06088
425 2.62476
430 3.30136
435 5.03325
440 8.20396
445 301.04
450 4954.76
455 7185.95
460 1681.52
465 203.692
470 31.0596
475 9.58274
480 6.46336
485 5.92216
490 5.54783
495 5.3653
500 5.00634
505 4.71928
510 4.87402
515 4.9635
520 5.87197
525 6.48492
530 5.2764
535 4.92288
540 4.37804
545 3.96851
550 3.50841
555 3.10489
560 2.92359
565 2.64033
570 2.33315
575 1.98391
580 1.81728
585 1.43084
590 1.30705
595 1.14774
600 1.08521
Ex : 463
200 0.367444
205 0.370517
210 0.427889
215 0.383436
220 0.450029
225 0.473794
230 0.478632
235 0.398187
240 0.379694
245 0.433976
250 0.449074
255 0.31639
260 0.401742
265 0.399079
270 0.442875
275 0.418999
280 0.429781
285 0.402936
290 0.395501
295 0.459872
300 0.537702
305 0.451201
310 0.514719
315 0.453424
320 0.511461
325 0.542729
330 0.565463
335 0.568746
340 0.612265
345 0.566455
350 0.558893
355 0.582709
360 0.623603
365 0.667675
370 0.751749
375 0.811342
380 0.814771
385 0.935692
390 0.966965
395 0.965769
400 1.12828
405 1.10891
410 1.31137
415 1.47774
420 1.7529
425 1.90838
430 2.52552
435 3.45817
440 4.78792
445 8.32315
450 285.107
455 4982.22
460 7426.9
465 1735.68
470 208.89
475 31.0213
480 9.12928
485 6.10452
490 5.6495
495 5.14379
500 4.76471
505 4.57249
510 4.46188
515 4.49851
520 4.47229
525 5.23091
530 6.22103
535 5.33919
540 4.21847
545 4.00266
550 3.69553
555 3.34666
560 2.93236
565 2.73709
570 2.38452
575 2.04694
580 1.77244
585 1.43297
590 1.28119
595 1.13277
600 1.23666
Ex : 468
200 0.364047
205 0.396494
210 0.45778
215 0.334599
220 0.401853
225 0.382483
230 0.40098
235 0.365831
240 0.402261
245 0.399161
250 0.332941
255 0.413992
260 0.431889
265 0.404502
270 0.467076
275 0.421426
280 0.386017
285 0.37824
290 0.459869
295 0.450714
300 0.465635
305 0.424284
310 0.426519
315 0.513081
320 0.509561
325 0.463072
330 0.530897
335 0.46898
340 0.53077
345 0.547419
350 0.59195
355 0.608767
360 0.690568
365 0.659623
370 0.707954
375 0.708387
380 0.823893
385 0.818766
390 0.763131
395 0.978301
400 0.910744
405 1.01955
410 1.14427
415 1.31832
420 1.40779
425 1.49864
430 1.95099
435 2.35653
440 3.13604
445 4.62503
450 7.68174
455 305.219
460 4923.81
465 7574.9
470 1753.93
475 209.297
480 30.521
485 8.72721
490 5.58222
495 4.94565
500 4.72046
505 4.39792
510 4.08192
515 3.90224
520 4.19109
525 3.96459
530 4.2373
535 5.49721
540 5.29597
545 3.93823
550 3.82815
555 3.40825
560 3.02421
565 2.66495
570 2.12546
575 2.00333
580 1.81938
585 1.42025
590 1.21141
595 1.18764
600 1.6645
Ex : 473
200 0.406281
205 0.393982
210 0.412928
215 0.44057
220 0.376534
225 0.345703
230 0.395969
235 0.473963
240 0.438749
245 0.409837
250 0.446469
255 0.420711
260 0.364646
265 0.367884
270 0.396396
275 0.340467
280 0.370243
285 0.433284
290 0.521138
295 0.438778
300 0.46793
305 0.473264
310 0.499709
315 0.488048
320 0.470612
325 0.507057
330 0.547836
335 0.545708
340 0.540641
345 0.536366
350 0.574595
355 0.586821
360 0.620023
365 0.68356
370 0.630862
375 0.718677
380 0.743649
385 0.777507
390 0.809477
395 0.951757
400 0.942222
405 0.931261
410 1.13233
415 1.18394
420 1.50149
425 1.44563
430 1.81609
435 2.03677
440 2.46913
445 3.57258
450 5.13373
455 8.3443
460 342.376
465 5255.44
470 7218.53
475 1615.55
480 193.637
485 28.4918
490 8.24196
495 5.29756
500 4.74645
505 4.39662
510 4.16846
515 3.85911
520 3.95137
525 3.91475
530 3.80176
535 4.07318
540 4.64893
545 5.00196
550 4.18822
555 3.45123
560 3.07807
565 2.86538
570 2.34268
575 2.10974
580 1.64122
585 1.46619
590 1.28852
595 1.17215
600 1.12838
Ex : 478
200 0.4171
205 0.385573
210 0.432576
215 0.425323
220 0.434059
225 0.387999
230 0.505032
235 0.460185
240 0.46484
245 0.512928
250 0.389654
255 0.493583
260 0.465774
265 0.452986
270 0.501303
275 0.492222
280 0.445568
285 0.443773
290 0.410288
295 0.472236
300 0.475027
305 0.419932
310 0.464491
315 0.545201
320 0.529876
325 0.518119
330 0.551826
335 0.634198
340 0.653126
345 0.555922
350 0.638132
355 0.654797
360 0.669805
365 0.693322
370 0.734576
375 0.748303
380 0.751814
385 0.856243
390 0.969601
395 0.887567
400 1.0199
405 1.01902
410 0.995763
415 1.31935
420 1.35163
425 1.48057
430 1.55555
435 1.80949
440 2.29383
445 3.0289
450 3.79104
455 5.49709
460 9.38483
465 367.431
470 5295.2
475 7247.31
480 1698.98
485 203.658
490 30.2368
495 8.47362
500 5.37654
505 4.51336
510 4.55935
515 3.95399
520 3.88432
525 3.74819
530 3.90501
535 3.80938
540 3.61325
545 3.9225
550 4.75894
555 4.22668
560 3.42463
565 2.90328
570 2.62956
575 2.12049
580 1.78542
585 1.53661
590 1.31233
595 1.20333
600 1.23905
Ex : 483
200 0.39959
205 0.411251
210 0.421375
215 0.403781
220 0.418982
225 0.476654
230 0.486693
235 0.454322
240 0.430961
245 0.422318
250 0.413333
255 0.50065
260 0.52814
265 0.466733
270 0.432112
275 0.446553
280 0.480598
285 0.414448
290 0.439059
295 0.440791
300 0.539245
305 0.478717
310 0.481808
315 0.517681
320 0.504407
325 0.573877
330 0.539006
335 0.645287
340 0.56381
345 0.538197
350 0.496435
355 0.607608
360 0.713221
365 0.6705
370 0.70413
375 0.72859
380 0.821298
385 0.797344
390 0.795799
395 0.920595
400 0.898257
405 0.923705
410 0.998283
415 1.04363
420 1.22054
425 1.34546
430 1.509
435 1.69352
440 1.91305
445 2.25146
450 2.68524
455 3.85338
460 5.64661
465 9.70885
470 285.187
475 5164.5
480 7717.39
485 1792.21
490 214.393
495 30.7812
500 8.68412
505 5.18315
510 4.55048
515 4.33043
520 4.04006
525 3.91308
530 3.7632
535 3.60454
540 3.6224
545 3.48041
550 3.50461
555 3.95772
560 4.252
565 3.22124
570 2.5732
575 2.1527
580 1.95432
585 1.67476
590 1.31078
595 1.2599
600 1.13232
Ex : 488
200 0.467056
205 0.465164
210 0.474805
215 0.502006
220 0.443276
225 0.507164
230 0.448633
235 0.438061
240 0.470653
245 0.43644
250 0.452842
255 0.54903
260 0.410599
265 0.457822
270 0.522977
275 0.497999
280 0.520617
285 0.415892
290 0.510823
295 0.491751
300 0.532324
305 0.49545
310 0.411648
315 0.481476
320 0.536197
325 0.487819
330 0.580134
335 0.647915
340 0.572895
345 0.566637
350 0.690208
355 0.637881
360 0.713621
365 0.608929
370 0.708758
375 0.696188
380 0.75119
385 1.00872
390 0.884386
395 0.840377
400 1.00777
405 1.0495
410 1.15326
415 1.18583
420 1.21521
425 1.4063
430 1.4139
435 1.68154
440 1.67266
445 2.06141
450 2.51642
455 3.28473
460 4.62417
465 6.55618
470 9.72814
475 343.502
480 5525.42
485 7609.85
490 1737.49
495 208.15
500 29.9868
505 8.39699
510 5.23975
515 4.50015
520 4.36977
525 3.97904
530 3.99641
535 3.62606
540 3.76401
545 3.29209
550 3.11335
555 3.06014
560 3.65083
565 3.75683
570 2.95464
575 2.20564
580 1.81719
585 1.68254
590 1.35017
595 1.22303
600 1.63509
Ex : 493
200 0.449831
205 0.510345
210 0.474926
215 0.490254
220 0.460551
225 0.498315
230 0.378066
235 0.477572
240 0.500963
245 0.468145
250 0.42142
255 0.526803
260 0.463045
265 0.485311
270 0.459149
275 0.501615
280 0.416111
285 0.429387
290 0.520173
295 0.54047
300 0.516258
305 0.586671
310 0.466814
315 0.479721
320 0.550026
325 0.491296
330 0.570554
335 0.538415
340 0.556206
345 0.49107
350 0.501899
355 0.527918
360 0.590866
365 0.630986
370 0.647126
375 0.69799
380 0.726129
385 0.805186
390 0.945075
395 0.93555
400 0.895644
405 0.947138
410 0.977092
415 1.12152
420 1.16036
425 1.27539
430 1.32951
435 1.47149
440 1.5284
445 1.69724
450 1.94938
455 2.58752
460 3.31883
465 4.43555
470 6.26537
475 9.15581
480 322.475
485 5456.62
490 7933.74
495 1770.12
500 211.266
505 30.6532
510 8.5194
515 5.12508
520 4.24337
525 4.1521
530 4.00727
535 3.69133
540 3.36044
545 3.31525
550 3.08963
555 3.04297
560 2.90214
565 3.07049
570 3.2719
575 2.97479
580 2.17233
585 1.81321
590 1.52591
595 1.37266
600 0.908134
Ex : 498
200 0.561132
205 0.434016
210 0.496303
215 0.375413
220 0.445609
225 0.483251
230 0.513124
235 0.537319
240 0.488148
245 0.533097
250 0.607553
255 0.599404
260 0.509667
265 0.450467
270 0.566358
275 0.493638
280 0.508718
285 0.582071
290 0.527723
295 0.557027
300 0.504841
305 0.537452
310 0.562705
315 0.481165
320 0.550654
325 0.525822
330 0.618189
335 0.565807
340 0.565125
345 0.605664
350 0.606189
355 0.707729
360 0.633279
365 0.783279
370 0.804896
375 0.768614
380 0.770184
385 0.757088
390 0.855993
395 0.927506
400 0.909963
405 1.01851
410 1.02858
415 1.09518
420 1.14589
425 1.25795
430 1.25871
435 1.32443
440 1.44118
445 1.67373
450 1.86282
455 2.20066
460 2.75195
465 3.92088
470 4.2493
475 6.0941
480 9.67259
485 377.995
490 5707.53
495 7626.27
500 1705.81
505 203.685
510 29.92
515 8.42168
520 5.17019
525 4.24471
530 4.2525
535 3.9748
540 3.58454
545 3.41824
550 3.07921
555 2.8715
560 2.91818
565 2.71133
570 2.45653
575 2.64483
580 2.64587
585 1.90102
590 1.65719
595 1.43424
600 1.75604
Ex : 503
200 0.45981
205 0.473954
210 0.511258
215 0.437222
220 0.442276
225 0.513982
230 0.521822
235 0.467691
240 0.602756
245 0.486824
250 0.519391
255 0.491542
260 0.48487
265 0.483324
270 0.589269
275 0.523595
280 0.572474
285 0.573025
290 0.545493
295 0.496026
300 0.571497
305 0.612354
310 0.495714
315 0.509961
320 0.515656
325 0.477407
330 0.565163
335 0.54921
340 0.588193
345 0.651707
350 0.674522
355 0.683045
360 0.615166
365 0.770916
370 0.733623
375 0.76504
380 0.713447
385 0.771525
390 0.937764
395 0.85962
400 0.906158
405 1.02976
410 1.01052
415 1.07552
420 1.15429
425 1.21132
430 1.22451
435 1.35371
440 1.38534
445 1.45405
450 1.733
455 1.98061
460 2.29472
465 3.057
470 3.49405
475 4.39156
480 6.3427
485 9.80849
490 340.802
495 5607.4
500 7743.51
505 1727.13
510 206.585
515 30.1966
520 8.50107
525 5.18983
530 4.55681
535 4.02941
540 3.81299
545 3.48827
550 3.51164
555 2.98765
560 2.6923
565 2.5997
570 2.35422
575 2.07185
580 2.05223
585 2.34174
590 1.85692
595 1.47776
600 1.17141
Ex : 508
200 0.556669
205 0.4961
210 0.505737
215 0.538797
220 0.537781
225 0.549514
230 0.469162
235 0.487991
240 0.499103
245 0.438737
250 0.463426
255 0.472692
260 0.539867
265 0.49819
270 0.444992
275 0.441801
280 0.475562
285 0.450544
290 0.59281
295 0.48476
300 0.484248
305 0.568455
310 0.533928
315 0.576597
320 0.545642
325 0.462909
330 0.567871
335 0.513057
340 0.622681
345 0.690942
350 0.727695
355 0.590353
360 0.583314
365 0.609713
370 0.651663
375 0.585085
380 0.82242
385 0.762832
390 0.779138
395 0.909899
400 0.849119
405 1.02368
410 1.25764
415 1.13622
420 1.17193
425 1.28945
430 1.22471
435 1.06362
440 1.23479
445 1.56322
450 1.51902
455 1.85325
460 2.08043
465 2.4871
470 2.82172
475 3.31346
480 4.16253
485 6.30738
490 9.59509
495 364.104
500 5523.75
505 7602.38
510 1779.64
515 212.572
520 30.295
525 8.65254
530 5.09962
535 3.97605
540 3.76331
545 3.40056
550 3.25167
555 3.15228
560 2.85346
565 2.72565
570 2.32733
575 2.08681
580 1.68702
585 1.79039
590 1.84337
595 1.63202
600 1.10651
Ex : 513
200 0.434746
205 0.492198
210 0.474817
215 0.483381
220 0.442372
225 0.484476
230 0.43034
235 0.454312
240 0.544602
245 0.621249
250 0.468325
255 0.451753
260 0.457593
265 0.494426
270 0.507659
275 0.500176
280 0.468435
285 0.569052
290 0.477327
295 0.584434
300 0.561933
305 0.576436
310 0.554266
315 0.514554
320 0.591947
325 0.56637
330 0.472797
335 0.663456
340 0.662535
345 0.607805
350 0.682493
355 0.710195
360 0.60896
365 0.805375
370 0.751318
375 0.690237
380 0.71746
385 0.845194
390 0.740575
395 0.976245
400 0.929671
405 1.09029
410 0.953977
415 0.888204
420 1.11193
425 1.12889
430 1.06634
435 1.143
440 1.22118
445 1.47791
450 1.67585
455 1.52108
460 2.00607
465 2.1426
470 2.45933
475 2.60107
480 3.25448
485 4.15289
490 6.08386
495 9.49136
500 327.975
505 5357.27
510 7616.67
515 1800.44
520 214.956
525 31.0009
530 8.44181
535 4.92931
540 4.15472
545 3.59582
550 3.39625
555 3.09842
560 2.59488
565 2.63174
570 2.43017
575 1.92011
580 1.69234
585 1.64374
590 1.59156
595 1.73423
600 1.58036
Ex : 518
200 0.566585
205 0.506033
210 0.437418
215 0.531655
220 0.54743
225 0.549906
230 0.47979
235 0.445078
240 0.523737
245 0.472898
250 0.525993
255 0.506822
260 0.626312
265 0.480492
270 0.436958
275 0.448389
280 0.623616
285 0.543115
290 0.473362
295 0.536414
300 0.503812
305 0.431699
310 0.616402
315 0.540037
320 0.529112
325 0.534904
330 0.565234
335 0.598719
340 0.679806
345 0.568827
350 0.638532
355 0.605712
360 0.604126
365 0.722703
370 0.705862
375 0.7289
380 0.872625
385 0.908646
390 0.904863
395 0.913172
400 0.835207
405 0.914793
410 1.03353
415 1.07368
420 1.08964
425 1.10375
430 1.05791
435 1.14159
440 1.21136
445 1.466
450 1.46542
455 1.48105
460 1.52911
465 1.83073
470 1.96132
475 2.26907
480 2.54555
485 3.39293
490 4.42052
495 5.9143
500 9.00023
505 327.679
510 5117.37
515 7443.05
520 1792.95
525 213.801
530 30.5357
535 8.28104
540 4.77769
545 3.74192
550 3.17796
555 3.08731
560 2.98637
565 2.59418
570 2.51957
575 2.18648
580 1.94107
585 1.49706
590 1.61973
595 1.38942
600 1.19663
Ex : 523
200 0.492181
205 0.563387
210 0.516841
215 0.380198
220 0.553504
225 0.534452
230 0.540003
235 0.502619
240 0.587781
245 0.577782
250 0.49451
255 0.56009
260 0.582753
265 0.473996
270 0.437131
275 0.520942
280 0.45948
285 0.526226
290 0.573447
295 0.51614
300 0.488854
305 0.421537
310 0.552662
315 0.584554
320 0.65265
325 0.6193
330 0.579548
335 0.603708
340 0.736103
345 0.643473
350 0.534137
355 0.629737
360 0.602951
365 0.602312
370 0.682596
375 0.649813
380 0.768073
385 0.79805
390 0.70351
395 0.762408
400 0.809592
405 1.00865
410 1.00677
415 0.824871
420 0.948086
425 0.984512
430 1.0772
435 1.1485
440 1.21425
445 1.27149
450 1.31677
455 1.39651
460 1.61865
465 1.7381
470 1.8067
475 1.95691
480 2.20337
485 2.61155
490 3.21968
495 4.19801
500 5.5371
505 9.0648
510 291.188
515 4857.32
520 7193.19
525 1786.02
530 213.417
535 29.9685
540 7.8776
545 4.64713
550 3.81203
555 3.24906
560 3.11541
565 2.6075
570 2.33847
575 1.98526
580 1.77833
585 1.57302
590 1.5649
595 1.37499
600 1.00002
Ex : 528
200 0.485269
205 0.498382
210 0.56785
215 0.434633
220 0.439716
225 0.58549
230 0.591175
235 0.479933
240 0.514145
245 0.646034
250 0.404646
255 0.508035
260 0.539494
265 0.587893
270 0.462459
275 0.48805
280 0.510616
285 0.487181
290 0.527469
295 0.538272
300 0.597903
305 0.586816
310 0.487275
315 0.512602
320 0.515141
325 0.581021
330 0.515042
335 0.545863
340 0.543816
345 0.686808
350 0.589991
355 0.712441
360 0.686841
365 0.732708
370 0.73953
375 0.710343
380 0.679285
385 0.784807
390 0.758307
395 0.738957
400 0.764881
405 0.823642
410 0.978517
415 0.963899
420 1.14371
425 1.11788
430 0.967752
435 1.05101
440 1.17158
445 1.24155
450 1.32785
455 1.26073
460 1.55539
465 1.53583
470 1.55416
475 1.69615
480 1.93263
485 2.08499
490 2.45828
495 3.10226
500 4.02658
505 5.56792
510 8.40103
515 269.679
520 4684.14
525 6983.58
530 1706.45
535 203.506
540 29.0045
545 7.62278
550 4.41061
555 3.32095
560 2.87707
565 2.83173
570 2.3612
575 2.11911
580 1.99932
585 1.60989
590 1.67387
595 1.4387
600 0.916992
Ex : 533
200 0.534988
205 0.58421
210 0.486166
215 0.485083
220 0.539764
225 0.455628
230 0.637453
235 0.408144
240 0.59395
245 0.557292
250 0.543506
255 0.507921
260 0.619151
265 0.614653
270 0.565903
275 0.485335
280 0.513363
285 0.636357
290 0.509455
295 0.501015
300 0.511726
305 0.538224
310 0.558028
315 0.496625
320 0.506987
325 0.581115
330 0.573005
335 0.589706
340 0.505893
345 0.679218
350 0.479236
355 0.655343
360 0.609942
365 0.587415
370 0.610572
375 0.729833
380 0.701176
385 0.735301
390 0.846004
395 0.861486
400 0.687418
405 0.959936
410 0.898321
415 1.02142
420 1.02909
425 1.0253
430 1.14603
435 1.19648
440 1.14256
445 1.18189
450 1.17215
455 1.25824
460 1.3761
465 1.61151
470 1.47164
475 1.59743
480 1.69746
485 1.88857
490 2.11096
495 2.48191
500 2.90538
505 3.965
510 5.37724
515 8.03825
520 263.678
525 4420.35
530 6761.23
535 1700.87
540 202.546
545 28.6601
550 7.18486
555 4.00312
560 3.03934
565 2.52453
570 2.37727
575 2.17438
580 1.88061
585 1.49695
590 1.383
595 1.38721
600 1.63996
Ex : 538
200 0.578681
205 0.562071
210 0.597318
215 0.591042
220 0.523635
225 0.549352
230 0.513013
235 0.481857
240 0.483459
245 0.547603
250 0.543104
255 0.684984
260 0.674466
265 0.530234
270 0.599112
275 0.536782
280 0.688207
285 0.527419
290 0.54095
295 0.565702
300 0.514631
305 0.544347
310 0.56749
315 0.56558
320 0.61255
325 0.608787
330 0.512887
335 0.555319
340 0.639997
345 0.675879
350 0.693788
355 0.639546
360 0.676108
365 0.662276
370 0.694553
375 0.723096
380 0.814769
385 0.723907
390 0.758625
395 0.667586
400 0.742027
405 0.932108
410 0.929909
415 0.994416
420 0.752931
425 1.11779
430 1.06066
435 1.137
440 1.13636
445 1.12987
450 1.13081
455 1.24728
460 1.33995
465 1.50244
470 1.55519
475 1.70735
480 1.83208
485 1.76248
490 1.93214
495 2.10031
500 2.30753
505 2.98642
510 3.9375
515 5.40953
520 7.65193
525 221.291
530 4132.47
535 6612
540 1727.28
545 206.003
550 28.7437
555 6.90243
560 3.83633
565 3.03285
570 2.37859
575 1.93056
580 1.78797
585 1.5775
590 1.47806
595 1.35256
600 1.78121
Ex : 543
200 0.482813
205 0.546333
210 0.587161
215 0.702254
220 0.539867
225 0.51679
230 0.593596
235 0.475523
240 0.464035
245 0.526397
250 0.71428
255 0.557004
260 0.517944
265 0.590947
270 0.742776
275 0.461204
280 0.516537
285 0.522785
290 0.620946
295 0.568172
300 0.512533
305 0.523909
310 0.497588
315 0.568861
320 0.502493
325 0.613608
330 0.575913
335 0.578133
340 0.536335
345 0.527854
350 0.538058
355 0.625787
360 0.674339
365 0.651614
370 0.619398
375 0.618367
380 0.686342
385 0.799883
390 0.721532
395 0.758319
400 0.82912
405 0.809578
410 0.808312
415 0.855527
420 0.870318
425 1.02907
430 0.97837
435 0.990737
440 1.03713
445 0.984864
450 1.16611
455 1.40296
460 1.35733
465 1.31543
470 1.39692
475 1.60538
480 1.55556
485 1.55119
490 1.66298
495 1.82438
500 1.85905
505 2.45877
510 2.85113
515 3.61674
520 4.91123
525 7.60538
530 194.126
535 3873.24
540 6454.43
545 1723.81
550 206.191
555 28.2902
560 6.98646
565 3.60952
570 2.63326
575 2.04683
580 1.73965
585 1.61363
590 1.69056
595 1.43343
600 2.9298
Ex : 548
200 0.615362
205 0.487149
210 0.585644
215 0.646509
220 0.512513
225 0.434472
230 0.479035
235 0.542674
240 0.376619
245 0.465092
250 0.595813
255 0.602358
260 0.509656
265 0.502629
270 0.64711
275 0.574467
280 0.5045
285 0.524548
290 0.515408
295 0.556174
300 0.574162
305 0.599666
310 0.625635
315 0.493197
320 0.498498
325 0.616288
330 0.547576
335 0.513441
340 0.578781
345 0.64878
350 0.5331
355 0.589809
360 0.730117
365 0.605857
370 0.695158
375 0.798714
380 0.788712
385 0.639495
390 0.621349
395 0.996002
400 0.908263
405 0.766752
410 0.944243
415 0.863559
420 1.00016
425 0.949287
430 0.855371
435 0.928113
440 1.03293
445 1.11065
450 1.03362
455 1.19576
460 1.22995
465 1.5237
470 1.28613
475 1.20104
480 1.53469
485 1.52331
490 1.73028
495 1.70215
500 1.68009
505 1.6838
510 2.23972
515 2.92496
520 3.50453
525 5.13578
530 7.24661
535 213.343
540 3810.53
545 6103.33
550 1648.18
555 195.973
560 26.8695
565 6.49549
570 3.32845
575 2.40435
580 1.9169
585 1.66655
590 1.41806
595 1.38338
600 1.50888
Ex : 553
200 0.446636
205 0.526026
210 0.571561
215 0.58867
220 0.634679
225 0.532244
230 0.510972
235 0.517685
240 0.46758
245 0.516595
250 0.639251
255 0.571834
260 0.566166
265 0.600843
270 0.600643
275 0.572556
280 0.562303
285 0.572318
290 0.579167
295 0.604072
300 0.512049
305 0.498971
310 0.614438
315 0.698437
320 0.56841
325 0.613729
330 0.591461
335 0.603879
340 0.59376
345 0.70891
350 0.675627
355 0.621104
360 0.611628
365 0.626948
370 0.654736
375 0.713004
380 0.692675
385 0.775605
390 0.804804
395 0.81889
400 0.835741
405 0.849603
410 0.915504
415 0.765686
420 0.844685
425 1.03148
430 1.03507
435 0.917232
440 1.05609
445 1.0087
450 1.06809
455 1.22591
460 1.23968
465 1.5139
470 1.35831
475 1.23985
480 1.42457
485 1.42088
490 1.57463
495 1.65789
500 1.62414
505 1.75138
510 2.04067
515 2.10516
520 2.61332
525 3.61253
530 4.95629
535 6.81867
540 175.447
545 3519.17
550 5917.3
555 1625.98
560 193.817
565 26.2967
570 5.94853
575 3.05939
580 2.30946
585 1.63616
590 1.47912
595 1.32252
600 1.55036
Ex : 558
200 0.54166
205 0.533369
210 0.615754
215 0.595396
220 0.512983
225 0.620551
230 0.578502
235 0.465838
240 0.628295
245 0.504328
250 0.50262
255 0.519441
260 0.583252
265 0.655376
270 0.605114
275 0.564947
280 0.591481
285 0.573187
290 0.533961
295 0.561187
300 0.619491
305 0.60634
310 0.568606
315 0.593261
320 0.687557
325 0.646654
330 0.665626
335 0.616979
340 0.646469
345 0.646033
350 0.611098
355 0.749812
360 0.753604
365 0.67044
370 0.780996
375 0.812419
380 0.755125
385 0.703818
390 0.678057
395 0.851296
400 0.976568
405 0.967322
410 0.840528
415 0.912726
420 0.913718
425 1.00686
430 1.00734
435 0.939537
440 1.11278
445 0.934098
450 1.04331
455 1.14113
460 1.31414
465 1.24936
470 1.29106
475 1.22943
480 1.29486
485 1.35842
490 1.34762
495 1.33813
500 1.53361
505 1.66848
510 1.79456
515 1.93393
520 2.00854
525 2.34053
530 3.08774
535 4.4005
540 6.7263
545 161.838
550 3284.75
555 5684.01
560 1578.58
565 188.371
570 25.3751
575 5.82231
580 2.84661
585 1.89586
590 1.40566
595 1.31601
600 1.52895
Ex : 563
200 0.613599
205 0.588355
210 0.596169
215 0.562644
220 0.538612
225 0.611072
230 0.571518
235 0.455428
240 0.544743
245 0.553695
250 0.532425
255 0.661626
260 0.763343
265 0.567494
270 0.57142
275 0.635313
280 0.559157
285 0.764637
290 0.656549
295 0.676222
300 0.721397
305 0.524607
310 0.610371
315 0.663913
320 0.573555
325 0.588781
330 0.528192
335 0.633308
340 0.519056
345 0.559085
350 0.636645
355 0.661645
360 0.703702
365 0.785887
370 0.76551
375 0.883156
380 0.855392
385 0.713773
390 0.876566
395 0.751983
400 0.713935
405 0.782377
410 0.81689
415 0.867326
420 0.9868
425 0.933919
430 0.950406
435 1.04799
440 0.967778
445 0.941073
450 1.11648
455 1.16738
460 1.26557
465 1.28222
470 1.07909
475 1.13136
480 1.42283
485 1.10638
490 1.29083
495 1.22265
500 1.20269
505 1.53936
510 1.42934
515 1.76483
520 1.87394
525 2.20133
530 2.57815
535 3.29051
540 4.22231
545 6.03819
550 152.539
555 3128.39
560 5326.37
565 1512.52
570 180.406
575 24.2599
580 5.31063
585 2.51856
590 1.85473
595 1.4624
600 1.79825
Ex : 568
200 0.594813
205 0.462459
210 0.691877
215 0.494314
220 0.705141
225 0.65786
230 0.599918
235 0.641996
240 0.504785
245 0.545551
250 0.582068
255 0.626971
260 0.58683
265 0.619097
270 0.61132
275 0.618003
280 0.570232
285 0.518546
290 0.497623
295 0.558895
300 0.643994
305 0.533064
310 0.527566
315 0.75094
320 0.600029
325 0.646962
330 0.575255
335 0.598294
340 0.658484
345 0.618061
350 0.557214
355 0.539308
360 0.536648
365 0.673082
370 0.856284
375 0.670735
380 0.748044
385 0.821216
390 0.796582
395 0.751945
400 0.829781
405 0.816462
410 0.837406
415 0.814198
420 0.798792
425 0.868358
430 0.819018
435 1.00951
440 0.983659
445 0.94869
450 1.00079
455 0.973021
460 1.10488
465 1.23118
470 1.22666
475 1.32549
480 1.35826
485 1.16316
490 1.20937
495 1.2522
500 1.26669
505 1.43808
510 1.39661
515 1.441
520 1.70391
525 1.97247
530 2.2245
535 2.40797
540 3.05706
545 4.04431
550 5.73617
555 116.227
560 2753.23
565 5057.28
570 1499.62
575 179.228
580 23.7214
585 4.98365
590 2.32219
595 1.87945
600 2.01178
Ex : 573
200 0.593701
205 0.738431
210 0.542589
215 0.655398
220 0.520166
225 0.599569
230 0.54341
235 0.641834
240 0.704379
245 0.680268
250 0.650547
255 0.521911
260 0.571934
265 0.426464
270 0.527262
275 0.494602
280 0.545213
285 0.600582
290 0.61632
295 0.417522
300 0.451585
305 0.619401
310 0.505239
315 0.476113
320 0.550256
325 0.694205
330 0.58598
335 0.635299
340 0.688454
345 0.700398
350 0.752209
355 0.647615
360 0.559035
365 0.662676
370 0.678542
375 0.814252
380 0.838772
385 0.807954
390 0.795783
395 0.762812
400 0.77936
405 0.761478
410 0.872201
415 0.808901
420 0.827321
425 0.850612
430 0.941164
435 0.924945
440 0.93407
445 1.09946
450 1.1786
455 0.997231
460 1.00278
465 1.16147
470 1.06686
475 1.14048
480 1.25091
485 1.18438
490 1.33831
495 1.06164
500 1.20355
505 1.26971
510 1.60379
515 1.36308
520 1.4946
525 1.45639
530 1.79539
535 1.90694
540 2.11449
545 2.88197
550 3.7671
555 5.37746
560 98.6993
565 2351.54
570 4571.45
575 1393.8
580 167.126
585 21.7439
590 4.45347
595 2.00038
600 3.63561
Ex : 578
200 0.516239
205 0.576904
210 0.511949
215 0.451843
220 0.594447
225 0.505845
230 0.557589
235 0.512325
240 0.577159
245 0.615791
250 0.754591
255 0.70856
260 0.54893
265 0.671872
270 0.602192
275 0.66061
280 0.617611
285 0.662526
290 0.731225
295 0.52519
300 0.514261
305 0.500344
310 0.546043
315 0.526796
320 0.586548
325 0.537358
330 0.616603
335 0.659953
340 0.738227
345 0.667969
350 0.653356
355 0.756871
360 0.630668
365 0.623347
370 0.644115
375 0.857759
380 0.784477
385 0.703844
390 0.813367
395 0.815708
400 0.796927
405 0.832035
410 0.917769
415 0.821987
420 0.90612
425 0.994292
430 0.842753
435 0.824747
440 1.0734
445 1.00579
450 1.00034
455 1.08829
460 1.01197
465 1.20601
470 1.25283
475 1.18097
480 1.08098
485 1.14739
490 1.14234
495 1.13902
500 1.11868
505 1.07141
510 1.12872
515 1.2016
520 1.2827
525 1.34077
530 1.42968
535 1.69121
540 1.93151
545 2.20416
550 2.8937
555 3.83327
560 4.93508
565 85.2061
570 2084.56
575 3892.89
580 1180.64
585 141.32
590 18.71
595 3.7443
600 2.71434
Ex : 583
200 0.449411
205 0.574568
210 0.599943
215 0.542337
220 0.622126
225 0.613782
230 0.422168
235 0.494602
240 0.672181
245 0.552884
250 0.630679
255 0.534064
260 0.507259
265 0.467884
270 0.574811
275 0.469278
280 0.695079
285 0.641208
290 0.503291
295 0.534333
300 0.569274
305 0.560786
310 0.545691
315 0.498596
320 0.639054
325 0.601816
330 0.595959
335 0.683727
340 0.713212
345 0.606881
350 0.654691
355 0.593151
360 0.618422
365 0.650095
370 0.644083
375 0.608932
380 0.646001
385 0.775448
390 0.751778
395 0.91524
400 0.945433
405 0.727814
410 0.856938
415 0.775211
420 0.835569
425 0.828921
430 0.780842
435 0.751542
440 0.914009
445 0.964262
450 1.06297
455 0.973361
460 1.08852
465 1.05464
470 1.10031
475 1.11958
480 1.02729
485 1.10249
490 0.994179
495 1.16876
500 1.11971
505 1.10843
510 0.970467
515 0.967887
520 1.26343
525 1.46024
530 1.31585
535 1.36447
540 1.65535
545 1.73968
550 2.22551
555 2.49443
560 3.51473
565 4.7859
570 71.3673
575 1830.09
580 3349.99
585 963.857
590 115.19
595 15.0414
600 3.14481
Ex : 588
200 0.493338
205 0.42901
210 0.689198
215 0.581957
220 0.547408
225 0.494103
230 0.519838
235 0.59132
240 0.543744
245 0.716458
250 0.579457
255 0.545712
260 0.51194
265 0.570686
270 0.550638
275 0.597433
280 0.505714
285 0.701782
290 0.564139
295 0.552866
300 0.505675
305 0.569811
310 0.487601
315 0.53131
320 0.629981
325 0.573356
330 0.699402
335 0.600725
340 0.708425
345 0.563396
350 0.697722
355 0.606509
360 0.639231
365 0.77823
370 0.761579
375 0.746557
380 0.720725
385 0.668746
390 0.806305
395 0.701158
400 0.663469
405 0.646866
410 0.846404
415 0.800745
420 0.949265
425 0.875408
430 0.654785
435 0.843031
440 0.738772
445 0.89496
450 0.919224
455 1.01691
460 0.79462
465 1.14694
470 0.988761
475 0.917368
480 0.899708
485 1.05762
490 0.899934
495 1.20757
500 1.18788
505 1.1529
510 0.944752
515 1.0066
520 1.18439
525 1.16489
530 1.22931
535 1.06955
540 1.29077
545 1.42026
550 1.74832
555 2.05171
560 2.63463
565 3.06757
570 4.10347
575 62.6092
580 1524.08
585 2850.37
590 842.907
595 100.576
600 13.8699
Ex : 593
200 0.526579
205 0.649238
210 0.65352
215 0.498043
220 0.669996
225 0.45541
230 0.523266
235 0.789949
240 0.708838
245 0.648012
250 0.486112
255 0.630585
260 0.514595
265 0.53229
270 0.385028
275 0.524912
280 0.617253
285 0.596336
290 0.637665
295 0.46307
300 0.461849
305 0.522805
310 0.479581
315 0.662033
320 0.442221
325 0.64291
330 0.658698
335 0.579155
340 0.483624
345 0.566018
350 0.504126
355 0.657025
360 0.622644
365 0.709322
370 0.836676
375 0.747363
380 0.665461
385 0.658985
390 0.771432
395 0.911669
400 0.894839
405 0.772302
410 0.869704
415 0.759184
420 0.781172
425 1.01177
430 0.961319
435 0.947724
440 0.903049
445 0.993401
450 1.01326
455 0.89977
460 0.972845
465 1.08372
470 1.27918
475 1.13595
480 0.996456
485 1.30772
490 1.11336
495 1.11988
500 1.1743
505 0.954749
510 1.15034
515 1.11003
520 0.910212
525 1.00684
530 1.17139
535 1.18501
540 1.14088
545 1.40911
550 1.31113
555 1.55633
560 2.07702
565 2.33307
570 2.61405
575 3.76931
580 53.4091
585 1339.44
590 2423.16
595 715.939
600 101.436
Ex : 598
200 0.579979
205 0.685279
210 0.565282
215 0.476841
220 0.673933
225 0.554681
230 0.532949
235 0.577226
240 0.471297
245 0.564051
250 0.634009
255 0.575652
260 0.500217
265 0.617586
270 0.659338
275 0.670516
280 0.661372
285 0.716325
290 0.606576
295 0.481473
300 0.584451
305 0.669793
310 0.480312
315 0.538978
320 0.468987
325 0.616284
330 0.77353
335 0.757176
340 0.651862
345 0.6484
350 0.72787
355 0.658487
360 0.777791
365 0.744543
370 0.657405
375 0.750636
380 0.766342
385 0.817979
390 0.697321
395 0.858047
400 0.878209
405 0.812022
410 0.80711
415 0.702989
420 0.745486
425 0.647647
430 0.904117
435 1.0054
440 0.890447
445 1.12145
450 0.880194
455 1.07398
460 1.01272
465 1.0007
470 1.10247
475 1.22806
480 1.00292
485 1.06485
490 1.01729
495 1.12635
500 0.965799
505 1.1128
510 1.27059
515 1.07015
520 1.19827
525 1.05985
530 1.05042
535 1.20987
540 1.08405
545 1.19609
550 1.22273
555 1.5761
560 1.65903
565 1.92146
570 1.97542
575 2.323
580 3.26266
585 51.6432
590 1178.76
595 2110.18
600 1280.86
Ex : 603
200 0.527511
205 0.727961
210 0.540682
215 0.595313
220 0.615352
225 0.49821
230 0.470873
235 0.553343
240 0.624231
245 0.509364
250 0.819132
255 0.756446
260 0.624182
265 0.71991
270 0.597557
275 0.574738
280 0.545136
285 0.705801
290 0.664144
295 0.597311
300 0.454558
305 0.546901
310 0.541429
315 0.524962
320 0.655314
325 0.724062
330 0.75423
335 0.677277
340 0.604689
345 0.705215
350 0.774346
355 0.738587
360 0.754167
365 0.796458
370 0.648324
375 0.664057
380 0.700881
385 0.858561
390 0.784558
395 0.811263
400 0.927474
405 0.912178
410 0.775045
415 0.815474
420 0.880513
425 0.741946
430 0.862406
435 0.892168
440 0.904349
445 0.984246
450 0.781779
455 0.810584
460 1.02285
465 1.16277
470 1.12805
475 1.07648
480 1.20399
485 0.994999
490 1.0319
495 0.867767
500 0.900431
505 0.913892
510 1.07227
515 1.02887
520 0.879811
525 1.0646
530 1.08082
535 1.26022
540 1.24693
545 1.10985
550 1.15518
555 1.30688
560 1.19053
565 1.53727
570 1.64953
575 1.87916
580 2.30677
585 2.84875
590 45.0158
595 1007.09
600 2026.72
