File format V 1.0
sam. 10. déc. 01:43:54 2016
Operator : 
Comments : 

=============================================
SpectroFluorometer parameters
Mode : 3D measurement
Data : Fluorescence
Phospho. : Ordinary
Spectrum : Fluorescence

Scan speed : 2400 nm/mn
Response : 100 ms
PM Voltage : 700 V
Shutter : On

Lambda Ex. Start : 203
Lambda Ex. End : 603
Lambda Ex. Step : 5
Ex. Slit : 5 nm

Lambda Em. Start : 200
Lambda Em. End : 600
Lambda Em. Step : 5
Em. Slit : 5 nm

Repetition : 1
Decal lambda em : 10
=============================================
DATA
Ex : 203
200 17.7396
205 15.2779
210 12.7382
215 16.5096
220 14.9881
225 13.6669
230 18.853
235 12.2179
240 13.0562
245 14.2655
250 12.3404
255 13.6652
260 15.4423
265 16.7613
270 12.5102
275 15.1908
280 13.7223
285 12.986
290 12.3502
295 16.3635
300 14.372
305 14.2639
310 15.6751
315 15.7711
320 12.6406
325 14.5352
330 16.3899
335 14.4588
340 13.4161
345 14.3318
350 12.9753
355 12.3095
360 16.7616
365 18.6013
370 13.9835
375 16.3073
380 20.1776
385 13.7321
390 18.1877
395 16.3544
400 17.6935
405 20.0493
410 19.6459
415 14.4652
420 12.8173
425 19.0965
430 16.5912
435 16.1049
440 16.1812
445 19.772
450 18.7011
455 14.5603
460 19.9435
465 22.3423
470 18.7542
475 16.7646
480 12.289
485 17.0184
490 15.4309
495 18.6798
500 14.107
505 17.0308
510 15.1987
515 13.8803
520 12.2588
525 13.6634
530 14.2307
535 19.2249
540 14.6058
545 12.8928
550 14.7751
555 20.3185
560 13.7227
565 17.8579
570 12.4625
575 14.7166
580 13.284
585 10.8168
590 9.37892
595 13.8223
600 27.2728
Ex : 208
200 10.2989
205 13.7713
210 13.293
215 12.4194
220 14.214
225 16.7173
230 14.1266
235 14.0353
240 17.2171
245 15.7165
250 12.9483
255 14.0706
260 16.4003
265 13.944
270 14.1188
275 13.2252
280 17.6318
285 18.0242
290 15.9212
295 11.1817
300 13.2415
305 13.4994
310 14.2504
315 9.02777
320 14.8809
325 14.7014
330 12.1312
335 19.2624
340 17.412
345 16.3075
350 14.6323
355 21.616
360 15.435
365 20.826
370 15.1313
375 15.805
380 19.2361
385 15.2713
390 15.5221
395 16.7681
400 16.8384
405 17.5282
410 16.7697
415 14.4945
420 18.2771
425 14.3668
430 20.0993
435 18.3006
440 18.9563
445 14.8706
450 17.0931
455 17.7206
460 17.2801
465 19.4241
470 18.1526
475 15.0786
480 18.8369
485 17.4956
490 17.7531
495 17.1326
500 16.7566
505 13.6948
510 13.5499
515 10.7868
520 16.7233
525 15.6442
530 16.8358
535 16.7244
540 15.6941
545 16.7179
550 13.9903
555 14.8955
560 12.684
565 11.7468
570 11.4811
575 12.7631
580 10.7339
585 15.0853
590 18.3919
595 9.87123
600 7.91754
Ex : 213
200 10.0176
205 14.4989
210 11.8462
215 13.8937
220 14.4257
225 13.9995
230 11.6097
235 14.2758
240 11.6172
245 13.1437
250 13.7016
255 10.7101
260 10.504
265 12.7985
270 12.7281
275 13.1474
280 10.8638
285 14.5987
290 15.6252
295 13.5559
300 11.1136
305 15.6192
310 13.7386
315 17.7434
320 12.8899
325 14.6159
330 12.2324
335 15.9462
340 19.1635
345 22.0711
350 15.5363
355 13.2836
360 15.0288
365 14.2208
370 19.8962
375 15.5059
380 14.8168
385 15.9241
390 18.3202
395 15.9418
400 14.7145
405 17.0705
410 16.2332
415 19.6399
420 16.2562
425 13.8635
430 15.8146
435 17.2127
440 15.1366
445 15.41
450 12.6676
455 16.4085
460 19.8504
465 19.3477
470 18.4306
475 13.9333
480 15.3889
485 12.8235
490 15.7376
495 20.1495
500 14.7786
505 11.825
510 12.4887
515 14.5798
520 17.245
525 14.9041
530 17.5943
535 15.0465
540 15.7318
545 14.6376
550 18.112
555 16.7016
560 13.5345
565 14.6756
570 17.2139
575 13.8889
580 12.0813
585 17.6408
590 16.9341
595 13.2826
600 1.5115
Ex : 218
200 16.8525
205 12.7274
210 12.9333
215 11.8515
220 15.3893
225 13.7956
230 16.4202
235 9.92495
240 7.97232
245 14.4619
250 12.2203
255 13.1051
260 11.5882
265 13.7306
270 11.9815
275 14.616
280 13.2258
285 14.5355
290 8.27906
295 9.19676
300 13.5571
305 14.1449
310 14.1452
315 14.6073
320 12.6922
325 12.7523
330 13.3068
335 17.8172
340 13.3326
345 19.8536
350 20.7675
355 17.1083
360 15.007
365 16.06
370 12.7046
375 15.8403
380 13.145
385 13.604
390 17.0057
395 15.7134
400 19.1918
405 15.3047
410 14.741
415 18.5995
420 18.3442
425 15.555
430 17.4648
435 20.8753
440 16.8072
445 12.2147
450 13.6931
455 19.7418
460 14.8415
465 20.1904
470 15.1653
475 15.2883
480 14.5897
485 18.6858
490 18.3768
495 11.0627
500 16.7216
505 15.652
510 15.7559
515 17.102
520 14.8677
525 12.9636
530 13.0568
535 14.4055
540 12.6887
545 14.1744
550 14.3797
555 14.7786
560 13.5373
565 14.7293
570 11.0951
575 13.1031
580 11.8236
585 14.7878
590 11.9862
595 13.1994
600 13.0227
Ex : 223
200 15.4021
205 11.8157
210 13.8105
215 15.1696
220 16.2171
225 12.1194
230 14.1435
235 13.8475
240 12.7709
245 10.0522
250 11.7539
255 10.8655
260 9.35327
265 13.1089
270 14.7056
275 14.3708
280 11.9475
285 10.3979
290 16.112
295 14.7401
300 14.1499
305 7.96515
310 11.878
315 13.6312
320 14.2126
325 13.0622
330 15.096
335 15.723
340 13.5481
345 11.2702
350 14.8677
355 12.8181
360 14.6284
365 13.7872
370 17.3091
375 13.7312
380 13.143
385 15.1902
390 14.5931
395 16.2236
400 15.4729
405 19.0693
410 15.2745
415 16.0676
420 15.2305
425 15.3417
430 13.7
435 15.5142
440 15.2571
445 15.0025
450 15.1079
455 13.6806
460 12.6172
465 13.6883
470 18.9945
475 14.3581
480 14.7554
485 17.3512
490 15.5296
495 14.342
500 13.8023
505 15.3847
510 12.2034
515 13.6511
520 13.9846
525 16.2404
530 16.4234
535 11.9641
540 14.5236
545 13.8105
550 12.7124
555 18.0362
560 15.1858
565 13.8999
570 15.2027
575 14.2853
580 12.5478
585 11.3582
590 13.6026
595 9.75673
600 13.5171
Ex : 228
200 10.16
205 13.7221
210 14.6138
215 12.6598
220 13.3371
225 14.7012
230 15.4068
235 15.9418
240 12.4085
245 15.6284
250 14.1182
255 12.2233
260 11.5393
265 7.65159
270 11.9764
275 8.27103
280 11.7891
285 11.9807
290 12.5428
295 12.8049
300 9.12552
305 9.63463
310 8.12053
315 10.7565
320 14.965
325 10.4397
330 14.8534
335 13.9199
340 11.1559
345 15.1076
350 13.8336
355 13.3659
360 15.586
365 14.6955
370 16.1949
375 18.5844
380 17.3908
385 12.9414
390 17.0378
395 15.5319
400 15.5867
405 17.4455
410 13.7386
415 14.3546
420 15.7931
425 13.7314
430 15.634
435 15.004
440 15.0984
445 17.3698
450 15.0178
455 18.1253
460 17.2574
465 12.4705
470 18.566
475 12.979
480 17.3322
485 13.6445
490 17.8552
495 12.8637
500 16.9977
505 12.8283
510 13.3748
515 13.9066
520 15.1125
525 13.0403
530 12.7044
535 11.5858
540 16.0854
545 15.5877
550 15.4755
555 14.7901
560 16.3504
565 10.1802
570 10.0162
575 12.633
580 9.88232
585 10.5147
590 14.5174
595 15.2555
600 18.2785
Ex : 233
200 10.4953
205 9.48343
210 15.7619
215 9.39502
220 12.8606
225 9.94994
230 9.8347
235 12.8531
240 10.9306
245 13.8231
250 10.2145
255 10.1379
260 13.1909
265 14.1755
270 11.8105
275 11.9364
280 9.35889
285 9.42703
290 12.426
295 9.3041
300 11.2609
305 15.0958
310 14.2585
315 10.4634
320 13.1243
325 14.9681
330 15.3731
335 14.903
340 10.6766
345 11.9401
350 14.5264
355 11.5223
360 13.2542
365 10.7256
370 13.461
375 10.8654
380 12.2245
385 15.8188
390 11.7748
395 14.4684
400 14.5965
405 13.1686
410 10.1011
415 12.8825
420 10.0259
425 13.5852
430 15.1836
435 15.6225
440 15.2297
445 13.3967
450 12.1893
455 13.1945
460 14.2628
465 14.3455
470 12.9859
475 10.8468
480 10.4796
485 11.8627
490 11.6448
495 10.9236
500 13.6789
505 13.4389
510 9.71782
515 12.3353
520 10.7991
525 13.844
530 13.0635
535 13.2739
540 11.9021
545 13.0863
550 14.5338
555 14.9251
560 12.5085
565 11.3497
570 12.5304
575 11.9997
580 11.0276
585 12.656
590 8.94687
595 10.5619
600 20.8461
Ex : 238
200 8.00905
205 9.88609
210 8.80664
215 7.64137
220 10.569
225 9.09378
230 7.99077
235 7.43193
240 8.78479
245 7.393
250 8.96043
255 8.68586
260 13.2569
265 8.04065
270 8.26679
275 8.45149
280 11.3221
285 9.30179
290 8.65559
295 7.75991
300 7.13905
305 11.4034
310 8.46786
315 7.63772
320 7.0832
325 9.68398
330 11.3438
335 10.2706
340 11.8547
345 14.4956
350 14.5125
355 11.8299
360 11.9239
365 12.1938
370 11.9762
375 14.8346
380 15.2668
385 11.526
390 10.9925
395 13.3278
400 10.9294
405 15.5605
410 11.807
415 13.166
420 14.248
425 12.2882
430 14.4644
435 11.8662
440 12.18
445 9.06647
450 14.0072
455 10.3023
460 16.643
465 13.341
470 13.1768
475 13.2902
480 11.8465
485 12.4105
490 10.5946
495 10.9826
500 11.0129
505 10.3833
510 12.7283
515 10.1391
520 13.9607
525 11.2784
530 11.9799
535 9.48371
540 12.3133
545 12.314
550 10.0548
555 9.3102
560 11.9058
565 12.1256
570 9.83202
575 10.8558
580 10.4929
585 8.23508
590 9.65146
595 7.8226
600 2.21949
Ex : 243
200 7.71168
205 7.91814
210 8.74331
215 8.15817
220 6.44075
225 7.56382
230 9.93073
235 8.35947
240 8.84145
245 8.26914
250 9.53913
255 9.2424
260 8.09233
265 9.65457
270 9.10818
275 7.18512
280 7.44644
285 10.0646
290 9.01453
295 10.1757
300 7.85766
305 8.88648
310 10.8186
315 8.08719
320 8.23799
325 6.88391
330 9.93525
335 11.0937
340 11.5585
345 13.5686
350 11.3971
355 11.6327
360 9.79305
365 9.11314
370 10.6519
375 8.75745
380 10.3371
385 9.70802
390 11.5095
395 10.1884
400 10.1192
405 8.28496
410 11.0285
415 12.2497
420 11.0366
425 10.0112
430 12.198
435 9.87681
440 13.2513
445 9.76135
450 9.56973
455 14.9021
460 10.1147
465 8.08193
470 9.02623
475 10.1712
480 10.7174
485 9.73165
490 8.52977
495 10.1899
500 11.104
505 10.3479
510 8.55274
515 8.45787
520 10.4395
525 10.0697
530 12.1941
535 9.86411
540 9.64617
545 9.81317
550 11.1571
555 8.83981
560 9.04234
565 7.93559
570 8.29792
575 8.41644
580 9.1153
585 7.03276
590 6.46663
595 9.71564
600 1.1056
Ex : 248
200 8.60119
205 6.519
210 8.34752
215 6.07141
220 6.42646
225 7.69354
230 8.85675
235 5.19719
240 7.0416
245 6.98605
250 7.18648
255 6.97288
260 7.25275
265 9.25927
270 7.82336
275 7.72199
280 5.51284
285 6.67404
290 5.89499
295 6.14844
300 7.99582
305 6.47578
310 5.00969
315 5.63961
320 4.97432
325 5.0857
330 8.33438
335 7.6406
340 9.89389
345 10.0644
350 9.63191
355 9.1354
360 9.73561
365 9.81368
370 8.87517
375 8.54816
380 7.69604
385 10.7713
390 8.93101
395 9.45043
400 7.30821
405 8.97469
410 9.12217
415 9.3937
420 8.00826
425 9.07839
430 9.68244
435 7.33581
440 9.79559
445 7.17181
450 6.95683
455 8.94907
460 7.76855
465 8.60511
470 9.71191
475 6.31798
480 8.18373
485 10.3217
490 10.2051
495 10.5836
500 9.74441
505 9.27617
510 7.79409
515 7.75024
520 8.4422
525 7.41655
530 7.17441
535 7.73675
540 8.22014
545 6.57686
550 6.60507
555 7.11744
560 8.12791
565 8.38246
570 6.46979
575 10.0358
580 9.07526
585 7.4653
590 7.88718
595 8.75592
600 14.2894
Ex : 253
200 6.49633
205 6.64138
210 5.42788
215 4.15376
220 6.36462
225 6.03719
230 5.0893
235 4.53957
240 3.92091
245 5.50802
250 6.65778
255 5.35384
260 7.23416
265 6.74679
270 5.73277
275 5.47288
280 4.89911
285 6.23418
290 6.96356
295 4.24708
300 5.48922
305 6.78108
310 6.08888
315 4.12349
320 7.05278
325 5.06531
330 8.00249
335 7.00712
340 7.13331
345 9.44889
350 7.7207
355 6.98283
360 6.72436
365 6.71135
370 6.17195
375 8.09626
380 8.89275
385 7.97185
390 7.80356
395 7.61561
400 8.29626
405 8.16922
410 7.36386
415 7.29429
420 6.62497
425 8.76431
430 10.5769
435 8.29965
440 8.60101
445 6.27839
450 6.52477
455 7.37922
460 7.23161
465 8.31157
470 9.24769
475 7.57087
480 6.51109
485 7.18424
490 6.99898
495 8.32157
500 7.01926
505 9.14716
510 6.23667
515 7.68347
520 6.19157
525 7.05201
530 8.79601
535 6.51746
540 5.64767
545 6.5894
550 7.26087
555 6.28139
560 6.21561
565 6.67276
570 5.45074
575 6.60919
580 6.74258
585 8.07349
590 5.99041
595 6.53237
600 0.83198
Ex : 258
200 4.24517
205 4.8166
210 3.85266
215 4.72661
220 4.92371
225 3.63399
230 4.3909
235 5.30555
240 5.10267
245 3.13889
250 4.14762
255 5.13433
260 4.38892
265 5.14473
270 4.97251
275 4.91833
280 4.80694
285 4.51643
290 5.52428
295 4.71975
300 4.58199
305 3.80225
310 4.68023
315 4.74982
320 5.56349
325 4.03327
330 4.41606
335 3.45259
340 4.8839
345 6.54836
350 5.33218
355 5.03444
360 5.89356
365 6.16165
370 5.96616
375 5.91749
380 5.08518
385 6.25038
390 6.77634
395 5.15604
400 5.31316
405 5.96196
410 7.85111
415 5.40173
420 7.45161
425 6.41422
430 5.70616
435 5.80128
440 4.59162
445 6.58021
450 5.70172
455 5.23442
460 5.65721
465 6.19024
470 7.14625
475 5.43071
480 4.70246
485 5.39433
490 5.67813
495 4.77188
500 5.0885
505 5.71046
510 6.35079
515 5.4669
520 6.15252
525 5.4283
530 6.05908
535 6.31795
540 4.97962
545 5.15143
550 4.75051
555 6.6683
560 6.80406
565 5.14351
570 4.78285
575 5.67246
580 5.19966
585 4.96843
590 3.3506
595 3.99721
600 1.54558
Ex : 263
200 2.69733
205 2.72844
210 3.20005
215 2.94958
220 3.07973
225 5.07508
230 4.1171
235 3.36237
240 4.08955
245 2.5323
250 3.63778
255 2.64334
260 4.50667
265 4.54467
270 3.19446
275 3.15506
280 2.9281
285 3.10787
290 2.84512
295 3.54584
300 2.8215
305 2.93097
310 3.40987
315 3.83496
320 3.50352
325 3.60577
330 4.62743
335 4.37263
340 4.10966
345 4.03241
350 5.36828
355 3.7032
360 4.15641
365 3.96614
370 4.91405
375 4.94295
380 4.61687
385 4.73584
390 6.16559
395 5.24643
400 4.63373
405 5.50792
410 5.07105
415 5.33762
420 5.05025
425 5.28151
430 4.04516
435 4.81485
440 4.55377
445 4.86401
450 4.03871
455 4.31367
460 5.36434
465 5.56091
470 3.9956
475 4.86983
480 4.65771
485 4.05868
490 4.49126
495 3.91173
500 4.3711
505 5.34295
510 4.2961
515 4.85173
520 5.39276
525 5.36623
530 4.67231
535 3.94953
540 2.83822
545 4.54446
550 3.78979
555 3.33508
560 3.91091
565 3.66952
570 3.49406
575 3.53441
580 3.07838
585 3.35925
590 3.03296
595 4.45559
600 8.59364
Ex : 268
200 2.44994
205 2.87019
210 2.17409
215 2.95001
220 2.69891
225 2.91524
230 3.9505
235 2.60028
240 3.017
245 2.30422
250 3.12885
255 2.76161
260 2.53338
265 2.00329
270 3.34137
275 3.12374
280 2.43998
285 2.51477
290 2.71935
295 2.53861
300 2.84536
305 2.3426
310 2.01591
315 2.54355
320 2.44698
325 2.21342
330 2.7063
335 3.94026
340 4.06963
345 3.55609
350 3.38972
355 3.36351
360 3.28119
365 3.63759
370 3.66815
375 3.34974
380 3.62134
385 4.69333
390 4.24312
395 4.60778
400 3.72333
405 4.66452
410 3.97961
415 4.81091
420 3.55684
425 4.06061
430 4.20418
435 3.37844
440 3.19859
445 4.05393
450 3.82271
455 4.34479
460 4.93059
465 4.49696
470 3.65448
475 3.93009
480 3.27558
485 2.6667
490 2.78648
495 3.26293
500 3.20779
505 3.03726
510 3.07906
515 3.34675
520 3.08664
525 4.16524
530 3.61674
535 4.60758
540 2.80638
545 3.12464
550 3.50487
555 3.33045
560 3.32717
565 2.66126
570 3.08909
575 3.47034
580 3.44705
585 3.06971
590 3.63014
595 2.59146
600 3.72155
Ex : 273
200 2.15023
205 2.68599
210 2.56083
215 2.13795
220 2.43105
225 2.17626
230 1.75996
235 2.00591
240 2.1126
245 2.23416
250 2.07462
255 1.96493
260 2.10458
265 2.71935
270 2.04307
275 2.72007
280 2.33538
285 2.37484
290 1.77921
295 2.23082
300 2.19902
305 1.43296
310 1.9321
315 2.66407
320 2.37236
325 2.90177
330 2.45104
335 2.60374
340 3.51825
345 2.85639
350 3.2935
355 3.63931
360 3.41974
365 3.03685
370 3.51524
375 2.60771
380 3.27496
385 3.49083
390 3.85991
395 3.37364
400 2.919
405 3.27867
410 3.19299
415 3.56287
420 3.42556
425 2.76627
430 3.0627
435 3.24898
440 2.51716
445 2.68823
450 3.34611
455 3.38623
460 3.37441
465 2.93037
470 2.73197
475 3.13261
480 3.15749
485 3.08205
490 2.67408
495 2.60439
500 3.47229
505 2.49443
510 2.6421
515 3.17812
520 2.21918
525 3.17315
530 2.52737
535 2.58821
540 2.8432
545 3.23619
550 2.428
555 2.27531
560 1.82444
565 2.47552
570 2.26547
575 2.90384
580 2.89793
585 2.04565
590 2.31841
595 2.84491
600 2.02798
Ex : 278
200 1.75213
205 1.9982
210 1.67729
215 1.4556
220 2.29364
225 1.87637
230 1.86493
235 1.91767
240 2.17327
245 2.12377
250 1.68563
255 1.7425
260 1.70075
265 1.49417
270 2.01812
275 1.75486
280 1.94502
285 1.32403
290 1.72015
295 1.81965
300 1.94459
305 2.08592
310 1.43785
315 1.8232
320 2.08024
325 2.10496
330 2.12811
335 2.21274
340 2.64079
345 2.55329
350 2.87452
355 2.01318
360 2.51839
365 2.84407
370 2.7978
375 2.81326
380 2.96712
385 2.60829
390 2.94113
395 3.04333
400 2.81523
405 3.43144
410 2.6464
415 2.82707
420 2.659
425 2.56641
430 2.83716
435 2.41935
440 3.23094
445 2.70851
450 2.16405
455 2.32543
460 2.94114
465 2.51676
470 2.66602
475 2.67097
480 2.51013
485 2.09908
490 2.14703
495 2.44507
500 2.06494
505 2.59774
510 2.3482
515 2.73264
520 2.47346
525 2.34039
530 2.49624
535 2.0099
540 2.15052
545 2.88143
550 2.79302
555 2.23633
560 2.5021
565 2.38912
570 1.78274
575 1.56594
580 2.06438
585 1.75197
590 2.12836
595 2.09274
600 2.98538
Ex : 283
200 1.52851
205 1.62404
210 1.60892
215 1.48771
220 1.62164
225 1.37089
230 1.68489
235 1.63124
240 1.40323
245 1.65054
250 1.38691
255 1.94451
260 1.50561
265 1.56534
270 1.33232
275 1.44425
280 1.67478
285 2.11669
290 1.42765
295 1.82202
300 1.3996
305 1.58186
310 1.54887
315 1.54115
320 1.69704
325 1.63241
330 1.88018
335 2.20148
340 2.08812
345 2.33998
350 2.67316
355 2.74183
360 1.81315
365 2.31327
370 2.31817
375 2.15579
380 2.12957
385 2.4395
390 2.31753
395 2.51868
400 2.67211
405 2.11882
410 2.66196
415 2.74843
420 2.20039
425 2.10451
430 2.3643
435 2.78169
440 2.66542
445 2.33724
450 2.56525
455 1.84782
460 2.17058
465 1.78738
470 2.30492
475 2.20157
480 2.11713
485 2.09206
490 2.19049
495 1.84205
500 1.80159
505 2.09916
510 2.05591
515 1.82694
520 1.62844
525 1.65095
530 1.74479
535 2.03194
540 1.4482
545 1.70439
550 1.92065
555 2.52062
560 2.79035
565 2.01943
570 2.03495
575 1.30501
580 1.29926
585 1.85535
590 1.53238
595 1.47151
600 0.955189
Ex : 288
200 1.31092
205 1.86289
210 1.26584
215 1.33383
220 1.37127
225 0.961291
230 0.74309
235 1.43447
240 1.15666
245 1.09224
250 1.22403
255 1.42
260 1.42048
265 1.49239
270 1.18236
275 1.41072
280 1.55396
285 1.12916
290 1.41424
295 1.17772
300 1.37558
305 1.55318
310 1.24442
315 1.13691
320 1.78993
325 1.65808
330 1.69499
335 1.91486
340 2.09947
345 1.63554
350 2.41433
355 2.08939
360 1.90109
365 2.43089
370 2.11636
375 2.41352
380 2.08471
385 2.56965
390 2.35432
395 2.69546
400 2.20091
405 2.15385
410 2.093
415 1.85675
420 2.24789
425 1.99687
430 2.04277
435 2.16399
440 2.26483
445 2.33224
450 2.32779
455 1.90696
460 2.11698
465 1.76823
470 1.95837
475 1.37458
480 1.76836
485 1.54773
490 2.26058
495 1.82024
500 1.51612
505 1.65065
510 1.38668
515 1.30397
520 1.60268
525 1.51646
530 1.33818
535 1.46255
540 1.28434
545 1.41835
550 1.56624
555 1.4567
560 1.45785
565 1.74041
570 2.21333
575 2.27089
580 1.54806
585 1.19197
590 1.14461
595 1.46028
600 0.166175
Ex : 293
200 1.1692
205 1.10344
210 1.17594
215 1.3398
220 0.932816
225 1.29807
230 1.10853
235 0.93933
240 0.998026
245 1.3982
250 0.972047
255 1.30523
260 1.10789
265 1.1979
270 1.10006
275 1.44413
280 1.31297
285 1.35324
290 1.12407
295 0.932002
300 1.34906
305 1.02023
310 1.05523
315 1.17056
320 1.55097
325 1.58299
330 1.34461
335 1.57796
340 1.74945
345 1.61973
350 2.14625
355 1.62071
360 2.27752
365 1.70854
370 1.84481
375 1.81811
380 1.8327
385 2.17725
390 2.18758
395 2.51377
400 2.039
405 1.77297
410 2.14843
415 1.88093
420 1.68832
425 2.06588
430 2.03788
435 1.68123
440 1.9567
445 1.97189
450 1.94072
455 1.77943
460 1.88096
465 1.63855
470 1.67374
475 1.77609
480 1.38975
485 1.6909
490 2.04717
495 1.40219
500 1.11264
505 1.15318
510 1.55056
515 1.17477
520 1.13046
525 0.967143
530 1.36409
535 1.42803
540 1.32381
545 1.68932
550 1.14829
555 1.28623
560 1.05944
565 1.0891
570 1.21357
575 1.61744
580 2.18544
585 1.63674
590 1.39162
595 1.13604
600 0.129277
Ex : 298
200 1.0253
205 1.15416
210 0.731169
215 0.95533
220 1.11478
225 1.08938
230 1.06796
235 0.943013
240 0.868404
245 1.21105
250 0.930469
255 1.00456
260 1.23953
265 0.971644
270 0.959982
275 1.08879
280 0.73283
285 0.949727
290 1.25993
295 1.62286
300 1.06981
305 0.923953
310 0.869731
315 1.11259
320 0.995415
325 1.2611
330 1.5766
335 1.56064
340 1.66749
345 2.02321
350 1.77011
355 1.48222
360 1.69763
365 1.71532
370 1.63135
375 1.80593
380 1.71987
385 2.14493
390 2.15572
395 1.74964
400 2.12773
405 1.98224
410 2.06921
415 1.47938
420 1.9486
425 1.99415
430 1.58894
435 1.82114
440 1.81348
445 1.55376
450 1.86521
455 1.79399
460 1.79638
465 1.59873
470 1.35132
475 1.4451
480 1.84274
485 1.41197
490 1.21343
495 1.44198
500 1.1523
505 1.27606
510 1.47434
515 1.26593
520 1.22624
525 1.21608
530 1.14954
535 1.0461
540 1.20406
545 1.17703
550 1.01979
555 1.1014
560 0.993278
565 1.03071
570 1.37266
575 0.989012
580 1.34386
585 1.65008
590 2.0049
595 1.56681
600 1.01944
Ex : 303
200 1.00209
205 0.842366
210 0.922405
215 0.801425
220 0.70762
225 0.958883
230 0.981179
235 0.951102
240 0.910168
245 0.798623
250 0.840793
255 0.732589
260 1.03532
265 0.840648
270 0.802192
275 0.921417
280 1.08411
285 0.987511
290 1.02173
295 1.37303
300 1.24406
305 0.742122
310 0.830349
315 0.734895
320 0.837483
325 1.01169
330 1.41982
335 1.40125
340 1.64678
345 1.65416
350 1.55637
355 1.4013
360 1.45391
365 1.69353
370 1.53231
375 1.90893
380 1.83952
385 2.38578
390 1.68239
395 1.64041
400 1.59714
405 1.63051
410 1.52094
415 1.64344
420 1.78629
425 1.73313
430 1.8303
435 1.70311
440 1.56067
445 1.74322
450 1.50513
455 1.62419
460 1.46867
465 1.45198
470 1.5644
475 1.42091
480 1.26494
485 1.12353
490 1.34042
495 0.989019
500 0.964199
505 1.15697
510 1.21434
515 1.10786
520 1.10164
525 0.963291
530 0.887825
535 0.887451
540 0.873055
545 1.03202
550 0.798942
555 1.02173
560 1.08658
565 0.943022
570 0.773067
575 1.02605
580 1.12713
585 0.780334
590 0.902224
595 1.13522
600 2.18357
Ex : 308
200 0.603745
205 0.622134
210 0.631283
215 0.727302
220 0.713028
225 0.745655
230 0.816522
235 0.770586
240 0.593189
245 0.772412
250 0.777076
255 0.631311
260 0.795482
265 0.783223
270 0.854586
275 0.764782
280 0.723088
285 0.717697
290 0.648179
295 0.739377
300 1.18233
305 1.18005
310 1.06613
315 0.606085
320 0.969128
325 1.2795
330 1.30364
335 1.4374
340 1.44043
345 1.47288
350 1.7535
355 1.63
360 1.6169
365 1.46235
370 1.64131
375 1.53566
380 1.66324
385 1.64347
390 1.54416
395 1.86951
400 1.59101
405 1.43061
410 1.58095
415 1.59739
420 1.65632
425 1.53863
430 1.52675
435 1.59821
440 1.6707
445 1.5285
450 1.26151
455 1.421
460 1.20152
465 1.38871
470 1.31858
475 1.07577
480 1.40798
485 1.19142
490 1.18906
495 0.842002
500 0.830005
505 1.21701
510 1.01118
515 1.20504
520 1.14396
525 1.00256
530 1.08752
535 0.873452
540 0.941508
545 0.714674
550 0.687328
555 0.900412
560 0.825665
565 0.762323
570 0.933634
575 0.835717
580 0.782479
585 0.747515
590 0.793146
595 0.885049
600 0.81201
Ex : 313
200 0.546223
205 0.517969
210 0.582775
215 0.575253
220 0.558634
225 0.685601
230 0.749496
235 0.620283
240 0.509407
245 0.603078
250 0.505251
255 0.716962
260 0.729077
265 0.592083
270 0.587737
275 0.677789
280 0.8634
285 0.674078
290 0.786059
295 0.593136
300 0.441846
305 0.88759
310 0.954422
315 0.795198
320 0.904953
325 1.17492
330 1.54928
335 1.54245
340 1.27554
345 1.1736
350 1.55907
355 1.59539
360 1.65961
365 1.537
370 1.82279
375 1.84029
380 1.73596
385 2.12095
390 1.85851
395 2.0774
400 2.09992
405 2.02233
410 1.91952
415 2.05088
420 1.87793
425 1.94678
430 1.88906
435 1.75726
440 1.93906
445 1.80327
450 1.73824
455 1.74308
460 1.72617
465 1.45072
470 1.1804
475 1.4044
480 1.35386
485 1.29198
490 1.20401
495 0.90442
500 0.947944
505 1.21344
510 1.08146
515 0.898648
520 0.797969
525 0.753083
530 1.02993
535 0.852662
540 0.933837
545 0.916876
550 0.723945
555 0.718944
560 0.534436
565 0.741535
570 0.721449
575 0.690743
580 0.432309
585 0.688839
590 0.709016
595 0.71438
600 0.0812937
Ex : 318
200 0.584209
205 0.515916
210 0.677952
215 0.509589
220 0.452051
225 0.696351
230 0.523002
235 0.663178
240 0.726835
245 0.442842
250 0.595177
255 0.562531
260 0.472285
265 0.580676
270 0.783669
275 0.74565
280 0.514281
285 0.522171
290 0.514988
295 0.516901
300 0.721775
305 0.58835
310 1.26519
315 3.73914
320 2.39709
325 1.91493
330 2.22875
335 2.38989
340 2.59808
345 2.86245
350 3.73006
355 4.00569
360 4.98725
365 5.87968
370 6.59493
375 7.331
380 8.10224
385 9.2306
390 9.88768
395 10.5741
400 11.0219
405 10.5469
410 10.6794
415 11.0515
420 10.6663
425 10.5778
430 10.1467
435 9.80565
440 9.36792
445 8.50843
450 8.8116
455 7.77565
460 7.27814
465 6.82777
470 6.68463
475 5.50497
480 5.66084
485 4.65046
490 4.60636
495 3.90803
500 3.76342
505 3.06557
510 2.85565
515 2.56109
520 2.40737
525 2.08243
530 1.8657
535 1.53079
540 1.50799
545 1.38837
550 1.35998
555 1.13448
560 1.14412
565 1.065
570 0.92908
575 0.845946
580 0.638261
585 0.830912
590 0.701342
595 0.528928
600 0.06019
Ex : 323
200 0.525546
205 0.575497
210 0.475068
215 0.519042
220 0.541374
225 0.492244
230 0.632949
235 0.468268
240 0.653956
245 0.687837
250 0.443538
255 0.584276
260 0.544401
265 0.591899
270 0.531399
275 0.55702
280 0.711756
285 0.446204
290 0.757168
295 0.686297
300 0.491883
305 0.460246
310 0.896538
315 24.7161
320 105.324
325 43.0687
330 8.46851
335 5.31798
340 6.3068
345 7.94003
350 10.2069
355 14.0449
360 16.3217
365 19.4973
370 22.4224
375 25.5324
380 30.2198
385 33.1683
390 34.9995
395 37.7758
400 39.2512
405 39.5945
410 40.1277
415 40.2889
420 38.8906
425 38.1963
430 36.3059
435 35.2161
440 33.4034
445 31.6413
450 31.1271
455 28.0148
460 26.6663
465 23.8723
470 22.2224
475 21.0427
480 19.3975
485 16.7626
490 15.1286
495 13.7728
500 12.3318
505 10.6178
510 9.34573
515 7.91456
520 7.09623
525 6.29581
530 5.61217
535 5.04718
540 4.24176
545 3.59231
550 3.37478
555 3.17343
560 2.70552
565 2.25569
570 1.88126
575 1.55207
580 1.40898
585 1.10785
590 1.00835
595 0.873344
600 1.10047
Ex : 328
200 0.411788
205 0.597077
210 0.525318
215 0.602868
220 0.514099
225 0.440668
230 0.553234
235 0.765535
240 0.629059
245 0.547243
250 0.496776
255 0.587574
260 0.569447
265 0.43107
270 0.642402
275 0.588878
280 0.629562
285 0.635752
290 0.499163
295 0.705344
300 0.632181
305 0.749845
310 0.987594
315 6.68435
320 252.325
325 579.268
330 171.929
335 25.3633
340 10.047
345 9.52857
350 10.6813
355 15.507
360 20.134
365 22.2131
370 24.2573
375 27.5739
380 30.6165
385 34.3957
390 37.4646
395 39.8401
400 40.6653
405 41.1596
410 41.4839
415 41.5989
420 41.6471
425 39.5635
430 38.4583
435 36.1127
440 34.3336
445 32.7943
450 31.1179
455 29.1456
460 26.899
465 25.522
470 23.223
475 22.0705
480 19.2468
485 17.7108
490 15.739
495 14.1477
500 12.5249
505 11.301
510 9.81785
515 8.86321
520 7.73421
525 6.7218
530 5.90472
535 5.30123
540 4.47352
545 4.02352
550 3.44661
555 3.0133
560 2.96119
565 2.5922
570 2.08473
575 1.75495
580 1.6202
585 1.30966
590 1.30287
595 0.993578
600 0.984375
Ex : 333
200 0.525145
205 0.475703
210 0.585433
215 0.634169
220 0.562847
225 0.570754
230 0.587104
235 0.486514
240 0.532463
245 0.573905
250 0.552801
255 0.622211
260 0.550623
265 0.53466
270 0.576062
275 0.433848
280 0.661246
285 0.654819
290 0.570208
295 0.781351
300 0.733249
305 0.856041
310 0.835487
315 1.05806
320 35.8456
325 710.771
330 1202.38
335 304.63
340 41.29
345 11.0667
350 8.40001
355 7.97281
360 11.1701
365 16.1615
370 16.2586
375 16.767
380 17.8755
385 20.1535
390 21.918
395 23.3156
400 23.6768
405 23.8364
410 24.279
415 23.5482
420 22.7995
425 22.0084
430 21.5601
435 20.4745
440 19.0277
445 18.2403
450 17.2404
455 16.0746
460 14.8718
465 13.7008
470 12.7166
475 11.3613
480 10.4597
485 9.76176
490 8.91516
495 7.91101
500 7.01231
505 6.66385
510 6.16315
515 5.22553
520 4.6106
525 3.98608
530 3.71353
535 3.34128
540 2.90737
545 2.76267
550 2.45526
555 2.04466
560 2.07241
565 1.84268
570 1.80052
575 1.43297
580 1.39303
585 1.11965
590 1.24714
595 1.12296
600 0.577708
Ex : 338
200 0.570594
205 0.498233
210 0.484751
215 0.53157
220 0.507981
225 0.473252
230 0.555991
235 0.640354
240 0.482519
245 0.586838
250 0.607144
255 0.566982
260 0.654578
265 0.669942
270 0.569683
275 0.513506
280 0.600313
285 0.691533
290 0.797891
295 0.687812
300 0.827745
305 0.950489
310 0.763559
315 1.04368
320 1.62175
325 67.3833
330 1061.33
335 1559.42
340 375.076
345 49.0068
350 11.1523
355 6.40128
360 5.42309
365 7.38297
370 11.6864
375 11.6178
380 10.141
385 10.8957
390 12.2743
395 12.4736
400 12.4302
405 12.976
410 13.0611
415 14.0435
420 12.6258
425 12.0103
430 12.0194
435 11.4913
440 10.8546
445 10.3289
450 9.50885
455 8.61413
460 8.31519
465 7.81298
470 7.17094
475 6.83326
480 6.23265
485 5.67047
490 5.20674
495 4.86517
500 4.24452
505 4.48892
510 3.89204
515 3.3818
520 3.29968
525 2.65679
530 2.55847
535 2.36634
540 2.22094
545 1.98026
550 1.77025
555 1.76625
560 1.6589
565 1.47287
570 1.26227
575 1.25915
580 1.30377
585 1.22118
590 0.926305
595 1.13551
600 1.32339
Ex : 343
200 0.534837
205 0.526106
210 0.409582
215 0.486217
220 0.477182
225 0.562939
230 0.569872
235 0.650991
240 0.596633
245 0.551961
250 0.561112
255 0.743695
260 0.539962
265 0.649822
270 0.596944
275 0.593976
280 0.617284
285 0.652733
290 0.702132
295 0.724139
300 0.748945
305 0.665957
310 0.893987
315 0.975999
320 1.2809
325 2.2032
330 78.9952
335 1220.78
340 1752.44
345 412.996
350 52.8302
355 11.0194
360 5.22167
365 3.92236
370 4.40873
375 8.70897
380 10.0556
385 9.53222
390 9.56103
395 9.29338
400 8.84114
405 9.76964
410 9.97569
415 10.3267
420 10.0372
425 9.77625
430 9.19493
435 8.9991
440 8.8511
445 8.38775
450 7.91794
455 7.0337
460 6.86003
465 6.50176
470 5.99945
475 5.47542
480 4.97932
485 4.82137
490 4.61957
495 3.95067
500 3.69829
505 3.58148
510 2.96029
515 3.04067
520 2.75735
525 2.54229
530 2.46289
535 2.10844
540 2.15485
545 1.71525
550 1.59644
555 1.65565
560 1.4786
565 1.40262
570 1.30016
575 1.29605
580 1.21532
585 0.998718
590 0.899984
595 1.03445
600 0.785246
Ex : 348
200 0.473707
205 0.562292
210 0.482903
215 0.497676
220 0.512508
225 0.51502
230 0.491209
235 0.430208
240 0.439232
245 0.494796
250 0.495297
255 0.561791
260 0.492274
265 0.508265
270 0.528289
275 0.528853
280 0.473777
285 0.549213
290 0.640546
295 0.464337
300 0.671353
305 0.680005
310 0.629378
315 0.675398
320 0.890729
325 1.34981
330 2.3832
335 79.8904
340 1236.35
345 1846.5
350 462.955
355 58.1389
360 11.0782
365 5.01541
370 3.49642
375 3.53629
380 7.59008
385 11.5348
390 11.0924
395 10.4421
400 9.55208
405 9.78916
410 10.8557
415 11.3451
420 11.1548
425 10.0278
430 9.18152
435 9.58241
440 8.70466
445 9.12238
450 8.03716
455 7.2069
460 6.85261
465 6.44717
470 5.99429
475 5.71693
480 5.16496
485 5.10152
490 4.53202
495 4.21615
500 3.81454
505 3.66295
510 3.23715
515 2.91222
520 2.49009
525 2.36156
530 2.23552
535 2.27798
540 2.05404
545 1.87888
550 1.87533
555 1.59822
560 1.65939
565 1.44146
570 1.25139
575 1.04634
580 1.09723
585 0.810314
590 0.977403
595 0.789343
600 1.05515
Ex : 353
200 0.5595
205 0.457969
210 0.336059
215 0.358575
220 0.389993
225 0.494457
230 0.526674
235 0.480184
240 0.438893
245 0.465404
250 0.429451
255 0.511628
260 0.573579
265 0.470346
270 0.547587
275 0.498765
280 0.512994
285 0.470348
290 0.57021
295 0.498455
300 0.64882
305 0.564132
310 0.6459
315 0.718846
320 0.853177
325 1.05257
330 1.62172
335 2.77543
340 83.0533
345 1297.56
350 1856.48
355 450.574
360 56.493
365 10.5113
370 4.86428
375 3.40202
380 4.24434
385 8.16674
390 12.9586
395 13.1097
400 10.7714
405 10.0231
410 10.795
415 12.3124
420 11.5461
425 10.6274
430 9.6107
435 9.42566
440 9.5892
445 9.44703
450 8.52837
455 7.4224
460 6.99212
465 6.71514
470 6.54883
475 6.05178
480 5.45438
485 4.94023
490 4.70381
495 4.51595
500 3.92875
505 3.67256
510 3.37534
515 2.97367
520 2.67791
525 2.55482
530 2.18462
535 2.11294
540 1.95486
545 1.76601
550 1.78992
555 1.62537
560 1.43564
565 1.30601
570 1.16887
575 1.01368
580 0.906577
585 0.776421
590 0.87253
595 0.790569
600 1.22098
Ex : 358
200 0.366293
205 0.442488
210 0.434076
215 0.435107
220 0.382588
225 0.41729
230 0.42916
235 0.401324
240 0.482235
245 0.427192
250 0.568308
255 0.450609
260 0.506689
265 0.424584
270 0.368879
275 0.408291
280 0.459426
285 0.56451
290 0.485985
295 0.560644
300 0.461372
305 0.566136
310 0.607335
315 0.455319
320 0.639642
325 0.881305
330 1.10372
335 1.62776
340 2.64495
345 79.1494
350 1249.54
355 1878.39
360 462.9
365 57.6929
370 10.1923
375 4.77803
380 3.96061
385 5.30947
390 8.81575
395 13.1177
400 12.3764
405 10.8139
410 10.5668
415 11.1992
420 10.7315
425 9.53491
430 8.78705
435 8.92971
440 9.21736
445 8.97684
450 8.04172
455 7.5187
460 6.69599
465 6.83134
470 6.25397
475 5.89644
480 5.45033
485 5.10806
490 4.63142
495 4.37718
500 3.86142
505 3.70485
510 3.3479
515 3.08424
520 2.70155
525 2.64593
530 2.29392
535 2.09454
540 2.06616
545 1.8642
550 1.76662
555 1.58501
560 1.45248
565 1.45121
570 1.40914
575 1.01971
580 1.05703
585 0.829379
590 0.704491
595 0.849066
600 0.105757
Ex : 363
200 0.357053
205 0.330103
210 0.326103
215 0.345453
220 0.373391
225 0.321178
230 0.395731
235 0.374051
240 0.345668
245 0.376046
250 0.471647
255 0.430416
260 0.455624
265 0.408252
270 0.515027
275 0.488965
280 0.491329
285 0.43634
290 0.398864
295 0.405964
300 0.57444
305 0.534211
310 0.468742
315 0.548299
320 0.520361
325 0.842057
330 1.01769
335 1.22615
340 1.57048
345 2.74424
350 73.7158
355 1221.39
360 1878.38
365 482.024
370 59.9598
375 10.6481
380 5.75511
385 6.89017
390 8.34917
395 9.80664
400 12.3525
405 13.6027
410 12.7554
415 12.5856
420 11.81
425 10.6508
430 9.63402
435 9.79578
440 9.79256
445 9.22314
450 8.70659
455 7.88471
460 7.54286
465 7.08766
470 6.83271
475 6.35426
480 5.76091
485 5.36066
490 4.90816
495 4.3491
500 4.23064
505 4.20527
510 3.46468
515 3.3756
520 2.77061
525 2.68093
530 2.35193
535 2.17967
540 1.96553
545 1.85549
550 1.66344
555 1.57155
560 1.45809
565 1.25285
570 1.20517
575 1.1574
580 1.02926
585 0.897592
590 0.925281
595 0.709152
600 1.30612
Ex : 368
200 0.401087
205 0.363974
210 0.362808
215 0.35776
220 0.290041
225 0.435563
230 0.430092
235 0.381006
240 0.319711
245 0.312996
250 0.306618
255 0.395483
260 0.35605
265 0.398601
270 0.423533
275 0.470643
280 0.389281
285 0.359868
290 0.421699
295 0.460369
300 0.457936
305 0.453816
310 0.429782
315 0.49273
320 0.584046
325 0.567264
330 0.712292
335 1.02125
340 1.24561
345 1.54229
350 2.86431
355 61.2266
360 1189.52
365 1926.61
370 507.438
375 62.7591
380 12.0184
385 8.49808
390 10.2441
395 10.839
400 10.6377
405 13.0567
410 17.1517
415 17.2287
420 15.3221
425 12.5639
430 11.398
435 11.3873
440 12.0149
445 11.0862
450 10.3181
455 8.86501
460 8.28695
465 7.71231
470 7.45674
475 6.72088
480 6.63539
485 5.99491
490 5.31909
495 4.92255
500 4.26227
505 4.2532
510 3.93147
515 3.59782
520 3.17524
525 2.80105
530 2.50014
535 2.31607
540 2.22688
545 1.7899
550 1.63361
555 1.59948
560 1.51975
565 1.30547
570 1.2798
575 0.964342
580 0.852387
585 0.734663
590 0.786724
595 0.705518
600 0.649132
Ex : 373
200 0.31148
205 0.329963
210 0.340716
215 0.404073
220 0.318779
225 0.4204
230 0.422455
235 0.348528
240 0.288468
245 0.356243
250 0.37646
255 0.437981
260 0.362111
265 0.412703
270 0.38546
275 0.383058
280 0.410805
285 0.456016
290 0.435643
295 0.355109
300 0.422888
305 0.359305
310 0.439711
315 0.452445
320 0.497219
325 0.465809
330 0.73125
335 0.868787
340 0.933725
345 1.26937
350 1.62161
355 2.76443
360 72.7821
365 1216.02
370 1922.35
375 505.221
380 63.5381
385 13.6132
390 11.2746
395 12.0631
400 10.6725
405 10.4282
410 13.9997
415 18.1077
420 16.7451
425 13.8599
430 11.8436
435 11.1397
440 11.3137
445 10.9994
450 9.94761
455 8.71928
460 8.03774
465 7.55516
470 7.12131
475 7.09682
480 6.11918
485 5.90746
490 5.32604
495 4.81907
500 4.40119
505 3.94757
510 3.96312
515 3.45577
520 3.21405
525 2.966
530 2.5874
535 2.38705
540 1.9713
545 2.00866
550 1.81459
555 1.66609
560 1.44774
565 1.2741
570 1.23594
575 0.983675
580 0.924804
585 0.810149
590 0.695879
595 0.600237
600 0.572524
Ex : 378
200 0.384451
205 0.339208
210 0.359402
215 0.3014
220 0.327915
225 0.283531
230 0.332328
235 0.328373
240 0.368928
245 0.335297
250 0.295295
255 0.304037
260 0.345899
265 0.423024
270 0.382498
275 0.330327
280 0.349076
285 0.423757
290 0.395908
295 0.42666
300 0.452331
305 0.484955
310 0.449747
315 0.475413
320 0.452356
325 0.485675
330 0.573456
335 0.686499
340 0.910849
345 0.936729
350 1.30411
355 1.73477
360 2.59692
365 66.9547
370 1228.16
375 1967.47
380 517.431
385 66.0939
390 15.0065
395 10.3589
400 8.59951
405 8.21335
410 9.6195
415 12.5915
420 14.5724
425 12.7619
430 10.2929
435 9.82631
440 9.40841
445 9.31178
450 8.44802
455 7.46907
460 7.17707
465 6.89044
470 6.44458
475 6.15699
480 5.95406
485 5.59186
490 5.08815
495 4.46989
500 4.16337
505 4.05042
510 3.66542
515 3.27652
520 2.91329
525 2.82146
530 2.51461
535 2.31702
540 2.10465
545 1.81186
550 1.73431
555 1.48182
560 1.31996
565 1.18463
570 1.13038
575 0.995571
580 0.906439
585 0.720492
590 0.6428
595 0.611514
600 0.498162
Ex : 383
200 0.327778
205 0.320716
210 0.317218
215 0.287976
220 0.330201
225 0.308724
230 0.376299
235 0.285862
240 0.366172
245 0.354694
250 0.326184
255 0.331773
260 0.31218
265 0.347396
270 0.399503
275 0.328402
280 0.325546
285 0.445591
290 0.414211
295 0.388801
300 0.39671
305 0.438289
310 0.379603
315 0.418446
320 0.443883
325 0.53671
330 0.549903
335 0.625004
340 0.644307
345 0.777165
350 0.977932
355 1.21066
360 1.83149
365 2.66418
370 63.6592
375 1213.5
380 2031.86
385 545.819
390 71.5058
395 16.0449
400 9.12145
405 9.07759
410 9.80373
415 10.9398
420 11.1012
425 12.3429
430 12.2904
435 10.819
440 10.4767
445 9.71859
450 8.73532
455 7.89134
460 7.24318
465 7.06253
470 6.87183
475 6.50425
480 6.23686
485 5.50398
490 5.17019
495 4.77858
500 4.35496
505 3.81874
510 3.83965
515 3.30066
520 3.00285
525 2.73578
530 2.5807
535 2.35675
540 2.07846
545 1.8693
550 1.69351
555 1.61278
560 1.45743
565 1.41231
570 1.1075
575 1.02999
580 0.880684
585 0.698103
590 0.641751
595 0.603874
600 0.621293
Ex : 388
200 0.295004
205 0.28573
210 0.326004
215 0.286475
220 0.296221
225 0.295364
230 0.289236
235 0.35509
240 0.364095
245 0.342113
250 0.368421
255 0.355681
260 0.35364
265 0.264535
270 0.393325
275 0.363552
280 0.370658
285 0.355486
290 0.306905
295 0.334085
300 0.400621
305 0.399298
310 0.399568
315 0.519902
320 0.394224
325 0.509878
330 0.471966
335 0.486535
340 0.554194
345 0.56131
350 0.858774
355 0.997388
360 1.05661
365 1.688
370 2.6084
375 69.521
380 1254.21
385 2052.02
390 548.53
395 73.7942
400 17.414
405 11.1344
410 12.3603
415 13.4637
420 12.7693
425 11.5335
430 12.4931
435 14.0741
440 12.6888
445 11.3288
450 9.99827
455 8.88417
460 7.99757
465 7.5987
470 7.37166
475 6.88651
480 6.41617
485 5.76506
490 5.46712
495 4.99893
500 4.52735
505 4.37265
510 3.90301
515 3.38004
520 3.13838
525 2.90964
530 2.54189
535 2.42184
540 2.11886
545 1.94705
550 1.71097
555 1.60925
560 1.48091
565 1.35764
570 1.11382
575 0.964342
580 0.82953
585 0.640709
590 0.636829
595 0.624112
600 0.572646
Ex : 393
200 0.279943
205 0.254824
210 0.311547
215 0.268914
220 0.322559
225 0.338039
230 0.261095
235 0.332443
240 0.271218
245 0.343158
250 0.355995
255 0.321012
260 0.343774
265 0.362408
270 0.310942
275 0.344934
280 0.374277
285 0.310051
290 0.395036
295 0.407163
300 0.345388
305 0.371545
310 0.385112
315 0.346339
320 0.382911
325 0.456665
330 0.546343
335 0.535268
340 0.584405
345 0.595817
350 0.630805
355 0.776834
360 1.03042
365 1.16865
370 1.57621
375 2.67993
380 62.2309
385 1256.07
390 2108.36
395 568.69
400 75.672
405 17.4265
410 12.1545
415 13.9268
420 13.2365
425 11.0622
430 9.77944
435 11.1034
440 13.5998
445 12.2408
450 10.4272
455 8.84355
460 7.62024
465 7.04319
470 6.82625
475 6.47849
480 6.12755
485 5.59398
490 5.12077
495 4.31522
500 4.36122
505 4.07617
510 3.56413
515 3.52222
520 3.23876
525 2.81802
530 2.53483
535 2.31052
540 2.03822
545 1.98722
550 1.7741
555 1.43757
560 1.35457
565 1.32285
570 1.19774
575 0.988177
580 0.723488
585 0.76722
590 0.652227
595 0.574635
600 0.659336
Ex : 398
200 0.24
205 0.22396
210 0.323616
215 0.314052
220 0.275162
225 0.322277
230 0.35696
235 0.32293
240 0.265346
245 0.269706
250 0.313002
255 0.327272
260 0.278424
265 0.310856
270 0.286839
275 0.25057
280 0.320971
285 0.317317
290 0.273438
295 0.304847
300 0.33492
305 0.32442
310 0.417437
315 0.343264
320 0.362733
325 0.368997
330 0.473076
335 0.475675
340 0.520042
345 0.526433
350 0.547909
355 0.675826
360 0.802222
365 0.978277
370 1.15651
375 1.71631
380 2.86721
385 64.577
390 1288.11
395 2174.71
400 577.656
405 73.4862
410 15.6958
415 10.0474
420 9.71214
425 7.97441
430 6.77966
435 6.63063
440 7.90824
445 9.85968
450 9.20617
455 7.17234
460 6.28055
465 5.74893
470 5.43797
475 5.29195
480 5.00331
485 4.70695
490 4.37771
495 4.17077
500 4.01147
505 3.6225
510 3.365
515 3.01935
520 2.80417
525 2.64001
530 2.3524
535 2.26866
540 1.83317
545 1.86106
550 1.66882
555 1.41778
560 1.33703
565 1.16787
570 1.06061
575 1.02516
580 0.731508
585 0.667593
590 0.58282
595 0.568638
600 0.356105
Ex : 403
200 0.251708
205 0.300734
210 0.253264
215 0.323336
220 0.25233
225 0.277774
230 0.216613
235 0.271937
240 0.273473
245 0.344165
250 0.291809
255 0.316893
260 0.279957
265 0.325124
270 0.305403
275 0.333296
280 0.375739
285 0.347404
290 0.315227
295 0.295127
300 0.26369
305 0.270119
310 0.391854
315 0.318888
320 0.35644
325 0.315277
330 0.349232
335 0.4946
340 0.509392
345 0.580766
350 0.533238
355 0.631447
360 0.630447
365 0.755483
370 1.01483
375 1.08744
380 1.58078
385 3.02421
390 72.6844
395 1320.18
400 2166.53
405 579.783
410 72.311
415 13.9187
420 6.80554
425 5.63318
430 4.95084
435 4.72958
440 4.98648
445 5.82588
450 7.64072
455 7.38217
460 6.10814
465 5.4874
470 5.01871
475 4.75162
480 4.55224
485 4.23839
490 4.02871
495 3.83315
500 3.88496
505 3.4412
510 3.21981
515 2.98454
520 2.72979
525 2.53479
530 2.2422
535 2.11703
540 2.01737
545 1.65344
550 1.69568
555 1.42792
560 1.28181
565 1.14088
570 1.15748
575 0.9907
580 0.714526
585 0.694654
590 0.583131
595 0.557142
600 0.304282
Ex : 408
200 0.232001
205 0.208733
210 0.25707
215 0.303295
220 0.275197
225 0.298182
230 0.290541
235 0.294111
240 0.350792
245 0.321116
250 0.217225
255 0.283291
260 0.280023
265 0.323521
270 0.394736
275 0.312141
280 0.276422
285 0.320638
290 0.269737
295 0.329867
300 0.374202
305 0.358023
310 0.299495
315 0.320811
320 0.384927
325 0.379473
330 0.401013
335 0.38819
340 0.467533
345 0.578702
350 0.459922
355 0.47662
360 0.589439
365 0.661949
370 0.798454
375 0.897632
380 1.28291
385 1.89135
390 2.88983
395 69.8863
400 1356.53
405 2206.51
410 569.75
415 71.4212
420 13.2414
425 6.11175
430 5.08678
435 4.85997
440 4.91506
445 5.04413
450 5.26256
455 6.4404
460 7.6018
465 6.34685
470 5.62187
475 4.96202
480 4.51501
485 4.14325
490 4.24247
495 3.83179
500 3.52297
505 3.38017
510 2.98475
515 2.95895
520 2.60855
525 2.57665
530 2.22966
535 2.12657
540 1.83631
545 1.62998
550 1.57189
555 1.53252
560 1.30738
565 1.30756
570 1.07769
575 1.00189
580 0.793841
585 0.690892
590 0.57269
595 0.512134
600 0.914644
Ex : 413
200 0.227473
205 0.246502
210 0.284526
215 0.261393
220 0.283719
225 0.256332
230 0.29396
235 0.292184
240 0.282089
245 0.299586
250 0.294839
255 0.254592
260 0.335299
265 0.272513
270 0.280711
275 0.385271
280 0.322573
285 0.285006
290 0.269101
295 0.308921
300 0.358403
305 0.301532
310 0.310301
315 0.366769
320 0.380893
325 0.362877
330 0.44606
335 0.449136
340 0.510903
345 0.475467
350 0.484377
355 0.473405
360 0.521937
365 0.610536
370 0.684695
375 0.67558
380 0.936624
385 1.2905
390 1.85855
395 3.11616
400 77.9825
405 1398.09
410 2215.14
415 561.32
420 70.1009
425 12.6331
430 5.44516
435 5.11852
440 4.91178
445 4.48156
450 4.40151
455 4.26659
460 5.32452
465 6.91151
470 6.45339
475 5.26753
480 4.78414
485 4.15485
490 3.60782
495 3.51847
500 3.38502
505 3.06082
510 3.08285
515 2.71956
520 2.60894
525 2.23905
530 2.23448
535 2.05271
540 1.8766
545 1.68227
550 1.6687
555 1.54919
560 1.35311
565 1.06797
570 0.927056
575 1.01298
580 0.774235
585 0.619376
590 0.651964
595 0.545563
600 0.769285
Ex : 418
200 0.221079
205 0.264829
210 0.268781
215 0.27636
220 0.268432
225 0.274425
230 0.283399
235 0.314189
240 0.239389
245 0.30771
250 0.366278
255 0.302403
260 0.320015
265 0.282774
270 0.314882
275 0.296736
280 0.324435
285 0.328631
290 0.31731
295 0.209096
300 0.333398
305 0.34338
310 0.406089
315 0.315027
320 0.315273
325 0.443195
330 0.345136
335 0.353549
340 0.457224
345 0.472856
350 0.440462
355 0.486408
360 0.487833
365 0.554628
370 0.692962
375 0.767194
380 0.809528
385 0.953138
390 1.26483
395 1.79351
400 2.90719
405 74.7819
410 1386.23
415 2243.8
420 590.482
425 72.5487
430 11.9929
435 4.5915
440 4.21939
445 3.67919
450 3.4951
455 3.1753
460 3.30794
465 3.97259
470 5.97543
475 5.85108
480 4.55761
485 4.02971
490 3.59396
495 3.04642
500 2.92792
505 2.80245
510 2.64798
515 2.47039
520 2.28684
525 2.11147
530 2.11929
535 1.97001
540 1.82953
545 1.56651
550 1.50858
555 1.33449
560 1.22919
565 1.19829
570 0.933042
575 0.898412
580 0.813897
585 0.698407
590 0.647708
595 0.51807
600 0.596849
Ex : 423
200 0.355568
205 0.258415
210 0.283787
215 0.316988
220 0.306693
225 0.246294
230 0.272355
235 0.228974
240 0.284663
245 0.316007
250 0.289201
255 0.312826
260 0.321475
265 0.338162
270 0.261289
275 0.331923
280 0.330765
285 0.242138
290 0.292921
295 0.303317
300 0.33515
305 0.272233
310 0.32638
315 0.363641
320 0.380991
325 0.347753
330 0.316967
335 0.448681
340 0.401166
345 0.47294
350 0.429812
355 0.475396
360 0.476246
365 0.485746
370 0.622766
375 0.597948
380 0.731057
385 0.864124
390 1.0818
395 1.25766
400 1.84979
405 3.01404
410 76.9446
415 1441.6
420 2228.43
425 554.222
430 67.8456
435 10.9137
440 4.09611
445 3.23656
450 3.00764
455 2.56334
460 2.56467
465 2.55405
470 3.02429
475 4.90783
480 5.54187
485 4.29544
490 3.66039
495 3.28075
500 2.83719
505 2.58903
510 2.48739
515 2.36857
520 2.21282
525 2.17057
530 1.97992
535 1.75727
540 1.78919
545 1.67665
550 1.34842
555 1.25333
560 1.32729
565 1.13802
570 1.02374
575 0.893355
580 0.815728
585 0.68851
590 0.557208
595 0.554192
600 0.711789
Ex : 428
200 0.246869
205 0.236304
210 0.292323
215 0.256667
220 0.311475
225 0.248508
230 0.270481
235 0.357065
240 0.309968
245 0.290171
250 0.372008
255 0.304811
260 0.336758
265 0.331108
270 0.277923
275 0.280795
280 0.279374
285 0.281956
290 0.280619
295 0.251382
300 0.29323
305 0.3205
310 0.34091
315 0.30889
320 0.360835
325 0.371358
330 0.425576
335 0.426635
340 0.43388
345 0.486877
350 0.45847
355 0.536851
360 0.407147
365 0.532641
370 0.494135
375 0.581885
380 0.652782
385 0.722937
390 0.851681
395 0.950978
400 1.20763
405 2.00204
410 3.14001
415 83.1632
420 1439.29
425 2245.33
430 575.261
435 70.0097
440 11.0071
445 3.69306
450 2.8586
455 2.70978
460 2.44821
465 2.37057
470 2.29304
475 2.55933
480 3.96972
485 5.17849
490 4.22758
495 3.39376
500 3.01468
505 2.66219
510 2.46282
515 2.26225
520 2.24956
525 1.94555
530 1.8302
535 1.87558
540 1.67886
545 1.5137
550 1.45509
555 1.26271
560 1.18668
565 1.09813
570 1.05869
575 0.832046
580 0.78612
585 0.700239
590 0.617155
595 0.528344
600 0.425906
Ex : 433
200 0.287393
205 0.23783
210 0.283673
215 0.304725
220 0.268616
225 0.295461
230 0.291327
235 0.243662
240 0.224807
245 0.326703
250 0.365516
255 0.318356
260 0.304648
265 0.30466
270 0.352549
275 0.346826
280 0.291926
285 0.32612
290 0.289176
295 0.324458
300 0.357329
305 0.353109
310 0.319653
315 0.327721
320 0.27928
325 0.311885
330 0.382387
335 0.367094
340 0.413715
345 0.401416
350 0.382688
355 0.438084
360 0.437865
365 0.451469
370 0.504869
375 0.517788
380 0.638862
385 0.630028
390 0.694562
395 0.849358
400 1.08855
405 1.39373
410 1.9856
415 3.17987
420 92.4075
425 1541.27
430 2266.79
435 556.223
440 67.5357
445 10.7622
450 3.75403
455 2.93259
460 2.75477
465 2.4195
470 2.12715
475 2.25623
480 2.18904
485 3.35154
490 4.95424
495 4.32848
500 3.28075
505 2.85707
510 2.55867
515 2.12271
520 2.02485
525 1.9087
530 1.83727
535 1.69505
540 1.61701
545 1.6207
550 1.4048
555 1.29804
560 1.12885
565 1.13666
570 0.958349
575 0.811194
580 0.717858
585 0.650369
590 0.573367
595 0.580902
600 0.445473
Ex : 438
200 0.296129
205 0.319483
210 0.265589
215 0.239931
220 0.26236
225 0.254027
230 0.320909
235 0.266002
240 0.28135
245 0.25199
250 0.295561
255 0.328246
260 0.346295
265 0.285655
270 0.321115
275 0.337723
280 0.36447
285 0.287303
290 0.336985
295 0.353796
300 0.286436
305 0.355061
310 0.288412
315 0.363264
320 0.342278
325 0.314655
330 0.318064
335 0.360016
340 0.413236
345 0.466227
350 0.37359
355 0.456469
360 0.434151
365 0.44677
370 0.477077
375 0.58713
380 0.578225
385 0.591745
390 0.611235
395 0.759631
400 0.84032
405 1.15152
410 1.3507
415 1.96822
420 2.99738
425 87.8205
430 1519.06
435 2385.25
440 585.909
445 71.2048
450 11.2371
455 3.83913
460 3.06964
465 2.88984
470 2.48837
475 2.28344
480 2.11549
485 2.16575
490 2.68566
495 4.21306
500 4.43501
505 3.20169
510 2.86152
515 2.44892
520 2.17812
525 1.96649
530 1.79342
535 1.80133
540 1.61941
545 1.52583
550 1.34635
555 1.29435
560 1.17316
565 1.09174
570 1.03219
575 0.916636
580 0.768585
585 0.668584
590 0.582914
595 0.515323
600 0.279437
Ex : 443
200 0.299992
205 0.310737
210 0.288165
215 0.306777
220 0.241218
225 0.322319
230 0.387414
235 0.319615
240 0.280287
245 0.377332
250 0.407625
255 0.297794
260 0.27466
265 0.295297
270 0.314882
275 0.270063
280 0.331684
285 0.332464
290 0.297717
295 0.361339
300 0.35066
305 0.303047
310 0.351441
315 0.376898
320 0.33045
325 0.404397
330 0.357257
335 0.336956
340 0.375044
345 0.406179
350 0.390034
355 0.446899
360 0.436101
365 0.461221
370 0.468113
375 0.502725
380 0.549964
385 0.524491
390 0.588932
395 0.600297
400 0.727239
405 0.853113
410 1.22486
415 1.31175
420 1.96092
425 2.97864
430 96.3139
435 1605.08
440 2398.84
445 587.606
450 71.3109
455 11.0185
460 3.63679
465 2.88142
470 2.68394
475 2.48072
480 2.18212
485 2.08159
490 2.2321
495 2.17069
500 3.66288
505 4.27529
510 3.31238
515 2.74549
520 2.39378
525 2.1036
530 1.78449
535 1.5727
540 1.4607
545 1.49465
550 1.45849
555 1.43515
560 1.07424
565 1.04782
570 1.01749
575 0.905297
580 0.690858
585 0.658611
590 0.665242
595 0.529535
600 0.346524
Ex : 448
200 0.290425
205 0.290673
210 0.327488
215 0.277899
220 0.317876
225 0.278004
230 0.263784
235 0.252549
240 0.282044
245 0.262691
250 0.243564
255 0.286229
260 0.298165
265 0.336831
270 0.302967
275 0.446345
280 0.320351
285 0.300688
290 0.3412
295 0.409761
300 0.284853
305 0.317006
310 0.361555
315 0.383751
320 0.33473
325 0.323175
330 0.439822
335 0.355625
340 0.429243
345 0.40813
350 0.389677
355 0.442947
360 0.413072
365 0.413873
370 0.507082
375 0.476086
380 0.53966
385 0.565197
390 0.673709
395 0.629038
400 0.700971
405 0.740947
410 0.941677
415 1.15771
420 1.43302
425 1.99774
430 3.01367
435 98.0534
440 1693.37
445 2504.43
450 610.013
455 73.9184
460 11.6003
465 4.03794
470 2.98343
475 2.56405
480 2.33866
485 2.0044
490 1.85416
495 1.9919
500 2.08739
505 2.88042
510 4.09193
515 3.4279
520 2.75793
525 2.23174
530 2.15577
535 1.75694
540 1.50784
545 1.50936
550 1.39913
555 1.28067
560 1.13736
565 1.06572
570 0.933367
575 0.942792
580 0.792763
585 0.658178
590 0.615279
595 0.547337
600 0.475037
Ex : 453
200 0.281065
205 0.258546
210 0.256639
215 0.283362
220 0.311201
225 0.262579
230 0.229569
235 0.262664
240 0.286977
245 0.310398
250 0.280027
255 0.258314
260 0.287701
265 0.307392
270 0.259207
275 0.275821
280 0.330485
285 0.315946
290 0.340349
295 0.344771
300 0.259115
305 0.288661
310 0.308758
315 0.331861
320 0.351072
325 0.360624
330 0.483068
335 0.389102
340 0.372934
345 0.414172
350 0.40344
355 0.387984
360 0.37787
365 0.429217
370 0.406582
375 0.367856
380 0.416722
385 0.49869
390 0.516489
395 0.544246
400 0.572965
405 0.683753
410 0.670057
415 0.791561
420 1.08472
425 1.4614
430 2.09026
435 2.89819
440 104.754
445 1814.02
450 2600.2
455 598.922
460 72.8247
465 11.8123
470 3.9585
475 2.72123
480 2.73616
485 2.54745
490 2.07884
495 1.86507
500 1.73925
505 1.95039
510 2.27319
515 3.61757
520 3.53929
525 2.45176
530 2.33831
535 2.09149
540 1.70229
545 1.55795
550 1.32834
555 1.21988
560 1.19409
565 1.06174
570 0.921306
575 1.04735
580 0.803023
585 0.657735
590 0.625118
595 0.622667
600 0.962724
Ex : 458
200 0.294707
205 0.274213
210 0.272091
215 0.308614
220 0.250705
225 0.31101
230 0.304354
235 0.265623
240 0.293898
245 0.23534
250 0.210082
255 0.321773
260 0.358808
265 0.352531
270 0.268437
275 0.291124
280 0.277643
285 0.336085
290 0.326458
295 0.281449
300 0.321648
305 0.263046
310 0.33384
315 0.325087
320 0.337803
325 0.366275
330 0.329218
335 0.377252
340 0.355415
345 0.359307
350 0.440656
355 0.357012
360 0.419858
365 0.474946
370 0.516793
375 0.465626
380 0.436127
385 0.430562
390 0.527074
395 0.502655
400 0.577928
405 0.672972
410 0.757831
415 0.78612
420 0.979217
425 1.0972
430 1.37941
435 1.9286
440 3.20807
445 114.272
450 1851.73
455 2701.09
460 640.938
465 77.876
470 12.2101
475 3.72151
480 2.59877
485 2.67726
490 2.29708
495 2.04465
500 1.84047
505 1.78594
510 1.7628
515 2.136
520 3.14597
525 3.79249
530 2.82636
535 2.26168
540 2.03198
545 1.71146
550 1.48648
555 1.3209
560 1.24547
565 1.20879
570 1.13984
575 0.887536
580 0.784623
585 0.641285
590 0.574495
595 0.633753
600 0.594829
Ex : 463
200 0.227565
205 0.258745
210 0.220826
215 0.250643
220 0.295412
225 0.304747
230 0.339019
235 0.306121
240 0.267379
245 0.279524
250 0.290957
255 0.294632
260 0.310733
265 0.318519
270 0.344848
275 0.312662
280 0.278369
285 0.28256
290 0.304637
295 0.361163
300 0.261495
305 0.281412
310 0.263285
315 0.32892
320 0.4026
325 0.341817
330 0.413047
335 0.356506
340 0.38418
345 0.33843
350 0.358283
355 0.407968
360 0.351673
365 0.414254
370 0.390127
375 0.383857
380 0.396436
385 0.442868
390 0.455568
395 0.465195
400 0.538056
405 0.62609
410 0.660157
415 0.713297
420 0.750705
425 1.01697
430 1.02942
435 1.41487
440 1.80444
445 3.24751
450 110.38
455 1914.56
460 2865
465 675.754
470 81.6161
475 12.5197
480 3.85237
485 2.65879
490 2.39245
495 2.31614
500 1.94377
505 1.72094
510 1.64436
515 1.6395
520 1.81071
525 2.48712
530 3.58818
535 3.06713
540 2.08475
545 1.87332
550 1.70858
555 1.53013
560 1.30219
565 1.09057
570 0.975174
575 0.857664
580 0.862848
585 0.747956
590 0.642117
595 0.576435
600 0.770658
Ex : 468
200 0.296011
205 0.299206
210 0.286532
215 0.258043
220 0.28349
225 0.24972
230 0.270005
235 0.289896
240 0.314616
245 0.273457
250 0.338301
255 0.261122
260 0.267542
265 0.299969
270 0.274245
275 0.270186
280 0.244963
285 0.2846
290 0.270014
295 0.274464
300 0.260316
305 0.268406
310 0.296255
315 0.306377
320 0.310268
325 0.312336
330 0.387702
335 0.32695
340 0.358468
345 0.335613
350 0.344604
355 0.339466
360 0.374708
365 0.340341
370 0.352951
375 0.381331
380 0.414854
385 0.466895
390 0.485976
395 0.560941
400 0.528243
405 0.517554
410 0.5654
415 0.654525
420 0.648156
425 0.77778
430 0.874572
435 1.14168
440 1.40669
445 1.9815
450 3.04085
455 122.616
460 1940.94
465 3009.82
470 705.668
475 84.4412
480 12.7307
485 3.7639
490 2.46027
495 2.2597
500 2.04329
505 1.85744
510 1.7053
515 1.65766
520 1.8212
525 1.76779
530 2.21247
535 3.24719
540 3.13404
545 2.14627
550 1.76747
555 1.81876
560 1.51525
565 1.25451
570 1.07505
575 1.00529
580 0.792028
585 0.769834
590 0.604501
595 0.553739
600 0.558391
Ex : 473
200 0.293207
205 0.267755
210 0.218487
215 0.247115
220 0.292729
225 0.259573
230 0.305897
235 0.303558
240 0.279404
245 0.274244
250 0.315991
255 0.324867
260 0.333619
265 0.338836
270 0.213085
275 0.266838
280 0.28004
285 0.31109
290 0.297171
295 0.423916
300 0.324782
305 0.347922
310 0.295228
315 0.325512
320 0.296876
325 0.410697
330 0.413218
335 0.266352
340 0.313624
345 0.358207
350 0.336822
355 0.383865
360 0.379892
365 0.388023
370 0.384684
375 0.441404
380 0.497401
385 0.475687
390 0.465142
395 0.48111
400 0.494739
405 0.567382
410 0.600803
415 0.598557
420 0.581953
425 0.661845
430 0.749485
435 0.94907
440 1.06771
445 1.37655
450 1.95306
455 3.47152
460 140.07
465 2125.83
470 2922.29
475 659.079
480 78.9249
485 11.9245
490 3.57753
495 2.26774
500 2.0954
505 1.99979
510 1.8668
515 1.62775
520 1.75668
525 1.66221
530 1.66254
535 1.80775
540 2.69068
545 3.06781
550 2.32471
555 1.74019
560 1.61613
565 1.4098
570 1.13494
575 0.934653
580 0.84875
585 0.735378
590 0.681736
595 0.564882
600 0.571446
Ex : 478
200 0.351052
205 0.328699
210 0.377339
215 0.317729
220 0.328871
225 0.29669
230 0.308546
235 0.296745
240 0.370234
245 0.360345
250 0.310116
255 0.377942
260 0.314073
265 0.316443
270 0.337893
275 0.31064
280 0.346272
285 0.302343
290 0.342744
295 0.338547
300 0.371404
305 0.37546
310 0.400848
315 0.371384
320 0.339878
325 0.362283
330 0.370182
335 0.375385
340 0.359098
345 0.41693
350 0.431353
355 0.43928
360 0.44066
365 0.440656
370 0.490963
375 0.49594
380 0.51199
385 0.509466
390 0.479904
395 0.483583
400 0.54386
405 0.592279
410 0.656224
415 0.60308
420 0.584156
425 0.667292
430 0.732733
435 0.778724
440 0.984507
445 1.2983
450 1.63577
455 2.48419
460 3.96997
465 150.817
470 2159.12
475 2952.9
480 696.134
485 83.9668
490 12.4879
495 3.59425
500 2.28672
505 2.27986
510 2.08947
515 2.01628
520 1.9388
525 1.82722
530 1.79291
535 1.59819
540 1.8124
545 2.36678
550 3.0411
555 2.56011
560 1.78483
565 1.54102
570 1.41041
575 1.14196
580 0.871651
585 0.720708
590 0.813436
595 0.774974
600 0.79393
Ex : 483
200 0.30601
205 0.366297
210 0.332912
215 0.354604
220 0.327383
225 0.297157
230 0.320597
235 0.296528
240 0.323789
245 0.403691
250 0.266182
255 0.355366
260 0.34272
265 0.320134
270 0.414065
275 0.260577
280 0.340263
285 0.359958
290 0.349465
295 0.373599
300 0.404401
305 0.387648
310 0.322773
315 0.321903
320 0.383203
325 0.352154
330 0.35699
335 0.336872
340 0.413069
345 0.42107
350 0.434015
355 0.388302
360 0.493377
365 0.530394
370 0.520032
375 0.418851
380 0.531124
385 0.539452
390 0.511511
395 0.504681
400 0.514452
405 0.582738
410 0.556066
415 0.574942
420 0.734765
425 0.699143
430 0.675897
435 0.794402
440 0.873741
445 1.05055
450 1.34978
455 1.62788
460 2.45529
465 4.29612
470 119.246
475 2134.9
480 3160.32
485 738.575
490 88.3826
495 13.0121
500 3.80647
505 2.28933
510 2.10222
515 2.04868
520 1.9573
525 1.83245
530 1.82164
535 1.6979
540 1.71846
545 1.55812
550 1.74185
555 2.42796
560 2.614
565 1.82765
570 1.36468
575 1.3445
580 0.994701
585 0.824262
590 0.799667
595 0.713349
600 0.668768
Ex : 488
200 0.37877
205 0.380945
210 0.389377
215 0.37638
220 0.305096
225 0.380195
230 0.366964
235 0.33366
240 0.367272
245 0.367742
250 0.325668
255 0.316102
260 0.34697
265 0.336741
270 0.326901
275 0.30959
280 0.410774
285 0.360082
290 0.31724
295 0.411921
300 0.407421
305 0.426275
310 0.355785
315 0.340902
320 0.411797
325 0.444477
330 0.441763
335 0.364893
340 0.503482
345 0.48226
350 0.428852
355 0.38463
360 0.520496
365 0.467802
370 0.431916
375 0.527322
380 0.470743
385 0.545507
390 0.443874
395 0.547462
400 0.677047
405 0.58552
410 0.589294
415 0.592543
420 0.598073
425 0.660822
430 0.682213
435 0.754782
440 0.844522
445 0.882235
450 1.14807
455 1.33737
460 1.81818
465 2.76306
470 4.26338
475 143.518
480 2276.98
485 3107.17
490 712.379
495 85.6804
500 12.6055
505 3.78881
510 2.43553
515 2.26252
520 2.07211
525 2.05386
530 1.97399
535 1.68571
540 1.50436
545 1.61289
550 1.48615
555 1.502
560 2.13978
565 2.66397
570 1.9729
575 1.37184
580 1.13768
585 0.863761
590 0.843504
595 0.663661
600 0.419958
Ex : 493
200 0.333838
205 0.293597
210 0.374927
215 0.356704
220 0.301405
225 0.311392
230 0.331204
235 0.34733
240 0.376903
245 0.398155
250 0.418135
255 0.314106
260 0.406869
265 0.358903
270 0.303106
275 0.370677
280 0.472505
285 0.426778
290 0.376592
295 0.372475
300 0.321645
305 0.325517
310 0.372122
315 0.356261
320 0.416021
325 0.378213
330 0.43457
335 0.459233
340 0.352932
345 0.449453
350 0.501048
355 0.348406
360 0.381192
365 0.449903
370 0.490684
375 0.448782
380 0.477301
385 0.557378
390 0.590741
395 0.514613
400 0.450341
405 0.639937
410 0.678398
415 0.669807
420 0.586179
425 0.588791
430 0.62572
435 0.788451
440 0.796815
445 0.838635
450 0.965384
455 1.17575
460 1.55064
465 2.16033
470 2.70688
475 4.01587
480 133.227
485 2234.63
490 3243.69
495 728.388
500 87.2057
505 12.8285
510 3.79
515 2.55314
520 2.22539
525 2.28382
530 1.9973
535 1.78325
540 1.70874
545 1.62311
550 1.64828
555 1.48643
560 1.42924
565 1.55902
570 2.23964
575 1.90523
580 1.23351
585 1.09091
590 0.940366
595 0.680591
600 1.30202
Ex : 498
200 0.430598
205 0.373889
210 0.32872
215 0.329845
220 0.378572
225 0.401057
230 0.461216
235 0.343592
240 0.446091
245 0.357264
250 0.442649
255 0.378362
260 0.386437
265 0.39857
270 0.386435
275 0.400272
280 0.401168
285 0.408753
290 0.363837
295 0.373671
300 0.445565
305 0.376646
310 0.362638
315 0.429005
320 0.417042
325 0.441972
330 0.426938
335 0.404273
340 0.461801
345 0.428499
350 0.407704
355 0.46325
360 0.450292
365 0.424946
370 0.523325
375 0.537929
380 0.526542
385 0.527065
390 0.534522
395 0.58244
400 0.467908
405 0.54848
410 0.552547
415 0.606379
420 0.546227
425 0.706964
430 0.657047
435 0.772602
440 0.792744
445 0.903831
450 0.903087
455 1.13877
460 1.31097
465 1.66137
470 2.00149
475 2.60206
480 4.0601
485 159.194
490 2359.97
495 3146.51
500 711.316
505 85.4686
510 12.7733
515 3.83334
520 2.48515
525 2.39918
530 2.25505
535 2.04829
540 1.78546
545 1.83533
550 1.51154
555 1.47036
560 1.46082
565 1.16902
570 1.27336
575 1.88782
580 1.76296
585 1.15562
590 0.8413
595 0.949734
600 0.178659
Ex : 503
200 0.361721
205 0.411759
210 0.401557
215 0.411564
220 0.349289
225 0.438726
230 0.427846
235 0.386374
240 0.396963
245 0.371543
250 0.444827
255 0.456909
260 0.523579
265 0.42378
270 0.372201
275 0.376953
280 0.364559
285 0.366614
290 0.456872
295 0.394637
300 0.335139
305 0.426039
310 0.438946
315 0.45369
320 0.389555
325 0.376
330 0.470793
335 0.559163
340 0.466287
345 0.58402
350 0.527233
355 0.47239
360 0.435632
365 0.467428
370 0.428807
375 0.521118
380 0.561047
385 0.517386
390 0.621398
395 0.592015
400 0.499497
405 0.594764
410 0.564743
415 0.620585
420 0.7372
425 0.660996
430 0.633675
435 0.781053
440 0.679916
445 0.797225
450 0.967151
455 1.00046
460 1.20668
465 1.47459
470 1.55778
475 1.99191
480 2.85654
485 4.09958
490 144.753
495 2320.35
500 3206.78
505 723.603
510 86.8375
515 12.9367
520 3.87794
525 2.47825
530 2.2215
535 2.16913
540 2.09177
545 1.79206
550 1.74021
555 1.43891
560 1.32665
565 1.30848
570 1.29036
575 1.14179
580 1.3112
585 1.52316
590 1.20379
595 0.874436
600 0.793422
Ex : 508
200 0.482763
205 0.385754
210 0.409499
215 0.376603
220 0.392128
225 0.449876
230 0.422895
235 0.416907
240 0.38177
245 0.437694
250 0.393928
255 0.468542
260 0.350657
265 0.325796
270 0.343424
275 0.43229
280 0.495559
285 0.332126
290 0.499056
295 0.403262
300 0.507833
305 0.409165
310 0.433212
315 0.467688
320 0.442864
325 0.408154
330 0.48776
335 0.495858
340 0.496324
345 0.411894
350 0.554524
355 0.57949
360 0.488544
365 0.475151
370 0.575238
375 0.47079
380 0.492316
385 0.607902
390 0.460198
395 0.477817
400 0.669165
405 0.600664
410 0.607952
415 0.660676
420 0.62073
425 0.60436
430 0.67224
435 0.75039
440 0.742305
445 0.742095
450 0.919859
455 0.818254
460 0.879005
465 1.18823
470 1.36864
475 1.60124
480 1.93541
485 2.61232
490 4.45852
495 154.809
500 2317.54
505 3182.33
510 755.594
515 90.5559
520 13.4505
525 4.14128
530 2.65633
535 2.31901
540 2.07426
545 1.86775
550 1.9349
555 1.58087
560 1.39935
565 1.29796
570 1.20249
575 1.13402
580 0.990649
585 1.11059
590 1.41817
595 1.21805
600 0.964292
Ex : 513
200 0.381111
205 0.410284
210 0.461719
215 0.487046
220 0.451712
225 0.481558
230 0.399702
235 0.415289
240 0.391555
245 0.561258
250 0.434164
255 0.425472
260 0.334355
265 0.396645
270 0.543526
275 0.472089
280 0.517223
285 0.422467
290 0.44438
295 0.439204
300 0.393071
305 0.39013
310 0.491966
315 0.502677
320 0.456897
325 0.432267
330 0.424708
335 0.447047
340 0.446522
345 0.422791
350 0.482757
355 0.502851
360 0.495629
365 0.459805
370 0.549818
375 0.455855
380 0.488743
385 0.576863
390 0.630969
395 0.551246
400 0.561707
405 0.586592
410 0.531677
415 0.623839
420 0.587578
425 0.680857
430 0.713048
435 0.754601
440 0.696954
445 0.846809
450 0.732018
455 0.787648
460 1.06925
465 1.13518
470 1.3347
475 1.36738
480 1.49908
485 2.06071
490 2.7191
495 4.21623
500 141.081
505 2274.56
510 3226.85
515 774.047
520 92.9331
525 13.5697
530 4.16152
535 2.5458
540 2.08784
545 1.97785
550 2.04416
555 1.72817
560 1.61557
565 1.38502
570 1.15454
575 1.26051
580 1.01917
585 0.893455
590 0.891679
595 1.10378
600 0.940197
Ex : 518
200 0.408226
205 0.42206
210 0.416849
215 0.393069
220 0.434738
225 0.457979
230 0.491695
235 0.426067
240 0.460011
245 0.436117
250 0.446371
255 0.390932
260 0.295247
265 0.370597
270 0.447718
275 0.488592
280 0.368157
285 0.482739
290 0.477576
295 0.412583
300 0.426548
305 0.39165
310 0.45935
315 0.373394
320 0.43369
325 0.483083
330 0.513617
335 0.485701
340 0.462526
345 0.459124
350 0.535901
355 0.489178
360 0.649563
365 0.478161
370 0.490249
375 0.531674
380 0.542368
385 0.467809
390 0.511019
395 0.503745
400 0.549905
405 0.628744
410 0.538099
415 0.694474
420 0.650366
425 0.67599
430 0.665703
435 0.652144
440 0.621427
445 0.64117
450 0.745095
455 0.74543
460 0.881336
465 1.02486
470 0.972576
475 1.28408
480 1.3995
485 1.65167
490 1.87036
495 2.67691
500 4.13908
505 141.142
510 2188.87
515 3178.67
520 772.914
525 92.6859
530 13.4749
535 3.96036
540 2.46403
545 1.9872
550 1.79494
555 1.76279
560 1.60936
565 1.5136
570 1.18717
575 0.950315
580 1.11872
585 1.01846
590 0.956572
595 0.83378
600 0.697223
Ex : 523
200 0.444248
205 0.394381
210 0.500039
215 0.385542
220 0.482418
225 0.445943
230 0.466255
235 0.393077
240 0.47466
245 0.44374
250 0.440526
255 0.533989
260 0.513008
265 0.368227
270 0.31397
275 0.344196
280 0.456816
285 0.453363
290 0.293931
295 0.366001
300 0.525739
305 0.385611
310 0.368379
315 0.440367
320 0.486199
325 0.535488
330 0.453264
335 0.470641
340 0.537621
345 0.557676
350 0.513506
355 0.39437
360 0.456017
365 0.518084
370 0.587878
375 0.5124
380 0.613153
385 0.549283
390 0.466756
395 0.51687
400 0.584449
405 0.698212
410 0.619596
415 0.597593
420 0.693728
425 0.622559
430 0.742567
435 0.755527
440 0.789055
445 0.718005
450 0.736186
455 0.869841
460 0.896103
465 0.917344
470 1.00129
475 1.18045
480 1.13737
485 1.21084
490 1.53907
495 2.02113
500 2.54078
505 3.88434
510 130.009
515 2109.98
520 3130.89
525 788.106
530 94.3162
535 13.6618
540 3.89439
545 2.54722
550 2.00601
555 1.76543
560 1.45686
565 1.56621
570 1.43546
575 1.06779
580 1.05537
585 0.882958
590 0.867146
595 0.936235
600 1.13492
Ex : 528
200 0.43654
205 0.456083
210 0.431098
215 0.407854
220 0.486524
225 0.409164
230 0.398529
235 0.522258
240 0.512827
245 0.456329
250 0.450679
255 0.449084
260 0.452328
265 0.498884
270 0.463898
275 0.380866
280 0.38726
285 0.409597
290 0.425386
295 0.583447
300 0.515112
305 0.444816
310 0.410246
315 0.415936
320 0.555308
325 0.555213
330 0.598675
335 0.518021
340 0.472871
345 0.449522
350 0.513117
355 0.609071
360 0.520251
365 0.685927
370 0.501282
375 0.553595
380 0.664283
385 0.603224
390 0.480357
395 0.572682
400 0.611783
405 0.630599
410 0.567068
415 0.551424
420 0.584528
425 0.620688
430 0.653654
435 0.773078
440 0.687061
445 0.746179
450 0.784479
455 0.73391
460 0.909997
465 0.954625
470 0.932984
475 0.965021
480 1.03653
485 1.22121
490 1.4438
495 1.58211
500 2.07147
505 2.70589
510 3.77544
515 119.285
520 2063.37
525 3065.74
530 763.47
535 91.3736
540 13.2783
545 3.77603
550 2.36814
555 1.85507
560 1.49234
565 1.6812
570 1.30413
575 1.28516
580 0.950015
585 0.969227
590 0.858906
595 0.892369
600 0.667734
Ex : 533
200 0.511685
205 0.44543
210 0.421095
215 0.428241
220 0.49378
225 0.426058
230 0.411528
235 0.504708
240 0.516618
245 0.519207
250 0.467269
255 0.346746
260 0.472244
265 0.429204
270 0.449134
275 0.469169
280 0.43641
285 0.520962
290 0.380821
295 0.387632
300 0.365187
305 0.495773
310 0.453564
315 0.428719
320 0.453186
325 0.500876
330 0.465059
335 0.53635
340 0.425183
345 0.557602
350 0.582399
355 0.531559
360 0.500923
365 0.500469
370 0.485363
375 0.663452
380 0.611045
385 0.547272
390 0.637818
395 0.644589
400 0.563748
405 0.70151
410 0.662743
415 0.57253
420 0.561125
425 0.570759
430 0.607152
435 0.604468
440 0.690686
445 0.684164
450 0.676964
455 0.750225
460 0.748351
465 0.893916
470 0.760445
475 0.856842
480 1.07318
485 1.07464
490 1.13139
495 1.18306
500 1.51206
505 1.84208
510 2.81445
515 3.83029
520 118.93
525 1970.1
530 2983.54
535 765.372
540 91.4886
545 13.1775
550 3.65766
555 2.36474
560 1.7621
565 1.57401
570 1.33426
575 1.18438
580 1.00865
585 1.02052
590 1.00319
595 0.853978
600 0.233131
Ex : 538
200 0.31214
205 0.539982
210 0.555764
215 0.547428
220 0.494771
225 0.52638
230 0.47222
235 0.502087
240 0.559818
245 0.529863
250 0.546027
255 0.468004
260 0.441589
265 0.490795
270 0.4631
275 0.56128
280 0.432151
285 0.366287
290 0.491964
295 0.538981
300 0.446541
305 0.519915
310 0.462155
315 0.561901
320 0.497545
325 0.426173
330 0.541762
335 0.535787
340 0.465158
345 0.407842
350 0.519648
355 0.534449
360 0.549302
365 0.551992
370 0.564955
375 0.541264
380 0.652061
385 0.575565
390 0.607566
395 0.663268
400 0.598359
405 0.572162
410 0.712337
415 0.62085
420 0.563778
425 0.593343
430 0.749421
435 0.654065
440 0.622614
445 0.665043
450 0.875283
455 0.793346
460 0.693361
465 0.693652
470 0.868998
475 0.990343
480 1.03397
485 0.825391
490 1.10337
495 1.0793
500 1.17758
505 1.30365
510 1.8629
515 2.47003
520 3.37774
525 101.029
530 1874.12
535 2953.58
540 786.747
545 94.2904
550 13.6599
555 3.50808
560 2.14585
565 1.76771
570 1.35722
575 1.2854
580 1.28782
585 0.970446
590 0.986951
595 0.82426
600 0.874501
Ex : 543
200 0.399366
205 0.494532
210 0.491324
215 0.414585
220 0.463799
225 0.520127
230 0.442205
235 0.404906
240 0.459879
245 0.469709
250 0.421857
255 0.556024
260 0.436574
265 0.442317
270 0.43916
275 0.359173
280 0.470629
285 0.552497
290 0.546726
295 0.416155
300 0.459853
305 0.445057
310 0.549642
315 0.597202
320 0.509322
325 0.441946
330 0.452699
335 0.519993
340 0.50234
345 0.465776
350 0.525236
355 0.520637
360 0.582489
365 0.552975
370 0.511899
375 0.611144
380 0.512648
385 0.714918
390 0.505388
395 0.597421
400 0.511086
405 0.54071
410 0.549239
415 0.631123
420 0.772183
425 0.726672
430 0.816783
435 0.833337
440 0.74802
445 0.649993
450 0.7373
455 0.838783
460 0.770525
465 0.765467
470 0.790513
475 0.96024
480 0.945978
485 0.931527
490 1.04612
495 0.902856
500 1.13414
505 1.27741
510 1.48138
515 2.08211
520 2.25871
525 3.58482
530 91.1053
535 1786.56
540 2935.55
545 799.273
550 95.6599
555 13.6013
560 3.52637
565 2.07005
570 1.43
575 1.05344
580 1.02436
585 0.935768
590 0.931292
595 0.891628
600 0.568446
Ex : 548
200 0.407556
205 0.353228
210 0.468472
215 0.468208
220 0.439387
225 0.509651
230 0.444951
235 0.554943
240 0.537742
245 0.424878
250 0.506494
255 0.432722
260 0.508475
265 0.425972
270 0.586857
275 0.679668
280 0.557525
285 0.495079
290 0.55719
295 0.514086
300 0.488232
305 0.470439
310 0.507817
315 0.479435
320 0.441964
325 0.542998
330 0.576198
335 0.624248
340 0.424399
345 0.494325
350 0.481333
355 0.509594
360 0.725612
365 0.49741
370 0.583007
375 0.540286
380 0.767798
385 0.611147
390 0.60343
395 0.742665
400 0.621742
405 0.608368
410 0.673007
415 0.664902
420 0.659587
425 0.696205
430 0.589529
435 0.755041
440 0.720932
445 0.797319
450 0.714759
455 0.681303
460 0.810908
465 0.846452
470 0.910917
475 0.701316
480 0.958287
485 0.825646
490 1.06519
495 0.961028
500 1.03794
505 1.08149
510 1.33159
515 1.51365
520 1.83142
525 2.40709
530 3.65857
535 100.886
540 1789.13
545 2829.9
550 775.674
555 93.1404
560 12.924
565 3.24933
570 1.86754
575 1.37096
580 1.11317
585 0.933598
590 1.01094
595 0.982156
600 0.864203
Ex : 553
200 0.463385
205 0.448224
210 0.470275
215 0.426129
220 0.431888
225 0.526292
230 0.619314
235 0.605181
240 0.485977
245 0.498541
250 0.460371
255 0.445327
260 0.531813
265 0.523911
270 0.51146
275 0.602331
280 0.605674
285 0.442516
290 0.50468
295 0.517912
300 0.513523
305 0.526228
310 0.354005
315 0.374099
320 0.55283
325 0.437464
330 0.545305
335 0.574751
340 0.432081
345 0.57024
350 0.629911
355 0.507804
360 0.555564
365 0.639315
370 0.569042
375 0.510602
380 0.557013
385 0.569436
390 0.72235
395 0.671501
400 0.722955
405 0.62886
410 0.801771
415 0.642487
420 0.574835
425 0.644702
430 0.591879
435 0.644027
440 0.695892
445 0.662251
450 0.658217
455 0.776549
460 0.839935
465 0.845488
470 0.898402
475 0.771515
480 0.798048
485 0.853273
490 0.964067
495 0.889042
500 0.95787
505 0.915703
510 1.03403
515 1.4213
520 1.63678
525 2.07025
530 2.39437
535 3.40523
540 85.5232
545 1672.43
550 2792.2
555 779.293
560 93.2269
565 12.7791
570 3.23455
575 1.62798
580 1.15578
585 0.945144
590 0.933263
595 0.997058
600 1.87451
Ex : 558
200 0.406294
205 0.530445
210 0.511263
215 0.369793
220 0.608176
225 0.48637
230 0.593338
235 0.537687
240 0.477397
245 0.644704
250 0.530031
255 0.408914
260 0.349577
265 0.485078
270 0.478951
275 0.459572
280 0.519175
285 0.613152
290 0.512736
295 0.531366
300 0.538622
305 0.561743
310 0.48067
315 0.620354
320 0.547434
325 0.489232
330 0.580815
335 0.475363
340 0.501242
345 0.610565
350 0.528925
355 0.566854
360 0.624947
365 0.50468
370 0.580478
375 0.562698
380 0.55038
385 0.688477
390 0.675684
395 0.625547
400 0.53362
405 0.628194
410 0.575795
415 0.665106
420 0.70405
425 0.599451
430 0.614691
435 0.678845
440 0.731826
445 0.657891
450 0.747285
455 0.767319
460 0.777105
465 0.732454
470 0.828458
475 0.82459
480 0.996259
485 0.863821
490 0.861666
495 0.912781
500 0.857666
505 1.09998
510 1.10554
515 1.12629
520 1.20013
525 1.51692
530 1.60667
535 2.23079
540 3.21424
545 78.9697
550 1587.36
555 2724.83
560 766.094
565 91.7654
570 12.3379
575 2.86668
580 1.66204
585 1.25264
590 0.895565
595 0.882019
600 0.605923
Ex : 563
200 0.465475
205 0.465754
210 0.528212
215 0.517438
220 0.567423
225 0.410331
230 0.606339
235 0.751189
240 0.503196
245 0.471135
250 0.500751
255 0.605148
260 0.595412
265 0.46776
270 0.480563
275 0.681186
280 0.508714
285 0.495856
290 0.613507
295 0.429004
300 0.486391
305 0.516717
310 0.519143
315 0.556927
320 0.503626
325 0.428365
330 0.596983
335 0.63891
340 0.706061
345 0.653901
350 0.472546
355 0.439175
360 0.409887
365 0.55924
370 0.601884
375 0.652365
380 0.577728
385 0.639871
390 0.676234
395 0.575332
400 0.660387
405 0.705614
410 0.535643
415 0.560363
420 0.524214
425 0.720917
430 0.607185
435 0.707068
440 0.701857
445 0.701423
450 0.625231
455 0.726308
460 0.847571
465 0.771883
470 0.793688
475 0.702769
480 0.875092
485 0.753588
490 0.858485
495 0.886644
500 0.869909
505 0.849554
510 0.964764
515 1.13361
520 1.12275
525 1.26763
530 1.43933
535 1.54752
540 2.31816
545 3.02765
550 77.1629
555 1533.28
560 2607.57
565 744.634
570 89.0221
575 12.081
580 2.67443
585 1.53624
590 1.18136
595 0.89385
600 0.672286
Ex : 568
200 0.514214
205 0.446352
210 0.554161
215 0.495326
220 0.612855
225 0.611576
230 0.673811
235 0.462481
240 0.576637
245 0.446669
250 0.533679
255 0.6225
260 0.448312
265 0.474467
270 0.513315
275 0.585329
280 0.457248
285 0.532117
290 0.588578
295 0.592927
300 0.534215
305 0.608799
310 0.565229
315 0.462688
320 0.568652
325 0.453845
330 0.471133
335 0.498219
340 0.658798
345 0.579312
350 0.720813
355 0.572138
360 0.591051
365 0.596007
370 0.559674
375 0.630787
380 0.518183
385 0.542979
390 0.493429
395 0.664315
400 0.728771
405 0.527533
410 0.753269
415 0.765907
420 0.68822
425 0.821769
430 0.677833
435 0.647192
440 0.595077
445 0.790204
450 0.669624
455 0.7466
460 0.7795
465 0.905741
470 0.911128
475 0.746301
480 0.655276
485 0.808056
490 0.903446
495 0.99743
500 0.839701
505 0.923701
510 0.920427
515 0.864409
520 1.02982
525 1.06462
530 1.03092
535 1.74458
540 1.71982
545 2.1569
550 2.83938
555 58.8752
560 1377.78
565 2503.99
570 746.083
575 89.5241
580 12.2521
585 2.75356
590 1.45742
595 1.12596
600 2.49756
Ex : 573
200 0.489303
205 0.516544
210 0.469431
215 0.529292
220 0.539411
225 0.512013
230 0.576325
235 0.56202
240 0.55508
245 0.502851
250 0.586496
255 0.472173
260 0.569085
265 0.543914
270 0.49887
275 0.50158
280 0.475929
285 0.492164
290 0.479513
295 0.548453
300 0.412168
305 0.44578
310 0.510459
315 0.499016
320 0.446605
325 0.590203
330 0.585913
335 0.553759
340 0.591707
345 0.639716
350 0.485346
355 0.626795
360 0.546945
365 0.501001
370 0.665349
375 0.603445
380 0.695402
385 0.585492
390 0.515941
395 0.670187
400 0.662985
405 0.644231
410 0.649637
415 0.563086
420 0.599041
425 0.616727
430 0.765161
435 0.790786
440 0.684414
445 0.78821
450 0.733292
455 0.907311
460 0.718694
465 0.866761
470 0.829388
475 0.728953
480 0.792101
485 0.941334
490 0.903838
495 0.999727
500 0.837048
505 0.825644
510 0.854577
515 0.927472
520 1.14459
525 0.964079
530 1.01763
535 1.15719
540 1.35759
545 1.64134
550 2.19916
555 2.97457
560 51.6927
565 1199.59
570 2314.31
575 706.065
580 84.8599
585 11.2587
590 2.53354
595 1.36664
600 2.60863
Ex : 578
200 0.491961
205 0.554914
210 0.552646
215 0.628021
220 0.557541
225 0.584129
230 0.581871
235 0.555728
240 0.466891
245 0.544755
250 0.500752
255 0.524261
260 0.543347
265 0.534451
270 0.580031
275 0.588301
280 0.52643
285 0.488978
290 0.624796
295 0.587318
300 0.604389
305 0.818333
310 0.56458
315 0.476801
320 0.534873
325 0.676752
330 0.530731
335 0.581692
340 0.630462
345 0.662813
350 0.662211
355 0.58955
360 0.690446
365 0.73886
370 0.616887
375 0.661214
380 0.549312
385 0.616147
390 0.542129
395 0.516878
400 0.59785
405 0.721664
410 0.53547
415 0.647212
420 0.647696
425 0.548976
430 0.790493
435 0.838426
440 0.933261
445 0.684494
450 0.677073
455 0.700071
460 0.80413
465 0.69008
470 0.703414
475 0.790729
480 0.874128
485 0.763643
490 0.940626
495 0.722863
500 0.818395
505 0.723529
510 0.874474
515 0.921851
520 0.917927
525 1.00931
530 1.01427
535 1.05983
540 1.15339
545 1.19422
550 1.45867
555 1.97372
560 2.61852
565 44.1986
570 1073.74
575 2024.9
580 605.754
585 72.4907
590 9.83752
595 2.13436
600 0.902537
Ex : 583
200 0.495035
205 0.505706
210 0.46281
215 0.550083
220 0.446257
225 0.516027
230 0.588017
235 0.490973
240 0.421506
245 0.60207
250 0.5983
255 0.514713
260 0.466725
265 0.48865
270 0.619734
275 0.609923
280 0.710028
285 0.657013
290 0.443368
295 0.456966
300 0.539495
305 0.472733
310 0.529992
315 0.479526
320 0.643835
325 0.513903
330 0.51873
335 0.592988
340 0.628775
345 0.568071
350 0.473548
355 0.544688
360 0.610484
365 0.57009
370 0.714186
375 0.598952
380 0.565948
385 0.619167
390 0.550315
395 0.615946
400 0.688343
405 0.6379
410 0.785905
415 0.649918
420 0.588141
425 0.593905
430 0.640415
435 0.631082
440 0.658957
445 0.730596
450 0.704635
455 0.684362
460 0.745365
465 0.777813
470 0.683716
475 0.654001
480 0.804014
485 0.648404
490 0.834277
495 0.835473
500 0.761168
505 0.878201
510 0.97709
515 0.77539
520 0.956465
525 1.00445
530 1.00001
535 0.927735
540 1.02493
545 1.03064
550 1.40592
555 1.52215
560 1.86951
565 2.41167
570 36.4785
575 954.33
580 1758.67
585 501.163
590 60.2929
595 8.217
600 2.71418
Ex : 588
200 0.495166
205 0.593698
210 0.599589
215 0.435404
220 0.561648
225 0.484292
230 0.543001
235 0.487101
240 0.530031
245 0.492879
250 0.667846
255 0.601741
260 0.655471
265 0.522826
270 0.527991
275 0.564816
280 0.6366
285 0.532177
290 0.561118
295 0.588168
300 0.583912
305 0.540499
310 0.589013
315 0.486318
320 0.584606
325 0.543214
330 0.680178
335 0.616482
340 0.519706
345 0.759169
350 0.573981
355 0.623151
360 0.532811
365 0.753754
370 0.700229
375 0.638181
380 0.641924
385 0.612991
390 0.604669
395 0.683771
400 0.571752
405 0.752957
410 0.68199
415 0.624183
420 0.781051
425 0.655439
430 0.625521
435 0.68605
440 0.563263
445 0.701167
450 0.676264
455 0.850154
460 0.810929
465 0.72745
470 0.800885
475 0.801086
480 0.859476
485 0.754164
490 0.807743
495 0.720051
500 0.793086
505 0.828271
510 0.807847
515 0.946393
520 0.801284
525 0.73656
530 0.919597
535 1.03018
540 1.0515
545 0.998197
550 1.19749
555 1.13786
560 1.3924
565 1.82386
570 2.08141
575 34.1169
580 791.062
585 1497.6
590 438.889
595 52.8541
600 7.65939
Ex : 593
200 0.585007
205 0.448129
210 0.529751
215 0.498246
220 0.583048
225 0.564272
230 0.617103
235 0.540055
240 0.590982
245 0.650663
250 0.432973
255 0.482399
260 0.538633
265 0.610936
270 0.680679
275 0.50094
280 0.503656
285 0.546205
290 0.488465
295 0.615256
300 0.61771
305 0.571578
310 0.533688
315 0.537479
320 0.547209
325 0.539226
330 0.56147
335 0.510734
340 0.732754
345 0.634872
350 0.461342
355 0.517694
360 0.573997
365 0.746687
370 0.538637
375 0.584565
380 0.650123
385 0.591601
390 0.685405
395 0.604075
400 0.644328
405 0.595413
410 0.603815
415 0.63816
420 0.496511
425 0.580135
430 0.600108
435 0.655963
440 0.557578
445 0.730139
450 0.685826
455 0.775379
460 0.800635
465 0.801382
470 0.874256
475 0.772233
480 0.682004
485 0.803219
490 0.739314
495 0.699802
500 0.72822
505 0.815814
510 0.876841
515 0.792838
520 0.903509
525 0.847142
530 0.82006
535 0.947434
540 0.999346
545 0.86773
550 0.865566
555 1.1497
560 1.34918
565 1.52709
570 1.40832
575 1.97487
580 27.8759
585 698.683
590 1289.4
595 376.27
600 52.8373
Ex : 598
200 0.625314
205 0.493558
210 0.47524
215 0.557338
220 0.699343
225 0.755105
230 0.472232
235 0.498607
240 0.543575
245 0.442478
250 0.469868
255 0.474602
260 0.511241
265 0.530832
270 0.545496
275 0.714734
280 0.529741
285 0.478685
290 0.470484
295 0.689156
300 0.508971
305 0.636351
310 0.682566
315 0.553211
320 0.720892
325 0.584608
330 0.526074
335 0.717215
340 0.541557
345 0.638642
350 0.557544
355 0.57395
360 0.632926
365 0.574288
370 0.605382
375 0.616433
380 0.654975
385 0.557357
390 0.716467
395 0.73324
400 0.86479
405 0.622579
410 0.60044
415 0.637818
420 0.616503
425 0.611465
430 0.627667
435 0.829693
440 0.679546
445 0.658773
450 0.719427
455 0.758894
460 0.687277
465 0.693313
470 0.76723
475 0.913174
480 0.74509
485 0.851706
490 0.844574
495 0.725396
500 0.737348
505 0.837845
510 0.776924
515 0.812926
520 0.744705
525 0.674548
530 0.867833
535 0.81126
540 0.908227
545 0.944182
550 0.945619
555 0.83762
560 0.951677
565 1.24637
570 1.15875
575 1.62217
580 1.63019
585 27.4057
590 629.39
595 1133.31
600 700.922
Ex : 603
200 0.527923
205 0.567876
210 0.495148
215 0.515482
220 0.581373
225 0.548429
230 0.583233
235 0.697585
240 0.534101
245 0.532757
250 0.547804
255 0.587123
260 0.595415
265 0.710773
270 0.590075
275 0.651906
280 0.543775
285 0.435233
290 0.56382
295 0.541453
300 0.508711
305 0.54951
310 0.711723
315 0.529182
320 0.642375
325 0.653206
330 0.655369
335 0.564989
340 0.705826
345 0.677502
350 0.664907
355 0.691764
360 0.784484
365 0.794861
370 0.592257
375 0.622276
380 0.507991
385 0.590463
390 0.712416
395 0.704833
400 0.764788
405 0.698024
410 0.687299
415 0.782996
420 0.596539
425 0.687039
430 0.735411
435 0.825431
440 0.772373
445 0.77956
450 0.576463
455 0.682655
460 0.743411
465 0.681313
470 0.859659
475 0.705703
480 0.888841
485 0.66252
490 0.801519
495 0.610111
500 0.750073
505 0.658759
510 0.646412
515 0.779667
520 0.891797
525 0.709757
530 0.789849
535 0.946493
540 0.943215
545 1.01339
550 0.840449
555 0.963734
560 1.01541
565 1.01603
570 1.1786
575 1.41424
580 1.60545
585 1.95296
590 24.9751
595 529.001
600 1072.26
