File format V 1.0
sam. 10. déc. 02:15:59 2016
Operator : 
Comments : 

=============================================
SpectroFluorometer parameters
Mode : 3D measurement
Data : Fluorescence
Phospho. : Ordinary
Spectrum : Fluorescence

Scan speed : 2400 nm/mn
Response : 100 ms
PM Voltage : 700 V
Shutter : On

Lambda Ex. Start : 203
Lambda Ex. End : 603
Lambda Ex. Step : 5
Ex. Slit : 5 nm

Lambda Em. Start : 200
Lambda Em. End : 600
Lambda Em. Step : 5
Em. Slit : 5 nm

Repetition : 1
Decal lambda em : 10
=============================================
DATA
Ex : 203
200 12.1635
205 11.6283
210 14.5049
215 13.5935
220 13.7574
225 14.9983
230 10.4781
235 14.4245
240 13.3799
245 17.9965
250 13.1121
255 14.1709
260 12.4123
265 10.8183
270 10.1201
275 10.7114
280 12.2787
285 13.2734
290 14.1868
295 18.0934
300 11.1191
305 10.9093
310 14.5899
315 13.7074
320 11.1132
325 15.7812
330 15.879
335 15.8027
340 10.8161
345 21.3094
350 14.4897
355 16.3892
360 15.2918
365 13.843
370 15.8219
375 14.3441
380 19.465
385 17.2032
390 13.9241
395 18.6716
400 17.3106
405 13.1433
410 16.8078
415 13.904
420 15.5919
425 17.4764
430 14.8901
435 17.1885
440 16.3662
445 14.9339
450 18.3812
455 17.0582
460 18.9259
465 17.2192
470 15.6853
475 14.4465
480 19.1639
485 16.461
490 15.0569
495 16.3816
500 16.9296
505 12.2169
510 15.7206
515 15.7825
520 17.3504
525 19.6352
530 11.0909
535 16.0286
540 15.5783
545 16.8103
550 14.2798
555 13.1842
560 20.2324
565 11.7102
570 14.4365
575 13.5388
580 12.5905
585 14.2233
590 14.4301
595 16.2332
600 9.67541
Ex : 208
200 16.071
205 15.209
210 10.805
215 13.3649
220 11.9416
225 15.0715
230 18.102
235 15.3238
240 12.3456
245 13.6595
250 11.5019
255 20.5368
260 15.2819
265 12.278
270 12.3234
275 13.3499
280 12.3876
285 14.6126
290 15.1954
295 10.9991
300 8.21611
305 8.62721
310 12.6027
315 12.4911
320 21.2947
325 16.5519
330 13.7046
335 19.1722
340 14.6993
345 14.3632
350 16.3445
355 17.1882
360 17.0017
365 18.8887
370 17.7954
375 19.7342
380 18.2808
385 12.3695
390 13.6551
395 17.7482
400 18.4816
405 16.4037
410 15.3065
415 17.9137
420 17.2421
425 16.5871
430 15.3275
435 16.2884
440 18.4579
445 16.4021
450 17.5966
455 15.0485
460 17.9327
465 19.0415
470 22.1064
475 17.1199
480 18.1935
485 19.4873
490 18.1958
495 18.2492
500 14.135
505 16.6193
510 17.1553
515 17.6456
520 18.4698
525 18.2012
530 14.7627
535 12.2507
540 11.9929
545 18.0957
550 15.118
555 13.5777
560 13.9331
565 15.4903
570 14.635
575 16.3382
580 13.4271
585 10.851
590 10.8147
595 16.8782
600 1.92068
Ex : 213
200 14.227
205 13.1347
210 12.8422
215 9.43248
220 16.7242
225 12.6267
230 16.3605
235 18.7578
240 10.7491
245 11.7187
250 14.9571
255 13.6403
260 12.6174
265 13.1117
270 12.7036
275 14.2316
280 12.5719
285 8.76196
290 14.107
295 11.7267
300 12.9497
305 14.1555
310 12.9627
315 11.8867
320 13.4872
325 12.7684
330 14.167
335 12.7101
340 17.2808
345 15.8101
350 17.0615
355 19.2302
360 15.7346
365 20.7666
370 15.1062
375 15.6465
380 12.885
385 15.5459
390 18.2014
395 16.2215
400 16.81
405 18.9995
410 17.0149
415 16.9433
420 14.0825
425 14.7667
430 19.8288
435 15.3416
440 14.5582
445 17.5888
450 15.4955
455 18.1066
460 14.1344
465 15.7402
470 13.728
475 20.1331
480 14.8245
485 18.0916
490 18.2539
495 15.269
500 16.077
505 19.7725
510 12.6212
515 15.0215
520 13.172
525 12.8937
530 13.6738
535 19.3338
540 14.9387
545 13.3107
550 13.1649
555 14.6706
560 13.3598
565 13.9872
570 12.3858
575 14.9674
580 13.4145
585 15.7704
590 12.398
595 14.7039
600 4.77496
Ex : 218
200 14.7257
205 13.4784
210 13.2784
215 15.341
220 13.2813
225 12.7809
230 13.9148
235 11.0905
240 14.0736
245 12.2803
250 12.0511
255 14.2554
260 12.9543
265 13.174
270 12.6769
275 11.9603
280 13.6081
285 12.0626
290 14.0929
295 16.1353
300 11.3261
305 15.4578
310 8.89322
315 11.0778
320 12.3974
325 11.3018
330 12.8262
335 10.7647
340 17.6591
345 17.5593
350 14.6609
355 14.7607
360 14.8614
365 16.4275
370 17.6332
375 12.8501
380 18.3476
385 15.8812
390 15.6734
395 17.0523
400 17.9354
405 20.2332
410 16.3143
415 17.8082
420 15.1908
425 16.0522
430 17.978
435 15.1831
440 19.7334
445 14.617
450 18.3077
455 17.7228
460 18.9806
465 15.9266
470 17.1086
475 13.9496
480 17.4146
485 15.4657
490 14.4527
495 15.0448
500 13.5644
505 13.5382
510 16.0185
515 14.5575
520 14.6247
525 16.857
530 15.0455
535 12.8295
540 14.352
545 16.8652
550 18.2212
555 14.3551
560 18.4662
565 17.0484
570 18.1686
575 14.8115
580 14.7497
585 9.19591
590 9.29114
595 13.1268
600 44.0316
Ex : 223
200 11.1947
205 16.3394
210 10.4689
215 11.8593
220 15.577
225 12.0175
230 9.92417
235 12.4718
240 13.4956
245 12.2103
250 10.7565
255 13.2944
260 12.7524
265 14.1503
270 11.0187
275 11.8274
280 12.3408
285 12.3674
290 13.2707
295 14.161
300 10.7975
305 11.6141
310 10.8566
315 10.9974
320 14.0466
325 12.1303
330 14.1165
335 13.4465
340 14.4678
345 12.7899
350 16.4014
355 12.0395
360 14.6537
365 11.1266
370 13.9895
375 15.5328
380 19.0069
385 17.1841
390 15.4052
395 17.6996
400 16.4356
405 14.8712
410 19.9738
415 20.2708
420 17.9206
425 13.2148
430 15.2302
435 19.3981
440 15.7578
445 17.1212
450 13.6905
455 14.3481
460 13.4801
465 18.518
470 16.9345
475 20.3443
480 16.777
485 13.8051
490 19.454
495 14.7212
500 13.6741
505 18.1436
510 19.5355
515 15.1111
520 14.1591
525 19.667
530 14.0371
535 14.55
540 14.6927
545 15.9854
550 17.3595
555 13.2672
560 12.7744
565 13.3563
570 16.1733
575 19.959
580 13.9904
585 16.0151
590 11.491
595 14.3621
600 4.29296
Ex : 228
200 13.995
205 15.3264
210 12.2612
215 11.5725
220 10.1353
225 10.7337
230 10.0835
235 16.1003
240 12.5774
245 15.861
250 13.9844
255 11.4828
260 11.8885
265 14.6503
270 9.76761
275 11.0135
280 12.4642
285 13.0569
290 14.5597
295 11.1427
300 14.5704
305 10.1169
310 12.6141
315 8.74778
320 7.24966
325 14.9902
330 12.1775
335 19.4005
340 18.3261
345 13.1815
350 14.4369
355 17.0146
360 14.5175
365 15.3132
370 15.6923
375 13.5279
380 12.4164
385 17.6359
390 14.0774
395 13.6331
400 17.428
405 14.6555
410 12.1015
415 14.6045
420 15.0952
425 16.5226
430 16.7085
435 17.1032
440 16.3636
445 15.9656
450 17.6912
455 17.4647
460 15.4137
465 16.0957
470 18.7456
475 12.6417
480 15.3894
485 13.6663
490 18.4994
495 15.2629
500 11.3554
505 15.1576
510 11.5787
515 12.2563
520 15.9074
525 15.8325
530 14.1509
535 15.8959
540 17.3808
545 13.244
550 13.6201
555 12.9939
560 13.9699
565 11.9122
570 12.265
575 13.2504
580 10.8332
585 14.157
590 13.3786
595 13.0907
600 26.1261
Ex : 233
200 11.3178
205 9.51695
210 7.53033
215 8.70068
220 15.0266
225 11.6527
230 10.5274
235 9.04449
240 11.9304
245 9.1546
250 11.6281
255 9.60521
260 9.01562
265 8.74858
270 10.4669
275 8.93033
280 9.85795
285 9.18184
290 10.8748
295 10.9982
300 11.0923
305 10.2566
310 12.1251
315 10.0901
320 10.1443
325 11.8232
330 12.7002
335 12.8665
340 9.15399
345 10.6969
350 19.5786
355 15.9144
360 12.7528
365 13.9694
370 12.3572
375 11.0302
380 12.6056
385 14.9576
390 14.0217
395 11.1919
400 13.3851
405 14.1339
410 14.007
415 14.0415
420 11.2449
425 11.8677
430 12.8004
435 16.5429
440 11.6944
445 12.4929
450 14.7511
455 12.1188
460 14.0386
465 15.6484
470 10.2561
475 15.3753
480 12.1008
485 13.9218
490 10.7853
495 12.4213
500 12.4219
505 8.60515
510 10.6232
515 14.2558
520 16.3963
525 13.6315
530 13.6093
535 12.9968
540 12.2163
545 13.3519
550 11.8624
555 11.9964
560 13.383
565 12.092
570 10.1174
575 11.8829
580 9.48273
585 9.59966
590 11.4517
595 11.2909
600 6.2476
Ex : 238
200 7.29339
205 10.1145
210 7.65227
215 8.40171
220 8.27304
225 7.00993
230 11.3513
235 10.0233
240 10.7406
245 8.56254
250 9.67529
255 8.98176
260 10.5388
265 10.9586
270 11.7164
275 10.4907
280 10.0902
285 15.788
290 8.8339
295 8.2194
300 5.55348
305 8.87623
310 8.76626
315 8.3898
320 9.65361
325 10.8656
330 10.5055
335 9.14525
340 10.9966
345 12.5808
350 11.8624
355 11.8269
360 12.4486
365 12.1842
370 12.3114
375 13.7826
380 13.4066
385 12.8426
390 11.3081
395 16.7974
400 11.3741
405 8.32857
410 10.4132
415 8.85561
420 15.1985
425 13.8448
430 13.3042
435 11.936
440 12.7929
445 12.5403
450 13.5006
455 12.4042
460 14.86
465 13.0762
470 13.469
475 12.0022
480 15.1774
485 13.0465
490 12.5146
495 10.9573
500 10.2869
505 11.4557
510 10.4957
515 11.4829
520 9.89136
525 9.50666
530 13.9405
535 9.97009
540 11.7057
545 10.927
550 11.5391
555 10.0865
560 10.3636
565 7.66776
570 11.4691
575 12.396
580 9.29262
585 10.2514
590 9.59462
595 8.14454
600 0.926817
Ex : 243
200 7.04797
205 7.40393
210 9.47255
215 8.15769
220 9.06651
225 7.75787
230 8.36238
235 8.98203
240 8.00502
245 7.04694
250 7.74882
255 9.58299
260 8.46621
265 9.08748
270 10.2455
275 8.84633
280 9.08974
285 8.67292
290 6.97613
295 9.80197
300 8.51132
305 6.14602
310 8.58159
315 8.52232
320 8.81255
325 10.0864
330 11.8086
335 9.0782
340 10.543
345 12.2209
350 13.5214
355 12.0034
360 8.92951
365 10.9506
370 11.0767
375 12.8785
380 9.86462
385 9.54811
390 11.5884
395 10.5794
400 11.4813
405 9.20659
410 11.6459
415 9.3368
420 12.9194
425 10.7674
430 11.3689
435 9.70784
440 11.1674
445 10.8628
450 8.95833
455 7.95493
460 13.1588
465 11.3928
470 9.50819
475 10.5611
480 12.8675
485 14.5366
490 11.5286
495 9.80523
500 13.6973
505 11.7157
510 8.6509
515 9.52186
520 7.87778
525 10.0603
530 10.0725
535 9.87823
540 12.0796
545 9.56068
550 8.63479
555 10.4246
560 9.10198
565 9.04093
570 9.28139
575 11.443
580 10.9181
585 8.0784
590 7.36144
595 8.48203
600 13.6253
Ex : 248
200 8.6947
205 7.69656
210 6.51431
215 8.13268
220 6.74634
225 7.84399
230 7.51713
235 8.86348
240 7.18789
245 7.0564
250 9.00245
255 8.9701
260 4.7379
265 6.33685
270 7.46044
275 8.18707
280 5.92757
285 9.0486
290 7.36684
295 6.1477
300 6.40188
305 7.05183
310 6.08468
315 7.65659
320 7.31032
325 7.24694
330 10.2605
335 7.33062
340 9.58882
345 8.10099
350 7.75755
355 10.0678
360 10.995
365 10.2763
370 9.28388
375 11.3576
380 9.04742
385 7.4532
390 10.3223
395 7.70151
400 8.47824
405 8.63005
410 9.24599
415 9.89003
420 7.91525
425 9.33846
430 9.69851
435 10.4725
440 11.2398
445 10.2776
450 10.4719
455 10.1856
460 7.25541
465 10.7729
470 8.69685
475 7.40241
480 8.80777
485 10.434
490 8.87219
495 8.35358
500 8.81703
505 7.50305
510 8.37063
515 7.04453
520 7.25008
525 8.09524
530 9.73587
535 10.0082
540 7.39398
545 5.97618
550 5.39937
555 8.09551
560 8.08652
565 9.03016
570 7.0335
575 7.02284
580 6.7054
585 8.67815
590 6.67156
595 9.46231
600 8.25503
Ex : 253
200 6.34783
205 6.46832
210 6.19843
215 4.5196
220 5.80364
225 6.58228
230 4.46719
235 7.54341
240 7.07478
245 5.82979
250 6.14901
255 4.78444
260 5.33082
265 3.69201
270 4.82067
275 4.39704
280 5.22458
285 5.44534
290 6.48994
295 7.14297
300 7.65679
305 4.9583
310 5.82883
315 6.52762
320 6.25431
325 6.50662
330 7.25028
335 5.7705
340 7.6067
345 8.21782
350 8.12814
355 6.61107
360 7.06323
365 5.85099
370 8.34485
375 7.13305
380 7.62332
385 7.70332
390 6.32434
395 7.67265
400 8.76011
405 8.70463
410 8.04831
415 6.19177
420 6.43797
425 6.28351
430 6.70237
435 6.69178
440 8.45125
445 8.52854
450 7.12568
455 8.4384
460 8.26387
465 7.3995
470 6.73836
475 6.15973
480 7.88779
485 6.63391
490 7.78235
495 9.08137
500 7.2565
505 8.81039
510 6.88795
515 5.84203
520 6.947
525 6.2863
530 7.02396
535 7.85315
540 7.4245
545 6.17753
550 6.44262
555 7.08641
560 6.95223
565 6.374
570 6.15251
575 4.66611
580 6.89613
585 5.37229
590 5.63748
595 5.61874
600 0.639392
Ex : 258
200 4.63289
205 4.27429
210 4.47256
215 3.67397
220 3.54049
225 5.25451
230 4.62221
235 3.96003
240 4.57718
245 4.94844
250 5.13572
255 5.30745
260 4.09984
265 4.49336
270 6.1163
275 5.25168
280 4.77961
285 3.5848
290 4.21259
295 4.46986
300 4.55588
305 6.18627
310 4.18232
315 4.99143
320 5.22231
325 7.32097
330 8.73565
335 7.92211
340 4.79058
345 5.6949
350 7.31132
355 6.25746
360 6.62405
365 5.74985
370 7.06646
375 7.60401
380 6.244
385 6.85837
390 4.85558
395 7.48405
400 6.46654
405 6.76274
410 5.95627
415 7.36653
420 7.30503
425 6.6837
430 7.06459
435 5.54444
440 5.25908
445 5.10539
450 5.99
455 5.51344
460 6.50584
465 7.45851
470 7.15064
475 7.28878
480 7.30704
485 6.70349
490 7.06962
495 6.77354
500 6.16703
505 6.74995
510 6.78865
515 5.98549
520 5.75104
525 5.97167
530 5.23839
535 4.56276
540 5.1202
545 5.55917
550 3.75989
555 4.36071
560 5.47677
565 6.3185
570 3.97253
575 4.57665
580 4.65415
585 5.42444
590 5.24216
595 5.26655
600 7.04443
Ex : 263
200 3.07556
205 4.47983
210 4.0758
215 3.56228
220 3.78209
225 3.35338
230 3.25468
235 3.81716
240 2.94103
245 3.75966
250 3.38539
255 3.90017
260 4.0686
265 3.75176
270 2.54961
275 3.03429
280 3.87426
285 4.30087
290 3.36283
295 3.58227
300 4.29791
305 3.61357
310 3.13058
315 4.35675
320 3.5794
325 3.51101
330 3.77004
335 4.69686
340 4.78639
345 4.00297
350 4.08699
355 4.392
360 4.9374
365 5.13521
370 4.30876
375 4.99606
380 5.43994
385 4.47969
390 5.17493
395 5.78539
400 4.97511
405 6.03085
410 5.16936
415 5.60614
420 5.1572
425 6.48439
430 4.59408
435 4.75568
440 5.41398
445 4.18732
450 4.97375
455 4.29074
460 5.44514
465 4.39911
470 5.032
475 4.43462
480 4.23281
485 4.8997
490 4.79897
495 3.24856
500 3.36943
505 3.02785
510 3.89604
515 3.87806
520 4.28196
525 5.60302
530 4.4694
535 3.96296
540 3.02348
545 3.49471
550 4.16305
555 4.04684
560 3.78938
565 4.19428
570 4.09905
575 3.39582
580 4.56921
585 3.75184
590 4.47394
595 4.34846
600 3.84272
Ex : 268
200 2.95139
205 2.30614
210 2.90426
215 3.58129
220 2.17994
225 1.87489
230 2.62837
235 2.63392
240 2.30399
245 3.3706
250 2.47016
255 2.39621
260 2.96294
265 3.117
270 3.43625
275 2.71955
280 2.84549
285 2.72171
290 2.86862
295 2.26769
300 2.53584
305 2.50616
310 2.21096
315 2.64786
320 2.77352
325 3.11377
330 2.947
335 2.88319
340 3.41321
345 4.42797
350 3.53236
355 2.97062
360 4.01754
365 3.31553
370 3.81159
375 4.5752
380 3.95544
385 4.27681
390 3.89326
395 3.77812
400 4.12658
405 4.52964
410 4.01545
415 4.19401
420 4.28585
425 4.10828
430 3.43171
435 3.77608
440 3.87092
445 3.09401
450 3.73984
455 5.91592
460 4.40807
465 4.01144
470 4.3675
475 3.68208
480 4.62638
485 3.41263
490 3.75445
495 3.9752
500 3.41642
505 3.21335
510 2.56218
515 3.33086
520 2.71077
525 3.29168
530 4.0231
535 4.41401
540 3.82273
545 3.64929
550 2.76769
555 3.18976
560 2.69559
565 2.9612
570 2.89353
575 1.89678
580 2.70131
585 2.54672
590 2.26213
595 2.47033
600 0.281115
Ex : 273
200 2.4375
205 2.5312
210 1.90757
215 2.21354
220 1.69635
225 2.27521
230 2.20773
235 1.87287
240 2.42317
245 2.87506
250 2.35325
255 2.19551
260 2.03398
265 2.96717
270 2.40268
275 2.15966
280 2.24805
285 2.43795
290 2.37922
295 1.99633
300 2.59956
305 2.01978
310 3.20573
315 2.16777
320 1.87236
325 2.13894
330 2.76908
335 3.99047
340 3.64277
345 2.28412
350 3.17646
355 2.93967
360 3.0842
365 3.4232
370 3.02983
375 3.34915
380 3.07468
385 3.26423
390 2.86627
395 3.83847
400 3.38299
405 3.60722
410 3.36728
415 3.06941
420 3.90334
425 3.49347
430 2.98986
435 3.62445
440 3.47112
445 3.66168
450 3.11661
455 3.76121
460 3.23756
465 3.27712
470 3.08058
475 3.09194
480 2.77708
485 2.73091
490 3.30128
495 3.21432
500 3.24946
505 3.05166
510 3.23159
515 3.95683
520 3.23726
525 2.81188
530 2.72262
535 3.56588
540 3.80967
545 3.45598
550 2.8937
555 3.28889
560 1.92739
565 2.22716
570 2.30763
575 1.88282
580 2.22338
585 2.70557
590 2.35754
595 2.17194
600 4.74382
Ex : 278
200 1.2868
205 1.41872
210 1.96277
215 2.18002
220 1.49769
225 1.82275
230 1.6592
235 1.33915
240 1.99356
245 2.13406
250 1.72883
255 1.56582
260 1.83321
265 2.30153
270 2.22873
275 2.21755
280 1.87867
285 1.90824
290 1.88978
295 2.01483
300 1.80643
305 2.15302
310 1.67567
315 1.97603
320 2.39752
325 1.98804
330 2.36863
335 2.49497
340 2.83932
345 2.76205
350 2.90004
355 3.64593
360 3.22293
365 2.11577
370 2.586
375 2.72044
380 3.06559
385 2.22354
390 2.35802
395 3.25807
400 3.11422
405 3.49328
410 3.28405
415 3.23155
420 3.19226
425 3.46325
430 3.16658
435 2.96134
440 2.95541
445 2.78215
450 2.36646
455 2.41563
460 2.93214
465 2.58058
470 2.83136
475 3.2347
480 2.71506
485 2.79253
490 2.34921
495 2.73161
500 2.11613
505 2.48507
510 2.33793
515 2.03709
520 1.58212
525 1.7825
530 2.5392
535 1.77692
540 1.71473
545 2.69772
550 3.59485
555 3.61363
560 2.34419
565 2.27572
570 2.11884
575 2.21
580 1.82612
585 1.98434
590 1.71575
595 1.81542
600 0.206588
Ex : 283
200 1.46799
205 1.4394
210 1.77921
215 1.55027
220 1.22662
225 1.56442
230 1.63939
235 1.70958
240 1.59534
245 1.62491
250 1.40315
255 1.52262
260 1.5815
265 2.10647
270 1.75933
275 1.54215
280 1.78828
285 1.76985
290 1.29937
295 1.43741
300 1.58961
305 1.5923
310 1.36261
315 1.71489
320 1.92494
325 2.29246
330 2.03967
335 2.02668
340 1.94829
345 2.1781
350 2.02605
355 1.85915
360 2.38129
365 2.28934
370 2.57854
375 2.39209
380 2.35937
385 2.48143
390 2.63982
395 2.42201
400 3.04018
405 2.48445
410 2.39354
415 2.48276
420 2.80645
425 2.29266
430 2.62638
435 2.90479
440 2.41914
445 2.21003
450 2.63125
455 2.71598
460 2.9637
465 2.3819
470 2.47567
475 2.26661
480 2.41161
485 2.20642
490 2.24276
495 2.07657
500 2.28034
505 2.5326
510 2.08201
515 2.01335
520 1.81637
525 1.70464
530 2.09513
535 1.81895
540 2.19463
545 2.3591
550 1.73917
555 2.4563
560 2.83062
565 2.70404
570 1.96372
575 1.16765
580 1.32635
585 1.82866
590 1.50992
595 2.06175
600 4.66564
Ex : 288
200 1.39872
205 1.59883
210 1.43497
215 1.36928
220 1.40042
225 1.46246
230 1.16103
235 1.2731
240 1.1705
245 1.0515
250 1.3392
255 1.21873
260 1.5632
265 1.12394
270 1.39397
275 1.64387
280 1.61669
285 1.40899
290 1.09929
295 1.02814
300 1.0935
305 1.14126
310 1.31292
315 1.54766
320 1.31718
325 1.61099
330 1.48425
335 1.74157
340 1.78519
345 2.15759
350 2.25664
355 2.27276
360 1.88913
365 2.14981
370 2.06313
375 2.15762
380 2.43814
385 2.18557
390 2.10099
395 2.55237
400 2.53064
405 2.49067
410 1.96707
415 2.46373
420 2.39642
425 2.20009
430 2.10386
435 2.14069
440 2.89028
445 1.85216
450 2.36484
455 2.07372
460 2.14077
465 1.91953
470 2.15896
475 2.07372
480 1.85048
485 1.73644
490 1.77281
495 1.52623
500 1.45637
505 1.44192
510 1.44575
515 1.81405
520 1.31948
525 1.40813
530 1.40276
535 1.6209
540 1.74448
545 1.18068
550 1.31126
555 1.75844
560 1.779
565 1.96196
570 2.42819
575 2.6876
580 1.82498
585 1.06611
590 1.20223
595 1.33845
600 3.19623
Ex : 293
200 1.10599
205 1.43852
210 0.88397
215 1.32539
220 0.836825
225 0.96499
230 1.00506
235 1.14158
240 0.934607
245 1.20908
250 1.36975
255 1.191
260 1.12989
265 0.778761
270 1.24643
275 1.0185
280 1.32246
285 1.13097
290 1.52969
295 1.1831
300 0.74488
305 0.881648
310 1.13937
315 0.987739
320 1.29428
325 1.38017
330 1.66775
335 1.62308
340 1.74585
345 2.03773
350 2.16876
355 2.40023
360 2.23229
365 1.69903
370 1.98053
375 2.08591
380 2.29379
385 1.79463
390 2.09352
395 2.13247
400 2.15634
405 1.95662
410 2.16874
415 1.75969
420 1.96321
425 2.44994
430 1.89857
435 1.59051
440 1.73556
445 2.03839
450 1.88313
455 1.8286
460 2.26541
465 1.91772
470 2.00952
475 1.66062
480 2.19455
485 1.4057
490 1.34378
495 1.37517
500 1.65244
505 1.3691
510 1.51658
515 1.12907
520 1.46478
525 1.5744
530 1.19623
535 1.44258
540 1.11475
545 1.22535
550 1.33898
555 1.1044
560 1.25152
565 1.11521
570 1.43306
575 2.00609
580 2.62124
585 2.43789
590 1.55523
595 1.30197
600 0.36553
Ex : 298
200 0.753889
205 1.33675
210 0.999245
215 0.868772
220 1.12451
225 1.02449
230 0.963957
235 1.04796
240 1.12684
245 0.922672
250 0.986902
255 0.783672
260 0.915509
265 1.00654
270 1.24484
275 0.820749
280 0.850609
285 1.36751
290 1.34989
295 1.63133
300 0.916463
305 0.909864
310 0.933727
315 0.778621
320 1.03826
325 1.2574
330 1.66586
335 1.92706
340 1.78217
345 1.73725
350 1.70025
355 1.8898
360 1.94466
365 1.8934
370 1.83528
375 1.68242
380 2.36173
385 1.97366
390 1.90327
395 2.10181
400 1.88412
405 2.12813
410 2.08942
415 1.94619
420 2.11813
425 1.83369
430 1.54227
435 1.49158
440 1.65589
445 1.30055
450 1.70753
455 1.75032
460 1.71171
465 1.62832
470 1.48285
475 1.30353
480 1.46314
485 1.18835
490 1.41582
495 1.64696
500 1.45572
505 1.02663
510 1.04598
515 1.14535
520 1.3664
525 1.13549
530 1.20588
535 1.06563
540 1.05437
545 1.16264
550 1.08995
555 1.05678
560 1.16559
565 1.05412
570 1.28071
575 0.92269
580 1.22438
585 1.53049
590 2.13627
595 1.84888
600 0.80604
Ex : 303
200 1.0007
205 0.765358
210 0.750035
215 0.923753
220 0.9563
225 0.961751
230 0.790273
235 0.880032
240 0.68561
245 0.637072
250 0.93506
255 0.789183
260 0.795707
265 0.901682
270 1.00637
275 0.931054
280 0.714728
285 0.728418
290 1.04075
295 1.39112
300 1.47483
305 1.17549
310 0.881983
315 0.845548
320 0.976503
325 1.35908
330 1.50191
335 1.87126
340 1.87054
345 1.56449
350 1.5767
355 1.43796
360 1.84654
365 1.45714
370 1.58649
375 1.89804
380 1.91343
385 1.73098
390 1.69135
395 1.99369
400 1.86652
405 1.95756
410 1.88966
415 1.75037
420 1.84914
425 1.41214
430 1.60828
435 1.87349
440 1.38368
445 1.35503
450 1.86832
455 1.41157
460 1.61896
465 1.31956
470 1.45445
475 1.10394
480 1.26663
485 1.21951
490 1.20579
495 1.25057
500 1.38512
505 1.27195
510 1.47061
515 1.44511
520 1.0197
525 0.966307
530 0.973491
535 0.911724
540 1.20012
545 0.934372
550 0.969485
555 0.928744
560 1.01942
565 1.2473
570 0.772858
575 1.1732
580 0.78276
585 0.848454
590 0.957027
595 1.52509
600 1.71477
Ex : 308
200 0.727525
205 0.743734
210 0.722514
215 0.595038
220 0.814268
225 0.954187
230 0.810759
235 0.642051
240 0.691274
245 0.680272
250 0.807939
255 0.977034
260 0.86265
265 0.698711
270 0.726856
275 0.743928
280 0.735992
285 0.72182
290 0.728451
295 0.740551
300 1.28146
305 1.22553
310 0.830418
315 0.829271
320 0.923901
325 1.42086
330 1.45395
335 1.64448
340 1.77914
345 1.33098
350 1.48964
355 1.63093
360 1.48118
365 1.50436
370 1.32633
375 1.69731
380 1.90646
385 1.70947
390 1.69984
395 1.83156
400 1.87359
405 1.56948
410 1.87603
415 1.5909
420 1.54647
425 1.5881
430 1.52454
435 1.67288
440 1.99017
445 1.6519
450 1.62641
455 1.33883
460 1.43792
465 1.31718
470 1.32763
475 1.54771
480 1.38078
485 1.25097
490 1.21399
495 1.26839
500 0.876515
505 1.12339
510 1.0938
515 0.908526
520 0.910695
525 0.960858
530 1.15377
535 1.02965
540 1.00503
545 0.763226
550 0.787731
555 0.986823
560 0.866448
565 1.10469
570 1.11307
575 1.01971
580 0.94014
585 0.904347
590 0.844569
595 0.807653
600 0.0919079
Ex : 313
200 0.61923
205 0.475947
210 0.616784
215 0.56503
220 0.646654
225 0.640961
230 0.962314
235 0.688253
240 0.610288
245 0.822088
250 0.565173
255 0.593562
260 0.607836
265 0.656625
270 0.577715
275 0.681351
280 0.683667
285 0.689742
290 0.655627
295 0.75087
300 0.67503
305 1.3543
310 1.48366
315 0.826452
320 0.836999
325 1.26946
330 1.67126
335 1.75295
340 1.60389
345 1.58791
350 1.75625
355 1.42952
360 1.64811
365 1.62694
370 1.65343
375 1.59805
380 2.03456
385 2.13462
390 2.40285
395 2.21722
400 2.18955
405 1.9885
410 1.94229
415 1.94721
420 1.82318
425 1.53898
430 1.97254
435 1.67268
440 1.66035
445 1.98789
450 1.85617
455 1.88915
460 1.59685
465 1.51746
470 1.60132
475 1.45775
480 1.48946
485 1.14354
490 1.34475
495 1.04774
500 1.15346
505 1.02643
510 0.908725
515 1.19835
520 1.076
525 0.764597
530 0.760309
535 0.885234
540 0.692918
545 0.840889
550 0.733903
555 0.974335
560 0.916538
565 0.839175
570 0.761488
575 0.528547
580 0.764992
585 0.80841
590 0.679812
595 0.814326
600 0.112808
Ex : 318
200 0.76337
205 0.594519
210 0.447298
215 0.454456
220 0.610267
225 0.819783
230 0.553534
235 0.666058
240 0.478095
245 0.677541
250 0.719484
255 0.5358
260 0.505284
265 0.73265
270 0.620639
275 0.659094
280 0.766955
285 0.517239
290 0.613178
295 0.775154
300 0.527798
305 0.712004
310 1.50649
315 4.18681
320 3.12122
325 2.08578
330 2.20427
335 2.40267
340 2.60143
345 3.11145
350 3.64477
355 4.43935
360 5.11331
365 6.03611
370 7.04127
375 8.08045
380 8.74693
385 9.51496
390 9.88245
395 10.2951
400 10.805
405 11.5014
410 11.173
415 11.2094
420 10.6764
425 10.2795
430 10.1802
435 9.56135
440 8.85883
445 8.75203
450 8.60194
455 7.92796
460 7.53214
465 7.11078
470 6.28012
475 5.67564
480 5.34609
485 5.28507
490 4.55908
495 3.91069
500 3.538
505 3.29539
510 2.65914
515 2.27525
520 2.11922
525 2.03886
530 1.89166
535 1.69581
540 1.62212
545 1.47345
550 1.44735
555 1.24504
560 1.36988
565 0.913709
570 0.918475
575 0.904007
580 0.914407
585 0.904704
590 0.729165
595 0.890862
600 2.12303
Ex : 323
200 0.719398
205 0.478272
210 0.502645
215 0.56822
220 0.478952
225 0.553609
230 0.572793
235 0.49368
240 0.521005
245 0.579673
250 0.573234
255 0.653795
260 0.734747
265 0.632129
270 0.445798
275 0.729257
280 0.737462
285 0.488397
290 0.558484
295 0.588246
300 0.580812
305 0.647943
310 0.894992
315 28.5864
320 130.288
325 53.2263
330 9.93908
335 5.28063
340 6.32915
345 7.19142
350 10.4075
355 13.9336
360 16.4636
365 18.8575
370 22.0008
375 25.9911
380 28.989
385 32.1476
390 34.7871
395 36.9932
400 37.842
405 38.3476
410 38.9585
415 39.7335
420 37.3452
425 37.3659
430 35.6302
435 34.67
440 33.7354
445 31.4208
450 29.473
455 27.4952
460 26.0461
465 24.0032
470 22.4249
475 20.2812
480 18.8224
485 16.8266
490 15.3356
495 13.0205
500 11.9957
505 10.3838
510 9.28256
515 8.23241
520 7.04499
525 6.0053
530 5.54303
535 4.78307
540 4.45559
545 3.42923
550 3.44837
555 2.77556
560 2.34447
565 2.07707
570 1.90528
575 1.73172
580 1.25349
585 1.11341
590 1.14538
595 1.02559
600 2.24606
Ex : 328
200 0.643299
205 0.486041
210 0.544115
215 0.658658
220 0.541489
225 0.650407
230 0.607962
235 0.481096
240 0.471962
245 0.584212
250 0.553252
255 0.502589
260 0.556515
265 0.578864
270 0.558728
275 0.703518
280 0.685779
285 0.597742
290 0.689207
295 0.541905
300 0.674612
305 0.847589
310 0.883417
315 7.85061
320 302.492
325 706.663
330 206.784
335 29.9814
340 10.3888
345 9.46688
350 11.0621
355 14.6719
360 19.3186
365 21.6258
370 24.3096
375 26.2427
380 29.9844
385 33.7245
390 36.2327
395 38.2219
400 39.2537
405 41.1968
410 41.1538
415 41.1451
420 39.6617
425 38.9404
430 36.7503
435 35.5507
440 33.5478
445 32.2768
450 30.433
455 28.2386
460 26.445
465 24.2283
470 21.9696
475 20.1551
480 19.0886
485 17.9162
490 15.1493
495 13.0435
500 12.4872
505 10.749
510 9.28819
515 7.96931
520 6.9422
525 6.11841
530 6.03514
535 5.20213
540 4.37524
545 3.78283
550 3.40665
555 3.01978
560 2.91441
565 2.33225
570 2.05355
575 1.93416
580 1.47092
585 1.29827
590 1.25661
595 1.13953
600 0.476771
Ex : 333
200 0.528496
205 0.590103
210 0.576359
215 0.430217
220 0.569677
225 0.687224
230 0.663581
235 0.549491
240 0.628129
245 0.687252
250 0.749099
255 0.612541
260 0.71709
265 0.809584
270 0.624863
275 0.62851
280 0.556104
285 0.706243
290 0.698163
295 0.82849
300 0.789721
305 0.952776
310 1.11732
315 1.28964
320 42.4179
325 843.226
330 1428.06
335 359.136
340 48.0693
345 12.6322
350 8.48831
355 8.5987
360 11.7552
365 16.1612
370 16.8646
375 16.2045
380 18.0197
385 19.7267
390 21.7359
395 22.6588
400 23.2325
405 23.7926
410 23.1536
415 23.8678
420 22.6091
425 21.3064
430 21.4187
435 19.7291
440 18.7092
445 18.0369
450 16.581
455 15.7936
460 14.8788
465 13.669
470 12.7963
475 11.9843
480 10.1044
485 9.61659
490 8.69428
495 8.13124
500 7.31383
505 6.78408
510 5.51929
515 5.31788
520 4.67552
525 3.96768
530 3.52376
535 3.1707
540 2.89145
545 2.81355
550 2.48086
555 2.2984
560 2.01053
565 1.96101
570 1.72797
575 1.53233
580 1.26448
585 1.08927
590 1.12396
595 1.12539
600 0.396612
Ex : 338
200 0.501911
205 0.583931
210 0.568896
215 0.579477
220 0.49163
225 0.530137
230 0.468929
235 0.534265
240 0.499603
245 0.658519
250 0.606092
255 0.557023
260 0.640683
265 0.591497
270 0.537882
275 0.516404
280 0.632095
285 0.563652
290 0.609944
295 0.727328
300 0.840234
305 0.850181
310 1.02742
315 1.26995
320 1.85534
325 80.587
330 1273.84
335 1857.42
340 446.118
345 57.6261
350 12.7746
355 6.77586
360 5.61105
365 7.52244
370 11.5568
375 11.7621
380 11.011
385 11.1958
390 12.6416
395 13.2038
400 13.1299
405 12.9837
410 14.0788
415 13.7135
420 13.2224
425 12.4519
430 11.9172
435 11.3762
440 10.9772
445 10.3744
450 9.9633
455 8.6538
460 8.21403
465 7.75358
470 7.51165
475 6.52883
480 6.34236
485 5.86664
490 5.18642
495 4.98212
500 4.68661
505 3.96154
510 3.88929
515 3.46632
520 3.23953
525 2.89325
530 2.79032
535 2.44165
540 2.33835
545 2.14504
550 2.14682
555 1.95819
560 1.79949
565 1.55727
570 1.38132
575 1.26793
580 1.28435
585 1.26748
590 0.945952
595 1.02049
600 1.37678
Ex : 343
200 0.477255
205 0.505022
210 0.490905
215 0.465717
220 0.620189
225 0.60004
230 0.608082
235 0.550433
240 0.454411
245 0.584829
250 0.655244
255 0.613121
260 0.634519
265 0.576378
270 0.645204
275 0.560144
280 0.749942
285 0.632848
290 0.628748
295 0.651715
300 0.870617
305 0.911006
310 1.028
315 0.973679
320 1.35414
325 2.56174
330 93.6678
335 1450.69
340 2081.71
345 492.857
350 62.3493
355 12.3474
360 5.78731
365 4.40962
370 5.042
375 9.29483
380 9.96974
385 9.69617
390 9.56468
395 10.0834
400 9.45038
405 9.68378
410 10.2405
415 10.7245
420 10.526
425 9.64575
430 9.06246
435 8.93468
440 8.91089
445 8.3514
450 7.35768
455 7.01709
460 6.50322
465 6.3539
470 6.06651
475 5.97837
480 5.55711
485 5.18552
490 4.5606
495 4.18184
500 3.9949
505 3.68233
510 3.5448
515 3.0964
520 2.94552
525 2.62306
530 2.54293
535 2.43522
540 2.0612
545 1.91777
550 1.74602
555 1.60927
560 1.54436
565 1.3502
570 1.29376
575 1.23636
580 1.23259
585 1.12897
590 1.01108
595 1.06727
600 0.39981
Ex : 348
200 0.601745
205 0.402137
210 0.479393
215 0.5179
220 0.4752
225 0.5041
230 0.506025
235 0.535717
240 0.437339
245 0.435134
250 0.622107
255 0.501601
260 0.492366
265 0.556565
270 0.510828
275 0.515121
280 0.556287
285 0.580795
290 0.653029
295 0.554276
300 0.686153
305 0.75646
310 0.794565
315 0.880238
320 1.17041
325 1.83225
330 3.12614
335 96.406
340 1486.67
345 2191.12
350 552.053
355 68.7349
360 12.37
365 5.63246
370 3.87133
375 4.18901
380 8.03448
385 11.5372
390 11.8774
395 11.3342
400 9.85341
405 10.1297
410 11.0951
415 11.1068
420 10.9713
425 9.70664
430 9.55708
435 9.50694
440 8.68418
445 8.45278
450 7.95556
455 7.25268
460 7.19569
465 6.71666
470 6.44678
475 5.5892
480 5.44979
485 4.90423
490 4.59367
495 4.21441
500 3.85073
505 3.38878
510 3.4434
515 3.01813
520 2.7832
525 2.62973
530 2.42717
535 2.26404
540 2.08016
545 1.91803
550 1.69286
555 1.71784
560 1.58406
565 1.38736
570 1.43087
575 1.18879
580 1.09264
585 1.1385
590 0.91499
595 1.03092
600 1.18287
Ex : 353
200 0.456694
205 0.426245
210 0.48694
215 0.372628
220 0.442564
225 0.513942
230 0.474426
235 0.472375
240 0.541958
245 0.522794
250 0.657336
255 0.499501
260 0.43693
265 0.510848
270 0.572047
275 0.563352
280 0.604902
285 0.489489
290 0.55383
295 0.615725
300 0.564843
305 0.660916
310 0.773123
315 0.77403
320 0.941232
325 1.30314
330 1.79257
335 3.24517
340 99.4835
345 1545.55
350 2202.69
355 535.853
360 66.5119
365 12.0835
370 5.29096
375 3.41508
380 4.30014
385 8.28459
390 14.1711
395 13.7694
400 11.6641
405 10.4645
410 11.687
415 12.7849
420 11.4154
425 10.7137
430 9.64148
435 9.25214
440 9.07932
445 9.34851
450 8.30933
455 7.22397
460 6.59064
465 6.83337
470 6.19501
475 5.6367
480 5.16664
485 4.85828
490 4.54112
495 4.62281
500 4.15044
505 3.72415
510 3.48382
515 3.09956
520 2.74708
525 2.62505
530 2.43154
535 2.29875
540 2.0972
545 1.87813
550 1.70344
555 1.6377
560 1.47666
565 1.35203
570 1.24077
575 1.22974
580 1.04729
585 0.971419
590 0.863346
595 0.938585
600 1.4115
Ex : 358
200 0.387282
205 0.36598
210 0.34159
215 0.409685
220 0.414036
225 0.523983
230 0.487575
235 0.370591
240 0.375608
245 0.459547
250 0.380676
255 0.441931
260 0.571047
265 0.567307
270 0.443308
275 0.477825
280 0.618322
285 0.44078
290 0.490366
295 0.609226
300 0.526339
305 0.653168
310 0.598975
315 0.6982
320 0.745802
325 0.881815
330 1.35514
335 1.80948
340 3.1681
345 95.3449
350 1486.66
355 2231.29
360 550.033
365 68.2809
370 12.1313
375 5.61371
380 4.69924
385 6.11195
390 9.44097
395 13.3595
400 12.5371
405 11.18
410 10.9924
415 11.5989
420 11.0136
425 10.0447
430 9.14886
435 8.8626
440 8.91025
445 8.33464
450 7.77829
455 7.20246
460 7.08903
465 6.75113
470 6.45724
475 6.08086
480 5.41196
485 5.20482
490 4.78403
495 4.57245
500 3.894
505 3.73017
510 3.31762
515 3.24009
520 2.91333
525 2.69683
530 2.41424
535 2.07538
540 2.02209
545 1.70477
550 1.75453
555 1.55117
560 1.68395
565 1.32151
570 1.21101
575 1.29733
580 1.06752
585 0.869564
590 0.889885
595 0.810755
600 1.41475
Ex : 363
200 0.433958
205 0.431629
210 0.356593
215 0.415452
220 0.357786
225 0.473886
230 0.491642
235 0.4555
240 0.429122
245 0.466571
250 0.441311
255 0.366721
260 0.431281
265 0.535515
270 0.424774
275 0.447253
280 0.385749
285 0.56969
290 0.528638
295 0.467315
300 0.501329
305 0.526621
310 0.584397
315 0.622989
320 0.605251
325 0.884682
330 1.02512
335 1.50617
340 1.95603
345 3.31632
350 87.5837
355 1447.72
360 2226.37
365 572.654
370 70.775
375 12.4097
380 6.55803
385 7.20922
390 8.89028
395 10.1159
400 12.7836
405 13.9693
410 13.7842
415 13.1973
420 11.6215
425 10.4037
430 9.95514
435 10.0316
440 9.6032
445 9.2827
450 8.33259
455 7.79184
460 7.16005
465 7.11743
470 6.62296
475 6.06783
480 5.76751
485 5.09265
490 4.84919
495 4.55547
500 4.36214
505 3.88032
510 3.62978
515 3.22347
520 2.78959
525 2.58847
530 2.49793
535 2.09897
540 2.01718
545 1.98364
550 1.79034
555 1.6739
560 1.4395
565 1.27389
570 1.26265
575 1.09058
580 0.968415
585 0.973918
590 0.808378
595 0.736297
600 1.23415
Ex : 368
200 0.552527
205 0.417165
210 0.355324
215 0.396877
220 0.367794
225 0.41763
230 0.386772
235 0.392172
240 0.430063
245 0.368535
250 0.442131
255 0.415474
260 0.39996
265 0.42783
270 0.408774
275 0.444217
280 0.381522
285 0.484505
290 0.422948
295 0.446338
300 0.530063
305 0.50735
310 0.486771
315 0.626553
320 0.648576
325 0.704962
330 0.914165
335 1.19702
340 1.38508
345 1.96445
350 3.18426
355 72.4962
360 1412.19
365 2290.18
370 604.551
375 75.002
380 13.7943
385 9.20392
390 11.2719
395 11.596
400 11.1919
405 14.0888
410 17.1624
415 16.7288
420 15.3291
425 12.907
430 11.6567
435 10.7992
440 10.9979
445 10.3093
450 9.2462
455 8.56792
460 7.91737
465 7.62165
470 7.087
475 6.62093
480 6.01139
485 5.57047
490 5.41009
495 4.86764
500 4.37283
505 4.11983
510 3.78036
515 3.38619
520 3.05566
525 2.66467
530 2.43585
535 2.30538
540 2.07183
545 1.96854
550 1.8301
555 1.81984
560 1.43657
565 1.29199
570 1.22641
575 1.1786
580 1.0394
585 0.890702
590 0.82949
595 0.725668
600 0.288016
Ex : 373
200 0.338993
205 0.309582
210 0.290157
215 0.330253
220 0.293489
225 0.403222
230 0.406055
235 0.381356
240 0.376167
245 0.395281
250 0.39921
255 0.420882
260 0.333473
265 0.328759
270 0.360994
275 0.425358
280 0.44509
285 0.390966
290 0.42424
295 0.484875
300 0.572695
305 0.449295
310 0.527859
315 0.568961
320 0.567866
325 0.652698
330 0.830605
335 0.877755
340 1.07691
345 1.36029
350 2.02108
355 2.99607
360 86.5708
365 1447.24
370 2274.97
375 595.765
380 74.173
385 15.0571
390 12.3018
395 12.8525
400 11.2491
405 10.3863
410 14.0015
415 18.0737
420 17.1844
425 14.01
430 11.3713
435 10.8323
440 10.7622
445 10.8718
450 9.36272
455 8.17105
460 7.63756
465 7.39878
470 7.32941
475 6.66997
480 6.0123
485 5.63488
490 5.07434
495 4.71715
500 4.56276
505 4.27142
510 3.70248
515 3.41759
520 2.9755
525 2.89901
530 2.63731
535 2.23663
540 2.2276
545 2.01589
550 1.79352
555 1.63663
560 1.45716
565 1.27369
570 1.23071
575 1.11575
580 0.967049
585 0.72227
590 0.744496
595 0.74811
600 0.704338
Ex : 378
200 0.378245
205 0.358555
210 0.40748
215 0.348695
220 0.388146
225 0.34685
230 0.334813
235 0.370762
240 0.374128
245 0.382178
250 0.314768
255 0.348796
260 0.329047
265 0.380913
270 0.360834
275 0.394314
280 0.374589
285 0.337625
290 0.384477
295 0.41249
300 0.436565
305 0.471982
310 0.506836
315 0.481543
320 0.561779
325 0.532849
330 0.672013
335 0.725545
340 0.789034
345 1.06307
350 1.36286
355 1.89004
360 3.1752
365 79.576
370 1450.33
375 2334.66
380 613.449
385 77.6844
390 17.1415
395 11.2783
400 9.58794
405 8.68837
410 9.58589
415 12.1074
420 14.2017
425 12.663
430 10.5367
435 9.55888
440 9.07556
445 9.10998
450 8.16303
455 7.10838
460 6.88908
465 6.52573
470 6.52026
475 6.1641
480 5.73696
485 5.48483
490 4.80953
495 4.44804
500 4.23621
505 3.66196
510 3.58461
515 3.35027
520 2.8707
525 2.77585
530 2.44757
535 2.27265
540 2.08484
545 1.76935
550 1.70861
555 1.6051
560 1.40314
565 1.21639
570 1.13659
575 0.88545
580 0.932346
585 0.870093
590 0.696055
595 0.623799
600 0.895948
Ex : 383
200 0.373438
205 0.319558
210 0.348513
215 0.373754
220 0.395914
225 0.33378
230 0.318589
235 0.315898
240 0.303065
245 0.37869
250 0.29547
255 0.348104
260 0.350314
265 0.367643
270 0.392903
275 0.417274
280 0.419262
285 0.308986
290 0.389112
295 0.375633
300 0.378743
305 0.385162
310 0.491863
315 0.406725
320 0.470939
325 0.515858
330 0.566803
335 0.660071
340 0.751704
345 0.903658
350 0.949409
355 1.32374
360 2.00525
365 3.23807
370 75.6944
375 1440.81
380 2440.29
385 649.067
390 84.5252
395 18.5683
400 10.4094
405 9.56343
410 10.0497
415 11.0434
420 10.8151
425 12.0045
430 11.761
435 10.6753
440 9.68532
445 9.05937
450 7.98667
455 7.38433
460 7.04473
465 6.75305
470 6.30655
475 6.2207
480 5.81805
485 5.20622
490 5.1049
495 4.64855
500 4.34512
505 4.02975
510 3.55181
515 3.37242
520 3.00415
525 2.81825
530 2.43373
535 2.15821
540 2.05134
545 1.80512
550 1.65386
555 1.44676
560 1.3566
565 1.32356
570 1.11404
575 0.964075
580 0.910382
585 0.703099
590 0.680749
595 0.625851
600 0.181995
Ex : 388
200 0.293482
205 0.275742
210 0.32115
215 0.325717
220 0.336104
225 0.429612
230 0.29483
235 0.30856
240 0.349739
245 0.309747
250 0.29815
255 0.302349
260 0.405318
265 0.357694
270 0.320144
275 0.319307
280 0.350746
285 0.349378
290 0.322847
295 0.398474
300 0.409583
305 0.409598
310 0.427528
315 0.409823
320 0.44546
325 0.488782
330 0.469963
335 0.663287
340 0.758288
345 0.782266
350 1.03728
355 1.0945
360 1.41585
365 1.97316
370 3.33154
375 81.4328
380 1494.46
385 2445.63
390 648.832
395 85.8514
400 19.3807
405 12.0204
410 12.0614
415 13.1436
420 12.3011
425 10.9337
430 12.0102
435 13.0842
440 11.7349
445 10.4912
450 9.41596
455 8.20903
460 7.48967
465 6.89552
470 6.68018
475 6.6051
480 5.78419
485 5.33587
490 4.7572
495 4.56076
500 4.08504
505 3.99959
510 3.51044
515 3.2148
520 2.9486
525 2.71799
530 2.53275
535 2.13246
540 2.09476
545 1.8511
550 1.7307
555 1.64648
560 1.38796
565 1.28308
570 1.12075
575 1.02298
580 0.853716
585 0.731982
590 0.671227
595 0.697135
600 0.177423
Ex : 393
200 0.266283
205 0.26487
210 0.29788
215 0.392559
220 0.300135
225 0.277353
230 0.268229
235 0.279231
240 0.285041
245 0.305861
250 0.338937
255 0.345262
260 0.307962
265 0.392193
270 0.389421
275 0.344428
280 0.384565
285 0.32812
290 0.335791
295 0.319521
300 0.358499
305 0.366042
310 0.404481
315 0.316334
320 0.412661
325 0.422883
330 0.467875
335 0.635395
340 0.655207
345 0.668495
350 0.697695
355 0.848086
360 1.06076
365 1.34785
370 1.88756
375 3.1728
380 72.3468
385 1482.73
390 2494.67
395 671.935
400 89.0135
405 19.458
410 12.7653
415 13.9692
420 13.1519
425 11.3902
430 9.55189
435 10.5744
440 12.9529
445 11.5374
450 9.49721
455 8.15667
460 7.1205
465 6.55767
470 6.28941
475 6.01706
480 5.5887
485 5.27518
490 4.77795
495 4.41279
500 4.28083
505 3.87197
510 3.42824
515 3.15178
520 3.06371
525 2.63297
530 2.34769
535 2.13062
540 2.05391
545 1.79956
550 1.68068
555 1.50311
560 1.34626
565 1.29787
570 1.01719
575 0.999829
580 0.782483
585 0.760891
590 0.563849
595 0.61223
600 0.622761
Ex : 398
200 0.340386
205 0.347399
210 0.244399
215 0.292631
220 0.297129
225 0.275288
230 0.280311
235 0.283278
240 0.317893
245 0.297871
250 0.266775
255 0.339482
260 0.279322
265 0.311911
270 0.284188
275 0.374084
280 0.274301
285 0.309498
290 0.391273
295 0.361903
300 0.367217
305 0.333204
310 0.408786
315 0.381411
320 0.385785
325 0.409785
330 0.485185
335 0.544125
340 0.603329
345 0.553458
350 0.694856
355 0.707165
360 0.893131
365 1.01943
370 1.34636
375 2.03062
380 3.15252
385 75.1652
390 1513.73
395 2567.34
400 679.78
405 85.9834
410 17.1184
415 10.3692
420 9.30437
425 7.73246
430 6.32621
435 6.35791
440 7.50771
445 9.3532
450 8.67043
455 7.08747
460 6.14393
465 5.2419
470 5.04179
475 4.93437
480 4.68663
485 4.62626
490 4.11971
495 3.99987
500 3.55273
505 3.28882
510 3.18273
515 3.08555
520 2.69047
525 2.46105
530 2.2752
535 2.05798
540 1.9332
545 1.74125
550 1.55418
555 1.31904
560 1.32636
565 1.15401
570 1.05474
575 0.95873
580 0.773055
585 0.686495
590 0.62859
595 0.512365
600 0.184906
Ex : 403
200 0.293563
205 0.294829
210 0.338819
215 0.34029
220 0.29237
225 0.359258
230 0.295272
235 0.3066
240 0.350201
245 0.238055
250 0.289063
255 0.358132
260 0.330832
265 0.324492
270 0.334202
275 0.289035
280 0.354436
285 0.29138
290 0.373917
295 0.351086
300 0.381846
305 0.418783
310 0.423067
315 0.402855
320 0.40912
325 0.46256
330 0.476231
335 0.530789
340 0.515801
345 0.55407
350 0.661206
355 0.637583
360 0.711606
365 0.832867
370 0.987044
375 1.28356
380 1.9179
385 3.42669
390 84.4862
395 1556.81
400 2547.52
405 677.95
410 83.7278
415 14.8954
420 6.74678
425 5.61862
430 4.41616
435 4.13249
440 4.32234
445 4.93829
450 6.78628
455 6.94449
460 5.58304
465 5.07975
470 4.59654
475 4.18105
480 4.1859
485 3.90185
490 3.73175
495 3.28418
500 3.30507
505 3.15565
510 2.91404
515 2.79857
520 2.60891
525 2.32256
530 2.11882
535 1.98689
540 1.95708
545 1.69364
550 1.59873
555 1.46857
560 1.25531
565 1.07826
570 1.02888
575 0.916443
580 0.807963
585 0.690291
590 0.58004
595 0.560748
600 0.593114
Ex : 408
200 0.296573
205 0.234679
210 0.273376
215 0.294281
220 0.31313
225 0.326273
230 0.286418
235 0.310664
240 0.323097
245 0.359102
250 0.297583
255 0.311903
260 0.320202
265 0.308668
270 0.355319
275 0.303268
280 0.288439
285 0.322935
290 0.371849
295 0.27439
300 0.380908
305 0.378595
310 0.314241
315 0.321453
320 0.390155
325 0.383745
330 0.490135
335 0.447595
340 0.482397
345 0.626392
350 0.612718
355 0.577854
360 0.715006
365 0.787919
370 0.89638
375 1.02179
380 1.5119
385 2.15665
390 3.46412
395 82.4132
400 1597.62
405 2593.48
410 667.449
415 82.2547
420 14.0003
425 5.41301
430 4.53223
435 3.9899
440 3.80945
445 3.94035
450 3.97853
455 5.62595
460 6.8336
465 5.43276
470 4.83837
475 4.28843
480 3.86785
485 3.57466
490 3.40531
495 3.41133
500 3.10052
505 3.0349
510 2.85432
515 2.69046
520 2.34429
525 2.21716
530 2.14425
535 1.93514
540 1.83027
545 1.68514
550 1.54076
555 1.46211
560 1.29134
565 1.23093
570 0.971927
575 0.820641
580 0.752938
585 0.741244
590 0.634667
595 0.509836
600 0.38735
Ex : 413
200 0.258331
205 0.343719
210 0.325099
215 0.252779
220 0.2814
225 0.264758
230 0.294637
235 0.264438
240 0.266601
245 0.399129
250 0.358111
255 0.285455
260 0.329668
265 0.295311
270 0.348814
275 0.335656
280 0.347802
285 0.324115
290 0.299363
295 0.36847
300 0.367928
305 0.285729
310 0.318743
315 0.373819
320 0.320901
325 0.407876
330 0.413587
335 0.400843
340 0.483875
345 0.59553
350 0.491429
355 0.532584
360 0.504549
365 0.644357
370 0.772852
375 0.989785
380 1.13432
385 1.46172
390 2.10246
395 3.25935
400 92.4336
405 1646.58
410 2610.96
415 655.753
420 80.216
425 13.0901
430 5.07789
435 4.16109
440 3.78262
445 3.64689
450 3.52759
455 3.41212
460 4.40859
465 6.47194
470 5.6119
475 4.61997
480 4.23847
485 3.47381
490 3.28515
495 3.1203
500 3.05832
505 3.00846
510 2.67667
515 2.54462
520 2.19303
525 2.21476
530 2.08978
535 1.79676
540 1.6106
545 1.60057
550 1.45926
555 1.2538
560 1.2219
565 1.10335
570 0.969423
575 0.898601
580 0.740006
585 0.681271
590 0.628169
595 0.550108
600 0.449948
Ex : 418
200 0.247517
205 0.299315
210 0.29493
215 0.245483
220 0.286385
225 0.317192
230 0.313361
235 0.313791
240 0.28847
245 0.281231
250 0.336321
255 0.315206
260 0.351683
265 0.298598
270 0.301888
275 0.247319
280 0.343671
285 0.300854
290 0.301113
295 0.324895
300 0.373599
305 0.361118
310 0.324623
315 0.410972
320 0.430432
325 0.354304
330 0.448751
335 0.490742
340 0.419513
345 0.513149
350 0.512597
355 0.535556
360 0.567875
365 0.603343
370 0.786738
375 0.834806
380 0.980923
385 1.05738
390 1.45081
395 2.04561
400 3.41261
405 87.9291
410 1636.31
415 2645.94
420 691.378
425 84.4404
430 13.3164
435 4.52748
440 3.67449
445 3.45946
450 2.99983
455 2.84021
460 2.82441
465 3.48019
470 5.36054
475 5.31402
480 4.22816
485 3.8988
490 3.29032
495 2.92415
500 2.59919
505 2.68918
510 2.44117
515 2.26493
520 2.15662
525 2.05818
530 1.91279
535 1.72113
540 1.55781
545 1.4188
550 1.42488
555 1.26012
560 1.23781
565 1.01621
570 0.956477
575 0.892683
580 0.759395
585 0.634701
590 0.657517
595 0.554658
600 0.50039
Ex : 423
200 0.281037
205 0.271569
210 0.321687
215 0.278918
220 0.250585
225 0.273843
230 0.307137
235 0.273911
240 0.309496
245 0.315168
250 0.341663
255 0.260986
260 0.315319
265 0.280297
270 0.298618
275 0.353822
280 0.299534
285 0.279265
290 0.291767
295 0.336779
300 0.307993
305 0.286537
310 0.323397
315 0.360104
320 0.359307
325 0.375985
330 0.364579
335 0.489876
340 0.445169
345 0.420897
350 0.48742
355 0.492308
360 0.550606
365 0.662282
370 0.657682
375 0.629992
380 0.711138
385 0.894537
390 1.12965
395 1.51978
400 1.94922
405 3.43969
410 92.8252
415 1709.39
420 2650.11
425 662.037
430 80.5591
435 12.4717
440 4.39421
445 3.42784
450 2.8005
455 2.46883
460 2.4213
465 2.56777
470 2.86216
475 4.81792
480 5.4054
485 4.08846
490 3.42794
495 3.02134
500 2.79464
505 2.63327
510 2.31069
515 2.27903
520 1.98314
525 1.89827
530 1.79896
535 1.72304
540 1.54692
545 1.40613
550 1.31555
555 1.19976
560 1.17579
565 1.05749
570 0.937181
575 0.829988
580 0.731757
585 0.612612
590 0.557875
595 0.556176
600 0.979903
Ex : 428
200 0.364256
205 0.361883
210 0.266359
215 0.229131
220 0.351783
225 0.301392
230 0.348103
235 0.275143
240 0.289712
245 0.325963
250 0.318624
255 0.313906
260 0.297379
265 0.289255
270 0.329668
275 0.353976
280 0.31603
285 0.321256
290 0.333887
295 0.283817
300 0.336994
305 0.321051
310 0.367923
315 0.390048
320 0.392164
325 0.416005
330 0.372865
335 0.372736
340 0.517818
345 0.460058
350 0.509035
355 0.489791
360 0.596931
365 0.620482
370 0.597926
375 0.620181
380 0.674447
385 0.921297
390 1.03229
395 1.18504
400 1.4673
405 2.13735
410 3.66231
415 100.836
420 1719.61
425 2669.99
430 679.562
435 82.2729
440 12.7207
445 4.07749
450 3.19224
455 2.67583
460 2.4399
465 2.51618
470 2.3765
475 2.48659
480 3.72812
485 4.99886
490 4.13739
495 3.20455
500 2.86359
505 2.43445
510 2.26255
515 1.99491
520 1.90644
525 1.87356
530 1.7222
535 1.74061
540 1.53924
545 1.30831
550 1.39667
555 1.23726
560 1.13827
565 0.989514
570 0.925703
575 0.856858
580 0.718512
585 0.707203
590 0.589368
595 0.489232
600 0.20533
Ex : 433
200 0.321953
205 0.338549
210 0.353371
215 0.281284
220 0.300229
225 0.281525
230 0.29922
235 0.282607
240 0.353587
245 0.308401
250 0.28752
255 0.320758
260 0.382883
265 0.371169
270 0.262886
275 0.295704
280 0.342478
285 0.322085
290 0.346773
295 0.364207
300 0.334362
305 0.353832
310 0.346967
315 0.321375
320 0.438237
325 0.364025
330 0.380817
335 0.477019
340 0.398455
345 0.519178
350 0.440558
355 0.476136
360 0.53421
365 0.583106
370 0.62731
375 0.611789
380 0.66928
385 0.762594
390 0.934152
395 0.924956
400 1.26658
405 1.61967
410 2.27056
415 3.68004
420 110.353
425 1839.76
430 2718.74
435 662.486
440 80.2825
445 12.6291
450 4.10342
455 3.11645
460 2.9132
465 2.3716
470 2.28164
475 2.23589
480 2.37266
485 3.16396
490 4.88022
495 4.16074
500 3.30173
505 2.91022
510 2.38281
515 2.1075
520 1.87737
525 1.9474
530 1.88835
535 1.61899
540 1.51036
545 1.43179
550 1.39182
555 1.26943
560 1.18061
565 1.03234
570 0.868272
575 0.832517
580 0.754975
585 0.712765
590 0.599954
595 0.502538
600 0.412874
Ex : 438
200 0.297704
205 0.300178
210 0.273503
215 0.359115
220 0.32665
225 0.334799
230 0.369955
235 0.394088
240 0.312225
245 0.32265
250 0.317452
255 0.345617
260 0.284319
265 0.349535
270 0.31883
275 0.317885
280 0.298159
285 0.34469
290 0.321573
295 0.350446
300 0.299911
305 0.337309
310 0.335412
315 0.333209
320 0.354553
325 0.425634
330 0.389673
335 0.39065
340 0.459304
345 0.452421
350 0.397347
355 0.450215
360 0.5956
365 0.563371
370 0.48389
375 0.587936
380 0.584241
385 0.713461
390 0.748796
395 0.939101
400 1.05291
405 1.16442
410 1.59853
415 2.19487
420 3.574
425 106.168
430 1818.42
435 2863.53
440 704.866
445 85.4189
450 13.1755
455 4.32306
460 3.05325
465 2.98276
470 2.4789
475 2.1949
480 2.14617
485 2.15304
490 2.52343
495 4.27127
500 4.26593
505 3.12668
510 2.69002
515 2.39163
520 2.12943
525 1.89045
530 1.76533
535 1.61555
540 1.61671
545 1.39445
550 1.42272
555 1.25058
560 1.11717
565 0.942958
570 0.948471
575 0.879294
580 0.764893
585 0.65053
590 0.629563
595 0.471736
600 0.294008
Ex : 443
200 0.261833
205 0.314613
210 0.311176
215 0.311259
220 0.291288
225 0.305953
230 0.291078
235 0.294105
240 0.307691
245 0.320206
250 0.388688
255 0.293417
260 0.352059
265 0.32313
270 0.363748
275 0.301709
280 0.382537
285 0.308627
290 0.301164
295 0.310253
300 0.295143
305 0.28742
310 0.35833
315 0.36661
320 0.381983
325 0.418253
330 0.402881
335 0.412323
340 0.437904
345 0.525811
350 0.484992
355 0.502357
360 0.514819
365 0.518566
370 0.576121
375 0.649669
380 0.586227
385 0.545488
390 0.697043
395 0.77529
400 0.859845
405 0.998103
410 1.31805
415 1.57346
420 2.28066
425 3.70019
430 116.238
435 1927.89
440 2893.57
445 703.191
450 85.2711
455 13.3699
460 4.19548
465 3.30128
470 2.85806
475 2.36588
480 2.10366
485 1.97845
490 2.08828
495 2.32532
500 3.48597
505 4.24521
510 3.24364
515 2.4579
520 2.4496
525 2.05022
530 1.77057
535 1.64421
540 1.50318
545 1.47085
550 1.37881
555 1.24899
560 1.09022
565 1.05053
570 1.04418
575 0.885642
580 0.726577
585 0.73101
590 0.576415
595 0.546405
600 0.499211
Ex : 448
200 0.310003
205 0.375101
210 0.330191
215 0.422111
220 0.36259
225 0.310868
230 0.322061
235 0.34023
240 0.420352
245 0.374167
250 0.369988
255 0.382014
260 0.278611
265 0.338261
270 0.408534
275 0.338727
280 0.371473
285 0.352287
290 0.321908
295 0.335076
300 0.310981
305 0.352553
310 0.275098
315 0.353693
320 0.391688
325 0.44343
330 0.407741
335 0.424105
340 0.401974
345 0.461516
350 0.482917
355 0.445216
360 0.444934
365 0.500595
370 0.569003
375 0.555738
380 0.584418
385 0.65272
390 0.730006
395 0.701284
400 0.768814
405 0.927579
410 1.02654
415 1.35057
420 1.51902
425 2.20111
430 3.68591
435 120.911
440 2044.74
445 3039.27
450 741.45
455 89.5969
460 14.3845
465 4.58647
470 3.23656
475 2.95881
480 2.64731
485 2.11928
490 2.1582
495 2.00815
500 2.14239
505 3.03926
510 4.00784
515 3.54104
520 2.43861
525 2.26115
530 2.04624
535 1.7413
540 1.5723
545 1.49699
550 1.34208
555 1.23887
560 1.14137
565 1.17653
570 0.970099
575 0.872978
580 0.787728
585 0.661237
590 0.621401
595 0.502277
600 0.465476
Ex : 453
200 0.269251
205 0.323542
210 0.298701
215 0.26224
220 0.374359
225 0.315163
230 0.33859
235 0.312387
240 0.431263
245 0.366575
250 0.316503
255 0.329481
260 0.325336
265 0.357899
270 0.381248
275 0.398619
280 0.39898
285 0.318811
290 0.390185
295 0.341429
300 0.362356
305 0.309378
310 0.334694
315 0.358861
320 0.372682
325 0.372498
330 0.433975
335 0.396452
340 0.431762
345 0.434858
350 0.384327
355 0.429894
360 0.439039
365 0.442745
370 0.521766
375 0.604953
380 0.522109
385 0.612012
390 0.701973
395 0.643144
400 0.775404
405 0.805226
410 0.814127
415 1.09996
420 1.3897
425 1.52144
430 2.18061
435 3.65566
440 125.837
445 2200.14
450 3146.7
455 722.792
460 87.8837
465 14.0263
470 4.34973
475 2.78862
480 2.70698
485 2.39319
490 2.06194
495 1.87226
500 1.78043
505 1.90837
510 2.43359
515 3.69068
520 3.55693
525 2.46432
530 2.20358
535 2.0338
540 1.64537
545 1.40566
550 1.3648
555 1.31982
560 1.12526
565 1.1153
570 1.04989
575 0.852874
580 0.823233
585 0.789122
590 0.707971
595 0.653712
600 0.283752
Ex : 458
200 0.33835
205 0.308709
210 0.282641
215 0.316956
220 0.26016
225 0.372204
230 0.331756
235 0.338052
240 0.399196
245 0.44848
250 0.395567
255 0.431328
260 0.35534
265 0.330153
270 0.307435
275 0.36861
280 0.350281
285 0.300906
290 0.400156
295 0.336259
300 0.38341
305 0.326459
310 0.329716
315 0.296468
320 0.356569
325 0.300857
330 0.426764
335 0.395306
340 0.427366
345 0.468916
350 0.401296
355 0.410054
360 0.453307
365 0.502164
370 0.491138
375 0.597502
380 0.500721
385 0.585105
390 0.526965
395 0.672564
400 0.666586
405 0.741627
410 0.857055
415 0.918226
420 1.07311
425 1.2292
430 1.54676
435 2.38628
440 3.72865
445 139.635
450 2253.59
455 3310
460 782.311
465 94.8622
470 14.6662
475 4.41948
480 2.9112
485 2.58052
490 2.5462
495 2.15183
500 1.8784
505 1.92234
510 1.86326
515 2.00803
520 3.16468
525 3.75765
530 2.87905
535 2.14741
540 2.15117
545 1.86231
550 1.54084
555 1.36657
560 1.25048
565 1.14038
570 1.09482
575 0.875522
580 0.79632
585 0.750736
590 0.622824
595 0.618054
600 0.185924
Ex : 463
200 0.262212
205 0.325707
210 0.355792
215 0.256695
220 0.310631
225 0.344173
230 0.286667
235 0.404799
240 0.325066
245 0.335868
250 0.319453
255 0.301841
260 0.313015
265 0.381986
270 0.299505
275 0.363198
280 0.346428
285 0.412817
290 0.338303
295 0.319056
300 0.356596
305 0.299761
310 0.320495
315 0.403091
320 0.359602
325 0.405348
330 0.352807
335 0.466664
340 0.406051
345 0.459982
350 0.472646
355 0.461435
360 0.500129
365 0.486227
370 0.534619
375 0.521014
380 0.52237
385 0.473014
390 0.572698
395 0.609279
400 0.66579
405 0.680521
410 0.652968
415 0.76111
420 0.875772
425 1.03762
430 1.24815
435 1.70315
440 2.39167
445 3.80697
450 134.908
455 2347.29
460 3536.45
465 833.267
470 100.446
475 14.9965
480 4.23523
485 2.72655
490 2.53391
495 2.28762
500 2.15129
505 1.81837
510 1.79044
515 1.76143
520 1.87017
525 2.51957
530 3.46778
535 3.05129
540 2.21999
545 1.99838
550 1.94755
555 1.48897
560 1.27952
565 1.14878
570 1.0837
575 0.897108
580 0.816774
585 0.751684
590 0.64903
595 0.549859
600 0.711897
Ex : 468
200 0.303628
205 0.317323
210 0.344628
215 0.344141
220 0.27518
225 0.311856
230 0.303554
235 0.310059
240 0.33567
245 0.345458
250 0.339356
255 0.303422
260 0.332887
265 0.328987
270 0.296126
275 0.27971
280 0.30577
285 0.333576
290 0.331708
295 0.324158
300 0.328071
305 0.359789
310 0.343508
315 0.365035
320 0.385382
325 0.335001
330 0.346524
335 0.421935
340 0.333769
345 0.350604
350 0.379842
355 0.424669
360 0.463623
365 0.416034
370 0.433216
375 0.439722
380 0.546019
385 0.579641
390 0.545873
395 0.585189
400 0.575668
405 0.726515
410 0.779663
415 0.779174
420 0.851076
425 0.9088
430 0.98491
435 1.1949
440 1.57515
445 2.33844
450 3.75755
455 148.959
460 2386.33
465 3700.2
470 865.395
475 103.267
480 15.0509
485 4.44868
490 2.57595
495 2.35168
500 2.22149
505 1.93808
510 1.67103
515 1.7301
520 1.72168
525 1.77444
530 2.15386
535 3.22616
540 3.24596
545 2.23154
550 1.83397
555 1.77093
560 1.32766
565 1.11482
570 0.99416
575 1.00389
580 0.872536
585 0.845748
590 0.683896
595 0.605946
600 0.59818
Ex : 473
200 0.33688
205 0.338976
210 0.367499
215 0.363357
220 0.333957
225 0.338308
230 0.356522
235 0.326991
240 0.327449
245 0.33209
250 0.326421
255 0.342335
260 0.433828
265 0.388184
270 0.329714
275 0.304183
280 0.32248
285 0.327496
290 0.372465
295 0.374911
300 0.350422
305 0.386602
310 0.349244
315 0.33951
320 0.381603
325 0.388924
330 0.374897
335 0.343917
340 0.436839
345 0.466063
350 0.420896
355 0.560516
360 0.419013
365 0.497581
370 0.479082
375 0.480685
380 0.554758
385 0.599095
390 0.581628
395 0.625646
400 0.631972
405 0.597227
410 0.633601
415 0.650722
420 0.742926
425 0.744972
430 0.944313
435 1.0193
440 1.25144
445 1.72223
450 2.64337
455 4.23711
460 170.99
465 2612.83
470 3610.81
475 814.21
480 97.7099
485 14.3912
490 4.22105
495 2.59009
500 2.32108
505 2.18396
510 1.96515
515 1.87586
520 1.87312
525 1.86163
530 1.85319
535 1.87237
540 2.68855
545 3.0684
550 2.40604
555 1.81806
560 1.67757
565 1.4484
570 1.09654
575 1.03396
580 1.0432
585 0.753091
590 0.708788
595 0.586432
600 0.597395
Ex : 478
200 0.405213
205 0.356473
210 0.274891
215 0.370624
220 0.331384
225 0.357205
230 0.400231
235 0.398419
240 0.404007
245 0.390022
250 0.384421
255 0.39036
260 0.368133
265 0.339767
270 0.437626
275 0.354804
280 0.399331
285 0.408985
290 0.443372
295 0.416336
300 0.371545
305 0.388367
310 0.42072
315 0.427789
320 0.426694
325 0.413159
330 0.560713
335 0.413997
340 0.424165
345 0.445152
350 0.524572
355 0.511644
360 0.534142
365 0.428729
370 0.502144
375 0.528359
380 0.553916
385 0.553635
390 0.610162
395 0.676892
400 0.628248
405 0.702771
410 0.569806
415 0.750502
420 0.814262
425 0.791912
430 0.872545
435 0.980478
440 1.13059
445 1.46784
450 1.93774
455 2.81828
460 4.95138
465 186.883
470 2691.22
475 3682.22
480 868.332
485 104.245
490 15.5556
495 4.38413
500 2.81595
505 2.46006
510 2.24321
515 1.93856
520 1.9095
525 1.91077
530 2.03216
535 1.86488
540 1.77543
545 2.37924
550 3.00251
555 2.63113
560 1.80167
565 1.53952
570 1.41575
575 1.18011
580 0.961245
585 0.809219
590 0.696041
595 0.694285
600 0.626842
Ex : 483
200 0.322658
205 0.368241
210 0.327278
215 0.359478
220 0.308362
225 0.290922
230 0.368449
235 0.334458
240 0.345982
245 0.350256
250 0.351379
255 0.45729
260 0.412513
265 0.387475
270 0.414044
275 0.409372
280 0.453654
285 0.392359
290 0.40676
295 0.353305
300 0.473908
305 0.453568
310 0.456455
315 0.412794
320 0.489693
325 0.466865
330 0.462121
335 0.512172
340 0.48336
345 0.515797
350 0.477373
355 0.507036
360 0.478322
365 0.405248
370 0.543611
375 0.487726
380 0.570682
385 0.579183
390 0.643874
395 0.625236
400 0.631796
405 0.660006
410 0.670587
415 0.766598
420 0.737873
425 0.742367
430 0.788761
435 0.910346
440 0.931444
445 1.13824
450 1.50478
455 2.0562
460 3.03226
465 5.18961
470 149.42
475 2653.09
480 3945.2
485 919.783
490 110.12
495 16.093
500 4.31658
505 2.52824
510 2.34686
515 2.2233
520 2.06648
525 1.88683
530 1.86167
535 1.73348
540 1.82442
545 1.69409
550 1.79321
555 2.68969
560 2.543
565 1.86087
570 1.61438
575 1.44683
580 1.0766
585 0.946271
590 0.899045
595 0.727107
600 0.82601
Ex : 488
200 0.36827
205 0.375135
210 0.398235
215 0.424485
220 0.366975
225 0.416374
230 0.493485
235 0.388472
240 0.412704
245 0.394709
250 0.361387
255 0.377768
260 0.403535
265 0.456644
270 0.467378
275 0.463502
280 0.393889
285 0.491651
290 0.437478
295 0.382484
300 0.367573
305 0.384768
310 0.434326
315 0.360817
320 0.384784
325 0.360343
330 0.480411
335 0.518241
340 0.522866
345 0.516192
350 0.508649
355 0.518206
360 0.530779
365 0.532917
370 0.559675
375 0.549741
380 0.502423
385 0.488459
390 0.56574
395 0.674378
400 0.709172
405 0.722417
410 0.72832
415 0.776878
420 0.909397
425 0.755855
430 0.926579
435 0.938667
440 1.00917
445 1.22473
450 1.37363
455 1.74429
460 2.37401
465 3.39717
470 5.53508
475 180.343
480 2848.95
485 3896.06
490 894.86
495 107.445
500 15.6585
505 4.46026
510 2.90508
515 2.55904
520 2.3844
525 2.28401
530 2.15451
535 1.73483
540 1.94044
545 1.55793
550 1.70973
555 1.79671
560 2.25619
565 2.51615
570 1.93541
575 1.4231
580 1.13601
585 1.01497
590 0.876297
595 0.729233
600 0.826252
Ex : 493
200 0.388778
205 0.425894
210 0.386886
215 0.420999
220 0.442322
225 0.414302
230 0.428368
235 0.337
240 0.36913
245 0.395676
250 0.411051
255 0.39249
260 0.452849
265 0.378123
270 0.372302
275 0.346875
280 0.378957
285 0.354947
290 0.355223
295 0.414149
300 0.405558
305 0.491703
310 0.437947
315 0.472093
320 0.483083
325 0.409319
330 0.41753
335 0.460878
340 0.431087
345 0.571359
350 0.457533
355 0.586652
360 0.493273
365 0.44537
370 0.503111
375 0.572188
380 0.628607
385 0.572848
390 0.519896
395 0.631016
400 0.67809
405 0.686392
410 0.742359
415 0.766095
420 0.863
425 0.770405
430 0.831044
435 0.980182
440 0.908895
445 0.988782
450 1.21398
455 1.38396
460 1.73588
465 2.36809
470 3.30354
475 4.62358
480 167.096
485 2813.22
490 4086.02
495 917.317
500 109.465
505 15.6012
510 4.53512
515 2.69452
520 2.37622
525 2.23502
530 2.26284
535 2.04815
540 1.81196
545 1.71304
550 1.50542
555 1.58438
560 1.42206
565 1.67278
570 2.27178
575 2.06229
580 1.34993
585 1.01478
590 1.06934
595 0.89794
600 1.03762
Ex : 498
200 0.331825
205 0.418087
210 0.377683
215 0.457858
220 0.430167
225 0.420451
230 0.40166
235 0.416009
240 0.416701
245 0.450051
250 0.423152
255 0.42786
260 0.480843
265 0.372081
270 0.424094
275 0.445842
280 0.529524
285 0.429769
290 0.476764
295 0.381213
300 0.456268
305 0.416352
310 0.376425
315 0.400797
320 0.408096
325 0.514453
330 0.489569
335 0.459312
340 0.630379
345 0.513373
350 0.60366
355 0.56641
360 0.542733
365 0.519208
370 0.648785
375 0.566427
380 0.543066
385 0.584584
390 0.624987
395 0.666749
400 0.702098
405 0.646277
410 0.773134
415 0.770081
420 0.730829
425 0.752353
430 0.892477
435 0.784009
440 1.01299
445 0.963626
450 1.12327
455 1.14258
460 1.35491
465 2.00577
470 2.58711
475 3.43143
480 4.9642
485 196.953
490 2951.92
495 3946.54
500 890.636
505 106.801
510 15.7328
515 4.58262
520 2.95127
525 2.60437
530 2.49474
535 2.24855
540 2.01557
545 1.8612
550 1.66077
555 1.61795
560 1.44299
565 1.51177
570 1.53308
575 1.89299
580 1.84141
585 1.29971
590 0.971028
595 0.937044
600 1.78409
Ex : 503
200 0.451715
205 0.482838
210 0.465932
215 0.42978
220 0.459599
225 0.555519
230 0.443952
235 0.508459
240 0.437061
245 0.46435
250 0.462509
255 0.428827
260 0.430619
265 0.470842
270 0.488964
275 0.44113
280 0.488433
285 0.447923
290 0.449387
295 0.450934
300 0.491323
305 0.44415
310 0.499229
315 0.470265
320 0.52842
325 0.53908
330 0.536694
335 0.536816
340 0.516311
345 0.473064
350 0.581848
355 0.55768
360 0.628849
365 0.606755
370 0.587135
375 0.51414
380 0.563909
385 0.625117
390 0.683131
395 0.707969
400 0.700606
405 0.683487
410 0.776159
415 0.75048
420 0.792163
425 0.827648
430 0.825036
435 0.874137
440 0.924139
445 0.98678
450 1.07918
455 1.18383
460 1.39345
465 1.81404
470 1.87039
475 2.39785
480 3.31971
485 5.20797
490 180.267
495 2923.77
500 4044.1
505 911.773
510 109.307
515 16.1642
520 4.93893
525 2.93268
530 2.68891
535 2.44147
540 2.13457
545 1.9417
550 1.73714
555 1.59014
560 1.68839
565 1.37287
570 1.27656
575 1.34523
580 1.47015
585 1.59617
590 1.34545
595 1.03038
600 0.433457
Ex : 508
200 0.430836
205 0.499861
210 0.465086
215 0.427617
220 0.472557
225 0.463
230 0.54
235 0.489827
240 0.446416
245 0.544271
250 0.515904
255 0.539784
260 0.496159
265 0.515457
270 0.453034
275 0.44364
280 0.630435
285 0.456139
290 0.478482
295 0.491167
300 0.528396
305 0.503388
310 0.444059
315 0.494934
320 0.497451
325 0.541494
330 0.561382
335 0.555768
340 0.52113
345 0.478224
350 0.601202
355 0.614301
360 0.519415
365 0.622716
370 0.587997
375 0.681756
380 0.592202
385 0.683327
390 0.575418
395 0.563723
400 0.676112
405 0.642968
410 0.673203
415 0.863188
420 0.720187
425 0.871724
430 0.781933
435 0.855092
440 0.828507
445 0.964028
450 1.0373
455 1.15049
460 1.22086
465 1.46963
470 1.74028
475 1.82321
480 2.49536
485 3.35634
490 4.89375
495 193.883
500 2925.33
505 4018.71
510 948.859
515 113.547
520 16.4806
525 4.76952
530 2.96906
535 2.46156
540 2.40497
545 2.16011
550 1.9493
555 1.88067
560 1.65544
565 1.38947
570 1.35723
575 1.28326
580 1.10247
585 1.15831
590 1.22429
595 1.24676
600 1.32783
Ex : 513
200 0.342209
205 0.474594
210 0.448208
215 0.478416
220 0.46551
225 0.427444
230 0.378629
235 0.366347
240 0.43955
245 0.490974
250 0.514933
255 0.496583
260 0.462328
265 0.481523
270 0.39599
275 0.458553
280 0.419509
285 0.426989
290 0.587109
295 0.404131
300 0.513588
305 0.464813
310 0.491942
315 0.490271
320 0.586267
325 0.532686
330 0.544903
335 0.486667
340 0.578651
345 0.572907
350 0.520125
355 0.584895
360 0.554424
365 0.46796
370 0.518375
375 0.66337
380 0.679991
385 0.577681
390 0.60335
395 0.62339
400 0.70515
405 0.644543
410 0.697617
415 0.704122
420 0.707534
425 0.788601
430 0.795852
435 0.8562
440 0.949173
445 0.830029
450 0.889325
455 1.14985
460 1.22314
465 1.36944
470 1.43159
475 1.7178
480 1.93221
485 2.49761
490 3.71182
495 4.92853
500 176.015
505 2866.62
510 4073.93
515 966.717
520 115.758
525 16.8544
530 4.6756
535 2.86632
540 2.47499
545 2.31249
550 2.13641
555 1.95144
560 1.7465
565 1.47234
570 1.30773
575 1.296
580 1.1154
585 0.926095
590 1.01824
595 1.12167
600 1.97203
Ex : 518
200 0.402769
205 0.461645
210 0.528498
215 0.447642
220 0.491234
225 0.460748
230 0.467669
235 0.569425
240 0.50972
245 0.619998
250 0.523945
255 0.422733
260 0.537251
265 0.43344
270 0.414948
275 0.550949
280 0.472028
285 0.552752
290 0.573257
295 0.435742
300 0.481278
305 0.474129
310 0.469148
315 0.511845
320 0.509504
325 0.49379
330 0.606769
335 0.609609
340 0.561256
345 0.529637
350 0.589516
355 0.592982
360 0.701003
365 0.623191
370 0.650666
375 0.606977
380 0.669671
385 0.579255
390 0.748612
395 0.66576
400 0.705348
405 0.79543
410 0.745835
415 0.721057
420 0.727278
425 0.693304
430 0.80993
435 0.757401
440 0.670582
445 0.883972
450 0.838028
455 0.959344
460 1.06488
465 1.26875
470 1.29529
475 1.37461
480 1.65324
485 1.99049
490 2.47386
495 3.20261
500 5.1415
505 179.561
510 2774.32
515 4005.82
520 964.747
525 115.499
530 16.6517
535 4.76493
540 2.93843
545 2.24773
550 2.01852
555 2.07218
560 1.67928
565 1.50958
570 1.39967
575 1.14483
580 1.15486
585 1.09008
590 0.926632
595 0.760889
600 0.345062
Ex : 523
200 0.52809
205 0.477927
210 0.53208
215 0.49972
220 0.404656
225 0.425069
230 0.429488
235 0.549841
240 0.509073
245 0.507278
250 0.46824
255 0.449117
260 0.517393
265 0.444346
270 0.498376
275 0.502368
280 0.534398
285 0.518948
290 0.443629
295 0.432674
300 0.50092
305 0.429753
310 0.53204
315 0.51864
320 0.519667
325 0.508666
330 0.576154
335 0.569975
340 0.574295
345 0.581662
350 0.538082
355 0.605713
360 0.546115
365 0.550185
370 0.689884
375 0.590304
380 0.707773
385 0.620765
390 0.622056
395 0.656134
400 0.671808
405 0.670248
410 0.726269
415 0.673029
420 0.807899
425 0.73722
430 0.70263
435 0.762161
440 0.757646
445 0.757639
450 0.778439
455 0.971027
460 1.23961
465 1.0879
470 1.30313
475 1.24733
480 1.41542
485 1.54413
490 1.99299
495 2.41749
500 3.22154
505 5.27405
510 162.449
515 2655.5
520 3951.84
525 995.858
530 118.95
535 16.9839
540 4.72802
545 2.60368
550 2.13264
555 1.80065
560 1.80917
565 1.47713
570 1.46395
575 1.35746
580 1.02278
585 0.997019
590 0.859979
595 0.824595
600 0.829196
Ex : 528
200 0.503156
205 0.432059
210 0.490565
215 0.486709
220 0.479095
225 0.545755
230 0.547746
235 0.495955
240 0.49472
245 0.434056
250 0.475249
255 0.496537
260 0.482056
265 0.453671
270 0.449331
275 0.508271
280 0.483415
285 0.535569
290 0.467456
295 0.530327
300 0.513745
305 0.490085
310 0.437985
315 0.454241
320 0.638572
325 0.481918
330 0.506932
335 0.60707
340 0.592277
345 0.50801
350 0.583883
355 0.607707
360 0.567031
365 0.589575
370 0.642657
375 0.65604
380 0.577121
385 0.669392
390 0.687035
395 0.715123
400 0.623551
405 0.753659
410 0.777978
415 0.8444
420 0.747623
425 0.824779
430 0.794382
435 0.77018
440 0.965872
445 0.917404
450 0.80184
455 1.00361
460 1.09098
465 1.01505
470 1.06379
475 1.10335
480 1.17212
485 1.26691
490 1.44161
495 1.67075
500 2.35521
505 3.0293
510 4.96027
515 150.982
520 2589.46
525 3894.89
530 959.505
535 115.064
540 16.5116
545 4.40283
550 2.77737
555 1.98072
560 1.75884
565 1.56644
570 1.53904
575 1.31572
580 1.13558
585 1.07412
590 0.96827
595 0.862059
600 0.812937
Ex : 533
200 0.471003
205 0.534372
210 0.562576
215 0.500264
220 0.501677
225 0.505122
230 0.462478
235 0.595366
240 0.524724
245 0.505487
250 0.509077
255 0.554548
260 0.398528
265 0.475963
270 0.50349
275 0.503137
280 0.547044
285 0.582523
290 0.477767
295 0.545592
300 0.568263
305 0.429032
310 0.523929
315 0.469824
320 0.579522
325 0.558728
330 0.535159
335 0.483799
340 0.533025
345 0.512776
350 0.490414
355 0.651943
360 0.638236
365 0.628266
370 0.655461
375 0.64193
380 0.618891
385 0.787369
390 0.666233
395 0.666292
400 0.723588
405 0.745874
410 0.864771
415 0.739462
420 0.771435
425 0.686178
430 0.738405
435 0.696919
440 0.690318
445 0.792381
450 0.816993
455 0.89574
460 1.02684
465 1.01289
470 0.970858
475 1.06392
480 1.21866
485 1.39029
490 1.39848
495 1.55131
500 1.89482
505 2.41511
510 3.30329
515 4.62897
520 142.741
525 2464.53
530 3806.06
535 967.009
540 115.757
545 16.5329
550 4.32651
555 2.59601
560 1.669
565 1.57806
570 1.40089
575 1.48587
580 1.08574
585 1.0767
590 1.03655
595 0.964495
600 0.700558
Ex : 538
200 0.528487
205 0.593345
210 0.499708
215 0.446016
220 0.459956
225 0.443998
230 0.606794
235 0.502586
240 0.556942
245 0.455215
250 0.417131
255 0.54329
260 0.56905
265 0.538839
270 0.539955
275 0.470481
280 0.573863
285 0.488617
290 0.485091
295 0.562263
300 0.608819
305 0.579383
310 0.437723
315 0.467348
320 0.555406
325 0.559437
330 0.597961
335 0.715776
340 0.586706
345 0.587831
350 0.616009
355 0.607386
360 0.64664
365 0.661407
370 0.670087
375 0.539399
380 0.65022
385 0.588993
390 0.709385
395 0.733486
400 0.696926
405 0.676796
410 0.782365
415 0.714977
420 0.727892
425 0.687967
430 0.713228
435 0.817351
440 0.749934
445 0.689058
450 0.889876
455 0.902193
460 0.812706
465 1.16456
470 1.01583
475 1.1603
480 1.14074
485 1.17797
490 1.18153
495 1.21529
500 1.65903
505 1.96975
510 2.44418
515 3.03128
520 4.73742
525 126.854
530 2373.77
535 3764.91
540 996.695
545 119.212
550 16.8046
555 4.21023
560 2.22493
565 1.66408
570 1.46978
575 1.27144
580 1.14571
585 1.12171
590 1.03004
595 0.854131
600 0.226006
Ex : 543
200 0.600519
205 0.543845
210 0.688095
215 0.675134
220 0.559205
225 0.708124
230 0.558844
235 0.618129
240 0.543516
245 0.663814
250 0.465815
255 0.531036
260 0.609827
265 0.640468
270 0.503435
275 0.615236
280 0.510986
285 0.540467
290 0.552937
295 0.492667
300 0.619659
305 0.573715
310 0.526405
315 0.452795
320 0.543616
325 0.557169
330 0.599872
335 0.465784
340 0.522969
345 0.681556
350 0.530653
355 0.674219
360 0.696039
365 0.638238
370 0.558208
375 0.488941
380 0.635155
385 0.607453
390 0.673787
395 0.835245
400 0.647329
405 0.594649
410 0.698041
415 0.74383
420 0.61027
425 0.692793
430 0.861873
435 0.768573
440 0.901416
445 0.889843
450 0.815347
455 0.969668
460 1.04096
465 1.04762
470 0.821617
475 0.978927
480 1.02198
485 1.06415
490 1.22821
495 1.20293
500 1.35497
505 1.4553
510 1.81709
515 2.31249
520 3.05977
525 4.53205
530 114.484
535 2253.43
540 3731.14
545 1011.4
550 120.914
555 16.8906
560 4.22494
565 2.06953
570 1.65738
575 1.31545
580 1.02675
585 1.08609
590 1.07804
595 0.950796
600 0.791535
Ex : 548
200 0.569238
205 0.566631
210 0.647397
215 0.645261
220 0.533973
225 0.553571
230 0.528663
235 0.466696
240 0.517726
245 0.511074
250 0.544905
255 0.48204
260 0.499947
265 0.567042
270 0.598951
275 0.570118
280 0.606572
285 0.473848
290 0.609731
295 0.564796
300 0.534583
305 0.549591
310 0.570877
315 0.469931
320 0.529939
325 0.653269
330 0.592103
335 0.630031
340 0.559995
345 0.652057
350 0.667436
355 0.585913
360 0.597307
365 0.805966
370 0.696294
375 0.785471
380 0.662125
385 0.764247
390 0.846212
395 0.727461
400 0.647044
405 0.580109
410 0.628143
415 0.665538
420 0.67696
425 0.683637
430 0.788447
435 0.796301
440 0.702259
445 0.906512
450 1.0206
455 0.847318
460 1.01691
465 0.97407
470 0.947639
475 1.00907
480 1.07879
485 0.952756
490 1.07628
495 1.17056
500 1.18696
505 1.35322
510 1.48986
515 1.85091
520 2.39819
525 2.95091
530 4.38677
535 126.101
540 2247.56
545 3578.87
550 980.913
555 117.198
560 16.2556
565 4.08145
570 2.18308
575 1.46954
580 1.22599
585 1.09139
590 1.06296
595 1.05018
600 0.688014
Ex : 553
200 0.578094
205 0.523723
210 0.657692
215 0.5141
220 0.542585
225 0.436939
230 0.639425
235 0.490448
240 0.578317
245 0.615344
250 0.495631
255 0.525544
260 0.613682
265 0.517526
270 0.662674
275 0.582359
280 0.640669
285 0.585123
290 0.570187
295 0.57211
300 0.489479
305 0.458595
310 0.704717
315 0.465311
320 0.659848
325 0.643619
330 0.665978
335 0.620227
340 0.645473
345 0.749762
350 0.554407
355 0.601161
360 0.61929
365 0.787155
370 0.542466
375 0.536585
380 0.531844
385 0.68561
390 0.624806
395 0.61928
400 0.648841
405 0.567114
410 0.752292
415 0.696538
420 0.764472
425 0.75069
430 0.824688
435 0.864416
440 0.807468
445 0.781019
450 0.849126
455 0.981327
460 0.973141
465 1.10794
470 1.03004
475 0.976646
480 1.1251
485 0.927375
490 1.10609
495 1.02687
500 1.09745
505 1.12303
510 1.4819
515 1.48004
520 1.74541
525 2.3248
530 2.97735
535 4.41179
540 107.295
545 2105.66
550 3500.5
555 977.595
560 116.777
565 15.8755
570 3.74236
575 2.00534
580 1.29269
585 1.1256
590 0.941033
595 0.999434
600 0.653407
Ex : 558
200 0.84333
205 0.59768
210 0.501103
215 0.527744
220 0.59692
225 0.530821
230 0.570635
235 0.600919
240 0.623201
245 0.527739
250 0.544693
255 0.637189
260 0.597478
265 0.546368
270 0.437569
275 0.607548
280 0.494656
285 0.654996
290 0.598279
295 0.548991
300 0.66945
305 0.591584
310 0.6283
315 0.569671
320 0.498329
325 0.539937
330 0.570739
335 0.650166
340 0.613464
345 0.608826
350 0.745767
355 0.645276
360 0.640175
365 0.671903
370 0.798128
375 0.712013
380 0.640136
385 0.638555
390 0.766008
395 0.692009
400 0.698723
405 0.668559
410 0.728572
415 0.836522
420 0.736644
425 0.77341
430 0.787774
435 0.831822
440 0.827253
445 0.862342
450 0.72392
455 0.696806
460 0.94857
465 0.927583
470 0.926726
475 0.881485
480 0.923598
485 0.855282
490 1.11532
495 0.954062
500 0.990119
505 1.25775
510 1.14804
515 1.38257
520 1.51656
525 1.65223
530 1.96728
535 3.02446
540 3.95852
545 99.4991
550 1990.43
555 3398.85
560 962.748
565 115.13
570 15.7492
575 3.61667
580 1.78521
585 1.3274
590 1.16571
595 0.995603
600 0.969959
Ex : 563
200 0.683322
205 0.599298
210 0.727335
215 0.751799
220 0.544196
225 0.496398
230 0.534176
235 0.69609
240 0.621373
245 0.726022
250 0.52704
255 0.637011
260 0.584821
265 0.551154
270 0.584801
275 0.619461
280 0.54292
285 0.530062
290 0.639473
295 0.542452
300 0.546063
305 0.69205
310 0.616794
315 0.661187
320 0.696009
325 0.634649
330 0.530005
335 0.68191
340 0.733311
345 0.688479
350 0.608372
355 0.608144
360 0.676749
365 0.759303
370 0.737851
375 0.67501
380 0.719041
385 0.68065
390 0.758277
395 0.787362
400 0.682443
405 0.815241
410 0.752316
415 0.757053
420 0.722083
425 0.772056
430 0.808931
435 0.65734
440 1.00452
445 0.807265
450 0.729074
455 0.792016
460 0.847231
465 1.0918
470 1.04836
475 1.08394
480 0.892893
485 0.858756
490 1.04749
495 1.13254
500 1.09394
505 1.04235
510 1.11799
515 1.03012
520 1.38147
525 1.4895
530 1.83373
535 2.21404
540 2.61784
545 4.10895
550 97.647
555 1930.93
560 3258.62
565 934.206
570 111.899
575 15.0462
580 3.47413
585 1.82796
590 1.24094
595 1.07137
600 1.31769
Ex : 568
200 0.535418
205 0.583306
210 0.688491
215 0.592593
220 0.666784
225 0.569578
230 0.736903
235 0.593872
240 0.556981
245 0.60337
250 0.520169
255 0.591941
260 0.696435
265 0.684662
270 0.61933
275 0.528937
280 0.509139
285 0.743574
290 0.679686
295 0.537684
300 0.510066
305 0.615258
310 0.656737
315 0.615476
320 0.721403
325 0.68815
330 0.5777
335 0.681444
340 0.687734
345 0.714193
350 0.753333
355 0.608379
360 0.718731
365 0.716531
370 0.717094
375 0.643144
380 0.797457
385 0.686778
390 0.743711
395 0.741101
400 0.679286
405 0.693234
410 0.63818
415 0.69769
420 0.697111
425 0.841464
430 0.758362
435 0.734733
440 0.85706
445 0.869026
450 0.827125
455 0.890747
460 0.771167
465 0.882216
470 0.927376
475 0.815671
480 1.00533
485 0.932772
490 1.09888
495 0.901684
500 0.999041
505 0.894924
510 1.18837
515 1.2265
520 1.21049
525 1.25728
530 1.42837
535 1.59701
540 2.08008
545 2.63558
550 3.76533
555 71.599
560 1725.58
565 3142.79
570 942.76
575 113.704
580 15.0264
585 3.3646
590 1.77963
595 1.32363
600 1.43
Ex : 573
200 0.70201
205 0.576439
210 0.48059
215 0.561136
220 0.516107
225 0.488307
230 0.611394
235 0.608807
240 0.562925
245 0.621487
250 0.6213
255 0.58442
260 0.684391
265 0.723082
270 0.613139
275 0.527454
280 0.577154
285 0.743391
290 0.619202
295 0.682847
300 0.627335
305 0.564568
310 0.521406
315 0.595966
320 0.501407
325 0.546762
330 0.733756
335 0.540406
340 0.930976
345 0.720817
350 0.678974
355 0.667655
360 0.55
365 0.68659
370 0.764575
375 0.72534
380 0.756769
385 0.745355
390 0.671667
395 0.667753
400 0.698772
405 0.719304
410 0.70249
415 0.864555
420 0.804901
425 0.653706
430 0.821599
435 0.866202
440 0.813831
445 0.9701
450 0.984804
455 0.753956
460 0.803532
465 0.797191
470 0.984077
475 1.07531
480 0.862682
485 0.836285
490 0.957649
495 0.961584
500 0.955071
505 1.00952
510 1.1354
515 1.04164
520 1.11003
525 1.21063
530 1.19697
535 1.44839
540 1.82073
545 2.00212
550 2.39194
555 3.52202
560 63.3729
565 1506
570 2904.9
575 896.992
580 107.669
585 14.3274
590 2.97056
595 1.42088
600 1.19021
Ex : 578
200 0.515737
205 0.528828
210 0.596012
215 0.57164
220 0.577981
225 0.564909
230 0.674691
235 0.606352
240 0.519369
245 0.675821
250 0.761453
255 0.500778
260 0.681866
265 0.842393
270 0.672468
275 0.436957
280 0.624546
285 0.671949
290 0.518455
295 0.557397
300 0.690991
305 0.499182
310 0.55933
315 0.662737
320 0.654636
325 0.591608
330 0.574622
335 0.617038
340 0.67166
345 0.617843
350 0.563302
355 0.646707
360 0.613523
365 0.56162
370 0.643168
375 0.620617
380 0.566058
385 0.72959
390 0.750348
395 0.77478
400 0.720347
405 0.709975
410 0.767164
415 0.784494
420 0.777563
425 0.739996
430 0.718946
435 0.646476
440 0.823824
445 0.734549
450 0.845573
455 0.763036
460 0.846457
465 0.762696
470 0.900783
475 0.686508
480 0.759348
485 0.772016
490 0.877397
495 0.8782
500 0.979399
505 1.20565
510 0.927639
515 0.813146
520 0.906787
525 1.13287
530 1.29491
535 1.18907
540 1.31702
545 1.58892
550 1.90989
555 2.63994
560 3.29258
565 55.2533
570 1343.87
575 2542.64
580 767.277
585 91.8605
590 12.2058
595 2.74464
600 1.42854
Ex : 583
200 0.506294
205 0.539729
210 0.402985
215 0.658316
220 0.564411
225 0.481207
230 0.630204
235 0.600777
240 0.643277
245 0.598678
250 0.608347
255 0.507496
260 0.525323
265 0.56663
270 0.598635
275 0.484317
280 0.510089
285 0.577146
290 0.582272
295 0.550154
300 0.648245
305 0.728802
310 0.589172
315 0.603445
320 0.607262
325 0.598907
330 0.623428
335 0.544321
340 0.719106
345 0.697883
350 0.682779
355 0.608725
360 0.715933
365 0.786551
370 0.689737
375 0.656298
380 0.573772
385 0.66318
390 0.649458
395 0.791293
400 0.7489
405 0.769692
410 0.690404
415 0.786768
420 0.65213
425 0.644604
430 0.710551
435 0.591501
440 0.648012
445 0.675017
450 0.880722
455 0.923185
460 0.926439
465 0.789101
470 0.738966
475 0.813519
480 0.969059
485 0.820687
490 0.817632
495 0.903924
500 0.824077
505 0.838964
510 0.765483
515 0.931972
520 0.919525
525 0.92561
530 1.0498
535 1.00435
540 1.2156
545 1.31846
550 1.46159
555 1.79884
560 2.26563
565 3.12851
570 45.9331
575 1195.75
580 2230.49
585 641.75
590 76.9287
595 10.3016
600 2.3951
Ex : 588
200 0.532815
205 0.53154
210 0.47059
215 0.61943
220 0.619059
225 0.449812
230 0.466643
235 0.492114
240 0.581133
245 0.718253
250 0.660876
255 0.586098
260 0.494436
265 0.483994
270 0.481572
275 0.450764
280 0.516873
285 0.577302
290 0.487916
295 0.539714
300 0.609525
305 0.549022
310 0.452515
315 0.697091
320 0.687248
325 0.550383
330 0.542331
335 0.540381
340 0.499131
345 0.660317
350 0.642985
355 0.66562
360 0.651726
365 0.603271
370 0.711783
375 0.707005
380 0.693875
385 0.751424
390 0.595999
395 0.742742
400 0.733117
405 0.801283
410 0.662878
415 0.776429
420 0.831721
425 0.755648
430 0.875882
435 0.624748
440 0.718724
445 0.983584
450 0.790759
455 0.800279
460 0.734276
465 0.75666
470 0.908351
475 0.947152
480 1.0135
485 0.872913
490 0.864019
495 1.07676
500 0.803728
505 0.837076
510 0.91603
515 0.918429
520 1.00721
525 0.841252
530 1.00338
535 0.989334
540 0.968175
545 1.07439
550 1.2095
555 1.37247
560 1.77293
565 2.12446
570 2.79478
575 41.496
580 1002.64
585 1891.72
590 560.398
595 67.2275
600 8.82003
Ex : 593
200 0.777468
205 0.576073
210 0.537342
215 0.564478
220 0.580327
225 0.501179
230 0.425325
235 0.620926
240 0.453378
245 0.524555
250 0.527041
255 0.47292
260 0.557705
265 0.619027
270 0.530495
275 0.618177
280 0.535514
285 0.546572
290 0.607268
295 0.540943
300 0.514391
305 0.563615
310 0.642027
315 0.697863
320 0.609368
325 0.606632
330 0.77515
335 0.681141
340 0.661109
345 0.698076
350 0.627364
355 0.710647
360 0.637566
365 0.683384
370 0.617249
375 0.65655
380 0.628146
385 0.783863
390 0.656556
395 0.643302
400 0.676101
405 0.694745
410 0.687179
415 0.695338
420 0.620952
425 0.823589
430 0.833747
435 0.774556
440 0.678056
445 0.667548
450 0.871207
455 0.983923
460 0.905243
465 0.755501
470 0.779346
475 0.762066
480 0.841562
485 0.974156
490 0.801683
495 0.804892
500 0.804297
505 0.783569
510 0.858634
515 0.875496
520 0.783393
525 0.967134
530 0.849781
535 1.12779
540 1.134
545 1.19646
550 1.09613
555 1.47708
560 1.42464
565 1.76067
570 2.32238
575 2.98124
580 35.6053
585 883.556
590 1633.62
595 479.426
600 66.1809
Ex : 598
200 0.777545
205 0.559132
210 0.854747
215 0.533641
220 0.657063
225 0.614281
230 0.538025
235 0.584874
240 0.61691
245 0.611107
250 0.598357
255 0.595083
260 0.640847
265 0.57719
270 0.720824
275 0.667588
280 0.490337
285 0.682394
290 0.641789
295 0.628265
300 0.532558
305 0.528415
310 0.523166
315 0.685752
320 0.738316
325 0.708651
330 0.778664
335 0.725814
340 0.552894
345 0.754242
350 0.612177
355 0.69066
360 0.651446
365 0.850333
370 0.714263
375 0.7422
380 0.685919
385 0.677003
390 0.606514
395 0.728842
400 0.615634
405 0.824014
410 0.727869
415 0.749717
420 0.744785
425 0.861858
430 0.713108
435 0.715486
440 0.984162
445 0.814163
450 0.850409
455 0.875864
460 0.776465
465 0.935287
470 0.637856
475 0.858577
480 1.04816
485 1.00941
490 0.870615
495 1.01684
500 0.957792
505 0.935484
510 1.0936
515 0.846049
520 0.82734
525 0.966273
530 0.725508
535 0.855377
540 0.910242
545 0.887582
550 1.14664
555 1.07578
560 1.27551
565 1.23088
570 1.45225
575 1.64282
580 2.25326
585 34.4929
590 797.122
595 1434.8
600 862.826
Ex : 603
200 0.845484
205 0.602699
210 0.537166
215 0.571419
220 0.555588
225 0.600713
230 0.524823
235 0.522877
240 0.608308
245 0.608975
250 0.571189
255 0.482541
260 0.666382
265 0.601503
270 0.582122
275 0.599405
280 0.656999
285 0.49804
290 0.658714
295 0.502278
300 0.606729
305 0.634676
310 0.62051
315 0.568171
320 0.507758
325 0.854136
330 0.629745
335 0.67576
340 0.490837
345 0.760219
350 0.835508
355 0.597963
360 0.745051
365 0.591909
370 0.608009
375 0.606816
380 0.740628
385 0.722886
390 0.737799
395 0.840697
400 0.781548
405 0.680131
410 0.785811
415 0.729632
420 0.713045
425 0.82323
430 0.749295
435 0.72846
440 0.726407
445 0.691854
450 0.783865
455 0.653006
460 0.724765
465 0.877104
470 0.681553
475 0.851484
480 0.768049
485 0.874615
490 0.915645
495 0.832429
500 0.881685
505 0.929084
510 0.777444
515 0.80592
520 0.826749
525 0.928006
530 0.917891
535 0.854167
540 1.03819
545 0.94477
550 1.05878
555 1.09995
560 1.05996
565 1.08317
570 1.26247
575 1.33568
580 1.40558
585 1.8292
590 30.5887
595 674.188
600 1383.79
