File format V 1.0
sam. 10. déc. 01:59:08 2016
Operator : 
Comments : 

=============================================
SpectroFluorometer parameters
Mode : 3D measurement
Data : Fluorescence
Phospho. : Ordinary
Spectrum : Fluorescence

Scan speed : 2400 nm/mn
Response : 100 ms
PM Voltage : 700 V
Shutter : On

Lambda Ex. Start : 203
Lambda Ex. End : 603
Lambda Ex. Step : 5
Ex. Slit : 5 nm

Lambda Em. Start : 200
Lambda Em. End : 600
Lambda Em. Step : 5
Em. Slit : 5 nm

Repetition : 1
Decal lambda em : 10
=============================================
DATA
Ex : 203
200 14.865
205 15.3515
210 10.2269
215 12.8628
220 11.6041
225 15.4842
230 14.067
235 15.7952
240 19.4542
245 11.1377
250 12.8946
255 12.8599
260 11.092
265 12.7527
270 13.8529
275 11.4965
280 12.314
285 15.7379
290 14.2837
295 10.3852
300 10.5194
305 13.0308
310 11.6824
315 12.3007
320 15.8835
325 11.5773
330 11.0552
335 13.9485
340 14.1593
345 16.65
350 13.9711
355 17.186
360 12.3509
365 14.2924
370 14.528
375 15.9547
380 18.9811
385 17.4299
390 19.6972
395 12.8253
400 14.0957
405 15.8319
410 15.1094
415 12.3751
420 14.2532
425 19.5244
430 18.4616
435 13.9895
440 14.1862
445 14.0775
450 14.4705
455 21.2302
460 15.963
465 16.8769
470 15.0332
475 20.7001
480 18.5261
485 13.0295
490 12.3387
495 14.2024
500 13.0029
505 11.8135
510 14.0663
515 13.8155
520 15.2596
525 12.8603
530 11.4805
535 14.5125
540 18.1537
545 17.1759
550 15.2582
555 14.3741
560 11.384
565 12.7528
570 13.7129
575 15.6173
580 13.5882
585 12.4563
590 13.9404
595 18.0078
600 2.93543
Ex : 208
200 13.3068
205 14.2507
210 16.6399
215 14.3841
220 15.2051
225 11.5932
230 12.8831
235 12.6859
240 15.2519
245 12.4443
250 13.3881
255 12.4915
260 15.8169
265 15.7435
270 14.0002
275 21.7318
280 10.4283
285 11.8514
290 9.62152
295 11.5078
300 11.0527
305 14.579
310 13.4413
315 18.8858
320 17.545
325 16.8618
330 19.3873
335 12.5845
340 16.3042
345 15.6863
350 15.5687
355 12.9243
360 15.6706
365 15.4418
370 15.6975
375 20.3429
380 20.4067
385 16.0995
390 14.2121
395 16.1533
400 16.1007
405 15.711
410 16.9857
415 19.0539
420 17.6977
425 19.6894
430 16.8683
435 14.043
440 17.2147
445 17.0996
450 13.01
455 13.8718
460 16.7963
465 15.2718
470 18.076
475 19.1587
480 18.63
485 13.9711
490 13.2966
495 17.743
500 14.938
505 14.9929
510 16.5162
515 15.0735
520 16.2028
525 13.1379
530 15.2159
535 14.3733
540 13.7812
545 15.5419
550 18.7049
555 15.1713
560 15.6841
565 17.532
570 15.5231
575 15.3049
580 13.3424
585 17.0191
590 11.8181
595 12.6692
600 13.5532
Ex : 213
200 13.0977
205 14.2131
210 13.4846
215 12.1078
220 12.4989
225 17.4092
230 15.6362
235 11.9156
240 12.6177
245 14.5418
250 12.9298
255 11.3714
260 12.9864
265 12.2956
270 14.1616
275 12.3027
280 11.57
285 12.1713
290 13.2133
295 13.9857
300 10.1518
305 15.7645
310 14.3071
315 10.3716
320 10.0577
325 13.2713
330 15.1264
335 13.5911
340 12.5367
345 15.6426
350 13.3385
355 16.9368
360 16.9716
365 16.4199
370 15.7674
375 14.3754
380 11.8421
385 16.1635
390 16.8052
395 16.1072
400 15.4855
405 12.312
410 19.5536
415 15.7491
420 15.7398
425 18.2829
430 13.2488
435 17.0887
440 19.7726
445 14.4851
450 16.3184
455 14.2338
460 16.1222
465 14.9731
470 19.1173
475 18.3688
480 14.1674
485 15.4428
490 15.7293
495 16.5971
500 18.1547
505 14.3948
510 10.152
515 10.8936
520 16.0526
525 14.1665
530 11.9998
535 13.6108
540 14.7354
545 13.55
550 15.0965
555 16.3843
560 15.1677
565 15.8219
570 14.4455
575 17.0935
580 14.552
585 17.3189
590 11.744
595 10.4452
600 8.27825
Ex : 218
200 13.7049
205 16.7606
210 13.6413
215 14.0416
220 11.8147
225 14.8539
230 15.21
235 12.5732
240 12.4853
245 11.8206
250 15.3004
255 15.9414
260 13.1262
265 13.8601
270 15.5628
275 12.5006
280 10.3251
285 12.7052
290 11.0489
295 12.4808
300 10.8766
305 10.9655
310 13.8402
315 12.5923
320 15.5209
325 18.9048
330 16.5808
335 20.1739
340 18.727
345 16.1464
350 11.9011
355 18.4202
360 15.1593
365 14.8837
370 13.5236
375 13.2089
380 18.2993
385 14.9028
390 17.4659
395 16.9416
400 14.9671
405 17.7452
410 12.8691
415 14.7063
420 15.4774
425 14.4206
430 13.6048
435 16.7043
440 14.7605
445 21.5926
450 15.8817
455 13.1851
460 18.4676
465 19.7265
470 17.0343
475 15.7365
480 11.4004
485 14.0029
490 16.0361
495 20.3929
500 14.2631
505 13.7646
510 13.4676
515 16.2246
520 21.1536
525 10.5603
530 12.0539
535 14.2592
540 16.2234
545 14.9749
550 12.3881
555 13.0328
560 14.7659
565 16.203
570 13.0458
575 13.265
580 18.4841
585 13.9263
590 13.7935
595 11.2254
600 1.27741
Ex : 223
200 12.543
205 11.3063
210 11.5426
215 10.1958
220 10.9936
225 12.946
230 13.797
235 14.7449
240 14.1796
245 14.9325
250 10.0993
255 11.6931
260 11.4118
265 9.5393
270 14.384
275 13.8615
280 10.1047
285 11.5155
290 13.4489
295 12.9683
300 11.6943
305 12.0155
310 11.5467
315 12.176
320 11.6742
325 17.2855
330 18.7955
335 12.1605
340 14.9842
345 15.3508
350 14.0526
355 15.9319
360 15.7634
365 15.2453
370 17.9499
375 14.6176
380 16.8279
385 12.2493
390 12.7115
395 13.7468
400 11.367
405 16.1952
410 13.4467
415 14.5395
420 16.0956
425 13.463
430 17.988
435 15.1318
440 15.8079
445 13.2677
450 14.5138
455 17.3374
460 15.8099
465 16.1774
470 11.9446
475 17.9829
480 10.5738
485 15.0681
490 14.8615
495 13.1401
500 12.206
505 12.5797
510 13.7842
515 15.7582
520 15.3729
525 15.9629
530 15.313
535 17.9243
540 13.5349
545 13.116
550 13.2892
555 15.8501
560 11.0723
565 11.151
570 14.5872
575 12.3626
580 15.3897
585 11.0048
590 13.9529
595 12.5894
600 33.336
Ex : 228
200 13.0343
205 11.131
210 9.17887
215 13.0296
220 10.3263
225 10.7981
230 9.81501
235 10.3883
240 9.83489
245 14.4122
250 14.7241
255 8.2675
260 15.0036
265 9.5906
270 11.1154
275 14.5204
280 14.4184
285 13.2183
290 12.0572
295 11.7666
300 11.1441
305 10.9022
310 12.2949
315 14.1257
320 11.6452
325 10.4647
330 16.2414
335 13.6437
340 15.5046
345 12.4336
350 13.98
355 19.4054
360 11.6191
365 13.5316
370 20.9138
375 15.732
380 15.3574
385 17.43
390 13.4366
395 13.885
400 13.5824
405 12.075
410 17.8737
415 15.3409
420 14.1884
425 12.7845
430 11.9802
435 13.1581
440 12.214
445 13.4496
450 15.837
455 16.1118
460 14.2026
465 10.7611
470 12.63
475 13.1614
480 14.1169
485 15.5642
490 12.1922
495 16.6431
500 16.7319
505 12.2034
510 10.9651
515 13.7474
520 14.9113
525 11.81
530 14.1072
535 12.9768
540 12.9881
545 14.0705
550 12.1618
555 13.4149
560 13.1534
565 10.8765
570 8.33195
575 16.9049
580 15.5632
585 12.1203
590 14.5744
595 10.7869
600 18.2869
Ex : 233
200 9.29816
205 8.10975
210 9.10951
215 12.3961
220 12.1964
225 12.1766
230 8.94127
235 9.45084
240 12.1206
245 12.0177
250 9.97033
255 8.823
260 9.85754
265 10.5897
270 13.0971
275 8.42043
280 11.9889
285 10.5122
290 12.1677
295 10.9154
300 9.508
305 9.11045
310 10.344
315 11.4022
320 10.083
325 10.6711
330 12.731
335 11.4458
340 11.3584
345 12.6334
350 10.838
355 13.7637
360 12.5506
365 13.8521
370 13.3979
375 14.8222
380 14.2649
385 17.7496
390 13.3908
395 10.7537
400 10.6121
405 13.5757
410 11.7618
415 13.9628
420 15.3939
425 14.8212
430 14.4982
435 11.8876
440 15.9688
445 13.213
450 15.0505
455 12.7437
460 15.0503
465 13.5563
470 10.6784
475 11.4837
480 13.3502
485 11.5739
490 12.2712
495 12.0048
500 12.9992
505 16.8474
510 10.7005
515 12.8058
520 10.988
525 8.9225
530 13.1355
535 14.8545
540 10.7369
545 10.525
550 17.3891
555 11.5606
560 10.415
565 9.69109
570 12.1012
575 11.0346
580 10.142
585 10.2439
590 10.391
595 6.9892
600 0.795345
Ex : 238
200 8.22594
205 8.3518
210 8.66075
215 10.9492
220 9.16665
225 9.95942
230 8.24915
235 10.6057
240 9.94825
245 10.1026
250 11.4875
255 9.35913
260 10.1591
265 9.11655
270 8.58225
275 9.7608
280 10.8512
285 9.34209
290 11.4494
295 10.145
300 9.35381
305 13.0372
310 10.5214
315 8.72068
320 9.35352
325 10.3178
330 12.6044
335 10.7358
340 11.5092
345 10.4599
350 12.3118
355 13.542
360 9.73091
365 13.3765
370 12.2727
375 9.46843
380 11.0891
385 12.3247
390 10.4183
395 12.8257
400 11.9955
405 11.0144
410 12.1507
415 11.9667
420 13.6578
425 10.1994
430 13.0306
435 12.9999
440 10.0509
445 12.0228
450 11.6512
455 11.7853
460 14.7023
465 12.9496
470 9.66569
475 11.479
480 11.3854
485 10.3525
490 10.8232
495 8.82872
500 13.0206
505 11.394
510 9.71367
515 8.99699
520 9.83373
525 10.3144
530 10.8036
535 10.9815
540 9.88821
545 12.5342
550 11.8458
555 11.0525
560 12.1924
565 11.1604
570 11.6635
575 10.712
580 11.7177
585 10.706
590 7.71591
595 9.59979
600 25.3997
Ex : 243
200 8.42857
205 10.684
210 9.04285
215 10.9777
220 8.24471
225 10.8689
230 9.52077
235 8.33801
240 10.3516
245 8.45036
250 8.28534
255 9.56258
260 8.21488
265 8.43976
270 9.20667
275 8.31585
280 9.09049
285 7.62703
290 7.42255
295 7.91452
300 6.63052
305 7.25447
310 7.85757
315 7.96768
320 9.70226
325 8.09773
330 11.317
335 10.1758
340 11.136
345 10.7266
350 8.16205
355 9.55764
360 11.3971
365 12.5279
370 11.2777
375 10.6885
380 10.5888
385 13.98
390 11.7171
395 11.2372
400 11.5091
405 12.3733
410 11.0459
415 8.73192
420 12.4909
425 7.28629
430 10.2682
435 9.42554
440 9.50419
445 12.2633
450 9.04674
455 8.20321
460 9.44819
465 11.626
470 12.1692
475 10.1105
480 9.54139
485 9.23365
490 11.7728
495 10.1166
500 9.21501
505 11.6705
510 9.14047
515 7.13124
520 8.29851
525 10.9309
530 8.58766
535 8.56557
540 11.643
545 9.45054
550 8.1458
555 10.4347
560 8.17788
565 7.22299
570 7.9857
575 12.0257
580 7.44752
585 8.71798
590 8.53118
595 7.81428
600 0.889235
Ex : 248
200 7.91279
205 6.8472
210 7.58259
215 7.61569
220 6.41516
225 7.04213
230 7.19246
235 6.97497
240 7.22785
245 7.60589
250 5.78139
255 7.67663
260 7.34126
265 9.99025
270 6.47328
275 7.61695
280 5.8905
285 5.40124
290 7.19865
295 6.24547
300 7.25561
305 8.2287
310 4.52174
315 7.33047
320 9.68224
325 8.02938
330 7.70617
335 6.91452
340 8.99918
345 8.77188
350 7.08728
355 6.98864
360 7.30578
365 8.62191
370 10.5849
375 10.4205
380 9.89701
385 8.64451
390 9.46313
395 7.22642
400 8.67347
405 9.6506
410 8.448
415 10.3724
420 8.88065
425 9.00516
430 8.89144
435 9.17811
440 8.32376
445 13.365
450 7.87729
455 9.97606
460 8.30803
465 8.41723
470 6.98888
475 7.83844
480 7.38718
485 6.11502
490 8.69694
495 11.1769
500 8.70911
505 10.3744
510 9.0132
515 6.84498
520 9.00123
525 6.08528
530 7.45789
535 7.57404
540 9.69275
545 8.20027
550 7.73726
555 8.50768
560 8.27796
565 8.19993
570 8.937
575 7.13986
580 8.36124
585 8.06492
590 8.37842
595 8.19385
600 7.13586
Ex : 253
200 7.25121
205 5.58983
210 5.32855
215 5.34668
220 3.68486
225 6.07373
230 5.59615
235 5.81242
240 5.57623
245 6.2479
250 6.01323
255 5.61726
260 4.93787
265 5.24427
270 5.70333
275 6.18564
280 4.65672
285 5.38876
290 8.99309
295 5.76181
300 6.67878
305 4.80058
310 4.8336
315 5.1509
320 5.65783
325 6.5575
330 6.94518
335 7.47418
340 7.09079
345 6.23656
350 7.59042
355 7.82873
360 7.45612
365 8.24294
370 6.09216
375 5.36498
380 7.52955
385 6.35914
390 7.42489
395 7.10729
400 6.68895
405 6.56516
410 6.86167
415 7.90766
420 6.33725
425 7.34842
430 9.67701
435 9.733
440 7.50459
445 8.33258
450 7.74244
455 7.06898
460 7.69591
465 7.83638
470 6.89486
475 5.85774
480 6.45809
485 5.95986
490 6.44385
495 5.87327
500 7.38587
505 6.93774
510 6.83297
515 8.19642
520 6.9095
525 5.77551
530 7.16468
535 7.85495
540 6.30861
545 6.21658
550 5.81436
555 6.59876
560 5.69177
565 5.40801
570 5.34624
575 6.97194
580 4.91881
585 5.04723
590 5.02792
595 3.80173
600 0.432623
Ex : 258
200 3.88337
205 3.67522
210 3.62825
215 4.06522
220 4.90043
225 4.74554
230 4.48562
235 4.30038
240 4.06355
245 4.19861
250 3.85372
255 4.63103
260 3.50457
265 3.52062
270 4.61343
275 5.3267
280 6.14712
285 4.63953
290 4.37231
295 4.44912
300 4.52059
305 3.96559
310 5.15987
315 3.81686
320 3.93323
325 5.00924
330 4.82139
335 4.96746
340 6.68061
345 5.89575
350 6.47838
355 5.3417
360 7.12853
365 5.79333
370 6.93496
375 5.8666
380 6.56655
385 5.36239
390 7.38398
395 6.20232
400 5.93878
405 6.85038
410 7.09629
415 6.08652
420 6.41952
425 6.11364
430 6.25861
435 5.70749
440 8.01789
445 5.50959
450 5.68977
455 5.10401
460 4.87959
465 5.38234
470 5.4364
475 5.92568
480 5.80127
485 5.3567
490 4.68958
495 5.39922
500 4.80624
505 5.39438
510 5.48445
515 5.8885
520 4.67175
525 5.67783
530 6.4374
535 5.15157
540 4.4407
545 5.35974
550 4.26101
555 4.6456
560 4.59799
565 5.38153
570 4.24393
575 3.15707
580 5.12938
585 4.76127
590 4.13752
595 5.06298
600 4.68491
Ex : 263
200 2.86217
205 4.31765
210 3.69986
215 2.90906
220 3.80069
225 3.22879
230 3.74667
235 3.20382
240 3.50913
245 4.08007
250 4.22399
255 2.66321
260 3.92459
265 3.48102
270 3.11418
275 3.52149
280 2.55332
285 3.07634
290 3.03275
295 3.54298
300 3.39964
305 3.43061
310 3.61092
315 3.85816
320 3.90878
325 3.34018
330 5.22753
335 4.68565
340 4.78383
345 3.94172
350 4.79201
355 6.00163
360 3.66621
365 4.38632
370 4.50382
375 5.30252
380 5.29696
385 5.45624
390 4.38957
395 5.77652
400 5.2422
405 5.83573
410 5.10433
415 5.07095
420 4.49397
425 5.66604
430 4.50213
435 5.64907
440 4.98537
445 5.26577
450 4.41246
455 4.58727
460 4.45638
465 5.97933
470 5.02807
475 5.20609
480 3.97771
485 6.0333
490 4.0161
495 3.86053
500 5.62407
505 4.31848
510 3.72851
515 4.51569
520 5.35615
525 4.70886
530 4.12052
535 3.87455
540 5.0426
545 4.13863
550 4.11158
555 3.82958
560 4.48834
565 4.0475
570 4.72854
575 3.07049
580 3.57112
585 4.40953
590 3.17223
595 3.3463
600 0.380797
Ex : 268
200 4.01869
205 3.54651
210 2.80015
215 2.67026
220 2.12579
225 2.75436
230 3.43565
235 2.14137
240 2.96744
245 2.8795
250 2.51767
255 2.40636
260 3.81036
265 3.70129
270 3.2076
275 2.81007
280 3.09326
285 3.31499
290 2.80302
295 2.18041
300 2.26222
305 2.79809
310 2.84347
315 2.77583
320 2.25777
325 3.09968
330 3.6923
335 3.48539
340 3.74532
345 4.71805
350 3.19134
355 3.67309
360 4.18355
365 3.50551
370 3.98554
375 3.32905
380 3.90473
385 3.70844
390 3.3533
395 3.67321
400 4.23549
405 4.08264
410 3.95795
415 3.68949
420 3.99049
425 4.07207
430 3.56245
435 3.0179
440 3.47053
445 3.5729
450 2.4008
455 3.41836
460 4.02065
465 4.46005
470 2.86901
475 3.11693
480 2.70867
485 2.87988
490 3.45856
495 2.78983
500 2.67861
505 2.99053
510 2.08574
515 3.41073
520 3.6674
525 3.14919
530 3.97828
535 4.32045
540 3.50928
545 2.97588
550 2.8669
555 3.36687
560 3.83944
565 3.59172
570 2.35212
575 2.61436
580 2.51097
585 2.27379
590 2.96979
595 3.09894
600 0.816849
Ex : 273
200 2.25797
205 1.88221
210 2.33007
215 2.53563
220 1.87284
225 1.91982
230 1.943
235 2.2479
240 2.93295
245 2.66596
250 2.40346
255 2.18501
260 2.10482
265 2.52401
270 2.78166
275 1.96043
280 2.37017
285 1.72309
290 2.08759
295 1.71541
300 2.14151
305 1.95786
310 2.44994
315 2.41281
320 2.33026
325 2.66437
330 2.22006
335 3.63755
340 3.2448
345 3.47837
350 3.37699
355 2.41764
360 3.13525
365 3.27924
370 2.9962
375 3.56351
380 3.28051
385 3.19441
390 3.41916
395 4.19262
400 3.63232
405 3.18232
410 3.19192
415 2.93045
420 3.6212
425 3.16231
430 2.37289
435 3.57391
440 3.25334
445 3.65316
450 3.01381
455 2.52634
460 3.2682
465 3.36285
470 3.16943
475 3.77272
480 3.22619
485 2.95043
490 2.85001
495 3.86497
500 3.15857
505 3.78184
510 2.50699
515 2.66234
520 2.6659
525 2.46645
530 2.55353
535 2.81279
540 3.25636
545 3.31731
550 3.00948
555 2.40889
560 2.67081
565 2.73384
570 1.99262
575 2.96924
580 1.7652
585 1.96485
590 1.98265
595 2.8734
600 2.50841
Ex : 278
200 1.58428
205 1.80454
210 2.12244
215 1.98519
220 1.5816
225 1.72876
230 1.98501
235 1.99417
240 1.53484
245 1.63831
250 2.24268
255 1.47417
260 1.9506
265 2.04933
270 1.90447
275 1.60032
280 2.31064
285 1.36602
290 1.81657
295 1.6657
300 1.93701
305 1.84025
310 1.91418
315 2.49683
320 1.74626
325 1.82228
330 1.52674
335 1.933
340 2.20844
345 2.44967
350 2.61487
355 2.48469
360 3.04533
365 3.05206
370 2.69874
375 2.54848
380 2.28482
385 2.96413
390 2.94512
395 2.50762
400 3.55413
405 2.67858
410 2.89452
415 3.09483
420 2.43905
425 2.75151
430 2.78624
435 3.37581
440 2.82053
445 2.71604
450 2.55662
455 2.58645
460 2.58811
465 2.43417
470 2.62701
475 2.69377
480 2.93205
485 2.91758
490 2.68876
495 2.61584
500 2.2738
505 2.08485
510 2.28103
515 1.64401
520 2.17849
525 1.89925
530 2.18276
535 2.221
540 1.98002
545 2.20328
550 2.88782
555 2.71557
560 2.20156
565 1.66366
570 1.63724
575 1.63391
580 2.07568
585 1.87396
590 1.88857
595 2.03853
600 1.34688
Ex : 283
200 1.41736
205 1.28127
210 1.58088
215 1.9811
220 1.64543
225 1.44924
230 1.40932
235 1.28016
240 1.4947
245 1.54786
250 1.28022
255 1.8142
260 1.46362
265 1.60405
270 1.55139
275 1.79317
280 2.12653
285 1.56172
290 1.23782
295 1.50614
300 1.4751
305 1.1684
310 1.20362
315 1.4804
320 1.97217
325 1.53298
330 1.61503
335 2.19479
340 2.24256
345 1.95592
350 2.19262
355 2.08347
360 2.59744
365 1.94549
370 2.20143
375 2.73362
380 2.07715
385 2.1284
390 2.452
395 2.37766
400 2.47139
405 2.14647
410 2.38472
415 2.32248
420 2.6425
425 2.4858
430 2.00281
435 2.22158
440 2.84605
445 2.41634
450 2.28144
455 2.02515
460 2.54484
465 2.58025
470 2.23025
475 2.01371
480 2.0756
485 2.14432
490 2.94249
495 2.29699
500 2.49542
505 1.93339
510 1.3512
515 1.72853
520 1.74899
525 2.19171
530 1.60922
535 1.8593
540 1.58917
545 1.67735
550 1.93957
555 1.93684
560 2.07191
565 2.05319
570 1.78606
575 1.26221
580 1.97605
585 1.5096
590 1.47847
595 1.44952
600 0.955348
Ex : 288
200 1.10501
205 1.19015
210 1.21263
215 1.37367
220 1.40681
225 1.01781
230 1.00641
235 0.949953
240 1.32436
245 1.19118
250 1.51606
255 1.21449
260 1.15905
265 1.29836
270 1.55227
275 1.06762
280 1.47519
285 1.58101
290 1.2854
295 1.33752
300 1.82706
305 1.58372
310 1.43068
315 1.24907
320 1.70211
325 1.78657
330 1.51358
335 1.74361
340 2.01293
345 1.86205
350 1.85441
355 2.28154
360 2.10569
365 1.81445
370 1.77073
375 1.85017
380 2.60315
385 1.83741
390 2.31992
395 2.44264
400 2.54961
405 2.41722
410 2.36062
415 2.28356
420 2.62832
425 2.29594
430 2.0186
435 2.74513
440 2.09964
445 1.80087
450 1.89408
455 1.81885
460 1.6402
465 1.81231
470 1.67182
475 1.80468
480 1.87637
485 1.78627
490 1.83065
495 1.69394
500 1.66867
505 1.32068
510 1.47525
515 1.32732
520 1.67865
525 1.70644
530 1.50623
535 1.49254
540 1.41168
545 1.64302
550 1.27187
555 2.20871
560 1.3924
565 2.09054
570 1.84225
575 1.68602
580 1.4163
585 1.36401
590 1.10376
595 1.04006
600 1.79229
Ex : 293
200 1.21254
205 0.93536
210 1.26329
215 1.35028
220 1.06408
225 1.03937
230 1.34517
235 1.35996
240 1.11204
245 1.16839
250 1.42517
255 1.19697
260 1.10466
265 1.05553
270 0.872108
275 0.954916
280 1.07555
285 1.59707
290 1.8022
295 1.5011
300 1.31877
305 1.17777
310 1.04785
315 0.945454
320 1.27697
325 1.7307
330 1.70283
335 1.96823
340 1.53672
345 1.66157
350 1.50228
355 1.40336
360 1.55942
365 1.78807
370 2.02473
375 1.71787
380 1.88778
385 1.79103
390 2.29302
395 2.12631
400 2.02381
405 1.86922
410 2.48299
415 2.11234
420 2.36217
425 2.02058
430 1.74726
435 1.53929
440 1.68989
445 2.23222
450 1.79237
455 1.8657
460 1.8377
465 1.99469
470 1.49551
475 1.28891
480 1.50122
485 1.33897
490 1.52196
495 1.79436
500 1.83839
505 1.59753
510 1.18195
515 1.25066
520 2.02535
525 1.46909
530 1.41878
535 1.20608
540 1.31529
545 1.34315
550 1.51379
555 1.58204
560 1.34772
565 1.08502
570 1.41373
575 1.57962
580 2.26776
585 1.67607
590 1.34473
595 1.39986
600 0.159299
Ex : 298
200 0.812877
205 0.790037
210 1.17439
215 1.1906
220 0.94763
225 0.938766
230 1.08061
235 0.775359
240 0.806883
245 0.879797
250 0.984533
255 0.887957
260 0.788277
265 1.01807
270 0.787494
275 0.881951
280 0.870139
285 0.836923
290 1.00347
295 1.0226
300 0.894006
305 0.7563
310 0.910248
315 1.13761
320 1.1315
325 1.02897
330 1.35489
335 1.46741
340 1.81177
345 1.76595
350 1.7474
355 1.73316
360 1.95574
365 1.63192
370 1.67418
375 1.48844
380 1.75861
385 1.79235
390 1.92134
395 1.6997
400 1.7252
405 1.5923
410 2.01581
415 1.91141
420 1.64694
425 1.85624
430 1.81508
435 1.66795
440 1.91328
445 1.67872
450 1.52266
455 1.4483
460 1.83657
465 1.42312
470 1.5052
475 1.76169
480 1.81963
485 1.56135
490 1.59416
495 1.1352
500 1.18791
505 1.36749
510 1.17001
515 1.25762
520 1.38351
525 1.2593
530 1.33898
535 1.12513
540 1.16427
545 1.08094
550 1.00348
555 1.04544
560 1.17463
565 1.18097
570 1.10244
575 0.773572
580 1.26652
585 1.30425
590 1.6006
595 1.58741
600 0.761759
Ex : 303
200 0.764256
205 0.661073
210 0.656896
215 0.678172
220 0.827062
225 1.01216
230 1.00482
235 1.10598
240 1.24861
245 0.879911
250 0.89936
255 0.90713
260 0.818537
265 1.02301
270 0.672084
275 0.694799
280 0.718146
285 0.831392
290 0.944962
295 0.992498
300 1.09392
305 1.13329
310 0.70304
315 0.871335
320 1.0385
325 1.22835
330 1.59657
335 1.44419
340 1.5652
345 1.54088
350 1.38248
355 1.52495
360 1.20518
365 1.52219
370 1.69466
375 1.51418
380 1.61157
385 1.77025
390 1.78142
395 1.78483
400 1.6576
405 2.0013
410 1.94246
415 1.74768
420 1.62232
425 1.73092
430 1.36
435 1.56494
440 1.83972
445 1.81634
450 1.46382
455 1.43151
460 1.64982
465 1.52281
470 1.39478
475 1.43722
480 1.35509
485 1.33184
490 1.20876
495 1.10949
500 0.937825
505 1.29472
510 1.20252
515 1.08852
520 1.14998
525 1.05843
530 0.831874
535 1.15257
540 1.02491
545 0.874713
550 0.991057
555 0.926118
560 0.942324
565 0.91059
570 1.02561
575 0.909433
580 0.90244
585 1.00421
590 0.880342
595 1.21999
600 4.84761
Ex : 308
200 0.786724
205 0.528469
210 0.642342
215 0.652243
220 0.858459
225 0.93796
230 0.639684
235 0.907371
240 0.791516
245 0.590719
250 0.644667
255 0.733696
260 0.833357
265 0.587107
270 0.659449
275 0.763551
280 0.679994
285 0.692685
290 0.522202
295 1.00921
300 0.951491
305 1.06301
310 0.933366
315 0.750251
320 0.909892
325 1.18619
330 1.38652
335 1.61927
340 1.66247
345 1.44376
350 1.45367
355 1.16028
360 1.54853
365 1.33374
370 1.51504
375 1.26802
380 1.44846
385 1.42499
390 1.9125
395 1.88413
400 1.41861
405 1.81339
410 1.58325
415 1.30683
420 1.80765
425 1.43784
430 1.46759
435 1.49879
440 1.42928
445 1.29849
450 1.23795
455 1.53336
460 1.45117
465 1.44699
470 1.08919
475 1.19779
480 1.15584
485 1.23433
490 1.30221
495 1.07935
500 1.21963
505 1.11926
510 0.922361
515 0.890923
520 1.20838
525 1.00742
530 0.862565
535 1.15511
540 0.861684
545 0.910132
550 0.775365
555 0.792624
560 0.781607
565 0.789631
570 0.762608
575 0.846857
580 0.873823
585 0.844355
590 0.711719
595 0.694453
600 1.48786
Ex : 313
200 0.941655
205 0.486542
210 0.729182
215 0.624792
220 0.777575
225 0.497427
230 0.695277
235 0.584756
240 0.728518
245 0.677029
250 0.693596
255 0.664911
260 0.647401
265 0.654121
270 0.627948
275 0.677397
280 0.532854
285 0.554191
290 0.568142
295 0.573753
300 0.622683
305 1.05583
310 0.835901
315 0.636853
320 0.80429
325 1.12206
330 1.47091
335 1.55593
340 1.67733
345 1.32682
350 1.32864
355 1.41304
360 1.57095
365 1.85165
370 1.79928
375 1.843
380 1.65349
385 1.69878
390 1.99653
395 1.88661
400 2.16039
405 2.10025
410 2.01677
415 2.12023
420 1.77502
425 1.79496
430 1.69155
435 1.57369
440 1.70681
445 1.67545
450 1.85936
455 1.55308
460 1.64307
465 1.57732
470 1.44198
475 1.53381
480 1.24876
485 1.44189
490 1.17923
495 1.126
500 1.02015
505 0.968069
510 0.880913
515 0.818716
520 1.02881
525 0.994092
530 0.921883
535 0.642236
540 0.750998
545 0.807319
550 0.728212
555 0.91092
560 0.645054
565 0.844431
570 0.559369
575 0.58482
580 0.581372
585 0.437619
590 0.632127
595 0.787844
600 0.47799
Ex : 318
200 0.625768
205 0.613797
210 0.52655
215 0.513511
220 0.540917
225 0.510365
230 0.66523
235 0.531649
240 0.544103
245 0.576891
250 0.656597
255 0.671273
260 0.603103
265 0.64159
270 0.944849
275 0.558535
280 0.659572
285 0.583247
290 0.687281
295 0.619142
300 0.615132
305 0.532006
310 1.0585
315 3.247
320 2.44754
325 1.77899
330 2.1969
335 2.07692
340 2.36761
345 2.89944
350 3.56627
355 4.20557
360 4.57196
365 5.84713
370 6.42746
375 7.25381
380 8.53873
385 8.94991
390 9.99511
395 10.7527
400 10.9343
405 11.4778
410 10.7406
415 11.3003
420 10.5426
425 10.5279
430 9.73392
435 9.92104
440 9.27449
445 8.63092
450 8.42615
455 7.92264
460 7.18959
465 6.91874
470 6.03473
475 5.83074
480 5.33144
485 4.8428
490 4.49143
495 3.79527
500 3.41932
505 3.31334
510 3.06752
515 2.67503
520 2.43656
525 2.07502
530 1.90237
535 1.58665
540 1.6741
545 1.31399
550 1.39012
555 1.21407
560 1.30762
565 1.07495
570 1.06579
575 0.960671
580 0.816881
585 0.908839
590 0.763507
595 0.57993
600 1.24455
Ex : 323
200 0.534313
205 0.531093
210 0.383601
215 0.650106
220 0.635775
225 0.54668
230 0.502653
235 0.545211
240 0.534277
245 0.487066
250 0.493046
255 0.612749
260 0.565735
265 0.629556
270 0.558134
275 0.616973
280 0.423867
285 0.463851
290 0.418573
295 0.531661
300 0.455028
305 0.603884
310 0.786338
315 24.3024
320 104.965
325 43.697
330 8.5279
335 5.32776
340 5.99247
345 7.50091
350 10.9454
355 14.4035
360 16.6649
365 19.785
370 22.0429
375 25.8061
380 29.7587
385 32.1621
390 35.6454
395 37.9192
400 38.8058
405 39.7628
410 40.2076
415 40.3134
420 38.5046
425 37.2915
430 36.246
435 34.8472
440 33.5678
445 32.1969
450 29.463
455 28.2019
460 25.4828
465 24.2887
470 21.7747
475 20.8122
480 18.7949
485 16.647
490 14.7296
495 13.9915
500 12.8212
505 10.9417
510 9.28236
515 8.27228
520 7.44653
525 6.60041
530 5.56442
535 5.29892
540 4.47926
545 3.58407
550 3.25445
555 2.97322
560 2.61487
565 2.43037
570 1.81671
575 1.81222
580 1.52615
585 1.00582
590 1.01523
595 0.993894
600 0.318241
Ex : 328
200 0.520239
205 0.45687
210 0.627154
215 0.46049
220 0.487012
225 0.493826
230 0.543337
235 0.521536
240 0.453868
245 0.555096
250 0.563292
255 0.642963
260 0.708297
265 0.529036
270 0.495746
275 0.537716
280 0.484787
285 0.500146
290 0.562194
295 0.691592
300 0.61053
305 0.7561
310 0.855324
315 6.80731
320 249.596
325 582.482
330 171.577
335 25.6884
340 9.58111
345 9.03418
350 11.0393
355 15.0976
360 19.866
365 22.0606
370 24.3336
375 27.4724
380 31.2818
385 34.8989
390 38.3189
395 39.9928
400 40.6198
405 41.0227
410 41.8716
415 42.0672
420 41.0206
425 39.1115
430 38.8838
435 36.2748
440 35.3669
445 33.4685
450 30.9861
455 29.042
460 26.4511
465 25.3292
470 22.7345
475 21.0635
480 19.6054
485 18.208
490 15.8464
495 14.2722
500 12.85
505 11.2296
510 10.5436
515 8.47336
520 7.56442
525 6.60386
530 5.53151
535 5.15601
540 4.78421
545 4.05093
550 3.59478
555 3.27539
560 2.85765
565 2.39556
570 1.94785
575 1.76503
580 1.60009
585 1.34818
590 1.15182
595 1.15903
600 1.18938
Ex : 333
200 0.669146
205 0.621828
210 0.415243
215 0.556485
220 0.540928
225 0.468314
230 0.456916
235 0.650746
240 0.607605
245 0.479507
250 0.463508
255 0.444986
260 0.453751
265 0.54301
270 0.609364
275 0.584861
280 0.660677
285 0.725424
290 0.562086
295 0.607833
300 0.745192
305 0.79847
310 1.10369
315 1.09315
320 36.2624
325 703.859
330 1190.96
335 302.533
340 40.8808
345 11.9671
350 8.27101
355 8.86076
360 11.9189
365 15.9542
370 16.6645
375 17.0482
380 17.9392
385 20.21
390 21.2589
395 23.2341
400 23.1539
405 23.918
410 24.7882
415 24.7172
420 23.3795
425 22.0659
430 21.3915
435 20.1375
440 19.3728
445 18.715
450 18.1116
455 16.2403
460 14.6343
465 13.3225
470 12.4661
475 12.0871
480 11.0556
485 9.66495
490 9.39292
495 8.53183
500 7.36896
505 6.58069
510 5.58407
515 5.34414
520 4.80136
525 4.24289
530 3.90818
535 3.47567
540 3.02989
545 2.85205
550 2.44376
555 2.34868
560 2.07254
565 2.03919
570 1.84456
575 1.55361
580 1.54263
585 1.38067
590 1.14353
595 1.27076
600 2.00496
Ex : 338
200 0.527948
205 0.492779
210 0.49356
215 0.48846
220 0.518445
225 0.507908
230 0.515174
235 0.498296
240 0.613972
245 0.570106
250 0.556445
255 0.398139
260 0.616409
265 0.581882
270 0.622545
275 0.701645
280 0.591185
285 0.557937
290 0.623692
295 0.783089
300 0.727838
305 0.670823
310 0.984145
315 0.951972
320 1.76749
325 65.4686
330 1055.56
335 1553.72
340 373.508
345 48.5173
350 11.2966
355 6.27727
360 5.52071
365 7.61573
370 11.5965
375 11.4821
380 10.2658
385 11.1775
390 12.2273
395 12.3542
400 12.6133
405 13.2134
410 13.5182
415 13.5219
420 13.5205
425 12.6976
430 11.5477
435 11.6383
440 11.4937
445 10.3836
450 9.99751
455 8.84131
460 8.72948
465 8.31998
470 7.47735
475 6.79881
480 6.41678
485 5.63951
490 5.39986
495 5.03613
500 4.62184
505 4.32354
510 3.96188
515 3.35208
520 3.00934
525 2.95301
530 2.59317
535 2.35887
540 2.21615
545 2.04631
550 1.7389
555 1.65847
560 1.70071
565 1.52918
570 1.48779
575 1.23773
580 1.36515
585 1.20649
590 1.04945
595 0.932238
600 0.44191
Ex : 343
200 0.478019
205 0.434785
210 0.511141
215 0.60312
220 0.447193
225 0.504116
230 0.504141
235 0.598657
240 0.530289
245 0.643359
250 0.616427
255 0.558281
260 0.559711
265 0.539893
270 0.526609
275 0.58709
280 0.602649
285 0.739838
290 0.718952
295 0.699134
300 0.618879
305 0.901602
310 0.88293
315 0.931187
320 1.23613
325 2.26083
330 78.3416
335 1214.07
340 1740.69
345 413.266
350 52.3266
355 10.7459
360 5.36073
365 4.07186
370 4.80341
375 8.71602
380 10.0062
385 9.27636
390 9.52881
395 9.17301
400 8.84189
405 9.70813
410 10.5592
415 10.7578
420 10.4635
425 10.1035
430 9.14868
435 9.31629
440 8.86784
445 8.46891
450 7.86921
455 7.48347
460 7.06686
465 6.56074
470 5.92691
475 5.80249
480 5.58267
485 5.00481
490 4.6115
495 4.13719
500 3.90091
505 3.45086
510 3.29846
515 3.0958
520 2.85722
525 2.37613
530 2.14718
535 2.11924
540 2.04849
545 1.84599
550 1.83363
555 1.49786
560 1.51587
565 1.43971
570 1.33601
575 1.23983
580 1.13573
585 1.01669
590 0.900907
595 0.926067
600 1.92992
Ex : 348
200 0.443356
205 0.382365
210 0.396924
215 0.438601
220 0.431585
225 0.424286
230 0.473871
235 0.535286
240 0.552502
245 0.51474
250 0.394017
255 0.529462
260 0.501958
265 0.555777
270 0.502918
275 0.434452
280 0.623963
285 0.725925
290 0.569099
295 0.615425
300 0.614627
305 0.637728
310 0.667981
315 0.737521
320 0.848115
325 1.48628
330 2.63182
335 78.9917
340 1240.52
345 1838.71
350 458.078
355 57.5432
360 10.7237
365 4.89027
370 3.65637
375 3.84589
380 7.41185
385 11.4574
390 11.2128
395 10.5239
400 9.09993
405 9.5049
410 10.6836
415 11.3468
420 11.0955
425 9.93286
430 9.28035
435 9.46425
440 9.53492
445 9.08004
450 8.25939
455 7.6077
460 7.05997
465 6.9755
470 6.255
475 5.91834
480 5.39377
485 5.1697
490 4.61322
495 4.42419
500 3.98523
505 3.86095
510 3.47357
515 2.98397
520 2.90114
525 2.48826
530 2.29309
535 2.21746
540 2.04636
545 1.95382
550 2.03339
555 1.47058
560 1.4292
565 1.37422
570 1.38682
575 1.12818
580 1.11435
585 0.964287
590 0.920343
595 0.834263
600 0.669913
Ex : 353
200 0.411307
205 0.309746
210 0.473277
215 0.444885
220 0.415713
225 0.450062
230 0.461181
235 0.477078
240 0.356305
245 0.363102
250 0.416338
255 0.393159
260 0.476245
265 0.57336
270 0.499172
275 0.454137
280 0.485959
285 0.501475
290 0.648381
295 0.554154
300 0.723362
305 0.619801
310 0.757919
315 0.624086
320 0.767397
325 1.12459
330 1.63288
335 2.63004
340 82.7354
345 1284.67
350 1842.41
355 444.938
360 55.6607
365 10.3248
370 4.90355
375 3.46223
380 4.06661
385 7.95329
390 13.2943
395 12.8208
400 10.5755
405 10.0917
410 10.8162
415 12.5922
420 12.2339
425 11.0327
430 9.85069
435 9.40951
440 9.90655
445 9.59358
450 8.85087
455 8.00869
460 7.00396
465 6.90385
470 6.38312
475 5.8503
480 5.60706
485 5.1353
490 5.02308
495 4.50173
500 3.76259
505 3.8014
510 3.50895
515 3.08699
520 2.95254
525 2.47333
530 2.30465
535 2.27488
540 1.95584
545 1.8948
550 1.7854
555 1.61561
560 1.40911
565 1.19095
570 1.13549
575 1.15281
580 0.994792
585 0.936897
590 0.843463
595 0.789344
600 1.06905
Ex : 358
200 0.418939
205 0.436693
210 0.46955
215 0.531502
220 0.464022
225 0.435744
230 0.429042
235 0.407759
240 0.469682
245 0.404444
250 0.335913
255 0.395796
260 0.475316
265 0.296581
270 0.426629
275 0.463864
280 0.5686
285 0.449183
290 0.421884
295 0.516864
300 0.614049
305 0.639141
310 0.661963
315 0.675101
320 0.683116
325 0.885784
330 1.06879
335 1.77827
340 2.49525
345 78.8976
350 1239.35
355 1869.8
360 459.639
365 57.1649
370 10.1554
375 4.66207
380 3.82145
385 5.27934
390 8.85096
395 13.1837
400 12.2533
405 10.7885
410 10.9796
415 11.6345
420 11.3133
425 10.4676
430 9.54561
435 9.67103
440 9.48924
445 9.22627
450 8.82234
455 7.53015
460 7.3829
465 7.08761
470 6.75817
475 6.5186
480 5.91316
485 4.94667
490 4.94807
495 4.48221
500 4.32751
505 4.01422
510 3.66382
515 3.24227
520 2.83632
525 2.62641
530 2.39951
535 2.20927
540 2.11503
545 1.67313
550 1.65344
555 1.64201
560 1.32038
565 1.29076
570 1.42671
575 1.04024
580 1.08844
585 0.964759
590 0.858624
595 0.824661
600 0.557608
Ex : 363
200 0.381618
205 0.326673
210 0.381091
215 0.398095
220 0.431603
225 0.370728
230 0.290035
235 0.373514
240 0.354113
245 0.351323
250 0.398899
255 0.340079
260 0.373479
265 0.400845
270 0.479243
275 0.414213
280 0.431508
285 0.575185
290 0.484493
295 0.428798
300 0.493325
305 0.542835
310 0.555232
315 0.511267
320 0.52555
325 0.774875
330 0.907374
335 1.07953
340 1.71883
345 2.76344
350 73.1245
355 1208
360 1868.95
365 480.54
370 59.4633
375 10.6069
380 5.89565
385 6.58658
390 8.09186
395 9.3032
400 12.2777
405 13.5095
410 13.1228
415 13.1451
420 12.1773
425 11.0888
430 10.3196
435 10.4602
440 10.4672
445 9.99769
450 9.11656
455 8.3401
460 7.95719
465 7.72861
470 7.31755
475 6.69603
480 6.40327
485 5.79146
490 4.93475
495 4.87367
500 4.37292
505 4.23817
510 3.8678
515 3.37742
520 2.86569
525 2.6951
530 2.28861
535 2.24907
540 2.01068
545 1.93171
550 1.80189
555 1.69725
560 1.45236
565 1.27762
570 1.13208
575 0.988563
580 0.89233
585 0.830243
590 0.738907
595 0.718557
600 1.39419
Ex : 368
200 0.339966
205 0.355236
210 0.30543
215 0.291908
220 0.318942
225 0.394155
230 0.492612
235 0.37249
240 0.404398
245 0.379904
250 0.32393
255 0.394941
260 0.41795
265 0.425784
270 0.470758
275 0.396673
280 0.436538
285 0.446285
290 0.346538
295 0.340702
300 0.434539
305 0.440911
310 0.445864
315 0.48017
320 0.511569
325 0.58615
330 0.750784
335 0.952935
340 1.23302
345 1.60193
350 2.88795
355 61.4728
360 1173.95
365 1913.76
370 501.692
375 62.2229
380 11.8457
385 8.48394
390 10.0727
395 10.8753
400 10.9051
405 13.8067
410 17.7052
415 17.7221
420 16.2583
425 13.5155
430 12.2175
435 12.4306
440 12.7107
445 11.9757
450 10.9115
455 9.57963
460 8.8557
465 8.64369
470 7.85378
475 7.60516
480 7.00347
485 6.39121
490 5.85552
495 5.33037
500 4.90028
505 4.14978
510 3.81276
515 3.33258
520 3.2636
525 2.94418
530 2.74309
535 2.10113
540 2.02715
545 2.05953
550 1.74105
555 1.61808
560 1.53066
565 1.27234
570 1.1561
575 1.10919
580 0.997928
585 0.817652
590 0.788857
595 0.591983
600 1.34278
Ex : 373
200 0.347113
205 0.228089
210 0.400769
215 0.370229
220 0.329825
225 0.365235
230 0.360201
235 0.339276
240 0.329716
245 0.357977
250 0.367607
255 0.339325
260 0.397751
265 0.399526
270 0.362338
275 0.409595
280 0.425839
285 0.37878
290 0.333834
295 0.422348
300 0.451486
305 0.405713
310 0.450446
315 0.414832
320 0.537092
325 0.618484
330 0.701805
335 0.837849
340 0.86822
345 1.14558
350 1.6166
355 2.7218
360 71.6904
365 1209.18
370 1903.71
375 499.551
380 62.5512
385 13.3592
390 11.1354
395 11.9717
400 10.5066
405 10.4382
410 13.9258
415 18.5756
420 17.7796
425 14.6559
430 12.7133
435 11.8273
440 12.021
445 11.7759
450 10.9646
455 9.44927
460 8.47721
465 7.84507
470 7.71942
475 7.52759
480 6.64702
485 5.99939
490 5.69412
495 5.10084
500 4.74486
505 4.32177
510 3.8571
515 3.47676
520 3.17209
525 2.91336
530 2.63911
535 2.25935
540 2.06321
545 2.09478
550 1.83181
555 1.59752
560 1.50431
565 1.35243
570 1.15898
575 1.03204
580 1.0021
585 0.837072
590 0.731957
595 0.780824
600 0.507445
Ex : 378
200 0.400505
205 0.428457
210 0.376843
215 0.319995
220 0.377715
225 0.390199
230 0.27357
235 0.303245
240 0.345238
245 0.373197
250 0.347115
255 0.395962
260 0.358132
265 0.31538
270 0.416842
275 0.349954
280 0.445074
285 0.389246
290 0.383661
295 0.423882
300 0.423561
305 0.405164
310 0.347455
315 0.536011
320 0.460968
325 0.560544
330 0.581658
335 0.688737
340 0.768934
345 1.00305
350 1.2235
355 1.64794
360 2.5295
365 67.82
370 1220.72
375 1951.35
380 515.365
385 65.7595
390 15.5164
395 10.4282
400 8.94476
405 8.55264
410 10.0104
415 12.8951
420 15.6935
425 13.5051
430 11.0494
435 10.3314
440 10.2113
445 9.88314
450 9.12401
455 8.02144
460 7.80477
465 7.50343
470 7.31825
475 6.92779
480 6.16319
485 5.59818
490 5.37449
495 4.97677
500 4.60669
505 4.29772
510 3.82028
515 3.31492
520 3.00501
525 2.72046
530 2.46918
535 2.14966
540 2.16923
545 1.87573
550 1.75013
555 1.53956
560 1.37219
565 1.31937
570 1.08783
575 1.01666
580 0.884115
585 0.766041
590 0.736917
595 0.63913
600 0.296083
Ex : 383
200 0.314014
205 0.292147
210 0.340414
215 0.309412
220 0.253659
225 0.275692
230 0.303356
235 0.37732
240 0.294468
245 0.37598
250 0.245947
255 0.30351
260 0.368162
265 0.352264
270 0.302094
275 0.364306
280 0.425164
285 0.324213
290 0.396662
295 0.427997
300 0.339982
305 0.404087
310 0.42851
315 0.356309
320 0.408176
325 0.370117
330 0.463657
335 0.646385
340 0.669929
345 0.757414
350 0.941487
355 1.28797
360 1.70271
365 2.68547
370 63.3332
375 1205.13
380 2019.61
385 543.705
390 71.675
395 16.232
400 9.33168
405 9.01147
410 10.265
415 11.5724
420 11.5891
425 13.2834
430 13.3916
435 12.0105
440 11.1947
445 10.2727
450 9.26915
455 8.69648
460 7.87092
465 7.48378
470 7.46176
475 6.91178
480 6.51818
485 5.81661
490 5.55923
495 5.16076
500 4.58122
505 4.30503
510 3.91096
515 3.51883
520 3.23651
525 3.03619
530 2.53226
535 2.29122
540 2.12326
545 2.02961
550 1.69945
555 1.5015
560 1.47967
565 1.34687
570 1.23605
575 0.91104
580 0.803176
585 0.735277
590 0.672356
595 0.599666
600 0.672782
Ex : 388
200 0.320768
205 0.349997
210 0.283397
215 0.263722
220 0.234525
225 0.30278
230 0.253181
235 0.245847
240 0.310877
245 0.365672
250 0.357796
255 0.28483
260 0.322802
265 0.367339
270 0.381322
275 0.3232
280 0.390284
285 0.331381
290 0.3237
295 0.341431
300 0.385154
305 0.41863
310 0.397529
315 0.420603
320 0.326485
325 0.422162
330 0.577441
335 0.514548
340 0.603842
345 0.605057
350 0.635253
355 0.80853
360 1.21987
365 1.67879
370 2.77121
375 70.1549
380 1249.7
385 2040.1
390 545.534
395 73.3031
400 17.2287
405 11.696
410 12.5129
415 14.0277
420 13.5692
425 12.332
430 13.376
435 14.9277
440 13.5211
445 12.5046
450 11.0735
455 9.76194
460 8.76092
465 8.53097
470 7.84143
475 7.48106
480 7.00267
485 6.36777
490 5.59521
495 5.21894
500 4.89968
505 4.39818
510 4.02999
515 3.62799
520 3.16886
525 2.88524
530 2.75026
535 2.33303
540 2.22258
545 1.93792
550 1.73376
555 1.65725
560 1.36845
565 1.27332
570 1.20624
575 1.01054
580 0.890545
585 0.789238
590 0.746565
595 0.568646
600 1.21976
Ex : 393
200 0.30368
205 0.26203
210 0.296889
215 0.28328
220 0.299053
225 0.332475
230 0.367363
235 0.393694
240 0.352517
245 0.337714
250 0.281154
255 0.324046
260 0.293396
265 0.397512
270 0.316713
275 0.373574
280 0.341689
285 0.300256
290 0.289065
295 0.335512
300 0.360789
305 0.309681
310 0.325347
315 0.354665
320 0.383869
325 0.420143
330 0.3611
335 0.49732
340 0.558383
345 0.602467
350 0.668418
355 0.813443
360 0.86864
365 1.2429
370 1.65182
375 2.77024
380 61.1682
385 1242.79
390 2094.98
395 563.168
400 75.1849
405 17.6432
410 12.9506
415 14.6755
420 14.2669
425 11.8338
430 10.3971
435 11.5397
440 13.7811
445 13.2403
450 11.2453
455 9.36172
460 8.18412
465 7.78799
470 7.04698
475 7.22817
480 6.60926
485 6.07242
490 5.39282
495 4.8122
500 4.59796
505 4.21784
510 3.85878
515 3.43738
520 2.95234
525 2.72475
530 2.70735
535 2.36563
540 2.12302
545 1.91471
550 1.76166
555 1.68674
560 1.46621
565 1.39473
570 1.16608
575 0.889529
580 0.833914
585 0.623565
590 0.543505
595 0.568077
600 0.389481
Ex : 398
200 0.245303
205 0.308972
210 0.301455
215 0.23073
220 0.292801
225 0.333075
230 0.253676
235 0.25476
240 0.274334
245 0.276772
250 0.293283
255 0.300562
260 0.26585
265 0.336654
270 0.289536
275 0.337283
280 0.329231
285 0.282244
290 0.329622
295 0.350419
300 0.396559
305 0.3509
310 0.285721
315 0.425004
320 0.39905
325 0.417691
330 0.398122
335 0.513785
340 0.467214
345 0.489521
350 0.636305
355 0.688292
360 0.826974
365 0.929038
370 1.19393
375 1.55497
380 2.74444
385 63.9753
390 1278.67
395 2155.69
400 572.715
405 73.2186
410 15.3306
415 10.4921
420 9.79068
425 8.1368
430 7.14784
435 7.18969
440 8.49771
445 10.8141
450 9.92071
455 7.91433
460 6.97118
465 6.09849
470 5.88823
475 5.6329
480 5.33249
485 4.79592
490 4.55011
495 4.25493
500 3.98961
505 3.84101
510 3.22094
515 3.10119
520 2.88761
525 2.46332
530 2.31548
535 2.23303
540 1.95806
545 1.84174
550 1.6477
555 1.56096
560 1.47203
565 1.17072
570 1.16216
575 0.947332
580 0.768464
585 0.672428
590 0.604628
595 0.483851
600 0.393097
Ex : 403
200 0.223079
205 0.265779
210 0.289261
215 0.302949
220 0.332836
225 0.246228
230 0.245655
235 0.300456
240 0.316697
245 0.304016
250 0.263156
255 0.316606
260 0.286833
265 0.296627
270 0.356346
275 0.301684
280 0.287964
285 0.308041
290 0.327232
295 0.312835
300 0.337562
305 0.283753
310 0.359281
315 0.383449
320 0.335984
325 0.375673
330 0.381672
335 0.380959
340 0.45673
345 0.46229
350 0.57411
355 0.628999
360 0.636017
365 0.846543
370 0.939453
375 1.07272
380 1.69894
385 2.91402
390 72.0691
395 1318.74
400 2158.69
405 581.211
410 72.8147
415 14.2325
420 7.39322
425 6.07872
430 5.6145
435 5.21431
440 5.65216
445 6.214
450 8.09954
455 7.9316
460 6.53949
465 6.04009
470 5.62108
475 5.31061
480 4.77681
485 4.3612
490 4.15998
495 4.11944
500 3.61865
505 3.47484
510 3.31669
515 2.99417
520 2.84802
525 2.51228
530 2.2803
535 2.20075
540 1.95002
545 1.66973
550 1.71157
555 1.5731
560 1.33611
565 1.19928
570 1.0486
575 0.855873
580 0.827329
585 0.628297
590 0.617705
595 0.650478
600 0.685711
Ex : 408
200 0.251665
205 0.218544
210 0.264883
215 0.287453
220 0.317104
225 0.30281
230 0.295196
235 0.253763
240 0.263377
245 0.290851
250 0.35004
255 0.294612
260 0.304911
265 0.390496
270 0.299603
275 0.253641
280 0.274581
285 0.318431
290 0.328869
295 0.367146
300 0.315887
305 0.348326
310 0.348994
315 0.323747
320 0.350146
325 0.429858
330 0.397326
335 0.377846
340 0.536506
345 0.514841
350 0.538109
355 0.577315
360 0.680225
365 0.641754
370 0.844503
375 0.932591
380 1.21635
385 1.7396
390 3.01906
395 69.0839
400 1345.88
405 2190.44
410 568.692
415 72.0034
420 14.0006
425 6.54828
430 5.93416
435 5.75028
440 5.66073
445 5.8126
450 5.72851
455 7.32193
460 8.268
465 6.81846
470 6.04373
475 5.71176
480 4.94354
485 4.4981
490 4.16308
495 4.0057
500 3.93229
505 3.62878
510 3.24531
515 3.28022
520 2.87648
525 2.5749
530 2.4343
535 2.2317
540 2.19206
545 1.84297
550 1.68323
555 1.5958
560 1.33322
565 1.13901
570 1.07823
575 0.997729
580 0.853173
585 0.604286
590 0.735738
595 0.531694
600 0.215665
Ex : 413
200 0.307808
205 0.259251
210 0.253985
215 0.225539
220 0.231894
225 0.254688
230 0.269779
235 0.272672
240 0.247305
245 0.287262
250 0.323324
255 0.339786
260 0.329694
265 0.282229
270 0.322262
275 0.327623
280 0.293852
285 0.295398
290 0.328923
295 0.307865
300 0.340268
305 0.303753
310 0.279427
315 0.254878
320 0.336747
325 0.317099
330 0.407302
335 0.370791
340 0.43949
345 0.467248
350 0.547476
355 0.529847
360 0.518849
365 0.522957
370 0.657544
375 0.784534
380 0.97739
385 1.29353
390 1.67882
395 3.13889
400 79.5515
405 1392.86
410 2207.82
415 556.904
420 70.0128
425 13.3352
430 6.30326
435 5.60539
440 5.4865
445 5.42602
450 5.10864
455 4.93203
460 5.96416
465 7.82566
470 6.65141
475 5.56273
480 4.92689
485 4.35674
490 3.96879
495 3.76296
500 3.54517
505 3.21936
510 3.07496
515 2.88139
520 2.76527
525 2.49903
530 2.20387
535 2.09221
540 1.78153
545 1.69656
550 1.6236
555 1.41219
560 1.34492
565 1.25844
570 1.09861
575 0.941441
580 0.740195
585 0.657505
590 0.602504
595 0.536368
600 0.651839
Ex : 418
200 0.243895
205 0.250598
210 0.289407
215 0.265028
220 0.255755
225 0.273781
230 0.244979
235 0.251088
240 0.246369
245 0.277407
250 0.250435
255 0.236651
260 0.248866
265 0.268886
270 0.2825
275 0.331503
280 0.277785
285 0.274703
290 0.286584
295 0.293081
300 0.215932
305 0.330905
310 0.334788
315 0.333942
320 0.30673
325 0.288814
330 0.426914
335 0.358945
340 0.43798
345 0.471397
350 0.517603
355 0.505445
360 0.497651
365 0.538649
370 0.563623
375 0.640889
380 0.777347
385 0.994127
390 1.24051
395 1.72973
400 2.95471
405 75.4729
410 1383.59
415 2225.26
420 578.905
425 71.4332
430 12.1773
435 5.19109
440 4.36319
445 4.25019
450 3.76879
455 3.48433
460 3.39404
465 4.10751
470 6.0318
475 5.86285
480 4.71737
485 4.25115
490 3.75577
495 3.12551
500 3.19559
505 3.11565
510 2.91781
515 2.57469
520 2.39516
525 2.21815
530 1.99438
535 1.98068
540 1.86058
545 1.58396
550 1.48657
555 1.35956
560 1.32236
565 1.05671
570 1.05693
575 0.929134
580 0.789858
585 0.668138
590 0.536752
595 0.494146
600 0.793763
Ex : 423
200 0.241595
205 0.240629
210 0.324567
215 0.22537
220 0.25259
225 0.308747
230 0.26586
235 0.288308
240 0.26912
245 0.301065
250 0.270535
255 0.25952
260 0.299968
265 0.271621
270 0.249361
275 0.256931
280 0.26456
285 0.324944
290 0.291634
295 0.291483
300 0.282176
305 0.285381
310 0.28956
315 0.292187
320 0.27321
325 0.331417
330 0.32711
335 0.400655
340 0.376678
345 0.475603
350 0.411991
355 0.469997
360 0.512536
365 0.563442
370 0.554682
375 0.580646
380 0.755019
385 0.826028
390 0.883834
395 1.26688
400 1.84081
405 2.94791
410 77.0739
415 1433.88
420 2213.57
425 549.277
430 67.3053
435 10.9516
440 4.17413
445 3.30094
450 3.10693
455 2.74324
460 2.66286
465 2.84681
470 3.08998
475 4.82556
480 5.47474
485 3.93033
490 3.71429
495 3.47092
500 2.80483
505 2.74426
510 2.47371
515 2.42071
520 2.22548
525 1.98625
530 1.9652
535 1.83712
540 1.67315
545 1.6912
550 1.50364
555 1.28429
560 1.16604
565 1.18184
570 0.959327
575 0.918241
580 0.824978
585 0.75043
590 0.61638
595 0.542977
600 0.258081
Ex : 428
200 0.281596
205 0.237173
210 0.236401
215 0.313055
220 0.334195
225 0.309299
230 0.262197
235 0.290204
240 0.231158
245 0.328134
250 0.32375
255 0.414248
260 0.233947
265 0.314478
270 0.325229
275 0.375953
280 0.355518
285 0.313426
290 0.300112
295 0.338777
300 0.333645
305 0.328417
310 0.318348
315 0.24756
320 0.259309
325 0.249601
330 0.363222
335 0.361538
340 0.393235
345 0.431418
350 0.356612
355 0.364764
360 0.435337
365 0.534467
370 0.491289
375 0.577909
380 0.595272
385 0.648334
390 0.794455
395 1.02089
400 1.29612
405 1.89662
410 3.1175
415 81.9624
420 1421
425 2235.24
430 573.254
435 69.5222
440 11.0165
445 3.92941
450 2.89238
455 2.70689
460 2.55398
465 2.41879
470 2.3224
475 2.6023
480 3.87075
485 5.24224
490 4.10298
495 3.41691
500 3.09124
505 2.73904
510 2.46634
515 2.19979
520 2.0102
525 2.03992
530 1.839
535 1.72199
540 1.59289
545 1.49613
550 1.46017
555 1.33959
560 1.24832
565 1.01153
570 1.00545
575 0.919003
580 0.760949
585 0.670979
590 0.553674
595 0.514234
600 0.488192
Ex : 433
200 0.254665
205 0.241308
210 0.26902
215 0.312447
220 0.257287
225 0.282718
230 0.323165
235 0.263502
240 0.262008
245 0.281798
250 0.217331
255 0.291904
260 0.273731
265 0.312771
270 0.28103
275 0.289169
280 0.288215
285 0.327474
290 0.288954
295 0.289773
300 0.278272
305 0.357062
310 0.323185
315 0.280064
320 0.297024
325 0.359622
330 0.381108
335 0.335362
340 0.420387
345 0.390076
350 0.439132
355 0.467712
360 0.438332
365 0.486058
370 0.566921
375 0.48187
380 0.542708
385 0.619634
390 0.758637
395 0.984795
400 1.03455
405 1.30958
410 1.93931
415 3.31157
420 91.2553
425 1532.4
430 2261.26
435 554.526
440 67.4186
445 10.5862
450 3.46626
455 3.04524
460 2.78887
465 2.55775
470 2.35926
475 2.32354
480 2.39036
485 3.25535
490 4.88978
495 4.44821
500 3.24014
505 2.90658
510 2.45624
515 2.07154
520 1.97563
525 2.14652
530 1.92841
535 1.7687
540 1.51224
545 1.49587
550 1.30032
555 1.3436
560 1.17141
565 1.16687
570 1.0396
575 0.818881
580 0.723036
585 0.655581
590 0.595657
595 0.482554
600 0.768715
Ex : 438
200 0.301557
205 0.320773
210 0.251762
215 0.233954
220 0.30642
225 0.329163
230 0.196723
235 0.304354
240 0.285915
245 0.292388
250 0.274932
255 0.329263
260 0.305505
265 0.265808
270 0.301241
275 0.280087
280 0.300606
285 0.309624
290 0.320178
295 0.338527
300 0.397905
305 0.329165
310 0.37707
315 0.3302
320 0.297649
325 0.360575
330 0.338735
335 0.356575
340 0.479077
345 0.35073
350 0.383018
355 0.438913
360 0.416041
365 0.536543
370 0.505199
375 0.555692
380 0.464767
385 0.59271
390 0.641523
395 0.716482
400 0.805923
405 1.10971
410 1.32433
415 1.84884
420 2.86064
425 88.5315
430 1507.62
435 2376.09
440 583.799
445 70.7462
450 11.1541
455 3.74219
460 3.04634
465 2.91286
470 2.48411
475 2.30885
480 2.24155
485 2.305
490 2.70057
495 4.18748
500 4.31422
505 3.24969
510 2.7221
515 2.5612
520 1.96743
525 1.82546
530 1.72539
535 1.7443
540 1.60605
545 1.59319
550 1.46505
555 1.37232
560 1.13932
565 1.11713
570 0.970129
575 0.811235
580 0.778638
585 0.669993
590 0.592667
595 0.518598
600 0.389463
Ex : 443
200 0.277471
205 0.309812
210 0.309124
215 0.244831
220 0.286028
225 0.309972
230 0.281494
235 0.265719
240 0.324886
245 0.289359
250 0.292513
255 0.264357
260 0.27496
265 0.306968
270 0.275125
275 0.266356
280 0.295816
285 0.27396
290 0.286051
295 0.27848
300 0.292921
305 0.267065
310 0.325865
315 0.29577
320 0.340961
325 0.32497
330 0.349444
335 0.385383
340 0.355301
345 0.453867
350 0.375156
355 0.443418
360 0.447543
365 0.419293
370 0.49439
375 0.521875
380 0.561598
385 0.576105
390 0.559563
395 0.737629
400 0.724412
405 0.914627
410 1.17474
415 1.37943
420 1.89574
425 3.14033
430 97.6482
435 1600.97
440 2382.54
445 580.862
450 70.5434
455 11.1464
460 3.75981
465 3.05685
470 2.78149
475 2.59758
480 2.15009
485 2.19012
490 2.07484
495 2.39749
500 3.67582
505 4.05295
510 3.27863
515 2.57534
520 2.4388
525 2.01512
530 1.83487
535 1.70544
540 1.62655
545 1.45669
550 1.30478
555 1.21005
560 1.16209
565 1.11144
570 1.00984
575 0.92756
580 0.70299
585 0.686795
590 0.693615
595 0.608665
600 0.591974
Ex : 448
200 0.290647
205 0.283391
210 0.291785
215 0.309618
220 0.254114
225 0.284708
230 0.282733
235 0.319699
240 0.288618
245 0.263158
250 0.320872
255 0.30339
260 0.347307
265 0.342542
270 0.26443
275 0.300067
280 0.298093
285 0.351198
290 0.29722
295 0.333973
300 0.38995
305 0.298156
310 0.297334
315 0.377867
320 0.302513
325 0.336599
330 0.358974
335 0.40688
340 0.432775
345 0.379193
350 0.439696
355 0.458375
360 0.458703
365 0.452601
370 0.435366
375 0.48267
380 0.448213
385 0.564436
390 0.569636
395 0.644964
400 0.665942
405 0.883825
410 0.94835
415 1.15561
420 1.35448
425 2.1045
430 3.06698
435 99.592
440 1678.35
445 2488.34
450 605.951
455 73.5197
460 11.6719
465 3.89009
470 2.91601
475 2.71865
480 2.44
485 2.04427
490 1.97806
495 1.98245
500 2.08579
505 2.78639
510 3.85476
515 3.66847
520 2.68766
525 2.34625
530 2.10314
535 1.68642
540 1.60893
545 1.4336
550 1.38684
555 1.22216
560 1.16639
565 1.07971
570 0.973294
575 0.923436
580 0.818825
585 0.679103
590 0.57066
595 0.578248
600 0.517886
Ex : 453
200 0.316622
205 0.261313
210 0.2576
215 0.256565
220 0.269841
225 0.268088
230 0.274923
235 0.296587
240 0.304394
245 0.307296
250 0.351539
255 0.281901
260 0.35086
265 0.289435
270 0.29793
275 0.287085
280 0.291829
285 0.328132
290 0.363023
295 0.328756
300 0.302917
305 0.254296
310 0.291938
315 0.315044
320 0.301829
325 0.348113
330 0.412433
335 0.336481
340 0.361796
345 0.370706
350 0.435192
355 0.363427
360 0.427598
365 0.4941
370 0.444531
375 0.389207
380 0.544793
385 0.522266
390 0.556592
395 0.657002
400 0.661543
405 0.600444
410 0.787665
415 0.874119
420 1.01076
425 1.32223
430 1.95771
435 3.25932
440 104.608
445 1805.42
450 2574.8
455 591.742
460 72.0069
465 11.671
470 3.74996
475 2.70706
480 2.62572
485 2.24705
490 1.89271
495 1.92181
500 1.71469
505 1.84067
510 2.27706
515 3.57201
520 3.53705
525 2.4424
530 2.15987
535 1.99142
540 1.75726
545 1.54644
550 1.35943
555 1.2772
560 1.18595
565 1.10507
570 0.909959
575 0.878704
580 0.846732
585 0.646543
590 0.647077
595 0.543924
600 0.504998
Ex : 458
200 0.294473
205 0.314887
210 0.334987
215 0.249932
220 0.276504
225 0.286717
230 0.269849
235 0.304111
240 0.337251
245 0.309359
250 0.285342
255 0.257558
260 0.286168
265 0.366937
270 0.286224
275 0.312876
280 0.304263
285 0.354318
290 0.324625
295 0.363302
300 0.346326
305 0.284223
310 0.31694
315 0.289614
320 0.314872
325 0.358314
330 0.418041
335 0.414819
340 0.422465
345 0.355653
350 0.38241
355 0.442493
360 0.392782
365 0.402304
370 0.514328
375 0.49674
380 0.493247
385 0.591427
390 0.515461
395 0.524669
400 0.590435
405 0.664682
410 0.738921
415 0.723183
420 0.856763
425 1.08185
430 1.35417
435 1.96705
440 3.09812
445 114.242
450 1846.02
455 2690.85
460 638.949
465 77.8221
470 12.0039
475 3.69084
480 2.60477
485 2.50717
490 2.20723
495 1.96138
500 1.75991
505 1.73648
510 1.76594
515 1.91636
520 3.19583
525 3.68254
530 2.66546
535 2.17599
540 1.93446
545 1.70647
550 1.4708
555 1.14921
560 1.25085
565 1.1859
570 1.12195
575 0.920832
580 0.890748
585 0.704172
590 0.646282
595 0.605067
600 0.797445
Ex : 463
200 0.236852
205 0.315759
210 0.266251
215 0.284969
220 0.287347
225 0.228247
230 0.281215
235 0.298029
240 0.323812
245 0.353617
250 0.296356
255 0.39276
260 0.300214
265 0.250996
270 0.262819
275 0.284254
280 0.273356
285 0.328766
290 0.298514
295 0.303266
300 0.360017
305 0.37277
310 0.362194
315 0.287266
320 0.338282
325 0.28663
330 0.326636
335 0.298418
340 0.38542
345 0.405522
350 0.292207
355 0.389736
360 0.364128
365 0.394165
370 0.40099
375 0.49272
380 0.406831
385 0.461783
390 0.492649
395 0.552386
400 0.522916
405 0.545648
410 0.701305
415 0.745693
420 0.723523
425 0.753343
430 1.1313
435 1.3702
440 1.83362
445 3.15607
450 110.57
455 1894.26
460 2847.29
465 670.988
470 81.1596
475 12.4087
480 3.70375
485 2.37137
490 2.37421
495 2.18262
500 1.95516
505 1.65857
510 1.78497
515 1.60208
520 1.88241
525 2.50103
530 3.62972
535 3.03212
540 2.13182
545 1.92099
550 1.75041
555 1.37576
560 1.26336
565 1.05452
570 1.05462
575 0.903029
580 0.814391
585 0.755068
590 0.606001
595 0.561696
600 0.927898
Ex : 468
200 0.249966
205 0.294691
210 0.271844
215 0.221067
220 0.283766
225 0.257674
230 0.257263
235 0.209324
240 0.287838
245 0.303483
250 0.279076
255 0.307914
260 0.27994
265 0.343545
270 0.289103
275 0.272371
280 0.314065
285 0.327269
290 0.309943
295 0.299264
300 0.303275
305 0.318615
310 0.264578
315 0.285427
320 0.236357
325 0.294171
330 0.259501
335 0.327938
340 0.319593
345 0.42565
350 0.323015
355 0.460174
360 0.386905
365 0.372113
370 0.413605
375 0.411759
380 0.431275
385 0.484238
390 0.483917
395 0.519429
400 0.51319
405 0.530751
410 0.538814
415 0.555812
420 0.726586
425 0.749279
430 0.7876
435 0.925849
440 1.41098
445 1.96552
450 3.05284
455 119.229
460 1916.87
465 2968.18
470 697.564
475 83.4855
480 12.5102
485 3.62021
490 2.43233
495 2.36652
500 2.13794
505 1.78399
510 1.62879
515 1.69371
520 1.64855
525 1.63701
530 2.1621
535 3.13718
540 3.15675
545 2.25981
550 1.91842
555 1.69398
560 1.34665
565 1.19645
570 1.01383
575 0.974304
580 0.814302
585 0.801459
590 0.662666
595 0.546572
600 0.648875
Ex : 473
200 0.295694
205 0.268942
210 0.286481
215 0.261123
220 0.379111
225 0.280402
230 0.252537
235 0.328518
240 0.323482
245 0.252782
250 0.303621
255 0.264427
260 0.272924
265 0.333527
270 0.265929
275 0.283745
280 0.300857
285 0.270103
290 0.286764
295 0.275688
300 0.273139
305 0.34454
310 0.321204
315 0.246204
320 0.337417
325 0.248937
330 0.253643
335 0.338156
340 0.330455
345 0.322412
350 0.36864
355 0.325839
360 0.330844
365 0.409583
370 0.427
375 0.411304
380 0.430082
385 0.471405
390 0.463619
395 0.498623
400 0.555279
405 0.472813
410 0.568556
415 0.547302
420 0.622502
425 0.682112
430 0.825778
435 0.94034
440 1.06275
445 1.40967
450 2.05469
455 3.21751
460 138.271
465 2097.14
470 2887.4
475 653.962
480 78.5934
485 11.8543
490 3.68668
495 2.17878
500 2.05123
505 2.05209
510 1.83087
515 1.71413
520 1.66893
525 1.71052
530 1.70654
535 1.92161
540 2.76216
545 3.0873
550 2.19456
555 1.75092
560 1.60459
565 1.30807
570 1.10129
575 0.958514
580 0.797225
585 0.707835
590 0.684753
595 0.651711
600 0.575289
Ex : 478
200 0.316654
205 0.283045
210 0.331918
215 0.336219
220 0.294045
225 0.273309
230 0.361992
235 0.385707
240 0.320129
245 0.30602
250 0.32057
255 0.309705
260 0.305022
265 0.379602
270 0.345585
275 0.360394
280 0.304277
285 0.418461
290 0.359666
295 0.361333
300 0.325064
305 0.411124
310 0.358891
315 0.363479
320 0.308237
325 0.324553
330 0.396188
335 0.411394
340 0.3839
345 0.382023
350 0.374921
355 0.49019
360 0.446743
365 0.492323
370 0.465944
375 0.442444
380 0.454686
385 0.475925
390 0.441829
395 0.565504
400 0.593249
405 0.583959
410 0.635778
415 0.600232
420 0.653674
425 0.73929
430 0.766467
435 0.88987
440 0.977647
445 1.25793
450 1.63182
455 2.40391
460 4.02099
465 153.909
470 2152.65
475 2934.29
480 692.684
485 83.2984
490 12.7149
495 3.7704
500 2.33511
505 2.27193
510 2.03808
515 1.85537
520 1.83471
525 1.73072
530 1.65945
535 1.64389
540 1.6677
545 2.21328
550 2.8563
555 2.23472
560 1.71887
565 1.55329
570 1.34369
575 1.09148
580 0.868965
585 0.755734
590 0.734656
595 0.678077
600 1.32459
Ex : 483
200 0.348163
205 0.382058
210 0.314451
215 0.311809
220 0.390041
225 0.38666
230 0.307813
235 0.294573
240 0.291297
245 0.356255
250 0.342007
255 0.354164
260 0.331249
265 0.402304
270 0.29436
275 0.321517
280 0.432567
285 0.343087
290 0.286371
295 0.323582
300 0.382069
305 0.278552
310 0.334007
315 0.359699
320 0.391939
325 0.368235
330 0.335935
335 0.402282
340 0.407427
345 0.428226
350 0.39243
355 0.443564
360 0.394228
365 0.456464
370 0.448462
375 0.462073
380 0.444103
385 0.515387
390 0.529143
395 0.456852
400 0.564322
405 0.509899
410 0.578646
415 0.527535
420 0.662647
425 0.654522
430 0.699094
435 0.777012
440 0.960152
445 1.06496
450 1.30469
455 1.78991
460 2.42099
465 4.04183
470 119.98
475 2116.99
480 3142.34
485 735.394
490 87.9436
495 13.0286
500 3.60943
505 2.13925
510 2.0209
515 2.24898
520 1.98669
525 1.91636
530 1.82149
535 1.75781
540 1.63232
545 1.60551
550 1.67754
555 2.52698
560 2.6188
565 1.84303
570 1.38416
575 1.23513
580 1.18479
585 0.701918
590 0.690806
595 0.745662
600 0.540799
Ex : 488
200 0.351197
205 0.383851
210 0.354712
215 0.28629
220 0.324648
225 0.37676
230 0.364012
235 0.353749
240 0.40456
245 0.329561
250 0.443783
255 0.335703
260 0.366786
265 0.3525
270 0.434674
275 0.403433
280 0.317264
285 0.34367
290 0.397759
295 0.352675
300 0.362397
305 0.35041
310 0.340095
315 0.453547
320 0.424665
325 0.361986
330 0.41264
335 0.401046
340 0.39976
345 0.386864
350 0.429248
355 0.422444
360 0.432417
365 0.453136
370 0.508654
375 0.488558
380 0.530851
385 0.634815
390 0.493558
395 0.57862
400 0.628695
405 0.56086
410 0.527547
415 0.629686
420 0.682878
425 0.690558
430 0.771206
435 0.826064
440 0.788676
445 0.912071
450 1.06651
455 1.33297
460 1.89718
465 2.91556
470 4.25789
475 144.857
480 2271.95
485 3083.73
490 705.775
495 84.8999
500 12.5912
505 3.72013
510 2.20395
515 2.11902
520 2.20935
525 2.1884
530 1.9346
535 1.81882
540 1.73708
545 1.47988
550 1.63466
555 1.60466
560 2.04246
565 2.48694
570 1.88403
575 1.34354
580 1.09672
585 0.988127
590 0.779673
595 0.79001
600 0.96181
Ex : 493
200 0.349245
205 0.358259
210 0.288828
215 0.393512
220 0.289523
225 0.274785
230 0.368822
235 0.347418
240 0.349837
245 0.370703
250 0.360584
255 0.332678
260 0.312082
265 0.373026
270 0.365719
275 0.309593
280 0.318519
285 0.307875
290 0.321467
295 0.378609
300 0.372563
305 0.376818
310 0.406532
315 0.381146
320 0.426775
325 0.410363
330 0.478175
335 0.434737
340 0.495747
345 0.37129
350 0.424223
355 0.424846
360 0.41482
365 0.428451
370 0.409157
375 0.436784
380 0.460533
385 0.499653
390 0.483508
395 0.595693
400 0.574033
405 0.560445
410 0.636654
415 0.503703
420 0.589093
425 0.548084
430 0.705493
435 0.710378
440 0.780557
445 0.904196
450 0.993343
455 1.19107
460 1.47149
465 1.97205
470 2.72386
475 3.93053
480 132.648
485 2233.9
490 3238.58
495 725.954
500 86.7915
505 12.6268
510 3.75327
515 2.2799
520 2.37965
525 2.18676
530 1.90367
535 1.85011
540 1.86819
545 1.59057
550 1.55489
555 1.40531
560 1.35534
565 1.56335
570 2.32223
575 1.85605
580 1.21688
585 0.965157
590 0.935525
595 0.919188
600 0.814269
Ex : 498
200 0.345563
205 0.339654
210 0.404834
215 0.409392
220 0.305268
225 0.391315
230 0.399259
235 0.397747
240 0.364473
245 0.379458
250 0.328207
255 0.371868
260 0.422362
265 0.343496
270 0.394719
275 0.461255
280 0.387223
285 0.346456
290 0.415939
295 0.466702
300 0.473615
305 0.371788
310 0.436868
315 0.472562
320 0.414106
325 0.43415
330 0.493261
335 0.410838
340 0.453224
345 0.404003
350 0.467269
355 0.543697
360 0.41812
365 0.511585
370 0.557826
375 0.499658
380 0.455013
385 0.494033
390 0.576779
395 0.638224
400 0.637255
405 0.546127
410 0.624732
415 0.678166
420 0.579947
425 0.636923
430 0.672023
435 0.748444
440 0.750059
445 0.752407
450 1.01148
455 1.10312
460 1.19389
465 1.60893
470 2.04736
475 2.59244
480 4.27322
485 160.613
490 2349.74
495 3120.49
500 705.136
505 84.6627
510 12.4339
515 3.8523
520 2.4842
525 2.42495
530 2.11252
535 2.10438
540 1.9222
545 1.71189
550 1.67119
555 1.57118
560 1.43165
565 1.38734
570 1.45276
575 1.65515
580 1.63175
585 1.23326
590 0.854051
595 0.938541
600 0.867526
Ex : 503
200 0.447068
205 0.401674
210 0.47626
215 0.551569
220 0.399889
225 0.399288
230 0.479583
235 0.460526
240 0.421165
245 0.469976
250 0.384666
255 0.409499
260 0.466127
265 0.43797
270 0.456612
275 0.426789
280 0.39283
285 0.358512
290 0.330919
295 0.367751
300 0.479643
305 0.429997
310 0.455934
315 0.411587
320 0.458296
325 0.392212
330 0.463821
335 0.463559
340 0.522159
345 0.523257
350 0.473686
355 0.468034
360 0.512209
365 0.486506
370 0.427321
375 0.466016
380 0.554972
385 0.488491
390 0.570665
395 0.624274
400 0.570487
405 0.593306
410 0.637354
415 0.697488
420 0.731635
425 0.745279
430 0.718996
435 0.800222
440 0.800884
445 0.815015
450 0.867151
455 0.935671
460 1.21141
465 1.41636
470 1.57172
475 1.97119
480 2.67205
485 4.38171
490 145.933
495 2316.89
500 3198.04
505 718.884
510 86.5267
515 12.6243
520 3.95894
525 2.51315
530 2.25079
535 2.14149
540 2.01318
545 1.98174
550 1.58339
555 1.41855
560 1.36881
565 1.24196
570 1.27198
575 1.06025
580 1.41852
585 1.62644
590 1.23567
595 0.833105
600 0.508645
Ex : 508
200 0.402283
205 0.413556
210 0.34458
215 0.439446
220 0.472113
225 0.470774
230 0.345403
235 0.397609
240 0.441635
245 0.4763
250 0.383612
255 0.383453
260 0.416621
265 0.37806
270 0.38815
275 0.383214
280 0.485157
285 0.485184
290 0.375187
295 0.456902
300 0.449722
305 0.452187
310 0.405397
315 0.477402
320 0.475018
325 0.45363
330 0.470508
335 0.492475
340 0.401915
345 0.396564
350 0.527797
355 0.476062
360 0.566641
365 0.615953
370 0.458609
375 0.468651
380 0.507696
385 0.49036
390 0.501919
395 0.602593
400 0.588747
405 0.566206
410 0.674896
415 0.503849
420 0.619581
425 0.676697
430 0.6691
435 0.638055
440 0.752356
445 0.804316
450 0.774336
455 0.882451
460 1.03357
465 1.17173
470 1.53591
475 1.63717
480 1.96161
485 2.57987
490 4.2688
495 153.474
500 2310.86
505 3168.56
510 748.278
515 89.8665
520 13.5334
525 4.08602
530 2.68774
535 2.06879
540 1.9601
545 1.93553
550 1.89415
555 1.5717
560 1.40232
565 1.33509
570 1.1878
575 1.12972
580 1.09387
585 1.0533
590 1.32211
595 1.23436
600 0.613391
Ex : 513
200 0.321904
205 0.404528
210 0.418361
215 0.472638
220 0.436758
225 0.397964
230 0.374433
235 0.417813
240 0.351554
245 0.36578
250 0.396729
255 0.424257
260 0.444896
265 0.360863
270 0.469028
275 0.487509
280 0.383255
285 0.366318
290 0.379384
295 0.401306
300 0.364372
305 0.487197
310 0.410008
315 0.442484
320 0.475198
325 0.371666
330 0.445419
335 0.448568
340 0.518604
345 0.518345
350 0.428371
355 0.403314
360 0.509634
365 0.551183
370 0.547469
375 0.542465
380 0.458943
385 0.527043
390 0.56123
395 0.531018
400 0.485742
405 0.534076
410 0.604373
415 0.666276
420 0.606946
425 0.738587
430 0.641063
435 0.61935
440 0.85113
445 0.914675
450 0.835841
455 0.883281
460 0.963324
465 1.10373
470 1.21355
475 1.48174
480 1.7791
485 2.09526
490 2.79992
495 3.87386
500 140.488
505 2249.75
510 3185.76
515 762.222
520 91.4417
525 13.5712
530 4.13012
535 2.48134
540 2.14651
545 1.85794
550 1.76492
555 1.59482
560 1.48378
565 1.35056
570 1.22998
575 1.08538
580 0.972576
585 0.921002
590 0.954635
595 1.10486
600 1.09697
Ex : 518
200 0.388429
205 0.375163
210 0.399241
215 0.354478
220 0.385643
225 0.392103
230 0.378081
235 0.36487
240 0.362348
245 0.403942
250 0.392719
255 0.453707
260 0.448324
265 0.459506
270 0.370738
275 0.425213
280 0.400298
285 0.402969
290 0.466491
295 0.405135
300 0.429929
305 0.452924
310 0.349776
315 0.382535
320 0.508064
325 0.47711
330 0.472056
335 0.423448
340 0.504075
345 0.554153
350 0.581013
355 0.421284
360 0.512316
365 0.548015
370 0.499663
375 0.556246
380 0.517449
385 0.532033
390 0.543162
395 0.640799
400 0.533964
405 0.608036
410 0.551298
415 0.522933
420 0.526316
425 0.584482
430 0.645062
435 0.744168
440 0.735146
445 0.727051
450 0.745677
455 0.778735
460 0.857372
465 0.981889
470 1.0814
475 1.10611
480 1.2932
485 1.65697
490 2.03406
495 2.64188
500 4.07999
505 141.19
510 2176.03
515 3151.84
520 760.123
525 90.9998
530 13.3525
535 3.82566
540 2.54681
545 2.17544
550 1.79383
555 1.75039
560 1.60038
565 1.57344
570 1.14438
575 1.15152
580 1.06485
585 0.844207
590 0.807749
595 0.802953
600 0.17907
Ex : 523
200 0.348325
205 0.377239
210 0.467205
215 0.458272
220 0.427787
225 0.465751
230 0.449254
235 0.461452
240 0.391846
245 0.431749
250 0.415231
255 0.453991
260 0.435028
265 0.387279
270 0.479001
275 0.435431
280 0.480913
285 0.491968
290 0.468704
295 0.38151
300 0.33583
305 0.43476
310 0.444356
315 0.43925
320 0.461964
325 0.50738
330 0.483894
335 0.406781
340 0.427103
345 0.495339
350 0.496405
355 0.467827
360 0.525177
365 0.588654
370 0.506445
375 0.467194
380 0.497347
385 0.46933
390 0.513403
395 0.512225
400 0.721664
405 0.681664
410 0.571905
415 0.618588
420 0.620822
425 0.667054
430 0.763775
435 0.712028
440 0.733429
445 0.775152
450 0.681171
455 0.72621
460 0.867768
465 1.06096
470 1.02091
475 1.09365
480 1.064
485 1.26701
490 1.56081
495 2.01499
500 2.64699
505 4.05581
510 128.471
515 2094.56
520 3099.54
525 778.126
530 93.0547
535 13.4876
540 3.84832
545 2.47233
550 2.09846
555 1.74348
560 1.65155
565 1.51316
570 1.3042
575 1.19506
580 1.00795
585 0.779382
590 1.0351
595 0.785964
600 0.259138
Ex : 528
200 0.454257
205 0.380174
210 0.470822
215 0.338349
220 0.474083
225 0.504527
230 0.42881
235 0.493485
240 0.457839
245 0.418614
250 0.450136
255 0.488513
260 0.574104
265 0.575534
270 0.443243
275 0.412822
280 0.493025
285 0.45382
290 0.390793
295 0.435328
300 0.463093
305 0.461752
310 0.523996
315 0.43048
320 0.499476
325 0.408042
330 0.433918
335 0.549949
340 0.574964
345 0.604607
350 0.623383
355 0.545842
360 0.605819
365 0.566801
370 0.557982
375 0.538408
380 0.539385
385 0.547515
390 0.47317
395 0.597025
400 0.630301
405 0.57037
410 0.488101
415 0.594661
420 0.65109
425 0.621432
430 0.754983
435 0.606845
440 0.745367
445 0.851569
450 0.718319
455 0.743181
460 0.848609
465 0.828222
470 0.893275
475 0.950803
480 1.01111
485 1.01243
490 1.1641
495 1.50508
500 1.94709
505 2.72362
510 4.02589
515 119.776
520 2046.49
525 3020.71
530 749.204
535 89.6435
540 13.0451
545 3.6701
550 2.28038
555 1.8144
560 1.64376
565 1.54657
570 1.32646
575 1.22197
580 0.987682
585 0.973292
590 0.826759
595 0.748544
600 0.762007
Ex : 533
200 0.478509
205 0.556032
210 0.59461
215 0.487644
220 0.527673
225 0.462325
230 0.547961
235 0.507028
240 0.548709
245 0.469863
250 0.518771
255 0.3694
260 0.541575
265 0.459324
270 0.51778
275 0.675057
280 0.587974
285 0.424408
290 0.41651
295 0.433015
300 0.589617
305 0.498288
310 0.509825
315 0.460538
320 0.42024
325 0.491349
330 0.452753
335 0.585247
340 0.617469
345 0.534877
350 0.590672
355 0.608059
360 0.557348
365 0.516714
370 0.614479
375 0.549695
380 0.52728
385 0.599768
390 0.673514
395 0.60646
400 0.579027
405 0.561166
410 0.688915
415 0.658786
420 0.674201
425 0.577371
430 0.720456
435 0.709677
440 0.618854
445 0.786147
450 0.816238
455 0.775572
460 0.956598
465 0.910104
470 0.893724
475 0.849548
480 1.03482
485 0.922505
490 1.22374
495 1.34434
500 1.47063
505 1.6795
510 2.51618
515 3.81566
520 118.124
525 1973.09
530 2967.47
535 758.621
540 90.6292
545 12.9536
550 3.51904
555 2.40682
560 1.6587
565 1.41159
570 1.24989
575 1.19298
580 1.18442
585 0.930856
590 0.787094
595 0.832237
600 0.540339
Ex : 538
200 0.462379
205 0.672018
210 0.577208
215 0.529952
220 0.503912
225 0.489549
230 0.465329
235 0.489561
240 0.442773
245 0.570697
250 0.492575
255 0.540315
260 0.633554
265 0.454632
270 0.587119
275 0.530237
280 0.524147
285 0.42666
290 0.386951
295 0.450519
300 0.47366
305 0.520065
310 0.548165
315 0.43594
320 0.388499
325 0.487879
330 0.528777
335 0.621146
340 0.515169
345 0.506237
350 0.580504
355 0.576623
360 0.523596
365 0.435325
370 0.58404
375 0.650468
380 0.50919
385 0.651684
390 0.470972
395 0.656044
400 0.582667
405 0.571717
410 0.597912
415 0.489301
420 0.725921
425 0.703702
430 0.665272
435 0.610691
440 0.722572
445 0.543738
450 0.729032
455 0.707703
460 0.875402
465 0.83733
470 0.766625
475 0.843932
480 0.93752
485 0.945633
490 0.995699
495 1.10273
500 1.26335
505 1.41565
510 1.87579
515 2.46269
520 3.64498
525 101.789
530 1875.62
535 2957.91
540 786.711
545 93.8826
550 13.1316
555 3.55427
560 2.08463
565 1.53004
570 1.349
575 1.26136
580 1.1425
585 1.13667
590 0.883994
595 0.766787
600 0.795172
Ex : 543
200 0.443089
205 0.426321
210 0.424849
215 0.479698
220 0.486235
225 0.411442
230 0.498251
235 0.568868
240 0.477995
245 0.520851
250 0.463124
255 0.392619
260 0.514073
265 0.427816
270 0.466615
275 0.396421
280 0.50351
285 0.403637
290 0.425623
295 0.349099
300 0.461703
305 0.50259
310 0.55827
315 0.439931
320 0.507084
325 0.504881
330 0.597401
335 0.51824
340 0.536131
345 0.666629
350 0.525962
355 0.536004
360 0.539532
365 0.636026
370 0.59059
375 0.584363
380 0.535027
385 0.556131
390 0.632316
395 0.660062
400 0.541481
405 0.584538
410 0.599399
415 0.748933
420 0.485472
425 0.522012
430 0.647227
435 0.663467
440 0.711241
445 0.672082
450 0.665522
455 0.775844
460 0.840684
465 0.872778
470 0.841418
475 0.941847
480 0.931374
485 0.868117
490 1.03993
495 1.05779
500 1.09044
505 1.17705
510 1.42514
515 1.78628
520 2.57481
525 3.39657
530 91.2751
535 1788.68
540 2918.45
545 791.201
550 94.8498
555 13.3163
560 3.32164
565 2.04011
570 1.35383
575 1.08697
580 1.06154
585 1.04809
590 1.0087
595 0.888692
600 1.51051
Ex : 548
200 0.423407
205 0.442863
210 0.467644
215 0.431189
220 0.473688
225 0.519581
230 0.381675
235 0.430227
240 0.637334
245 0.434039
250 0.465121
255 0.587406
260 0.485916
265 0.46326
270 0.545481
275 0.486882
280 0.580228
285 0.432788
290 0.462732
295 0.691576
300 0.534302
305 0.482336
310 0.459248
315 0.459097
320 0.452969
325 0.508172
330 0.537215
335 0.540367
340 0.499077
345 0.612195
350 0.514421
355 0.645136
360 0.587328
365 0.562433
370 0.554232
375 0.552866
380 0.552819
385 0.513714
390 0.648422
395 0.601947
400 0.754827
405 0.562848
410 0.645382
415 0.630814
420 0.74688
425 0.690107
430 0.62363
435 0.782595
440 0.725754
445 0.712329
450 0.860507
455 0.783054
460 0.964019
465 0.974881
470 0.876693
475 0.93306
480 0.771363
485 0.892328
490 0.796509
495 0.895247
500 0.897098
505 1.16709
510 1.24506
515 1.41885
520 1.91856
525 2.38791
530 3.45782
535 100.391
540 1787.72
545 2823.37
550 773.232
555 92.3851
560 12.7905
565 3.02674
570 1.83348
575 1.35868
580 1.23791
585 0.820943
590 0.985868
595 0.957995
600 2.0919
Ex : 553
200 0.511901
205 0.401944
210 0.490824
215 0.538791
220 0.477383
225 0.445176
230 0.463359
235 0.491736
240 0.486282
245 0.49796
250 0.547619
255 0.504255
260 0.546464
265 0.526166
270 0.492991
275 0.53911
280 0.498653
285 0.41893
290 0.457152
295 0.537726
300 0.448365
305 0.49515
310 0.482435
315 0.428333
320 0.522739
325 0.543243
330 0.560093
335 0.473446
340 0.45538
345 0.581306
350 0.550802
355 0.677121
360 0.506554
365 0.565687
370 0.54321
375 0.577948
380 0.533411
385 0.517085
390 0.594379
395 0.671508
400 0.739905
405 0.84875
410 0.603123
415 0.580062
420 0.486757
425 0.722367
430 0.593173
435 0.702043
440 0.591266
445 0.728609
450 0.704798
455 0.72645
460 0.879178
465 0.814987
470 0.802365
475 0.791222
480 0.842596
485 0.79418
490 0.872593
495 0.911514
500 0.92498
505 1.11999
510 1.10338
515 1.09938
520 1.55437
525 1.90594
530 2.33159
535 3.25633
540 84.911
545 1676.45
550 2777.33
555 767.492
560 92.0795
565 12.6507
570 3.10248
575 1.75548
580 1.17428
585 1.03935
590 0.833459
595 0.940336
600 1.00465
Ex : 558
200 0.466719
205 0.485065
210 0.56273
215 0.668196
220 0.521745
225 0.499369
230 0.523316
235 0.423795
240 0.449374
245 0.677837
250 0.516064
255 0.544609
260 0.610436
265 0.568603
270 0.510075
275 0.540279
280 0.47364
285 0.465909
290 0.521868
295 0.509943
300 0.365275
305 0.475525
310 0.450194
315 0.470022
320 0.517013
325 0.532483
330 0.489774
335 0.564836
340 0.640831
345 0.550328
350 0.465638
355 0.586157
360 0.675553
365 0.602106
370 0.784232
375 0.664842
380 0.511183
385 0.523364
390 0.66745
395 0.563217
400 0.629162
405 0.517249
410 0.744904
415 0.66123
420 0.677099
425 0.582358
430 0.681701
435 0.735332
440 0.680354
445 0.666151
450 0.6745
455 0.639891
460 0.860475
465 0.883848
470 0.900444
475 0.733691
480 0.913899
485 0.846818
490 0.825763
495 0.921791
500 0.911703
505 0.852878
510 1.00048
515 0.994961
520 1.15176
525 1.43117
530 1.80966
535 2.37989
540 3.36622
545 79.5241
550 1578.24
555 2686.69
560 759.157
565 90.6104
570 12.4326
575 3.2381
580 1.72638
585 1.14501
590 1.04795
595 0.886986
600 1.30617
Ex : 563
200 0.402868
205 0.566179
210 0.45039
215 0.50985
220 0.683575
225 0.534357
230 0.498334
235 0.583999
240 0.50583
245 0.409053
250 0.502857
255 0.558735
260 0.526712
265 0.530482
270 0.59247
275 0.632831
280 0.553121
285 0.588101
290 0.620472
295 0.611901
300 0.536508
305 0.454661
310 0.597736
315 0.523374
320 0.484322
325 0.555986
330 0.531859
335 0.626388
340 0.604525
345 0.502476
350 0.715499
355 0.569752
360 0.555971
365 0.499482
370 0.582143
375 0.649939
380 0.661347
385 0.564139
390 0.520025
395 0.648027
400 0.677754
405 0.723377
410 0.670295
415 0.668294
420 0.717818
425 0.629509
430 0.606505
435 0.702417
440 0.667488
445 0.720853
450 0.701612
455 0.746059
460 0.924906
465 0.787486
470 0.703933
475 0.792549
480 0.93166
485 0.835912
490 0.755642
495 0.836145
500 0.925802
505 1.00932
510 0.924087
515 0.971044
520 1.18841
525 1.26485
530 1.38798
535 1.6759
540 2.18226
545 3.32937
550 77.733
555 1521.99
560 2575.29
565 732.211
570 87.8261
575 12.0784
580 2.8738
585 1.5183
590 1.19984
595 1.07892
600 0.850075
Ex : 568
200 0.81998
205 0.501208
210 0.470398
215 0.499865
220 0.506996
225 0.572852
230 0.400706
235 0.480417
240 0.636574
245 0.522599
250 0.516428
255 0.569147
260 0.476208
265 0.57044
270 0.567809
275 0.473851
280 0.544505
285 0.473554
290 0.626677
295 0.582978
300 0.559345
305 0.536153
310 0.661358
315 0.457151
320 0.606842
325 0.571612
330 0.596253
335 0.476427
340 0.647572
345 0.588145
350 0.612087
355 0.576703
360 0.57528
365 0.646453
370 0.588168
375 0.519033
380 0.548321
385 0.691093
390 0.643851
395 0.668208
400 0.687075
405 0.604309
410 0.572814
415 0.602813
420 0.599321
425 0.731951
430 0.642675
435 0.757371
440 0.625667
445 0.689301
450 0.662491
455 0.696183
460 0.691297
465 0.870028
470 0.892219
475 0.881583
480 0.852747
485 0.778341
490 0.765123
495 0.817795
500 0.801423
505 0.816096
510 0.876952
515 0.969637
520 1.1121
525 1.19388
530 1.29873
535 1.36916
540 1.57751
545 2.19746
550 3.40692
555 57.5565
560 1372.67
565 2501.72
570 746.993
575 89.8273
580 12.0852
585 2.84267
590 1.64305
595 1.21574
600 1.19546
Ex : 573
200 0.651804
205 0.399068
210 0.509364
215 0.589902
220 0.517535
225 0.642563
230 0.558792
235 0.587833
240 0.494657
245 0.504046
250 0.503547
255 0.493427
260 0.537955
265 0.476112
270 0.632517
275 0.521048
280 0.477113
285 0.464109
290 0.628916
295 0.467836
300 0.524857
305 0.563076
310 0.544129
315 0.511762
320 0.495546
325 0.743888
330 0.661325
335 0.575437
340 0.588318
345 0.678421
350 0.515458
355 0.672052
360 0.560285
365 0.54868
370 0.519009
375 0.628231
380 0.663684
385 0.702732
390 0.704307
395 0.684314
400 0.607303
405 0.75867
410 0.658003
415 0.61432
420 0.577287
425 0.650992
430 0.694392
435 0.619255
440 0.857395
445 0.720666
450 0.820563
455 0.690347
460 0.803803
465 0.895042
470 1.02977
475 0.85914
480 0.872269
485 0.824407
490 0.824138
495 0.728755
500 0.786231
505 0.800202
510 0.917462
515 0.984741
520 1.04425
525 0.924021
530 1.14153
535 1.04817
540 1.29898
545 1.48454
550 2.08551
555 3.14186
560 51.1283
565 1192.78
570 2313.34
575 705.851
580 84.5977
585 11.1993
590 2.43787
595 1.33275
600 0.772004
Ex : 578
200 0.597865
205 0.536637
210 0.527947
215 0.506547
220 0.388787
225 0.498117
230 0.519353
235 0.43812
240 0.469384
245 0.615767
250 0.42139
255 0.598624
260 0.544283
265 0.633568
270 0.502544
275 0.552147
280 0.396697
285 0.508911
290 0.408298
295 0.492037
300 0.483996
305 0.460446
310 0.550957
315 0.503231
320 0.686056
325 0.598701
330 0.554695
335 0.491697
340 0.557424
345 0.658234
350 0.740038
355 0.608075
360 0.772457
365 0.600192
370 0.672311
375 0.478893
380 0.670227
385 0.588846
390 0.503254
395 0.522406
400 0.672986
405 0.579163
410 0.630652
415 0.68491
420 0.698426
425 0.59951
430 0.711943
435 0.543356
440 0.706431
445 0.851637
450 0.903686
455 0.703101
460 0.753876
465 0.817541
470 0.9073
475 0.78097
480 0.793467
485 0.718068
490 0.855279
495 0.79752
500 0.841906
505 0.905513
510 0.982839
515 0.853651
520 0.802321
525 1.01226
530 0.954592
535 1.03971
540 1.25813
545 1.38818
550 1.59311
555 2.12371
560 3.01612
565 44.8086
570 1063.58
575 2015.01
580 604.092
585 72.4769
590 9.90649
595 2.29176
600 1.12686
Ex : 583
200 0.584313
205 0.556129
210 0.480449
215 0.4357
220 0.487001
225 0.698024
230 0.630464
235 0.624611
240 0.529454
245 0.571553
250 0.429407
255 0.502045
260 0.529674
265 0.677558
270 0.622485
275 0.568285
280 0.57333
285 0.591612
290 0.672761
295 0.452972
300 0.57934
305 0.483601
310 0.46764
315 0.537034
320 0.471361
325 0.466651
330 0.429325
335 0.491793
340 0.671714
345 0.589166
350 0.515081
355 0.477173
360 0.48423
365 0.631136
370 0.57287
375 0.661645
380 0.557465
385 0.682232
390 0.647515
395 0.641984
400 0.579739
405 0.673542
410 0.5948
415 0.924355
420 0.857812
425 0.594153
430 0.625917
435 0.739167
440 0.646969
445 0.759902
450 0.667437
455 0.667085
460 0.679242
465 0.71569
470 0.735487
475 0.736201
480 0.679744
485 0.807856
490 0.722896
495 0.775842
500 0.756478
505 0.710944
510 0.798715
515 0.807333
520 0.848793
525 0.957878
530 0.90758
535 0.979961
540 0.903341
545 1.26506
550 1.24467
555 1.39439
560 1.865
565 2.526
570 36.9711
575 952.318
580 1757.57
585 500.647
590 60.2384
595 8.053
600 2.15027
Ex : 588
200 0.569548
205 0.491516
210 0.36945
215 0.511829
220 0.436977
225 0.473282
230 0.605648
235 0.496285
240 0.725965
245 0.562177
250 0.671569
255 0.702885
260 0.533668
265 0.532484
270 0.75927
275 0.54166
280 0.424781
285 0.461562
290 0.600779
295 0.552852
300 0.621358
305 0.544525
310 0.592977
315 0.545211
320 0.694656
325 0.466443
330 0.559022
335 0.579242
340 0.59835
345 0.686706
350 0.65213
355 0.708111
360 0.67382
365 0.667934
370 0.667207
375 0.521914
380 0.597858
385 0.50552
390 0.620904
395 0.794648
400 0.691622
405 0.797677
410 0.587524
415 0.659873
420 0.643465
425 0.576126
430 0.643102
435 0.552064
440 0.753303
445 0.730778
450 0.534217
455 0.653068
460 0.816203
465 0.820184
470 0.668967
475 0.653885
480 0.872965
485 0.735593
490 0.846192
495 0.694974
500 0.806236
505 0.829597
510 0.748577
515 0.729635
520 0.793015
525 0.826305
530 0.868185
535 0.936711
540 0.886453
545 1.13358
550 0.951876
555 1.24116
560 1.34455
565 1.52823
570 2.40892
575 33.3821
580 789.696
585 1482.17
590 437.585
595 52.5212
600 7.82649
Ex : 593
200 0.519073
205 0.558162
210 0.545577
215 0.521855
220 0.764187
225 0.713468
230 0.541717
235 0.488152
240 0.696792
245 0.483114
250 0.508391
255 0.501044
260 0.585789
265 0.523947
270 0.578975
275 0.482296
280 0.688518
285 0.632562
290 0.696722
295 0.524161
300 0.65571
305 0.592749
310 0.549
315 0.377782
320 0.508526
325 0.533249
330 0.548846
335 0.533009
340 0.640738
345 0.588886
350 0.640397
355 0.738106
360 0.588571
365 0.536144
370 0.742186
375 0.554011
380 0.651603
385 0.712316
390 0.839491
395 0.62057
400 0.723554
405 0.776321
410 0.761552
415 0.635306
420 0.572196
425 0.750778
430 0.729883
435 0.742558
440 0.669338
445 0.68612
450 0.591796
455 0.805402
460 0.738158
465 0.810029
470 0.766772
475 0.662969
480 0.685053
485 0.583209
490 0.560976
495 0.713377
500 0.69519
505 0.885493
510 0.702309
515 0.779977
520 0.728794
525 0.730085
530 0.869316
535 0.7634
540 0.893579
545 0.832368
550 1.04058
555 1.05932
560 1.15596
565 1.36792
570 1.48896
575 1.9944
580 29.5954
585 706.068
590 1285.65
595 375.098
600 54.2929
Ex : 598
200 0.519006
205 0.395259
210 0.419386
215 0.586763
220 0.554081
225 0.576461
230 0.559214
235 0.567846
240 0.577939
245 0.588855
250 0.628141
255 0.602383
260 0.418474
265 0.505433
270 0.698008
275 0.586554
280 0.533773
285 0.544023
290 0.605884
295 0.445421
300 0.45765
305 0.621528
310 0.58852
315 0.644922
320 0.580218
325 0.473879
330 0.512593
335 0.697661
340 0.613506
345 0.551083
350 0.641399
355 0.58393
360 0.557813
365 0.557137
370 0.449104
375 0.623713
380 0.643172
385 0.666363
390 0.598147
395 0.640616
400 0.771925
405 0.717945
410 0.651695
415 0.655953
420 0.647829
425 0.639538
430 0.768864
435 0.848985
440 0.791779
445 0.83045
450 0.624543
455 0.802467
460 0.819344
465 0.623022
470 0.744532
475 0.732132
480 0.716612
485 0.703124
490 0.825798
495 0.676052
500 0.712805
505 0.750453
510 0.780299
515 0.686108
520 0.752399
525 0.898005
530 0.878678
535 0.823624
540 0.790055
545 0.877373
550 0.959134
555 0.981526
560 1.12996
565 1.29737
570 1.40259
575 1.66021
580 1.89661
585 27.8353
590 627.562
595 1124.16
600 701.76
Ex : 603
200 0.737129
205 0.518928
210 0.629857
215 0.600542
220 0.569161
225 0.656027
230 0.628211
235 0.605233
240 0.652533
245 0.704045
250 0.484799
255 0.713731
260 0.569516
265 0.524567
270 0.60574
275 0.598589
280 0.787684
285 0.741026
290 0.451757
295 0.440018
300 0.608154
305 0.653711
310 0.753819
315 0.563372
320 0.548871
325 0.592034
330 0.653466
335 0.735362
340 0.490387
345 0.753504
350 0.79143
355 0.575117
360 0.711429
365 0.742348
370 0.645648
375 0.711016
380 0.603499
385 0.80057
390 0.662025
395 0.66426
400 0.700595
405 0.749858
410 0.689127
415 0.597838
420 0.651648
425 0.715896
430 0.556817
435 0.715608
440 0.655157
445 0.738767
450 0.66414
455 0.722224
460 0.671093
465 0.711686
470 0.923377
475 0.785829
480 0.813613
485 0.794424
490 0.939381
495 0.79866
500 0.721156
505 0.682113
510 0.791736
515 0.949767
520 0.805068
525 0.861365
530 0.745487
535 0.799716
540 0.856095
545 0.736557
550 0.806891
555 0.887102
560 1.00806
565 1.03097
570 1.16467
575 1.18312
580 1.25328
585 1.79395
590 23.8929
595 532.222
600 1068.45
