File format V 1.0
ven. 9. déc. 17:35:29 2016
Operator : 
Comments : 

=============================================
SpectroFluorometer parameters
Mode : 3D measurement
Data : Fluorescence
Phospho. : Ordinary
Spectrum : Fluorescence

Scan speed : 2400 nm/mn
Response : 100 ms
PM Voltage : 700 V
Shutter : On

Lambda Ex. Start : 203
Lambda Ex. End : 603
Lambda Ex. Step : 5
Ex. Slit : 5 nm

Lambda Em. Start : 200
Lambda Em. End : 600
Lambda Em. Step : 5
Em. Slit : 5 nm

Repetition : 1
Decal lambda em : 10
=============================================
DATA
Ex : 203
200 16.5887
205 19.8561
210 15.3295
215 17.0554
220 18.1995
225 12.5466
230 15.6543
235 12.485
240 17.1072
245 14.2945
250 18.7521
255 19.3909
260 12.758
265 15.8925
270 17.9733
275 17.435
280 11.9846
285 11.5551
290 20.3563
295 15.1751
300 19.2737
305 17.6578
310 14.0322
315 19.1532
320 8.99517
325 14.4654
330 13.3101
335 18.3585
340 20.0045
345 17.9733
350 21.6223
355 19.0049
360 18.4763
365 22.1552
370 20.5059
375 16.7343
380 20.2819
385 22.2415
390 12.8587
395 19.0418
400 21.71
405 18.9286
410 16.1856
415 15.0734
420 18.3897
425 16.1961
430 15.0246
435 15.4577
440 16.8455
445 15.8835
450 14.8517
455 16.615
460 16.9314
465 30.1259
470 22.3437
475 18.7021
480 19.4237
485 15.7807
490 14.1857
495 16.0831
500 19.3358
505 18.328
510 20.4964
515 14.1426
520 16.3891
525 15.9253
530 14.0284
535 13.5247
540 13.6136
545 16.3551
550 26.106
555 16.6171
560 18.134
565 16.426
570 16.1548
575 15.8441
580 16.0137
585 12.9459
590 16.8522
595 15.4963
600 1.76342
Ex : 208
200 16.6503
205 15.5311
210 21.3663
215 13.5662
220 15.6647
225 18.7443
230 20.7671
235 22.0952
240 18.1352
245 16.689
250 16.1029
255 19.1275
260 12.6853
265 16.3684
270 21.1051
275 16.0932
280 16.1984
285 17.7648
290 12.0301
295 15.895
300 13.6887
305 13.6775
310 13.2277
315 20.4937
320 20.2876
325 16.6215
330 14.8356
335 13.1795
340 20.7246
345 14.658
350 19.5449
355 21.6202
360 21.5458
365 18.4988
370 16.5315
375 18.1206
380 18.4568
385 18.2098
390 19.6985
395 15.7392
400 17.8141
405 19.4059
410 13.083
415 15.652
420 18.2951
425 18.8603
430 21.8821
435 17.7978
440 13.8585
445 14.6217
450 22.6438
455 17.9804
460 19.3485
465 21.5114
470 15.5209
475 19.7254
480 18.4438
485 14.277
490 15.8623
495 18.2689
500 13.5606
505 11.9741
510 19.2005
515 16.5798
520 17.5256
525 15.8555
530 15.2805
535 17.5262
540 16.0686
545 19.1798
550 15.8637
555 21.643
560 16.2204
565 16.6296
570 19.5906
575 18.757
580 19.9707
585 13.8788
590 15.0913
595 21.0651
600 2.39713
Ex : 213
200 15.0671
205 19.9209
210 12.1435
215 12.845
220 13.1168
225 16.5471
230 12.5238
235 17.5265
240 22.6707
245 16.064
250 18.5815
255 15.9323
260 10.7741
265 15.6111
270 18.4045
275 15.118
280 13.5524
285 20.8295
290 18.0481
295 15.3584
300 14.333
305 10.9092
310 11.1847
315 12.8054
320 21.8516
325 17.1953
330 20.1793
335 17.023
340 16.5478
345 19.4109
350 19.1058
355 19.0061
360 18.264
365 13.924
370 18.7348
375 19.5212
380 16.1034
385 21.8233
390 18.6352
395 18.4714
400 23.3646
405 16.8381
410 19.062
415 22.9675
420 13.8793
425 15.2652
430 13.6021
435 18.6913
440 14.5573
445 15.8301
450 15.2052
455 17.3197
460 19.3996
465 17.447
470 20.446
475 11.993
480 18.7221
485 21.6456
490 19.3622
495 17.2343
500 14.93
505 15.6966
510 16.7884
515 14.1164
520 13.6779
525 12.7936
530 13.1715
535 21.3487
540 16.3856
545 14.9697
550 18.3842
555 18.3336
560 16.8068
565 20.5659
570 16.1477
575 12.9656
580 15.5818
585 13.7112
590 14.9878
595 14.8358
600 22.0709
Ex : 218
200 12.6519
205 14.142
210 15.2428
215 16.1368
220 20.4151
225 12.2958
230 13.3601
235 17.1497
240 16.0165
245 13.3253
250 13.1029
255 17.2588
260 11.8458
265 13.421
270 14.1411
275 18.131
280 13.0882
285 18.5904
290 14.0908
295 15.7454
300 13.4266
305 19.8589
310 16.285
315 15.4105
320 15.6294
325 16.4733
330 14.2493
335 15.4976
340 16.4556
345 20.4707
350 15.0554
355 11.2516
360 17.8718
365 18.089
370 13.0917
375 16.7583
380 21.5796
385 16.8858
390 12.1073
395 15.8127
400 19.0832
405 14.0703
410 16.5169
415 14.9795
420 15.5294
425 18.217
430 21.4889
435 18.1615
440 16.6417
445 11.6361
450 17.7767
455 20.5613
460 22.442
465 12.3608
470 11.9112
475 15.2286
480 17.1379
485 15.4511
490 16.1057
495 14.68
500 18.0396
505 16.8659
510 14.9207
515 18.7957
520 16.3294
525 15.7948
530 17.8672
535 22.7716
540 17.6624
545 11.9993
550 16.8228
555 14.912
560 13.2834
565 13.0381
570 17.5943
575 17.1263
580 15.5278
585 14.4843
590 15.1545
595 17.3292
600 18.8099
Ex : 223
200 17.414
205 13.3772
210 11.1597
215 17.5248
220 14.984
225 15.7554
230 15.7229
235 12.5964
240 15.9583
245 15.4479
250 11.4745
255 14.5245
260 17.7841
265 14.9443
270 13.7959
275 15.0402
280 16.304
285 12.798
290 17.4437
295 13.2065
300 15.0203
305 20.6484
310 14.1752
315 13.6953
320 13.6995
325 16.63
330 16.2212
335 18.9931
340 20.4743
345 18.2155
350 21.5693
355 17.9053
360 20.3837
365 16.4596
370 16.0882
375 20.1437
380 19.7429
385 12.419
390 16.0266
395 17.4856
400 14.2463
405 16.3537
410 16.3426
415 12.6777
420 16.2629
425 16.4845
430 16.3969
435 16.5853
440 19.8041
445 17.1177
450 16.3487
455 16.0958
460 21.5256
465 19.0774
470 21.7572
475 14.4068
480 15.2432
485 18.1294
490 14.1837
495 13.8437
500 14.7491
505 14.4162
510 15.2731
515 19.3091
520 16.8997
525 15.2339
530 17.7087
535 15.9702
540 15.9284
545 17.7092
550 16.6483
555 17.6217
560 20.7712
565 16.0479
570 14.233
575 16.4636
580 12.8147
585 13.0012
590 16.8365
595 19.9662
600 2.27208
Ex : 228
200 13.7676
205 11.8178
210 12.8177
215 13.2559
220 15.3812
225 13.0593
230 13.7748
235 12.7251
240 17.8951
245 15.0911
250 17.4698
255 11.2931
260 15.8613
265 15.2382
270 15.8482
275 14.0128
280 9.26328
285 13.84
290 16.5474
295 17.2359
300 13.0464
305 13.4019
310 12.7645
315 13.5689
320 14.05
325 13.9078
330 13.2733
335 14.3969
340 14.9171
345 18.4067
350 14.0558
355 15.1061
360 16.4279
365 14.7293
370 13.9027
375 16.7003
380 11.8654
385 22.5717
390 15.793
395 17.8625
400 17.9109
405 16.6317
410 15.2934
415 15.8062
420 18.738
425 18.9051
430 15.2758
435 17.9599
440 13.8018
445 20.0884
450 18.9023
455 15.9139
460 13.5769
465 18.4862
470 19.2295
475 16.151
480 15.8369
485 16.3584
490 16.9987
495 16.9736
500 14.9088
505 17.4105
510 15.6444
515 19.3986
520 15.0624
525 12.6507
530 14.0268
535 13.784
540 17.897
545 17.409
550 13.1837
555 12.1646
560 14.7855
565 15.4857
570 12.6027
575 14.495
580 12.7768
585 15.6804
590 14.7694
595 14.6895
600 8.93848
Ex : 233
200 9.29327
205 14.6444
210 12.1075
215 13.5723
220 15.683
225 12.2046
230 18.6547
235 11.0646
240 15.2156
245 12.001
250 15.9343
255 14.0557
260 14.1609
265 13.4104
270 17.468
275 15.884
280 12.9516
285 16.4562
290 10.4316
295 11.2879
300 9.15294
305 14.3949
310 15.1515
315 11.8736
320 12.3992
325 10.8549
330 16.6662
335 16.4748
340 15.0042
345 12.9416
350 13.2277
355 12.1014
360 15.5384
365 15.5786
370 12.7383
375 17.9936
380 10.6376
385 12.3394
390 12.1788
395 15.1951
400 12.67
405 13.0947
410 13.7647
415 11.2101
420 11.8347
425 11.5358
430 11.1955
435 12.2566
440 15.2489
445 15.428
450 12.5946
455 14.8562
460 13.2295
465 15.0768
470 15.7825
475 15.089
480 15.7319
485 12.3701
490 15.12
495 17.2129
500 13.1949
505 12.6899
510 12.3546
515 14.6099
520 11.111
525 12.4975
530 15.8713
535 12.3006
540 11.9063
545 10.8919
550 10.0006
555 13.6052
560 13.0689
565 10.4518
570 11.2665
575 12.6053
580 12.1357
585 18.8067
590 9.74635
595 14.5432
600 1.65497
Ex : 238
200 10.3529
205 8.67133
210 10.3358
215 16.0775
220 11.4282
225 8.77323
230 9.59414
235 12.9841
240 10.0454
245 9.82956
250 11.0776
255 12.511
260 10.5702
265 12.2412
270 11.6853
275 10.1648
280 12.9235
285 11.9179
290 11.7479
295 14.4114
300 12.9751
305 10.4849
310 10.1725
315 9.7626
320 9.18873
325 9.11048
330 10.9087
335 11.8329
340 16.2833
345 12.8359
350 11.6934
355 16.1983
360 12.5956
365 12.1113
370 12.1597
375 14.1406
380 14.4932
385 13.3299
390 8.18163
395 11.9723
400 12.0277
405 13.931
410 11.6371
415 11.7499
420 13.1601
425 11.3928
430 12.1319
435 10.5788
440 11.5429
445 14.0351
450 9.08376
455 9.20182
460 13.4463
465 11.2429
470 10.723
475 15.1439
480 11.4956
485 11.8475
490 9.31543
495 9.87606
500 10.4331
505 12.1238
510 10.2837
515 9.19121
520 10.6089
525 10.2041
530 11.3225
535 10.012
540 10.3285
545 13.5207
550 9.58861
555 10.4943
560 11.467
565 8.49786
570 13.6606
575 11.8596
580 10.0033
585 18.3364
590 12.3424
595 11.9427
600 1.35904
Ex : 243
200 9.71825
205 11.558
210 9.27263
215 12.5029
220 8.66072
225 8.62906
230 8.95779
235 8.80807
240 11.7986
245 11.6852
250 9.84468
255 8.52311
260 7.72629
265 12.1355
270 14.9586
275 11.1759
280 10.7187
285 9.15304
290 9.71322
295 10.8814
300 8.54316
305 8.82892
310 8.34703
315 8.18032
320 11.2358
325 7.75046
330 10.1269
335 14.8701
340 14.9099
345 11.0189
350 11.1659
355 10.3688
360 11.2011
365 9.49155
370 10.8675
375 10.5501
380 13.4788
385 12.1198
390 9.18194
395 10.4759
400 10.3591
405 9.91875
410 9.86159
415 10.4122
420 10.4849
425 10.2724
430 11.6551
435 13.4944
440 8.22368
445 8.75768
450 8.62364
455 9.97506
460 13.4119
465 12.1747
470 12.899
475 12.3221
480 11.7087
485 9.34787
490 11.7461
495 11.8147
500 13.2701
505 9.91896
510 9.85528
515 8.51858
520 9.27925
525 9.35468
530 8.50155
535 12.4443
540 11.6919
545 10.3986
550 11.5177
555 9.95461
560 11.7355
565 9.28715
570 11.5447
575 8.62408
580 9.42055
585 9.00917
590 9.15277
595 9.15713
600 1.04205
Ex : 248
200 8.69937
205 7.70186
210 8.43576
215 6.39434
220 7.23134
225 8.25669
230 8.49701
235 8.55707
240 8.52981
245 6.85105
250 7.18668
255 7.2761
260 8.07929
265 6.3887
270 8.71439
275 7.56107
280 7.95888
285 7.65085
290 5.65328
295 7.62672
300 8.62437
305 6.86098
310 8.86812
315 6.90184
320 8.92524
325 8.76847
330 10.5825
335 9.91191
340 11.0114
345 7.35897
350 9.35884
355 9.70765
360 8.64464
365 10.6226
370 10.5081
375 11.0537
380 7.1165
385 8.98577
390 7.02549
395 5.92797
400 7.48799
405 9.35375
410 8.628
415 7.13981
420 8.50336
425 10.5809
430 9.36571
435 7.74108
440 9.25539
445 9.62276
450 8.273
455 9.62796
460 9.37265
465 9.86089
470 8.54936
475 9.30497
480 7.7012
485 7.3035
490 9.3217
495 7.61511
500 7.71424
505 10.0149
510 7.74427
515 9.53514
520 7.60247
525 9.2691
530 6.67232
535 8.9076
540 7.16114
545 7.4986
550 8.5162
555 7.03135
560 7.37927
565 9.2645
570 9.64098
575 8.23674
580 8.07038
585 9.26566
590 7.33918
595 5.72396
600 0.651365
Ex : 253
200 4.94615
205 6.60297
210 7.24778
215 6.875
220 4.72155
225 5.31007
230 5.52236
235 4.72362
240 5.90911
245 6.48786
250 7.06004
255 5.6387
260 5.52978
265 6.8832
270 4.7138
275 5.84159
280 7.13023
285 5.67292
290 5.84381
295 3.8961
300 6.91783
305 9.57282
310 6.57086
315 5.4132
320 6.0405
325 6.30545
330 6.94459
335 8.39859
340 9.71515
345 6.38238
350 7.00163
355 8.21189
360 7.86979
365 8.03008
370 6.89507
375 8.34951
380 8.26075
385 6.73306
390 6.35861
395 7.74792
400 7.90865
405 5.90324
410 8.55347
415 9.27894
420 8.244
425 7.50674
430 6.211
435 7.20484
440 6.59084
445 6.44226
450 7.39348
455 8.69092
460 10.1327
465 7.14581
470 8.2882
475 5.58994
480 8.21628
485 6.5134
490 6.47671
495 8.13915
500 8.28997
505 7.46026
510 6.83732
515 6.05275
520 7.17706
525 6.3177
530 5.15961
535 5.22668
540 6.24433
545 7.79053
550 6.22043
555 6.81888
560 7.07532
565 7.17488
570 5.50409
575 6.65628
580 6.47287
585 7.09721
590 6.16762
595 4.31359
600 0.490871
Ex : 258
200 4.21138
205 3.73644
210 5.56919
215 5.15286
220 3.75598
225 5.22739
230 3.30953
235 3.59446
240 3.60408
245 5.18904
250 4.11019
255 5.64301
260 5.34876
265 4.51586
270 4.40524
275 4.25368
280 4.57054
285 4.19714
290 6.11095
295 5.41166
300 4.70571
305 4.24602
310 4.4366
315 4.31374
320 4.65953
325 4.47109
330 4.56516
335 5.02304
340 5.87989
345 5.05627
350 5.0046
355 4.50028
360 6.32229
365 4.92264
370 5.36578
375 6.50146
380 7.74301
385 7.7871
390 6.08187
395 6.67723
400 5.65833
405 5.25251
410 4.52458
415 7.10377
420 6.9067
425 5.91328
430 5.62448
435 7.32011
440 5.95742
445 7.39404
450 6.60816
455 4.46779
460 5.51244
465 5.25802
470 6.01524
475 4.46517
480 4.14922
485 5.58098
490 5.10754
495 5.55965
500 3.84538
505 4.88344
510 5.39421
515 5.38472
520 6.28373
525 7.19144
530 5.73393
535 4.96706
540 4.63134
545 5.07084
550 4.58043
555 6.87086
560 5.58989
565 4.30881
570 3.94881
575 4.56026
580 5.47016
585 4.56799
590 4.79958
595 4.2194
600 4.09882
Ex : 263
200 3.31062
205 2.59294
210 3.3815
215 3.31992
220 4.41002
225 4.6446
230 3.75058
235 3.64585
240 3.86445
245 3.49083
250 3.78584
255 5.06538
260 3.87878
265 3.45802
270 3.2534
275 3.47611
280 3.8225
285 4.34621
290 3.89193
295 3.64368
300 3.54065
305 2.98174
310 3.6808
315 3.00258
320 4.04599
325 4.96188
330 5.02118
335 5.1661
340 5.91059
345 5.26074
350 3.67848
355 3.7778
360 4.80429
365 4.22297
370 5.16634
375 4.86604
380 3.67899
385 4.16702
390 5.29301
395 5.07224
400 4.27342
405 5.71545
410 4.42049
415 4.73421
420 4.13294
425 4.74437
430 4.32704
435 4.81818
440 4.59394
445 4.6483
450 4.46088
455 4.9961
460 4.16107
465 4.25234
470 4.26778
475 4.38993
480 4.62718
485 4.58377
490 4.705
495 5.31052
500 4.54441
505 4.24477
510 3.56731
515 4.74876
520 4.48981
525 5.37311
530 3.74961
535 5.64139
540 3.25878
545 3.71577
550 3.11774
555 4.14446
560 3.56503
565 4.30115
570 4.18984
575 4.38503
580 3.10301
585 2.98483
590 3.86494
595 2.8415
600 3.10012
Ex : 268
200 3.01427
205 2.41585
210 2.83748
215 2.96205
220 3.13538
225 4.03318
230 2.64282
235 3.37739
240 2.8913
245 2.51441
250 2.77999
255 3.68178
260 3.29566
265 2.84043
270 3.51781
275 3.70353
280 2.7525
285 2.06206
290 3.17616
295 2.72716
300 3.21816
305 3.79797
310 2.94346
315 2.83186
320 2.87749
325 3.57542
330 3.52669
335 3.74956
340 2.62378
345 3.52044
350 3.62839
355 3.59324
360 3.79828
365 3.51356
370 3.1823
375 3.20057
380 4.14585
385 3.23682
390 4.11282
395 3.83004
400 3.57646
405 3.42223
410 2.70538
415 3.28795
420 3.04141
425 3.65608
430 3.86383
435 3.30828
440 2.70767
445 4.03691
450 4.48337
455 2.8777
460 4.25642
465 4.23252
470 4.34019
475 3.87849
480 3.80245
485 3.96472
490 3.70738
495 3.39409
500 3.47241
505 4.03484
510 3.04725
515 3.28427
520 3.14705
525 3.10974
530 3.84083
535 4.15719
540 2.3287
545 2.85271
550 3.26774
555 2.90834
560 3.51957
565 2.83106
570 3.18579
575 3.26819
580 2.60924
585 2.51407
590 2.84707
595 2.57061
600 1.78508
Ex : 273
200 1.76431
205 1.82662
210 2.18889
215 2.37823
220 1.79045
225 3.22139
230 2.94206
235 2.14796
240 1.90268
245 1.72245
250 2.4492
255 2.16671
260 2.23072
265 1.86521
270 2.20882
275 2.3933
280 2.73558
285 2.54833
290 2.6912
295 2.68159
300 2.4263
305 2.26372
310 2.24964
315 1.8916
320 2.27146
325 2.60467
330 2.82023
335 2.62731
340 3.11525
345 2.63245
350 4.27578
355 3.13992
360 3.03328
365 3.14376
370 4.19152
375 3.31438
380 2.77154
385 3.31259
390 2.92028
395 3.27581
400 3.69886
405 3.32891
410 3.16354
415 2.89363
420 3.34394
425 3.48137
430 3.20306
435 3.46969
440 3.12983
445 3.37755
450 2.97606
455 3.61113
460 2.66824
465 3.11735
470 2.97347
475 2.37245
480 3.7966
485 2.99487
490 2.5378
495 2.84391
500 2.50239
505 3.19079
510 2.71193
515 2.75494
520 2.76634
525 2.75054
530 2.59526
535 3.2598
540 3.89932
545 3.12417
550 3.015
555 2.49186
560 1.94304
565 2.14965
570 2.24296
575 2.48975
580 2.03948
585 2.27365
590 2.00049
595 1.85466
600 2.58608
Ex : 278
200 2.01575
205 1.74798
210 2.36661
215 1.51112
220 1.96485
225 2.10642
230 2.57009
235 1.81736
240 2.14591
245 1.93675
250 2.3873
255 1.84523
260 1.59662
265 1.72144
270 1.7464
275 1.93762
280 2.38748
285 2.52269
290 1.97686
295 1.74233
300 1.26963
305 1.97606
310 1.92454
315 2.19452
320 1.99119
325 2.04236
330 2.24677
335 2.31897
340 2.6224
345 2.51112
350 2.38759
355 2.48159
360 2.50636
365 2.58103
370 3.03926
375 2.17048
380 3.00494
385 2.14621
390 3.06084
395 2.52974
400 2.40433
405 2.96236
410 2.39403
415 2.62639
420 2.85004
425 2.2636
430 2.13634
435 2.28766
440 3.24669
445 2.79963
450 2.30794
455 2.87213
460 2.46353
465 2.51079
470 1.83409
475 2.27699
480 2.48675
485 3.03736
490 2.1782
495 1.54537
500 1.88252
505 2.58893
510 1.79145
515 2.41102
520 2.17928
525 2.43228
530 2.08284
535 1.743
540 2.19177
545 2.52577
550 2.06336
555 2.15195
560 1.55057
565 1.97468
570 1.79956
575 2.39949
580 1.62144
585 1.79276
590 1.75469
595 2.13903
600 0.243413
Ex : 283
200 1.21848
205 1.96271
210 2.00454
215 1.62595
220 1.82415
225 2.10051
230 1.77917
235 1.96956
240 1.67788
245 1.51351
250 1.70848
255 1.97927
260 1.95502
265 1.47317
270 1.21588
275 1.65562
280 1.6795
285 1.92172
290 1.52364
295 1.52679
300 1.8204
305 1.32521
310 1.4241
315 1.54315
320 1.90485
325 1.48455
330 1.53664
335 1.70922
340 2.1962
345 2.27595
350 1.90555
355 2.29378
360 1.93025
365 2.35899
370 2.37783
375 2.42869
380 1.80411
385 1.99954
390 1.93724
395 1.99697
400 2.10656
405 2.83917
410 2.6385
415 2.36012
420 2.12686
425 1.96776
430 2.32038
435 3.15109
440 2.27234
445 2.53245
450 2.45991
455 2.35702
460 2.23808
465 1.90133
470 1.95248
475 2.19264
480 1.84516
485 1.85494
490 2.09412
495 1.95316
500 2.20464
505 2.6781
510 2.24994
515 1.76658
520 1.49032
525 1.83963
530 2.12109
535 1.91323
540 1.48931
545 1.62585
550 1.55354
555 1.63789
560 1.97123
565 2.91786
570 1.86966
575 2.36505
580 2.11598
585 2.29289
590 1.86492
595 1.822
600 0.231288
Ex : 288
200 1.61013
205 1.43881
210 1.4055
215 1.4959
220 1.45371
225 1.30716
230 1.30874
235 1.26252
240 1.10895
245 1.22908
250 1.2611
255 1.14764
260 1.32005
265 1.36863
270 1.26607
275 1.19163
280 1.80949
285 1.59618
290 1.50704
295 1.36843
300 1.16217
305 1.3039
310 1.02816
315 1.00568
320 1.98247
325 1.40802
330 1.53893
335 1.78837
340 1.96998
345 1.73264
350 1.7603
355 2.22509
360 1.89555
365 1.88385
370 2.37345
375 2.38104
380 2.11203
385 1.79978
390 1.79457
395 2.0426
400 2.07653
405 2.23741
410 2.54293
415 1.70465
420 2.38407
425 1.70088
430 1.99081
435 2.1762
440 2.05613
445 1.71772
450 2.0236
455 1.89014
460 2.0677
465 1.73707
470 1.65024
475 1.6328
480 1.83979
485 1.3386
490 1.55299
495 1.50133
500 1.62796
505 1.84683
510 1.7274
515 1.56755
520 1.54783
525 1.7722
530 1.80949
535 1.36622
540 1.67313
545 1.72219
550 1.34646
555 1.36631
560 1.04119
565 1.98751
570 2.50135
575 2.25349
580 1.52829
585 1.23153
590 1.08569
595 2.05543
600 1.58431
Ex : 293
200 1.00047
205 1.12256
210 1.00168
215 0.86353
220 0.965981
225 1.07581
230 1.24986
235 1.14346
240 1.41697
245 1.41793
250 1.23896
255 1.31511
260 1.16566
265 1.33381
270 1.21851
275 1.17959
280 1.09298
285 1.26169
290 1.1259
295 0.959759
300 0.963501
305 1.25999
310 1.42252
315 1.42572
320 1.1732
325 1.41111
330 1.69388
335 1.6149
340 1.3339
345 1.42798
350 1.6495
355 1.40005
360 1.68153
365 1.31602
370 1.89764
375 1.4713
380 1.59928
385 1.55765
390 1.71359
395 1.71073
400 1.75965
405 1.80654
410 1.61615
415 1.68002
420 1.84272
425 2.01405
430 1.69103
435 2.03172
440 1.96426
445 1.83661
450 1.34672
455 1.41763
460 1.66573
465 1.83476
470 1.51088
475 1.6678
480 2.06188
485 1.33331
490 1.05736
495 1.55664
500 1.06632
505 0.931056
510 1.37214
515 1.26274
520 1.31519
525 1.20744
530 1.1936
535 1.41875
540 1.28683
545 1.19997
550 1.0051
555 1.28536
560 1.21264
565 1.02335
570 1.17485
575 1.71131
580 1.87143
585 1.53934
590 1.16765
595 1.16962
600 3.09302
Ex : 298
200 0.798274
205 0.911856
210 0.9286
215 1.09618
220 1.11121
225 0.87612
230 1.1355
235 0.790958
240 1.01505
245 0.934308
250 1.37873
255 1.27596
260 1.17874
265 1.31209
270 1.10702
275 0.801125
280 1.21087
285 1.02108
290 1.16703
295 1.34487
300 1.44363
305 1.04168
310 0.935372
315 1.3353
320 1.39103
325 1.47176
330 1.34258
335 1.26874
340 1.43221
345 1.33468
350 1.47499
355 1.26077
360 1.46385
365 1.56777
370 1.48884
375 1.70527
380 1.769
385 1.58646
390 1.63531
395 1.55331
400 1.51389
405 1.90327
410 1.53055
415 1.66289
420 2.10628
425 1.82508
430 1.38449
435 1.50071
440 1.25071
445 1.87158
450 1.48867
455 1.27578
460 1.32436
465 1.13676
470 1.22159
475 1.33464
480 1.34185
485 1.43302
490 1.23892
495 1.40329
500 1.63022
505 1.11243
510 1.24345
515 1.40907
520 1.09501
525 1.08622
530 1.36939
535 1.18318
540 1.21043
545 1.07949
550 0.997259
555 1.14151
560 0.955639
565 0.974351
570 1.10996
575 0.952505
580 0.961624
585 1.15235
590 1.82797
595 1.76299
600 2.67899
Ex : 303
200 0.986898
205 0.586944
210 0.783095
215 0.824303
220 1.06444
225 0.950467
230 0.733696
235 0.761493
240 0.95129
245 1.01074
250 0.860692
255 0.996584
260 0.912136
265 0.839931
270 1.03373
275 0.867302
280 0.989388
285 1.10523
290 0.917589
295 0.99221
300 1.40083
305 1.14444
310 0.827175
315 0.802134
320 0.91357
325 1.20705
330 1.16868
335 1.32986
340 1.19601
345 1.45612
350 1.51536
355 1.21625
360 1.47952
365 1.42261
370 1.3505
375 1.54205
380 1.62003
385 1.80639
390 1.71811
395 1.41404
400 1.41629
405 1.51663
410 1.66403
415 1.72221
420 1.5607
425 1.35394
430 1.39431
435 1.38076
440 1.48098
445 1.64981
450 1.10492
455 1.28489
460 1.47456
465 1.27308
470 1.10682
475 0.938841
480 1.31486
485 1.31873
490 1.42482
495 1.11661
500 1.21278
505 0.938286
510 1.00687
515 1.23418
520 0.99728
525 0.909071
530 1.09673
535 1.13538
540 0.955222
545 0.87538
550 0.795459
555 0.707955
560 1.03313
565 0.802229
570 1.00173
575 0.775679
580 1.04513
585 1.19881
590 0.97527
595 1.47223
600 3.26263
Ex : 308
200 0.706641
205 0.762173
210 0.827201
215 0.853576
220 0.699168
225 0.702552
230 0.747926
235 0.634418
240 0.720205
245 0.789636
250 0.808508
255 0.883389
260 1.00657
265 0.885682
270 0.705781
275 0.789842
280 0.750959
285 0.652515
290 0.783947
295 0.626422
300 0.801611
305 0.927065
310 0.736784
315 1.05958
320 0.862037
325 1.28008
330 1.5119
335 1.47613
340 1.23182
345 1.372
350 1.37389
355 1.04927
360 1.15049
365 1.25532
370 1.44761
375 1.28503
380 1.50731
385 1.36715
390 1.49038
395 1.34916
400 1.6812
405 1.37301
410 1.42967
415 1.55083
420 1.4688
425 1.33756
430 1.30794
435 1.25856
440 1.45028
445 1.41399
450 1.14502
455 1.56253
460 1.21754
465 1.12073
470 1.3306
475 1.38386
480 1.22971
485 1.05766
490 0.901624
495 1.15239
500 1.22498
505 0.940341
510 1.26957
515 0.967416
520 1.12485
525 0.909518
530 0.704508
535 0.914639
540 0.776336
545 0.962416
550 0.959511
555 0.683714
560 0.90242
565 0.944796
570 0.91318
575 0.993485
580 0.933686
585 1.007
590 0.850988
595 0.653372
600 0.389187
Ex : 313
200 0.544975
205 0.703116
210 0.682116
215 0.597558
220 0.598235
225 0.968418
230 0.791148
235 0.582584
240 0.659993
245 0.62663
250 0.650692
255 0.631465
260 0.787477
265 0.756623
270 0.738373
275 0.707074
280 0.816739
285 0.666382
290 0.655482
295 0.549683
300 0.494452
305 0.82316
310 1.07281
315 0.783949
320 0.947952
325 1.03912
330 1.22007
335 1.20609
340 1.37241
345 1.43997
350 1.15581
355 1.26184
360 1.2836
365 1.17118
370 1.75215
375 1.53791
380 1.52983
385 1.35553
390 1.68056
395 1.45682
400 1.60144
405 1.47476
410 1.46576
415 1.29096
420 1.47609
425 1.3423
430 1.54543
435 1.34001
440 1.33639
445 1.42702
450 1.54187
455 1.21057
460 1.23449
465 1.38911
470 1.3563
475 0.90551
480 1.30726
485 1.15097
490 1.16792
495 0.711984
500 0.998032
505 0.80836
510 0.777075
515 0.741122
520 0.937453
525 0.906768
530 1.07082
535 0.766775
540 0.742179
545 0.65143
550 0.884388
555 0.823183
560 0.586785
565 0.791895
570 0.888765
575 0.686423
580 0.922694
585 0.655977
590 0.657117
595 0.687862
600 0.0782761
Ex : 318
200 0.674471
205 0.516203
210 0.729136
215 0.565283
220 0.613163
225 0.817496
230 0.63025
235 0.446951
240 0.532653
245 0.523223
250 0.546576
255 0.738214
260 0.574775
265 0.950278
270 0.79721
275 0.66643
280 0.509176
285 0.581871
290 0.771978
295 0.605059
300 0.800518
305 0.625974
310 0.859661
315 1.65484
320 1.31172
325 1.61367
330 1.49059
335 1.71679
340 2.10517
345 1.93265
350 2.33216
355 2.70139
360 3.47791
365 3.95102
370 4.77264
375 5.13302
380 5.29987
385 6.27227
390 6.88071
395 6.67453
400 6.82223
405 6.89723
410 6.91442
415 6.9771
420 7.13025
425 6.59621
430 6.91818
435 6.07256
440 5.7287
445 6.14517
450 5.39596
455 4.98276
460 4.87919
465 4.30084
470 4.18507
475 3.93674
480 3.47787
485 3.05549
490 2.94879
495 2.87373
500 2.47837
505 2.15337
510 1.97434
515 1.63723
520 1.69441
525 1.51923
530 1.49741
535 1.33977
540 1.1217
545 1.27001
550 1.11617
555 1.15467
560 1.03845
565 0.986849
570 0.837315
575 0.754959
580 0.703244
585 0.798997
590 0.697437
595 0.633104
600 0.202643
Ex : 323
200 0.496098
205 0.539639
210 0.582108
215 0.587444
220 0.569674
225 0.706444
230 0.575521
235 0.610172
240 0.760357
245 0.459507
250 0.411214
255 0.571989
260 0.636764
265 0.462736
270 0.582107
275 0.459691
280 0.630443
285 0.63146
290 0.719645
295 0.621895
300 0.610962
305 0.672581
310 0.513133
315 10.1381
320 51.3815
325 23.3854
330 5.77869
335 4.40065
340 4.88304
345 6.51757
350 8.82174
355 11.5606
360 13.8951
365 15.8137
370 19.1234
375 22.3517
380 25.9632
385 27.7534
390 29.5471
395 31.8973
400 33.0102
405 32.9704
410 34.6024
415 33.8102
420 32.632
425 31.4675
430 30.6876
435 29.702
440 27.8237
445 27.8112
450 25.6447
455 23.0201
460 21.7316
465 20.3024
470 18.5842
475 17.1866
480 15.6835
485 13.9804
490 12.8124
495 11.6307
500 11.0242
505 9.22319
510 7.64902
515 7.2454
520 6.31632
525 5.53846
530 5.31757
535 4.37825
540 4.04125
545 3.22789
550 3.17313
555 2.69116
560 2.19944
565 1.92799
570 1.67446
575 1.47402
580 1.25306
585 1.16361
590 1.06042
595 0.899572
600 1.03921
Ex : 328
200 0.521387
205 0.588462
210 0.582888
215 0.408368
220 0.66816
225 0.454411
230 0.538286
235 0.401795
240 0.589456
245 0.524537
250 0.488406
255 0.453116
260 0.593071
265 0.769408
270 0.700246
275 0.63816
280 0.680654
285 0.726128
290 0.768765
295 0.630487
300 0.531347
305 0.614837
310 0.742302
315 3.56251
320 142.269
325 357.953
330 107.091
335 17.2475
340 8.46632
345 8.65991
350 10.8965
355 14.9077
360 19.8519
365 22.6049
370 24.2039
375 28.0231
380 31.6148
385 35.3353
390 38.7227
395 40.7385
400 41.2895
405 42.7231
410 43.0898
415 41.8563
420 41.6795
425 39.5499
430 37.6819
435 36.5763
440 34.6206
445 32.7651
450 31.4095
455 29.0361
460 27.4809
465 25.6399
470 22.8595
475 20.8218
480 19.4621
485 17.8088
490 16.2928
495 14.4791
500 12.9482
505 11.0602
510 10.1839
515 8.61251
520 8.16585
525 6.71833
530 6.10689
535 5.29935
540 5.00432
545 4.10512
550 3.74484
555 3.45539
560 2.66794
565 2.69597
570 2.30025
575 1.8519
580 1.76237
585 1.27959
590 1.28819
595 1.16069
600 1.51724
Ex : 333
200 0.443665
205 0.527523
210 0.520374
215 0.485282
220 0.642686
225 0.572419
230 0.544667
235 0.580102
240 0.525871
245 0.546528
250 0.507683
255 0.49989
260 0.58404
265 0.929908
270 0.603989
275 0.561942
280 0.527056
285 0.645389
290 0.580406
295 0.6458
300 0.761638
305 0.702996
310 0.74251
315 0.937022
320 20.6648
325 451.201
330 777.083
335 197.648
340 28.5397
345 9.68583
350 7.98532
355 8.53986
360 11.6175
365 16.4279
370 17.3544
375 18.1088
380 19.0902
385 21.4025
390 22.5904
395 24.7033
400 24.6019
405 25.4498
410 25.0288
415 25.7351
420 25.112
425 23.8903
430 23.0434
435 21.7648
440 20.9827
445 19.6653
450 18.7991
455 17.3066
460 16.0818
465 15.1151
470 13.7812
475 12.9948
480 12.0581
485 10.4447
490 9.95722
495 8.84379
500 8.05919
505 7.27666
510 6.85566
515 5.84701
520 5.72269
525 4.86556
530 4.14188
535 3.53912
540 3.21555
545 3.10046
550 3.04886
555 2.69197
560 2.39423
565 2.27583
570 1.95312
575 1.78483
580 1.39162
585 1.03113
590 1.13293
595 1.0854
600 2.58443
Ex : 338
200 0.582841
205 0.458079
210 0.54458
215 0.535024
220 0.516958
225 0.587217
230 0.518081
235 0.456271
240 0.511976
245 0.573538
250 0.486433
255 0.554733
260 0.556607
265 0.596753
270 0.476054
275 0.496971
280 0.501316
285 0.561556
290 0.630118
295 0.579771
300 0.630391
305 0.782171
310 0.752008
315 1.05828
320 1.24598
325 41.6823
330 695.753
335 1022.86
340 245.145
345 32.6824
350 8.90847
355 5.88118
360 5.44147
365 7.31464
370 11.4133
375 12.1089
380 10.979
385 11.6628
390 12.3541
395 13.3725
400 13.6098
405 14.4425
410 13.9661
415 14.7479
420 14.8012
425 13.3324
430 12.8987
435 12.6561
440 12.0214
445 11.227
450 10.5275
455 9.74284
460 9.2179
465 8.51394
470 8.2198
475 8.08444
480 7.34522
485 6.44692
490 6.17432
495 5.71601
500 5.02368
505 4.86514
510 4.16845
515 4.02281
520 3.43253
525 3.06269
530 2.90835
535 2.77621
540 2.6823
545 2.41764
550 2.31303
555 1.97476
560 1.82136
565 1.6337
570 1.61328
575 1.49893
580 1.21285
585 1.05391
590 1.17135
595 1.09843
600 0.709515
Ex : 343
200 0.465985
205 0.570715
210 0.480622
215 0.530856
220 0.515551
225 0.544892
230 0.537329
235 0.466168
240 0.507636
245 0.410576
250 0.490935
255 0.53644
260 0.533361
265 0.531001
270 0.550214
275 0.508561
280 0.513369
285 0.587632
290 0.62611
295 0.520498
300 0.662301
305 0.594073
310 0.71924
315 0.785086
320 0.880296
325 1.48192
330 51.0478
335 795.722
340 1134.87
345 265.625
350 34.831
355 8.04706
360 4.4684
365 3.83667
370 4.88754
375 9.08076
380 10.1399
385 9.34585
390 9.64162
395 9.56317
400 9.80055
405 9.87047
410 10.8183
415 11.3004
420 10.5811
425 9.98772
430 9.54979
435 9.41997
440 9.08197
445 8.88659
450 8.41788
455 7.49661
460 6.9916
465 6.75961
470 6.44941
475 5.93452
480 5.71999
485 5.36318
490 4.69008
495 4.71554
500 4.51635
505 4.08549
510 3.61802
515 3.37004
520 3.27965
525 2.8207
530 2.89146
535 2.3594
540 2.37335
545 2.3605
550 2.07876
555 1.96631
560 1.77977
565 1.63153
570 1.56963
575 1.45857
580 1.24761
585 1.15142
590 1.11397
595 0.855144
600 0.252686
Ex : 348
200 0.452476
205 0.571725
210 0.402178
215 0.423375
220 0.425033
225 0.50157
230 0.472002
235 0.542989
240 0.494053
245 0.416254
250 0.433816
255 0.440139
260 0.507656
265 0.465184
270 0.418001
275 0.456219
280 0.469449
285 0.54944
290 0.465099
295 0.559731
300 0.500144
305 0.576201
310 0.682488
315 0.73957
320 0.791952
325 1.05737
330 1.84622
335 51.1971
340 789.236
345 1162.99
350 290.735
355 37.0718
360 7.92748
365 4.34221
370 3.25201
375 3.50711
380 7.6589
385 11.9558
390 11.6106
395 10.7611
400 9.63693
405 10.2628
410 11.0262
415 11.5784
420 11.2814
425 10.0912
430 9.86296
435 9.52136
440 9.50262
445 8.8698
450 8.14828
455 7.79996
460 7.43665
465 6.90639
470 6.30557
475 6.10918
480 5.43809
485 4.98191
490 4.9732
495 4.55257
500 4.1936
505 3.93367
510 3.55419
515 3.11401
520 3.09454
525 2.77205
530 2.39426
535 2.43732
540 2.24349
545 2.11714
550 1.8477
555 1.87418
560 1.71062
565 1.42587
570 1.40212
575 1.32722
580 1.16604
585 0.89591
590 0.948631
595 0.9426
600 0.498716
Ex : 353
200 0.352577
205 0.427048
210 0.39809
215 0.385901
220 0.378414
225 0.358117
230 0.412103
235 0.443355
240 0.489324
245 0.527055
250 0.401962
255 0.499148
260 0.401647
265 0.464082
270 0.476741
275 0.442039
280 0.459556
285 0.442866
290 0.489457
295 0.582746
300 0.658185
305 0.577723
310 0.5138
315 0.473762
320 0.661632
325 0.782236
330 1.17083
335 1.84647
340 50.1863
345 797.835
350 1145.05
355 274.082
360 34.722
365 7.34278
370 3.94633
375 3.10189
380 3.7392
385 8.6028
390 13.8473
395 13.309
400 11.1039
405 10.2041
410 10.9456
415 12.2138
420 11.7395
425 10.4391
430 9.82276
435 9.89381
440 9.74407
445 9.19753
450 8.34162
455 7.88239
460 7.08849
465 7.04635
470 6.35138
475 6.01883
480 5.87152
485 5.50498
490 4.93029
495 4.64867
500 4.13049
505 3.85408
510 3.58415
515 3.37698
520 3.27564
525 2.81279
530 2.74958
535 2.368
540 2.07496
545 2.02817
550 2.04816
555 1.76619
560 1.6692
565 1.42691
570 1.50164
575 1.21123
580 1.12287
585 1.11563
590 0.91016
595 0.970934
600 0.184959
Ex : 358
200 0.419602
205 0.334358
210 0.347853
215 0.363483
220 0.416249
225 0.367533
230 0.426013
235 0.425331
240 0.420198
245 0.43019
250 0.393951
255 0.427003
260 0.430264
265 0.464014
270 0.326373
275 0.398467
280 0.424893
285 0.439356
290 0.420022
295 0.453638
300 0.491912
305 0.493904
310 0.377011
315 0.530419
320 0.570853
325 0.716449
330 0.818979
335 1.21758
340 1.98641
345 47.4822
350 749.11
355 1141.36
360 277.554
365 35.154
370 7.13272
375 3.72618
380 3.76449
385 5.29642
390 9.14392
395 13.2426
400 12.1541
405 10.4394
410 10.9376
415 11.1473
420 10.8707
425 9.73259
430 9.18304
435 9.38929
440 8.84097
445 8.53919
450 8.42696
455 7.32947
460 7.13315
465 6.79399
470 6.71492
475 6.45924
480 5.88635
485 5.29478
490 4.61136
495 4.70226
500 4.21181
505 3.89389
510 3.49206
515 3.30209
520 3.07667
525 2.84983
530 2.57333
535 2.48161
540 2.1163
545 2.02655
550 1.85806
555 1.78872
560 1.67281
565 1.41706
570 1.26388
575 1.11958
580 0.874979
585 0.883481
590 0.905202
595 0.697122
600 0.56441
Ex : 363
200 0.280775
205 0.357167
210 0.304502
215 0.2986
220 0.39946
225 0.353801
230 0.317226
235 0.356861
240 0.370262
245 0.443654
250 0.410955
255 0.418049
260 0.359955
265 0.337015
270 0.344389
275 0.415979
280 0.406896
285 0.365746
290 0.415924
295 0.444101
300 0.350954
305 0.381118
310 0.411251
315 0.489901
320 0.40231
325 0.516978
330 0.705992
335 0.732133
340 1.25926
345 1.79608
350 42.5782
355 715.949
360 1111.42
365 281.704
370 35.2838
375 7.13083
380 4.95932
385 6.48427
390 8.01822
395 9.71567
400 12.5485
405 13.9187
410 13.1777
415 12.6769
420 11.3055
425 10.2166
430 9.68697
435 9.62182
440 9.29522
445 9.28818
450 8.3716
455 7.63848
460 7.36331
465 6.99623
470 6.82223
475 6.3613
480 6.09899
485 5.77479
490 5.21693
495 4.87105
500 4.47124
505 4.24557
510 3.75192
515 3.37358
520 2.98183
525 2.86881
530 2.75665
535 2.19199
540 2.08936
545 2.03088
550 1.9332
555 1.63311
560 1.57349
565 1.46105
570 1.19604
575 1.20157
580 1.06597
585 0.792366
590 0.684761
595 0.815909
600 0.901238
Ex : 368
200 0.370534
205 0.336474
210 0.370156
215 0.381931
220 0.320256
225 0.312306
230 0.326917
235 0.267764
240 0.289407
245 0.335354
250 0.400029
255 0.31148
260 0.356595
265 0.380752
270 0.362743
275 0.366539
280 0.399782
285 0.371944
290 0.331639
295 0.379854
300 0.377907
305 0.381633
310 0.361108
315 0.425888
320 0.412966
325 0.459769
330 0.605358
335 0.730797
340 0.943007
345 1.15124
350 1.60223
355 34.3443
360 683.814
365 1116.52
370 290.719
375 36.6909
380 8.40333
385 7.79213
390 10.3925
395 10.8292
400 10.694
405 13.4284
410 17.0162
415 16.7035
420 14.5823
425 12.1863
430 11.0743
435 10.995
440 10.9487
445 10.7891
450 9.53575
455 8.89796
460 8.19335
465 7.60888
470 7.38853
475 6.78752
480 6.29846
485 5.76918
490 5.53529
495 5.36408
500 4.95552
505 4.52938
510 4.13292
515 3.6391
520 3.19871
525 2.84695
530 2.50056
535 2.50181
540 2.16894
545 1.93404
550 1.83514
555 1.61875
560 1.60835
565 1.4313
570 1.152
575 1.0334
580 1.04136
585 0.769194
590 0.730328
595 0.705542
600 0.413116
Ex : 373
200 0.371646
205 0.300248
210 0.306386
215 0.28706
220 0.443164
225 0.259825
230 0.348794
235 0.309008
240 0.346741
245 0.360013
250 0.288485
255 0.3105
260 0.317056
265 0.322671
270 0.330686
275 0.3114
280 0.311595
285 0.386339
290 0.294525
295 0.30141
300 0.457581
305 0.342594
310 0.382771
315 0.420555
320 0.419678
325 0.394996
330 0.447969
335 0.516467
340 0.693944
345 0.843438
350 1.00718
355 1.83346
360 40.4758
365 684.003
370 1091.49
375 282.434
380 36.5636
385 9.85263
390 10.2819
395 11.9744
400 10.4832
405 10.2931
410 13.2102
415 17.6085
420 16.1765
425 12.4828
430 10.9069
435 10.4258
440 10.3876
445 10.2891
450 9.55702
455 8.43835
460 7.95581
465 7.05349
470 6.98708
475 6.69086
480 6.34544
485 5.79449
490 5.25151
495 5.06726
500 4.57155
505 4.21271
510 3.89144
515 3.48432
520 3.04365
525 2.91981
530 2.61707
535 2.3296
540 2.15799
545 1.99197
550 1.82205
555 1.76961
560 1.61462
565 1.27296
570 1.12936
575 1.2095
580 1.03383
585 0.795687
590 0.707314
595 0.688501
600 0.462497
Ex : 378
200 0.351689
205 0.284014
210 0.322563
215 0.282004
220 0.28103
225 0.357326
230 0.249532
235 0.305117
240 0.351006
245 0.318716
250 0.303828
255 0.317606
260 0.277811
265 0.337519
270 0.295435
275 0.306385
280 0.274933
285 0.292694
290 0.32396
295 0.323632
300 0.344153
305 0.372
310 0.294084
315 0.416898
320 0.363364
325 0.440499
330 0.488348
335 0.502809
340 0.569446
345 0.572408
350 0.761304
355 1.10237
360 1.64908
365 37.8591
370 675.779
375 1096.22
380 286.184
385 38.131
390 11.1231
395 9.52425
400 8.56091
405 7.87794
410 8.76959
415 11.4412
420 13.4795
425 11.7786
430 9.12524
435 8.55351
440 8.36748
445 8.15469
450 7.67495
455 7.14031
460 6.64106
465 6.35334
470 6.41291
475 5.96732
480 5.45725
485 5.36316
490 4.92165
495 4.42142
500 4.36398
505 4.01899
510 3.72586
515 3.29304
520 2.97219
525 2.87646
530 2.69281
535 2.50728
540 2.24382
545 2.06524
550 1.78148
555 1.84479
560 1.58218
565 1.5033
570 1.23661
575 1.20425
580 0.901128
585 0.838181
590 0.703057
595 0.646593
600 0.637528
Ex : 383
200 0.332178
205 0.312872
210 0.248213
215 0.297285
220 0.336068
225 0.358243
230 0.282657
235 0.30824
240 0.33733
245 0.321095
250 0.350263
255 0.304109
260 0.250632
265 0.340295
270 0.383461
275 0.295613
280 0.351175
285 0.368381
290 0.327079
295 0.327261
300 0.33991
305 0.365071
310 0.331211
315 0.351983
320 0.291456
325 0.339776
330 0.450456
335 0.443601
340 0.535007
345 0.592086
350 0.634827
355 0.783414
360 1.08562
365 1.62104
370 33.2604
375 660.554
380 1110.73
385 297.485
390 41.5326
395 12.1169
400 8.41578
405 8.27115
410 9.04845
415 9.35069
420 9.41853
425 11.1645
430 11.1903
435 9.4266
440 8.53946
445 8.06031
450 7.14555
455 6.80372
460 6.50336
465 6.45203
470 6.00547
475 6.00768
480 5.58238
485 5.2141
490 4.76133
495 4.57489
500 4.55699
505 4.2457
510 3.77328
515 3.3062
520 3.18633
525 2.81772
530 2.64945
535 2.25874
540 2.32368
545 2.00824
550 1.69728
555 1.79497
560 1.55956
565 1.38775
570 1.17529
575 1.03369
580 0.852551
585 0.809284
590 0.68757
595 0.679193
600 0.851846
Ex : 388
200 0.187629
205 0.301685
210 0.31543
215 0.283881
220 0.292309
225 0.219668
230 0.32609
235 0.263156
240 0.280899
245 0.315928
250 0.259558
255 0.255651
260 0.281118
265 0.297779
270 0.336479
275 0.316926
280 0.305839
285 0.300979
290 0.363149
295 0.311783
300 0.296985
305 0.327747
310 0.323528
315 0.392436
320 0.354587
325 0.383634
330 0.480566
335 0.506428
340 0.468851
345 0.473389
350 0.551022
355 0.670692
360 0.8344
365 1.11322
370 1.59026
375 36.0733
380 670.163
385 1101.46
390 293.296
395 43.0021
400 13.0538
405 10.2035
410 10.6282
415 11.2369
420 10.4653
425 9.38947
430 10.967
435 12.1665
440 10.656
445 9.54458
450 8.43026
455 7.29511
460 6.74335
465 6.27285
470 6.13786
475 6.12366
480 5.55026
485 5.17123
490 5.1094
495 4.63825
500 4.3281
505 4.0753
510 4.00551
515 3.21499
520 3.24977
525 2.86703
530 2.76477
535 2.3802
540 2.26737
545 1.97581
550 1.88145
555 1.73241
560 1.61434
565 1.31806
570 1.24542
575 1.0109
580 0.855292
585 0.701559
590 0.660681
595 0.584407
600 0.919139
Ex : 393
200 0.28412
205 0.237099
210 0.297291
215 0.302234
220 0.251452
225 0.267486
230 0.287158
235 0.250177
240 0.300296
245 0.280901
250 0.291683
255 0.21725
260 0.266836
265 0.238749
270 0.29831
275 0.278283
280 0.279139
285 0.296869
290 0.265185
295 0.261228
300 0.275971
305 0.254248
310 0.328462
315 0.29319
320 0.297195
325 0.368172
330 0.330737
335 0.376396
340 0.380688
345 0.527922
350 0.554074
355 0.559259
360 0.649466
365 0.841235
370 1.12003
375 1.78407
380 32.0503
385 657.281
390 1107.34
395 298.375
400 43.1849
405 12.6442
410 10.5314
415 11.8573
420 11.6827
425 9.64026
430 8.57811
435 9.41077
440 11.8252
445 10.7953
450 8.79096
455 7.62365
460 6.44293
465 6.21948
470 6.19408
475 5.96527
480 5.27249
485 5.1418
490 4.69609
495 4.48999
500 4.19362
505 3.92389
510 3.65488
515 3.25971
520 2.93845
525 2.80684
530 2.64796
535 2.34709
540 2.15359
545 2.0986
550 1.80444
555 1.75036
560 1.46119
565 1.36052
570 1.20089
575 1.04984
580 0.920613
585 0.716787
590 0.72495
595 0.561088
600 0.22902
Ex : 398
200 0.30602
205 0.291929
210 0.199546
215 0.26055
220 0.259892
225 0.328039
230 0.329125
235 0.223852
240 0.203777
245 0.240035
250 0.310735
255 0.238612
260 0.249334
265 0.297624
270 0.297009
275 0.239639
280 0.262711
285 0.279847
290 0.279281
295 0.293867
300 0.293384
305 0.230014
310 0.346372
315 0.317991
320 0.298738
325 0.32167
330 0.314522
335 0.351966
340 0.420081
345 0.323903
350 0.443805
355 0.515731
360 0.58605
365 0.59126
370 0.743701
375 1.04608
380 1.67546
385 33.6293
390 657.816
395 1110.6
400 295.165
405 39.2713
410 10.0196
415 8.11715
420 8.46635
425 6.97476
430 5.81007
435 5.67914
440 6.53221
445 9.02045
450 8.19957
455 6.47777
460 5.98748
465 5.24871
470 4.97188
475 5.21369
480 4.81351
485 4.42724
490 4.28715
495 4.20431
500 3.78465
505 3.51364
510 3.4116
515 3.28695
520 2.87304
525 2.71317
530 2.56192
535 2.26126
540 2.12935
545 1.87548
550 1.75027
555 1.62598
560 1.37421
565 1.26762
570 1.21141
575 1.12438
580 0.929822
585 0.679718
590 0.585975
595 0.58494
600 0.883674
Ex : 403
200 0.211142
205 0.202037
210 0.288628
215 0.252619
220 0.288636
225 0.236395
230 0.312877
235 0.249571
240 0.241008
245 0.302622
250 0.277208
255 0.278394
260 0.251321
265 0.264208
270 0.216795
275 0.258761
280 0.349781
285 0.304734
290 0.295791
295 0.280788
300 0.306653
305 0.288573
310 0.338626
315 0.318335
320 0.275599
325 0.388962
330 0.285648
335 0.336945
340 0.403341
345 0.368772
350 0.416109
355 0.404303
360 0.419812
365 0.563462
370 0.618756
375 0.773396
380 0.964031
385 1.70089
390 37.0427
395 668.87
400 1089.47
405 289.453
410 37.0737
415 8.17085
420 4.72084
425 4.49296
430 3.92264
435 3.64653
440 3.80941
445 4.71545
450 6.65901
455 6.9084
460 5.52646
465 5.09894
470 4.79117
475 4.21237
480 4.39794
485 3.99658
490 4.08144
495 3.79569
500 3.62157
505 3.46479
510 3.3268
515 3.02355
520 2.81517
525 2.6709
530 2.34368
535 2.21705
540 2.04663
545 1.86144
550 1.75569
555 1.57955
560 1.49611
565 1.30257
570 1.09183
575 1.02497
580 0.867039
585 0.716138
590 0.628311
595 0.525246
600 0.36223
Ex : 408
200 0.245582
205 0.292186
210 0.311664
215 0.24432
220 0.229304
225 0.203147
230 0.251454
235 0.265445
240 0.281663
245 0.232913
250 0.231772
255 0.324965
260 0.31816
265 0.246917
270 0.312893
275 0.237707
280 0.267236
285 0.309055
290 0.260312
295 0.211732
300 0.23317
305 0.285823
310 0.324068
315 0.243791
320 0.251565
325 0.321026
330 0.337095
335 0.348633
340 0.319572
345 0.370896
350 0.431572
355 0.439772
360 0.425403
365 0.487727
370 0.454217
375 0.533411
380 0.783061
385 1.08589
390 1.78498
395 34.1536
400 671.11
405 1091.1
410 280.102
415 35.7903
420 7.48616
425 4.11157
430 3.71199
435 3.7194
440 3.74113
445 3.82737
450 4.17391
455 5.64904
460 7.03358
465 5.64713
470 5.07912
475 4.68311
480 4.243
485 4.00979
490 3.97013
495 3.51415
500 3.51315
505 3.40609
510 3.17255
515 2.87004
520 2.53605
525 2.70878
530 2.31358
535 2.29203
540 1.98385
545 1.94164
550 1.84087
555 1.66309
560 1.34115
565 1.17623
570 1.00309
575 0.890421
580 0.82583
585 0.66254
590 0.593992
595 0.448918
600 0.429599
Ex : 413
200 0.215374
205 0.26663
210 0.251857
215 0.261718
220 0.250678
225 0.268373
230 0.242818
235 0.229624
240 0.271465
245 0.260325
250 0.248967
255 0.232101
260 0.24651
265 0.250953
270 0.234777
275 0.277484
280 0.243112
285 0.254263
290 0.256286
295 0.291659
300 0.252313
305 0.282841
310 0.25228
315 0.260864
320 0.252799
325 0.260616
330 0.352708
335 0.282079
340 0.326862
345 0.326246
350 0.327096
355 0.393088
360 0.411062
365 0.455532
370 0.445509
375 0.558389
380 0.624666
385 0.812637
390 1.12372
395 1.54362
400 38.1787
405 682.727
410 1080.93
415 270.908
420 34.5706
425 6.90899
430 3.73945
435 3.84088
440 3.77398
445 3.53722
450 3.38996
455 3.43954
460 4.63333
465 6.64404
470 5.7954
475 4.68
480 4.35465
485 3.80749
490 3.49158
495 3.48612
500 3.38322
505 3.18286
510 2.88058
515 2.72556
520 2.75786
525 2.36494
530 2.08625
535 2.10957
540 2.01064
545 1.83065
550 1.7021
555 1.5931
560 1.41604
565 1.27884
570 1.21267
575 0.940614
580 0.720677
585 0.659351
590 0.642644
595 0.465527
600 1.06029
Ex : 418
200 0.257786
205 0.263035
210 0.27093
215 0.278779
220 0.234899
225 0.215787
230 0.225196
235 0.181053
240 0.23612
245 0.253266
250 0.218597
255 0.263318
260 0.260881
265 0.332649
270 0.285033
275 0.279258
280 0.340811
285 0.320013
290 0.298683
295 0.31649
300 0.235064
305 0.251485
310 0.264602
315 0.290631
320 0.274374
325 0.277106
330 0.300618
335 0.301222
340 0.348056
345 0.411097
350 0.387872
355 0.36805
360 0.381727
365 0.436583
370 0.42463
375 0.475945
380 0.538692
385 0.570645
390 0.782514
395 0.959685
400 1.5748
405 35.4996
410 660.721
415 1060.65
420 275.742
425 34.4405
430 6.21588
435 3.02717
440 3.11175
445 3.15249
450 2.67465
455 2.57636
460 2.73433
465 3.75509
470 5.74915
475 5.63072
480 4.21877
485 3.97586
490 3.53129
495 3.10904
500 2.99739
505 2.94792
510 2.7592
515 2.56289
520 2.50779
525 2.36774
530 2.19928
535 2.07503
540 1.86736
545 1.85124
550 1.64434
555 1.36663
560 1.26579
565 1.18761
570 1.10418
575 0.973747
580 0.798327
585 0.671586
590 0.622758
595 0.522522
600 0.230891
Ex : 423
200 0.254988
205 0.25391
210 0.232994
215 0.266954
220 0.223972
225 0.238968
230 0.208212
235 0.297295
240 0.228078
245 0.280182
250 0.267306
255 0.291154
260 0.288914
265 0.309999
270 0.26794
275 0.257656
280 0.197615
285 0.193889
290 0.30923
295 0.248266
300 0.333249
305 0.252577
310 0.217277
315 0.24488
320 0.273298
325 0.312562
330 0.282804
335 0.340442
340 0.321173
345 0.353199
350 0.309221
355 0.310033
360 0.283951
365 0.386528
370 0.326525
375 0.394102
380 0.433467
385 0.528265
390 0.602072
395 0.760163
400 1.02007
405 1.4627
410 35.9684
415 680.276
420 1050.98
425 258.329
430 32.1827
435 5.84523
440 2.64312
445 2.50489
450 2.47983
455 2.16097
460 2.32706
465 2.38529
470 2.75595
475 4.55746
480 5.5877
485 4.22427
490 3.56098
495 3.24541
500 2.80187
505 2.52771
510 2.44487
515 2.50003
520 2.39156
525 2.22103
530 2.08563
535 1.96042
540 1.85274
545 1.65237
550 1.51654
555 1.44546
560 1.28244
565 1.18761
570 1.11606
575 0.924958
580 0.820059
585 0.648839
590 0.621074
595 0.58924
600 0.493962
Ex : 428
200 0.302337
205 0.236511
210 0.236382
215 0.20427
220 0.257464
225 0.236773
230 0.310414
235 0.184186
240 0.231628
245 0.271569
250 0.268609
255 0.199899
260 0.232085
265 0.324813
270 0.226402
275 0.209797
280 0.235892
285 0.310861
290 0.350015
295 0.292641
300 0.273695
305 0.340797
310 0.277372
315 0.239921
320 0.214258
325 0.278136
330 0.288827
335 0.249898
340 0.273356
345 0.308697
350 0.432697
355 0.363481
360 0.414756
365 0.307377
370 0.354592
375 0.42842
380 0.442326
385 0.538386
390 0.4864
395 0.553354
400 0.698545
405 1.04634
410 1.58246
415 40.226
420 670.976
425 1037.24
430 264.069
435 32.6767
440 5.66198
445 2.59353
450 2.32461
455 2.4804
460 2.36826
465 2.25792
470 2.20353
475 2.37294
480 3.90094
485 5.18967
490 4.21973
495 3.38256
500 3.21599
505 2.5681
510 2.62726
515 2.53064
520 2.29519
525 2.13351
530 1.98261
535 1.89416
540 1.75375
545 1.62154
550 1.57382
555 1.43362
560 1.31311
565 1.19299
570 1.07931
575 0.952305
580 0.73566
585 0.715361
590 0.559084
595 0.620497
600 0.788585
Ex : 433
200 0.255804
205 0.22134
210 0.255685
215 0.25535
220 0.279296
225 0.267688
230 0.270425
235 0.241455
240 0.232887
245 0.249124
250 0.228754
255 0.225018
260 0.287016
265 0.271991
270 0.252684
275 0.230908
280 0.289062
285 0.272373
290 0.206356
295 0.229822
300 0.262648
305 0.277831
310 0.224578
315 0.316277
320 0.25058
325 0.287058
330 0.273781
335 0.245639
340 0.352389
345 0.376349
350 0.358403
355 0.35524
360 0.319926
365 0.396554
370 0.350117
375 0.408473
380 0.395335
385 0.52526
390 0.479699
395 0.57269
400 0.619247
405 0.768899
410 1.01069
415 1.55873
420 42.844
425 702.83
430 1035.16
435 252.61
440 31.0705
445 5.51289
450 2.43168
455 2.27233
460 2.39811
465 2.10446
470 2.10397
475 2.02349
480 2.43565
485 3.39124
490 4.89373
495 4.41624
500 3.38614
505 2.89759
510 2.59377
515 2.19663
520 2.15629
525 2.11741
530 2.06608
535 2.01843
540 1.82067
545 1.65457
550 1.4527
555 1.41859
560 1.22342
565 1.15313
570 1.05731
575 0.883747
580 0.857381
585 0.74883
590 0.587452
595 0.476828
600 0.179552
Ex : 438
200 0.272198
205 0.223521
210 0.270681
215 0.283674
220 0.263027
225 0.237843
230 0.280841
235 0.283413
240 0.30878
245 0.241017
250 0.227488
255 0.279398
260 0.315714
265 0.27955
270 0.259332
275 0.24909
280 0.25382
285 0.210293
290 0.203881
295 0.286852
300 0.244002
305 0.328923
310 0.256647
315 0.287292
320 0.27872
325 0.287111
330 0.312765
335 0.321672
340 0.358427
345 0.351111
350 0.29055
355 0.298215
360 0.364216
365 0.327584
370 0.348658
375 0.375053
380 0.336171
385 0.42635
390 0.443835
395 0.492851
400 0.514759
405 0.637843
410 0.771362
415 1.10738
420 1.65515
425 40.0404
430 687.007
435 1073.3
440 263.996
445 32.3384
450 5.78326
455 2.49174
460 2.33408
465 2.30749
470 2.26074
475 1.98567
480 2.1361
485 2.06597
490 2.7225
495 4.23391
500 4.28687
505 3.26575
510 2.8929
515 2.4266
520 2.17356
525 2.11757
530 1.88402
535 2.01624
540 1.76355
545 1.55662
550 1.46419
555 1.29519
560 1.2453
565 1.16209
570 1.01078
575 0.844663
580 0.747395
585 0.64077
590 0.63342
595 0.582317
600 0.603359
Ex : 443
200 0.207901
205 0.260833
210 0.186813
215 0.240645
220 0.21076
225 0.275965
230 0.236895
235 0.232566
240 0.192209
245 0.267483
250 0.275895
255 0.226625
260 0.288959
265 0.22009
270 0.300251
275 0.247251
280 0.229062
285 0.276744
290 0.295516
295 0.269363
300 0.198983
305 0.228372
310 0.311773
315 0.242691
320 0.267087
325 0.29798
330 0.249016
335 0.292094
340 0.259803
345 0.26533
350 0.341263
355 0.30971
360 0.325539
365 0.268219
370 0.32714
375 0.321155
380 0.381055
385 0.402282
390 0.420744
395 0.548557
400 0.469221
405 0.518758
410 0.66686
415 0.780801
420 1.03731
425 1.52812
430 43.5069
435 714.531
440 1064.74
445 257.269
450 31.8407
455 5.6885
460 2.55985
465 2.34597
470 2.40718
475 2.12328
480 1.88742
485 2.07112
490 2.14975
495 2.37947
500 3.75055
505 4.43033
510 3.54129
515 2.81264
520 2.62615
525 2.09355
530 2.09564
535 1.75473
540 1.77606
545 1.54433
550 1.50395
555 1.38614
560 1.12669
565 1.16174
570 1.08472
575 0.913245
580 0.807472
585 0.660609
590 0.615322
595 0.494839
600 0.966794
Ex : 448
200 0.273733
205 0.235941
210 0.308674
215 0.279844
220 0.224286
225 0.187831
230 0.24228
235 0.279352
240 0.236488
245 0.235748
250 0.279871
255 0.257951
260 0.256108
265 0.209122
270 0.208265
275 0.258824
280 0.220524
285 0.205829
290 0.283731
295 0.215415
300 0.238384
305 0.362862
310 0.302126
315 0.279475
320 0.287065
325 0.3106
330 0.318895
335 0.290366
340 0.316329
345 0.327642
350 0.402928
355 0.382353
360 0.337553
365 0.336164
370 0.386349
375 0.352213
380 0.398277
385 0.363213
390 0.439562
395 0.482483
400 0.474114
405 0.420713
410 0.504216
415 0.540835
420 0.647672
425 0.992607
430 1.61151
435 44.2467
440 746.332
445 1105.66
450 266.949
455 32.9541
460 5.79172
465 2.62336
470 2.19175
475 2.20544
480 2.21767
485 1.9233
490 1.86044
495 1.90658
500 2.08409
505 2.909
510 4.16268
515 3.39187
520 2.62384
525 2.4198
530 2.07182
535 1.86326
540 1.67323
545 1.60081
550 1.50103
555 1.30627
560 1.2531
565 1.2297
570 1.11902
575 0.813069
580 0.799582
585 0.843657
590 0.559313
595 0.565518
600 0.269097
Ex : 453
200 0.238
205 0.283524
210 0.215339
215 0.23388
220 0.236228
225 0.236258
230 0.240888
235 0.288202
240 0.188885
245 0.286371
250 0.236548
255 0.240858
260 0.23825
265 0.275961
270 0.266141
275 0.268609
280 0.319708
285 0.232895
290 0.216741
295 0.28426
300 0.211649
305 0.248042
310 0.200727
315 0.219906
320 0.228326
325 0.226275
330 0.299133
335 0.330518
340 0.333679
345 0.317662
350 0.283215
355 0.288082
360 0.264473
365 0.258412
370 0.279696
375 0.356324
380 0.342557
385 0.337568
390 0.401709
395 0.40869
400 0.432543
405 0.445345
410 0.551993
415 0.571636
420 0.594021
425 0.694601
430 0.920633
435 1.40247
440 45.2912
445 788.282
450 1121.48
455 256.278
460 31.6932
465 5.69659
470 2.31807
475 2.23938
480 2.23362
485 2.30652
490 1.9507
495 1.94467
500 1.77554
505 1.90005
510 2.35194
515 3.844
520 3.87029
525 2.70393
530 2.36991
535 2.14953
540 1.86027
545 1.62028
550 1.50068
555 1.47851
560 1.29931
565 1.21648
570 1.10352
575 0.966752
580 0.889783
585 0.710001
590 0.624343
595 0.542159
600 0.546116
Ex : 458
200 0.24678
205 0.243762
210 0.221016
215 0.307462
220 0.236476
225 0.28853
230 0.211838
235 0.261985
240 0.296017
245 0.242931
250 0.258003
255 0.272292
260 0.265798
265 0.295587
270 0.269392
275 0.256757
280 0.301303
285 0.258506
290 0.238652
295 0.223082
300 0.320859
305 0.322544
310 0.275567
315 0.32351
320 0.294383
325 0.291994
330 0.273892
335 0.245333
340 0.367169
345 0.3385
350 0.342574
355 0.319226
360 0.251651
365 0.300055
370 0.288654
375 0.322607
380 0.340265
385 0.358433
390 0.404291
395 0.363404
400 0.349494
405 0.35332
410 0.38768
415 0.424694
420 0.56015
425 0.614522
430 0.755767
435 1.00404
440 1.55834
445 49.1897
450 789.344
455 1150.42
460 272.634
465 33.7598
470 5.898
475 2.4453
480 2.27188
485 2.26998
490 2.17699
495 1.98583
500 1.79421
505 1.80745
510 1.86963
515 2.1613
520 3.22842
525 4.07722
530 2.91285
535 2.21125
540 2.00699
545 1.78554
550 1.49318
555 1.48082
560 1.33143
565 1.31085
570 1.12172
575 0.88006
580 0.773886
585 0.713226
590 0.631505
595 0.554143
600 0.393909
Ex : 463
200 0.26508
205 0.273464
210 0.26516
215 0.253309
220 0.246301
225 0.220602
230 0.256206
235 0.229829
240 0.246885
245 0.222092
250 0.226543
255 0.288015
260 0.28655
265 0.276803
270 0.215993
275 0.257422
280 0.298146
285 0.215935
290 0.253596
295 0.267173
300 0.301316
305 0.234783
310 0.256708
315 0.237467
320 0.26671
325 0.25913
330 0.256642
335 0.321662
340 0.247541
345 0.327319
350 0.299178
355 0.322239
360 0.308766
365 0.307661
370 0.350568
375 0.337285
380 0.318214
385 0.364509
390 0.339221
395 0.395014
400 0.321547
405 0.344879
410 0.378723
415 0.465542
420 0.446793
425 0.517375
430 0.550853
435 0.756495
440 0.952317
445 1.62495
450 47.2959
455 813.443
460 1208.53
465 285.124
470 35.0373
475 5.88986
480 2.36695
485 2.20045
490 2.02086
495 2.02025
500 1.85644
505 1.71842
510 1.72935
515 1.75191
520 1.78837
525 2.54274
530 3.66143
535 3.1188
540 2.19833
545 1.96004
550 1.68394
555 1.5347
560 1.36284
565 1.25772
570 1.07721
575 0.992187
580 0.870375
585 0.694484
590 0.647755
595 0.569121
600 0.0814846
Ex : 468
200 0.254164
205 0.250369
210 0.199148
215 0.193424
220 0.226455
225 0.185374
230 0.238657
235 0.242117
240 0.20914
245 0.20958
250 0.221331
255 0.240763
260 0.25977
265 0.278424
270 0.249224
275 0.214554
280 0.236042
285 0.229213
290 0.26094
295 0.317668
300 0.272326
305 0.203272
310 0.211546
315 0.264654
320 0.257239
325 0.235596
330 0.237664
335 0.269824
340 0.291487
345 0.267361
350 0.252502
355 0.257147
360 0.287286
365 0.271054
370 0.271793
375 0.274078
380 0.271508
385 0.295139
390 0.321865
395 0.367976
400 0.293607
405 0.347172
410 0.361752
415 0.397518
420 0.355916
425 0.414147
430 0.461923
435 0.538958
440 0.679898
445 1.02434
450 1.48748
455 50.8102
460 812.936
465 1245.51
470 292.261
475 35.4951
480 6.06177
485 2.22069
490 1.93638
495 2.03564
500 1.98395
505 1.92503
510 1.64614
515 1.73725
520 1.76375
525 1.77004
530 2.15176
535 3.05246
540 3.32454
545 2.29467
550 1.79748
555 1.67795
560 1.38285
565 1.20909
570 1.12136
575 0.940455
580 0.832167
585 0.673129
590 0.67977
595 0.565883
600 0.600649
Ex : 473
200 0.304046
205 0.278742
210 0.19743
215 0.252458
220 0.219881
225 0.312263
230 0.236636
235 0.241226
240 0.275382
245 0.220272
250 0.202179
255 0.241181
260 0.202035
265 0.255437
270 0.238129
275 0.29161
280 0.226662
285 0.207863
290 0.255746
295 0.228524
300 0.231409
305 0.230111
310 0.261163
315 0.217594
320 0.244549
325 0.238115
330 0.294517
335 0.265009
340 0.324385
345 0.27167
350 0.372347
355 0.312379
360 0.30278
365 0.265672
370 0.271796
375 0.29454
380 0.3505
385 0.342434
390 0.359527
395 0.356623
400 0.325681
405 0.377609
410 0.354849
415 0.362834
420 0.41504
425 0.391719
430 0.448252
435 0.491209
440 0.518384
445 0.774329
450 1.02834
455 1.5744
460 58.3446
465 885.381
470 1211.09
475 271.796
480 33.3522
485 5.68229
490 2.25467
495 1.76424
500 1.81586
505 1.89761
510 1.81688
515 1.68601
520 1.71968
525 1.72656
530 1.79584
535 2.10337
540 2.94079
545 3.4329
550 2.47642
555 1.84238
560 1.65514
565 1.38263
570 1.08405
575 0.982088
580 0.825543
585 0.763298
590 0.643515
595 0.571695
600 1.03642
Ex : 478
200 0.254645
205 0.230204
210 0.250251
215 0.22074
220 0.240733
225 0.265814
230 0.293606
235 0.280711
240 0.340883
245 0.289563
250 0.259413
255 0.343478
260 0.277342
265 0.300899
270 0.358369
275 0.266617
280 0.312483
285 0.295239
290 0.234477
295 0.273881
300 0.282202
305 0.325376
310 0.263939
315 0.290464
320 0.231561
325 0.250809
330 0.313529
335 0.332324
340 0.283675
345 0.23861
350 0.293613
355 0.339618
360 0.290964
365 0.404405
370 0.332246
375 0.352722
380 0.29567
385 0.391527
390 0.392395
395 0.385974
400 0.406096
405 0.393336
410 0.40572
415 0.472578
420 0.446632
425 0.481094
430 0.529778
435 0.541446
440 0.53151
445 0.67212
450 0.769162
455 1.16541
460 2.00825
465 62.1073
470 895.811
475 1224.44
480 288.693
485 35.295
490 5.99262
495 2.31265
500 1.76341
505 1.8295
510 1.9407
515 1.9031
520 1.7994
525 1.75641
530 1.70431
535 1.75331
540 1.73826
545 2.33224
550 3.04025
555 2.48607
560 1.71842
565 1.66027
570 1.42145
575 1.10899
580 0.851282
585 0.786013
590 0.734233
595 0.581028
600 0.332305
Ex : 483
200 0.237421
205 0.292917
210 0.271289
215 0.225307
220 0.255341
225 0.243698
230 0.284833
235 0.276683
240 0.264758
245 0.236321
250 0.246004
255 0.273373
260 0.279914
265 0.253269
270 0.339073
275 0.263631
280 0.292178
285 0.3278
290 0.35265
295 0.345951
300 0.348124
305 0.325817
310 0.304968
315 0.295148
320 0.299967
325 0.288483
330 0.308077
335 0.393638
340 0.35601
345 0.342835
350 0.357917
355 0.331786
360 0.388433
365 0.339655
370 0.308318
375 0.321889
380 0.339291
385 0.312575
390 0.368186
395 0.381949
400 0.443402
405 0.474261
410 0.469139
415 0.388143
420 0.369314
425 0.438697
430 0.417425
435 0.457052
440 0.508155
445 0.607079
450 0.655526
455 0.848587
460 1.36076
465 1.84525
470 48.5331
475 867.139
480 1280.54
485 299.63
490 36.3428
495 5.9853
500 2.20264
505 1.61828
510 1.69832
515 1.88941
520 1.96325
525 1.88483
530 1.80152
535 1.65133
540 1.68723
545 1.59889
550 1.81187
555 2.63459
560 2.91969
565 2.01431
570 1.39285
575 1.25594
580 0.96025
585 0.825308
590 0.785956
595 0.572061
600 0.190323
Ex : 488
200 0.366002
205 0.35167
210 0.331521
215 0.257671
220 0.324895
225 0.274005
230 0.274735
235 0.295128
240 0.317519
245 0.341116
250 0.336571
255 0.343115
260 0.279016
265 0.32664
270 0.288913
275 0.340432
280 0.32199
285 0.311694
290 0.302936
295 0.293014
300 0.286631
305 0.381834
310 0.358092
315 0.276802
320 0.367461
325 0.332604
330 0.347904
335 0.327628
340 0.373024
345 0.317353
350 0.354519
355 0.493603
360 0.310497
365 0.307727
370 0.327589
375 0.325846
380 0.384959
385 0.371607
390 0.316308
395 0.387952
400 0.400604
405 0.460703
410 0.447815
415 0.437844
420 0.478608
425 0.482923
430 0.544878
435 0.54754
440 0.539844
445 0.752794
450 0.6035
455 0.705074
460 0.888813
465 1.26766
470 1.75333
475 58.3843
480 920.917
485 1255.87
490 287.829
495 35.2014
500 5.83562
505 2.06785
510 1.73585
515 1.94304
520 2.02398
525 1.94891
530 1.94876
535 1.69777
540 1.58117
545 1.5872
550 1.4295
555 1.52218
560 2.18203
565 2.53107
570 1.95325
575 1.38201
580 1.0825
585 0.923713
590 0.70046
595 0.784559
600 0.489152
Ex : 493
200 0.30199
205 0.27802
210 0.344083
215 0.271328
220 0.261804
225 0.357393
230 0.367818
235 0.267965
240 0.370352
245 0.317165
250 0.383893
255 0.271837
260 0.310204
265 0.25556
270 0.255495
275 0.272663
280 0.270676
285 0.356014
290 0.294262
295 0.271778
300 0.278089
305 0.271234
310 0.362796
315 0.335052
320 0.258894
325 0.330846
330 0.292283
335 0.353207
340 0.291158
345 0.336625
350 0.370143
355 0.41726
360 0.366718
365 0.323013
370 0.410075
375 0.300791
380 0.438034
385 0.333717
390 0.373794
395 0.373385
400 0.397637
405 0.437329
410 0.421711
415 0.502083
420 0.394312
425 0.459657
430 0.488763
435 0.515775
440 0.484231
445 0.460155
450 0.567145
455 0.670066
460 0.819175
465 1.0907
470 1.14184
475 1.73081
480 53.5918
485 897.873
490 1305.98
495 293.245
500 35.7898
505 5.87836
510 2.33644
515 1.83199
520 1.8395
525 2.0106
530 2.03484
535 1.92522
540 1.61782
545 1.54808
550 1.50398
555 1.45078
560 1.45834
565 1.71655
570 2.23689
575 1.90146
580 1.15465
585 1.06276
590 0.919615
595 0.804234
600 1.10051
Ex : 498
200 0.342948
205 0.322619
210 0.322984
215 0.378751
220 0.331365
225 0.329476
230 0.327727
235 0.315057
240 0.305344
245 0.345042
250 0.320734
255 0.307373
260 0.365134
265 0.278074
270 0.375843
275 0.326168
280 0.322015
285 0.276016
290 0.379558
295 0.375447
300 0.357655
305 0.400885
310 0.377238
315 0.400624
320 0.329912
325 0.333418
330 0.418193
335 0.424659
340 0.441048
345 0.412788
350 0.401341
355 0.337039
360 0.365278
365 0.339169
370 0.379865
375 0.416231
380 0.439927
385 0.339874
390 0.401309
395 0.410125
400 0.388465
405 0.428429
410 0.434689
415 0.558043
420 0.401903
425 0.455618
430 0.494473
435 0.408843
440 0.481149
445 0.453934
450 0.570467
455 0.625374
460 0.663923
465 0.838591
470 0.958603
475 1.19419
480 1.95167
485 63.6461
490 939.099
495 1248.52
500 283.165
505 34.4965
510 5.95004
515 2.37206
520 1.8722
525 1.94803
530 2.01684
535 2.02335
540 1.85339
545 1.62276
550 1.59625
555 1.54739
560 1.44306
565 1.30081
570 1.33829
575 1.83026
580 1.89497
585 1.20758
590 0.982587
595 0.807221
600 0.594839
Ex : 503
200 0.301198
205 0.36992
210 0.296849
215 0.331156
220 0.366213
225 0.385709
230 0.359901
235 0.311043
240 0.453951
245 0.338635
250 0.242157
255 0.313425
260 0.361962
265 0.348626
270 0.383645
275 0.365482
280 0.308206
285 0.337286
290 0.36343
295 0.306674
300 0.42908
305 0.406913
310 0.367239
315 0.364648
320 0.45351
325 0.441356
330 0.385207
335 0.343342
340 0.388337
345 0.351936
350 0.431415
355 0.476524
360 0.424565
365 0.359466
370 0.307471
375 0.473611
380 0.436244
385 0.556245
390 0.44637
395 0.482272
400 0.404303
405 0.466405
410 0.364845
415 0.487581
420 0.490116
425 0.459417
430 0.43921
435 0.434841
440 0.516196
445 0.498541
450 0.683751
455 0.605143
460 0.670811
465 0.776108
470 0.910684
475 1.09392
480 1.32132
485 1.97499
490 57.4819
495 930.685
500 1276.82
505 287.431
510 35.2192
515 5.86754
520 2.46461
525 1.95297
530 1.71489
535 2.03848
540 1.91647
545 1.61071
550 1.49892
555 1.45076
560 1.26036
565 1.18397
570 1.16681
575 1.18131
580 1.37816
585 1.48168
590 1.17302
595 0.97202
600 0.599267
Ex : 508
200 0.376555
205 0.409045
210 0.420547
215 0.442581
220 0.315463
225 0.505047
230 0.391535
235 0.452151
240 0.410606
245 0.382
250 0.445786
255 0.291811
260 0.387147
265 0.275829
270 0.287831
275 0.413347
280 0.33884
285 0.38995
290 0.375802
295 0.389771
300 0.430672
305 0.47294
310 0.378576
315 0.336636
320 0.378482
325 0.366601
330 0.510335
335 0.466348
340 0.384876
345 0.422972
350 0.361629
355 0.427318
360 0.461131
365 0.447064
370 0.394549
375 0.46321
380 0.475311
385 0.436428
390 0.452408
395 0.424988
400 0.43084
405 0.459982
410 0.39626
415 0.523601
420 0.476658
425 0.522973
430 0.488828
435 0.477857
440 0.546968
445 0.431451
450 0.493289
455 0.494282
460 0.677638
465 0.674753
470 0.727357
475 0.894464
480 0.989037
485 1.43604
490 1.9174
495 61.0218
500 921.087
505 1260.84
510 296.713
515 36.4782
520 6.13454
525 2.64982
530 1.80138
535 1.85945
540 1.72824
545 1.90432
550 1.65092
555 1.52464
560 1.43043
565 1.29462
570 1.11996
575 1.06331
580 0.956438
585 1.01175
590 1.18692
595 1.28456
600 0.458956
Ex : 513
200 0.467432
205 0.438249
210 0.424115
215 0.370021
220 0.380861
225 0.398661
230 0.413094
235 0.384258
240 0.395482
245 0.37251
250 0.387687
255 0.382065
260 0.381135
265 0.394098
270 0.394964
275 0.403619
280 0.360466
285 0.360087
290 0.336414
295 0.43624
300 0.413806
305 0.431648
310 0.349376
315 0.366583
320 0.434393
325 0.441071
330 0.512155
335 0.386021
340 0.473779
345 0.410962
350 0.402668
355 0.417729
360 0.475931
365 0.415739
370 0.504278
375 0.451492
380 0.416102
385 0.501762
390 0.452785
395 0.459017
400 0.436202
405 0.466518
410 0.442446
415 0.451965
420 0.51857
425 0.413085
430 0.515017
435 0.552657
440 0.492014
445 0.53673
450 0.517128
455 0.724008
460 0.582134
465 0.618058
470 0.633919
475 0.842689
480 0.942105
485 1.07204
490 1.30607
495 1.69986
500 56.1371
505 894.87
510 1269.79
515 301.416
520 36.7978
525 6.19755
530 2.50907
535 1.94214
540 1.67283
545 1.81532
550 1.80228
555 1.58672
560 1.61456
565 1.18669
570 1.16462
575 1.03245
580 0.947848
585 0.880761
590 0.801626
595 0.944189
600 1.94699
Ex : 518
200 0.353392
205 0.327391
210 0.39134
215 0.368589
220 0.395094
225 0.458522
230 0.378359
235 0.44067
240 0.444863
245 0.413453
250 0.378361
255 0.417502
260 0.38032
265 0.415714
270 0.455299
275 0.365104
280 0.411287
285 0.499624
290 0.362076
295 0.356551
300 0.514189
305 0.404526
310 0.362045
315 0.36641
320 0.405773
325 0.363627
330 0.425107
335 0.447411
340 0.497337
345 0.376616
350 0.40848
355 0.44538
360 0.456804
365 0.49658
370 0.490174
375 0.537502
380 0.418879
385 0.448621
390 0.503015
395 0.465613
400 0.451948
405 0.561545
410 0.480625
415 0.434795
420 0.528976
425 0.522649
430 0.534878
435 0.526347
440 0.414776
445 0.562013
450 0.54041
455 0.688648
460 0.714614
465 0.63215
470 0.584344
475 0.701873
480 0.808723
485 0.805016
490 0.957349
495 1.27861
500 1.91102
505 54.756
510 859.73
515 1246.83
520 298.57
525 36.4883
530 6.04847
535 2.42102
540 1.83707
545 1.57371
550 1.53374
555 1.6139
560 1.38134
565 1.32211
570 1.2551
575 1.14638
580 1.05685
585 0.969849
590 0.790058
595 0.819413
600 1.32562
Ex : 523
200 0.413842
205 0.38851
210 0.399513
215 0.445773
220 0.388957
225 0.401633
230 0.394679
235 0.402803
240 0.458261
245 0.437356
250 0.388427
255 0.344484
260 0.355466
265 0.386125
270 0.396159
275 0.429148
280 0.404048
285 0.397371
290 0.327178
295 0.414847
300 0.534002
305 0.476904
310 0.375717
315 0.499845
320 0.499468
325 0.418535
330 0.355498
335 0.374368
340 0.410492
345 0.439438
350 0.520781
355 0.363749
360 0.397817
365 0.453316
370 0.451125
375 0.469301
380 0.497645
385 0.567291
390 0.43987
395 0.566913
400 0.526613
405 0.542285
410 0.488451
415 0.522579
420 0.467162
425 0.516915
430 0.434257
435 0.532603
440 0.55041
445 0.56299
450 0.486651
455 0.632768
460 0.581562
465 0.677181
470 0.673355
475 0.705849
480 0.696981
485 0.889482
490 0.79487
495 1.05112
500 1.25141
505 1.78539
510 49.9633
515 812.823
520 1217.62
525 304.699
530 37.3675
535 5.9702
540 2.22251
545 1.64438
550 1.34479
555 1.42245
560 1.54988
565 1.36369
570 1.12761
575 1.05095
580 0.956335
585 0.932603
590 0.768389
595 0.792619
600 0.152471
Ex : 528
200 0.362002
205 0.523635
210 0.425212
215 0.426198
220 0.519336
225 0.340825
230 0.39551
235 0.389006
240 0.278099
245 0.390995
250 0.426667
255 0.359031
260 0.50326
265 0.467906
270 0.368233
275 0.507066
280 0.415331
285 0.50478
290 0.596184
295 0.412957
300 0.427131
305 0.362099
310 0.454736
315 0.476674
320 0.476279
325 0.470584
330 0.467049
335 0.423359
340 0.469543
345 0.489116
350 0.411109
355 0.519825
360 0.481973
365 0.405135
370 0.345521
375 0.481892
380 0.470407
385 0.444801
390 0.507523
395 0.495493
400 0.549309
405 0.41692
410 0.401074
415 0.605092
420 0.541782
425 0.517711
430 0.511739
435 0.519567
440 0.512336
445 0.524681
450 0.553327
455 0.585415
460 0.600775
465 0.596222
470 0.608506
475 0.516002
480 0.669658
485 0.72995
490 0.886886
495 0.94447
500 0.838601
505 1.35384
510 1.80789
515 46.6113
520 791.88
525 1199.25
530 297.632
535 36.395
540 5.92816
545 2.20949
550 1.47037
555 1.40345
560 1.28555
565 1.2435
570 1.07971
575 1.05432
580 0.878185
585 0.798387
590 0.732379
595 0.735967
600 0.534237
Ex : 533
200 0.48503
205 0.428736
210 0.435947
215 0.50543
220 0.411218
225 0.426544
230 0.421852
235 0.428379
240 0.583695
245 0.512573
250 0.452035
255 0.501776
260 0.501172
265 0.459274
270 0.325901
275 0.405534
280 0.442662
285 0.453371
290 0.398383
295 0.490386
300 0.446579
305 0.445901
310 0.425038
315 0.423497
320 0.374579
325 0.447814
330 0.399951
335 0.403739
340 0.538144
345 0.464225
350 0.458825
355 0.449628
360 0.438926
365 0.458206
370 0.437897
375 0.514637
380 0.704911
385 0.539684
390 0.570325
395 0.494439
400 0.407752
405 0.43955
410 0.548653
415 0.483138
420 0.570321
425 0.539313
430 0.534243
435 0.475846
440 0.667031
445 0.586469
450 0.496191
455 0.512816
460 0.61942
465 0.686113
470 0.56366
475 0.542324
480 0.573581
485 0.746322
490 0.676056
495 0.716564
500 0.778358
505 0.993781
510 1.19899
515 1.71688
520 45.6441
525 761.662
530 1164.92
535 297.658
540 36.2639
545 5.61643
550 1.98949
555 1.45284
560 1.2768
565 1.06982
570 1.20763
575 1.16867
580 0.980278
585 0.775049
590 0.839756
595 0.773361
600 0.594408
Ex : 538
200 0.289755
205 0.498814
210 0.460381
215 0.346572
220 0.443232
225 0.414796
230 0.433121
235 0.403769
240 0.373659
245 0.464511
250 0.498668
255 0.34617
260 0.515624
265 0.537654
270 0.48887
275 0.490043
280 0.471189
285 0.517463
290 0.505015
295 0.4491
300 0.500631
305 0.377811
310 0.507135
315 0.461489
320 0.405784
325 0.483109
330 0.607951
335 0.527329
340 0.53078
345 0.482084
350 0.549813
355 0.472318
360 0.435133
365 0.473369
370 0.473562
375 0.492452
380 0.55311
385 0.667275
390 0.438746
395 0.5207
400 0.429285
405 0.521124
410 0.516074
415 0.526293
420 0.489309
425 0.493796
430 0.476201
435 0.592102
440 0.532403
445 0.470867
450 0.520484
455 0.537814
460 0.748531
465 0.692762
470 0.555603
475 0.571711
480 0.643111
485 0.600958
490 0.520818
495 0.627104
500 0.741938
505 0.885828
510 1.08378
515 1.29199
520 1.77215
525 38.2157
530 711.871
535 1133.06
540 298.299
545 36.1145
550 5.73761
555 2.05898
560 1.46802
565 1.17296
570 1.02886
575 1.25695
580 1.15106
585 1.0246
590 0.967617
595 0.868315
600 1.22859
Ex : 543
200 0.470885
205 0.451499
210 0.432565
215 0.510128
220 0.500184
225 0.339676
230 0.357744
235 0.498554
240 0.470018
245 0.439416
250 0.491821
255 0.424383
260 0.423893
265 0.534778
270 0.459751
275 0.357081
280 0.462587
285 0.516442
290 0.474197
295 0.526138
300 0.529336
305 0.439706
310 0.488218
315 0.503962
320 0.344609
325 0.381603
330 0.481525
335 0.442968
340 0.401523
345 0.546235
350 0.403146
355 0.549275
360 0.478139
365 0.53837
370 0.574459
375 0.384673
380 0.514244
385 0.601492
390 0.451056
395 0.55036
400 0.496743
405 0.514554
410 0.57674
415 0.534684
420 0.463559
425 0.544557
430 0.660906
435 0.559787
440 0.532755
445 0.58989
450 0.534971
455 0.470885
460 0.553152
465 0.676988
470 0.606676
475 0.62528
480 0.553179
485 0.458475
490 0.603098
495 0.700768
500 0.678065
505 0.840943
510 0.945992
515 1.00716
520 1.16753
525 1.63027
530 35.1426
535 674.58
540 1128.28
545 301.145
550 36.5216
555 5.55381
560 2.11309
565 1.43121
570 1.24136
575 0.975654
580 0.810973
585 0.894785
590 0.971654
595 0.960502
600 0.73233
Ex : 548
200 0.428316
205 0.445358
210 0.395655
215 0.435039
220 0.477898
225 0.410426
230 0.436987
235 0.536914
240 0.444502
245 0.590446
250 0.473052
255 0.435653
260 0.414514
265 0.493
270 0.455825
275 0.444759
280 0.445222
285 0.393328
290 0.491793
295 0.48514
300 0.367766
305 0.481943
310 0.528216
315 0.419639
320 0.412911
325 0.535941
330 0.495982
335 0.382546
340 0.493177
345 0.632967
350 0.576233
355 0.51598
360 0.531527
365 0.580108
370 0.539143
375 0.467017
380 0.444705
385 0.539495
390 0.457475
395 0.496227
400 0.397911
405 0.54713
410 0.431225
415 0.458058
420 0.441385
425 0.367575
430 0.629854
435 0.499903
440 0.603474
445 0.547215
450 0.517233
455 0.590794
460 0.614638
465 0.628819
470 0.615671
475 0.664336
480 0.618229
485 0.622302
490 0.698593
495 0.763353
500 0.689619
505 0.570959
510 0.696759
515 0.774601
520 1.0732
525 1.17773
530 1.80771
535 37.2066
540 675.45
545 1086.52
550 291.229
555 35.2892
560 5.40516
565 1.90527
570 1.38544
575 0.998323
580 0.889534
585 0.797443
590 0.866058
595 0.781156
600 0.672356
Ex : 553
200 0.435854
205 0.389993
210 0.5158
215 0.486166
220 0.556925
225 0.547135
230 0.454469
235 0.493861
240 0.626138
245 0.474585
250 0.437307
255 0.492934
260 0.423073
265 0.427183
270 0.459689
275 0.473425
280 0.418958
285 0.376311
290 0.348704
295 0.522316
300 0.489934
305 0.409987
310 0.436661
315 0.502091
320 0.378208
325 0.470899
330 0.532241
335 0.412796
340 0.505337
345 0.538854
350 0.506338
355 0.426859
360 0.457126
365 0.50644
370 0.44158
375 0.589637
380 0.549496
385 0.610831
390 0.721933
395 0.453774
400 0.51972
405 0.4782
410 0.494427
415 0.539042
420 0.412688
425 0.564701
430 0.61582
435 0.469803
440 0.65851
445 0.442226
450 0.664975
455 0.527755
460 0.56951
465 0.617518
470 0.613207
475 0.622342
480 0.601717
485 0.582436
490 0.662934
495 0.667888
500 0.604606
505 0.722601
510 0.745271
515 0.929123
520 0.817922
525 0.98814
530 1.15475
535 1.68825
540 31.9229
545 629.609
550 1054.34
555 288.568
560 35.1356
565 5.36642
570 1.75906
575 1.19942
580 0.909455
585 0.715137
590 0.704344
595 0.961008
600 0.840692
Ex : 558
200 0.473366
205 0.49159
210 0.468119
215 0.61758
220 0.463674
225 0.562526
230 0.437805
235 0.452912
240 0.504735
245 0.443191
250 0.537032
255 0.3874
260 0.467278
265 0.421299
270 0.486588
275 0.477501
280 0.50452
285 0.456746
290 0.379942
295 0.581399
300 0.590661
305 0.470449
310 0.569695
315 0.435725
320 0.378328
325 0.446324
330 0.49976
335 0.467526
340 0.568894
345 0.565321
350 0.441394
355 0.483806
360 0.541701
365 0.593706
370 0.574431
375 0.552162
380 0.571562
385 0.487941
390 0.509018
395 0.534631
400 0.633332
405 0.642157
410 0.518587
415 0.445103
420 0.517186
425 0.638855
430 0.59574
435 0.595024
440 0.60179
445 0.502144
450 0.518532
455 0.66407
460 0.5671
465 0.537394
470 0.521934
475 0.481247
480 0.650927
485 0.674006
490 0.674968
495 0.659065
500 0.722152
505 0.728599
510 0.690712
515 0.835711
520 0.76085
525 0.92948
530 0.844107
535 1.28511
540 1.68824
545 28.7051
550 582.293
555 1013.16
560 283.811
565 34.3046
570 5.18437
575 1.49868
580 1.20213
585 1.09595
590 0.8203
595 0.839519
600 0.81154
Ex : 563
200 0.605714
205 0.42156
210 0.50129
215 0.539749
220 0.495005
225 0.608469
230 0.548957
235 0.529503
240 0.544039
245 0.553694
250 0.567607
255 0.459554
260 0.522652
265 0.496122
270 0.486203
275 0.415924
280 0.438636
285 0.415151
290 0.529958
295 0.565897
300 0.624089
305 0.58195
310 0.482518
315 0.48615
320 0.394286
325 0.453771
330 0.464722
335 0.607277
340 0.606034
345 0.513167
350 0.472115
355 0.592246
360 0.53203
365 0.466482
370 0.553065
375 0.567196
380 0.532882
385 0.503082
390 0.537435
395 0.445566
400 0.6063
405 0.586826
410 0.631219
415 0.569233
420 0.584159
425 0.592358
430 0.559646
435 0.518656
440 0.793776
445 0.629866
450 0.787315
455 0.579918
460 0.640654
465 0.580859
470 0.462594
475 0.69809
480 0.59353
485 0.609567
490 0.582
495 0.619628
500 0.54592
505 0.650481
510 0.903772
515 0.78506
520 0.641232
525 0.831766
530 0.86334
535 0.919859
540 1.34577
545 1.54694
550 29.8591
555 570.286
560 973.048
565 274.57
570 33.2387
575 4.86364
580 1.5955
585 1.11558
590 0.854661
595 0.774171
600 1.00486
Ex : 568
200 0.532026
205 0.567808
210 0.473293
215 0.588546
220 0.525793
225 0.460918
230 0.656597
235 0.47846
240 0.4908
245 0.664004
250 0.532859
255 0.495342
260 0.589149
265 0.483137
270 0.52106
275 0.477763
280 0.580164
285 0.520553
290 0.532101
295 0.624045
300 0.547326
305 0.489862
310 0.560227
315 0.539401
320 0.497448
325 0.556618
330 0.619915
335 0.568723
340 0.504408
345 0.520715
350 0.608023
355 0.651083
360 0.535709
365 0.542545
370 0.545192
375 0.553031
380 0.633554
385 0.573473
390 0.569288
395 0.614872
400 0.553026
405 0.602807
410 0.767754
415 0.61501
420 0.565021
425 0.58043
430 0.650915
435 0.542223
440 0.461006
445 0.544308
450 0.756315
455 0.706393
460 0.581052
465 0.577858
470 0.588695
475 0.72095
480 0.648374
485 0.613534
490 0.60142
495 0.574863
500 0.734826
505 0.631342
510 0.634382
515 0.689052
520 0.720197
525 0.725322
530 0.79992
535 0.821215
540 0.940445
545 1.2342
550 1.63955
555 21.8846
560 501.363
565 927.343
570 272.618
575 33.1811
580 4.91584
585 1.69218
590 1.03767
595 0.874152
600 0.859976
Ex : 573
200 0.412663
205 0.393681
210 0.450293
215 0.424865
220 0.579477
225 0.545106
230 0.595125
235 0.621175
240 0.618643
245 0.514524
250 0.571304
255 0.533492
260 0.576096
265 0.537164
270 0.583402
275 0.581616
280 0.574367
285 0.457248
290 0.597041
295 0.587611
300 0.646016
305 0.441158
310 0.727189
315 0.565031
320 0.535308
325 0.38778
330 0.490181
335 0.423519
340 0.633927
345 0.518771
350 0.575154
355 0.565077
360 0.543366
365 0.616426
370 0.546602
375 0.506391
380 0.60012
385 0.622149
390 0.560285
395 0.629015
400 0.73988
405 0.607091
410 0.553387
415 0.559074
420 0.483712
425 0.471136
430 0.551364
435 0.682263
440 0.633658
445 0.577727
450 0.687809
455 0.580245
460 0.590922
465 0.773729
470 0.640254
475 0.61573
480 0.634751
485 0.61139
490 0.576398
495 0.761181
500 0.567612
505 0.55874
510 0.595676
515 0.749457
520 0.606873
525 0.690555
530 0.776163
535 0.801935
540 0.773802
545 1.00658
550 1.01763
555 1.35048
560 18.9024
565 433.164
570 845.984
575 259.658
580 31.7259
585 4.68085
590 1.29609
595 1.0651
600 0.451105
Ex : 578
200 0.600571
205 0.472126
210 0.451597
215 0.697641
220 0.594011
225 0.49393
230 0.545407
235 0.449167
240 0.355721
245 0.510638
250 0.404766
255 0.524015
260 0.623666
265 0.545522
270 0.479144
275 0.528917
280 0.522493
285 0.55215
290 0.534142
295 0.483076
300 0.607993
305 0.548342
310 0.54644
315 0.642911
320 0.647251
325 0.574747
330 0.602546
335 0.62696
340 0.487447
345 0.543737
350 0.588613
355 0.582161
360 0.784019
365 0.620876
370 0.57268
375 0.580064
380 0.719703
385 0.563431
390 0.669289
395 0.607917
400 0.497805
405 0.697783
410 0.595289
415 0.61666
420 0.613933
425 0.632664
430 0.436827
435 0.455672
440 0.638439
445 0.667902
450 0.649629
455 0.546481
460 0.692147
465 0.70078
470 0.620842
475 0.76816
480 0.793038
485 0.650249
490 0.680388
495 0.530331
500 0.653558
505 0.669658
510 0.719036
515 0.639948
520 0.553044
525 0.743261
530 0.760006
535 0.699999
540 0.82574
545 0.804048
550 0.91036
555 1.05229
560 1.35375
565 16.791
570 385.168
575 737.677
580 219.989
585 26.6765
590 3.95024
595 1.23689
600 0.180582
Ex : 583
200 0.554589
205 0.38392
210 0.38311
215 0.421959
220 0.440244
225 0.457643
230 0.54115
235 0.533602
240 0.552892
245 0.504613
250 0.474314
255 0.581828
260 0.471691
265 0.421843
270 0.520481
275 0.511116
280 0.622473
285 0.604483
290 0.412624
295 0.478077
300 0.558191
305 0.607663
310 0.449519
315 0.523267
320 0.66175
325 0.531565
330 0.452638
335 0.473267
340 0.568208
345 0.538852
350 0.648997
355 0.628574
360 0.688199
365 0.666034
370 0.597916
375 0.590833
380 0.583802
385 0.599051
390 0.635684
395 0.551986
400 0.562728
405 0.57197
410 0.611235
415 0.610896
420 0.472248
425 0.660883
430 0.714151
435 0.538647
440 0.579532
445 0.631632
450 0.659808
455 0.755464
460 0.746297
465 0.504628
470 0.70635
475 0.627688
480 0.60603
485 0.671073
490 0.625464
495 0.727373
500 0.691307
505 0.635384
510 0.636162
515 0.638735
520 0.642683
525 0.614622
530 0.67158
535 0.624153
540 0.758829
545 0.7784
550 0.796716
555 0.884069
560 1.10817
565 1.39435
570 14.4674
575 337.152
580 622.04
585 180.534
590 22.0012
595 3.33376
600 1.65414
Ex : 588
200 0.74714
205 0.537009
210 0.472482
215 0.625325
220 0.529083
225 0.668259
230 0.563889
235 0.529899
240 0.46899
245 0.517312
250 0.552413
255 0.615562
260 0.443232
265 0.595192
270 0.595913
275 0.588254
280 0.413947
285 0.648452
290 0.602605
295 0.588373
300 0.565903
305 0.498512
310 0.789167
315 0.699689
320 0.576993
325 0.653285
330 0.437044
335 0.571402
340 0.461889
345 0.56784
350 0.498044
355 0.496358
360 0.46184
365 0.600143
370 0.65491
375 0.501425
380 0.587107
385 0.670684
390 0.590112
395 0.685644
400 0.613716
405 0.572704
410 0.605585
415 0.685004
420 0.58932
425 0.559379
430 0.64059
435 0.743193
440 0.649977
445 0.688541
450 0.641201
455 0.693445
460 0.672043
465 0.63364
470 0.702821
475 0.736552
480 0.578276
485 0.604518
490 0.580707
495 0.631163
500 0.581493
505 0.605146
510 0.650408
515 0.63207
520 0.64884
525 0.625804
530 0.831534
535 0.668001
540 0.690905
545 0.697735
550 0.997876
555 0.927576
560 0.866497
565 0.837702
570 1.19064
575 12.153
580 280.492
585 526.529
590 159.453
595 19.6134
600 3.89181
Ex : 593
200 0.554294
205 0.496284
210 0.616464
215 0.685946
220 0.526604
225 0.701727
230 0.608046
235 0.560836
240 0.632101
245 0.493474
250 0.577315
255 0.609511
260 0.69934
265 0.591269
270 0.67101
275 0.614194
280 0.766017
285 0.597603
290 0.594639
295 0.632346
300 0.518021
305 0.478814
310 0.560787
315 0.693061
320 0.566208
325 0.494997
330 0.695396
335 0.709366
340 0.648611
345 0.528771
350 0.567542
355 0.613076
360 0.664018
365 0.683683
370 0.604135
375 0.638298
380 0.531207
385 0.541897
390 0.674945
395 0.576397
400 0.594355
405 0.724182
410 0.642941
415 0.586136
420 0.633543
425 0.594751
430 0.702379
435 0.652102
440 0.544852
445 0.615635
450 0.752136
455 0.645664
460 0.729059
465 0.733845
470 0.678952
475 0.6826
480 0.631599
485 0.579041
490 0.663113
495 0.567261
500 0.622162
505 0.795746
510 0.677786
515 0.751108
520 0.739104
525 0.676524
530 0.695385
535 0.682169
540 0.648473
545 0.716992
550 0.68105
555 0.795625
560 0.801317
565 0.819835
570 0.974683
575 1.22814
580 10.5889
585 245.757
590 447.902
595 134.78
600 20.987
Ex : 598
200 0.540546
205 0.46307
210 0.723483
215 0.52701
220 0.545203
225 0.60965
230 0.629451
235 0.544483
240 0.722364
245 0.562571
250 0.595479
255 0.752719
260 0.583467
265 0.599535
270 0.623622
275 0.446321
280 0.4737
285 0.500571
290 0.439621
295 0.672785
300 0.528541
305 0.487833
310 0.52898
315 0.494591
320 0.49817
325 0.752886
330 0.51937
335 0.655225
340 0.671611
345 0.660992
350 0.537902
355 0.708192
360 0.57307
365 0.692027
370 0.578305
375 0.601792
380 0.776172
385 0.642857
390 0.561739
395 0.652471
400 0.635085
405 0.597421
410 0.731188
415 0.719556
420 0.554925
425 0.660221
430 0.7962
435 0.707273
440 0.533979
445 0.586561
450 0.658241
455 0.531338
460 0.588659
465 0.65879
470 0.632623
475 0.492552
480 0.553107
485 0.601758
490 0.617482
495 0.660506
500 0.653774
505 0.727409
510 0.582437
515 0.619006
520 0.647495
525 0.818026
530 0.757598
535 0.629557
540 0.768586
545 0.666787
550 0.606294
555 0.739023
560 0.730437
565 0.9759
570 0.96427
575 0.937786
580 0.945309
585 10.5773
590 222.391
595 394.973
600 254.442
Ex : 603
200 0.713313
205 0.617569
210 0.655351
215 0.576973
220 0.537922
225 0.629822
230 0.589002
235 0.583507
240 0.732962
245 0.54553
250 0.533929
255 0.621774
260 0.772816
265 0.474608
270 0.404855
275 0.740117
280 0.783032
285 0.685957
290 0.746
295 0.667204
300 0.601061
305 0.645812
310 0.718628
315 0.617058
320 0.792296
325 0.63186
330 0.579774
335 0.714877
340 0.694952
345 0.559868
350 0.643445
355 0.634464
360 0.60902
365 0.619267
370 0.731588
375 0.561235
380 0.582411
385 0.662872
390 0.626722
395 0.689404
400 0.633647
405 0.68024
410 0.667561
415 0.540242
420 0.552918
425 0.703707
430 0.497174
435 0.623387
440 0.676907
445 0.783917
450 0.776884
455 0.702355
460 0.91135
465 0.711009
470 0.689673
475 0.578512
480 0.712166
485 0.454643
490 0.658736
495 0.684043
500 0.756011
505 0.652604
510 0.718597
515 0.668122
520 0.738379
525 0.647295
530 0.53462
535 0.571432
540 0.694383
545 0.676289
550 0.839134
555 0.975824
560 0.628647
565 1.0307
570 0.738853
575 0.904948
580 0.920025
585 0.880221
590 9.52345
595 187.83
600 400.995
