File format V 1.0
ven. 9. déc. 20:27:55 2016
Operator : 
Comments : 

=============================================
SpectroFluorometer parameters
Mode : 3D measurement
Data : Fluorescence
Phospho. : Ordinary
Spectrum : Fluorescence

Scan speed : 2400 nm/mn
Response : 100 ms
PM Voltage : 700 V
Shutter : On

Lambda Ex. Start : 203
Lambda Ex. End : 603
Lambda Ex. Step : 5
Ex. Slit : 5 nm

Lambda Em. Start : 200
Lambda Em. End : 600
Lambda Em. Step : 5
Em. Slit : 5 nm

Repetition : 1
Decal lambda em : 10
=============================================
DATA
Ex : 203
200 14.1859
205 13.9897
210 15.1686
215 15.2684
220 13.5182
225 17.0935
230 20.4518
235 18.0647
240 17.8074
245 16.8584
250 19.5087
255 14.075
260 15.6819
265 17.0633
270 12.468
275 15.9547
280 15.9258
285 11.4621
290 10.677
295 18.3285
300 16.9407
305 18.9685
310 18.3459
315 14.7843
320 15.6729
325 15.055
330 13.7999
335 14.7082
340 14.6979
345 17.9141
350 16.4545
355 14.3215
360 19.9974
365 15.4323
370 12.8565
375 17.8103
380 13.5862
385 23.0222
390 21.1116
395 17.0042
400 18.7672
405 13.4062
410 16.6135
415 18.2998
420 16.1212
425 13.7983
430 20.5781
435 20.7998
440 18.3523
445 19.274
450 18.5796
455 15.9963
460 14.3856
465 18.0498
470 24.4582
475 17.7258
480 19.9756
485 16.8765
490 14.1237
495 15.97
500 12.6357
505 15.3127
510 18.1012
515 16.3304
520 19.5407
525 17.5027
530 16.1989
535 15.8177
540 15.2052
545 14.0136
550 17.6239
555 20.6915
560 21.2931
565 18.5613
570 15.7485
575 19.0308
580 20.4182
585 14.9532
590 13.5177
595 17.1893
600 2.54687
Ex : 208
200 18.5706
205 14.8593
210 16.8461
215 14.6523
220 12.3069
225 11.3652
230 16.4696
235 19.8375
240 18.8397
245 18.0607
250 17.7168
255 13.6375
260 13.4548
265 12.8251
270 17.026
275 15.5487
280 13.6326
285 18.186
290 21.9226
295 21.4541
300 15.3898
305 21.0305
310 17.2514
315 14.9028
320 12.2175
325 14.1317
330 14.9822
335 19.3484
340 15.51
345 11.7962
350 15.1073
355 14.0605
360 14.5806
365 15.5782
370 15.336
375 13.6173
380 17.5288
385 17.2439
390 15.8702
395 14.5065
400 15.6506
405 17.8213
410 18.099
415 16.6661
420 14.5903
425 18.7775
430 19.3336
435 16.7721
440 14.5149
445 15.1091
450 17.2582
455 17.7988
460 12.7951
465 12.5435
470 16.4541
475 19.6801
480 14.9133
485 13.8103
490 20.3678
495 18.248
500 18.353
505 13.6873
510 13.8576
515 13.788
520 16.3538
525 18.1757
530 14.5754
535 13.8744
540 15.8462
545 16.0744
550 20.7349
555 16.3296
560 17.2209
565 16.8036
570 14.4169
575 13.631
580 15.4598
585 12.8493
590 14.8399
595 19.9319
600 132.762
Ex : 213
200 17.3758
205 19.8989
210 14.084
215 14.2479
220 20.8891
225 15.7563
230 20.282
235 15.5584
240 13.3481
245 15.1407
250 14.6167
255 15.1282
260 15.6898
265 16.1482
270 19.0257
275 15.2686
280 16.2012
285 14.2662
290 17.4794
295 16.1432
300 18.9084
305 14.3319
310 15.9767
315 15.237
320 16.2441
325 17.2056
330 14.9228
335 16.3563
340 17.7716
345 15.8471
350 18.8896
355 13.6204
360 19.4405
365 16.3008
370 15.5425
375 14.3755
380 16.0964
385 18.7294
390 18.7607
395 14.547
400 20.5628
405 14.0714
410 20.8833
415 18.2267
420 15.1857
425 15.6961
430 17.345
435 16.8653
440 16.8431
445 19.0446
450 18.585
455 19.5146
460 15.4194
465 19.9141
470 16.8692
475 16.4977
480 15.0219
485 14.1215
490 12.5529
495 13.5075
500 16.7995
505 15.6096
510 14.0805
515 14.4935
520 14.3247
525 12.9081
530 16.8748
535 14.9959
540 16.7547
545 14.3022
550 12.5729
555 18.5541
560 13.2586
565 16.1785
570 18.0423
575 15.8351
580 16.8053
585 18.2602
590 19.0635
595 17.6806
600 34.58
Ex : 218
200 14.5706
205 19.9428
210 13.4367
215 12.7755
220 12.3074
225 15.4046
230 15.8011
235 13.1529
240 11.9826
245 13.3323
250 15.8366
255 12.3191
260 15.1407
265 17.1792
270 12.3299
275 12.577
280 16.9593
285 16.7895
290 11.3434
295 15.1156
300 15.0801
305 17.4814
310 11.5997
315 11.6168
320 15.2666
325 14.8898
330 12.3849
335 11.302
340 18.4266
345 16.8489
350 16.26
355 15.6476
360 19.3789
365 17.3973
370 20.9393
375 16.8611
380 11.9691
385 16.3324
390 12.0889
395 20.5909
400 13.8185
405 17.904
410 18.2247
415 16.9806
420 17.9948
425 16.4832
430 13.9073
435 15.4553
440 13.7964
445 17.7505
450 17.2861
455 17.6341
460 13.414
465 14.7067
470 17.274
475 12.3638
480 17.4101
485 20.6119
490 17.9946
495 16.1149
500 16.0182
505 17.7227
510 13.8525
515 13.4734
520 18.3875
525 19.26
530 15.7855
535 16.7542
540 15.0822
545 17.5585
550 13.7325
555 13.877
560 11.8484
565 11.5944
570 11.8325
575 18.1057
580 17.7802
585 21.6201
590 18.0624
595 15.2281
600 18.0391
Ex : 223
200 13.7241
205 16.3368
210 17.1718
215 14.1262
220 14.1726
225 17.2862
230 12.8868
235 11.9474
240 14.8893
245 10.4601
250 14.2143
255 15.4041
260 15.1937
265 16.8666
270 14.3515
275 13.8618
280 13.3337
285 15.3278
290 12.1746
295 15.6742
300 14.6044
305 13.5753
310 20.7255
315 11.9165
320 13.907
325 16.8303
330 12.3826
335 17.9866
340 18.2839
345 13.5634
350 13.2707
355 15.1982
360 13.874
365 20.2095
370 16.8908
375 14.0433
380 15.6494
385 14.823
390 15.4503
395 17.1089
400 16.4199
405 13.6846
410 13.4915
415 11.6473
420 14.5987
425 16.0415
430 15.1902
435 17.7203
440 14.8098
445 17.8374
450 19.642
455 15.7498
460 12.3582
465 15.5219
470 16.6024
475 15.3032
480 15.8833
485 13.5557
490 13.1024
495 13.4044
500 13.0085
505 15.3297
510 12.1149
515 17.444
520 16.9261
525 12.8846
530 12.5262
535 14.2654
540 13.3364
545 16.7474
550 15.4103
555 12.9106
560 20.5474
565 22.2728
570 14.886
575 17.8398
580 14.437
585 20.0494
590 12.9629
595 10.5704
600 16.6228
Ex : 228
200 10.3412
205 11.8405
210 13.3654
215 13.7259
220 15.1329
225 11.8674
230 9.94458
235 10.1311
240 14.7722
245 14.4947
250 16.5445
255 16.1548
260 15.0591
265 17.6071
270 12.221
275 15.565
280 11.7873
285 13.2603
290 18.9045
295 16.5581
300 18.993
305 17.6427
310 16.7959
315 15.608
320 12.5906
325 17.1559
330 18.5013
335 17.7986
340 16.1514
345 13.9171
350 12.3784
355 13.6611
360 12.8368
365 14.3266
370 12.4945
375 15.1697
380 10.1782
385 13.1593
390 18.1747
395 15.9412
400 15.872
405 14.3383
410 9.71174
415 11.943
420 15.0647
425 13.3749
430 14.1645
435 16.9785
440 17.2052
445 16.2759
450 13.5053
455 14.2501
460 13.1569
465 9.91615
470 18.6285
475 15.403
480 15.8292
485 14.5644
490 16.812
495 14.781
500 17.1334
505 15.5398
510 17.4418
515 15.0188
520 14.3341
525 13.7176
530 12.0335
535 13.7283
540 16.0997
545 14.4021
550 14.9546
555 14.2056
560 14.216
565 18.8718
570 16.3314
575 13.7636
580 14.4962
585 15.9534
590 16.5379
595 11.5873
600 11.0668
Ex : 233
200 14.9535
205 12.6619
210 12.0588
215 11.0186
220 12.9535
225 12.0918
230 10.0219
235 13.6909
240 10.9759
245 11.1101
250 11.872
255 11.4346
260 12.211
265 13.581
270 13.7859
275 12.2935
280 12.7655
285 13.505
290 13.2167
295 13.6724
300 13.9885
305 16.551
310 13.5423
315 11.1526
320 11.1868
325 11.0656
330 13.7573
335 14.9599
340 11.8273
345 13.9074
350 11.3087
355 12.2126
360 13.8749
365 16.0095
370 15.1283
375 10.4243
380 11.592
385 16.3717
390 13.8224
395 15.9388
400 12.8831
405 13.3857
410 12.8056
415 11.4452
420 12.38
425 13.0048
430 17.8612
435 15.523
440 13.8651
445 17.1162
450 13.504
455 14.9256
460 14.4412
465 10.9797
470 15.8235
475 9.18429
480 13.1538
485 13.9927
490 13.8732
495 13.2857
500 10.5811
505 14.1168
510 13.0252
515 10.4396
520 13.0818
525 12.2591
530 10.4872
535 13.741
540 11.7315
545 9.58185
550 13.031
555 13.4973
560 12.719
565 18.5546
570 14.7318
575 15.984
580 15.2228
585 13.0574
590 11.6435
595 11.2702
600 4.32091
Ex : 238
200 9.69778
205 12.6631
210 11.598
215 11.3114
220 9.96125
225 11.5735
230 13.7647
235 10.8274
240 11.4624
245 13.6587
250 12.2717
255 14.9674
260 12.3083
265 14.0677
270 9.36839
275 13.0184
280 10.2663
285 14.3989
290 11.8128
295 14.5053
300 12.1606
305 10.7306
310 7.7662
315 9.16128
320 9.02209
325 11.7268
330 10.1132
335 10.6365
340 12.9153
345 12.4594
350 13.195
355 11.0156
360 14.6963
365 9.38866
370 10.5352
375 9.01723
380 9.32422
385 8.76241
390 12.9021
395 12.283
400 15.3919
405 14.6414
410 12.6252
415 10.7006
420 10.6947
425 12.0758
430 12.4843
435 11.3905
440 9.44414
445 10.3435
450 11.8548
455 14.741
460 11.6067
465 14.2352
470 10.2604
475 12.534
480 14.5859
485 12.2502
490 9.40546
495 10.0299
500 11.1838
505 10.7255
510 10.9838
515 10.8057
520 12.9889
525 8.31187
530 13.7899
535 8.65174
540 12.1857
545 10.827
550 14.4538
555 9.65833
560 9.29553
565 12.3092
570 10.2163
575 10.9443
580 11.5508
585 11.8144
590 16.8158
595 11.3295
600 5.34047
Ex : 243
200 11.9504
205 9.9754
210 10.0882
215 8.46925
220 8.95293
225 9.1328
230 9.91449
235 9.50967
240 8.55207
245 9.10716
250 8.70425
255 11.1544
260 9.68324
265 10.9212
270 8.66309
275 9.91902
280 11.5996
285 8.91798
290 8.86223
295 8.6265
300 9.14902
305 9.50893
310 13.1743
315 9.2098
320 9.42367
325 12.2537
330 11.4082
335 8.12797
340 7.40632
345 10.098
350 8.46514
355 10.2734
360 9.20773
365 11.5029
370 8.63563
375 12.2769
380 10.2022
385 10.8054
390 8.92892
395 9.70213
400 13.0503
405 9.68823
410 8.50323
415 9.20293
420 12.3138
425 12.557
430 12.0096
435 9.54914
440 10.1453
445 11.8264
450 9.91793
455 9.28651
460 10.8295
465 11.7918
470 9.92208
475 11.1782
480 10.1306
485 11.0582
490 11.3927
495 9.91356
500 7.73068
505 10.264
510 8.25443
515 12.8506
520 10.9899
525 9.91109
530 11.3124
535 9.07967
540 13.5652
545 11.7585
550 7.65393
555 10.5995
560 10.4194
565 10.4958
570 9.52276
575 12.4758
580 11.2231
585 9.31228
590 7.71926
595 11.0396
600 15.1823
Ex : 248
200 7.51515
205 7.30709
210 9.05428
215 8.25264
220 8.23478
225 7.91962
230 10.4995
235 9.0361
240 10.1828
245 6.71213
250 8.50824
255 8.47892
260 9.78203
265 7.51962
270 8.04892
275 7.91042
280 8.85154
285 7.68019
290 7.56311
295 6.78354
300 6.46856
305 7.30345
310 7.13668
315 6.96722
320 8.68533
325 7.32069
330 7.54828
335 7.24939
340 8.78971
345 6.45492
350 10.5592
355 8.58934
360 7.94981
365 8.02475
370 9.60146
375 6.86705
380 6.84451
385 7.45243
390 8.05992
395 8.07416
400 8.94403
405 8.24607
410 10.6894
415 7.63571
420 7.95324
425 8.30714
430 8.50646
435 8.3316
440 8.14851
445 7.97497
450 9.99721
455 7.71653
460 7.26961
465 9.65844
470 8.54646
475 8.53446
480 8.14549
485 9.16341
490 8.23715
495 8.34949
500 9.89723
505 6.88659
510 10.093
515 8.44082
520 9.34494
525 9.06897
530 7.85949
535 6.67143
540 8.87349
545 7.68727
550 7.33998
555 7.562
560 10.0724
565 8.47215
570 6.95719
575 8.99045
580 10.3546
585 7.99847
590 9.15681
595 7.20194
600 7.02298
Ex : 253
200 6.38619
205 5.91249
210 7.01867
215 5.75088
220 5.40654
225 5.79004
230 5.68758
235 6.04581
240 4.76146
245 8.13561
250 6.41616
255 5.91015
260 5.01585
265 6.73701
270 6.70916
275 6.56902
280 6.46194
285 7.00642
290 5.08569
295 6.80803
300 4.63685
305 6.13654
310 6.96905
315 6.86602
320 7.38635
325 7.29811
330 6.32773
335 6.02823
340 6.22046
345 8.88309
350 7.42919
355 7.42502
360 6.04132
365 6.87734
370 7.60967
375 6.98664
380 4.72916
385 7.38754
390 6.29806
395 5.93087
400 6.776
405 7.12715
410 7.89609
415 6.42899
420 7.27879
425 7.96088
430 8.20433
435 5.26491
440 6.69012
445 7.63562
450 9.55802
455 7.02793
460 6.36007
465 6.11306
470 5.70782
475 5.50182
480 5.1365
485 7.47696
490 5.88084
495 5.30267
500 7.31325
505 8.20981
510 6.67658
515 5.96622
520 5.36862
525 5.91448
530 5.57717
535 7.39898
540 8.29625
545 6.12138
550 7.73699
555 6.48699
560 5.24917
565 5.99896
570 5.02232
575 5.5228
580 5.8352
585 5.8058
590 6.78514
595 7.8438
600 5.48474
Ex : 258
200 5.23353
205 4.58176
210 4.51634
215 5.38628
220 5.15009
225 5.86483
230 4.74499
235 6.34952
240 5.33187
245 4.51434
250 4.54594
255 5.66749
260 5.59715
265 4.79133
270 4.45817
275 4.49613
280 5.51896
285 6.11301
290 5.54137
295 5.112
300 4.3979
305 5.37194
310 5.10338
315 5.52886
320 6.95995
325 5.79898
330 5.03335
335 4.2174
340 6.37672
345 5.87788
350 4.95839
355 3.9925
360 6.36118
365 4.92364
370 5.05961
375 6.03124
380 5.29668
385 5.68329
390 4.90887
395 5.50644
400 5.91974
405 6.16
410 5.80754
415 5.07263
420 5.10054
425 6.13562
430 6.3749
435 7.17446
440 7.09075
445 6.57799
450 5.71623
455 5.71554
460 4.99594
465 6.72924
470 5.14774
475 5.3174
480 6.52494
485 5.51411
490 4.85733
495 5.26317
500 5.33559
505 5.14681
510 5.42599
515 4.93504
520 6.2098
525 5.64749
530 6.09104
535 6.01928
540 5.82949
545 5.27443
550 5.38959
555 5.57112
560 5.96871
565 4.18335
570 5.52985
575 4.999
580 4.53767
585 4.48684
590 4.39419
595 4.46854
600 0.508503
Ex : 263
200 4.04223
205 4.0225
210 4.04999
215 3.5026
220 3.7683
225 5.06012
230 5.48777
235 4.99046
240 4.04611
245 4.58703
250 4.19478
255 4.48592
260 3.16233
265 3.69021
270 3.40904
275 3.36027
280 3.74362
285 3.60281
290 4.25462
295 4.33335
300 3.93766
305 3.42748
310 3.7691
315 4.0075
320 3.71722
325 3.57244
330 3.86519
335 5.11515
340 4.51639
345 4.7504
350 4.45317
355 4.43214
360 4.12876
365 4.2204
370 5.78244
375 5.12006
380 3.7395
385 4.29628
390 3.47137
395 4.32062
400 4.8189
405 4.55771
410 6.14706
415 4.46588
420 3.92971
425 4.06574
430 4.4682
435 4.4115
440 4.72411
445 4.12785
450 4.13244
455 4.56022
460 4.43466
465 5.41008
470 4.78981
475 4.89156
480 4.90797
485 5.02449
490 4.93061
495 4.12209
500 4.41322
505 3.76402
510 4.50033
515 4.71625
520 4.44473
525 3.9604
530 4.88307
535 4.15371
540 4.64589
545 3.9671
550 5.17832
555 3.99662
560 4.47154
565 2.98345
570 3.99985
575 4.91846
580 4.90702
585 3.50658
590 3.96001
595 4.93249
600 2.94297
Ex : 268
200 2.45814
205 2.96209
210 3.46861
215 3.05546
220 2.68808
225 2.51614
230 3.02944
235 2.4563
240 2.4726
245 3.54733
250 3.18829
255 3.00451
260 2.22613
265 3.14504
270 2.28833
275 3.12882
280 3.97637
285 3.46769
290 2.97929
295 4.04909
300 3.56408
305 3.16826
310 3.95656
315 2.3539
320 3.56251
325 3.27983
330 3.57324
335 4.35792
340 3.25477
345 3.55171
350 2.74157
355 3.27169
360 2.76516
365 3.37306
370 4.47721
375 2.46267
380 2.96187
385 3.12849
390 3.7495
395 3.11459
400 3.53975
405 3.36651
410 3.55962
415 3.38033
420 3.10613
425 4.79073
430 3.82285
435 3.15375
440 3.95363
445 3.6644
450 3.49533
455 2.82834
460 3.81662
465 4.1879
470 2.68211
475 3.70757
480 4.54653
485 3.17809
490 3.88016
495 3.6384
500 3.22504
505 3.09012
510 2.90618
515 3.60445
520 3.49194
525 3.41088
530 3.66847
535 4.60508
540 3.66518
545 3.3423
550 2.81714
555 3.21851
560 3.32686
565 3.12373
570 2.99842
575 3.63312
580 3.33374
585 4.63041
590 3.03871
595 4.39459
600 10.9657
Ex : 273
200 1.94507
205 2.90617
210 3.33499
215 2.33756
220 2.66387
225 2.81618
230 3.20484
235 2.17831
240 2.12196
245 3.19775
250 2.35232
255 2.41425
260 2.16603
265 2.47754
270 2.95664
275 2.47402
280 2.39334
285 1.9024
290 2.25433
295 2.37428
300 2.03246
305 2.2316
310 2.525
315 2.50199
320 3.60947
325 2.34034
330 2.2532
335 2.60179
340 2.787
345 2.36444
350 2.53815
355 2.21903
360 2.18451
365 2.64904
370 2.37522
375 3.28558
380 3.11221
385 2.79892
390 3.2834
395 2.84653
400 2.9707
405 3.37779
410 2.67602
415 3.07668
420 2.96564
425 2.63429
430 2.9721
435 2.99427
440 2.69666
445 3.10014
450 2.87585
455 2.59711
460 3.45959
465 2.90093
470 2.76886
475 2.40052
480 3.17828
485 3.42357
490 2.84876
495 2.50456
500 2.70038
505 2.69733
510 2.53861
515 2.09793
520 2.62519
525 2.40062
530 3.05185
535 2.34146
540 3.17504
545 2.82532
550 2.54879
555 2.14895
560 3.21659
565 2.59443
570 3.09689
575 2.1991
580 2.36505
585 2.24376
590 2.34969
595 2.34232
600 2.61238
Ex : 278
200 2.42195
205 1.74846
210 2.15667
215 2.68785
220 1.73104
225 1.58761
230 1.76437
235 1.58451
240 1.79875
245 1.7242
250 1.73803
255 1.88073
260 1.86808
265 2.19586
270 1.99681
275 1.96702
280 2.24452
285 1.75294
290 1.82804
295 2.3633
300 2.15515
305 1.88056
310 2.43158
315 2.12632
320 2.16372
325 2.44462
330 2.01678
335 1.87237
340 2.17458
345 2.18408
350 2.21309
355 1.91121
360 1.97465
365 2.77759
370 2.22797
375 2.13995
380 1.65965
385 2.29756
390 2.3903
395 2.10836
400 2.46701
405 2.38727
410 2.5659
415 2.49661
420 2.44811
425 2.47172
430 2.34745
435 2.72965
440 2.80024
445 2.45082
450 2.43309
455 2.27816
460 2.644
465 2.62308
470 2.52864
475 2.39686
480 2.0237
485 2.26605
490 2.70401
495 2.67755
500 2.41152
505 1.97004
510 2.38066
515 2.09688
520 2.27925
525 2.40532
530 2.52261
535 2.01488
540 1.9318
545 2.7892
550 2.99065
555 2.79577
560 2.40059
565 2.07917
570 2.12345
575 2.01894
580 2.26479
585 1.9799
590 1.83696
595 2.54933
600 0.290104
Ex : 283
200 1.77814
205 1.86383
210 1.87797
215 1.8553
220 1.59278
225 1.72489
230 2.22533
235 2.69863
240 1.87247
245 1.58982
250 1.89692
255 1.80442
260 1.8531
265 1.84931
270 1.89365
275 1.94388
280 1.69145
285 1.67161
290 1.53283
295 1.83183
300 1.52591
305 1.48595
310 1.52284
315 1.70187
320 1.59281
325 1.50068
330 1.48375
335 2.06777
340 1.83277
345 1.50837
350 1.67767
355 2.11392
360 1.95736
365 2.44838
370 2.26211
375 2.55449
380 1.95049
385 1.72617
390 2.85679
395 2.00343
400 1.96737
405 1.80341
410 2.21826
415 2.2276
420 2.30769
425 1.99096
430 2.47425
435 2.47029
440 2.16612
445 2.38031
450 1.95132
455 1.89638
460 1.89058
465 2.45946
470 2.20182
475 2.21079
480 1.8525
485 1.96937
490 1.78691
495 2.15496
500 1.95429
505 2.03823
510 1.94842
515 1.94217
520 2.40324
525 2.03601
530 2.2948
535 2.10296
540 1.73802
545 1.91826
550 1.82663
555 2.2974
560 2.39601
565 1.87164
570 1.95799
575 1.8673
580 1.89308
585 1.99887
590 1.73459
595 1.79783
600 0.844622
Ex : 288
200 1.37439
205 1.66022
210 1.13268
215 1.2231
220 1.49768
225 1.32508
230 1.43924
235 1.42661
240 1.12151
245 1.85806
250 1.40377
255 1.45314
260 1.30249
265 1.21108
270 1.45283
275 1.64363
280 1.36783
285 1.47992
290 1.1972
295 1.4315
300 1.54408
305 1.60809
310 1.70792
315 1.643
320 1.21758
325 1.66936
330 1.23144
335 1.57277
340 1.42092
345 1.72274
350 1.66513
355 1.43745
360 1.57196
365 1.9689
370 1.96269
375 1.81097
380 1.68859
385 2.16139
390 1.83475
395 2.28013
400 2.52688
405 2.25215
410 2.03549
415 2.13438
420 1.95345
425 1.85604
430 2.45146
435 2.44277
440 1.99743
445 2.10819
450 1.92505
455 1.93678
460 1.69789
465 1.82626
470 1.68113
475 1.47289
480 1.74384
485 1.51388
490 1.3841
495 1.64787
500 1.64061
505 1.72211
510 1.50367
515 1.67494
520 1.67568
525 1.57745
530 1.5474
535 1.55673
540 1.90588
545 1.74904
550 1.60756
555 1.39668
560 1.69564
565 1.92464
570 2.06992
575 1.79283
580 1.72662
585 1.59195
590 1.4663
595 1.27123
600 0.164802
Ex : 293
200 1.47195
205 1.19679
210 1.12463
215 1.06907
220 1.14886
225 1.31934
230 1.2987
235 1.22861
240 1.10572
245 1.31651
250 1.44963
255 1.61867
260 1.24142
265 1.23435
270 1.01839
275 1.07796
280 1.4143
285 1.37388
290 1.44454
295 1.7097
300 1.23242
305 1.00208
310 1.24333
315 1.00481
320 1.18788
325 1.51749
330 1.33614
335 1.23256
340 0.999924
345 1.25419
350 1.22471
355 1.44024
360 1.80578
365 1.34645
370 1.54855
375 1.68102
380 1.59753
385 2.02523
390 1.97769
395 1.74241
400 1.58614
405 1.72889
410 1.54963
415 1.74168
420 1.65232
425 2.08662
430 1.75402
435 2.00203
440 1.847
445 1.71217
450 2.02098
455 1.6311
460 1.7761
465 1.37732
470 1.67588
475 1.57649
480 1.59816
485 1.6339
490 1.94714
495 1.64067
500 1.2876
505 1.17994
510 1.53103
515 1.27792
520 1.2486
525 1.33412
530 1.38601
535 1.206
540 1.30192
545 1.041
550 1.35656
555 1.43752
560 1.46046
565 1.18489
570 1.45732
575 1.65942
580 1.97708
585 1.75178
590 1.8868
595 1.74535
600 0.198614
Ex : 298
200 1.15228
205 0.978454
210 1.0333
215 0.979702
220 1.20421
225 1.12958
230 1.14779
235 1.00815
240 1.05384
245 1.00941
250 1.00397
255 1.13848
260 0.913518
265 0.986534
270 1.22913
275 1.06188
280 1.29676
285 1.17652
290 1.28311
295 1.30154
300 1.43903
305 0.864543
310 0.925987
315 1.03219
320 1.22377
325 1.09118
330 0.788915
335 1.01163
340 1.04875
345 1.11087
350 1.38315
355 1.42134
360 1.21556
365 1.31838
370 1.57143
375 1.2807
380 1.33215
385 1.45564
390 1.75154
395 1.58087
400 1.61309
405 1.36068
410 1.5323
415 1.57377
420 1.68456
425 1.72101
430 1.51275
435 1.44507
440 1.49248
445 1.50023
450 1.6595
455 1.26577
460 1.41775
465 1.26665
470 1.5678
475 1.21527
480 1.36915
485 1.71486
490 1.28368
495 1.30267
500 1.19833
505 1.19636
510 1.23965
515 1.09457
520 1.28926
525 0.857913
530 1.22214
535 1.17661
540 1.0074
545 1.1118
550 1.38607
555 1.36862
560 1.43765
565 1.32284
570 1.14991
575 0.818628
580 0.877452
585 1.40425
590 1.59705
595 1.23424
600 0.840087
Ex : 303
200 0.776757
205 1.03252
210 0.902888
215 1.06111
220 0.794454
225 0.854134
230 0.733708
235 0.930809
240 0.859117
245 1.18495
250 0.767621
255 1.25718
260 0.967159
265 0.935926
270 1.01934
275 0.757513
280 0.783798
285 1.19291
290 1.04877
295 1.36549
300 1.22136
305 0.866713
310 0.794369
315 0.874977
320 0.842675
325 1.20983
330 1.32631
335 1.06951
340 0.965497
345 1.18135
350 1.00687
355 1.13578
360 1.33381
365 0.966951
370 1.27606
375 1.39049
380 1.60301
385 1.72268
390 1.23757
395 1.50333
400 1.33566
405 1.4315
410 1.80143
415 1.57981
420 1.43855
425 1.48043
430 1.50189
435 1.5491
440 1.52974
445 1.45192
450 1.48465
455 1.39085
460 1.34789
465 1.30185
470 1.23195
475 1.40719
480 1.28212
485 1.11338
490 1.18294
495 1.00607
500 1.03215
505 1.41432
510 1.03297
515 1.1569
520 0.947842
525 1.05395
530 0.909008
535 1.35154
540 0.767811
545 1.15947
550 0.941581
555 0.897632
560 0.869309
565 0.850359
570 1.08277
575 0.780964
580 1.25372
585 1.37087
590 1.11419
595 1.4226
600 3.59928
Ex : 308
200 0.780967
205 1.04173
210 0.77062
215 0.849275
220 1.06427
225 0.976736
230 0.944403
235 0.819434
240 0.813393
245 0.717039
250 0.824631
255 0.815317
260 0.805229
265 0.831998
270 0.822513
275 0.903091
280 0.743005
285 1.00205
290 1.07833
295 0.819451
300 0.858076
305 1.03673
310 1.15105
315 0.866989
320 0.925839
325 1.08718
330 0.871793
335 0.774623
340 0.804434
345 1.03513
350 1.03205
355 1.20633
360 1.23669
365 1.2089
370 1.3215
375 1.15275
380 1.28633
385 1.26757
390 1.48519
395 1.18014
400 1.48935
405 1.39798
410 1.25301
415 1.34955
420 1.5097
425 1.46451
430 1.65249
435 1.2141
440 1.45435
445 1.34925
450 1.24238
455 1.41526
460 1.10146
465 1.18624
470 1.07029
475 1.05982
480 1.21953
485 1.16827
490 1.27572
495 0.980062
500 0.96622
505 1.0441
510 0.958215
515 0.92266
520 1.29668
525 0.911248
530 0.851492
535 1.14342
540 0.897828
545 1.05884
550 0.805956
555 1.03497
560 0.70775
565 0.772034
570 0.794213
575 0.771583
580 0.819102
585 0.818387
590 0.893545
595 0.767936
600 0.294553
Ex : 313
200 0.705625
205 0.978207
210 0.645801
215 0.994044
220 0.577262
225 0.673782
230 0.752361
235 0.548324
240 0.662562
245 0.567705
250 0.602488
255 0.753621
260 0.619403
265 0.740879
270 0.71787
275 0.751825
280 0.693412
285 0.614952
290 0.765684
295 0.688773
300 0.78236
305 0.960246
310 0.972272
315 0.634954
320 0.787325
325 0.772684
330 0.755176
335 0.870634
340 0.81547
345 0.847593
350 0.927438
355 0.988802
360 0.953551
365 1.29396
370 1.17246
375 1.44996
380 1.31623
385 1.63818
390 1.22069
395 1.57301
400 1.20771
405 1.70005
410 1.51433
415 1.293
420 1.33095
425 1.29557
430 1.15317
435 1.24838
440 1.27545
445 1.18224
450 1.21194
455 1.17783
460 1.06181
465 1.15241
470 1.05021
475 1.08552
480 0.978572
485 1.03445
490 0.866338
495 1.05209
500 1.08739
505 0.863837
510 0.864761
515 0.915591
520 0.78153
525 0.881557
530 0.794116
535 0.822652
540 0.657451
545 0.780537
550 0.627138
555 0.971094
560 0.779676
565 0.775734
570 0.839091
575 0.888832
580 0.764943
585 0.720645
590 0.72207
595 0.658608
600 0.431466
Ex : 318
200 0.656665
205 0.611171
210 0.684606
215 0.806865
220 0.653807
225 0.580301
230 0.586811
235 0.531566
240 0.566264
245 0.520518
250 0.548371
255 0.695877
260 0.622715
265 0.716434
270 0.605889
275 0.574311
280 0.935237
285 0.7986
290 0.502014
295 0.720185
300 0.657443
305 0.668929
310 0.763265
315 1.13611
320 0.924608
325 0.743662
330 1.03197
335 1.15854
340 1.18754
345 1.6907
350 2.13664
355 2.41194
360 2.80528
365 3.44353
370 3.63627
375 4.07768
380 4.81498
385 5.31559
390 5.4498
395 5.63214
400 6.03974
405 6.62113
410 6.43444
415 6.12433
420 5.88117
425 6.06877
430 5.62313
435 5.8154
440 5.29674
445 5.49602
450 4.83467
455 4.38163
460 4.33082
465 3.89105
470 3.49828
475 3.69121
480 3.42294
485 2.88809
490 2.79364
495 2.69293
500 2.07907
505 1.94112
510 1.90314
515 1.86059
520 1.71962
525 1.38814
530 1.23773
535 1.08895
540 1.13311
545 1.09341
550 0.92916
555 1.11665
560 0.87427
565 0.805092
570 0.913635
575 0.846649
580 0.656775
585 0.634015
590 0.899788
595 0.820015
600 0.0933146
Ex : 323
200 0.524851
205 0.474856
210 0.587263
215 0.657697
220 0.627441
225 0.444383
230 0.459893
235 0.584964
240 0.574329
245 0.564987
250 0.571626
255 0.519073
260 0.595284
265 0.587788
270 0.568355
275 0.639255
280 0.692397
285 0.604834
290 0.758119
295 0.641191
300 0.613401
305 0.53739
310 0.577465
315 2.17853
320 8.18559
325 4.35228
330 2.36119
335 2.94972
340 3.98513
345 5.39988
350 8.11304
355 11.1145
360 13.1082
365 15.74
370 17.9558
375 20.9739
380 24.5395
385 26.4565
390 27.7302
395 30.8585
400 31.4897
405 32.4427
410 33.3526
415 32.3768
420 31.3803
425 31.1395
430 30.4483
435 29.5539
440 28.7029
445 26.1434
450 24.5058
455 22.9826
460 22.1587
465 20.5413
470 19.2565
475 16.6993
480 15.5172
485 14.2472
490 12.4534
495 11.2764
500 9.49779
505 8.85858
510 7.83974
515 6.67467
520 5.89465
525 5.0778
530 4.66299
535 4.02311
540 3.07901
545 3.09581
550 2.66636
555 2.31291
560 2.26953
565 1.86875
570 1.50376
575 1.33529
580 1.34287
585 1.05232
590 0.907376
595 0.96387
600 0.394246
Ex : 328
200 0.438788
205 0.537327
210 0.479496
215 0.53487
220 0.57413
225 0.663872
230 0.462956
235 0.547083
240 0.410997
245 0.500469
250 0.593788
255 0.532657
260 0.601334
265 0.727598
270 0.600881
275 0.613817
280 0.606062
285 0.463933
290 0.653719
295 0.545973
300 0.618496
305 0.404356
310 0.534518
315 0.960935
320 21.9332
325 55.7701
330 19.3213
335 5.60445
340 6.7203
345 8.06356
350 9.88266
355 14.0463
360 18.6794
365 21.9044
370 24.514
375 27.2855
380 30.7468
385 34.3437
390 36.6409
395 40.8858
400 42.2172
405 42.6228
410 43.262
415 43.6096
420 42.3484
425 41.4223
430 40.1526
435 38.0112
440 37.1384
445 34.5254
450 32.9603
455 30.5221
460 29.1064
465 26.3309
470 23.7276
475 22.277
480 19.5315
485 18.3683
490 16.4273
495 14.6187
500 12.4419
505 11.9107
510 9.94858
515 9.08229
520 7.62492
525 6.84035
530 6.26982
535 5.53223
540 4.82069
545 4.36355
550 3.33835
555 3.4169
560 2.85255
565 2.42668
570 2.2635
575 1.82294
580 1.50723
585 1.37384
590 1.07007
595 0.872018
600 0.486481
Ex : 333
200 0.574836
205 0.483771
210 0.385177
215 0.447039
220 0.408457
225 0.750781
230 0.426398
235 0.487255
240 0.363037
245 0.413668
250 0.561353
255 0.495726
260 0.394816
265 0.404647
270 0.471471
275 0.605238
280 0.668843
285 0.533497
290 0.561901
295 0.527465
300 0.529152
305 0.541749
310 0.579656
315 0.562953
320 3.71779
325 74.4491
330 134.322
335 37.7725
340 8.42153
345 6.14682
350 6.87973
355 8.23037
360 11.6897
365 16.3685
370 17.5187
375 17.9478
380 19.5838
385 21.6431
390 24.509
395 25.9282
400 27.0695
405 27.5308
410 26.9003
415 27.7716
420 26.9563
425 25.6969
430 24.9873
435 23.2406
440 21.6917
445 22.0043
450 19.8586
455 18.8626
460 17.7593
465 16.1307
470 14.8998
475 13.3382
480 12.19
485 11.4516
490 10.4271
495 9.37831
500 8.16304
505 7.55451
510 6.77072
515 5.63135
520 5.32013
525 4.75875
530 4.3208
535 3.97188
540 3.33411
545 3.07022
550 2.7894
555 2.56855
560 2.55593
565 1.88481
570 1.70432
575 1.5177
580 1.29636
585 1.1519
590 1.14287
595 0.951049
600 0.933077
Ex : 338
200 0.455808
205 0.531573
210 0.535971
215 0.407174
220 0.517947
225 0.503907
230 0.473777
235 0.623702
240 0.516753
245 0.410111
250 0.471249
255 0.631709
260 0.526019
265 0.614869
270 0.602351
275 0.410031
280 0.437465
285 0.565848
290 0.453138
295 0.413652
300 0.518521
305 0.516113
310 0.569732
315 0.515221
320 0.73315
325 8.29798
330 122.406
335 184.773
340 47.8321
345 8.54903
350 5.18762
355 4.90768
360 4.96562
365 7.11809
370 12.4031
375 12.8347
380 10.9468
385 11.9233
390 13.7612
395 14.3647
400 14.1521
405 14.737
410 15.535
415 15.6364
420 14.6547
425 14.4164
430 13.0875
435 13.1182
440 12.8369
445 12.2694
450 11.3996
455 10.064
460 9.97499
465 9.06008
470 8.69356
475 8.14716
480 7.56832
485 7.24632
490 6.32593
495 6.03769
500 5.73039
505 4.90875
510 4.56212
515 4.33248
520 3.6658
525 3.36718
530 3.07556
535 2.96201
540 2.69867
545 2.19672
550 2.49613
555 1.94011
560 1.82394
565 1.69936
570 1.37197
575 1.43663
580 1.1098
585 1.04061
590 1.04353
595 0.741581
600 1.15286
Ex : 343
200 0.370433
205 0.587404
210 0.50032
215 0.412438
220 0.424841
225 0.499551
230 0.421648
235 0.502322
240 0.470121
245 0.545879
250 0.451796
255 0.502151
260 0.408561
265 0.399333
270 0.499308
275 0.479219
280 0.516124
285 0.453602
290 0.606134
295 0.55859
300 0.390944
305 0.432865
310 0.486699
315 0.455145
320 0.522693
325 0.578694
330 9.94357
335 145.917
340 213.35
345 52.3664
350 8.63557
355 4.15676
360 3.81696
365 3.3139
370 4.73548
375 8.89029
380 10.8712
385 9.97238
390 10.0586
395 10.5353
400 10.2285
405 10.7523
410 11.8293
415 11.9846
420 11.5802
425 10.7894
430 10.7988
435 9.77715
440 9.86677
445 9.62147
450 8.72801
455 8.45024
460 7.93513
465 7.73129
470 7.18893
475 6.64182
480 6.6295
485 6.19491
490 5.89903
495 5.34556
500 4.7998
505 4.26691
510 3.95235
515 3.70629
520 3.15297
525 3.19446
530 3.07966
535 2.51725
540 2.39222
545 2.12334
550 2.10773
555 1.91042
560 1.75695
565 1.5189
570 1.19558
575 1.19337
580 1.02902
585 0.863781
590 0.86684
595 0.928497
600 1.05516
Ex : 348
200 0.389167
205 0.496607
210 0.313038
215 0.316862
220 0.378796
225 0.371635
230 0.399127
235 0.494948
240 0.584867
245 0.369374
250 0.425608
255 0.396416
260 0.439845
265 0.372679
270 0.452377
275 0.43378
280 0.443851
285 0.432665
290 0.281063
295 0.431446
300 0.521909
305 0.412177
310 0.446085
315 0.43925
320 0.457274
325 0.528361
330 0.756738
335 10.0223
340 148.651
345 221.982
350 57.7973
355 8.96602
360 3.86474
365 3.38052
370 3.00539
375 3.77734
380 8.32406
385 12.1284
390 12.1787
395 11.1693
400 10.4267
405 11.0007
410 12.3348
415 13.01
420 12.4105
425 10.8098
430 10.5609
435 10.5334
440 10.2893
445 9.55432
450 8.98006
455 8.86295
460 8.15112
465 7.58859
470 7.02466
475 6.95897
480 6.41347
485 6.12391
490 5.72614
495 5.16797
500 4.76789
505 4.32492
510 4.29959
515 3.85358
520 3.23258
525 3.11867
530 2.89677
535 2.55924
540 2.51382
545 2.21379
550 1.8532
555 1.83018
560 1.88414
565 1.88117
570 1.48792
575 1.46782
580 1.14005
585 0.940998
590 0.822862
595 0.581019
600 1.16084
Ex : 353
200 0.299987
205 0.358205
210 0.33447
215 0.43624
220 0.427622
225 0.345251
230 0.305449
235 0.349063
240 0.375262
245 0.353863
250 0.317667
255 0.372992
260 0.33926
265 0.301904
270 0.355891
275 0.414711
280 0.483174
285 0.38815
290 0.393953
295 0.341881
300 0.421578
305 0.436079
310 0.441995
315 0.39696
320 0.375942
325 0.43065
330 0.557367
335 0.708035
340 10.4251
345 150.732
350 220.508
355 54.8454
360 8.41082
365 3.43802
370 3.25016
375 2.63688
380 3.91249
385 8.3233
390 14.3608
395 13.4859
400 11.9605
405 11.1897
410 11.8476
415 13.0267
420 12.251
425 11.7333
430 10.701
435 10.495
440 10.5227
445 10.1349
450 9.51066
455 8.54542
460 8.26808
465 7.65108
470 7.29517
475 6.769
480 6.64716
485 6.45457
490 5.71349
495 5.35521
500 5.16537
505 4.79349
510 4.48489
515 3.78355
520 3.49882
525 3.36656
530 3.14261
535 2.85365
540 2.71872
545 2.2621
550 2.02781
555 1.98436
560 1.71805
565 1.58177
570 1.39041
575 1.22543
580 1.11002
585 0.921682
590 0.934939
595 0.695238
600 0.600991
Ex : 358
200 0.265406
205 0.257586
210 0.317603
215 0.448676
220 0.45261
225 0.350823
230 0.299708
235 0.402567
240 0.343006
245 0.400529
250 0.327273
255 0.366438
260 0.345071
265 0.359744
270 0.385731
275 0.356217
280 0.354725
285 0.362994
290 0.378522
295 0.446113
300 0.353425
305 0.420367
310 0.357147
315 0.383234
320 0.299513
325 0.351196
330 0.405863
335 0.582076
340 0.630966
345 9.85225
350 149.227
355 226.522
360 57.046
365 8.47988
370 3.30791
375 3.15705
380 3.56128
385 5.5033
390 9.23587
395 13.6724
400 12.8349
405 11.8348
410 11.7095
415 12.1695
420 11.355
425 10.6487
430 9.82781
435 9.97036
440 9.94811
445 10.1179
450 8.93889
455 8.43476
460 8.35351
465 7.65918
470 7.04483
475 7.08952
480 6.98884
485 6.3988
490 5.78595
495 5.32426
500 5.22913
505 4.93027
510 4.51429
515 3.97666
520 3.66563
525 3.29217
530 3.16242
535 2.75911
540 2.50743
545 2.45634
550 2.27699
555 1.80568
560 1.77497
565 1.49416
570 1.32541
575 1.24808
580 1.04878
585 0.858863
590 0.82775
595 0.806456
600 0.347583
Ex : 363
200 0.318412
205 0.30403
210 0.276783
215 0.302119
220 0.259875
225 0.302917
230 0.28455
235 0.378516
240 0.340426
245 0.308293
250 0.322766
255 0.315016
260 0.339115
265 0.333581
270 0.373225
275 0.302166
280 0.344218
285 0.396158
290 0.516108
295 0.238387
300 0.333914
305 0.380284
310 0.367206
315 0.284733
320 0.321515
325 0.33089
330 0.366602
335 0.376586
340 0.507499
345 0.574721
350 9.46574
355 143.694
360 223.161
365 58.936
370 8.56685
375 3.29793
380 4.106
385 6.49026
390 8.64027
395 10.3721
400 13.292
405 14.3934
410 14.0125
415 13.1217
420 12.1499
425 11.4454
430 11.001
435 10.5009
440 10.6277
445 10.0894
450 9.30113
455 8.99499
460 8.10144
465 7.80937
470 7.79404
475 7.29752
480 6.87536
485 6.57536
490 5.95674
495 5.61504
500 5.38858
505 5.14812
510 4.66383
515 4.21092
520 3.94231
525 3.5911
530 3.12471
535 3.08095
540 2.59102
545 2.58634
550 2.14046
555 1.91172
560 1.89186
565 1.73091
570 1.54506
575 1.24895
580 1.15614
585 0.829932
590 0.776431
595 0.767963
600 2.51482
Ex : 368
200 0.31036
205 0.304781
210 0.312873
215 0.282385
220 0.244327
225 0.315607
230 0.282606
235 0.424371
240 0.282311
245 0.262635
250 0.330231
255 0.317916
260 0.416529
265 0.291617
270 0.311958
275 0.333964
280 0.273545
285 0.385706
290 0.421993
295 0.396334
300 0.415232
305 0.340413
310 0.328603
315 0.270027
320 0.334456
325 0.349231
330 0.348635
335 0.381639
340 0.414309
345 0.444626
350 0.66891
355 7.81056
360 138.901
365 228.216
370 62.1776
375 9.2187
380 4.25103
385 6.95475
390 10.024
395 11.0441
400 10.7879
405 14.1958
410 17.6064
415 17.1534
420 14.8335
425 12.7597
430 11.7043
435 11.5266
440 11.3121
445 10.7022
450 9.7701
455 8.9371
460 8.97983
465 8.48338
470 8.23146
475 7.90098
480 7.36716
485 6.95325
490 6.57968
495 6.02179
500 5.76301
505 5.31997
510 4.86851
515 4.39836
520 4.09564
525 3.92533
530 3.47401
535 3.31744
540 2.89899
545 2.58683
550 2.30489
555 2.24038
560 2.15005
565 1.75085
570 1.56995
575 1.27747
580 1.1134
585 0.877226
590 0.77831
595 0.711562
600 0.375032
Ex : 373
200 0.274045
205 0.23408
210 0.33669
215 0.248614
220 0.271403
225 0.311325
230 0.339621
235 0.325618
240 0.326367
245 0.314435
250 0.292007
255 0.377535
260 0.42807
265 0.390662
270 0.330695
275 0.379304
280 0.236294
285 0.310609
290 0.373814
295 0.337273
300 0.312422
305 0.428877
310 0.349091
315 0.286315
320 0.35609
325 0.290163
330 0.32267
335 0.286573
340 0.436927
345 0.454562
350 0.435485
355 0.635219
360 8.95437
365 142.372
370 229.452
375 62.0816
380 9.53681
385 6.21447
390 9.61775
395 11.6388
400 10.5419
405 10.4765
410 14.0021
415 18.8479
420 16.6696
425 13.7704
430 11.5683
435 10.7425
440 11.271
445 10.8671
450 9.87333
455 9.06166
460 8.71388
465 8.53605
470 8.33524
475 7.52517
480 7.57764
485 7.01493
490 6.3661
495 6.03042
500 6.05782
505 5.42196
510 5.14215
515 4.50634
520 4.1843
525 3.86359
530 3.50077
535 3.26698
540 2.88506
545 2.81046
550 2.45584
555 2.02051
560 1.92071
565 1.80272
570 1.65312
575 1.2277
580 0.938404
585 0.867014
590 0.794894
595 0.751887
600 0.417174
Ex : 378
200 0.251842
205 0.307056
210 0.241575
215 0.285158
220 0.251127
225 0.20413
230 0.277965
235 0.293119
240 0.304397
245 0.275843
250 0.249253
255 0.20779
260 0.332913
265 0.302689
270 0.204825
275 0.252961
280 0.32093
285 0.256407
290 0.278814
295 0.262976
300 0.279241
305 0.233676
310 0.298735
315 0.311842
320 0.333784
325 0.316633
330 0.303929
335 0.311199
340 0.272655
345 0.341069
350 0.380075
355 0.439624
360 0.638528
365 8.58243
370 145.287
375 235.129
380 64.7978
385 11.4301
390 7.47582
395 8.67506
400 8.36478
405 8.36136
410 9.13191
415 11.8725
420 14.0154
425 12.4066
430 9.99729
435 9.17476
440 8.91278
445 8.35744
450 8.06276
455 7.86404
460 7.65086
465 7.39801
470 7.35626
475 7.17228
480 7.10315
485 6.60846
490 6.30819
495 6.01507
500 5.90976
505 5.57419
510 4.9932
515 4.576
520 4.09483
525 3.97244
530 3.57993
535 3.43317
540 2.95694
545 2.563
550 2.41824
555 2.09474
560 1.92783
565 1.73056
570 1.52476
575 1.24954
580 1.01065
585 0.945803
590 0.868199
595 0.618648
600 0.259263
Ex : 383
200 0.272608
205 0.282599
210 0.311847
215 0.305878
220 0.257039
225 0.240358
230 0.263968
235 0.254291
240 0.286405
245 0.251482
250 0.322857
255 0.280018
260 0.31553
265 0.28146
270 0.259751
275 0.2305
280 0.270213
285 0.278417
290 0.299182
295 0.231871
300 0.257201
305 0.278212
310 0.309458
315 0.284767
320 0.378433
325 0.333742
330 0.312667
335 0.328457
340 0.435412
345 0.347622
350 0.321846
355 0.453128
360 0.444614
365 0.688847
370 7.89155
375 144.274
380 244.15
385 70.5048
390 14.2018
395 8.25589
400 7.8802
405 8.66644
410 9.46308
415 9.69829
420 10.3026
425 11.9095
430 12.3781
435 9.96714
440 9.33422
445 8.28749
450 7.86333
455 7.66095
460 7.20703
465 7.1782
470 7.16972
475 7.04077
480 6.83271
485 6.44579
490 6.33064
495 5.97144
500 5.54505
505 5.43019
510 4.9471
515 4.50093
520 4.23585
525 3.91989
530 3.40495
535 3.29577
540 2.94379
545 2.53045
550 2.37659
555 2.12103
560 2.02126
565 1.8485
570 1.41063
575 1.19026
580 1.08366
585 0.846813
590 0.777549
595 0.709431
600 0.522095
Ex : 388
200 0.285268
205 0.354747
210 0.26372
215 0.252583
220 0.258892
225 0.237551
230 0.219148
235 0.274829
240 0.287376
245 0.285296
250 0.245706
255 0.23529
260 0.241715
265 0.225978
270 0.253382
275 0.19689
280 0.245081
285 0.318188
290 0.204998
295 0.233535
300 0.246473
305 0.317839
310 0.336672
315 0.29479
320 0.270164
325 0.260689
330 0.234966
335 0.314422
340 0.340398
345 0.319964
350 0.366189
355 0.348743
360 0.424367
365 0.477533
370 0.671631
375 9.19011
380 152.916
385 250.635
390 73.999
395 16.6529
400 9.58694
405 9.45823
410 10.9449
415 11.6465
420 11.0698
425 10.2299
430 11.7321
435 13.0849
440 11.3829
445 10.0318
450 8.69038
455 8.21356
460 7.8625
465 7.73145
470 7.43381
475 7.50165
480 7.12327
485 6.9171
490 6.26723
495 6.23626
500 5.74864
505 5.59065
510 5.33529
515 4.83632
520 4.18349
525 3.85497
530 3.78434
535 3.24823
540 2.98288
545 2.76226
550 2.56248
555 2.18197
560 2.00802
565 1.81978
570 1.43716
575 1.28889
580 1.06425
585 0.834851
590 0.713084
595 0.642236
600 0.611495
Ex : 393
200 0.249193
205 0.19343
210 0.225188
215 0.284914
220 0.250036
225 0.286674
230 0.245305
235 0.186867
240 0.244315
245 0.240888
250 0.257034
255 0.253186
260 0.250929
265 0.261574
270 0.210657
275 0.303934
280 0.310291
285 0.188339
290 0.217867
295 0.200783
300 0.242433
305 0.27422
310 0.265467
315 0.248854
320 0.224651
325 0.218667
330 0.334306
335 0.336132
340 0.258507
345 0.298979
350 0.22276
355 0.274994
360 0.364703
365 0.363501
370 0.408548
375 0.68499
380 8.28086
385 153.834
390 258.959
395 77.1692
400 16.7773
405 9.12459
410 10.1993
415 12.2654
420 11.6903
425 10.1084
430 8.82674
435 10.0477
440 12.3951
445 10.836
450 9.34628
455 8.22703
460 7.23751
465 7.08782
470 7.2289
475 7.22117
480 6.78283
485 6.66673
490 6.31013
495 6.07142
500 5.65731
505 5.59851
510 5.07604
515 4.83796
520 4.22637
525 3.899
530 3.71238
535 3.35077
540 3.08597
545 2.80815
550 2.55675
555 2.17199
560 1.96986
565 1.80369
570 1.5087
575 1.32983
580 1.00792
585 0.869741
590 0.623719
595 0.715177
600 1.09191
Ex : 398
200 0.242984
205 0.240957
210 0.297253
215 0.226826
220 0.220768
225 0.286474
230 0.151218
235 0.208887
240 0.230271
245 0.20189
250 0.230664
255 0.252481
260 0.244234
265 0.23005
270 0.216038
275 0.209495
280 0.257002
285 0.197085
290 0.197698
295 0.254752
300 0.318303
305 0.223212
310 0.225558
315 0.220741
320 0.239725
325 0.285965
330 0.272483
335 0.252468
340 0.34875
345 0.301802
350 0.30561
355 0.301079
360 0.345265
365 0.312281
370 0.393562
375 0.417697
380 0.668637
385 9.26329
390 158.461
395 267.962
400 75.0437
405 13.0225
410 6.58116
415 7.45673
420 7.62964
425 6.53951
430 5.49898
435 5.57948
440 6.79824
445 9.59615
450 8.85124
455 6.97157
460 6.4101
465 6.13978
470 5.97905
475 5.9844
480 6.25795
485 6.0025
490 5.89486
495 5.70004
500 5.59556
505 5.25427
510 4.69208
515 4.77071
520 4.11101
525 3.97902
530 3.68414
535 3.16145
540 3.03341
545 2.68326
550 2.48111
555 2.08653
560 2.07136
565 1.78937
570 1.60268
575 1.18876
580 1.09059
585 0.871769
590 0.683277
595 0.628264
600 0.96668
Ex : 403
200 0.207898
205 0.221797
210 0.213846
215 0.255803
220 0.237369
225 0.17774
230 0.301207
235 0.198377
240 0.312814
245 0.212939
250 0.201501
255 0.244373
260 0.227641
265 0.211699
270 0.235643
275 0.183544
280 0.176247
285 0.23066
290 0.2461
295 0.20053
300 0.251527
305 0.283062
310 0.215154
315 0.269796
320 0.237824
325 0.294539
330 0.208216
335 0.232676
340 0.278216
345 0.30571
350 0.311419
355 0.283329
360 0.278469
365 0.286539
370 0.294033
375 0.370989
380 0.478237
385 0.796103
390 9.65644
395 162.995
400 265.846
405 73.5702
410 11.3053
415 4.39887
420 3.85543
425 3.90726
430 3.62543
435 3.47904
440 3.6421
445 4.25448
450 6.79087
455 7.4488
460 5.98279
465 5.63868
470 5.7606
475 5.7223
480 5.47618
485 5.54725
490 5.49399
495 5.43903
500 5.1391
505 5.11027
510 4.64875
515 4.18188
520 3.99474
525 3.86361
530 3.43517
535 3.25118
540 3.12072
545 2.71867
550 2.44312
555 2.21395
560 2.02276
565 1.79036
570 1.57257
575 1.25458
580 1.0173
585 0.804609
590 0.748108
595 0.630832
600 0.431058
Ex : 408
200 0.232568
205 0.231029
210 0.247841
215 0.280066
220 0.209428
225 0.2031
230 0.226433
235 0.197452
240 0.15798
245 0.175295
250 0.183207
255 0.253195
260 0.217498
265 0.235912
270 0.196982
275 0.205105
280 0.227582
285 0.245032
290 0.214987
295 0.255907
300 0.264675
305 0.214417
310 0.266118
315 0.342028
320 0.215129
325 0.188662
330 0.234927
335 0.257377
340 0.217556
345 0.27962
350 0.274294
355 0.278327
360 0.25008
365 0.319941
370 0.332984
375 0.312324
380 0.351698
385 0.39396
390 0.803859
395 9.16645
400 165.142
405 270.183
410 71.6535
415 10.5965
420 3.61433
425 2.89423
430 3.09668
435 3.06773
440 3.08777
445 3.42789
450 3.7472
455 5.84955
460 7.49188
465 6.40413
470 5.84363
475 5.8419
480 5.30368
485 5.50558
490 5.296
495 5.24765
500 5.10877
505 4.7965
510 4.5864
515 4.55828
520 4.11133
525 3.893
530 3.47987
535 3.43363
540 2.95008
545 2.60429
550 2.56503
555 2.30588
560 1.99143
565 1.74563
570 1.4413
575 1.24976
580 1.00224
585 0.870697
590 0.77002
595 0.638213
600 0.734325
Ex : 413
200 0.240547
205 0.165348
210 0.208535
215 0.272598
220 0.243168
225 0.244998
230 0.209594
235 0.208412
240 0.216488
245 0.281485
250 0.279254
255 0.276185
260 0.195747
265 0.256724
270 0.309703
275 0.211322
280 0.214352
285 0.209201
290 0.214495
295 0.220128
300 0.22395
305 0.213012
310 0.209533
315 0.226784
320 0.204203
325 0.199887
330 0.248192
335 0.220753
340 0.245581
345 0.29337
350 0.239468
355 0.308042
360 0.256394
365 0.249663
370 0.334927
375 0.286017
380 0.290418
385 0.353493
390 0.511558
395 0.721433
400 10.1124
405 172.664
410 275.838
415 71.7913
420 10.4897
425 3.16502
430 2.60348
435 2.90199
440 3.03908
445 2.8067
450 3.36123
455 3.4771
460 5.11529
465 7.42399
470 6.79377
475 5.86245
480 5.46355
485 5.38868
490 5.11045
495 5.01032
500 5.11566
505 4.68609
510 4.55822
515 4.1931
520 4.0963
525 3.74844
530 3.39686
535 3.29593
540 2.77504
545 2.6513
550 2.4639
555 2.36573
560 1.90288
565 1.75
570 1.56044
575 1.14789
580 1.03587
585 0.853515
590 0.718134
595 0.657676
600 0.8547
Ex : 418
200 0.2399
205 0.219399
210 0.252938
215 0.185296
220 0.207089
225 0.22786
230 0.277777
235 0.214795
240 0.239663
245 0.174763
250 0.198768
255 0.258062
260 0.265336
265 0.277982
270 0.223472
275 0.259588
280 0.267514
285 0.236037
290 0.241317
295 0.232647
300 0.19973
305 0.292506
310 0.202047
315 0.267912
320 0.261189
325 0.220607
330 0.242947
335 0.230283
340 0.203068
345 0.244572
350 0.264804
355 0.293155
360 0.272759
365 0.273676
370 0.239991
375 0.279824
380 0.277801
385 0.296617
390 0.342581
395 0.384036
400 0.602467
405 9.80792
410 173.528
415 280.697
420 74.8372
425 10.2853
430 2.89321
435 2.07622
440 2.64296
445 2.62727
450 2.79719
455 2.94273
460 3.16223
465 4.34914
470 6.79142
475 6.98761
480 5.61723
485 5.4402
490 5.02823
495 4.81399
500 4.76856
505 4.67546
510 4.48457
515 4.01936
520 3.64764
525 3.45286
530 3.37117
535 3.05032
540 2.79518
545 2.63767
550 2.48101
555 2.13345
560 1.89636
565 1.76951
570 1.48402
575 1.24027
580 0.939141
585 0.952602
590 0.749873
595 0.558035
600 0.560712
Ex : 423
200 0.27097
205 0.219924
210 0.219275
215 0.190153
220 0.265544
225 0.236826
230 0.241661
235 0.256128
240 0.254788
245 0.202226
250 0.265817
255 0.220627
260 0.284849
265 0.248494
270 0.258713
275 0.259076
280 0.298672
285 0.267604
290 0.262535
295 0.255039
300 0.224855
305 0.239054
310 0.256978
315 0.184695
320 0.205972
325 0.250194
330 0.246845
335 0.25048
340 0.207361
345 0.262623
350 0.229846
355 0.266982
360 0.230606
365 0.217313
370 0.285456
375 0.317153
380 0.216588
385 0.246633
390 0.351208
395 0.401939
400 0.483773
405 0.637094
410 10.4691
415 184.521
420 284.847
425 73.0078
430 9.7506
435 2.71097
440 2.07149
445 2.39902
450 2.66036
455 2.55052
460 2.83896
465 3.14428
470 3.85294
475 6.05149
480 6.94738
485 5.54297
490 5.21901
495 4.77501
500 4.15526
505 4.22359
510 4.01237
515 3.87499
520 3.55366
525 3.38532
530 3.1572
535 2.78505
540 2.6692
545 2.46205
550 2.3132
555 2.13367
560 1.85062
565 1.69915
570 1.41804
575 1.14046
580 1.066
585 0.801054
590 0.639849
595 0.547907
600 0.711074
Ex : 428
200 0.313025
205 0.241728
210 0.233077
215 0.21258
220 0.313383
225 0.234754
230 0.278164
235 0.221346
240 0.257702
245 0.2427
250 0.257781
255 0.280711
260 0.18888
265 0.256761
270 0.21243
275 0.190833
280 0.240165
285 0.229
290 0.253971
295 0.32215
300 0.280235
305 0.256776
310 0.172813
315 0.273287
320 0.23906
325 0.236769
330 0.249052
335 0.315964
340 0.262689
345 0.225776
350 0.239154
355 0.276003
360 0.276531
365 0.274897
370 0.320535
375 0.305561
380 0.263653
385 0.221618
390 0.282997
395 0.383918
400 0.429121
405 0.460915
410 0.710785
415 11.1078
420 189.033
425 293.447
430 77.4166
435 10.2066
440 2.65069
445 1.88474
450 2.29053
455 2.64591
460 2.71872
465 2.8138
470 2.94678
475 3.51189
480 5.31566
485 6.77062
490 5.78296
495 5.02342
500 4.485
505 3.96706
510 3.83263
515 3.45136
520 3.33978
525 3.34076
530 3.0405
535 2.71875
540 2.71985
545 2.32956
550 2.11256
555 2.08123
560 1.84676
565 1.46988
570 1.33484
575 1.13465
580 0.94224
585 0.865262
590 0.762185
595 0.553142
600 0.607158
Ex : 433
200 0.246423
205 0.193137
210 0.24031
215 0.186781
220 0.258989
225 0.22622
230 0.296371
235 0.229112
240 0.218407
245 0.289061
250 0.35228
255 0.228529
260 0.252943
265 0.216444
270 0.258948
275 0.253002
280 0.205756
285 0.214822
290 0.184025
295 0.226117
300 0.298348
305 0.193175
310 0.263458
315 0.220046
320 0.253465
325 0.253424
330 0.218328
335 0.239649
340 0.252269
345 0.248643
350 0.271946
355 0.303223
360 0.293057
365 0.258338
370 0.272059
375 0.226959
380 0.255947
385 0.290833
390 0.332562
395 0.373476
400 0.363893
405 0.401971
410 0.4566
415 0.665854
420 13.2898
425 210.218
430 308.274
435 77.4583
440 10.3277
445 2.76282
450 1.85175
455 2.42464
460 2.84882
465 2.66608
470 2.70943
475 2.95159
480 3.20142
485 4.55768
490 6.41645
495 5.70506
500 4.39129
505 3.99468
510 3.72522
515 3.47357
520 3.21853
525 2.92607
530 2.81642
535 2.66086
540 2.41963
545 2.17859
550 2.15054
555 1.83118
560 1.639
565 1.41169
570 1.2467
575 1.1703
580 0.926256
585 0.724523
590 0.675896
595 0.548446
600 0.546345
Ex : 438
200 0.199935
205 0.245259
210 0.24314
215 0.307382
220 0.201636
225 0.25299
230 0.289621
235 0.239053
240 0.237889
245 0.307852
250 0.21072
255 0.267777
260 0.231455
265 0.197997
270 0.249287
275 0.252123
280 0.235091
285 0.208734
290 0.229918
295 0.202338
300 0.243801
305 0.282454
310 0.264272
315 0.257171
320 0.28393
325 0.262444
330 0.277869
335 0.285377
340 0.263969
345 0.237136
350 0.242684
355 0.233177
360 0.240263
365 0.302261
370 0.310217
375 0.200339
380 0.218683
385 0.237135
390 0.228467
395 0.31334
400 0.353067
405 0.382268
410 0.423457
415 0.526776
420 0.687673
425 12.092
430 204.087
435 322.507
440 82.0723
445 10.7882
450 2.82443
455 2.11274
460 2.46075
465 2.82796
470 2.84464
475 2.74664
480 2.82764
485 3.18397
490 3.88272
495 5.74373
500 5.71798
505 4.41586
510 3.79335
515 3.47094
520 3.10287
525 2.79412
530 2.73213
535 2.52595
540 2.34944
545 2.16912
550 1.90113
555 1.73805
560 1.58674
565 1.43237
570 1.28466
575 1.19185
580 0.917306
585 0.775541
590 0.706587
595 0.553474
600 0.302498
Ex : 443
200 0.305244
205 0.232218
210 0.237378
215 0.237541
220 0.236144
225 0.31811
230 0.278038
235 0.217838
240 0.220339
245 0.282229
250 0.205718
255 0.278549
260 0.270464
265 0.202588
270 0.238522
275 0.254976
280 0.24955
285 0.271452
290 0.242023
295 0.241972
300 0.292011
305 0.287964
310 0.224927
315 0.234783
320 0.204263
325 0.22026
330 0.226168
335 0.247361
340 0.235303
345 0.281708
350 0.264578
355 0.263496
360 0.219552
365 0.261198
370 0.326406
375 0.316028
380 0.254005
385 0.29284
390 0.298953
395 0.340599
400 0.391333
405 0.34228
410 0.293044
415 0.429885
420 0.494324
425 0.747271
430 13.6037
435 219.527
440 329.696
445 82.9529
450 11.1392
455 3.08345
460 2.01621
465 2.43125
470 2.77498
475 2.68673
480 2.52786
485 2.66706
490 2.98891
495 3.1555
500 4.48767
505 5.35465
510 4.24332
515 3.30983
520 3.22754
525 2.79119
530 2.41415
535 2.42667
540 2.22713
545 2.04392
550 1.8606
555 1.69475
560 1.57493
565 1.40591
570 1.24817
575 1.05179
580 0.980756
585 0.812971
590 0.636875
595 0.497124
600 0.3631
Ex : 448
200 0.219578
205 0.233767
210 0.253466
215 0.239524
220 0.207114
225 0.230559
230 0.230925
235 0.23968
240 0.288189
245 0.204764
250 0.301748
255 0.224639
260 0.32397
265 0.213206
270 0.327708
275 0.292711
280 0.218393
285 0.215767
290 0.293739
295 0.291875
300 0.256981
305 0.290862
310 0.316734
315 0.224158
320 0.269701
325 0.222466
330 0.237283
335 0.19241
340 0.271714
345 0.286411
350 0.285267
355 0.25962
360 0.288068
365 0.316349
370 0.264482
375 0.279706
380 0.23999
385 0.273421
390 0.313614
395 0.272634
400 0.333176
405 0.31295
410 0.356211
415 0.416001
420 0.489128
425 0.434301
430 0.701356
435 14.0933
440 230.863
445 345.593
450 86.4363
455 11.4617
460 2.99415
465 2.1745
470 2.36904
475 2.62889
480 2.56201
485 2.5304
490 2.3994
495 2.56221
500 2.58584
505 3.70236
510 4.94907
515 4.14867
520 3.0456
525 3.09434
530 2.4455
535 2.25646
540 2.08714
545 1.92677
550 1.78603
555 1.64701
560 1.40506
565 1.30066
570 1.18722
575 0.977534
580 0.833189
585 0.757368
590 0.638909
595 0.562955
600 0.572193
Ex : 453
200 0.301868
205 0.309397
210 0.236413
215 0.262279
220 0.225509
225 0.27285
230 0.250673
235 0.216713
240 0.19963
245 0.226497
250 0.272647
255 0.193123
260 0.218979
265 0.198378
270 0.2476
275 0.206692
280 0.200419
285 0.227604
290 0.245133
295 0.208285
300 0.217817
305 0.310528
310 0.276237
315 0.218744
320 0.289226
325 0.251658
330 0.213676
335 0.236955
340 0.254818
345 0.223991
350 0.210267
355 0.254614
360 0.267915
365 0.267277
370 0.282704
375 0.247717
380 0.311945
385 0.241544
390 0.284263
395 0.298478
400 0.327671
405 0.288195
410 0.32943
415 0.330275
420 0.358158
425 0.443489
430 0.532988
435 0.659088
440 14.9432
445 249.599
450 360.362
455 85.173
460 11.2776
465 2.99266
470 1.88916
475 2.09206
480 2.60318
485 2.36929
490 2.36838
495 2.23396
500 2.27898
505 2.35605
510 2.77
515 4.39765
520 4.27959
525 2.93941
530 2.57141
535 2.46186
540 2.07114
545 1.7645
550 1.68852
555 1.57944
560 1.38868
565 1.3008
570 1.18055
575 0.950798
580 0.82757
585 0.751192
590 0.572699
595 0.548168
600 1.36731
Ex : 458
200 0.292243
205 0.269804
210 0.227811
215 0.231585
220 0.246519
225 0.268932
230 0.294683
235 0.26646
240 0.249273
245 0.293133
250 0.227573
255 0.254259
260 0.233804
265 0.265722
270 0.264288
275 0.216333
280 0.267423
285 0.229682
290 0.244078
295 0.219102
300 0.245417
305 0.269775
310 0.228506
315 0.269333
320 0.204373
325 0.273986
330 0.264693
335 0.213203
340 0.240364
345 0.214765
350 0.241127
355 0.324031
360 0.313353
365 0.279114
370 0.271108
375 0.315946
380 0.275675
385 0.237801
390 0.240026
395 0.287066
400 0.29845
405 0.285776
410 0.311023
415 0.26501
420 0.388592
425 0.365934
430 0.354035
435 0.459383
440 0.680834
445 16.4032
450 252.309
455 374.137
460 90.0501
465 11.8905
470 2.97435
475 1.84636
480 2.11506
485 2.31911
490 2.26558
495 2.23864
500 2.20029
505 2.0712
510 2.00966
515 2.21066
520 3.4395
525 4.20216
530 2.95996
535 2.42516
540 2.23783
545 1.9362
550 1.77465
555 1.53477
560 1.35317
565 1.22164
570 1.18217
575 1.08796
580 0.754977
585 0.651535
590 0.55086
595 0.516038
600 0.448653
Ex : 463
200 0.225792
205 0.262665
210 0.205985
215 0.197045
220 0.214997
225 0.17982
230 0.239504
235 0.257845
240 0.222372
245 0.185039
250 0.186764
255 0.209881
260 0.247032
265 0.230121
270 0.208889
275 0.236441
280 0.284818
285 0.307601
290 0.235699
295 0.207712
300 0.218786
305 0.246733
310 0.268933
315 0.277129
320 0.256356
325 0.341629
330 0.249204
335 0.225493
340 0.314009
345 0.270187
350 0.284414
355 0.265925
360 0.24204
365 0.267789
370 0.267732
375 0.251136
380 0.295868
385 0.216952
390 0.308079
395 0.304735
400 0.312521
405 0.297994
410 0.27182
415 0.263202
420 0.302207
425 0.359693
430 0.352856
435 0.437109
440 0.529354
445 0.691698
450 16.2525
455 260.296
460 395.477
465 96.1014
470 12.5632
475 2.99938
480 1.96304
485 1.86436
490 2.23129
495 2.14262
500 1.91888
505 1.7511
510 1.78544
515 1.80912
520 2.01466
525 2.57226
530 3.66308
535 3.20177
540 2.27507
545 2.07858
550 1.89844
555 1.56622
560 1.33345
565 1.29593
570 1.09738
575 0.965415
580 0.834894
585 0.651374
590 0.65906
595 0.589648
600 0.416549
Ex : 468
200 0.183312
205 0.207912
210 0.252138
215 0.228672
220 0.251102
225 0.247918
230 0.2473
235 0.235228
240 0.239181
245 0.203367
250 0.239729
255 0.209893
260 0.231165
265 0.208111
270 0.313065
275 0.267147
280 0.235766
285 0.206927
290 0.30574
295 0.231885
300 0.269347
305 0.245195
310 0.18564
315 0.198473
320 0.186268
325 0.241641
330 0.299668
335 0.285377
340 0.235487
345 0.224974
350 0.266425
355 0.197494
360 0.234654
365 0.22423
370 0.20469
375 0.291938
380 0.275023
385 0.25989
390 0.21542
395 0.263573
400 0.276558
405 0.233376
410 0.241344
415 0.263061
420 0.286528
425 0.264671
430 0.261239
435 0.348788
440 0.365726
445 0.390392
450 0.660891
455 17.6608
460 267.07
465 418.717
470 100.18
475 12.8393
480 2.95963
485 1.74641
490 1.66228
495 1.82889
500 1.91439
505 1.71741
510 1.74483
515 1.58316
520 1.65866
525 1.77321
530 2.0537
535 3.44727
540 3.41821
545 2.20881
550 1.96576
555 1.77206
560 1.41828
565 1.17678
570 1.02407
575 0.90802
580 0.745905
585 0.687732
590 0.563209
595 0.548366
600 1.28467
Ex : 473
200 0.224506
205 0.198633
210 0.19251
215 0.217032
220 0.245327
225 0.258027
230 0.189635
235 0.209245
240 0.196593
245 0.21942
250 0.262294
255 0.210061
260 0.17345
265 0.287046
270 0.242059
275 0.21822
280 0.235529
285 0.185668
290 0.244334
295 0.23528
300 0.263559
305 0.233683
310 0.239135
315 0.195202
320 0.212338
325 0.215385
330 0.227805
335 0.259635
340 0.22408
345 0.214158
350 0.215589
355 0.26899
360 0.211688
365 0.261129
370 0.241666
375 0.229752
380 0.294985
385 0.271774
390 0.258471
395 0.264673
400 0.258286
405 0.300127
410 0.290694
415 0.297178
420 0.281803
425 0.252121
430 0.348923
435 0.281956
440 0.328042
445 0.394224
450 0.489826
455 0.778169
460 19.683
465 287.661
470 398.172
475 91.8725
480 11.8956
485 2.75836
490 1.68826
495 1.7279
500 1.78112
505 1.76423
510 1.60275
515 1.66871
520 1.54608
525 1.68866
530 1.75021
535 1.83088
540 2.74694
545 3.28287
550 2.44612
555 1.81647
560 1.59476
565 1.3274
570 1.11181
575 0.816445
580 0.766672
585 0.655972
590 0.565611
595 0.575427
600 0.539188
Ex : 478
200 0.245572
205 0.277534
210 0.259917
215 0.27422
220 0.239597
225 0.263663
230 0.268838
235 0.267974
240 0.27021
245 0.292309
250 0.232007
255 0.247856
260 0.250045
265 0.293981
270 0.263576
275 0.271552
280 0.271175
285 0.249931
290 0.182479
295 0.25385
300 0.275829
305 0.265505
310 0.307336
315 0.297613
320 0.249095
325 0.27584
330 0.319313
335 0.290122
340 0.275791
345 0.285527
350 0.318881
355 0.238289
360 0.313175
365 0.263184
370 0.271557
375 0.315919
380 0.345172
385 0.344371
390 0.281411
395 0.319608
400 0.32467
405 0.320037
410 0.262613
415 0.324293
420 0.286527
425 0.341263
430 0.259355
435 0.372656
440 0.391593
445 0.371823
450 0.496521
455 0.65572
460 0.912559
465 21.4641
470 295.421
475 405.608
480 97.783
485 12.5849
490 3.00049
495 1.38401
500 1.32671
505 1.69092
510 1.8041
515 1.79507
520 1.66394
525 1.61072
530 1.60889
535 1.64748
540 1.73011
545 2.25544
550 3.14596
555 2.62029
560 1.7852
565 1.4523
570 1.32744
575 0.997112
580 0.804072
585 0.786095
590 0.599474
595 0.630934
600 1.45679
Ex : 483
200 0.266335
205 0.28736
210 0.260708
215 0.232215
220 0.219172
225 0.340748
230 0.285813
235 0.245945
240 0.280915
245 0.30522
250 0.222711
255 0.239909
260 0.343753
265 0.327013
270 0.289561
275 0.226564
280 0.239815
285 0.303587
290 0.298567
295 0.277314
300 0.313758
305 0.265566
310 0.242267
315 0.284643
320 0.316146
325 0.241874
330 0.242656
335 0.39019
340 0.291199
345 0.333169
350 0.257113
355 0.333999
360 0.308257
365 0.287035
370 0.302566
375 0.316471
380 0.260281
385 0.272736
390 0.292594
395 0.316594
400 0.25978
405 0.396458
410 0.316543
415 0.302045
420 0.266988
425 0.337018
430 0.380474
435 0.427894
440 0.34748
445 0.385458
450 0.393086
455 0.444958
460 0.609785
465 0.93072
470 16.8345
475 285.997
480 432.679
485 103.516
490 13.2898
495 2.81549
500 1.56787
505 1.26747
510 1.46503
515 1.6375
520 1.76455
525 1.7674
530 1.51108
535 1.60985
540 1.56144
545 1.63796
550 1.75103
555 2.55892
560 2.65637
565 1.73399
570 1.22614
575 1.13397
580 1.01172
585 0.763098
590 0.706725
595 0.629422
600 0.492413
Ex : 488
200 0.242346
205 0.260462
210 0.263511
215 0.312574
220 0.254248
225 0.324988
230 0.256024
235 0.32525
240 0.271804
245 0.281822
250 0.357188
255 0.292842
260 0.36702
265 0.31799
270 0.192651
275 0.340032
280 0.35914
285 0.32839
290 0.301637
295 0.363016
300 0.327174
305 0.435381
310 0.337075
315 0.271628
320 0.322573
325 0.31029
330 0.363262
335 0.372259
340 0.361029
345 0.329791
350 0.386037
355 0.312965
360 0.325321
365 0.334106
370 0.28045
375 0.365992
380 0.372649
385 0.368004
390 0.314397
395 0.398873
400 0.362956
405 0.336362
410 0.351075
415 0.297355
420 0.311666
425 0.354489
430 0.387923
435 0.395875
440 0.406826
445 0.438618
450 0.433821
455 0.478447
460 0.641926
465 0.665505
470 0.959373
475 20.6351
480 310.917
485 426.933
490 101.26
495 12.9657
500 2.77248
505 1.58569
510 1.48709
515 1.5212
520 1.72058
525 1.84865
530 1.66224
535 1.78068
540 1.59404
545 1.45167
550 1.56515
555 1.56923
560 1.98619
565 2.51851
570 1.84334
575 1.23374
580 1.08191
585 0.957978
590 0.771504
595 0.598806
600 1.29739
Ex : 493
200 0.319989
205 0.264394
210 0.312833
215 0.234564
220 0.331534
225 0.258004
230 0.264999
235 0.334299
240 0.300864
245 0.343706
250 0.298189
255 0.264468
260 0.304281
265 0.258263
270 0.329687
275 0.329911
280 0.298136
285 0.299203
290 0.294532
295 0.315413
300 0.308368
305 0.256302
310 0.296928
315 0.327296
320 0.339998
325 0.404768
330 0.272802
335 0.284895
340 0.312737
345 0.314862
350 0.369153
355 0.308286
360 0.304741
365 0.344672
370 0.339804
375 0.339308
380 0.351445
385 0.336384
390 0.381788
395 0.330367
400 0.420885
405 0.336432
410 0.411312
415 0.29765
420 0.354391
425 0.316558
430 0.342994
435 0.311161
440 0.348571
445 0.41439
450 0.387483
455 0.510039
460 0.467391
465 0.602072
470 0.663835
475 0.88411
480 19.5295
485 305.49
490 446.037
495 102.583
500 12.9805
505 2.58955
510 1.58148
515 1.39663
520 1.74019
525 1.93406
530 1.67725
535 1.74539
540 1.65006
545 1.47719
550 1.40012
555 1.2807
560 1.31332
565 1.68465
570 2.32004
575 1.7784
580 1.29161
585 0.976794
590 0.777411
595 0.732878
600 0.456167
Ex : 498
200 0.268691
205 0.284127
210 0.323247
215 0.251493
220 0.255947
225 0.355063
230 0.309634
235 0.302049
240 0.313892
245 0.303067
250 0.314968
255 0.406109
260 0.318645
265 0.318273
270 0.314467
275 0.397899
280 0.421284
285 0.319428
290 0.368322
295 0.365563
300 0.345762
305 0.290671
310 0.29892
315 0.366816
320 0.355215
325 0.294858
330 0.370952
335 0.326305
340 0.257692
345 0.368937
350 0.321773
355 0.289183
360 0.392653
365 0.398957
370 0.419568
375 0.388622
380 0.380962
385 0.306938
390 0.356782
395 0.335055
400 0.343862
405 0.347609
410 0.438988
415 0.333345
420 0.478436
425 0.439894
430 0.308578
435 0.419052
440 0.469967
445 0.513632
450 0.385651
455 0.389599
460 0.389952
465 0.491393
470 0.570224
475 0.646891
480 1.04206
485 22.7608
490 324.226
495 427.638
500 98.8529
505 12.6172
510 2.77166
515 1.70257
520 1.46095
525 1.60207
530 1.8622
535 1.92467
540 1.68568
545 1.5397
550 1.26111
555 1.41364
560 1.19523
565 1.21498
570 1.16817
575 1.57972
580 1.57722
585 1.11927
590 0.846539
595 0.732385
600 0.5735
Ex : 503
200 0.299653
205 0.375201
210 0.435421
215 0.322732
220 0.315207
225 0.355324
230 0.336876
235 0.41539
240 0.335396
245 0.289098
250 0.4761
255 0.374673
260 0.45082
265 0.381828
270 0.319398
275 0.369449
280 0.326989
285 0.350741
290 0.335614
295 0.343638
300 0.34208
305 0.376572
310 0.487357
315 0.414726
320 0.374912
325 0.300902
330 0.361655
335 0.422158
340 0.35771
345 0.306167
350 0.418259
355 0.468739
360 0.341592
365 0.417946
370 0.328988
375 0.344028
380 0.33901
385 0.375428
390 0.434814
395 0.414329
400 0.273038
405 0.475818
410 0.329092
415 0.400656
420 0.325557
425 0.332549
430 0.270964
435 0.345569
440 0.351371
445 0.470335
450 0.443304
455 0.41466
460 0.562029
465 0.473958
470 0.553099
475 0.596421
480 0.674881
485 0.995354
490 20.8896
495 323.662
500 448.6
505 102.669
510 13.1483
515 3.15859
520 1.96446
525 1.67515
530 1.65163
535 1.79272
540 1.76845
545 1.73552
550 1.49032
555 1.33349
560 1.24458
565 1.19932
570 1.00243
575 0.980179
580 1.19387
585 1.5048
590 1.10509
595 0.788363
600 2.68562
Ex : 508
200 0.3829
205 0.309007
210 0.358851
215 0.361956
220 0.423567
225 0.369553
230 0.402127
235 0.351499
240 0.3476
245 0.320175
250 0.364229
255 0.253891
260 0.2997
265 0.36737
270 0.306818
275 0.371651
280 0.48952
285 0.383358
290 0.249762
295 0.320419
300 0.423026
305 0.347676
310 0.449853
315 0.405632
320 0.333296
325 0.392098
330 0.333809
335 0.295613
340 0.324915
345 0.317146
350 0.361605
355 0.356484
360 0.436089
365 0.376684
370 0.292156
375 0.391068
380 0.371874
385 0.396425
390 0.364745
395 0.303228
400 0.429742
405 0.318599
410 0.401686
415 0.363298
420 0.425708
425 0.356431
430 0.374266
435 0.364421
440 0.412267
445 0.441455
450 0.442063
455 0.443586
460 0.379708
465 0.529125
470 0.493588
475 0.523453
480 0.572249
485 0.784536
490 1.0281
495 21.7562
500 316.667
505 434.687
510 105.44
515 13.4008
520 2.9674
525 1.82581
530 1.65269
535 1.54847
540 1.77596
545 1.64809
550 1.55663
555 1.5622
560 1.2773
565 1.12946
570 1.12594
575 0.999246
580 0.738619
585 0.855293
590 1.18279
595 1.1056
600 0.666181
Ex : 513
200 0.343314
205 0.371969
210 0.344629
215 0.366013
220 0.333846
225 0.355601
230 0.37643
235 0.39255
240 0.247446
245 0.499882
250 0.3152
255 0.363147
260 0.353077
265 0.309321
270 0.418019
275 0.34822
280 0.365227
285 0.378535
290 0.294887
295 0.329851
300 0.381032
305 0.333066
310 0.379958
315 0.352369
320 0.457091
325 0.367208
330 0.371299
335 0.347253
340 0.354912
345 0.419376
350 0.349663
355 0.380572
360 0.384494
365 0.449203
370 0.406367
375 0.406856
380 0.376099
385 0.370202
390 0.382418
395 0.328064
400 0.407507
405 0.392496
410 0.482176
415 0.440589
420 0.430323
425 0.42296
430 0.417122
435 0.430736
440 0.446695
445 0.337215
450 0.423698
455 0.428877
460 0.559507
465 0.498781
470 0.489111
475 0.467233
480 0.549173
485 0.630028
490 0.74069
495 0.853821
500 20.4608
505 316.747
510 453.503
515 109.26
520 14.0837
525 3.07544
530 1.87411
535 1.64886
540 1.40307
545 1.48801
550 1.62819
555 1.45367
560 1.40063
565 1.10564
570 1.04074
575 0.96682
580 0.769948
585 0.823682
590 0.714729
595 0.972878
600 1.15643
Ex : 518
200 0.364526
205 0.38171
210 0.413104
215 0.39882
220 0.335569
225 0.309233
230 0.362973
235 0.485514
240 0.389178
245 0.43128
250 0.470944
255 0.407742
260 0.435645
265 0.382122
270 0.314659
275 0.319826
280 0.353615
285 0.364831
290 0.346948
295 0.290098
300 0.295012
305 0.42412
310 0.453423
315 0.462184
320 0.348727
325 0.353039
330 0.444969
335 0.360961
340 0.357285
345 0.444231
350 0.445227
355 0.37607
360 0.364941
365 0.350997
370 0.513085
375 0.391944
380 0.403437
385 0.328701
390 0.372044
395 0.368126
400 0.352377
405 0.356885
410 0.356869
415 0.363296
420 0.47428
425 0.557448
430 0.374124
435 0.517463
440 0.54042
445 0.542138
450 0.546872
455 0.481422
460 0.492607
465 0.477187
470 0.465541
475 0.490157
480 0.609256
485 0.537381
490 0.630728
495 0.70413
500 0.978916
505 20.4581
510 302.123
515 446.675
520 110.163
525 14.2238
530 3.02931
535 1.69274
540 1.40857
545 1.35006
550 1.57857
555 1.46981
560 1.39946
565 1.16616
570 0.978185
575 0.982475
580 0.905782
585 0.658942
590 0.713701
595 0.769372
600 0.757944
Ex : 523
200 0.485827
205 0.39217
210 0.398566
215 0.498669
220 0.426465
225 0.324885
230 0.416395
235 0.431901
240 0.478224
245 0.347806
250 0.432826
255 0.351738
260 0.433301
265 0.446895
270 0.411994
275 0.425604
280 0.40955
285 0.516107
290 0.359515
295 0.563035
300 0.480215
305 0.469661
310 0.401281
315 0.448289
320 0.340223
325 0.39487
330 0.411165
335 0.388012
340 0.347823
345 0.41412
350 0.296838
355 0.426976
360 0.490837
365 0.330425
370 0.39845
375 0.381441
380 0.453407
385 0.398792
390 0.466882
395 0.42631
400 0.352324
405 0.395513
410 0.425834
415 0.401689
420 0.38928
425 0.388959
430 0.397617
435 0.386719
440 0.384503
445 0.519496
450 0.486652
455 0.501606
460 0.501887
465 0.4889
470 0.534215
475 0.470607
480 0.455302
485 0.50135
490 0.532208
495 0.590646
500 0.733141
505 0.884288
510 18.2754
515 294.025
520 440.552
525 114.317
530 14.713
535 3.00925
540 1.70142
545 1.3006
550 1.08483
555 1.25129
560 1.2504
565 1.29598
570 1.13082
575 0.918434
580 0.763504
585 0.733933
590 0.63071
595 0.704759
600 0.60815
Ex : 528
200 0.379961
205 0.416699
210 0.397016
215 0.411104
220 0.39655
225 0.343022
230 0.357564
235 0.418112
240 0.423832
245 0.423217
250 0.511294
255 0.430713
260 0.336956
265 0.366991
270 0.395587
275 0.398155
280 0.523682
285 0.462798
290 0.413068
295 0.443583
300 0.359894
305 0.512681
310 0.465326
315 0.392425
320 0.511614
325 0.439364
330 0.407142
335 0.422856
340 0.401258
345 0.38274
350 0.393635
355 0.405046
360 0.363039
365 0.434502
370 0.45175
375 0.334507
380 0.38871
385 0.498051
390 0.451157
395 0.517905
400 0.457474
405 0.413472
410 0.323219
415 0.430636
420 0.385519
425 0.422984
430 0.398236
435 0.440737
440 0.614693
445 0.612804
450 0.444279
455 0.52855
460 0.53826
465 0.44388
470 0.531982
475 0.508435
480 0.49048
485 0.536645
490 0.458308
495 0.559024
500 0.721954
505 0.76452
510 0.877397
515 17.5647
520 293.622
525 437.45
530 110.925
535 13.9416
540 2.88422
545 1.61678
550 1.40901
555 1.23261
560 1.13107
565 1.18606
570 1.05583
575 0.876811
580 0.805898
585 0.706546
590 0.629166
595 0.697907
600 0.515177
Ex : 533
200 0.442654
205 0.344557
210 0.440345
215 0.390434
220 0.366851
225 0.395863
230 0.474458
235 0.475315
240 0.453693
245 0.519542
250 0.456017
255 0.441642
260 0.368572
265 0.435191
270 0.332678
275 0.346234
280 0.366504
285 0.401458
290 0.371722
295 0.416981
300 0.377681
305 0.39071
310 0.360046
315 0.384312
320 0.495164
325 0.488418
330 0.578178
335 0.489425
340 0.455296
345 0.467366
350 0.447241
355 0.453283
360 0.406258
365 0.401271
370 0.510212
375 0.377657
380 0.441719
385 0.480517
390 0.636839
395 0.467523
400 0.339701
405 0.45045
410 0.536827
415 0.524571
420 0.449942
425 0.435329
430 0.386245
435 0.472245
440 0.498427
445 0.574733
450 0.486273
455 0.463757
460 0.620449
465 0.701542
470 0.570125
475 0.539968
480 0.410039
485 0.44915
490 0.627198
495 0.496775
500 0.649409
505 0.684975
510 0.744425
515 0.913969
520 17.9145
525 279.225
530 422.673
535 110.779
540 14.0348
545 2.72959
550 1.56887
555 1.30963
560 1.06034
565 1.0099
570 1.10418
575 0.998017
580 0.8969
585 0.732115
590 0.639664
595 0.631965
600 0.98816
Ex : 538
200 0.434746
205 0.512985
210 0.381032
215 0.427453
220 0.383932
225 0.380893
230 0.364726
235 0.480274
240 0.416636
245 0.432137
250 0.322199
255 0.429377
260 0.354843
265 0.42658
270 0.416503
275 0.370198
280 0.382674
285 0.349713
290 0.429776
295 0.375667
300 0.518454
305 0.487851
310 0.394296
315 0.488859
320 0.429808
325 0.426205
330 0.402407
335 0.389939
340 0.429915
345 0.542636
350 0.417384
355 0.456155
360 0.353896
365 0.408959
370 0.386961
375 0.542125
380 0.427066
385 0.428346
390 0.45052
395 0.422388
400 0.394744
405 0.428821
410 0.439195
415 0.473678
420 0.405382
425 0.393216
430 0.49123
435 0.452287
440 0.381638
445 0.423643
450 0.47595
455 0.495202
460 0.44029
465 0.488307
470 0.53417
475 0.514519
480 0.480332
485 0.520448
490 0.52525
495 0.505013
500 0.615773
505 0.601795
510 0.694251
515 0.656797
520 0.873633
525 14.4634
530 262.421
535 418.077
540 113.606
545 14.1651
550 2.69882
555 1.37901
560 1.09676
565 1.23074
570 0.795496
575 0.813381
580 0.957112
585 0.830832
590 0.686559
595 0.779732
600 0.579308
Ex : 543
200 0.368634
205 0.501676
210 0.476246
215 0.527627
220 0.426203
225 0.458469
230 0.41088
235 0.469137
240 0.498671
245 0.441459
250 0.405336
255 0.313097
260 0.429397
265 0.37674
270 0.303829
275 0.373183
280 0.419178
285 0.544789
290 0.489076
295 0.540997
300 0.430643
305 0.518613
310 0.383407
315 0.412562
320 0.379307
325 0.323913
330 0.466822
335 0.366128
340 0.438215
345 0.443508
350 0.523292
355 0.58157
360 0.490096
365 0.430152
370 0.419931
375 0.425979
380 0.34736
385 0.466454
390 0.350926
395 0.422259
400 0.415584
405 0.372293
410 0.40703
415 0.517206
420 0.442208
425 0.427271
430 0.436222
435 0.53063
440 0.437867
445 0.538204
450 0.515293
455 0.39786
460 0.576506
465 0.581036
470 0.587794
475 0.538444
480 0.528845
485 0.638797
490 0.519729
495 0.539464
500 0.629736
505 0.627853
510 0.551014
515 0.704216
520 0.625424
525 0.970399
530 13.6129
535 253.144
540 424.333
545 118.517
550 14.8239
555 2.70657
560 1.26082
565 1.03415
570 0.931067
575 0.862821
580 0.934883
585 0.773234
590 0.668367
595 0.693516
600 0.586865
Ex : 548
200 0.399702
205 0.390525
210 0.383854
215 0.302717
220 0.479669
225 0.423119
230 0.430752
235 0.419629
240 0.564792
245 0.441143
250 0.602242
255 0.411285
260 0.512773
265 0.565418
270 0.506379
275 0.491499
280 0.422892
285 0.393485
290 0.428284
295 0.454519
300 0.529957
305 0.608212
310 0.50992
315 0.370388
320 0.381765
325 0.547741
330 0.471967
335 0.474131
340 0.601686
345 0.602583
350 0.444858
355 0.511412
360 0.473778
365 0.478779
370 0.393197
375 0.414029
380 0.477496
385 0.491438
390 0.395082
395 0.448118
400 0.439862
405 0.459327
410 0.457751
415 0.516273
420 0.420002
425 0.490431
430 0.421707
435 0.395736
440 0.516949
445 0.582421
450 0.487064
455 0.719845
460 0.508243
465 0.4973
470 0.487548
475 0.451774
480 0.491326
485 0.413539
490 0.557522
495 0.673737
500 0.51598
505 0.662092
510 0.590305
515 0.602595
520 0.607599
525 0.809547
530 1.04213
535 14.6993
540 257.087
545 409.547
550 113.878
555 14.2537
560 2.56867
565 1.30357
570 1.00995
575 0.941088
580 0.738372
585 0.764379
590 0.676865
595 0.771459
600 0.436732
Ex : 553
200 0.451889
205 0.499592
210 0.419675
215 0.477151
220 0.481065
225 0.446147
230 0.380578
235 0.488388
240 0.461104
245 0.518665
250 0.446873
255 0.4741
260 0.428588
265 0.370978
270 0.489763
275 0.366932
280 0.476164
285 0.540036
290 0.390119
295 0.527218
300 0.414122
305 0.460933
310 0.363855
315 0.383242
320 0.431659
325 0.404093
330 0.357148
335 0.508918
340 0.535811
345 0.470719
350 0.488544
355 0.52334
360 0.508165
365 0.676004
370 0.506139
375 0.453761
380 0.414783
385 0.486813
390 0.462986
395 0.468558
400 0.449488
405 0.531103
410 0.488468
415 0.572709
420 0.547039
425 0.596379
430 0.498032
435 0.441401
440 0.526549
445 0.472831
450 0.476491
455 0.413369
460 0.455023
465 0.508977
470 0.478788
475 0.418917
480 0.567227
485 0.549465
490 0.514803
495 0.376057
500 0.435191
505 0.494062
510 0.441772
515 0.524304
520 0.601947
525 0.74296
530 0.713594
535 0.914989
540 13.2375
545 242.8
550 408.395
555 117.809
560 14.9658
565 2.69653
570 1.19741
575 0.976671
580 0.850145
585 0.576219
590 0.663817
595 0.734245
600 0.674357
Ex : 558
200 0.479513
205 0.557989
210 0.488227
215 0.489969
220 0.525073
225 0.455289
230 0.425382
235 0.5749
240 0.548805
245 0.644985
250 0.512458
255 0.398303
260 0.401481
265 0.443286
270 0.539083
275 0.429651
280 0.482685
285 0.456292
290 0.582324
295 0.563675
300 0.425258
305 0.381886
310 0.397037
315 0.52592
320 0.5206
325 0.492862
330 0.563631
335 0.462379
340 0.470808
345 0.440668
350 0.647759
355 0.539712
360 0.435696
365 0.491976
370 0.507811
375 0.456196
380 0.491701
385 0.488761
390 0.525599
395 0.659385
400 0.467029
405 0.557351
410 0.614488
415 0.53718
420 0.556132
425 0.543319
430 0.538414
435 0.525928
440 0.577463
445 0.705852
450 0.608495
455 0.493327
460 0.470973
465 0.553632
470 0.557468
475 0.554454
480 0.582189
485 0.508858
490 0.576732
495 0.526411
500 0.557022
505 0.672563
510 0.708545
515 0.609128
520 0.716987
525 0.608831
530 0.65029
535 0.677949
540 1.09663
545 12.1608
550 231.605
555 400.121
560 115.633
565 14.4801
570 2.44055
575 1.09431
580 1.0025
585 0.830816
590 0.789235
595 0.684329
600 0.526884
Ex : 563
200 0.399445
205 0.423668
210 0.407598
215 0.475011
220 0.662999
225 0.434639
230 0.464198
235 0.437203
240 0.388081
245 0.399082
250 0.544069
255 0.496055
260 0.455372
265 0.455619
270 0.546153
275 0.450993
280 0.4696
285 0.60566
290 0.507117
295 0.460328
300 0.422305
305 0.439883
310 0.442892
315 0.473787
320 0.581959
325 0.494338
330 0.52431
335 0.501307
340 0.644348
345 0.601551
350 0.515559
355 0.519932
360 0.484521
365 0.55956
370 0.4204
375 0.452999
380 0.525037
385 0.503143
390 0.455835
395 0.517549
400 0.462419
405 0.649728
410 0.479654
415 0.51361
420 0.563992
425 0.470771
430 0.575305
435 0.474055
440 0.473557
445 0.553439
450 0.479606
455 0.461756
460 0.536661
465 0.551419
470 0.684143
475 0.423193
480 0.487023
485 0.564328
490 0.594864
495 0.531026
500 0.450218
505 0.689651
510 0.607604
515 0.54475
520 0.584051
525 0.655812
530 0.607289
535 0.71597
540 0.751574
545 1.0964
550 12.2682
555 225.718
560 387.278
565 112.242
570 13.9578
575 2.40098
580 1.10013
585 0.82121
590 0.854586
595 0.811042
600 0.439466
Ex : 568
200 0.454576
205 0.431336
210 0.480918
215 0.510162
220 0.398252
225 0.485336
230 0.497269
235 0.575606
240 0.409064
245 0.649977
250 0.580841
255 0.496539
260 0.455485
265 0.55304
270 0.485258
275 0.499375
280 0.465891
285 0.488803
290 0.406667
295 0.471112
300 0.494826
305 0.599856
310 0.564271
315 0.551932
320 0.454864
325 0.46949
330 0.565988
335 0.564964
340 0.429074
345 0.507939
350 0.405501
355 0.369018
360 0.505952
365 0.538383
370 0.55057
375 0.448208
380 0.608086
385 0.490021
390 0.474783
395 0.458905
400 0.53
405 0.481607
410 0.559914
415 0.529576
420 0.495929
425 0.556986
430 0.408943
435 0.535982
440 0.45806
445 0.526398
450 0.428187
455 0.414042
460 0.565451
465 0.532535
470 0.617639
475 0.502763
480 0.532347
485 0.60683
490 0.555284
495 0.639207
500 0.724979
505 0.601652
510 0.717334
515 0.484409
520 0.562799
525 0.567767
530 0.727517
535 0.596965
540 0.748794
545 0.795835
550 0.881843
555 9.25659
560 209.779
565 382.147
570 116.728
575 14.7362
580 2.6344
585 0.944694
590 0.983873
595 0.741864
600 1.07747
Ex : 573
200 0.459002
205 0.437586
210 0.565878
215 0.506642
220 0.494006
225 0.647585
230 0.48061
235 0.563136
240 0.472109
245 0.451997
250 0.510548
255 0.49911
260 0.607446
265 0.511291
270 0.470111
275 0.588931
280 0.524534
285 0.541285
290 0.602534
295 0.47849
300 0.527226
305 0.496973
310 0.51093
315 0.478378
320 0.499942
325 0.448834
330 0.358276
335 0.447354
340 0.345586
345 0.437065
350 0.439827
355 0.531539
360 0.568326
365 0.485181
370 0.454298
375 0.46172
380 0.476721
385 0.560077
390 0.509867
395 0.518542
400 0.52439
405 0.548341
410 0.64427
415 0.438132
420 0.449138
425 0.51639
430 0.524165
435 0.472993
440 0.467221
445 0.644847
450 0.497332
455 0.518421
460 0.590686
465 0.550658
470 0.564989
475 0.539013
480 0.503897
485 0.547298
490 0.483979
495 0.514005
500 0.630406
505 0.632938
510 0.548725
515 0.488192
520 0.735204
525 0.550713
530 0.523338
535 0.580476
540 0.635781
545 0.646466
550 1.0125
555 1.01121
560 8.94731
565 181.257
570 352.426
575 109.928
580 13.9057
585 2.18606
590 0.93139
595 0.757187
600 1.02412
Ex : 578
200 0.45526
205 0.537795
210 0.507176
215 0.511792
220 0.616161
225 0.55353
230 0.627583
235 0.474934
240 0.398039
245 0.409732
250 0.687689
255 0.52857
260 0.690022
265 0.710839
270 0.610436
275 0.49863
280 0.516172
285 0.522018
290 0.544805
295 0.478779
300 0.453451
305 0.518016
310 0.595352
315 0.514452
320 0.450736
325 0.528663
330 0.543866
335 0.437283
340 0.632583
345 0.502968
350 0.415835
355 0.561725
360 0.683592
365 0.588653
370 0.595639
375 0.568437
380 0.510589
385 0.695669
390 0.539836
395 0.493894
400 0.569806
405 0.485318
410 0.530952
415 0.579531
420 0.568419
425 0.551822
430 0.507522
435 0.561403
440 0.444836
445 0.658897
450 0.633938
455 0.496716
460 0.615368
465 0.469936
470 0.435707
475 0.603479
480 0.605646
485 0.554769
490 0.515439
495 0.546043
500 0.497
505 0.529231
510 0.621503
515 0.592077
520 0.569281
525 0.65521
530 0.544804
535 0.54404
540 0.595501
545 0.718033
550 0.59942
555 0.869704
560 0.796449
565 7.96546
570 160.208
575 302.306
580 91.7332
585 11.5354
590 2.12103
595 0.889892
600 2.38391
Ex : 583
200 0.47554
205 0.537077
210 0.497867
215 0.484495
220 0.513019
225 0.601988
230 0.554588
235 0.561507
240 0.48809
245 0.417733
250 0.544305
255 0.427998
260 0.618691
265 0.532786
270 0.514265
275 0.618611
280 0.511023
285 0.551532
290 0.622202
295 0.733518
300 0.511186
305 0.463543
310 0.54978
315 0.486157
320 0.549178
325 0.535445
330 0.470177
335 0.452814
340 0.499288
345 0.501163
350 0.47787
355 0.473822
360 0.54702
365 0.475767
370 0.590096
375 0.511659
380 0.580183
385 0.438571
390 0.577971
395 0.585726
400 0.445842
405 0.531312
410 0.771837
415 0.652964
420 0.532863
425 0.547621
430 0.722137
435 0.703638
440 0.519718
445 0.578434
450 0.658761
455 0.555458
460 0.517054
465 0.51977
470 0.561275
475 0.604235
480 0.635733
485 0.617407
490 0.600792
495 0.543581
500 0.629206
505 0.542685
510 0.568276
515 0.55781
520 0.623435
525 0.682717
530 0.533542
535 0.638889
540 0.726173
545 0.642308
550 0.53662
555 0.64445
560 0.690407
565 0.935684
570 6.44829
575 145.817
580 273.132
585 79.7644
590 10.0567
595 1.89712
600 0.731119
Ex : 588
200 0.390826
205 0.539851
210 0.532883
215 0.463881
220 0.419113
225 0.484067
230 0.640892
235 0.585393
240 0.484945
245 0.527861
250 0.480602
255 0.645493
260 0.57857
265 0.507844
270 0.553908
275 0.423826
280 0.555868
285 0.51306
290 0.518457
295 0.457094
300 0.55409
305 0.563478
310 0.454344
315 0.470626
320 0.408274
325 0.515137
330 0.487814
335 0.589105
340 0.578185
345 0.517575
350 0.468951
355 0.515902
360 0.472518
365 0.496361
370 0.602233
375 0.687042
380 0.574314
385 0.60866
390 0.627168
395 0.515152
400 0.42342
405 0.668543
410 0.660921
415 0.463053
420 0.595153
425 0.490524
430 0.504723
435 0.507915
440 0.649336
445 0.607599
450 0.490427
455 0.818257
460 0.556125
465 0.484078
470 0.545399
475 0.668181
480 0.621774
485 0.615784
490 0.744311
495 0.602474
500 0.701392
505 0.489237
510 0.551729
515 0.564491
520 0.543404
525 0.601801
530 0.663941
535 0.600038
540 0.571313
545 0.61138
550 0.744727
555 0.799598
560 0.724697
565 0.740188
570 0.901018
575 5.97217
580 124.959
585 236.828
590 70.9879
595 9.15528
600 1.04184
Ex : 593
200 0.413607
205 0.580037
210 0.57695
215 0.505286
220 0.459203
225 0.534882
230 0.676822
235 0.592798
240 0.651121
245 0.57442
250 0.504377
255 0.528962
260 0.666394
265 0.522945
270 0.521482
275 0.587104
280 0.550891
285 0.464506
290 0.433703
295 0.493876
300 0.52254
305 0.519187
310 0.600138
315 0.550286
320 0.435414
325 0.483397
330 0.455757
335 0.877971
340 0.683793
345 0.618965
350 0.543622
355 0.627775
360 0.689112
365 0.655325
370 0.696574
375 0.629756
380 0.610052
385 0.654809
390 0.483203
395 0.415504
400 0.678502
405 0.618258
410 0.599377
415 0.647531
420 0.60412
425 0.568547
430 0.574234
435 0.480448
440 0.612699
445 0.770989
450 0.69156
455 0.460198
460 0.619838
465 0.517088
470 0.548414
475 0.418462
480 0.644751
485 0.596153
490 0.487312
495 0.48389
500 0.478979
505 0.580528
510 0.558536
515 0.67981
520 0.622497
525 0.601451
530 0.566415
535 0.6955
540 0.49901
545 0.690118
550 0.620082
555 0.680598
560 0.613995
565 0.676034
570 0.730268
575 0.788089
580 5.37128
585 107.216
590 203.621
595 60.5859
600 9.70076
Ex : 598
200 0.537539
205 0.532642
210 0.579225
215 0.576395
220 0.644223
225 0.518558
230 0.489662
235 0.486878
240 0.514835
245 0.540089
250 0.527697
255 0.595445
260 0.777096
265 0.595234
270 0.444452
275 0.777193
280 0.732565
285 0.579271
290 0.571255
295 0.610118
300 0.71406
305 0.558774
310 0.628856
315 0.655209
320 0.7662
325 0.567529
330 0.886599
335 0.719044
340 0.607833
345 0.583534
350 0.719741
355 0.614826
360 0.56725
365 0.492277
370 0.442943
375 0.518041
380 0.614725
385 0.588547
390 0.499251
395 0.633312
400 0.54904
405 0.629993
410 0.687172
415 0.673543
420 0.520121
425 0.542199
430 0.67133
435 0.645991
440 0.61187
445 0.708255
450 0.617293
455 0.715503
460 0.841555
465 0.643127
470 0.656865
475 0.595979
480 0.556548
485 0.637835
490 0.438538
495 0.685331
500 0.622557
505 0.775779
510 0.621567
515 0.822396
520 0.63394
525 0.55972
530 0.604707
535 0.683275
540 0.822636
545 0.772611
550 0.679655
555 0.829154
560 0.623164
565 0.576005
570 0.709343
575 0.826251
580 1.00994
585 5.18096
590 94.9886
595 179.66
600 110.293
Ex : 603
200 0.615736
205 0.618652
210 0.623448
215 0.629559
220 0.4947
225 0.467099
230 0.560454
235 0.593117
240 0.731953
245 0.548312
250 0.71614
255 0.704084
260 0.532279
265 0.525663
270 0.608254
275 0.684588
280 0.653145
285 0.77688
290 0.57232
295 0.547396
300 0.68115
305 0.622958
310 0.493816
315 0.576264
320 0.479751
325 0.541899
330 0.65064
335 0.575022
340 0.581349
345 0.541157
350 0.479043
355 0.594356
360 0.689088
365 0.767228
370 0.678045
375 0.601635
380 0.580155
385 0.483423
390 0.748444
395 0.685257
400 0.611381
405 0.524445
410 0.654078
415 0.61071
420 0.620826
425 0.819236
430 0.729349
435 0.556384
440 0.660138
445 0.621866
450 0.570014
455 0.641345
460 0.57668
465 0.713755
470 0.744857
475 0.661451
480 0.787963
485 0.559018
490 0.503976
495 0.645935
500 0.610474
505 0.853097
510 0.755324
515 0.580103
520 0.637821
525 0.591369
530 0.513453
535 0.587433
540 0.586232
545 0.531071
550 0.694305
555 0.604991
560 0.689266
565 0.694985
570 0.780087
575 0.807932
580 0.727401
585 0.703957
590 4.39663
595 81.215
600 167.149
