File format V 1.0
ven. 9. déc. 22:34:38 2016
Operator : 
Comments : 

=============================================
SpectroFluorometer parameters
Mode : 3D measurement
Data : Fluorescence
Phospho. : Ordinary
Spectrum : Fluorescence

Scan speed : 2400 nm/mn
Response : 100 ms
PM Voltage : 700 V
Shutter : On

Lambda Ex. Start : 203
Lambda Ex. End : 603
Lambda Ex. Step : 5
Ex. Slit : 5 nm

Lambda Em. Start : 200
Lambda Em. End : 600
Lambda Em. Step : 5
Em. Slit : 5 nm

Repetition : 1
Decal lambda em : 10
=============================================
DATA
Ex : 203
200 15.2375
205 12.586
210 17.017
215 15.5213
220 14.8876
225 15.4195
230 13.4887
235 15.7364
240 14.8693
245 16.8445
250 18.6746
255 13.4064
260 14.5793
265 11.3094
270 10.8964
275 14.9586
280 16.1574
285 13.9607
290 16.398
295 14.0427
300 13.3186
305 17.6377
310 14.4083
315 17.309
320 9.66596
325 16.3437
330 16.3453
335 15.634
340 14.856
345 14.4925
350 17.5084
355 18.9103
360 15.7387
365 16.6564
370 16.4063
375 17.0458
380 15.1417
385 15.8967
390 14.8753
395 15.9808
400 16.8131
405 14.3604
410 16.031
415 17.2432
420 16.9003
425 12.5827
430 13.8724
435 15.0766
440 16.2402
445 14.4847
450 15.6181
455 18.4022
460 13.3591
465 18.0025
470 15.1064
475 16.2616
480 15.9116
485 14.4707
490 17.0431
495 17.1622
500 17.4452
505 14.7682
510 14.365
515 21.6075
520 15.1354
525 15.5026
530 14.6282
535 14.6173
540 15.4612
545 14.0655
550 15.8151
555 16.3323
560 16.358
565 16.0734
570 16.3164
575 21.5762
580 15.8197
585 17.9334
590 13.1637
595 14.8366
600 69.0398
Ex : 208
200 17.6076
205 13.3844
210 20.396
215 15.6036
220 15.4672
225 13.505
230 13.978
235 13.9975
240 16.8534
245 15.7768
250 18.3737
255 18.4997
260 17.9548
265 20.0535
270 18.7393
275 16.8936
280 13.5976
285 13.6479
290 19.4139
295 15.1622
300 12.6217
305 14.3885
310 19.5624
315 15.1626
320 12.3749
325 14.1964
330 14.4219
335 15.2672
340 16.6311
345 17.3426
350 17.5238
355 15.1184
360 21.0386
365 16.2925
370 15.4077
375 13.8239
380 15.1143
385 17.6118
390 18.444
395 17.1924
400 17.0424
405 13.5625
410 18.1763
415 17.8103
420 17.5301
425 20.8932
430 18.2072
435 19.2818
440 20.2981
445 17.3642
450 19.0297
455 17.4857
460 18.7298
465 21.3401
470 19.0367
475 11.6628
480 16.8051
485 16.527
490 22.1352
495 15.9881
500 14.0184
505 15.7949
510 19.3566
515 16.3127
520 17.7869
525 22.0676
530 23.3707
535 16.8552
540 16.3202
545 15.8682
550 16.631
555 11.831
560 19.251
565 19.2713
570 11.1608
575 17.0402
580 18.2748
585 15.8776
590 16.4625
595 13.4205
600 1.70445
Ex : 213
200 15.4024
205 12.5107
210 12.2598
215 14.6934
220 11.5434
225 17.9503
230 12.7358
235 13.3798
240 11.9083
245 14.5551
250 11.6105
255 10.8041
260 13.2235
265 15.9983
270 13.2868
275 12.7276
280 14.7147
285 14.2712
290 10.2263
295 11.6538
300 14.356
305 14.5263
310 14.7897
315 13.4606
320 15.2992
325 16.3395
330 16.4563
335 17.585
340 16.1696
345 14.5764
350 16.837
355 13.7963
360 15.0142
365 16.8049
370 18.0383
375 25.3032
380 16.832
385 11.0762
390 17.3756
395 14.1651
400 14.2764
405 19.0603
410 14.5178
415 13.9488
420 17.9456
425 18.2892
430 13.8588
435 14.1021
440 18.7729
445 15.1357
450 19.0963
455 14.6708
460 13.7879
465 18.3621
470 18.4867
475 21.5236
480 16.0196
485 17.8748
490 13.6449
495 17.5657
500 14.4801
505 12.7305
510 15.5957
515 13.9481
520 10.5214
525 15.3871
530 19.1351
535 18.4757
540 18.7529
545 15.6389
550 12.706
555 18.0635
560 24.5247
565 14.9546
570 19.9797
575 14.9371
580 14.2134
585 16.1218
590 15.0665
595 13.0269
600 2.49522
Ex : 218
200 16.4709
205 16.7118
210 16.7989
215 14.5314
220 13.3132
225 12.2124
230 12.7905
235 16.1695
240 15.1382
245 12.813
250 15.2371
255 16.3563
260 14.9888
265 18.2788
270 12.046
275 14.7268
280 14.8972
285 14.0395
290 11.9951
295 11.0394
300 12.516
305 13.5588
310 19.3746
315 18.2155
320 16.0541
325 15.5259
330 15.3569
335 14.8613
340 15.4247
345 12.6957
350 16.3927
355 15.6443
360 16.019
365 14.7969
370 17.6603
375 16.5298
380 15.2038
385 13.6602
390 14.4595
395 17.1881
400 15.1066
405 18.7839
410 16.5458
415 14.7752
420 20.6013
425 16.083
430 13.774
435 22.8248
440 15.4272
445 19.1242
450 15.4293
455 14.2266
460 17.587
465 18.1563
470 15.6166
475 15.0863
480 17.7297
485 14.8725
490 16.3965
495 16.4711
500 12.6405
505 14.4293
510 17.339
515 13.4789
520 19.1405
525 13.4168
530 14.6059
535 10.9217
540 14.1719
545 13.7927
550 14.731
555 13.8616
560 14.5347
565 14.9679
570 15.8721
575 15.8332
580 14.6668
585 16.0446
590 16.2741
595 12.8487
600 27.4574
Ex : 223
200 15.3782
205 10.9789
210 15.3191
215 10.6731
220 10.9726
225 10.5144
230 9.84445
235 7.76429
240 9.35227
245 12.5899
250 12.4245
255 17.5487
260 12.8058
265 15.9636
270 14.3074
275 20.1182
280 12.9384
285 13.9507
290 19.0901
295 18.3093
300 13.479
305 11.7974
310 15.9403
315 14.8667
320 12.8492
325 14.6579
330 18.7012
335 14.9947
340 14.297
345 12.9714
350 15.2096
355 14.5392
360 14.4765
365 18.3757
370 13.9702
375 14.6395
380 16.3613
385 16.4387
390 15.2185
395 16.8968
400 14.3968
405 22.0261
410 20.5955
415 17.6513
420 20.9838
425 15.4255
430 14.7889
435 15.3854
440 12.207
445 14.0381
450 12.4646
455 19.8345
460 16.079
465 16.442
470 18.2144
475 17.7967
480 16.8227
485 15.9174
490 15.8619
495 15.3419
500 16.1392
505 11.5212
510 18.5769
515 12.5958
520 12.8793
525 14.239
530 13.3444
535 14.8461
540 14.6771
545 12.5565
550 14.0079
555 18.703
560 19.4171
565 15.7351
570 11.9634
575 10.7829
580 14.4842
585 10.929
590 13.3351
595 11.7451
600 18.7652
Ex : 228
200 14.4468
205 13.2919
210 10.9035
215 12.2184
220 11.3811
225 13.1684
230 12.3474
235 10.5197
240 12.8978
245 15.8696
250 13.7852
255 13.6998
260 17.4444
265 11.3835
270 13.7808
275 13.6325
280 13.5125
285 14.2568
290 15.073
295 9.54966
300 11.2618
305 11.7013
310 12.8009
315 15.8644
320 16.2741
325 12.8787
330 17.3362
335 17.2667
340 15.9057
345 13.507
350 15.2245
355 14.262
360 11.1101
365 12.165
370 18.0505
375 16.2427
380 15.7936
385 11.508
390 14.2882
395 14.7645
400 16.2406
405 14.4695
410 15.5706
415 14.569
420 13.1925
425 15.1162
430 13.4228
435 14.0457
440 15.6165
445 14.3374
450 12.3121
455 12.9952
460 14.6226
465 17.3188
470 17.9467
475 15.9888
480 12.3364
485 14.4188
490 13.8474
495 11.9531
500 18.4318
505 16.1117
510 12.4859
515 10.656
520 14.8881
525 15.9729
530 13.9386
535 12.9193
540 13.2803
545 14.3876
550 11.9024
555 13.6773
560 12.9272
565 11.8274
570 17.1653
575 13.3311
580 12.8787
585 18.0194
590 11.7536
595 13.8362
600 40.213
Ex : 233
200 11.2409
205 9.73801
210 10.0511
215 9.18844
220 10.7442
225 11.74
230 16.2874
235 15.1716
240 13.5816
245 13.8785
250 12.141
255 10.7396
260 11.8403
265 15.1969
270 10.8434
275 10.7437
280 15.2826
285 13.0071
290 14.6086
295 11.8517
300 11.0505
305 10.7637
310 11.8593
315 15.5898
320 12.8105
325 11.1672
330 13.3945
335 10.9641
340 9.24063
345 12.5475
350 9.45385
355 12.351
360 15.8623
365 14.7716
370 11.2318
375 15.0271
380 15.1181
385 13.2491
390 15.9116
395 13.1583
400 14.2876
405 11.7277
410 10.68
415 13.8293
420 12.0068
425 11.8174
430 10.6786
435 14.8411
440 11.0418
445 15.4894
450 14.1237
455 10.7647
460 10.7404
465 12.8995
470 14.4082
475 14.8845
480 14.4082
485 12.7064
490 11.7746
495 10.7392
500 12.6984
505 13.617
510 11.0114
515 12.9337
520 12.2818
525 9.53742
530 13.7395
535 12.5932
540 10.9537
545 12.7759
550 11.7035
555 10.7264
560 9.61324
565 12.7696
570 12.6261
575 11.6563
580 11.8976
585 12.3999
590 8.90687
595 10.5362
600 17.1507
Ex : 238
200 9.2439
205 10.3662
210 11.6239
215 10.715
220 10.9371
225 10.3387
230 11.3257
235 10.4923
240 12.3976
245 8.59391
250 9.76983
255 10.8523
260 11.1604
265 10.9387
270 10.076
275 13.5103
280 7.1561
285 9.87494
290 11.7432
295 9.89076
300 9.37758
305 12.854
310 9.68746
315 13.3597
320 11.5409
325 11.0798
330 11.4652
335 8.8527
340 11.7818
345 16.6277
350 13.836
355 12.5056
360 10.0011
365 15.5013
370 13.3907
375 14.4242
380 9.23746
385 12.546
390 12.933
395 14.1275
400 15.922
405 10.3267
410 13.4818
415 11.5778
420 12.5269
425 10.5542
430 11.2545
435 10.7685
440 11.8518
445 12.272
450 11.3469
455 10.455
460 10.5694
465 13.6868
470 11.533
475 8.76021
480 12.3756
485 10.9425
490 13.2787
495 13.9538
500 13.0582
505 11.4257
510 8.21556
515 11.9917
520 13.3768
525 10.3993
530 12.5433
535 10.3551
540 13.7625
545 11.8523
550 9.42884
555 10.3362
560 8.52585
565 14.973
570 12.8732
575 11.3691
580 12.8655
585 13.2389
590 9.01655
595 9.3921
600 1.60051
Ex : 243
200 8.01812
205 8.60305
210 8.98671
215 9.30673
220 8.37931
225 8.54957
230 10.4092
235 11.0744
240 10.1088
245 8.7012
250 9.17491
255 11.6585
260 10.1679
265 12.2329
270 7.96196
275 11.215
280 10.1817
285 10.9579
290 8.96405
295 10.7069
300 10.642
305 7.70254
310 8.25286
315 12.378
320 15.036
325 9.70643
330 7.8244
335 8.53632
340 9.199
345 7.97127
350 9.37051
355 9.59076
360 9.10029
365 11.6019
370 11.1574
375 8.61637
380 9.70245
385 12.574
390 11.439
395 13.3592
400 10.8449
405 10.4341
410 10.4925
415 10.9822
420 9.62899
425 11.2018
430 8.2499
435 10.6974
440 11.0616
445 13.7715
450 10.3184
455 12.8881
460 10.7489
465 11.3182
470 10.0401
475 11.485
480 10.7039
485 10.0901
490 10.8479
495 8.7217
500 12.3749
505 10.7679
510 9.48422
515 12.0589
520 10.1908
525 7.95705
530 11.8466
535 11.471
540 8.90503
545 10.2001
550 11.1173
555 10.9713
560 9.39134
565 9.70597
570 10.6569
575 9.37942
580 10.1754
585 9.76537
590 10.0619
595 8.71954
600 4.41047
Ex : 248
200 10.1407
205 6.12568
210 7.12138
215 5.38911
220 8.80113
225 7.35978
230 8.60467
235 8.11432
240 7.14637
245 9.04877
250 9.70782
255 8.03828
260 6.15287
265 7.11118
270 9.86309
275 7.06385
280 6.80733
285 5.05423
290 6.34532
295 7.18103
300 9.01248
305 8.08672
310 6.43652
315 7.19117
320 8.26134
325 8.62685
330 9.37489
335 9.14113
340 6.79793
345 8.0356
350 7.54919
355 11.8452
360 8.72923
365 6.68604
370 7.72663
375 8.32282
380 9.09676
385 7.323
390 9.02937
395 9.46491
400 8.16397
405 8.69513
410 8.53016
415 8.2472
420 7.13647
425 9.37783
430 7.8632
435 10.9325
440 11.5981
445 10.8019
450 8.01447
455 11.1639
460 7.44657
465 7.50865
470 8.58304
475 8.76826
480 8.42079
485 8.98044
490 9.74656
495 9.49397
500 9.56336
505 8.83667
510 8.96415
515 7.57799
520 8.56315
525 6.65612
530 8.57164
535 5.51688
540 7.43268
545 7.78686
550 8.28229
555 6.47372
560 9.97428
565 8.18426
570 8.07858
575 7.65173
580 9.24536
585 9.19738
590 7.95523
595 6.9586
600 13.376
Ex : 253
200 6.61205
205 6.04041
210 6.03362
215 5.23225
220 5.04376
225 7.46515
230 5.42638
235 7.35041
240 6.9753
245 5.53495
250 5.61275
255 7.15437
260 5.23405
265 6.2797
270 5.13896
275 4.09621
280 7.18442
285 4.03226
290 5.54078
295 7.33146
300 5.43285
305 6.89901
310 5.72827
315 7.01892
320 7.11039
325 8.25061
330 7.84555
335 5.6533
340 8.61916
345 7.64279
350 6.31783
355 8.46397
360 7.14709
365 6.48547
370 8.00133
375 8.19534
380 7.32734
385 6.12649
390 6.99483
395 5.99012
400 7.18347
405 7.95558
410 7.22207
415 8.88452
420 5.82215
425 7.63628
430 6.48892
435 6.83079
440 7.58043
445 6.57875
450 8.26479
455 6.28682
460 9.2799
465 5.89707
470 7.8979
475 6.91928
480 9.11857
485 6.73626
490 7.26763
495 7.42099
500 6.36969
505 7.53823
510 7.88272
515 5.70348
520 6.98473
525 6.56297
530 6.06181
535 6.27901
540 8.79724
545 6.4592
550 6.23358
555 5.80942
560 7.22121
565 6.84523
570 8.36337
575 6.4841
580 6.86052
585 5.77085
590 6.23297
595 6.23982
600 6.47039
Ex : 258
200 4.15029
205 6.25898
210 4.81733
215 4.0672
220 4.56022
225 5.00502
230 4.57923
235 4.9173
240 4.05316
245 3.82128
250 3.09346
255 5.83069
260 3.8193
265 4.2282
270 5.04947
275 5.6446
280 3.9404
285 5.11053
290 3.66781
295 5.20079
300 4.57975
305 5.01114
310 4.19384
315 4.73995
320 4.35729
325 7.68005
330 6.77029
335 5.21897
340 5.64905
345 6.16798
350 5.74218
355 5.64872
360 5.2653
365 5.09743
370 5.25213
375 5.46229
380 6.1022
385 6.0688
390 5.31375
395 5.42717
400 7.24791
405 4.11934
410 5.74081
415 7.30673
420 5.88743
425 7.24772
430 5.55352
435 5.6462
440 4.85329
445 6.19966
450 6.40452
455 5.27602
460 7.60369
465 6.55498
470 6.04568
475 4.59872
480 4.97738
485 5.38645
490 6.81813
495 5.6186
500 5.04074
505 5.41808
510 6.61438
515 5.25987
520 5.10227
525 5.68494
530 6.06339
535 4.91423
540 4.14799
545 5.14097
550 6.17152
555 5.38851
560 5.2662
565 5.39346
570 4.26076
575 4.66942
580 5.92994
585 4.98696
590 4.93287
595 5.75981
600 4.49566
Ex : 263
200 4.11704
205 3.07856
210 4.30468
215 3.5868
220 4.63655
225 3.01556
230 3.55159
235 4.12729
240 4.03581
245 4.20294
250 3.76268
255 4.05688
260 3.03555
265 3.91739
270 3.60163
275 5.25381
280 4.57827
285 4.25504
290 3.99182
295 3.03037
300 3.2621
305 4.65139
310 4.02224
315 3.42457
320 4.20668
325 3.95057
330 4.16864
335 3.7143
340 4.92186
345 3.8597
350 5.19535
355 5.56483
360 3.92175
365 4.47436
370 4.158
375 4.34483
380 5.8898
385 4.6762
390 4.89467
395 4.80998
400 3.73499
405 5.06385
410 4.6917
415 5.72626
420 4.83887
425 4.92578
430 3.91145
435 4.08648
440 3.97632
445 3.94807
450 4.88831
455 4.58916
460 3.92227
465 4.52501
470 3.96489
475 4.74424
480 4.28795
485 4.0473
490 4.20745
495 3.68549
500 3.27066
505 3.49026
510 4.10773
515 4.76712
520 4.76065
525 6.55633
530 3.6711
535 4.83124
540 3.92341
545 4.4084
550 3.97274
555 3.20696
560 5.1886
565 3.34405
570 4.19467
575 3.37982
580 3.27141
585 3.61283
590 3.55542
595 4.16429
600 0.946522
Ex : 268
200 2.68005
205 3.19273
210 3.24061
215 3.00171
220 2.43482
225 2.79044
230 3.02615
235 3.14141
240 3.04819
245 2.2649
250 3.30713
255 3.55121
260 2.82647
265 2.8154
270 3.48285
275 2.96463
280 3.03592
285 3.85158
290 4.16747
295 3.59676
300 2.616
305 3.18632
310 3.0651
315 3.01995
320 2.97645
325 2.5212
330 2.36388
335 3.9652
340 4.6075
345 4.55854
350 3.92314
355 4.00465
360 3.7676
365 4.30809
370 3.35935
375 3.77138
380 3.94557
385 3.34163
390 4.01719
395 3.79313
400 2.49459
405 4.59687
410 3.59098
415 3.72482
420 4.289
425 3.40092
430 4.50624
435 3.2531
440 3.47506
445 2.99394
450 3.78223
455 3.42108
460 3.31589
465 5.11344
470 3.90332
475 3.34668
480 2.97924
485 3.44588
490 3.77785
495 3.00269
500 2.9676
505 3.58362
510 3.19851
515 2.70851
520 2.71629
525 3.57378
530 3.15661
535 3.35365
540 2.98089
545 3.11795
550 3.00815
555 4.49698
560 2.83595
565 2.61427
570 2.82058
575 2.85298
580 2.0495
585 2.98278
590 2.82689
595 3.30883
600 2.9885
Ex : 273
200 2.69509
205 2.93587
210 2.82273
215 1.95235
220 2.00902
225 2.02115
230 2.86307
235 2.90054
240 2.52408
245 2.24346
250 2.31976
255 2.04059
260 2.19173
265 2.85163
270 2.43008
275 2.03145
280 2.22429
285 2.48844
290 2.13246
295 2.9599
300 1.98469
305 2.36862
310 2.1406
315 2.13512
320 2.72791
325 2.49088
330 2.4316
335 1.99818
340 2.8735
345 3.08013
350 3.33782
355 3.27616
360 2.76752
365 3.25322
370 2.70402
375 2.58053
380 2.52424
385 2.97616
390 2.98706
395 3.07471
400 2.64964
405 3.51433
410 3.44923
415 3.08232
420 2.87381
425 3.20424
430 3.21933
435 2.93352
440 2.96466
445 2.9399
450 3.15996
455 2.73184
460 2.58262
465 3.309
470 3.2777
475 3.71212
480 3.19213
485 3.11023
490 3.06677
495 2.33913
500 2.49297
505 3.24329
510 2.7011
515 2.80089
520 3.20375
525 2.98852
530 2.81962
535 2.50222
540 2.95009
545 3.29668
550 2.74398
555 2.42694
560 1.60335
565 3.18916
570 2.57672
575 2.22463
580 2.00802
585 2.62016
590 2.74991
595 2.85821
600 5.03321
Ex : 278
200 2.25096
205 2.35213
210 2.0997
215 1.96576
220 2.17991
225 2.09875
230 1.50364
235 1.83429
240 1.91027
245 1.97582
250 1.9538
255 2.2156
260 2.43302
265 2.16365
270 2.06151
275 2.46015
280 1.97776
285 2.1199
290 2.23468
295 1.97985
300 1.85244
305 1.88706
310 2.46871
315 2.13879
320 1.79683
325 1.61828
330 2.26469
335 2.44423
340 2.72407
345 2.29038
350 2.2299
355 3.43704
360 3.20764
365 2.8479
370 2.30726
375 2.3011
380 3.28057
385 2.11634
390 2.79457
395 2.92417
400 2.49383
405 2.61638
410 2.80853
415 2.61791
420 3.09612
425 3.20501
430 2.6521
435 2.79438
440 3.54581
445 2.37515
450 3.02434
455 2.82348
460 2.63555
465 2.55255
470 1.87594
475 2.10555
480 2.20151
485 2.20524
490 2.86643
495 1.80849
500 2.69488
505 2.27119
510 2.40697
515 2.07512
520 2.31145
525 2.23097
530 1.87298
535 2.29812
540 2.00154
545 2.5685
550 3.2456
555 2.53939
560 2.85711
565 2.13397
570 1.69618
575 1.94245
580 2.02884
585 2.07835
590 2.34976
595 2.25615
600 8.51929
Ex : 283
200 1.88311
205 2.07796
210 1.84216
215 1.66245
220 1.52943
225 1.82983
230 1.68734
235 1.77545
240 1.63814
245 1.69545
250 1.93154
255 1.18058
260 1.78989
265 1.70698
270 1.91466
275 1.47386
280 2.35044
285 1.71715
290 1.47851
295 1.32501
300 1.49564
305 1.52255
310 1.60213
315 2.16753
320 1.51688
325 1.41745
330 1.90283
335 1.93613
340 2.15857
345 1.66391
350 1.91539
355 2.80277
360 2.02168
365 2.3438
370 2.68567
375 2.208
380 2.1213
385 2.09494
390 2.34127
395 2.30666
400 2.23228
405 2.13278
410 2.39294
415 2.4654
420 2.08691
425 2.42761
430 2.24772
435 2.22607
440 2.5053
445 2.00775
450 2.7268
455 2.54139
460 2.66969
465 1.95168
470 2.25358
475 1.89185
480 1.78381
485 1.9999
490 2.45469
495 1.80455
500 2.48086
505 2.03422
510 1.77229
515 1.64576
520 1.41674
525 1.86785
530 1.6495
535 1.75685
540 1.81047
545 1.80843
550 1.77679
555 1.8621
560 2.38586
565 2.11931
570 1.69486
575 1.44479
580 1.37318
585 1.76495
590 2.05523
595 1.32962
600 2.58269
Ex : 288
200 1.31959
205 1.57308
210 1.26534
215 1.41906
220 1.45295
225 1.31784
230 1.24841
235 1.58618
240 1.35197
245 1.53388
250 1.14991
255 1.63774
260 1.84577
265 1.35729
270 1.45012
275 1.29584
280 1.35658
285 1.24398
290 1.21538
295 1.16044
300 1.46136
305 1.51775
310 1.23992
315 1.26692
320 1.58023
325 1.19566
330 1.74258
335 1.5004
340 1.72872
345 1.7074
350 1.68665
355 1.63292
360 2.40812
365 1.74404
370 1.85768
375 1.82285
380 1.47378
385 1.80237
390 1.63629
395 2.00058
400 2.37744
405 2.21315
410 2.4033
415 1.9818
420 1.72584
425 1.92867
430 1.66785
435 1.99666
440 2.14395
445 1.96976
450 1.97828
455 2.01965
460 2.14897
465 1.83671
470 2.02276
475 1.66649
480 1.64311
485 1.67623
490 1.48942
495 1.86942
500 1.79169
505 1.68428
510 1.56514
515 1.37841
520 1.4457
525 1.66629
530 1.44079
535 1.45026
540 1.47453
545 1.38062
550 1.26354
555 1.38206
560 1.58682
565 1.88422
570 2.23106
575 1.794
580 1.78244
585 1.32627
590 1.33604
595 1.33169
600 2.43598
Ex : 293
200 1.53259
205 1.35753
210 1.08287
215 0.879167
220 1.226
225 0.956781
230 1.70179
235 1.25776
240 1.37325
245 1.18901
250 1.11171
255 1.08321
260 1.17592
265 0.980437
270 0.713992
275 1.05674
280 1.19543
285 1.00883
290 1.22872
295 1.10403
300 1.23421
305 1.56882
310 1.28928
315 1.16888
320 0.991924
325 1.31597
330 1.54362
335 1.47963
340 1.68186
345 1.91516
350 1.57665
355 1.4854
360 1.4161
365 1.60995
370 1.67041
375 1.51939
380 1.61522
385 2.00851
390 2.00879
395 2.02459
400 2.00073
405 1.88597
410 1.63123
415 1.76828
420 1.66763
425 1.69098
430 1.71533
435 1.80074
440 1.70385
445 2.06814
450 1.91884
455 1.77886
460 2.00375
465 1.38877
470 1.44251
475 1.64102
480 1.64474
485 1.33323
490 1.54145
495 1.56214
500 1.12902
505 1.32481
510 1.4442
515 1.27786
520 1.21563
525 1.33341
530 1.4217
535 1.20158
540 1.47846
545 1.13824
550 1.08628
555 1.2321
560 1.50389
565 1.26337
570 1.51099
575 1.3253
580 1.82466
585 1.5097
590 1.57509
595 1.0886
600 1.89629
Ex : 298
200 1.21764
205 0.977877
210 0.984869
215 1.27123
220 1.31269
225 0.876282
230 0.940781
235 1.13809
240 0.931006
245 1.0627
250 1.24523
255 1.10785
260 0.947455
265 1.21702
270 1.12972
275 1.01548
280 1.053
285 0.888591
290 1.21972
295 1.67834
300 1.11011
305 0.912341
310 0.801769
315 0.924248
320 1.22856
325 1.4956
330 1.92002
335 1.131
340 1.44496
345 1.17219
350 1.28897
355 1.56057
360 1.60506
365 1.62632
370 1.50614
375 1.7602
380 1.64506
385 1.78763
390 1.65595
395 1.81547
400 1.6556
405 1.83591
410 1.75535
415 1.7789
420 1.3246
425 1.42485
430 1.5673
435 1.7433
440 1.71458
445 1.63132
450 1.29518
455 1.74579
460 1.26895
465 1.5209
470 1.46774
475 1.08111
480 1.52286
485 1.56719
490 1.51015
495 1.24775
500 1.18984
505 1.14509
510 1.02335
515 1.03813
520 1.24208
525 1.21266
530 1.06771
535 1.1719
540 1.19096
545 1.07416
550 1.11156
555 0.890373
560 0.953591
565 1.14858
570 1.43091
575 1.12835
580 1.08222
585 1.51648
590 1.40547
595 1.47883
600 3.74366
Ex : 303
200 1.00457
205 0.879303
210 0.879516
215 0.782698
220 0.792146
225 0.738808
230 0.800403
235 0.779164
240 0.757469
245 0.691409
250 0.794862
255 0.764875
260 0.86349
265 0.980369
270 0.788933
275 0.880741
280 0.944318
285 0.881035
290 0.736677
295 1.135
300 1.10348
305 0.858117
310 0.796641
315 0.735653
320 1.10616
325 1.04755
330 1.22878
335 1.404
340 1.45416
345 1.27883
350 1.48531
355 1.47977
360 1.66932
365 1.49901
370 1.28737
375 1.5436
380 1.50842
385 1.76563
390 1.59164
395 1.45105
400 1.40493
405 1.25565
410 1.32199
415 1.57282
420 1.41419
425 1.71179
430 1.61316
435 1.33126
440 1.08233
445 1.54592
450 1.05422
455 1.15047
460 1.45256
465 1.27851
470 1.50826
475 0.971974
480 1.16771
485 1.13606
490 1.0563
495 0.990419
500 1.22195
505 0.921683
510 0.993592
515 1.05125
520 1.16152
525 1.04141
530 1.13036
535 0.916472
540 0.786878
545 0.980772
550 0.833934
555 0.91575
560 0.897045
565 0.706496
570 0.751963
575 1.02298
580 1.02738
585 0.912977
590 1.02577
595 1.12779
600 0.638577
Ex : 308
200 1.02637
205 0.851624
210 0.859817
215 0.793416
220 0.79102
225 0.663766
230 0.732259
235 0.751577
240 0.694048
245 0.75371
250 0.843066
255 0.790695
260 0.812397
265 0.7535
270 0.876083
275 0.748116
280 0.689224
285 0.667839
290 0.726547
295 0.714378
300 0.915416
305 1.15899
310 0.773517
315 0.953979
320 0.891548
325 1.03036
330 1.26832
335 1.46078
340 1.19857
345 1.24864
350 1.26478
355 1.20842
360 1.38996
365 1.66931
370 1.65865
375 1.38454
380 1.55912
385 1.30365
390 1.47849
395 1.50874
400 1.49371
405 1.38648
410 1.35694
415 1.52269
420 1.42638
425 1.52067
430 1.37094
435 1.30153
440 1.37465
445 1.23356
450 1.20126
455 1.24182
460 1.25327
465 1.14503
470 1.10418
475 1.07011
480 1.12677
485 1.14888
490 1.15881
495 1.05876
500 0.972892
505 1.01431
510 1.36463
515 0.914696
520 0.812446
525 0.752192
530 0.846394
535 0.826179
540 0.797831
545 0.771593
550 0.751764
555 0.816521
560 1.09561
565 1.00426
570 0.614503
575 0.837044
580 1.0183
585 0.839052
590 0.836238
595 0.687522
600 0.354457
Ex : 313
200 0.70749
205 0.852223
210 0.761997
215 0.771651
220 0.45628
225 0.659123
230 0.635791
235 0.66788
240 0.591911
245 0.558465
250 0.72008
255 0.695826
260 0.692446
265 0.753443
270 0.675639
275 0.648764
280 0.67241
285 0.66463
290 0.549801
295 0.663236
300 0.675347
305 0.948888
310 1.17475
315 0.785159
320 0.980432
325 1.17492
330 1.36244
335 1.35139
340 1.16564
345 1.38503
350 1.48875
355 1.26913
360 1.68545
365 1.58468
370 1.2352
375 1.29544
380 1.54166
385 1.72593
390 1.77324
395 1.55608
400 1.53899
405 1.80463
410 1.64688
415 1.61547
420 1.77174
425 1.51277
430 1.78271
435 1.55163
440 1.36411
445 1.73915
450 1.52163
455 1.72493
460 1.42043
465 1.2626
470 1.10907
475 1.08051
480 1.14355
485 1.31864
490 1.12903
495 1.07044
500 1.07238
505 0.973252
510 1.01385
515 0.962558
520 0.746764
525 0.692669
530 0.709701
535 0.881251
540 0.840412
545 0.991416
550 0.690276
555 0.765371
560 0.817903
565 0.761255
570 0.739105
575 0.850011
580 0.78559
585 0.821224
590 0.653365
595 0.711868
600 0.320804
Ex : 318
200 0.517275
205 0.576386
210 0.516307
215 0.618612
220 0.583889
225 0.625955
230 0.519171
235 0.630252
240 0.564862
245 0.69725
250 0.712787
255 0.600005
260 0.612411
265 0.56599
270 0.554129
275 0.53876
280 0.407333
285 0.643301
290 0.517741
295 0.658084
300 0.612924
305 0.688783
310 1.1453
315 2.28933
320 2.10008
325 1.65854
330 1.83545
335 1.92768
340 2.06562
345 2.41141
350 3.24531
355 3.61864
360 4.00122
365 4.58028
370 5.47221
375 6.23352
380 6.80584
385 7.87387
390 7.69317
395 8.72406
400 8.73746
405 9.32539
410 9.58715
415 8.96791
420 8.64038
425 8.31284
430 8.14657
435 7.60781
440 7.64236
445 6.9458
450 6.80792
455 6.42375
460 6.2134
465 5.72977
470 5.44342
475 4.84637
480 4.48471
485 4.0281
490 3.88701
495 3.56242
500 2.82544
505 2.75394
510 2.17879
515 2.19422
520 1.70332
525 1.73182
530 1.93173
535 1.32456
540 1.28578
545 1.22488
550 1.19477
555 1.13179
560 0.935129
565 0.823912
570 0.895329
575 0.875065
580 0.785145
585 0.813485
590 0.638113
595 0.982052
600 0.274526
Ex : 323
200 0.53692
205 0.389608
210 0.574194
215 0.575233
220 0.51379
225 0.465504
230 0.723326
235 0.4959
240 0.531551
245 0.637487
250 0.636706
255 0.617297
260 0.546232
265 0.492386
270 0.589168
275 0.621884
280 0.496801
285 0.655528
290 0.567592
295 0.572935
300 0.652984
305 0.606267
310 0.665179
315 17.492
320 78.6876
325 34.5822
330 7.26169
335 4.95047
340 5.78114
345 7.4214
350 9.57666
355 12.8971
360 15.1353
365 17.965
370 20.741
375 24.367
380 27.4385
385 30.4758
390 33.4159
395 35.6974
400 36.6836
405 36.7256
410 37.5761
415 36.7944
420 35.8401
425 35.6326
430 33.6604
435 32.7442
440 31.4221
445 30.6545
450 28.3215
455 26.0608
460 24.1858
465 22.3186
470 20.8349
475 18.6772
480 17.3378
485 15.7559
490 14.7578
495 12.6688
500 11.323
505 9.88271
510 8.73638
515 7.46171
520 6.83506
525 5.58352
530 5.38203
535 4.5797
540 3.95226
545 3.39786
550 3.00207
555 2.80673
560 2.459
565 2.18518
570 1.70036
575 1.60177
580 1.24723
585 1.11549
590 0.881079
595 0.86944
600 1.16977
Ex : 328
200 0.570714
205 0.508761
210 0.548555
215 0.663622
220 0.703178
225 0.534952
230 0.600875
235 0.542772
240 0.539847
245 0.473932
250 0.544502
255 0.730171
260 0.546097
265 0.578095
270 0.571037
275 0.746827
280 0.57355
285 0.616967
290 0.64058
295 0.551808
300 0.725654
305 0.655102
310 0.698716
315 5.27493
320 195.107
325 456.888
330 135.014
335 21.1818
340 9.29472
345 8.8019
350 10.8329
355 14.3289
360 19.694
365 22.959
370 24.7772
375 27.9099
380 30.8389
385 35.1196
390 38.3064
395 39.8498
400 40.7726
405 42.1948
410 43.1496
415 42.4044
420 41.1223
425 39.5475
430 37.7602
435 37.1457
440 35.1493
445 33.3074
450 29.6921
455 29.4501
460 26.5561
465 25.2112
470 23.2438
475 21.208
480 19.2941
485 16.9086
490 15.9268
495 14.1954
500 13.0354
505 11.2927
510 9.99631
515 8.98026
520 7.61589
525 6.67142
530 6.06996
535 5.10439
540 4.5171
545 4.07289
550 3.60215
555 3.25793
560 3.05151
565 2.64894
570 2.2869
575 1.72308
580 1.57418
585 1.38982
590 1.1739
595 0.953305
600 2.26069
Ex : 333
200 0.526778
205 0.522091
210 0.636023
215 0.577061
220 0.416663
225 0.446198
230 0.523044
235 0.645153
240 0.562671
245 0.465682
250 0.543251
255 0.637098
260 0.559936
265 0.647404
270 0.64206
275 0.510464
280 0.61352
285 0.723736
290 0.682585
295 0.714004
300 0.741825
305 0.72832
310 0.825677
315 1.16418
320 28.0298
325 561.957
330 946.175
335 239.714
340 33.5983
345 10.5536
350 8.11744
355 8.82502
360 11.8574
365 16.8023
370 17.4555
375 17.4796
380 18.3452
385 20.5325
390 22.7521
395 23.7275
400 23.9568
405 25.3778
410 25.0882
415 25.5473
420 23.8287
425 22.3454
430 21.8813
435 21.5465
440 19.6152
445 19.0931
450 17.8018
455 16.6151
460 15.4558
465 14.8133
470 13.5829
475 12.5326
480 11.2142
485 10.5107
490 9.11261
495 8.62178
500 7.55915
505 6.90748
510 6.57752
515 5.51948
520 4.82499
525 4.3138
530 3.91063
535 3.38514
540 3.28336
545 2.81678
550 2.61291
555 2.48687
560 2.29729
565 1.9855
570 1.69603
575 1.57658
580 1.42552
585 1.34739
590 1.20501
595 0.980335
600 1.20227
Ex : 338
200 0.42411
205 0.566295
210 0.54442
215 0.581909
220 0.586079
225 0.360144
230 0.50936
235 0.607057
240 0.489225
245 0.505602
250 0.461863
255 0.480448
260 0.433358
265 0.479966
270 0.49787
275 0.534026
280 0.592134
285 0.771133
290 0.563943
295 0.610719
300 0.564394
305 0.752251
310 0.713783
315 0.985396
320 1.42605
325 52.7397
330 834.054
335 1221.01
340 291.718
345 38.3564
350 9.65189
355 6.08777
360 5.64456
365 7.54953
370 11.703
375 12.0262
380 10.606
385 10.7978
390 12.5034
395 13.2438
400 13.6887
405 13.9103
410 14.2132
415 14.9576
420 14.0531
425 13.279
430 12.685
435 11.3456
440 11.47
445 10.8237
450 10.0188
455 9.4857
460 8.99901
465 8.47139
470 7.76319
475 7.62225
480 6.51727
485 6.18429
490 5.65491
495 4.91347
500 4.71577
505 4.583
510 3.84178
515 3.81234
520 3.37366
525 2.93403
530 2.76886
535 2.52218
540 2.46739
545 2.18806
550 2.01857
555 1.83541
560 1.72003
565 1.57376
570 1.34951
575 1.30151
580 1.19192
585 1.20412
590 1.00156
595 0.940402
600 0.236252
Ex : 343
200 0.527483
205 0.507855
210 0.494869
215 0.48408
220 0.563002
225 0.347884
230 0.605094
235 0.568908
240 0.529705
245 0.572732
250 0.5003
255 0.490709
260 0.528871
265 0.611929
270 0.5377
275 0.585103
280 0.651469
285 0.667332
290 0.528276
295 0.585456
300 0.773837
305 0.62086
310 0.76032
315 0.827044
320 1.1242
325 1.7266
330 60.6848
335 942.291
340 1353.05
345 317.009
350 41.2474
355 8.97894
360 4.98465
365 3.68621
370 4.899
375 8.59213
380 10.2443
385 9.40252
390 10.1416
395 9.7382
400 9.44266
405 9.65648
410 10.6148
415 11.4147
420 11.0401
425 9.80453
430 9.53211
435 9.60227
440 9.15687
445 8.76759
450 8.01233
455 7.10482
460 6.78396
465 6.56153
470 6.02709
475 5.74963
480 5.38098
485 5.14652
490 4.65952
495 4.58971
500 3.86999
505 3.3084
510 3.48426
515 3.27611
520 2.98659
525 2.52369
530 2.39881
535 2.12908
540 2.01731
545 1.83106
550 1.74479
555 1.46312
560 1.49277
565 1.49609
570 1.36961
575 1.14471
580 1.02334
585 1.0501
590 1.09436
595 0.850368
600 0.784145
Ex : 348
200 0.525501
205 0.443226
210 0.51514
215 0.473564
220 0.624388
225 0.468146
230 0.458219
235 0.36425
240 0.570367
245 0.475998
250 0.4689
255 0.526415
260 0.560635
265 0.517493
270 0.411664
275 0.448798
280 0.55089
285 0.437519
290 0.589178
295 0.525839
300 0.58958
305 0.602528
310 0.624008
315 0.71506
320 0.85312
325 1.24821
330 2.18836
335 59.6984
340 937.377
345 1393.25
350 346.165
355 43.8073
360 8.74296
365 4.7399
370 3.41779
375 3.59009
380 7.83228
385 11.6484
390 11.9376
395 10.6361
400 10.1834
405 10.5581
410 11.8688
415 12.3282
420 11.8461
425 10.9484
430 10.007
435 9.70884
440 9.88245
445 9.38815
450 8.24832
455 7.98481
460 7.37793
465 6.96936
470 6.3176
475 6.1334
480 5.66955
485 5.18925
490 4.85357
495 4.2663
500 4.00486
505 3.64501
510 3.48464
515 3.09578
520 2.8666
525 2.42766
530 2.35767
535 2.15133
540 1.87588
545 1.79801
550 1.82022
555 1.46657
560 1.56399
565 1.40259
570 1.3279
575 1.10537
580 1.14327
585 1.04862
590 0.814039
595 0.864021
600 1.05882
Ex : 353
200 0.457819
205 0.357225
210 0.403392
215 0.333932
220 0.504578
225 0.352346
230 0.406417
235 0.404836
240 0.469951
245 0.433567
250 0.346518
255 0.316813
260 0.404312
265 0.442996
270 0.467795
275 0.420138
280 0.418955
285 0.50957
290 0.612041
295 0.571115
300 0.5194
305 0.529481
310 0.546315
315 0.624815
320 0.677873
325 0.836422
330 1.20024
335 2.15758
340 61.4049
345 967.022
350 1384.58
355 331.593
360 42.0892
365 8.45525
370 4.23191
375 3.23511
380 3.89757
385 8.07029
390 13.7511
395 13.7094
400 11.768
405 10.4945
410 11.3584
415 13.0368
420 12.9775
425 10.7128
430 10.155
435 9.7685
440 10.0018
445 9.61219
450 8.69695
455 7.89458
460 7.40232
465 6.9354
470 6.90568
475 6.42261
480 5.84722
485 5.46807
490 5.04165
495 4.55317
500 4.3552
505 3.93247
510 3.71186
515 3.27938
520 3.02933
525 2.4518
530 2.37426
535 2.26508
540 1.96304
545 1.94494
550 1.64897
555 1.68021
560 1.4979
565 1.24583
570 1.24267
575 1.12607
580 1.02865
585 1.04617
590 0.899636
595 0.815137
600 1.18082
Ex : 358
200 0.396862
205 0.485265
210 0.411218
215 0.409418
220 0.399652
225 0.36495
230 0.329422
235 0.410862
240 0.337004
245 0.350286
250 0.389889
255 0.38779
260 0.419389
265 0.45748
270 0.421796
275 0.342263
280 0.529473
285 0.422646
290 0.481387
295 0.476399
300 0.511156
305 0.480927
310 0.449426
315 0.484927
320 0.639983
325 0.790309
330 0.989728
335 1.35443
340 2.06935
345 58.8321
350 917.82
355 1379.92
360 335.73
365 41.8969
370 8.12686
375 4.27936
380 4.15513
385 5.46821
390 9.49887
395 14.0072
400 13.2653
405 11.2985
410 11.4736
415 12.2649
420 11.8718
425 10.4235
430 9.85211
435 9.43015
440 9.48949
445 9.55753
450 8.76023
455 7.89689
460 7.26285
465 7.08302
470 6.70732
475 6.23732
480 5.81549
485 5.64569
490 4.76347
495 4.58065
500 4.3388
505 3.94422
510 3.72004
515 3.41996
520 3.18327
525 2.62975
530 2.34117
535 2.2437
540 2.04745
545 1.92311
550 1.85671
555 1.55622
560 1.52139
565 1.33284
570 1.24533
575 1.12076
580 0.871346
585 0.894906
590 0.840176
595 0.803211
600 0.94563
Ex : 363
200 0.444163
205 0.323214
210 0.304765
215 0.485358
220 0.432215
225 0.405302
230 0.460494
235 0.395306
240 0.364469
245 0.389247
250 0.354992
255 0.419816
260 0.458833
265 0.497368
270 0.379404
275 0.410039
280 0.396018
285 0.419274
290 0.423309
295 0.365281
300 0.343117
305 0.393383
310 0.453664
315 0.481269
320 0.436011
325 0.543128
330 0.723821
335 1.03178
340 1.405
345 2.13288
350 53.0056
355 882.499
360 1357.02
365 343.52
370 42.9166
375 8.31756
380 5.5055
385 7.0111
390 8.99369
395 10.4877
400 13.6031
405 14.3308
410 13.6819
415 13.9446
420 12.4276
425 11.0273
430 10.7457
435 10.1955
440 10.2265
445 9.88239
450 9.12455
455 8.49285
460 7.99246
465 7.64899
470 7.15824
475 6.6265
480 5.99654
485 5.7878
490 5.36913
495 4.89773
500 4.59875
505 3.89763
510 3.66591
515 3.29604
520 3.04838
525 2.58873
530 2.52591
535 2.10862
540 2.0138
545 2.01765
550 1.83808
555 1.72128
560 1.56425
565 1.33531
570 1.09976
575 0.998619
580 0.939957
585 0.863645
590 0.757875
595 0.762297
600 0.478225
Ex : 368
200 0.315586
205 0.40396
210 0.343841
215 0.384569
220 0.359043
225 0.352551
230 0.348978
235 0.403855
240 0.369762
245 0.407745
250 0.332442
255 0.336056
260 0.39446
265 0.415261
270 0.40597
275 0.345823
280 0.378436
285 0.315639
290 0.338215
295 0.343645
300 0.387278
305 0.425636
310 0.379209
315 0.384341
320 0.462481
325 0.544559
330 0.618815
335 0.848577
340 0.856456
345 1.33589
350 2.18332
355 42.6893
360 845.998
365 1377.3
370 358.07
375 45.0527
380 9.47781
385 8.25051
390 10.7507
395 11.9404
400 11.7732
405 14.7939
410 18.5111
415 18.4576
420 16.4126
425 13.9423
430 12.7023
435 12.6771
440 12.6845
445 12.4303
450 11.2297
455 9.97156
460 9.114
465 8.52076
470 8.03455
475 7.82387
480 6.97081
485 6.4128
490 5.63888
495 5.30335
500 4.73506
505 4.49412
510 4.08439
515 3.77345
520 3.3866
525 2.80327
530 2.67866
535 2.4236
540 2.18385
545 2.08731
550 1.84699
555 1.5506
560 1.41325
565 1.45895
570 1.32132
575 1.12113
580 0.900793
585 0.858217
590 0.706192
595 0.622097
600 0.675022
Ex : 373
200 0.365995
205 0.422806
210 0.366072
215 0.354982
220 0.431189
225 0.320932
230 0.27308
235 0.341087
240 0.364749
245 0.388743
250 0.359229
255 0.349372
260 0.392978
265 0.355132
270 0.355404
275 0.344037
280 0.380911
285 0.408894
290 0.388792
295 0.414635
300 0.374458
305 0.453034
310 0.408033
315 0.560147
320 0.446934
325 0.353994
330 0.602653
335 0.633361
340 0.936451
345 0.953018
350 1.26845
355 2.09087
360 51.0141
365 855.62
370 1351.65
375 350.685
380 44.6563
385 11.2238
390 11.2437
395 12.6856
400 11.4816
405 11.4824
410 15.1145
415 20.3719
420 18.5451
425 15.1536
430 13.0757
435 12.477
440 12.4368
445 12.2068
450 10.9676
455 9.79752
460 8.64991
465 7.94967
470 7.97701
475 7.46131
480 6.54843
485 6.25014
490 5.90885
495 5.45647
500 4.92672
505 4.0946
510 3.83257
515 3.71444
520 3.47458
525 2.93803
530 2.78605
535 2.4335
540 2.37226
545 1.79252
550 1.80314
555 1.74143
560 1.44774
565 1.37179
570 1.08406
575 0.980872
580 0.884203
585 0.718282
590 0.638149
595 0.511495
600 0.288242
Ex : 378
200 0.361985
205 0.442283
210 0.403544
215 0.413507
220 0.293704
225 0.342883
230 0.30008
235 0.355577
240 0.45189
245 0.417411
250 0.32588
255 0.309815
260 0.356983
265 0.403943
270 0.371913
275 0.361775
280 0.276652
285 0.287317
290 0.26514
295 0.37426
300 0.391509
305 0.296179
310 0.435465
315 0.349835
320 0.333343
325 0.326074
330 0.522714
335 0.605282
340 0.669001
345 0.724816
350 1.01518
355 1.38437
360 2.00723
365 47.0939
370 852.429
375 1369.1
380 357.082
385 47.298
390 13.3184
395 10.3766
400 9.30455
405 8.37237
410 10.0692
415 13.4771
420 16.0055
425 13.7764
430 11.4654
435 10.4353
440 9.93316
445 9.60322
450 9.06546
455 7.93144
460 7.51616
465 7.11851
470 6.81331
475 6.4654
480 6.19674
485 5.71301
490 5.31084
495 5.15489
500 4.33413
505 4.07386
510 3.75632
515 3.4456
520 3.07675
525 2.78252
530 2.504
535 2.51859
540 2.09652
545 1.87521
550 1.78577
555 1.57361
560 1.39473
565 1.23025
570 1.16872
575 0.86139
580 0.872995
585 0.733364
590 0.674775
595 0.664282
600 0.268088
Ex : 383
200 0.370629
205 0.326207
210 0.303412
215 0.241779
220 0.307053
225 0.329702
230 0.298571
235 0.309934
240 0.241984
245 0.230735
250 0.338825
255 0.322564
260 0.269053
265 0.377274
270 0.387792
275 0.313934
280 0.387735
285 0.347547
290 0.336582
295 0.320588
300 0.387068
305 0.376425
310 0.332998
315 0.3579
320 0.307026
325 0.412059
330 0.451396
335 0.479324
340 0.530987
345 0.596052
350 0.767797
355 0.905043
360 1.20459
365 1.98482
370 43.911
375 835.293
380 1402.19
385 374.157
390 51.3518
395 13.96
400 9.33551
405 9.53141
410 10.7725
415 11.7111
420 11.5534
425 13.0194
430 12.492
435 11.3756
440 11.0193
445 9.65193
450 8.86976
455 8.08221
460 7.50165
465 7.11096
470 7.18969
475 6.76597
480 6.18923
485 5.52746
490 5.26749
495 5.11067
500 4.55247
505 4.15431
510 3.83629
515 3.54529
520 3.11737
525 2.87519
530 2.71425
535 2.33827
540 2.06823
545 2.02911
550 1.68411
555 1.54602
560 1.31139
565 1.24009
570 1.11317
575 0.945947
580 0.891939
585 0.699425
590 0.621289
595 0.570706
600 0.210337
Ex : 388
200 0.290403
205 0.298619
210 0.295281
215 0.305942
220 0.248248
225 0.352659
230 0.270555
235 0.23484
240 0.282122
245 0.316564
250 0.318778
255 0.263265
260 0.255002
265 0.319107
270 0.340462
275 0.274534
280 0.293577
285 0.299253
290 0.272789
295 0.352707
300 0.316017
305 0.378183
310 0.341318
315 0.306554
320 0.334182
325 0.382287
330 0.421761
335 0.444993
340 0.584458
345 0.587824
350 0.646094
355 0.719372
360 0.934464
365 1.13184
370 1.99085
375 47.2323
380 855.496
385 1398.19
390 374.174
395 53.2273
400 14.7885
405 11.58
410 12.7034
415 14.0109
420 13.1698
425 11.6421
430 12.9929
435 14.4302
440 12.8806
445 11.9295
450 10.2954
455 9.20331
460 8.30051
465 7.87157
470 7.3822
475 6.95362
480 6.53789
485 5.79108
490 5.27574
495 5.04795
500 4.49053
505 4.27961
510 3.9135
515 3.58587
520 3.28178
525 2.80404
530 2.6032
535 2.29634
540 2.15595
545 1.99577
550 1.79016
555 1.67633
560 1.37493
565 1.28094
570 1.15691
575 0.886794
580 0.827527
585 0.726851
590 0.688472
595 0.493978
600 0.362719
Ex : 393
200 0.253462
205 0.308377
210 0.291555
215 0.303047
220 0.272726
225 0.23269
230 0.231928
235 0.279213
240 0.316976
245 0.316178
250 0.275376
255 0.286046
260 0.286597
265 0.304594
270 0.285143
275 0.314878
280 0.284217
285 0.285501
290 0.313657
295 0.269827
300 0.297022
305 0.329759
310 0.315617
315 0.373103
320 0.410879
325 0.355405
330 0.40324
335 0.428873
340 0.37088
345 0.468478
350 0.530002
355 0.626473
360 0.718682
365 0.905164
370 1.2588
375 1.98626
380 40.6425
385 839.037
390 1416.05
395 385.456
400 54.5975
405 14.6797
410 12.2785
415 14.2816
420 13.8415
425 11.8952
430 10.5375
435 11.2331
440 13.9532
445 12.0158
450 10.4715
455 8.81989
460 7.8739
465 7.28007
470 6.89293
475 6.47699
480 6.30738
485 5.63092
490 5.24313
495 4.6879
500 4.34056
505 4.06927
510 3.86954
515 3.39296
520 2.92213
525 2.72224
530 2.55868
535 2.18921
540 2.08493
545 1.83885
550 1.54361
555 1.51005
560 1.44769
565 1.37452
570 1.04843
575 0.962206
580 0.792434
585 0.693397
590 0.69165
595 0.534239
600 0.880533
Ex : 398
200 0.303091
205 0.293958
210 0.28981
215 0.322776
220 0.25695
225 0.292624
230 0.295961
235 0.242951
240 0.208864
245 0.305758
250 0.295316
255 0.208066
260 0.283835
265 0.262695
270 0.259353
275 0.256255
280 0.287784
285 0.265805
290 0.293381
295 0.275424
300 0.268973
305 0.267805
310 0.282375
315 0.30102
320 0.279311
325 0.389065
330 0.331131
335 0.381728
340 0.346806
345 0.434568
350 0.601686
355 0.579117
360 0.572745
365 0.643936
370 0.844063
375 1.12424
380 2.03303
385 43.8307
390 855.684
395 1434.14
400 383.385
405 50.4061
410 12.3823
415 10.0341
420 9.71664
425 7.93668
430 6.85616
435 6.44723
440 7.65973
445 10.2352
450 9.63346
455 7.57083
460 6.31045
465 5.93672
470 5.50928
475 5.49398
480 4.89396
485 4.68882
490 4.43274
495 3.98542
500 4.0012
505 3.62856
510 3.3387
515 3.07537
520 2.76046
525 2.67576
530 2.25142
535 2.04491
540 1.84474
545 1.69607
550 1.69556
555 1.45966
560 1.37762
565 1.31315
570 1.01948
575 0.903861
580 0.762562
585 0.655519
590 0.616367
595 0.475906
600 0.401452
Ex : 403
200 0.209167
205 0.241566
210 0.260009
215 0.224789
220 0.28014
225 0.240118
230 0.245018
235 0.27733
240 0.201074
245 0.281814
250 0.280859
255 0.303187
260 0.312238
265 0.281336
270 0.210497
275 0.268581
280 0.265366
285 0.231157
290 0.324954
295 0.33202
300 0.272213
305 0.304247
310 0.306379
315 0.301409
320 0.326285
325 0.347853
330 0.392327
335 0.363771
340 0.426159
345 0.484999
350 0.487114
355 0.533566
360 0.54243
365 0.604975
370 0.79447
375 0.913995
380 1.29741
385 2.09613
390 47.6826
395 871.822
400 1417.86
405 378.164
410 48.3336
415 10.6761
420 6.26808
425 5.57975
430 4.79381
435 4.57507
440 4.80816
445 5.60353
450 7.30661
455 7.64941
460 6.07826
465 5.59421
470 4.96488
475 4.63954
480 4.34043
485 4.08059
490 4.06978
495 3.80034
500 3.61285
505 3.44757
510 3.09407
515 2.68335
520 2.65423
525 2.31542
530 2.343
535 2.14906
540 1.92657
545 1.66685
550 1.53067
555 1.3905
560 1.27624
565 1.07501
570 1.02671
575 0.895477
580 0.717562
585 0.661297
590 0.622337
595 0.477985
600 0.337798
Ex : 408
200 0.335324
205 0.257419
210 0.252358
215 0.271928
220 0.256351
225 0.262719
230 0.268993
235 0.257642
240 0.265673
245 0.275865
250 0.21234
255 0.362022
260 0.355304
265 0.287521
270 0.251947
275 0.307416
280 0.278029
285 0.306442
290 0.328312
295 0.308499
300 0.296445
305 0.26553
310 0.299884
315 0.238076
320 0.329788
325 0.274622
330 0.379919
335 0.389809
340 0.400782
345 0.416478
350 0.391251
355 0.397751
360 0.545989
365 0.565083
370 0.610999
375 0.702491
380 0.873171
385 1.24744
390 2.17836
395 45.1703
400 881.972
405 1429.23
410 370.004
415 47.5887
420 9.86457
425 5.22409
430 4.87015
435 4.63487
440 4.60318
445 4.67193
450 4.88974
455 6.0939
460 7.47036
465 6.22124
470 5.09806
475 5.04077
480 4.70413
485 4.30848
490 3.84411
495 3.74435
500 3.57709
505 3.25268
510 3.02064
515 2.83184
520 2.70444
525 2.5896
530 2.17957
535 1.94654
540 1.80404
545 1.67318
550 1.571
555 1.3672
560 1.2985
565 1.12887
570 1.02321
575 0.913403
580 0.806672
585 0.618126
590 0.56162
595 0.452739
600 0.32305
Ex : 413
200 0.207036
205 0.25312
210 0.256836
215 0.257164
220 0.322607
225 0.254435
230 0.277526
235 0.27245
240 0.292474
245 0.24355
250 0.257229
255 0.327178
260 0.228811
265 0.225989
270 0.255411
275 0.257129
280 0.297488
285 0.222299
290 0.271437
295 0.290755
300 0.247629
305 0.253403
310 0.234394
315 0.286453
320 0.272038
325 0.363433
330 0.364037
335 0.449886
340 0.392544
345 0.327107
350 0.432808
355 0.421889
360 0.43819
365 0.545569
370 0.60278
375 0.628576
380 0.768337
385 0.847891
390 1.43294
395 1.98787
400 52.1627
405 901.311
410 1420.69
415 360.819
420 46.1115
425 9.11741
430 4.60167
435 4.55784
440 4.54574
445 4.20645
450 4.04254
455 4.0078
460 5.20508
465 6.82258
470 6.2583
475 5.09598
480 4.61346
485 3.91661
490 3.70871
495 3.51423
500 3.44264
505 3.08711
510 2.71778
515 2.57843
520 2.63313
525 2.20039
530 2.15571
535 2.01519
540 1.77882
545 1.59699
550 1.49139
555 1.42582
560 1.32049
565 1.158
570 0.927545
575 0.832428
580 0.689033
585 0.611075
590 0.571488
595 0.51004
600 0.64688
Ex : 418
200 0.193511
205 0.247104
210 0.230077
215 0.182262
220 0.267157
225 0.241213
230 0.242039
235 0.246676
240 0.255115
245 0.281051
250 0.309837
255 0.308297
260 0.303526
265 0.240172
270 0.27208
275 0.222312
280 0.216794
285 0.23744
290 0.330114
295 0.328812
300 0.281122
305 0.220738
310 0.28791
315 0.324207
320 0.274451
325 0.361987
330 0.347259
335 0.362165
340 0.343985
345 0.362439
350 0.374041
355 0.429904
360 0.43094
365 0.413625
370 0.528839
375 0.658715
380 0.595703
385 0.721788
390 0.97298
395 1.25984
400 1.91199
405 47.7445
410 884.839
415 1420.24
420 369.636
425 45.9434
430 8.34462
435 3.85131
440 3.56578
445 3.67237
450 3.15803
455 2.8814
460 3.07635
465 3.81006
470 5.70425
475 5.61029
480 4.58759
485 3.92169
490 3.56167
495 3.07913
500 2.67478
505 2.72754
510 2.55135
515 2.51148
520 2.28356
525 2.04487
530 2.06816
535 1.79885
540 1.61122
545 1.71731
550 1.51985
555 1.51654
560 1.26483
565 1.076
570 0.971236
575 0.831655
580 0.746799
585 0.618168
590 0.654296
595 0.571096
600 0.425926
Ex : 423
200 0.254706
205 0.223914
210 0.246197
215 0.293035
220 0.283546
225 0.259561
230 0.263664
235 0.282649
240 0.259974
245 0.283491
250 0.233965
255 0.276821
260 0.257699
265 0.269944
270 0.244844
275 0.30703
280 0.301447
285 0.342263
290 0.325219
295 0.299202
300 0.201631
305 0.226949
310 0.269583
315 0.272952
320 0.276909
325 0.30079
330 0.283992
335 0.296642
340 0.335726
345 0.326133
350 0.328899
355 0.395299
360 0.351754
365 0.411646
370 0.396011
375 0.490776
380 0.521836
385 0.611796
390 0.757146
395 0.980763
400 1.35901
405 1.91953
410 48.3924
415 910.934
420 1409.98
425 351.337
430 43.2872
435 7.50423
440 3.21127
445 2.86429
450 2.75122
455 2.36499
460 2.26957
465 2.41123
470 2.82799
475 4.58622
480 5.36696
485 4.05916
490 3.36912
495 2.93659
500 2.69332
505 2.40889
510 2.35054
515 2.23823
520 2.06238
525 2.07065
530 1.78057
535 1.82791
540 1.67034
545 1.50936
550 1.36991
555 1.21809
560 1.27944
565 1.15219
570 1.03896
575 0.874411
580 0.719515
585 0.690851
590 0.520917
595 0.488989
600 0.514728
Ex : 428
200 0.190518
205 0.282986
210 0.250534
215 0.312153
220 0.244884
225 0.24306
230 0.249764
235 0.275232
240 0.194405
245 0.233093
250 0.297327
255 0.275071
260 0.276481
265 0.266083
270 0.265808
275 0.256246
280 0.265667
285 0.240448
290 0.2664
295 0.356498
300 0.253542
305 0.305312
310 0.266094
315 0.228205
320 0.267308
325 0.382289
330 0.291875
335 0.32507
340 0.317138
345 0.323828
350 0.32241
355 0.432359
360 0.412838
365 0.40789
370 0.462171
375 0.428526
380 0.547303
385 0.496643
390 0.61311
395 0.647928
400 0.889216
405 1.34785
410 2.04457
415 52.1431
420 904.009
425 1412.59
430 365.09
435 44.6596
440 7.42255
445 2.85583
450 2.59185
455 2.45211
460 2.22354
465 2.25388
470 2.18612
475 2.34256
480 3.75552
485 4.77349
490 3.85076
495 3.16317
500 2.85835
505 2.39249
510 2.28302
515 2.15712
520 2.16197
525 1.88967
530 1.83991
535 1.74197
540 1.60383
545 1.54547
550 1.31797
555 1.31017
560 1.15687
565 0.952884
570 0.924275
575 0.765265
580 0.689348
585 0.584919
590 0.590458
595 0.482123
600 0.789656
Ex : 433
200 0.332928
205 0.304008
210 0.267274
215 0.281054
220 0.32536
225 0.311597
230 0.246557
235 0.263385
240 0.266671
245 0.24417
250 0.288846
255 0.270167
260 0.29328
265 0.258274
270 0.291368
275 0.269858
280 0.234601
285 0.258073
290 0.292054
295 0.319447
300 0.362067
305 0.238442
310 0.292176
315 0.291372
320 0.275079
325 0.336965
330 0.301274
335 0.332004
340 0.291126
345 0.390145
350 0.369758
355 0.434346
360 0.372854
365 0.396549
370 0.385262
375 0.386865
380 0.461623
385 0.622844
390 0.554839
395 0.607994
400 0.705245
405 0.890444
410 1.35018
415 2.06083
420 57.5649
425 966.402
430 1418.53
435 348.707
440 42.679
445 7.2123
450 2.91819
455 2.42266
460 2.32665
465 2.06278
470 1.98803
475 2.19695
480 2.12242
485 2.86726
490 4.83215
495 4.20908
500 3.15687
505 2.6994
510 2.43953
515 2.13991
520 1.98258
525 1.9939
530 1.76468
535 1.57319
540 1.62461
545 1.4766
550 1.30536
555 1.24239
560 1.18178
565 0.995426
570 0.999913
575 0.889404
580 0.674279
585 0.649636
590 0.565787
595 0.478592
600 0.310677
Ex : 438
200 0.280692
205 0.239079
210 0.28994
215 0.250069
220 0.280726
225 0.26575
230 0.304005
235 0.258916
240 0.255445
245 0.258062
250 0.294802
255 0.268403
260 0.283703
265 0.279876
270 0.286358
275 0.307655
280 0.318258
285 0.31593
290 0.25464
295 0.251322
300 0.272189
305 0.214082
310 0.247487
315 0.336468
320 0.281821
325 0.179939
330 0.329519
335 0.337975
340 0.347742
345 0.319713
350 0.322677
355 0.338267
360 0.368709
365 0.379333
370 0.37327
375 0.397463
380 0.423332
385 0.491816
390 0.491754
395 0.602223
400 0.662728
405 0.679525
410 1.01517
415 1.31916
420 2.05122
425 55.7733
430 951.733
435 1494.25
440 368.195
445 45.1094
450 7.44882
455 2.8591
460 2.36918
465 2.35802
470 2.11822
475 1.92325
480 1.83382
485 1.97375
490 2.38339
495 4.09897
500 4.29572
505 2.90441
510 2.75982
515 2.43877
520 1.99483
525 1.82897
530 1.66658
535 1.61391
540 1.43826
545 1.50661
550 1.43983
555 1.14994
560 1.18997
565 1.10575
570 0.933521
575 0.844301
580 0.720842
585 0.622055
590 0.548999
595 0.466419
600 0.420821
Ex : 443
200 0.253774
205 0.284912
210 0.26542
215 0.323769
220 0.287978
225 0.268712
230 0.367426
235 0.264983
240 0.300532
245 0.331343
250 0.274863
255 0.342716
260 0.298459
265 0.317848
270 0.238013
275 0.357009
280 0.238135
285 0.351876
290 0.285701
295 0.265895
300 0.266559
305 0.35124
310 0.254417
315 0.284572
320 0.295914
325 0.242137
330 0.333033
335 0.327116
340 0.265248
345 0.350543
350 0.323112
355 0.354235
360 0.359097
365 0.395999
370 0.446163
375 0.401351
380 0.484512
385 0.495939
390 0.505793
395 0.578302
400 0.530091
405 0.64479
410 0.768652
415 1.02021
420 1.25399
425 1.97003
430 61.4124
435 1004.57
440 1501.21
445 365.482
450 44.6264
455 7.5442
460 2.88927
465 2.41558
470 2.35492
475 2.26508
480 1.91469
485 1.8188
490 1.98272
495 2.08884
500 3.44249
505 4.18144
510 3.08905
515 2.53346
520 2.49713
525 2.05105
530 1.81164
535 1.67419
540 1.54556
545 1.43836
550 1.32691
555 1.18077
560 1.19231
565 1.05932
570 0.901785
575 0.759389
580 0.727135
585 0.65238
590 0.570762
595 0.510337
600 0.299218
Ex : 448
200 0.223024
205 0.274222
210 0.273745
215 0.324578
220 0.237152
225 0.291458
230 0.288659
235 0.321054
240 0.317114
245 0.256547
250 0.293817
255 0.260621
260 0.334092
265 0.279064
270 0.290326
275 0.329287
280 0.333698
285 0.251584
290 0.303342
295 0.303246
300 0.243451
305 0.339993
310 0.307929
315 0.249819
320 0.257215
325 0.256864
330 0.268828
335 0.338224
340 0.301483
345 0.332482
350 0.411876
355 0.317959
360 0.329046
365 0.378633
370 0.398946
375 0.403291
380 0.393901
385 0.450071
390 0.421939
395 0.472258
400 0.465884
405 0.601015
410 0.624742
415 0.795738
420 1.00142
425 1.27713
430 2.06275
435 62.3977
440 1054.56
445 1564.02
450 382.008
455 46.6322
460 7.76722
465 3.09038
470 2.65414
475 2.35847
480 2.07863
485 1.95401
490 1.74568
495 1.68876
500 1.89131
505 2.85831
510 4.16103
515 3.34737
520 2.38527
525 2.09422
530 1.87621
535 1.69426
540 1.53777
545 1.43392
550 1.31391
555 1.22221
560 1.08018
565 1.07052
570 0.86921
575 0.829976
580 0.709654
585 0.609836
590 0.60236
595 0.450522
600 0.429341
Ex : 453
200 0.318098
205 0.247274
210 0.213054
215 0.235255
220 0.285105
225 0.232264
230 0.265752
235 0.329969
240 0.334753
245 0.25973
250 0.256707
255 0.33707
260 0.230799
265 0.284437
270 0.311316
275 0.2424
280 0.29851
285 0.281643
290 0.232464
295 0.247204
300 0.280559
305 0.295272
310 0.226757
315 0.271972
320 0.238946
325 0.284324
330 0.280113
335 0.324667
340 0.322185
345 0.332746
350 0.388684
355 0.358575
360 0.36586
365 0.330247
370 0.352219
375 0.357761
380 0.414593
385 0.385953
390 0.405535
395 0.42593
400 0.48962
405 0.504248
410 0.575195
415 0.627852
420 0.761988
425 0.872961
430 1.28722
435 2.00273
440 64.9883
445 1129.95
450 1613.78
455 370.949
460 45.2622
465 7.58552
470 2.81008
475 2.20256
480 2.39562
485 2.11459
490 1.72483
495 1.70222
500 1.75356
505 1.72895
510 2.20335
515 3.53009
520 3.55102
525 2.59245
530 2.05153
535 1.83308
540 1.59012
545 1.40683
550 1.32691
555 1.20822
560 1.07397
565 1.09441
570 0.917329
575 0.79733
580 0.772613
585 0.67911
590 0.592394
595 0.580308
600 0.329039
Ex : 458
200 0.236019
205 0.214081
210 0.225507
215 0.269339
220 0.22164
225 0.263322
230 0.262398
235 0.290321
240 0.263849
245 0.36896
250 0.281364
255 0.285534
260 0.31818
265 0.267779
270 0.222155
275 0.275971
280 0.251196
285 0.314551
290 0.263941
295 0.342533
300 0.298912
305 0.279442
310 0.332996
315 0.258424
320 0.284878
325 0.308033
330 0.321527
335 0.352604
340 0.327109
345 0.358302
350 0.352042
355 0.277026
360 0.33307
365 0.339126
370 0.359863
375 0.334002
380 0.382228
385 0.421443
390 0.408939
395 0.413908
400 0.473259
405 0.536637
410 0.497939
415 0.618241
420 0.672191
425 0.795407
430 1.05119
435 1.39363
440 2.19901
445 70.6169
450 1158.67
455 1683.41
460 400.72
465 49.073
470 8.04937
475 3.11333
480 2.2206
485 2.33375
490 2.0789
495 1.64982
500 1.64643
505 1.73637
510 1.60587
515 1.82351
520 2.88314
525 3.69459
530 2.60707
535 2.05747
540 1.92588
545 1.57783
550 1.49746
555 1.23717
560 1.26865
565 1.19358
570 0.969098
575 0.896956
580 0.738476
585 0.611606
590 0.555901
595 0.538116
600 0.804214
Ex : 463
200 0.238438
205 0.216544
210 0.217058
215 0.277653
220 0.324167
225 0.273694
230 0.239323
235 0.235455
240 0.268244
245 0.212871
250 0.293759
255 0.212972
260 0.225463
265 0.272345
270 0.261742
275 0.256419
280 0.312682
285 0.232412
290 0.314895
295 0.289329
300 0.234956
305 0.291829
310 0.239794
315 0.265953
320 0.317841
325 0.307789
330 0.333777
335 0.315247
340 0.251354
345 0.362389
350 0.321688
355 0.342035
360 0.369979
365 0.286609
370 0.379335
375 0.373785
380 0.409153
385 0.386956
390 0.424103
395 0.479684
400 0.441667
405 0.450976
410 0.465444
415 0.544791
420 0.596531
425 0.613126
430 0.784057
435 0.956218
440 1.34365
445 2.13538
450 69.9231
455 1199.01
460 1796.93
465 426.557
470 51.7188
475 8.29262
480 2.77294
485 2.07718
490 2.1357
495 2.01411
500 1.77572
505 1.53454
510 1.56074
515 1.64799
520 1.75643
525 2.36546
530 3.53678
535 2.91406
540 2.00894
545 1.84658
550 1.65863
555 1.44678
560 1.18555
565 1.10624
570 1.01877
575 0.926713
580 0.685105
585 0.732698
590 0.647866
595 0.617307
600 0.718825
Ex : 468
200 0.234817
205 0.246614
210 0.29948
215 0.215366
220 0.236964
225 0.276736
230 0.259218
235 0.231653
240 0.274252
245 0.210204
250 0.325126
255 0.233361
260 0.227251
265 0.247907
270 0.274509
275 0.244733
280 0.259119
285 0.220066
290 0.199134
295 0.298094
300 0.222159
305 0.279419
310 0.374143
315 0.385835
320 0.232146
325 0.228333
330 0.26796
335 0.275663
340 0.300818
345 0.329332
350 0.253995
355 0.339404
360 0.34165
365 0.291405
370 0.310212
375 0.291363
380 0.362159
385 0.36373
390 0.317401
395 0.46646
400 0.408116
405 0.408776
410 0.425582
415 0.375275
420 0.504297
425 0.491268
430 0.618172
435 0.759363
440 0.857378
445 1.34025
450 2.11191
455 76.7798
460 1216.99
465 1887.08
470 445.024
475 53.6573
480 8.25324
485 2.79521
490 1.88464
495 2.07978
500 2.02238
505 1.62508
510 1.53104
515 1.59379
520 1.63477
525 1.60766
530 2.00589
535 3.07167
540 3.00157
545 1.93367
550 1.74277
555 1.70184
560 1.42973
565 1.05867
570 0.956007
575 0.840845
580 0.808373
585 0.721809
590 0.600702
595 0.510982
600 0.203345
Ex : 473
200 0.223413
205 0.27466
210 0.283405
215 0.313774
220 0.24623
225 0.234323
230 0.239161
235 0.266732
240 0.334376
245 0.263724
250 0.2226
255 0.202802
260 0.269519
265 0.257074
270 0.281873
275 0.231741
280 0.256456
285 0.311651
290 0.323414
295 0.242597
300 0.249508
305 0.282689
310 0.256925
315 0.234152
320 0.23321
325 0.268254
330 0.280252
335 0.348611
340 0.316362
345 0.311707
350 0.329509
355 0.353688
360 0.352552
365 0.341698
370 0.347768
375 0.298755
380 0.387649
385 0.372715
390 0.354858
395 0.401073
400 0.447139
405 0.418726
410 0.398322
415 0.46274
420 0.511094
425 0.505338
430 0.532411
435 0.646243
440 0.794462
445 0.954934
450 1.4523
455 2.19677
460 87.8113
465 1331.31
470 1843.71
475 418.053
480 50.591
485 8.0905
490 2.71321
495 1.84312
500 1.83157
505 1.84056
510 1.78873
515 1.58797
520 1.51582
525 1.71369
530 1.65361
535 1.73246
540 2.61545
545 3.0987
550 2.31545
555 1.66841
560 1.59078
565 1.33983
570 1.02044
575 0.885946
580 0.727474
585 0.707737
590 0.587708
595 0.520193
600 0.609436
Ex : 478
200 0.288931
205 0.278623
210 0.322592
215 0.265906
220 0.294545
225 0.290167
230 0.29097
235 0.249679
240 0.264413
245 0.297909
250 0.295476
255 0.366911
260 0.289723
265 0.296672
270 0.272452
275 0.292782
280 0.315516
285 0.361078
290 0.353518
295 0.304599
300 0.268865
305 0.341925
310 0.336374
315 0.330175
320 0.330237
325 0.455931
330 0.38284
335 0.340319
340 0.38356
345 0.334052
350 0.356351
355 0.38735
360 0.391772
365 0.383464
370 0.44768
375 0.371496
380 0.354803
385 0.419792
390 0.412086
395 0.425732
400 0.408518
405 0.466017
410 0.500713
415 0.474991
420 0.472767
425 0.57234
430 0.554999
435 0.743117
440 0.770547
445 0.947398
450 1.00683
455 1.45238
460 2.76479
465 95.866
470 1375.26
475 1862.17
480 443.045
485 53.6057
490 8.39642
495 2.77182
500 1.8849
505 1.94744
510 1.96386
515 1.83244
520 1.57955
525 1.64466
530 1.66048
535 1.79569
540 1.55148
545 1.9617
550 2.92995
555 2.46055
560 1.58884
565 1.49011
570 1.26989
575 1.15175
580 0.863479
585 0.652825
590 0.706806
595 0.597938
600 1.4685
Ex : 483
200 0.295002
205 0.290666
210 0.297476
215 0.305749
220 0.286384
225 0.298558
230 0.332019
235 0.295864
240 0.362794
245 0.347129
250 0.262569
255 0.29331
260 0.271011
265 0.324623
270 0.294704
275 0.268634
280 0.289827
285 0.279691
290 0.313026
295 0.286396
300 0.323815
305 0.361388
310 0.306239
315 0.332996
320 0.326457
325 0.346407
330 0.299509
335 0.312683
340 0.289598
345 0.341953
350 0.253636
355 0.287103
360 0.373854
365 0.371671
370 0.365855
375 0.378283
380 0.369235
385 0.455889
390 0.455789
395 0.424426
400 0.52523
405 0.446014
410 0.438084
415 0.400093
420 0.461731
425 0.556928
430 0.489585
435 0.610922
440 0.636783
445 0.727678
450 0.895925
455 1.08816
460 1.64752
465 2.8607
470 76.4756
475 1356.2
480 2001.35
485 469.351
490 56.5084
495 8.59022
500 2.71437
505 1.85323
510 1.7592
515 1.80984
520 1.78427
525 1.71117
530 1.66843
535 1.52124
540 1.51227
545 1.51798
550 1.58247
555 2.48608
560 2.62696
565 1.83317
570 1.42853
575 1.29667
580 0.998511
585 0.852886
590 0.71622
595 0.722657
600 0.366399
Ex : 488
200 0.308907
205 0.381067
210 0.274785
215 0.351478
220 0.347426
225 0.372696
230 0.329815
235 0.308413
240 0.308065
245 0.270933
250 0.29451
255 0.367987
260 0.347516
265 0.375253
270 0.316013
275 0.353902
280 0.37846
285 0.324667
290 0.289928
295 0.260495
300 0.313033
305 0.30932
310 0.312262
315 0.349412
320 0.315748
325 0.294496
330 0.377975
335 0.48041
340 0.346844
345 0.379784
350 0.344804
355 0.394961
360 0.346841
365 0.417793
370 0.433642
375 0.396442
380 0.366626
385 0.373419
390 0.424556
395 0.421159
400 0.424677
405 0.558171
410 0.491055
415 0.464858
420 0.490301
425 0.47397
430 0.476635
435 0.509967
440 0.710112
445 0.687847
450 0.779189
455 0.954049
460 1.33589
465 2.01278
470 2.76539
475 91.7305
480 1446.42
485 1975.67
490 458.683
495 55.1349
500 8.39739
505 2.88187
510 1.93852
515 1.83258
520 1.94469
525 1.82658
530 1.90676
535 1.68338
540 1.65498
545 1.48432
550 1.3694
555 1.48067
560 2.25139
565 2.57952
570 1.72354
575 1.27422
580 1.09321
585 1.03998
590 0.845388
595 0.647848
600 0.201849
Ex : 493
200 0.317469
205 0.385904
210 0.353166
215 0.340924
220 0.299584
225 0.372664
230 0.312382
235 0.330836
240 0.316787
245 0.31977
250 0.282796
255 0.271556
260 0.312286
265 0.317557
270 0.320352
275 0.352781
280 0.276223
285 0.296107
290 0.35123
295 0.30108
300 0.303501
305 0.32912
310 0.295703
315 0.294856
320 0.301527
325 0.40693
330 0.316985
335 0.318577
340 0.324524
345 0.298687
350 0.327272
355 0.344367
360 0.426902
365 0.420887
370 0.365296
375 0.38634
380 0.40777
385 0.391862
390 0.581632
395 0.447166
400 0.423059
405 0.476877
410 0.3624
415 0.434816
420 0.529991
425 0.545399
430 0.510499
435 0.624057
440 0.634932
445 0.630748
450 0.637643
455 0.830023
460 1.15046
465 1.36704
470 1.76819
475 2.75295
480 85.2351
485 1433.24
490 2067.54
495 469.486
500 56.461
505 8.66078
510 2.86486
515 1.8535
520 1.74958
525 2.04955
530 2.00786
535 1.80022
540 1.51531
545 1.44797
550 1.45638
555 1.27584
560 1.19387
565 1.47285
570 2.26149
575 1.98767
580 1.17059
585 0.926877
590 0.890425
595 0.736516
600 0.828224
Ex : 498
200 0.345689
205 0.355407
210 0.305291
215 0.324062
220 0.335053
225 0.420037
230 0.413944
235 0.345296
240 0.437561
245 0.403159
250 0.361169
255 0.307724
260 0.311927
265 0.297774
270 0.407691
275 0.332278
280 0.331425
285 0.361293
290 0.42589
295 0.461277
300 0.397163
305 0.419741
310 0.387186
315 0.32964
320 0.36646
325 0.346925
330 0.434497
335 0.39985
340 0.387455
345 0.395146
350 0.338097
355 0.363529
360 0.390273
365 0.442522
370 0.425768
375 0.408799
380 0.342173
385 0.486603
390 0.477658
395 0.559669
400 0.512081
405 0.40418
410 0.4597
415 0.467741
420 0.554587
425 0.580157
430 0.530775
435 0.636198
440 0.674474
445 0.69303
450 0.624496
455 0.814187
460 1.00268
465 1.08318
470 1.31857
475 1.88228
480 2.94792
485 103.618
490 1515.01
495 2008.72
500 457.495
505 55.3644
510 8.47246
515 3.0028
520 2.13568
525 1.97468
530 2.02391
535 1.88691
540 1.82717
545 1.68625
550 1.41499
555 1.34748
560 1.35682
565 1.16687
570 1.33315
575 1.6924
580 1.70952
585 1.18032
590 0.862326
595 0.877989
600 1.32967
Ex : 503
200 0.439011
205 0.321878
210 0.346485
215 0.348985
220 0.39542
225 0.385004
230 0.313824
235 0.425411
240 0.358401
245 0.292809
250 0.381843
255 0.375216
260 0.334049
265 0.398628
270 0.337386
275 0.41111
280 0.349238
285 0.381583
290 0.345776
295 0.317565
300 0.364756
305 0.397796
310 0.412569
315 0.330626
320 0.422973
325 0.440886
330 0.358126
335 0.444484
340 0.369782
345 0.359338
350 0.38298
355 0.416303
360 0.363782
365 0.420141
370 0.395876
375 0.51334
380 0.439054
385 0.379673
390 0.432787
395 0.518775
400 0.528958
405 0.499074
410 0.447243
415 0.572332
420 0.483287
425 0.521367
430 0.59174
435 0.558629
440 0.5488
445 0.68161
450 0.654857
455 0.768045
460 0.813915
465 0.942937
470 1.14139
475 1.644
480 1.92101
485 2.95357
490 93.7768
495 1504.6
500 2068.94
505 468.527
510 56.5401
515 8.96798
520 3.02136
525 2.06317
530 1.9757
535 2.06614
540 1.8248
545 1.7532
550 1.5902
555 1.55638
560 1.35264
565 1.21811
570 1.14404
575 1.08385
580 1.281
585 1.44335
590 1.22823
595 0.95704
600 0.451684
Ex : 508
200 0.433858
205 0.45933
210 0.460649
215 0.395761
220 0.396097
225 0.479206
230 0.383444
235 0.393799
240 0.357095
245 0.361268
250 0.326546
255 0.311089
260 0.422518
265 0.399031
270 0.418897
275 0.338761
280 0.402192
285 0.344777
290 0.320501
295 0.341858
300 0.40419
305 0.379873
310 0.332104
315 0.400392
320 0.346628
325 0.366785
330 0.438657
335 0.401438
340 0.427865
345 0.390003
350 0.378036
355 0.492775
360 0.410973
365 0.381241
370 0.427298
375 0.408752
380 0.467505
385 0.430206
390 0.421215
395 0.482538
400 0.448293
405 0.479504
410 0.477725
415 0.465706
420 0.48028
425 0.514576
430 0.493706
435 0.572624
440 0.539596
445 0.712406
450 0.673083
455 0.674008
460 0.880104
465 0.938914
470 1.02108
475 1.22808
480 1.46438
485 1.86785
490 2.86742
495 101.802
500 1514.14
505 2068.74
510 487.923
515 59.0289
520 9.33658
525 3.26339
530 1.95865
535 1.839
540 1.78671
545 1.72052
550 1.69397
555 1.2879
560 1.32127
565 1.21005
570 1.20268
575 1.07891
580 1.12871
585 1.1025
590 1.25791
595 1.31583
600 1.36827
Ex : 513
200 0.387873
205 0.507544
210 0.355692
215 0.398656
220 0.459491
225 0.393276
230 0.34626
235 0.390526
240 0.323204
245 0.422118
250 0.408438
255 0.36526
260 0.343622
265 0.342816
270 0.397147
275 0.488403
280 0.412438
285 0.368448
290 0.36963
295 0.368654
300 0.293575
305 0.379296
310 0.394419
315 0.442623
320 0.437903
325 0.385499
330 0.374723
335 0.450891
340 0.445107
345 0.452211
350 0.490535
355 0.499943
360 0.453047
365 0.402064
370 0.495087
375 0.547939
380 0.514878
385 0.423139
390 0.438888
395 0.44809
400 0.404234
405 0.545281
410 0.486518
415 0.477391
420 0.466406
425 0.570774
430 0.553844
435 0.622631
440 0.729326
445 0.592154
450 0.692502
455 0.660585
460 0.862076
465 0.841908
470 0.921908
475 1.00589
480 1.14331
485 1.49504
490 1.9523
495 2.76122
500 91.9459
505 1476.12
510 2090.53
515 501.4
520 60.6883
525 9.34235
530 3.21404
535 1.939
540 1.78865
545 1.83112
550 1.78101
555 1.59082
560 1.32614
565 1.24114
570 1.18937
575 1.027
580 0.913885
585 0.921982
590 0.909878
595 1.11175
600 0.767786
Ex : 518
200 0.435675
205 0.423685
210 0.38615
215 0.354136
220 0.357983
225 0.392024
230 0.345398
235 0.381125
240 0.37046
245 0.510467
250 0.38208
255 0.382584
260 0.397358
265 0.379741
270 0.415186
275 0.392639
280 0.443939
285 0.407807
290 0.50688
295 0.422478
300 0.472947
305 0.447847
310 0.330035
315 0.436022
320 0.309167
325 0.356337
330 0.561017
335 0.440429
340 0.494156
345 0.441947
350 0.444037
355 0.492196
360 0.39472
365 0.466182
370 0.46659
375 0.480108
380 0.405594
385 0.459185
390 0.429036
395 0.441502
400 0.481902
405 0.510689
410 0.553906
415 0.524509
420 0.470077
425 0.502986
430 0.491557
435 0.545795
440 0.526432
445 0.612309
450 0.582721
455 0.734039
460 0.877313
465 0.751217
470 0.812407
475 0.891894
480 0.856851
485 1.17333
490 1.42352
495 1.8405
500 2.64068
505 93.1405
510 1433.37
515 2065.9
520 499.804
525 60.1842
530 9.50302
535 3.06538
540 2.00517
545 1.70862
550 1.65126
555 1.62867
560 1.33913
565 1.17337
570 1.02227
575 0.943866
580 0.958269
585 0.773837
590 0.735911
595 0.625957
600 0.420203
Ex : 523
200 0.418807
205 0.381968
210 0.36315
215 0.391917
220 0.410007
225 0.473095
230 0.342488
235 0.448734
240 0.428622
245 0.363378
250 0.426149
255 0.358848
260 0.395499
265 0.39594
270 0.446929
275 0.490827
280 0.499984
285 0.427323
290 0.409833
295 0.475805
300 0.454984
305 0.477762
310 0.375932
315 0.361163
320 0.3883
325 0.518658
330 0.461632
335 0.443091
340 0.517945
345 0.433325
350 0.457353
355 0.494405
360 0.423214
365 0.45324
370 0.480973
375 0.413107
380 0.510642
385 0.461363
390 0.561796
395 0.464926
400 0.657738
405 0.624748
410 0.529157
415 0.570149
420 0.619962
425 0.560955
430 0.467467
435 0.615656
440 0.630401
445 0.517277
450 0.664198
455 0.677193
460 0.707564
465 0.818076
470 0.793484
475 0.794316
480 0.862077
485 0.915671
490 1.14063
495 1.40201
500 1.82543
505 2.96599
510 84.1839
515 1380.11
520 2041.29
525 513.237
530 61.7308
535 9.30769
540 2.97273
545 1.89815
550 1.61443
555 1.54587
560 1.40483
565 1.3445
570 1.18813
575 1.14214
580 0.948417
585 0.844173
590 0.899975
595 0.73579
600 1.43686
Ex : 528
200 0.366789
205 0.383902
210 0.549753
215 0.381725
220 0.41135
225 0.380407
230 0.530771
235 0.443789
240 0.294216
245 0.337217
250 0.343712
255 0.350378
260 0.397956
265 0.449655
270 0.335978
275 0.384135
280 0.41316
285 0.370416
290 0.43716
295 0.415374
300 0.40927
305 0.448048
310 0.347367
315 0.490726
320 0.40344
325 0.500717
330 0.444701
335 0.482007
340 0.415818
345 0.336669
350 0.569704
355 0.609761
360 0.47643
365 0.477634
370 0.468697
375 0.420878
380 0.397981
385 0.561791
390 0.42488
395 0.576695
400 0.50814
405 0.530443
410 0.583248
415 0.617503
420 0.482645
425 0.479982
430 0.64852
435 0.56411
440 0.645728
445 0.697949
450 0.631957
455 0.74452
460 0.701519
465 0.692744
470 0.912857
475 0.878677
480 0.88567
485 0.822038
490 0.907964
495 1.10525
500 1.3621
505 1.89087
510 2.89335
515 78.238
520 1344.5
525 2010.31
530 492.944
535 59.227
540 8.68047
545 2.66678
550 1.84188
555 1.34853
560 1.2258
565 1.33473
570 1.21176
575 1.05192
580 1.08351
585 0.82317
590 0.767254
595 0.773055
600 0.0879707
Ex : 533
200 0.366024
205 0.385561
210 0.39617
215 0.409188
220 0.50614
225 0.450666
230 0.466521
235 0.443105
240 0.354072
245 0.442023
250 0.435125
255 0.543646
260 0.433244
265 0.379728
270 0.413231
275 0.421156
280 0.446165
285 0.432775
290 0.360009
295 0.413142
300 0.390135
305 0.59762
310 0.457265
315 0.426653
320 0.546928
325 0.309384
330 0.396023
335 0.419136
340 0.536372
345 0.476039
350 0.427348
355 0.435926
360 0.411233
365 0.446748
370 0.545545
375 0.552799
380 0.518867
385 0.45421
390 0.577647
395 0.573313
400 0.499409
405 0.554637
410 0.633539
415 0.5692
420 0.632902
425 0.580083
430 0.433059
435 0.518397
440 0.471286
445 0.529406
450 0.574072
455 0.728983
460 0.685322
465 0.65023
470 0.634173
475 0.64852
480 0.746
485 0.771477
490 0.963153
495 1.01779
500 1.09485
505 1.50763
510 1.99404
515 2.61207
520 74.4995
525 1293.22
530 1982.97
535 504.12
540 60.7042
545 8.80499
550 2.52835
555 1.75239
560 1.40676
565 1.25834
570 1.15305
575 1.06445
580 0.951505
585 0.900142
590 0.782813
595 0.930531
600 1.08377
Ex : 538
200 0.468214
205 0.446205
210 0.33617
215 0.442678
220 0.362073
225 0.499614
230 0.464178
235 0.435579
240 0.414298
245 0.433063
250 0.396408
255 0.414477
260 0.455063
265 0.527354
270 0.340036
275 0.40069
280 0.406662
285 0.395955
290 0.488097
295 0.468188
300 0.476302
305 0.42383
310 0.549704
315 0.424442
320 0.362532
325 0.435553
330 0.427609
335 0.393485
340 0.395431
345 0.355826
350 0.494655
355 0.490257
360 0.51515
365 0.635916
370 0.476655
375 0.4381
380 0.500458
385 0.458995
390 0.585162
395 0.581671
400 0.588574
405 0.484487
410 0.668051
415 0.674828
420 0.53563
425 0.600277
430 0.659616
435 0.644529
440 0.582518
445 0.617291
450 0.663359
455 0.55516
460 0.67193
465 0.648552
470 0.668977
475 0.665631
480 0.755576
485 0.791014
490 0.687154
495 0.7558
500 0.870034
505 1.09963
510 1.26327
515 1.83887
520 2.57305
525 65.5259
530 1245.77
535 1967.73
540 521.228
545 62.5701
550 9.06468
555 2.62968
560 1.55773
565 1.31115
570 1.15493
575 1.07731
580 1.10162
585 0.835777
590 0.846944
595 0.797242
600 0.61295
Ex : 543
200 0.450208
205 0.482837
210 0.447471
215 0.355533
220 0.394426
225 0.433176
230 0.427856
235 0.340068
240 0.469984
245 0.494464
250 0.46766
255 0.559217
260 0.450332
265 0.504318
270 0.537931
275 0.407452
280 0.446135
285 0.427239
290 0.470565
295 0.424568
300 0.391208
305 0.428703
310 0.554469
315 0.434382
320 0.486176
325 0.52795
330 0.479791
335 0.606244
340 0.500003
345 0.457919
350 0.562629
355 0.597697
360 0.496588
365 0.48278
370 0.62907
375 0.572047
380 0.544936
385 0.458877
390 0.528162
395 0.54234
400 0.469156
405 0.457004
410 0.435791
415 0.509057
420 0.558211
425 0.647739
430 0.509697
435 0.593642
440 0.531444
445 0.715452
450 0.605315
455 0.579928
460 0.640514
465 0.794487
470 0.728962
475 0.587522
480 0.631075
485 0.789063
490 0.87328
495 0.759578
500 0.707076
505 0.896392
510 1.19847
515 1.39137
520 1.97259
525 2.54798
530 59.7929
535 1174.58
540 1940.17
545 525.592
550 63.4333
555 9.07472
560 2.49995
565 1.52723
570 1.15121
575 1.04015
580 0.959842
585 0.955803
590 0.873667
595 0.834087
600 0.311192
Ex : 548
200 0.395673
205 0.530435
210 0.549233
215 0.519406
220 0.450691
225 0.438539
230 0.498203
235 0.474984
240 0.449379
245 0.506919
250 0.500193
255 0.502534
260 0.47966
265 0.475481
270 0.473419
275 0.412338
280 0.456591
285 0.405084
290 0.370286
295 0.483376
300 0.507094
305 0.485587
310 0.447399
315 0.464227
320 0.441553
325 0.469392
330 0.501195
335 0.543634
340 0.405302
345 0.46924
350 0.464279
355 0.57686
360 0.477291
365 0.493277
370 0.570767
375 0.619557
380 0.506502
385 0.466154
390 0.489301
395 0.550482
400 0.516844
405 0.529378
410 0.625082
415 0.632827
420 0.603207
425 0.560195
430 0.487794
435 0.610334
440 0.646735
445 0.598636
450 0.62591
455 0.666385
460 0.658407
465 0.69176
470 0.740827
475 0.721697
480 0.743457
485 0.760808
490 0.8931
495 0.736702
500 0.787635
505 0.961874
510 1.05016
515 1.07607
520 1.31356
525 1.73734
530 2.32641
535 66.0049
540 1173.93
545 1879.97
550 513.722
555 61.7368
560 8.75583
565 2.65955
570 1.68951
575 1.24307
580 0.987259
585 0.81268
590 0.855548
595 0.800625
600 0.264026
Ex : 553
200 0.619446
205 0.500921
210 0.527567
215 0.517228
220 0.447927
225 0.444674
230 0.464953
235 0.460827
240 0.516277
245 0.484353
250 0.482051
255 0.552417
260 0.475531
265 0.529362
270 0.522245
275 0.473493
280 0.414746
285 0.420328
290 0.496237
295 0.472208
300 0.65595
305 0.513855
310 0.465579
315 0.407244
320 0.479988
325 0.450245
330 0.405828
335 0.517071
340 0.456279
345 0.447586
350 0.556167
355 0.49905
360 0.495639
365 0.580965
370 0.720625
375 0.566664
380 0.512648
385 0.493642
390 0.528817
395 0.480428
400 0.534352
405 0.585833
410 0.466935
415 0.585104
420 0.522912
425 0.509487
430 0.562377
435 0.70796
440 0.638645
445 0.616221
450 0.615374
455 0.595967
460 0.705601
465 0.724446
470 0.768515
475 0.776875
480 0.670101
485 0.71724
490 0.749247
495 0.75012
500 0.969793
505 0.882307
510 0.971408
515 0.916307
520 1.18627
525 1.43211
530 1.72184
535 2.45899
540 54.2849
545 1101.99
550 1845.18
555 510.06
560 61.3272
565 8.75325
570 2.44822
575 1.43006
580 1.14066
585 0.984323
590 0.916099
595 0.970212
600 0.627359
Ex : 558
200 0.446542
205 0.461301
210 0.579658
215 0.447458
220 0.466575
225 0.576091
230 0.502954
235 0.552028
240 0.532236
245 0.471948
250 0.481436
255 0.454878
260 0.491399
265 0.621217
270 0.460588
275 0.51093
280 0.356271
285 0.495227
290 0.523299
295 0.60299
300 0.434514
305 0.443362
310 0.556088
315 0.532796
320 0.471648
325 0.389667
330 0.609929
335 0.537543
340 0.555782
345 0.618043
350 0.471532
355 0.474014
360 0.596052
365 0.47577
370 0.512444
375 0.579452
380 0.480134
385 0.543504
390 0.603543
395 0.616882
400 0.580244
405 0.498206
410 0.535253
415 0.620863
420 0.56425
425 0.581747
430 0.543758
435 0.641809
440 0.586637
445 0.675401
450 0.610386
455 0.834715
460 0.644264
465 0.606676
470 0.759498
475 0.707011
480 0.724723
485 0.636895
490 0.694003
495 0.657839
500 0.640693
505 0.865078
510 0.868685
515 0.922
520 0.817018
525 1.34824
530 1.348
535 1.71193
540 2.41443
545 51.9495
550 1048.22
555 1812.28
560 507.394
565 61.0692
570 8.83265
575 2.17152
580 1.20648
585 1.12168
590 0.905445
595 0.997745
600 1.95637
Ex : 563
200 0.418536
205 0.391647
210 0.441207
215 0.52125
220 0.542873
225 0.508229
230 0.50928
235 0.682703
240 0.534161
245 0.570323
250 0.415983
255 0.47514
260 0.49159
265 0.575415
270 0.515169
275 0.649475
280 0.61369
285 0.459959
290 0.49625
295 0.503742
300 0.569398
305 0.562229
310 0.544645
315 0.405662
320 0.46847
325 0.599373
330 0.407688
335 0.638219
340 0.521863
345 0.527247
350 0.635243
355 0.598768
360 0.487286
365 0.505022
370 0.536136
375 0.629187
380 0.601251
385 0.553614
390 0.526664
395 0.469453
400 0.505295
405 0.727365
410 0.728468
415 0.571273
420 0.606261
425 0.614749
430 0.555321
435 0.491459
440 0.691348
445 0.70859
450 0.671681
455 0.693273
460 0.524693
465 0.763086
470 0.483116
475 0.498592
480 0.566759
485 0.511452
490 0.866254
495 0.71034
500 0.65979
505 0.80166
510 0.818341
515 0.851478
520 0.98164
525 0.979994
530 1.14336
535 1.31425
540 1.613
545 2.41355
550 51.7732
555 1012.58
560 1723.01
565 489.938
570 58.8026
575 8.42916
580 2.0472
585 1.28679
590 1.10494
595 0.949144
600 0.780302
Ex : 568
200 0.535529
205 0.437342
210 0.53434
215 0.580658
220 0.695736
225 0.586322
230 0.557136
235 0.531546
240 0.522456
245 0.53664
250 0.446163
255 0.447291
260 0.587679
265 0.489186
270 0.541845
275 0.566268
280 0.425799
285 0.513764
290 0.35736
295 0.464477
300 0.47614
305 0.613811
310 0.44765
315 0.629677
320 0.517982
325 0.371873
330 0.550629
335 0.738739
340 0.442199
345 0.416838
350 0.582288
355 0.458804
360 0.562449
365 0.577038
370 0.688267
375 0.59441
380 0.506879
385 0.497532
390 0.52424
395 0.544283
400 0.636142
405 0.558966
410 0.512374
415 0.512642
420 0.628307
425 0.637046
430 0.606712
435 0.493448
440 0.605536
445 0.865692
450 0.72103
455 0.597405
460 0.635122
465 0.692347
470 0.575283
475 0.66408
480 0.92378
485 0.753269
490 0.709933
495 0.552858
500 0.846747
505 0.836065
510 0.644066
515 0.776278
520 0.732877
525 0.974875
530 1.04806
535 1.15804
540 1.37142
545 1.63402
550 2.32912
555 38.7721
560 907.094
565 1664.92
570 493.624
575 59.5132
580 8.07924
585 2.05509
590 1.19291
595 0.922784
600 0.878877
Ex : 573
200 0.590384
205 0.537641
210 0.560582
215 0.497154
220 0.382729
225 0.486345
230 0.550223
235 0.52915
240 0.605963
245 0.488843
250 0.375225
255 0.500269
260 0.535281
265 0.435012
270 0.492605
275 0.444873
280 0.526849
285 0.439181
290 0.557177
295 0.582449
300 0.677498
305 0.643222
310 0.502175
315 0.601795
320 0.554335
325 0.525931
330 0.488723
335 0.433641
340 0.603399
345 0.590179
350 0.556228
355 0.438899
360 0.626612
365 0.515956
370 0.507637
375 0.63194
380 0.621772
385 0.594309
390 0.613331
395 0.579944
400 0.595865
405 0.656381
410 0.696995
415 0.615702
420 0.491706
425 0.573114
430 0.650969
435 0.69815
440 0.542598
445 0.521952
450 0.586563
455 0.737044
460 0.879414
465 0.629506
470 0.643585
475 0.661568
480 0.556073
485 0.641851
490 0.73719
495 0.83966
500 0.708217
505 0.723546
510 0.704299
515 0.821188
520 0.857828
525 0.818199
530 0.787919
535 0.876747
540 1.13916
545 1.12194
550 1.59595
555 2.12492
560 34.3649
565 788.617
570 1544.2
575 471.537
580 56.9514
585 7.80814
590 2.05112
595 1.2278
600 1.16618
Ex : 578
200 0.504304
205 0.434472
210 0.520541
215 0.533225
220 0.633614
225 0.575813
230 0.56848
235 0.398797
240 0.444939
245 0.539462
250 0.451976
255 0.508171
260 0.496742
265 0.716299
270 0.481317
275 0.437473
280 0.519373
285 0.351829
290 0.591715
295 0.364333
300 0.51359
305 0.488575
310 0.549443
315 0.47245
320 0.522085
325 0.55064
330 0.415172
335 0.55248
340 0.531283
345 0.516653
350 0.63253
355 0.541447
360 0.651829
365 0.601488
370 0.514269
375 0.588456
380 0.48737
385 0.40815
390 0.574702
395 0.614672
400 0.659101
405 0.625964
410 0.614415
415 0.67824
420 0.660916
425 0.501978
430 0.475402
435 0.535236
440 0.612632
445 0.693382
450 0.626637
455 0.663709
460 0.693597
465 0.780129
470 0.751555
475 0.814883
480 0.55856
485 0.681702
490 0.707423
495 0.680725
500 0.800899
505 0.680869
510 0.871947
515 0.879448
520 0.85909
525 0.818825
530 0.87311
535 0.789018
540 0.938249
545 0.994413
550 1.27771
555 1.47983
560 2.08958
565 29.7601
570 702.523
575 1338.27
580 399.131
585 48.3384
590 6.63006
595 2.01666
600 0.915796
Ex : 583
200 0.578433
205 0.470804
210 0.516579
215 0.515872
220 0.472475
225 0.674059
230 0.66773
235 0.464596
240 0.516045
245 0.517581
250 0.567994
255 0.651361
260 0.564976
265 0.41635
270 0.501188
275 0.491694
280 0.552433
285 0.540484
290 0.460148
295 0.427811
300 0.598375
305 0.586079
310 0.505011
315 0.566596
320 0.464591
325 0.669143
330 0.583213
335 0.466076
340 0.679921
345 0.612159
350 0.534569
355 0.654437
360 0.454533
365 0.529823
370 0.654721
375 0.596208
380 0.65997
385 0.774866
390 0.582795
395 0.485135
400 0.563179
405 0.648079
410 0.577244
415 0.542723
420 0.542
425 0.619511
430 0.57329
435 0.693419
440 0.717087
445 0.826871
450 0.727969
455 0.830641
460 0.549911
465 0.659806
470 0.497861
475 0.560937
480 0.74928
485 0.692745
490 0.753246
495 0.662523
500 0.673621
505 0.734316
510 0.856623
515 0.64868
520 0.923405
525 0.762597
530 0.776717
535 0.737798
540 0.920291
545 0.979846
550 1.02604
555 1.28484
560 1.40326
565 1.76998
570 24.4398
575 618.163
580 1157.65
585 329.01
590 39.825
595 5.62885
600 0.981389
Ex : 588
200 0.543896
205 0.5578
210 0.549778
215 0.506259
220 0.483307
225 0.444288
230 0.470672
235 0.629483
240 0.62839
245 0.444503
250 0.512037
255 0.573463
260 0.462803
265 0.639283
270 0.649435
275 0.472601
280 0.601928
285 0.568485
290 0.536004
295 0.55526
300 0.493273
305 0.546518
310 0.552096
315 0.551895
320 0.442168
325 0.566813
330 0.640302
335 0.590636
340 0.509295
345 0.530006
350 0.549999
355 0.583774
360 0.590275
365 0.524698
370 0.480107
375 0.65045
380 0.56149
385 0.547527
390 0.666127
395 0.67676
400 0.740131
405 0.512906
410 0.633229
415 0.577197
420 0.666859
425 0.529062
430 0.738557
435 0.627411
440 0.524334
445 0.62677
450 0.753072
455 0.531778
460 0.758916
465 0.707943
470 0.906477
475 0.694581
480 0.753774
485 0.783462
490 0.844232
495 0.760936
500 0.625483
505 0.644914
510 0.628373
515 0.653771
520 0.586843
525 0.783625
530 0.902285
535 0.71776
540 0.733289
545 0.910672
550 1.11551
555 0.906705
560 1.15388
565 1.34066
570 1.47704
575 21.6501
580 522.902
585 974.843
590 288.943
595 35.0189
600 4.4567
Ex : 593
200 0.477042
205 0.606764
210 0.598045
215 0.494299
220 0.606619
225 0.524798
230 0.606675
235 0.610082
240 0.471794
245 0.515153
250 0.574673
255 0.550052
260 0.678664
265 0.607636
270 0.517922
275 0.603406
280 0.618161
285 0.593271
290 0.547375
295 0.515712
300 0.470354
305 0.499034
310 0.671855
315 0.547934
320 0.572661
325 0.594543
330 0.691507
335 0.64306
340 0.683111
345 0.624819
350 0.726084
355 0.665059
360 0.560911
365 0.717112
370 0.617548
375 0.555878
380 0.709351
385 0.631916
390 0.564166
395 0.616142
400 0.661449
405 0.594665
410 0.652839
415 0.617362
420 0.577187
425 0.59269
430 0.682297
435 0.657371
440 0.634065
445 0.491504
450 0.574905
455 0.690152
460 0.636898
465 0.884026
470 0.769378
475 0.693667
480 0.669739
485 0.706493
490 0.863834
495 0.899517
500 0.807871
505 0.682735
510 0.731558
515 0.708501
520 0.721503
525 0.555955
530 0.656028
535 0.696651
540 0.748975
545 0.866035
550 0.725782
555 0.83535
560 0.840115
565 0.866599
570 1.39006
575 1.74676
580 18.6206
585 456.751
590 838.922
595 247.892
600 33.9769
Ex : 598
200 0.467641
205 0.485926
210 0.617612
215 0.717736
220 0.660901
225 0.655966
230 0.5218
235 0.565487
240 0.573684
245 0.525032
250 0.544369
255 0.66328
260 0.576466
265 0.677084
270 0.566774
275 0.608418
280 0.529526
285 0.797517
290 0.561236
295 0.617394
300 0.502429
305 0.513528
310 0.524792
315 0.656403
320 0.62571
325 0.607821
330 0.532141
335 0.581687
340 0.710401
345 0.650972
350 0.656765
355 0.612856
360 0.495909
365 0.726279
370 0.687819
375 0.602702
380 0.562998
385 0.758972
390 0.559423
395 0.683796
400 0.741578
405 0.635842
410 0.701934
415 0.565065
420 0.598628
425 0.642946
430 0.595312
435 0.639218
440 0.642403
445 0.643112
450 0.588872
455 0.560381
460 0.758886
465 0.645958
470 0.752416
475 0.681847
480 0.752697
485 0.558073
490 0.744181
495 0.814941
500 0.571489
505 0.732629
510 0.630213
515 0.664514
520 0.629868
525 0.576157
530 0.57578
535 0.67529
540 0.740611
545 0.730508
550 0.956391
555 0.798726
560 1.02605
565 1.03423
570 1.12735
575 1.14067
580 1.45277
585 18.6196
590 409.767
595 727.571
600 480.492
Ex : 603
200 0.535574
205 0.592201
210 0.647652
215 0.721101
220 0.544196
225 0.641946
230 0.621653
235 0.504486
240 0.694898
245 0.519242
250 0.889722
255 0.516576
260 0.584281
265 0.641744
270 0.58027
275 0.708949
280 0.478619
285 0.554669
290 0.777119
295 0.621134
300 0.563755
305 0.574037
310 0.533415
315 0.587548
320 0.637683
325 0.518497
330 0.673058
335 0.651553
340 0.660408
345 0.572443
350 0.504229
355 0.54902
360 0.682605
365 0.653183
370 0.738495
375 0.571012
380 0.673227
385 0.639051
390 0.558729
395 0.450712
400 0.754094
405 0.561936
410 0.741518
415 0.705016
420 0.611365
425 0.683277
430 0.797451
435 0.69273
440 0.616799
445 0.616191
450 0.720263
455 0.72582
460 0.690022
465 0.792058
470 0.654134
475 0.828827
480 0.760289
485 0.682851
490 0.658396
495 0.767688
500 0.766154
505 0.804143
510 0.706847
515 0.781201
520 0.714637
525 0.763138
530 0.821249
535 0.609352
540 0.875602
545 0.8061
550 1.04186
555 0.688806
560 0.875459
565 1.16194
570 1.06179
575 1.04733
580 1.37378
585 1.55692
590 16.9633
595 349.51
600 697.24
