File format V 1.0
ven. 9. déc. 22:02:33 2016
Operator : 
Comments : 

=============================================
SpectroFluorometer parameters
Mode : 3D measurement
Data : Fluorescence
Phospho. : Ordinary
Spectrum : Fluorescence

Scan speed : 2400 nm/mn
Response : 100 ms
PM Voltage : 700 V
Shutter : On

Lambda Ex. Start : 203
Lambda Ex. End : 603
Lambda Ex. Step : 5
Ex. Slit : 5 nm

Lambda Em. Start : 200
Lambda Em. End : 600
Lambda Em. Step : 5
Em. Slit : 5 nm

Repetition : 1
Decal lambda em : 10
=============================================
DATA
Ex : 203
200 16.2941
205 13.1631
210 13.9262
215 12.2922
220 16.1193
225 11.4408
230 11.4648
235 11.578
240 17.4908
245 16.043
250 14.8985
255 13.2539
260 14.4751
265 15.3426
270 14.9614
275 19.7056
280 12.5587
285 14.0376
290 13.2889
295 12.8861
300 14.5496
305 10.4975
310 16.8577
315 15.8861
320 14.1156
325 12.5554
330 21.1564
335 17.3811
340 12.0546
345 13.8044
350 16.8619
355 11.8034
360 17.0916
365 18.571
370 20.5778
375 14.3322
380 14.6151
385 12.8665
390 10.9368
395 12.8145
400 13.8165
405 15.1554
410 15.295
415 17.9715
420 19.3469
425 14.1842
430 15.1093
435 15.8142
440 12.8923
445 17.5684
450 18.9659
455 16.6477
460 13.1085
465 17.2036
470 17.5763
475 20.8265
480 18.3108
485 14.9133
490 15.637
495 11.8321
500 14.6284
505 16.1701
510 14.247
515 15.7058
520 16.8994
525 17.9936
530 15.6429
535 18.4929
540 15.5933
545 12.072
550 16.4335
555 18.0555
560 18.2334
565 16.3491
570 14.3939
575 12.4867
580 14.3327
585 18.9554
590 16.5566
595 17.5288
600 16.7648
Ex : 208
200 16.0613
205 13.1463
210 9.62125
215 14.0471
220 12.5575
225 16.8501
230 14.1326
235 15.7664
240 18.2586
245 14.6552
250 13.4873
255 16.849
260 15.8354
265 14.8845
270 18.6015
275 21.3961
280 16.2367
285 13.163
290 18.6236
295 16.2001
300 15.5286
305 14.8497
310 16.1816
315 14.5476
320 14.248
325 16.7538
330 13.896
335 14.6845
340 15.7207
345 13.3205
350 12.3982
355 12.9264
360 18.097
365 12.4508
370 15.8525
375 13.2185
380 15.2162
385 14.3613
390 13.1769
395 13.6164
400 14.6804
405 12.9325
410 16.4731
415 17.4089
420 18.1425
425 12.6938
430 18.348
435 11.9582
440 14.4908
445 12.6018
450 13.1852
455 14.6247
460 16.0292
465 12.3945
470 17.2341
475 17.3125
480 16.0481
485 19.1495
490 15.773
495 13.3543
500 17.4765
505 15.5148
510 15.8361
515 15.8075
520 17.9668
525 13.8889
530 14.6797
535 13.9144
540 16.0324
545 14.4398
550 13.1801
555 11.3261
560 22.0922
565 12.1255
570 15.8676
575 16.8075
580 16.3808
585 13.6672
590 16.2524
595 17.5916
600 13.5225
Ex : 213
200 15.8129
205 14.7157
210 10.3386
215 14.3094
220 14.5167
225 16.1099
230 17.0897
235 15.1794
240 15.9327
245 13.1596
250 20.7253
255 12.3648
260 12.9383
265 11.506
270 16.4064
275 14.4057
280 19.0785
285 16.2602
290 11.6091
295 12.9911
300 14.1736
305 15.8469
310 18.0767
315 13.8649
320 15.8495
325 13.3709
330 13.0744
335 11.6606
340 17.0404
345 13.0846
350 14.9019
355 20.1049
360 15.6417
365 15.6456
370 14.5519
375 16.7911
380 13.99
385 12.9691
390 15.1645
395 12.2028
400 13.5906
405 15.0339
410 14.5527
415 14.8023
420 14.0244
425 15.1844
430 22.3361
435 14.858
440 15.4243
445 13.1043
450 16.5399
455 13.3616
460 16.1116
465 13.0636
470 17.9055
475 18.7391
480 17.6174
485 13.0045
490 17.0911
495 17.3298
500 17.831
505 14.4152
510 16.818
515 16.3025
520 19.3159
525 14.7686
530 16.0668
535 12.3836
540 16.2518
545 12.1527
550 18.5431
555 14.3296
560 13.6075
565 11.0013
570 15.5329
575 16.1156
580 16.6411
585 14.8245
590 12.9001
595 15.2143
600 7.93476
Ex : 218
200 17.9576
205 17.7159
210 15.4559
215 12.6652
220 11.6088
225 19.9735
230 20.2117
235 14.517
240 15.3135
245 9.79618
250 14.715
255 17.4665
260 13.5922
265 17.8192
270 13.0701
275 12.885
280 12.0232
285 17.9107
290 13.7533
295 16.9059
300 15.5005
305 19.0871
310 16.7423
315 21.1515
320 11.2294
325 19.9803
330 14.1287
335 14.6963
340 17.3814
345 18.057
350 17.2901
355 16.4015
360 11.7381
365 12.1351
370 11.621
375 15.7843
380 16.3084
385 11.2474
390 18.7713
395 16.0378
400 19.0184
405 15.5369
410 13.468
415 14.6323
420 15.9066
425 13.8794
430 13.7395
435 13.0607
440 17.1603
445 19.3564
450 14.8218
455 12.5501
460 15.3571
465 15.4504
470 16.6291
475 16.1368
480 16.7433
485 10.7123
490 16.3726
495 16.6541
500 12.1582
505 14.7428
510 12.1123
515 12.8228
520 17.1086
525 20.9273
530 13.9072
535 13.1198
540 12.062
545 14.7013
550 16.052
555 19.3608
560 14.313
565 14.7055
570 16.744
575 19.5252
580 16.3487
585 14.7507
590 13.3356
595 11.2761
600 15.9055
Ex : 223
200 9.90476
205 15.7216
210 11.4979
215 14.3483
220 9.074
225 14.1089
230 16.2973
235 14.4758
240 12.9196
245 14.9538
250 14.4854
255 14.921
260 16.5558
265 16.3777
270 16.7622
275 15.7573
280 12.9965
285 13.424
290 15.8216
295 12.4448
300 15.1369
305 13.7387
310 17.4722
315 14.7567
320 12.1669
325 13.835
330 12.6544
335 16.0624
340 14.1759
345 16.7988
350 12.4659
355 17.0813
360 15.519
365 13.1231
370 10.4895
375 14.4615
380 16.9568
385 11.7769
390 13.4159
395 13.7671
400 15.7895
405 18.0177
410 16.3943
415 12.0129
420 14.9031
425 12.6112
430 12.8243
435 18.1576
440 15.6653
445 13.671
450 15.3405
455 16.2038
460 16.4367
465 14.3747
470 15.3398
475 14.9933
480 14.8142
485 12.5091
490 14.4795
495 12.9493
500 14.679
505 17.5345
510 13.6294
515 17.0595
520 12.0118
525 14.6843
530 11.9132
535 11.9426
540 15.0516
545 18.645
550 17.2845
555 23.5432
560 15.9082
565 12.8084
570 12.2527
575 9.76401
580 14.9378
585 11.2646
590 12.3935
595 15.1465
600 9.69945
Ex : 228
200 13.4677
205 14.0924
210 11.9172
215 13.8939
220 12.9872
225 12.6879
230 14.3843
235 10.2273
240 12.4163
245 14.3006
250 11.4118
255 13.7424
260 18.4796
265 12.7827
270 13.3288
275 12.985
280 11.526
285 11.5077
290 13.5671
295 11.3852
300 12.9189
305 12.423
310 13.457
315 13.3768
320 15.7205
325 14.1733
330 11.2119
335 13.5737
340 11.4347
345 17.1289
350 14.5505
355 15.5938
360 17.1652
365 14.891
370 14.6378
375 11.7239
380 12.3541
385 10.6888
390 13.1476
395 16.188
400 19.238
405 14.0681
410 13.2323
415 13.9763
420 16.1713
425 12.9107
430 13.4422
435 15.2398
440 11.2317
445 16.6437
450 12.328
455 10.3129
460 10.7816
465 15.6828
470 11.003
475 16.1158
480 12.4781
485 15.3226
490 12.4212
495 11.5497
500 15.2164
505 14.9699
510 12.0101
515 13.5755
520 11.7292
525 11.7682
530 13.1422
535 15.6457
540 15.9781
545 13.2707
550 11.4988
555 16.6272
560 12.5359
565 13.4529
570 14.8558
575 16.3434
580 12.3458
585 13.6913
590 17.4666
595 14.6946
600 7.72791
Ex : 233
200 12.9543
205 10.3239
210 12.9075
215 13.1758
220 12.745
225 14.5991
230 16.9844
235 14.2273
240 14.5116
245 12.3977
250 10.951
255 10.1938
260 9.11967
265 12.2733
270 10.9621
275 12.6658
280 8.76334
285 13.8325
290 12.3316
295 14.0966
300 13.1499
305 12.4845
310 10.6135
315 12.7623
320 13.7467
325 13.8945
330 13.2964
335 12.0246
340 10.9888
345 12.277
350 10.6311
355 13.4307
360 10.5711
365 11.7603
370 16.2384
375 14.1665
380 9.79102
385 14.9441
390 10.2479
395 12.691
400 11.856
405 13.1042
410 11.205
415 12.685
420 12.1087
425 13.4061
430 14.1434
435 14.9827
440 12.2581
445 11.8143
450 12.4679
455 13.8862
460 12.1002
465 13.7753
470 9.63865
475 12.7659
480 15.8252
485 13.9025
490 10.2309
495 14.8135
500 13.0308
505 13.5194
510 12.0009
515 14.8298
520 17.7103
525 11.863
530 12.366
535 9.60765
540 11.3733
545 9.98649
550 9.5267
555 12.8739
560 11.074
565 10.4799
570 10.9156
575 12.0462
580 13.7411
585 13.0929
590 9.90471
595 11.9255
600 20.6763
Ex : 238
200 12.346
205 13.4627
210 12.2415
215 10.1242
220 10.2668
225 12.5678
230 9.69352
235 8.73552
240 10.2582
245 9.04136
250 8.93768
255 12.6828
260 10.1199
265 9.94981
270 14.7843
275 11.8164
280 9.31318
285 11.966
290 11.7007
295 12.7627
300 8.9448
305 9.8991
310 10.4889
315 10.5169
320 12.4689
325 9.49923
330 10.3268
335 8.43689
340 14.7042
345 9.81826
350 10.1075
355 9.69274
360 13.0913
365 11.938
370 11.4348
375 10.6293
380 9.82992
385 10.5753
390 10.8523
395 10.4966
400 9.2077
405 12.0757
410 11.0035
415 10.199
420 9.91046
425 12.3123
430 11.944
435 11.4954
440 12.013
445 9.81069
450 11.0254
455 11.4768
460 11.544
465 10.4294
470 14.5101
475 12.2551
480 13.6845
485 9.18082
490 12.7039
495 11.6446
500 12.1632
505 12.0387
510 9.66873
515 9.3845
520 9.37562
525 11.1484
530 9.65954
535 11.4971
540 9.20155
545 12.4872
550 10.1523
555 10.9378
560 10.9558
565 15.0145
570 13.5806
575 9.11224
580 7.21328
585 9.05371
590 8.05772
595 11.4253
600 8.74427
Ex : 243
200 11.0342
205 10.2814
210 10.4913
215 10.6958
220 10.9306
225 9.23008
230 8.92022
235 8.6814
240 8.9308
245 12.3746
250 11.3384
255 10.9095
260 9.62852
265 8.84049
270 9.46613
275 8.94397
280 10.0965
285 12.6467
290 8.11629
295 8.94407
300 9.99822
305 10.0834
310 10.1906
315 10.5648
320 7.91349
325 7.25541
330 10.3762
335 7.97392
340 8.93077
345 10.0121
350 9.39624
355 9.07388
360 10.6326
365 10.311
370 10.0125
375 11.4373
380 9.77881
385 9.77057
390 10.0436
395 8.92439
400 11.9162
405 8.90955
410 10.0927
415 10.9063
420 10.5462
425 10.5401
430 8.77212
435 9.09401
440 10.9088
445 8.46477
450 11.1378
455 9.32533
460 9.75203
465 8.18314
470 8.98941
475 8.55402
480 9.87183
485 11.3014
490 10.9659
495 8.30504
500 12.2334
505 9.72308
510 10.578
515 9.68032
520 9.29412
525 11.8506
530 10.7476
535 11.3732
540 12.03
545 7.78522
550 10.4143
555 9.00418
560 9.60632
565 9.45774
570 12.5231
575 10.6876
580 8.38454
585 9.11288
590 14.493
595 8.26951
600 11.8709
Ex : 248
200 9.79062
205 8.49455
210 8.32241
215 6.48918
220 8.45603
225 6.88309
230 6.64142
235 9.02058
240 8.55645
245 10.1057
250 7.01515
255 9.21441
260 9.35148
265 10.4759
270 7.59708
275 7.68719
280 6.66166
285 6.0387
290 8.27547
295 8.29613
300 8.08807
305 6.83115
310 8.55039
315 7.64011
320 7.90143
325 7.71716
330 8.78564
335 9.69407
340 9.04407
345 9.01606
350 7.37944
355 8.78568
360 7.8997
365 7.81627
370 9.30563
375 8.53578
380 8.6097
385 8.32258
390 8.13548
395 8.26323
400 8.52198
405 8.36043
410 9.47737
415 10.9931
420 8.47259
425 6.60139
430 8.83438
435 7.88643
440 8.68913
445 7.27834
450 9.13117
455 6.90691
460 7.32413
465 7.96363
470 9.59542
475 8.38752
480 10.5055
485 8.58315
490 10.7527
495 5.91166
500 7.04403
505 6.26515
510 7.75178
515 9.07322
520 6.20014
525 5.72466
530 6.84937
535 9.1632
540 8.05425
545 7.9205
550 7.65335
555 7.97667
560 6.67079
565 6.99085
570 7.46553
575 8.18459
580 8.89374
585 7.57585
590 10.139
595 6.67678
600 2.75375
Ex : 253
200 6.87286
205 9.52628
210 6.56912
215 4.41459
220 8.77585
225 8.10633
230 7.1259
235 6.0314
240 8.47921
245 7.94207
250 5.66883
255 6.34734
260 6.50501
265 6.83045
270 7.054
275 6.08006
280 8.21343
285 6.55984
290 5.52077
295 5.0502
300 4.63129
305 4.80772
310 7.24582
315 6.16509
320 5.1348
325 5.93655
330 9.45076
335 7.22114
340 7.47274
345 7.84562
350 7.44244
355 5.39879
360 5.53772
365 6.93206
370 7.02313
375 7.78302
380 6.9512
385 8.69356
390 5.4471
395 7.57315
400 5.80995
405 5.22099
410 6.79533
415 6.76073
420 6.99783
425 7.26956
430 6.63828
435 5.49408
440 5.30227
445 6.43828
450 7.04491
455 7.17283
460 5.81434
465 6.49564
470 5.29465
475 6.59056
480 7.0831
485 8.68013
490 6.9972
495 7.2625
500 8.02743
505 7.14135
510 7.91135
515 6.33018
520 6.12619
525 7.15312
530 6.75614
535 7.29227
540 7.49934
545 7.88821
550 7.01047
555 6.64942
560 7.16747
565 7.7871
570 7.12547
575 6.26654
580 7.86667
585 5.88853
590 6.08
595 7.65935
600 6.18883
Ex : 258
200 5.79093
205 5.32358
210 4.73479
215 5.72771
220 4.18281
225 4.68325
230 5.41675
235 4.32442
240 5.53869
245 4.43512
250 4.84676
255 5.87054
260 5.77293
265 4.84468
270 4.35647
275 5.31385
280 4.12245
285 6.19237
290 4.52362
295 5.77303
300 3.90997
305 5.3625
310 5.46438
315 4.52958
320 4.50423
325 5.59383
330 6.56677
335 4.59092
340 4.44529
345 6.97013
350 5.4769
355 5.39071
360 4.78019
365 4.07671
370 5.65629
375 5.2537
380 5.59695
385 5.94893
390 6.18259
395 5.51413
400 5.3669
405 4.78578
410 3.89744
415 5.90844
420 6.53878
425 4.91012
430 6.20127
435 6.17205
440 6.11534
445 4.06348
450 6.5936
455 5.09887
460 4.36643
465 5.70923
470 4.56984
475 7.70424
480 6.45241
485 6.49636
490 6.91752
495 5.90099
500 5.6346
505 5.96899
510 5.17026
515 5.36117
520 4.71838
525 5.34155
530 4.93961
535 4.31534
540 5.23884
545 4.42234
550 4.94475
555 4.86535
560 5.80543
565 5.13932
570 5.1011
575 4.18924
580 4.40561
585 5.6765
590 4.09679
595 4.85177
600 3.02082
Ex : 263
200 4.09417
205 2.97092
210 3.18562
215 3.69677
220 3.36628
225 3.36214
230 3.4124
235 4.5532
240 2.97762
245 3.30976
250 5.03812
255 5.52711
260 4.49751
265 2.59372
270 2.62594
275 3.32713
280 3.6262
285 3.94235
290 4.34498
295 4.32306
300 3.94186
305 2.76029
310 2.97272
315 4.38684
320 3.10403
325 5.01887
330 3.27491
335 3.92692
340 3.38267
345 3.43846
350 5.01384
355 4.49401
360 3.93155
365 3.68432
370 3.97498
375 4.18869
380 5.31424
385 4.37178
390 3.80634
395 2.65937
400 2.96524
405 3.04699
410 3.72464
415 4.47225
420 4.03465
425 5.37365
430 4.89755
435 4.13934
440 4.89662
445 3.50771
450 4.81813
455 4.85212
460 5.29253
465 5.13465
470 4.04414
475 4.58583
480 4.58208
485 3.84797
490 3.98001
495 3.37351
500 2.95714
505 3.77342
510 4.0168
515 4.48003
520 4.63616
525 4.75326
530 5.16901
535 3.75166
540 4.60932
545 3.74318
550 3.84018
555 3.82804
560 4.50514
565 4.29567
570 4.22555
575 3.73825
580 3.68551
585 4.65836
590 3.95527
595 3.77979
600 0.430125
Ex : 268
200 3.01991
205 2.99496
210 2.26986
215 1.9892
220 4.23142
225 3.15919
230 3.3842
235 2.97232
240 3.7274
245 2.78772
250 2.90379
255 3.31168
260 3.01521
265 2.45958
270 2.77135
275 2.86898
280 2.98404
285 2.51698
290 3.54189
295 3.08159
300 3.35013
305 2.56411
310 3.16775
315 2.67905
320 2.95198
325 3.70578
330 3.20193
335 3.56103
340 3.26113
345 3.02664
350 2.97495
355 3.34976
360 3.66194
365 3.43292
370 3.03884
375 2.97082
380 2.78682
385 3.38254
390 2.53938
395 3.50288
400 3.9793
405 3.37741
410 3.45581
415 3.44457
420 3.43888
425 3.42793
430 4.57075
435 4.66932
440 3.42019
445 3.06558
450 3.33125
455 3.75649
460 3.23274
465 3.39706
470 3.20084
475 4.07164
480 3.81377
485 3.17786
490 3.61945
495 3.47812
500 3.66263
505 3.07018
510 3.41966
515 5.29477
520 3.58747
525 2.40326
530 4.27238
535 3.43674
540 3.76523
545 3.01623
550 3.34476
555 2.45195
560 2.24346
565 2.6796
570 2.93846
575 3.53224
580 2.99009
585 3.19476
590 3.42584
595 2.34098
600 1.99449
Ex : 273
200 2.32167
205 2.7055
210 3.17021
215 3.11765
220 1.88958
225 2.25036
230 2.24983
235 2.71051
240 2.4592
245 3.2772
250 1.9761
255 2.3521
260 2.4731
265 2.65701
270 2.77119
275 2.23645
280 2.50039
285 2.42528
290 2.60932
295 2.0567
300 2.2156
305 2.92169
310 3.0952
315 2.24033
320 2.35447
325 2.07779
330 2.12441
335 2.17315
340 2.30997
345 2.66973
350 2.78098
355 2.96498
360 2.47277
365 2.86455
370 2.4135
375 2.39196
380 2.91494
385 3.19177
390 2.6154
395 3.09219
400 2.30018
405 2.7587
410 3.46488
415 2.80376
420 3.7957
425 2.89944
430 2.44778
435 2.49448
440 2.43993
445 2.88029
450 3.00742
455 2.57983
460 2.82013
465 3.07847
470 2.88533
475 3.31896
480 2.4157
485 2.88148
490 2.83261
495 2.61753
500 2.10077
505 2.3172
510 2.1411
515 2.97088
520 2.79388
525 2.26554
530 2.26111
535 2.48124
540 3.43471
545 3.27313
550 2.76725
555 2.6446
560 2.82033
565 2.33504
570 2.59984
575 2.79862
580 2.15322
585 2.43928
590 2.36715
595 2.68093
600 2.11293
Ex : 278
200 2.02634
205 1.91656
210 2.00098
215 1.85693
220 2.58286
225 1.98828
230 1.87684
235 1.45398
240 2.03185
245 2.36146
250 1.97183
255 1.51379
260 2.8571
265 2.5263
270 2.06059
275 2.27317
280 2.00883
285 1.95887
290 2.01751
295 2.32519
300 2.53805
305 2.37921
310 2.26349
315 1.91314
320 2.1882
325 2.11918
330 1.79218
335 2.59946
340 2.25468
345 1.71481
350 2.38446
355 2.35088
360 2.59876
365 2.76795
370 2.26974
375 1.9194
380 1.84451
385 2.11341
390 2.32384
395 1.83869
400 2.13155
405 2.34557
410 2.60756
415 2.21826
420 2.46206
425 2.52351
430 2.51916
435 3.04621
440 2.47105
445 2.77575
450 2.40734
455 2.3629
460 2.71996
465 2.5064
470 2.30602
475 1.99822
480 2.32695
485 2.36548
490 2.31082
495 2.00839
500 2.4542
505 2.78823
510 2.91733
515 2.14947
520 1.90079
525 1.97481
530 2.43435
535 2.08838
540 1.6021
545 1.88047
550 2.73768
555 2.52084
560 2.06489
565 2.23067
570 1.88512
575 1.92707
580 1.76438
585 1.83685
590 1.73796
595 2.84414
600 2.45054
Ex : 283
200 1.75386
205 1.72702
210 1.76461
215 1.69111
220 1.78542
225 1.63527
230 1.503
235 1.53269
240 2.01174
245 1.53829
250 1.63245
255 1.81771
260 1.69438
265 1.49412
270 1.94822
275 1.67794
280 2.42293
285 1.72305
290 1.56561
295 1.71355
300 1.59133
305 1.55189
310 1.26429
315 1.55351
320 1.61773
325 2.0287
330 1.70012
335 1.58226
340 1.58006
345 1.50594
350 1.86306
355 2.01041
360 1.75247
365 2.29857
370 1.67006
375 1.60693
380 1.60939
385 2.07695
390 2.27235
395 2.55317
400 2.53766
405 2.37396
410 2.55283
415 1.78376
420 2.031
425 2.16077
430 1.7548
435 1.95429
440 1.98375
445 2.20833
450 2.03065
455 2.08306
460 2.04606
465 1.92073
470 2.0235
475 2.23846
480 1.84087
485 2.13248
490 1.69886
495 2.16809
500 2.13269
505 1.65165
510 1.74267
515 1.75233
520 1.87579
525 1.46183
530 1.87442
535 1.46032
540 1.78829
545 1.73
550 1.75907
555 1.8694
560 2.69925
565 2.05104
570 2.00812
575 2.18093
580 1.94679
585 1.67984
590 1.25483
595 1.876
600 0.913116
Ex : 288
200 1.42811
205 1.52784
210 1.27084
215 1.37724
220 1.19328
225 1.54246
230 1.19378
235 1.1785
240 1.10636
245 1.35495
250 1.18577
255 1.38756
260 1.37364
265 1.64968
270 1.18273
275 1.52342
280 1.70762
285 1.64282
290 1.658
295 1.23944
300 1.21308
305 1.30905
310 1.24491
315 1.65158
320 1.36259
325 1.99918
330 1.51524
335 1.2507
340 1.71538
345 1.36676
350 1.88687
355 1.79351
360 1.56137
365 1.71393
370 1.69492
375 1.5861
380 1.58681
385 1.88622
390 1.8764
395 2.48662
400 1.89735
405 1.68056
410 1.8744
415 1.98138
420 1.48262
425 1.30085
430 2.19636
435 2.00875
440 1.77079
445 1.66293
450 1.61883
455 1.59924
460 1.97521
465 1.61366
470 1.94783
475 1.63725
480 1.50646
485 1.54836
490 2.25677
495 1.41603
500 1.56361
505 2.09209
510 1.60027
515 1.25173
520 1.24971
525 1.09481
530 1.22332
535 1.41057
540 1.43821
545 1.69942
550 1.48842
555 1.83992
560 1.38189
565 1.86978
570 1.80998
575 1.70526
580 1.34573
585 1.51909
590 1.50629
595 1.57718
600 3.13349
Ex : 293
200 1.06602
205 1.29793
210 1.21065
215 1.24625
220 1.43634
225 1.33705
230 1.2636
235 1.18158
240 1.34672
245 1.11262
250 0.866417
255 1.17239
260 1.25756
265 1.24746
270 1.12718
275 1.2352
280 0.973055
285 1.40598
290 1.32568
295 1.24488
300 1.53705
305 1.32644
310 1.4436
315 1.142
320 1.35863
325 1.12014
330 1.29194
335 1.27424
340 1.13615
345 1.35973
350 1.1845
355 1.15405
360 1.84008
365 1.40055
370 1.39551
375 1.89398
380 1.46848
385 1.43335
390 1.43106
395 1.58891
400 1.9669
405 1.6792
410 1.51749
415 1.87866
420 1.82725
425 1.55252
430 1.5493
435 1.58595
440 1.98072
445 1.70737
450 1.72782
455 1.30281
460 1.38292
465 1.45103
470 1.15777
475 1.17429
480 1.22134
485 1.8162
490 1.65508
495 1.616
500 1.24098
505 1.06242
510 1.34715
515 1.06029
520 1.35935
525 1.28467
530 1.41584
535 1.53259
540 0.959327
545 1.58271
550 1.21752
555 1.45458
560 1.25208
565 1.22013
570 1.19106
575 1.43293
580 1.61551
585 1.54196
590 1.27456
595 1.52732
600 0.173803
Ex : 298
200 0.863673
205 1.15094
210 0.983437
215 1.09074
220 0.835095
225 1.07331
230 1.07072
235 1.01961
240 1.04057
245 1.13998
250 1.42669
255 0.845974
260 0.884369
265 0.98828
270 0.882455
275 0.906711
280 1.19334
285 0.961045
290 0.909782
295 1.36159
300 0.901923
305 0.970369
310 1.31859
315 1.15458
320 1.46429
325 1.13307
330 1.11113
335 0.821461
340 1.18814
345 1.18549
350 1.05384
355 1.14661
360 1.04227
365 1.10016
370 1.27498
375 1.69992
380 1.03946
385 1.58625
390 1.40812
395 1.44398
400 1.27647
405 1.35813
410 1.29247
415 1.36916
420 1.62898
425 1.49679
430 1.63377
435 1.32143
440 1.57868
445 1.64318
450 1.46514
455 1.52678
460 1.2748
465 1.38633
470 1.39358
475 1.08393
480 1.38197
485 1.23689
490 1.08783
495 1.237
500 1.06715
505 0.935993
510 1.05713
515 0.996135
520 1.01966
525 1.16147
530 1.1322
535 1.14061
540 1.06802
545 0.768652
550 1.2902
555 1.19454
560 1.00979
565 0.988521
570 1.11055
575 0.725288
580 1.18445
585 0.96433
590 1.49725
595 1.2245
600 0.71996
Ex : 303
200 0.76096
205 0.948906
210 1.08712
215 0.708737
220 0.719638
225 0.652667
230 0.933086
235 0.842543
240 0.973865
245 0.981931
250 0.890858
255 1.02383
260 1.07175
265 0.894453
270 1.0627
275 1.06847
280 1.03497
285 1.27321
290 0.903681
295 1.17486
300 1.16981
305 0.776662
310 1.30452
315 0.918513
320 0.82529
325 0.982004
330 1.00428
335 0.879612
340 0.903936
345 1.21242
350 1.00605
355 1.00701
360 1.27505
365 1.08251
370 1.24013
375 1.05345
380 1.10857
385 1.39391
390 1.6789
395 1.71894
400 1.24626
405 1.14635
410 1.29397
415 1.52352
420 1.18716
425 1.3047
430 1.70028
435 1.34687
440 1.49142
445 1.31038
450 1.47858
455 1.37107
460 1.11699
465 1.30483
470 1.29815
475 1.23688
480 1.0638
485 1.14292
490 1.08325
495 0.832483
500 1.06514
505 1.20114
510 1.10952
515 1.17912
520 1.23485
525 0.990708
530 1.11905
535 1.06322
540 0.962774
545 1.06272
550 1.18425
555 1.15191
560 1.08998
565 0.811597
570 1.04781
575 0.827573
580 0.996963
585 0.889784
590 1.08749
595 1.26722
600 1.4414
Ex : 308
200 0.680136
205 0.981269
210 0.748312
215 0.932253
220 0.890545
225 0.798731
230 0.853835
235 0.847497
240 0.682313
245 0.838582
250 0.878955
255 0.744609
260 0.794865
265 0.737434
270 0.806318
275 0.751944
280 0.76309
285 0.762106
290 0.646608
295 0.638657
300 1.21565
305 1.03535
310 0.810122
315 0.880674
320 0.761534
325 0.761521
330 1.04073
335 1.06381
340 0.829141
345 0.938383
350 0.862746
355 0.877079
360 0.896231
365 1.37222
370 1.10538
375 1.20762
380 1.11412
385 1.24359
390 1.37606
395 1.62159
400 1.53841
405 1.14797
410 1.28575
415 1.25252
420 1.26269
425 1.43542
430 1.43956
435 1.48824
440 1.58689
445 1.21236
450 1.21739
455 1.09507
460 1.12635
465 1.12727
470 1.06746
475 1.01015
480 1.00339
485 0.957987
490 1.05145
495 0.945652
500 1.25924
505 1.18273
510 1.07164
515 1.11433
520 0.97562
525 1.11321
530 0.947555
535 0.891276
540 0.804791
545 0.878489
550 0.667228
555 1.15998
560 0.677634
565 0.771154
570 0.682169
575 0.871215
580 0.726219
585 0.809953
590 0.663861
595 0.797985
600 0.160314
Ex : 313
200 0.700628
205 0.670613
210 0.724618
215 0.742341
220 0.764363
225 0.670931
230 0.763423
235 0.78068
240 0.71518
245 0.684081
250 0.525233
255 0.655551
260 0.56195
265 0.48842
270 0.590924
275 0.655929
280 0.517499
285 0.513901
290 0.716445
295 0.610021
300 0.695232
305 1.03482
310 0.965421
315 0.912698
320 0.802008
325 0.83998
330 0.694078
335 0.916715
340 1.11552
345 0.830497
350 0.932075
355 0.968478
360 1.32632
365 1.20581
370 1.26002
375 1.53274
380 1.86984
385 1.96032
390 1.99767
395 1.83325
400 2.14763
405 2.07203
410 1.76047
415 2.14293
420 1.79957
425 1.73865
430 1.75075
435 1.82778
440 1.70606
445 1.90062
450 2.02086
455 1.79882
460 1.59078
465 1.22171
470 1.35441
475 1.29091
480 1.58747
485 1.21931
490 1.09809
495 1.1429
500 0.980509
505 0.871737
510 1.10318
515 0.864859
520 0.771533
525 0.717971
530 1.08139
535 0.884162
540 0.917668
545 0.861551
550 0.809922
555 0.712313
560 0.741977
565 0.807416
570 0.780282
575 0.660815
580 1.03191
585 0.704976
590 0.628686
595 0.764179
600 0.639535
Ex : 318
200 0.71169
205 0.572562
210 0.629945
215 0.578777
220 0.793831
225 0.685019
230 0.663635
235 0.750282
240 0.478638
245 0.658917
250 0.721713
255 0.67845
260 0.631
265 0.624863
270 0.691604
275 0.696097
280 0.804169
285 0.791831
290 0.60717
295 0.778539
300 0.701202
305 0.648912
310 0.930683
315 1.39235
320 1.23728
325 0.864027
330 1.38364
335 1.51924
340 2.13855
345 3.28729
350 3.95235
355 4.61483
360 5.78406
365 6.2738
370 7.8755
375 9.22634
380 9.82573
385 11.9716
390 12.7561
395 13.0901
400 14.5914
405 14.2793
410 13.6899
415 13.942
420 13.4887
425 13.4412
430 13.3501
435 12.5136
440 12.5248
445 11.7556
450 11.7911
455 10.2188
460 9.6661
465 8.9714
470 8.34558
475 7.15687
480 6.89733
485 5.9791
490 5.74892
495 4.76777
500 4.88241
505 4.1439
510 3.29654
515 3.13429
520 2.73332
525 2.45139
530 2.20914
535 2.28343
540 2.25238
545 1.77345
550 1.49076
555 1.38378
560 1.62514
565 1.26301
570 0.992354
575 1.04918
580 0.929536
585 0.841494
590 0.810787
595 0.798365
600 0.570878
Ex : 323
200 0.571113
205 0.532365
210 0.478792
215 0.546514
220 0.597573
225 0.675997
230 0.650985
235 0.527898
240 0.574043
245 0.560672
250 0.44119
255 0.595486
260 0.532957
265 0.591894
270 0.709001
275 0.493011
280 0.597541
285 0.571972
290 0.512139
295 0.620219
300 0.676443
305 0.580492
310 0.588777
315 3.67664
320 12.8207
325 6.2135
330 2.94941
335 4.04704
340 5.45721
345 7.76981
350 10.7798
355 14.1091
360 17.2994
365 20.1484
370 23.8073
375 27.4128
380 31.0271
385 34.6454
390 38.8193
395 41.5983
400 43.279
405 43.4559
410 44.2264
415 44.503
420 43.6263
425 41.5912
430 40.1298
435 39.3561
440 37.8308
445 35.87
450 34.2558
455 31.6081
460 28.8649
465 26.707
470 24.5678
475 23.1454
480 21.1883
485 18.737
490 16.8009
495 15.5195
500 13.2446
505 12.0049
510 10.6791
515 9.18516
520 8.36433
525 7.5682
530 6.05894
535 5.35483
540 5.28061
545 4.34778
550 3.78592
555 3.33005
560 2.90139
565 2.87855
570 2.13803
575 1.85519
580 1.6783
585 1.52019
590 1.08265
595 1.15108
600 1.81313
Ex : 328
200 0.446024
205 0.456276
210 0.535355
215 0.517293
220 0.507043
225 0.420619
230 0.520074
235 0.655693
240 0.600676
245 0.548181
250 0.485427
255 0.646458
260 0.484625
265 0.525944
270 0.487722
275 0.548593
280 0.443123
285 0.547674
290 0.53929
295 0.480042
300 0.594337
305 0.585403
310 0.586159
315 1.23275
320 26.3403
325 57.4905
330 19.3164
335 6.30739
340 5.98801
345 7.82402
350 9.66249
355 14.0871
360 19.6934
365 21.8965
370 24.5125
375 27.1517
380 30.9965
385 35.6847
390 37.8815
395 39.8759
400 41.516
405 41.513
410 43.5292
415 42.6302
420 41.0352
425 40.6623
430 38.9649
435 37.3286
440 36.0644
445 34.7762
450 32.4442
455 30.0885
460 27.9748
465 26.5922
470 23.7491
475 22.3673
480 20.7743
485 18.8448
490 17.3186
495 14.9541
500 13.0927
505 12.0204
510 11.5581
515 9.60984
520 8.785
525 7.71876
530 6.62335
535 5.99329
540 5.3331
545 4.81766
550 4.02746
555 3.77227
560 3.67058
565 2.77052
570 2.28287
575 2.25379
580 1.7613
585 1.42893
590 1.25505
595 1.31568
600 1.05094
Ex : 333
200 0.449385
205 0.358567
210 0.400172
215 0.339634
220 0.607043
225 0.479859
230 0.474749
235 0.524662
240 0.485795
245 0.528911
250 0.527618
255 0.483495
260 0.493653
265 0.501084
270 0.478805
275 0.517803
280 0.546672
285 0.611176
290 0.462761
295 0.550075
300 0.433994
305 0.629811
310 0.524807
315 0.442202
320 4.01619
325 65.1899
330 111.047
335 31.0901
340 7.42331
345 5.95634
350 6.53479
355 7.26685
360 11.115
365 15.8563
370 17.4762
375 17.205
380 18.3125
385 20.2932
390 23.4547
395 24.9852
400 25.6106
405 25.3701
410 26.4198
415 26.8613
420 26.2282
425 24.2027
430 24.0743
435 23.2047
440 22.0109
445 20.5758
450 19.3746
455 18.3263
460 17.4133
465 16.6722
470 14.8635
475 13.6737
480 12.9347
485 12.1292
490 10.8875
495 9.92036
500 9.18976
505 8.67485
510 7.82065
515 7.59842
520 6.59972
525 5.52608
530 5.11422
535 4.52455
540 4.34546
545 3.99881
550 3.55293
555 3.09813
560 2.78974
565 2.60154
570 2.32871
575 2.01174
580 1.49711
585 1.41477
590 1.21666
595 0.990489
600 1.0598
Ex : 338
200 0.486851
205 0.47325
210 0.418948
215 0.340622
220 0.472775
225 0.407952
230 0.393362
235 0.467294
240 0.424472
245 0.391672
250 0.386753
255 0.390299
260 0.471948
265 0.449354
270 0.505767
275 0.469613
280 0.552098
285 0.479051
290 0.525459
295 0.487343
300 0.419491
305 0.416565
310 0.420724
315 0.571645
320 0.519668
325 7.03181
330 95.3234
335 140.139
340 36.4476
345 7.2831
350 4.89248
355 4.7241
360 4.90501
365 7.28678
370 12.3001
375 12.7802
380 12.7345
385 13.5098
390 15.0973
395 16.4763
400 16.2241
405 16.4434
410 17.8412
415 18.3077
420 17.3617
425 16.3596
430 15.3151
435 15.6108
440 14.3727
445 14.2673
450 13.9658
455 12.7549
460 11.716
465 11.2844
470 10.7485
475 10.4596
480 9.74241
485 8.95416
490 8.23657
495 7.94759
500 7.58448
505 6.714
510 6.38197
515 5.83953
520 5.38296
525 4.79903
530 4.40791
535 4.16435
540 3.78494
545 3.59815
550 3.10804
555 2.73593
560 2.59734
565 2.3743
570 1.93644
575 1.99783
580 1.63449
585 1.20922
590 1.12113
595 0.95778
600 1.67251
Ex : 343
200 0.336034
205 0.436617
210 0.418021
215 0.372853
220 0.393419
225 0.435106
230 0.498454
235 0.403816
240 0.332159
245 0.492026
250 0.447537
255 0.483047
260 0.454572
265 0.530829
270 0.482695
275 0.397329
280 0.394233
285 0.459784
290 0.378541
295 0.389864
300 0.3946
305 0.491119
310 0.528446
315 0.496831
320 0.429857
325 0.421852
330 8.28678
335 110.408
340 155.24
345 38.1552
350 6.78383
355 4.26393
360 3.8006
365 3.68227
370 5.60607
375 9.78637
380 12.0955
385 12.0283
390 13.4785
395 13.2288
400 13.3499
405 13.8577
410 14.5778
415 15.8282
420 14.7409
425 14.0697
430 13.3463
435 12.8971
440 12.8362
445 12.1801
450 11.6362
455 10.7752
460 10.439
465 10.2144
470 9.28687
475 9.42152
480 8.79233
485 7.99394
490 7.7809
495 7.72764
500 7.15844
505 6.64929
510 6.19005
515 5.68319
520 5.23209
525 4.62115
530 4.45792
535 4.02002
540 3.57345
545 3.33793
550 3.11433
555 2.86347
560 2.51215
565 2.38633
570 2.12594
575 1.62112
580 1.40767
585 1.302
590 1.00165
595 1.06894
600 1.26348
Ex : 348
200 0.388162
205 0.343127
210 0.399003
215 0.396026
220 0.368779
225 0.342261
230 0.309579
235 0.433641
240 0.419538
245 0.296447
250 0.24652
255 0.423743
260 0.446449
265 0.460994
270 0.367421
275 0.530159
280 0.312479
285 0.379814
290 0.377053
295 0.507565
300 0.513448
305 0.315277
310 0.32603
315 0.429679
320 0.363615
325 0.543369
330 0.669816
335 7.74708
340 108.261
345 161.194
350 42.1879
355 7.02788
360 3.55506
365 3.39741
370 3.77385
375 4.75815
380 9.05449
385 14.4726
390 15.5169
395 15.4979
400 14.3078
405 14.4525
410 15.7706
415 16.8348
420 16.5283
425 14.9009
430 14.4582
435 13.9052
440 13.5374
445 12.528
450 12.1991
455 11.2142
460 10.6115
465 10.613
470 10.1484
475 9.88132
480 9.54555
485 8.52254
490 7.94487
495 7.5632
500 6.44456
505 6.69237
510 6.22564
515 5.70444
520 5.31133
525 4.94162
530 4.26222
535 4.12987
540 3.69568
545 3.37069
550 3.121
555 2.83973
560 2.45403
565 2.45025
570 2.02707
575 1.75549
580 1.65908
585 1.42392
590 1.07213
595 0.876702
600 1.44218
Ex : 353
200 0.308443
205 0.313536
210 0.343261
215 0.319973
220 0.344126
225 0.335974
230 0.343569
235 0.392327
240 0.339928
245 0.411747
250 0.369831
255 0.420682
260 0.308104
265 0.440528
270 0.487763
275 0.36098
280 0.351397
285 0.45422
290 0.521666
295 0.300317
300 0.421155
305 0.329916
310 0.399856
315 0.38772
320 0.396128
325 0.440128
330 0.445964
335 0.556543
340 8.03846
345 109
350 159.701
355 40.2901
360 6.83866
365 3.46383
370 3.64268
375 3.86037
380 5.28209
385 10.3074
390 17.0156
395 18.3148
400 16.0024
405 15.5783
410 15.7269
415 17.7244
420 17.1218
425 15.3561
430 14.2727
435 13.9239
440 13.9322
445 13.3953
450 12.9099
455 11.9465
460 11.0715
465 10.3869
470 10.382
475 9.92601
480 9.50438
485 8.89225
490 8.26734
495 8.09641
500 7.5728
505 6.91014
510 6.60587
515 6.28512
520 5.53321
525 5.13252
530 4.75693
535 4.3466
540 3.87093
545 3.61959
550 3.29617
555 3.21208
560 2.56847
565 2.22969
570 2.2915
575 1.72155
580 1.54399
585 1.10949
590 0.922659
595 0.863449
600 1.65896
Ex : 358
200 0.291744
205 0.303413
210 0.328176
215 0.347194
220 0.335978
225 0.410786
230 0.429349
235 0.295324
240 0.274448
245 0.342612
250 0.313313
255 0.280494
260 0.320351
265 0.388581
270 0.383799
275 0.344186
280 0.394414
285 0.254387
290 0.318652
295 0.387295
300 0.397212
305 0.347648
310 0.399976
315 0.5646
320 0.354951
325 0.314137
330 0.386362
335 0.453296
340 0.579275
345 7.34756
350 105.811
355 159.704
360 41.1355
365 6.68988
370 3.38179
375 3.87549
380 4.54178
385 6.85387
390 12.0424
395 17.493
400 16.8753
405 15.8088
410 15.9904
415 16.2195
420 15.8322
425 14.4173
430 13.6093
435 12.9406
440 13.1178
445 12.9639
450 12.0802
455 11.6185
460 10.8927
465 10.5249
470 10.0264
475 9.85937
480 9.47716
485 9.20358
490 8.72252
495 8.36339
500 7.83405
505 7.42351
510 6.84049
515 6.22919
520 6.00387
525 5.4603
530 4.92841
535 4.54234
540 4.07887
545 3.80709
550 3.46312
555 3.26914
560 2.88331
565 2.56194
570 2.10688
575 1.70851
580 1.52197
585 1.22465
590 1.06727
595 0.991066
600 0.688355
Ex : 363
200 0.34626
205 0.325302
210 0.351829
215 0.278352
220 0.374775
225 0.331619
230 0.291838
235 0.312111
240 0.361021
245 0.219944
250 0.337498
255 0.326407
260 0.348353
265 0.325692
270 0.272213
275 0.266605
280 0.278878
285 0.310525
290 0.281021
295 0.308623
300 0.363466
305 0.29775
310 0.281437
315 0.342464
320 0.424063
325 0.387438
330 0.38952
335 0.335124
340 0.402923
345 0.562495
350 6.53166
355 102.385
360 160.335
365 42.7724
370 6.88838
375 3.58162
380 5.30036
385 7.86365
390 11.2568
395 13.6508
400 16.6406
405 17.8789
410 17.7312
415 17.5849
420 15.8062
425 14.1698
430 13.631
435 13.6939
440 13.1273
445 12.5842
450 11.6229
455 11.4278
460 11.1414
465 11.0746
470 10.6782
475 10.2853
480 9.70352
485 9.54819
490 8.89612
495 8.46749
500 8.17516
505 7.72872
510 7.04917
515 6.62224
520 6.21524
525 5.85
530 4.95781
535 4.66983
540 4.3032
545 3.89531
550 3.47454
555 3.09567
560 3.13755
565 2.64805
570 2.24095
575 1.80962
580 1.57249
585 1.42181
590 1.06115
595 0.93511
600 1.09108
Ex : 368
200 0.268124
205 0.319892
210 0.333992
215 0.285876
220 0.290872
225 0.341491
230 0.31773
235 0.281849
240 0.228015
245 0.321348
250 0.278234
255 0.323398
260 0.297688
265 0.246943
270 0.341881
275 0.462922
280 0.310883
285 0.276816
290 0.277131
295 0.239604
300 0.285108
305 0.242689
310 0.338418
315 0.380646
320 0.31155
325 0.316571
330 0.362719
335 0.254764
340 0.361497
345 0.38448
350 0.511823
355 5.70704
360 98.7937
365 163.719
370 44.3253
375 7.53671
380 5.01511
385 8.88515
390 12.9191
395 15.0751
400 14.4393
405 17.7318
410 21.4777
415 21.6404
420 20.1239
425 17.0978
430 15.0356
435 14.8717
440 14.8553
445 14.3445
450 12.7988
455 12.1901
460 11.6253
465 11.4863
470 10.9858
475 10.5726
480 10.043
485 10.0582
490 10.0188
495 8.8356
500 8.16873
505 8.27813
510 7.78531
515 6.93648
520 6.45184
525 6.01964
530 5.55041
535 4.81502
540 4.65794
545 4.2803
550 3.57777
555 3.41155
560 2.85263
565 2.56847
570 2.28672
575 1.87121
580 1.58528
585 1.22832
590 1.12255
595 0.918848
600 0.715323
Ex : 373
200 0.341573
205 0.210919
210 0.270569
215 0.284537
220 0.271032
225 0.368248
230 0.197549
235 0.300887
240 0.340692
245 0.311594
250 0.316632
255 0.25929
260 0.284733
265 0.270796
270 0.284017
275 0.265479
280 0.268124
285 0.233207
290 0.284771
295 0.286851
300 0.290201
305 0.348554
310 0.259644
315 0.359096
320 0.407189
325 0.363421
330 0.285252
335 0.391175
340 0.356736
345 0.366831
350 0.454828
355 0.512806
360 6.93682
365 99.1555
370 160.328
375 43.8154
380 8.15667
385 7.05789
390 12.601
395 15.3312
400 14.4772
405 14.1372
410 17.6011
415 22.4096
420 21.1323
425 17.6627
430 14.9679
435 13.9283
440 14.3695
445 13.4691
450 12.8885
455 12.0597
460 11.09
465 11.4989
470 10.9888
475 10.6048
480 10.8367
485 9.9816
490 9.90911
495 9.81629
500 9.05656
505 8.41735
510 8.11127
515 7.60323
520 7.01947
525 6.1574
530 5.64874
535 5.31608
540 4.64982
545 4.29211
550 3.8576
555 3.59318
560 3.43607
565 2.8456
570 2.54581
575 2.14396
580 1.70773
585 1.42029
590 1.06741
595 0.945633
600 0.535563
Ex : 378
200 0.2843
205 0.280998
210 0.322054
215 0.286461
220 0.247562
225 0.200294
230 0.269087
235 0.289144
240 0.24957
245 0.215238
250 0.255579
255 0.238445
260 0.28727
265 0.247704
270 0.301354
275 0.19914
280 0.2841
285 0.250597
290 0.208426
295 0.260954
300 0.327443
305 0.32685
310 0.279201
315 0.252395
320 0.300449
325 0.305064
330 0.276096
335 0.323264
340 0.334007
345 0.388648
350 0.414856
355 0.374404
360 0.45259
365 6.25355
370 102.237
375 163.765
380 45.7977
385 10.1626
390 9.74975
395 11.9839
400 11.6729
405 11.2948
410 12.0409
415 14.8727
420 17.3467
425 15.5966
430 13.0811
435 11.8052
440 11.7602
445 11.5652
450 10.5623
455 10.3314
460 10.3072
465 10.1497
470 10.6929
475 10.5334
480 10.0702
485 10.1279
490 9.78454
495 9.60346
500 9.35657
505 8.61697
510 8.22738
515 7.48315
520 6.96078
525 6.56701
530 6.15617
535 5.46209
540 4.85059
545 4.62659
550 4.08789
555 3.79689
560 3.42206
565 2.71017
570 2.41587
575 2.15409
580 1.7006
585 1.34512
590 1.17825
595 1.01613
600 1.46121
Ex : 383
200 0.24479
205 0.272669
210 0.327009
215 0.290675
220 0.199634
225 0.249419
230 0.226051
235 0.245966
240 0.209654
245 0.236514
250 0.262145
255 0.277242
260 0.219988
265 0.265302
270 0.253148
275 0.233859
280 0.24537
285 0.267698
290 0.317344
295 0.25061
300 0.266236
305 0.238286
310 0.318087
315 0.195616
320 0.247882
325 0.256495
330 0.258601
335 0.280318
340 0.285765
345 0.295294
350 0.326437
355 0.327557
360 0.419777
365 0.583957
370 5.86103
375 99.7591
380 171.18
385 50.9823
390 13.7306
395 10.5284
400 10.3534
405 11.2979
410 11.9796
415 12.6866
420 12.7147
425 14.2322
430 13.9859
435 12.6665
440 12.2968
445 10.8607
450 10.3625
455 10.033
460 9.91205
465 9.79017
470 9.78224
475 9.84267
480 9.79419
485 9.69758
490 9.47911
495 9.09289
500 8.99081
505 8.72013
510 8.05644
515 7.37638
520 6.95533
525 6.25914
530 5.95016
535 5.49726
540 4.78661
545 4.51022
550 4.23817
555 3.79962
560 3.17121
565 2.87135
570 2.56662
575 2.14707
580 1.69262
585 1.28259
590 1.11393
595 1.07191
600 1.28381
Ex : 388
200 0.249127
205 0.276268
210 0.241489
215 0.243892
220 0.246776
225 0.253738
230 0.256838
235 0.198992
240 0.194313
245 0.2643
250 0.268053
255 0.280428
260 0.223749
265 0.237053
270 0.249264
275 0.278842
280 0.262319
285 0.208688
290 0.256997
295 0.28134
300 0.293861
305 0.298288
310 0.229102
315 0.282972
320 0.272151
325 0.297988
330 0.302194
335 0.282961
340 0.252706
345 0.314303
350 0.319262
355 0.320185
360 0.35407
365 0.421275
370 0.523325
375 6.5117
380 105.143
385 175.387
390 55.3191
395 17.2409
400 11.7359
405 11.9745
410 13.9828
415 15.0535
420 14.0319
425 12.8485
430 13.3874
435 14.8856
440 13.5653
445 12.3705
450 11.1355
455 10.082
460 9.81452
465 9.98656
470 10.13
475 10.0126
480 10.2373
485 10.0358
490 9.71677
495 9.48096
500 9.15015
505 8.51088
510 8.24425
515 7.47379
520 6.98034
525 6.36139
530 5.87398
535 5.4273
540 5.1389
545 4.44756
550 4.21191
555 3.79595
560 3.18298
565 3.17607
570 2.41951
575 2.06353
580 1.72294
585 1.3291
590 1.0937
595 0.949854
600 1.37787
Ex : 393
200 0.221541
205 0.22349
210 0.253155
215 0.288491
220 0.236872
225 0.277261
230 0.221009
235 0.2605
240 0.269431
245 0.262952
250 0.269579
255 0.221693
260 0.302793
265 0.194773
270 0.212787
275 0.20409
280 0.232318
285 0.223111
290 0.267913
295 0.35704
300 0.271299
305 0.25568
310 0.212727
315 0.180102
320 0.272444
325 0.269547
330 0.292205
335 0.225103
340 0.239996
345 0.215801
350 0.245347
355 0.267145
360 0.34485
365 0.334088
370 0.436943
375 0.571826
380 6.4039
385 107.313
390 182.59
395 58.8886
400 17.0079
405 11.7398
410 12.7856
415 15.1775
420 14.8542
425 12.8776
430 11.1104
435 12.1519
440 14.4438
445 13.7339
450 12.1461
455 10.6555
460 9.98881
465 9.81469
470 9.8947
475 10.1517
480 10.0313
485 9.89237
490 9.87632
495 9.4259
500 8.97383
505 8.73732
510 8.26712
515 7.60393
520 7.05376
525 6.78795
530 6.13507
535 5.50981
540 4.75049
545 4.51069
550 4.1384
555 3.84585
560 3.23029
565 3.06282
570 2.52102
575 2.18727
580 1.79915
585 1.32265
590 1.05638
595 0.984929
600 1.05455
Ex : 398
200 0.19183
205 0.164634
210 0.201856
215 0.218421
220 0.236649
225 0.162715
230 0.190731
235 0.17863
240 0.281216
245 0.220102
250 0.244481
255 0.20028
260 0.215663
265 0.279742
270 0.22739
275 0.220972
280 0.231442
285 0.263264
290 0.299489
295 0.198443
300 0.192727
305 0.253297
310 0.20198
315 0.331552
320 0.240033
325 0.289332
330 0.201274
335 0.258292
340 0.236007
345 0.287218
350 0.243805
355 0.27541
360 0.286068
365 0.316239
370 0.25786
375 0.554632
380 0.770817
385 7.03688
390 111.711
395 186.001
400 54.4745
405 11.9931
410 7.63592
415 9.18631
420 9.48028
425 8.3518
430 7.1329
435 6.95097
440 8.40517
445 10.7426
450 10.4325
455 9.06827
460 8.86164
465 8.59123
470 8.71437
475 9.24836
480 9.11019
485 9.1287
490 8.9688
495 8.75924
500 8.93342
505 8.3208
510 8.20726
515 7.5465
520 7.01552
525 6.70795
530 6.14645
535 5.71484
540 5.22741
545 4.85304
550 4.26397
555 3.84591
560 3.34467
565 2.95982
570 2.46997
575 2.04293
580 1.7592
585 1.31764
590 1.11348
595 0.932369
600 0.851112
Ex : 403
200 0.193855
205 0.200066
210 0.230159
215 0.258256
220 0.18596
225 0.198906
230 0.236744
235 0.220046
240 0.162492
245 0.198074
250 0.242502
255 0.213864
260 0.25153
265 0.220735
270 0.230317
275 0.261821
280 0.24266
285 0.217648
290 0.185483
295 0.241066
300 0.232626
305 0.224513
310 0.228311
315 0.225324
320 0.222231
325 0.212959
330 0.267576
335 0.255242
340 0.267357
345 0.264469
350 0.215441
355 0.280065
360 0.278322
365 0.2802
370 0.276184
375 0.362329
380 0.423349
385 0.851654
390 7.58333
395 112.494
400 180.376
405 50.8082
410 8.77413
415 4.4561
420 4.33727
425 4.47589
430 4.15173
435 3.91727
440 4.42724
445 5.3414
450 7.60435
455 8.59591
460 8.06347
465 8.02918
470 8.07902
475 7.95944
480 8.58511
485 8.71058
490 8.93487
495 8.79938
500 8.47004
505 8.50371
510 8.10532
515 7.51494
520 6.97863
525 6.47481
530 6.02738
535 5.59923
540 5.21894
545 4.74421
550 4.31007
555 4.18183
560 3.3194
565 3.07937
570 2.57517
575 2.11871
580 1.73766
585 1.33547
590 1.18611
595 1.03914
600 0.769339
Ex : 408
200 0.226043
205 0.176986
210 0.264481
215 0.197267
220 0.21085
225 0.226249
230 0.222236
235 0.196511
240 0.212227
245 0.189871
250 0.234124
255 0.294461
260 0.20804
265 0.271371
270 0.242955
275 0.250467
280 0.17734
285 0.166725
290 0.230852
295 0.272568
300 0.27922
305 0.188767
310 0.199786
315 0.237845
320 0.256584
325 0.230062
330 0.237435
335 0.224925
340 0.206515
345 0.27432
350 0.269457
355 0.229406
360 0.291188
365 0.280689
370 0.32655
375 0.30188
380 0.307119
385 0.420343
390 0.720925
395 6.77705
400 115.183
405 185.306
410 49.7498
415 7.94865
420 3.12896
425 2.88738
430 3.19588
435 3.17956
440 3.53237
445 3.84701
450 4.57974
455 6.82281
460 8.58274
465 8.4501
470 7.92885
475 8.39831
480 8.49492
485 8.51526
490 8.48494
495 8.74148
500 8.45305
505 8.16548
510 7.8346
515 7.49811
520 7.18844
525 6.35573
530 6.01475
535 5.78006
540 5.26245
545 4.57509
550 4.1153
555 3.78623
560 3.55067
565 3.10167
570 2.64375
575 2.23614
580 1.63151
585 1.54969
590 1.36125
595 0.936879
600 0.527634
Ex : 413
200 0.225268
205 0.162613
210 0.226603
215 0.238822
220 0.241605
225 0.285814
230 0.221731
235 0.242041
240 0.280543
245 0.186464
250 0.20435
255 0.301942
260 0.303939
265 0.243272
270 0.246783
275 0.271557
280 0.243614
285 0.214074
290 0.243526
295 0.182724
300 0.224755
305 0.207208
310 0.215934
315 0.165325
320 0.246063
325 0.241988
330 0.222113
335 0.218667
340 0.226636
345 0.339344
350 0.26087
355 0.214814
360 0.273538
365 0.221039
370 0.236956
375 0.296156
380 0.284034
385 0.351435
390 0.448343
395 0.520021
400 7.1311
405 117.506
410 185.646
415 48.8741
420 7.5154
425 2.89559
430 2.46103
435 3.22981
440 3.41116
445 3.43784
450 3.83743
455 4.46174
460 6.60339
465 8.7762
470 8.47612
475 8.76871
480 8.61617
485 8.54288
490 8.58626
495 8.44385
500 8.31741
505 8.29833
510 8.00437
515 7.17477
520 7.09503
525 6.65751
530 5.98819
535 5.59553
540 5.34342
545 4.77725
550 4.23766
555 3.9265
560 3.39851
565 3.11009
570 2.67804
575 2.06599
580 1.87595
585 1.44276
590 1.16126
595 0.818632
600 1.25317
Ex : 418
200 0.194674
205 0.261072
210 0.235919
215 0.260209
220 0.16558
225 0.194491
230 0.265458
235 0.221277
240 0.212093
245 0.21863
250 0.250387
255 0.229881
260 0.194834
265 0.216528
270 0.253743
275 0.281708
280 0.216593
285 0.223004
290 0.258633
295 0.199177
300 0.229005
305 0.219845
310 0.201768
315 0.225127
320 0.229621
325 0.203301
330 0.257605
335 0.245987
340 0.259246
345 0.260414
350 0.289735
355 0.24445
360 0.219997
365 0.255075
370 0.296186
375 0.325721
380 0.319493
385 0.313545
390 0.32789
395 0.349514
400 0.557058
405 6.76787
410 119.021
415 191
420 52.0678
425 7.70276
430 2.65366
435 2.44788
440 3.0967
445 3.10965
450 3.53077
455 4.10494
460 4.80516
465 6.03739
470 8.70265
475 9.31314
480 8.79096
485 8.76611
490 8.54457
495 8.12567
500 8.14083
505 7.718
510 7.29081
515 7.09113
520 6.92689
525 6.51262
530 5.89515
535 5.33068
540 4.83136
545 4.64616
550 4.28848
555 3.98063
560 3.5104
565 2.96848
570 2.71448
575 2.27426
580 1.70721
585 1.39845
590 1.15959
595 0.943751
600 0.783709
Ex : 423
200 0.222647
205 0.191072
210 0.210265
215 0.198114
220 0.240952
225 0.195509
230 0.222803
235 0.207988
240 0.208562
245 0.289859
250 0.229064
255 0.294357
260 0.273806
265 0.235613
270 0.241353
275 0.179524
280 0.216805
285 0.240253
290 0.263243
295 0.228754
300 0.216517
305 0.299812
310 0.207513
315 0.229622
320 0.218998
325 0.220588
330 0.235342
335 0.230854
340 0.236731
345 0.211335
350 0.26058
355 0.197104
360 0.245444
365 0.259099
370 0.319344
375 0.301599
380 0.281074
385 0.250699
390 0.378504
395 0.32661
400 0.378063
405 0.545615
410 7.39151
415 125.024
420 192.678
425 49.4955
430 7.1866
435 2.494
440 2.24663
445 3.02856
450 3.42844
455 3.67078
460 4.22636
465 5.00174
470 5.95252
475 8.05558
480 9.28477
485 8.63667
490 8.40833
495 8.36271
500 7.94785
505 7.47016
510 7.51442
515 6.73674
520 6.47713
525 6.083
530 5.81292
535 5.3291
540 4.74355
545 4.67969
550 4.18139
555 3.67885
560 3.15077
565 2.9349
570 2.67916
575 1.88837
580 1.62823
585 1.37535
590 1.13969
595 0.916164
600 0.638884
Ex : 428
200 0.226047
205 0.255642
210 0.237392
215 0.262924
220 0.21856
225 0.254917
230 0.249048
235 0.1924
240 0.248323
245 0.294848
250 0.233529
255 0.209012
260 0.319472
265 0.293899
270 0.211027
275 0.193951
280 0.19743
285 0.195242
290 0.204178
295 0.218318
300 0.27283
305 0.257462
310 0.201981
315 0.231708
320 0.224959
325 0.289616
330 0.272947
335 0.232665
340 0.267613
345 0.259372
350 0.254376
355 0.256779
360 0.301926
365 0.277304
370 0.272239
375 0.253893
380 0.262423
385 0.269827
390 0.278862
395 0.292832
400 0.319498
405 0.349249
410 0.549455
415 8.05692
420 126.909
425 196.218
430 52.3875
435 7.59715
440 2.65267
445 2.39515
450 3.21239
455 3.44917
460 3.99961
465 4.40897
470 4.75887
475 5.89013
480 7.55061
485 9.2962
490 8.70896
495 7.91987
500 8.01847
505 7.46045
510 7.15808
515 6.67712
520 6.32391
525 5.9521
530 5.41804
535 4.97203
540 4.79686
545 4.24362
550 4.09897
555 3.55734
560 3.21891
565 2.73467
570 2.37589
575 1.86361
580 1.6427
585 1.3366
590 1.12094
595 0.807561
600 0.703587
Ex : 433
200 0.194033
205 0.183465
210 0.251762
215 0.264999
220 0.267556
225 0.235618
230 0.171633
235 0.174449
240 0.258392
245 0.272145
250 0.254422
255 0.319554
260 0.244063
265 0.268484
270 0.227495
275 0.226584
280 0.238615
285 0.236914
290 0.20352
295 0.23484
300 0.270941
305 0.238428
310 0.200946
315 0.246155
320 0.244324
325 0.194391
330 0.295864
335 0.217462
340 0.270346
345 0.236218
350 0.208679
355 0.2921
360 0.23463
365 0.22758
370 0.2923
375 0.268735
380 0.276444
385 0.222117
390 0.330435
395 0.359917
400 0.352938
405 0.287216
410 0.446828
415 0.594717
420 8.64331
425 137.894
430 203.062
435 51.9219
440 7.50664
445 2.75011
450 2.59586
455 3.30722
460 3.86615
465 4.27585
470 4.75832
475 5.238
480 5.64896
485 6.89444
490 8.81875
495 8.49038
500 7.70174
505 7.38667
510 6.65583
515 6.20435
520 5.6919
525 5.40886
530 5.07482
535 4.649
540 4.4573
545 4.11015
550 3.78483
555 3.43575
560 3.13997
565 2.66421
570 2.33752
575 1.93235
580 1.55673
585 1.22801
590 1.10839
595 0.874059
600 1.11402
Ex : 438
200 0.270832
205 0.23713
210 0.219011
215 0.212608
220 0.298927
225 0.24326
230 0.215222
235 0.258449
240 0.290046
245 0.254215
250 0.221231
255 0.242186
260 0.297905
265 0.271156
270 0.261226
275 0.266416
280 0.293845
285 0.266794
290 0.215483
295 0.299942
300 0.220262
305 0.188427
310 0.265297
315 0.24228
320 0.264648
325 0.259185
330 0.218642
335 0.224602
340 0.229198
345 0.261117
350 0.25935
355 0.244558
360 0.29835
365 0.250482
370 0.274024
375 0.242925
380 0.311157
385 0.287782
390 0.254228
395 0.32558
400 0.321298
405 0.354464
410 0.331343
415 0.413736
420 0.545918
425 8.91462
430 137.593
435 216.492
440 55.0587
445 8.07834
450 3.15946
455 2.74591
460 3.38833
465 4.02729
470 4.39727
475 4.63723
480 5.01854
485 5.38015
490 6.11547
495 8.04246
500 8.38498
505 7.00135
510 6.37324
515 6.30875
520 5.70866
525 5.22167
530 4.89265
535 4.39273
540 4.13726
545 3.7153
550 3.66734
555 3.3187
560 2.78191
565 2.35824
570 2.17077
575 1.8228
580 1.44511
585 1.25172
590 0.991611
595 0.756269
600 0.826056
Ex : 443
200 0.245269
205 0.29351
210 0.253388
215 0.264303
220 0.24504
225 0.198225
230 0.220282
235 0.220205
240 0.268022
245 0.268651
250 0.25493
255 0.247112
260 0.24727
265 0.264964
270 0.222941
275 0.237875
280 0.239616
285 0.239471
290 0.223491
295 0.218785
300 0.281107
305 0.279356
310 0.291366
315 0.272683
320 0.258836
325 0.297214
330 0.26781
335 0.218849
340 0.248516
345 0.27808
350 0.222106
355 0.25167
360 0.224629
365 0.29552
370 0.297207
375 0.242588
380 0.229121
385 0.302575
390 0.232574
395 0.320827
400 0.305801
405 0.304044
410 0.281893
415 0.310664
420 0.437563
425 0.561932
430 9.52158
435 145.452
440 218.714
445 55.518
450 8.15898
455 3.09649
460 2.70511
465 3.52191
470 4.04119
475 4.40606
480 4.63149
485 4.65269
490 5.05775
495 5.34664
500 6.78941
505 7.41917
510 6.32709
515 5.9398
520 5.48087
525 4.81155
530 4.36326
535 4.06835
540 3.57054
545 3.53925
550 3.35203
555 2.86669
560 2.73998
565 2.35005
570 1.9593
575 1.72123
580 1.26342
585 1.07392
590 1.14382
595 0.832515
600 1.6161
Ex : 448
200 0.257661
205 0.24577
210 0.254561
215 0.1616
220 0.272402
225 0.245202
230 0.234009
235 0.222513
240 0.261318
245 0.308173
250 0.227345
255 0.241024
260 0.282296
265 0.203117
270 0.25892
275 0.267205
280 0.252918
285 0.231634
290 0.24523
295 0.232499
300 0.211241
305 0.20009
310 0.240074
315 0.260535
320 0.378261
325 0.380024
330 0.267718
335 0.302887
340 0.219419
345 0.234157
350 0.255665
355 0.188145
360 0.227396
365 0.264295
370 0.263859
375 0.273957
380 0.25566
385 0.250156
390 0.267027
395 0.317773
400 0.329239
405 0.239229
410 0.340418
415 0.32196
420 0.400077
425 0.490588
430 0.573979
435 9.74232
440 156.25
445 233.729
450 59.7418
455 8.85028
460 3.30455
465 2.89916
470 3.30858
475 3.82276
480 4.07324
485 4.33506
490 4.37252
495 4.52434
500 4.94384
505 5.63242
510 6.68474
515 5.98763
520 5.29175
525 4.92563
530 4.31839
535 3.5911
540 3.43887
545 3.10124
550 2.87786
555 2.82725
560 2.42936
565 2.11139
570 1.84735
575 1.55296
580 1.37553
585 1.02927
590 0.912464
595 0.808089
600 0.671632
Ex : 453
200 0.287708
205 0.202392
210 0.229549
215 0.263979
220 0.254114
225 0.225053
230 0.262522
235 0.228237
240 0.245077
245 0.259943
250 0.247089
255 0.239155
260 0.28107
265 0.175385
270 0.216831
275 0.21546
280 0.245881
285 0.2175
290 0.184547
295 0.188454
300 0.24404
305 0.203014
310 0.240938
315 0.272848
320 0.2186
325 0.247962
330 0.245347
335 0.277194
340 0.290492
345 0.278714
350 0.237907
355 0.276852
360 0.258221
365 0.211186
370 0.290833
375 0.251043
380 0.237284
385 0.319344
390 0.278238
395 0.268503
400 0.282631
405 0.320544
410 0.362001
415 0.259944
420 0.261036
425 0.350034
430 0.375473
435 0.499538
440 10.463
445 167.661
450 238.269
455 56.776
460 8.46959
465 3.27018
470 2.81476
475 3.17364
480 3.88812
485 3.67722
490 3.79211
495 3.79231
500 3.7985
505 4.03198
510 4.3725
515 5.76561
520 5.61871
525 4.56478
530 4.2103
535 3.9312
540 3.26696
545 2.91472
550 2.75488
555 2.48824
560 2.24878
565 2.15467
570 1.85071
575 1.51528
580 1.1765
585 0.986396
590 0.825505
595 0.760035
600 0.324531
Ex : 458
200 0.251935
205 0.253481
210 0.271886
215 0.29303
220 0.249602
225 0.211071
230 0.247792
235 0.26371
240 0.234408
245 0.265495
250 0.286373
255 0.239684
260 0.228083
265 0.247756
270 0.227897
275 0.211993
280 0.198254
285 0.29085
290 0.251553
295 0.23519
300 0.206851
305 0.27478
310 0.248953
315 0.26636
320 0.226
325 0.261056
330 0.244345
335 0.227726
340 0.216388
345 0.249686
350 0.301179
355 0.250295
360 0.257263
365 0.257344
370 0.247754
375 0.224575
380 0.304291
385 0.312225
390 0.244178
395 0.294686
400 0.313969
405 0.293568
410 0.293833
415 0.297737
420 0.27173
425 0.330809
430 0.400173
435 0.501634
440 0.714247
445 11.2882
450 170.341
455 246.235
460 59.9889
465 8.82501
470 3.14269
475 2.79567
480 2.99872
485 3.26287
490 3.4863
495 3.44655
500 3.25487
505 3.35232
510 3.34561
515 3.41582
520 4.45909
525 5.22396
530 4.26493
535 3.76088
540 3.3449
545 3.00672
550 2.48574
555 2.33216
560 2.05996
565 1.86071
570 1.72965
575 1.41353
580 1.17001
585 1.04881
590 0.87479
595 0.711937
600 0.637123
Ex : 463
200 0.289321
205 0.205675
210 0.240756
215 0.195797
220 0.174527
225 0.233404
230 0.181006
235 0.264602
240 0.279003
245 0.202758
250 0.217494
255 0.216266
260 0.198329
265 0.228129
270 0.262098
275 0.24939
280 0.229212
285 0.217812
290 0.265286
295 0.220161
300 0.23782
305 0.221296
310 0.26198
315 0.226954
320 0.243949
325 0.223413
330 0.220176
335 0.234834
340 0.236957
345 0.223002
350 0.260318
355 0.208582
360 0.22191
365 0.30716
370 0.223198
375 0.186078
380 0.231966
385 0.272786
390 0.258612
395 0.263766
400 0.210073
405 0.268083
410 0.25843
415 0.304396
420 0.281835
425 0.299304
430 0.317443
435 0.335022
440 0.502738
445 0.611229
450 11.3939
455 176.369
460 261.489
465 64.1044
470 9.21615
475 3.12875
480 2.4763
485 2.67051
490 3.00331
495 2.95664
500 2.88532
505 2.93943
510 2.87043
515 2.79484
520 3.02003
525 3.55616
530 4.5886
535 4.10745
540 3.2945
545 2.91708
550 2.67393
555 2.3286
560 2.02191
565 1.70616
570 1.53763
575 1.3438
580 1.00994
585 0.969474
590 0.77853
595 0.686071
600 0.53655
Ex : 468
200 0.171893
205 0.191981
210 0.241989
215 0.211317
220 0.257838
225 0.226686
230 0.250315
235 0.214144
240 0.185873
245 0.165924
250 0.2149
255 0.206737
260 0.20669
265 0.252624
270 0.229918
275 0.181527
280 0.272678
285 0.214156
290 0.223748
295 0.267795
300 0.257092
305 0.240291
310 0.19555
315 0.241874
320 0.236166
325 0.257445
330 0.200455
335 0.223462
340 0.240719
345 0.240895
350 0.22105
355 0.250623
360 0.220099
365 0.207825
370 0.209625
375 0.245958
380 0.262049
385 0.233042
390 0.24678
395 0.245433
400 0.273028
405 0.277041
410 0.237231
415 0.260872
420 0.314846
425 0.259101
430 0.347623
435 0.321935
440 0.321904
445 0.447901
450 0.559858
455 11.8249
460 176.043
465 274.513
470 67.2999
475 9.39743
480 2.943
485 2.25965
490 2.2387
495 2.50924
500 2.72035
505 2.52755
510 2.54939
515 2.47399
520 2.46208
525 2.39612
530 2.81875
535 3.95178
540 3.91842
545 2.90521
550 2.55375
555 2.32727
560 1.93985
565 1.82661
570 1.40301
575 1.13119
580 1.03964
585 0.882941
590 0.779304
595 0.631069
600 1.0404
Ex : 473
200 0.251929
205 0.243848
210 0.260569
215 0.219052
220 0.187585
225 0.178147
230 0.216694
235 0.220829
240 0.24409
245 0.194927
250 0.232703
255 0.243326
260 0.257265
265 0.22128
270 0.228438
275 0.207601
280 0.242899
285 0.203174
290 0.262537
295 0.25786
300 0.226306
305 0.26417
310 0.242374
315 0.221816
320 0.237571
325 0.247728
330 0.212971
335 0.218258
340 0.241908
345 0.188453
350 0.236615
355 0.247429
360 0.181768
365 0.174418
370 0.22929
375 0.203665
380 0.264341
385 0.326248
390 0.242031
395 0.264021
400 0.238074
405 0.238959
410 0.227061
415 0.284291
420 0.219096
425 0.224164
430 0.242997
435 0.320891
440 0.371455
445 0.343923
450 0.527703
455 0.630667
460 13.6616
465 192.598
470 267.69
475 62.616
480 8.83072
485 2.75041
490 2.10933
495 2.04597
500 2.52692
505 2.5216
510 2.26086
515 2.19144
520 2.21999
525 2.33728
530 2.31027
535 2.47285
540 3.41258
545 3.81687
550 2.83104
555 2.30829
560 2.17509
565 2.01332
570 1.51056
575 1.18613
580 0.998442
585 0.896247
590 0.787677
595 0.65823
600 0.526014
Ex : 478
200 0.258095
205 0.292606
210 0.323993
215 0.279016
220 0.313665
225 0.257847
230 0.245079
235 0.360536
240 0.255515
245 0.311363
250 0.287766
255 0.29431
260 0.211708
265 0.275043
270 0.284335
275 0.305286
280 0.318886
285 0.257393
290 0.265658
295 0.219453
300 0.276336
305 0.270963
310 0.281864
315 0.340169
320 0.310794
325 0.216314
330 0.243621
335 0.309905
340 0.232978
345 0.256563
350 0.278902
355 0.27454
360 0.300768
365 0.297725
370 0.264436
375 0.242628
380 0.3631
385 0.274409
390 0.295237
395 0.328818
400 0.327133
405 0.279363
410 0.321624
415 0.322826
420 0.288143
425 0.262167
430 0.37667
435 0.29916
440 0.385913
445 0.414996
450 0.392646
455 0.565563
460 0.79322
465 14.6301
470 193.024
475 263.025
480 64.4813
485 8.88727
490 2.70004
495 1.81636
500 1.88594
505 2.19585
510 2.30335
515 2.42377
520 2.26342
525 2.03887
530 2.25142
535 2.25325
540 2.17072
545 2.72608
550 3.24688
555 2.90694
560 2.2162
565 2.04035
570 1.82744
575 1.45418
580 1.14842
585 0.980632
590 0.763308
595 0.679918
600 0.296506
Ex : 483
200 0.372814
205 0.30057
210 0.284007
215 0.305151
220 0.299553
225 0.385278
230 0.339039
235 0.255842
240 0.313924
245 0.267727
250 0.262488
255 0.288677
260 0.222183
265 0.239421
270 0.234908
275 0.25207
280 0.302623
285 0.245244
290 0.257469
295 0.212889
300 0.278655
305 0.332062
310 0.2496
315 0.27432
320 0.253018
325 0.274939
330 0.315429
335 0.297822
340 0.251353
345 0.267324
350 0.277645
355 0.275725
360 0.296577
365 0.277877
370 0.29132
375 0.338983
380 0.294313
385 0.271837
390 0.236667
395 0.329299
400 0.216645
405 0.319035
410 0.322081
415 0.358034
420 0.383847
425 0.326894
430 0.291472
435 0.293631
440 0.268766
445 0.366926
450 0.461572
455 0.38732
460 0.549477
465 0.709897
470 11.7892
475 190.965
480 285.64
485 68.4242
490 9.33358
495 2.39764
500 1.68343
505 1.74441
510 1.83962
515 2.05116
520 2.12752
525 2.10773
530 2.14831
535 2.11753
540 2.09801
545 2.01547
550 2.04059
555 2.93839
560 2.98315
565 2.26672
570 1.76532
575 1.52507
580 1.22897
585 0.951974
590 0.830275
595 0.684234
600 0.694353
Ex : 488
200 0.286971
205 0.309734
210 0.248505
215 0.253069
220 0.306821
225 0.263806
230 0.322658
235 0.237565
240 0.252545
245 0.274849
250 0.261036
255 0.249824
260 0.332334
265 0.273454
270 0.346966
275 0.288486
280 0.330616
285 0.298912
290 0.359781
295 0.266658
300 0.265397
305 0.329184
310 0.263757
315 0.279565
320 0.327785
325 0.22932
330 0.251895
335 0.315617
340 0.285803
345 0.286415
350 0.282997
355 0.305663
360 0.329927
365 0.385919
370 0.357558
375 0.298297
380 0.357434
385 0.290059
390 0.343874
395 0.352771
400 0.328292
405 0.34099
410 0.363135
415 0.337038
420 0.416948
425 0.345892
430 0.287084
435 0.275501
440 0.377045
445 0.350916
450 0.386397
455 0.353535
460 0.595058
465 0.573935
470 0.788761
475 13.8049
480 203.086
485 280.071
490 66.7429
495 9.11086
500 2.36681
505 1.78322
510 1.59786
515 1.83943
520 2.23178
525 2.3107
530 2.06142
535 2.13841
540 1.9479
545 1.91849
550 1.7269
555 1.9402
560 2.41501
565 2.80087
570 2.10122
575 1.52144
580 1.31153
585 1.18911
590 0.855922
595 0.820768
600 0.540076
Ex : 493
200 0.299291
205 0.391886
210 0.291531
215 0.230896
220 0.274033
225 0.331722
230 0.317401
235 0.320949
240 0.368585
245 0.326958
250 0.271582
255 0.280453
260 0.286009
265 0.295667
270 0.25012
275 0.271579
280 0.24339
285 0.280631
290 0.285523
295 0.231751
300 0.288512
305 0.33209
310 0.285741
315 0.298403
320 0.321333
325 0.286254
330 0.281448
335 0.268996
340 0.321374
345 0.340203
350 0.325572
355 0.350037
360 0.250617
365 0.271132
370 0.331427
375 0.310374
380 0.330607
385 0.299337
390 0.362384
395 0.342944
400 0.291416
405 0.311422
410 0.305815
415 0.309444
420 0.288875
425 0.329153
430 0.32967
435 0.347428
440 0.377548
445 0.394064
450 0.335902
455 0.334134
460 0.417254
465 0.527821
470 0.516325
475 0.674347
480 13.0532
485 199.428
490 288.963
495 66.8982
500 8.82888
505 2.41703
510 1.72388
515 1.57121
520 1.85623
525 2.07537
530 2.25779
535 2.02086
540 1.78544
545 1.69178
550 1.71477
555 1.6247
560 1.53994
565 1.67591
570 2.36695
575 2.12592
580 1.36671
585 1.06578
590 0.984651
595 0.923667
600 0.51618
Ex : 498
200 0.30749
205 0.303972
210 0.330744
215 0.298634
220 0.30178
225 0.304011
230 0.332052
235 0.317645
240 0.259085
245 0.351372
250 0.445101
255 0.3189
260 0.316064
265 0.283998
270 0.370175
275 0.262235
280 0.283798
285 0.277061
290 0.305403
295 0.355326
300 0.443358
305 0.339008
310 0.270856
315 0.337422
320 0.291196
325 0.312625
330 0.315434
335 0.361384
340 0.333321
345 0.304542
350 0.337441
355 0.30444
360 0.293219
365 0.330116
370 0.423436
375 0.317908
380 0.315463
385 0.336659
390 0.374656
395 0.371887
400 0.409546
405 0.369085
410 0.324874
415 0.365588
420 0.349786
425 0.312257
430 0.336851
435 0.402469
440 0.428102
445 0.361136
450 0.409827
455 0.343516
460 0.468642
465 0.475697
470 0.549049
475 0.591252
480 0.699801
485 15.1745
490 212.224
495 281.247
500 64.7296
505 8.72299
510 2.4097
515 1.83565
520 1.64918
525 1.82156
530 2.06708
535 2.02035
540 1.96637
545 1.78424
550 1.68542
555 1.51987
560 1.61606
565 1.52954
570 1.65665
575 1.79285
580 1.87645
585 1.35439
590 0.997347
595 0.818944
600 1.00262
Ex : 503
200 0.283471
205 0.460943
210 0.438959
215 0.295017
220 0.394599
225 0.249289
230 0.316223
235 0.340589
240 0.360068
245 0.264958
250 0.269444
255 0.392365
260 0.369555
265 0.279685
270 0.353563
275 0.355597
280 0.340811
285 0.317579
290 0.287093
295 0.317892
300 0.423491
305 0.306425
310 0.285384
315 0.342702
320 0.335897
325 0.381819
330 0.395827
335 0.324135
340 0.314981
345 0.348698
350 0.307651
355 0.343756
360 0.374072
365 0.395828
370 0.370641
375 0.35591
380 0.332697
385 0.385396
390 0.347423
395 0.327039
400 0.396488
405 0.379815
410 0.38488
415 0.454895
420 0.383167
425 0.407967
430 0.360293
435 0.409598
440 0.385301
445 0.39267
450 0.379786
455 0.454426
460 0.511879
465 0.620428
470 0.506684
475 0.520453
480 0.719394
485 0.830138
490 13.8666
495 208.31
500 285.298
505 65.5575
510 8.85307
515 2.45532
520 1.91808
525 1.69641
530 1.97986
535 1.94737
540 1.98893
545 2.02753
550 1.73526
555 1.64532
560 1.5101
565 1.43161
570 1.24976
575 1.29305
580 1.29504
585 1.5373
590 1.31896
595 0.925246
600 0.93297
Ex : 508
200 0.364059
205 0.391572
210 0.358807
215 0.373353
220 0.326457
225 0.366859
230 0.354531
235 0.377936
240 0.413042
245 0.348383
250 0.329161
255 0.335797
260 0.293722
265 0.34538
270 0.341058
275 0.398971
280 0.337886
285 0.364886
290 0.348045
295 0.283633
300 0.290427
305 0.29996
310 0.379208
315 0.352264
320 0.351396
325 0.379387
330 0.520852
335 0.362002
340 0.360946
345 0.334002
350 0.439499
355 0.339121
360 0.364564
365 0.304069
370 0.329554
375 0.41913
380 0.391285
385 0.38401
390 0.299972
395 0.296473
400 0.309
405 0.35519
410 0.40316
415 0.30652
420 0.283284
425 0.318953
430 0.403033
435 0.361552
440 0.356256
445 0.362143
450 0.380504
455 0.374691
460 0.393339
465 0.366865
470 0.408428
475 0.553339
480 0.567892
485 0.72829
490 0.847424
495 15.1731
500 211.133
505 285.925
510 69.9704
515 9.60865
520 2.67875
525 1.97308
530 1.663
535 1.93222
540 1.97382
545 2.01203
550 1.71909
555 1.59929
560 1.25972
565 1.44218
570 1.1908
575 1.11886
580 1.0289
585 1.09024
590 1.31597
595 1.23972
600 0.62913
Ex : 513
200 0.340038
205 0.446484
210 0.357398
215 0.335288
220 0.473864
225 0.286676
230 0.287624
235 0.320865
240 0.260547
245 0.294208
250 0.336655
255 0.522201
260 0.317497
265 0.321664
270 0.326267
275 0.324848
280 0.378135
285 0.395215
290 0.283394
295 0.321243
300 0.387488
305 0.391139
310 0.392814
315 0.321579
320 0.347594
325 0.308134
330 0.438565
335 0.372951
340 0.443769
345 0.335369
350 0.312643
355 0.315998
360 0.403305
365 0.327825
370 0.472409
375 0.40272
380 0.378886
385 0.386204
390 0.391448
395 0.405508
400 0.348587
405 0.349759
410 0.389669
415 0.336025
420 0.416735
425 0.362059
430 0.419125
435 0.430033
440 0.339569
445 0.418106
450 0.424331
455 0.313697
460 0.331063
465 0.513424
470 0.468912
475 0.582493
480 0.60805
485 0.611967
490 0.684383
495 0.76595
500 14.0572
505 208.46
510 290.155
515 71.6166
520 9.74749
525 2.5365
530 1.84293
535 1.76157
540 1.50941
545 1.70636
550 1.64618
555 1.52251
560 1.40961
565 1.3418
570 1.21975
575 1.10848
580 0.932227
585 0.953827
590 0.825675
595 1.08953
600 0.692408
Ex : 518
200 0.297577
205 0.42905
210 0.356046
215 0.387192
220 0.387938
225 0.333799
230 0.343013
235 0.342093
240 0.291708
245 0.362704
250 0.265444
255 0.384181
260 0.496061
265 0.362661
270 0.397973
275 0.368145
280 0.365304
285 0.344511
290 0.338415
295 0.541703
300 0.3703
305 0.35753
310 0.374989
315 0.393592
320 0.396475
325 0.347461
330 0.324208
335 0.322994
340 0.379175
345 0.47429
350 0.416002
355 0.37127
360 0.493349
365 0.381652
370 0.295155
375 0.35001
380 0.371563
385 0.418191
390 0.47448
395 0.441254
400 0.425619
405 0.355683
410 0.354374
415 0.385654
420 0.392654
425 0.547975
430 0.337578
435 0.341767
440 0.532108
445 0.40853
450 0.376784
455 0.42563
460 0.403887
465 0.464075
470 0.43395
475 0.404941
480 0.488578
485 0.533268
490 0.610095
495 0.608093
500 0.841046
505 14.2496
510 201.09
515 288.795
520 71.2597
525 9.64917
530 2.35094
535 1.6607
540 1.5346
545 1.54778
550 1.5696
555 1.64062
560 1.5005
565 1.30639
570 1.0808
575 1.02819
580 0.959975
585 0.874885
590 0.684137
595 0.696272
600 0.69415
Ex : 523
200 0.431037
205 0.40076
210 0.430335
215 0.377008
220 0.350309
225 0.491647
230 0.33328
235 0.399961
240 0.446739
245 0.363608
250 0.387457
255 0.420471
260 0.375093
265 0.415491
270 0.310901
275 0.3572
280 0.35586
285 0.368077
290 0.36031
295 0.366061
300 0.430755
305 0.381131
310 0.353639
315 0.375788
320 0.417334
325 0.418544
330 0.439707
335 0.429335
340 0.463875
345 0.340855
350 0.401714
355 0.402262
360 0.429934
365 0.391006
370 0.315596
375 0.39521
380 0.442484
385 0.392507
390 0.474046
395 0.436965
400 0.450838
405 0.473055
410 0.398108
415 0.458576
420 0.383711
425 0.444819
430 0.460465
435 0.452349
440 0.498951
445 0.553778
450 0.521226
455 0.498706
460 0.468288
465 0.45417
470 0.376794
475 0.481652
480 0.516109
485 0.553869
490 0.662385
495 0.558997
500 0.714962
505 0.774812
510 12.7896
515 192.289
520 284.417
525 72.8914
530 9.75228
535 2.3643
540 1.3873
545 1.33713
550 1.30333
555 1.29194
560 1.50586
565 1.28065
570 1.30056
575 1.02547
580 0.836061
585 0.711219
590 0.712137
595 0.726623
600 1.27382
Ex : 528
200 0.482495
205 0.450197
210 0.431367
215 0.353643
220 0.419068
225 0.453361
230 0.455165
235 0.417495
240 0.42489
245 0.444447
250 0.512862
255 0.3785
260 0.44915
265 0.395406
270 0.432356
275 0.504979
280 0.417722
285 0.385951
290 0.368826
295 0.338076
300 0.378079
305 0.448246
310 0.345469
315 0.424272
320 0.408739
325 0.3993
330 0.464078
335 0.417503
340 0.427396
345 0.457932
350 0.424002
355 0.344277
360 0.44392
365 0.404197
370 0.563586
375 0.43687
380 0.404008
385 0.407585
390 0.535553
395 0.347986
400 0.357315
405 0.391146
410 0.396699
415 0.454278
420 0.419595
425 0.400449
430 0.416015
435 0.370464
440 0.385458
445 0.437496
450 0.439692
455 0.479884
460 0.388348
465 0.463491
470 0.426699
475 0.402874
480 0.560661
485 0.521881
490 0.597588
495 0.537958
500 0.686931
505 0.674405
510 0.844475
515 11.54
520 187.505
525 282.073
530 71.3899
535 9.51696
540 2.36181
545 1.52562
550 1.29764
555 1.15365
560 1.29784
565 1.24934
570 1.23858
575 1.03764
580 0.836769
585 0.706875
590 0.72782
595 0.716701
600 0.56897
Ex : 533
200 0.420752
205 0.442396
210 0.472177
215 0.422021
220 0.391044
225 0.481172
230 0.459491
235 0.400859
240 0.326812
245 0.381602
250 0.363949
255 0.343218
260 0.554207
265 0.392051
270 0.388463
275 0.493622
280 0.445184
285 0.399241
290 0.411444
295 0.451949
300 0.338111
305 0.438783
310 0.419845
315 0.330499
320 0.435671
325 0.505956
330 0.377641
335 0.379409
340 0.383827
345 0.408041
350 0.532749
355 0.559901
360 0.364751
365 0.406165
370 0.484971
375 0.361639
380 0.366894
385 0.49057
390 0.351146
395 0.456917
400 0.409586
405 0.387579
410 0.309124
415 0.423484
420 0.385665
425 0.510788
430 0.400595
435 0.444884
440 0.435495
445 0.404208
450 0.479471
455 0.358944
460 0.571107
465 0.440566
470 0.481421
475 0.537915
480 0.443701
485 0.595951
490 0.578004
495 0.557896
500 0.51864
505 0.55361
510 0.666079
515 0.806229
520 11.9445
525 182.913
530 274.106
535 72.1303
540 9.46176
545 2.21629
550 1.34842
555 1.07421
560 1.10381
565 0.962958
570 0.994449
575 1.08185
580 1.04611
585 0.949669
590 0.86443
595 0.710019
600 0.569217
Ex : 538
200 0.3476
205 0.364413
210 0.382981
215 0.430844
220 0.443731
225 0.362391
230 0.489844
235 0.375143
240 0.477017
245 0.495762
250 0.350689
255 0.452153
260 0.433364
265 0.356812
270 0.463658
275 0.439189
280 0.394599
285 0.413445
290 0.494846
295 0.36052
300 0.386383
305 0.446355
310 0.411009
315 0.499293
320 0.404947
325 0.402162
330 0.470097
335 0.413032
340 0.506946
345 0.488716
350 0.411323
355 0.475911
360 0.42081
365 0.432494
370 0.512556
375 0.43838
380 0.394923
385 0.369689
390 0.530909
395 0.46666
400 0.387892
405 0.427428
410 0.514276
415 0.41132
420 0.415575
425 0.401848
430 0.499703
435 0.512361
440 0.451626
445 0.400126
450 0.435588
455 0.404525
460 0.475795
465 0.464903
470 0.519327
475 0.438845
480 0.497346
485 0.462402
490 0.439509
495 0.462164
500 0.490737
505 0.624875
510 0.594015
515 0.766694
520 0.82686
525 10.6665
530 173.677
535 276.815
540 74.2183
545 9.65679
550 2.16746
555 1.41649
560 1.4149
565 1.15164
570 0.871104
575 0.928936
580 0.942305
585 0.852539
590 0.769265
595 0.720381
600 0.213072
Ex : 543
200 0.445327
205 0.460457
210 0.476005
215 0.489566
220 0.462704
225 0.44497
230 0.448927
235 0.432523
240 0.49703
245 0.400702
250 0.540668
255 0.529898
260 0.472211
265 0.395743
270 0.496652
275 0.413412
280 0.49285
285 0.507399
290 0.314225
295 0.466838
300 0.498159
305 0.467052
310 0.429624
315 0.399549
320 0.448604
325 0.528928
330 0.40471
335 0.385424
340 0.550262
345 0.386146
350 0.535964
355 0.432094
360 0.437432
365 0.415392
370 0.482007
375 0.416572
380 0.403625
385 0.497038
390 0.486693
395 0.44851
400 0.436786
405 0.395988
410 0.393167
415 0.444726
420 0.506531
425 0.456639
430 0.426572
435 0.366422
440 0.416117
445 0.492395
450 0.47895
455 0.507706
460 0.529116
465 0.434435
470 0.425874
475 0.504376
480 0.547185
485 0.458866
490 0.37051
495 0.370049
500 0.456278
505 0.443558
510 0.724873
515 0.605269
520 0.672004
525 0.779336
530 9.81409
535 169.846
540 276.717
545 77.1674
550 10.024
555 1.98622
560 1.28653
565 0.971493
570 0.945238
575 0.894099
580 0.916429
585 0.835122
590 0.888605
595 0.784184
600 0.895362
Ex : 548
200 0.468927
205 0.328616
210 0.384767
215 0.54504
220 0.343798
225 0.483888
230 0.452633
235 0.326291
240 0.364986
245 0.399358
250 0.408371
255 0.408584
260 0.362883
265 0.546434
270 0.52774
275 0.367801
280 0.375431
285 0.376226
290 0.37711
295 0.39014
300 0.459082
305 0.529306
310 0.498437
315 0.439649
320 0.410419
325 0.35392
330 0.412108
335 0.430596
340 0.539966
345 0.481891
350 0.398587
355 0.508835
360 0.428486
365 0.55318
370 0.41247
375 0.418082
380 0.431479
385 0.407034
390 0.457401
395 0.507429
400 0.384372
405 0.364513
410 0.485307
415 0.571527
420 0.421944
425 0.428883
430 0.452427
435 0.45058
440 0.431246
445 0.38803
450 0.416155
455 0.416277
460 0.465841
465 0.471729
470 0.441995
475 0.541498
480 0.4723
485 0.422513
490 0.419213
495 0.512496
500 0.49763
505 0.571959
510 0.55036
515 0.648678
520 0.699811
525 0.71684
530 0.818354
535 10.4627
540 171.155
545 274.967
550 77.0024
555 9.91359
560 2.09856
565 1.12157
570 0.934147
575 0.840836
580 0.804567
585 0.823327
590 0.713782
595 0.738723
600 0.410852
Ex : 553
200 0.448498
205 0.427331
210 0.495141
215 0.474459
220 0.574181
225 0.496114
230 0.403412
235 0.509181
240 0.509982
245 0.379755
250 0.454136
255 0.456805
260 0.424934
265 0.415736
270 0.497984
275 0.510282
280 0.420401
285 0.379379
290 0.372337
295 0.474838
300 0.409716
305 0.468483
310 0.449886
315 0.517064
320 0.480255
325 0.571649
330 0.482541
335 0.487413
340 0.481254
345 0.641515
350 0.414911
355 0.584913
360 0.413555
365 0.431
370 0.519497
375 0.473218
380 0.564417
385 0.437661
390 0.480219
395 0.456373
400 0.428484
405 0.432672
410 0.445682
415 0.435636
420 0.573936
425 0.520836
430 0.528063
435 0.407362
440 0.380752
445 0.418787
450 0.495405
455 0.496542
460 0.613633
465 0.566454
470 0.6615
475 0.440119
480 0.51913
485 0.55695
490 0.463587
495 0.613501
500 0.62932
505 0.60246
510 0.48253
515 0.453169
520 0.538503
525 0.607459
530 0.80113
535 0.737981
540 8.99258
545 162.564
550 270.331
555 75.9036
560 9.66987
565 1.99498
570 1.13755
575 0.909813
580 0.778775
585 0.729198
590 0.745552
595 0.755241
600 1.49243
Ex : 558
200 0.455006
205 0.432735
210 0.53775
215 0.451412
220 0.385311
225 0.520925
230 0.370849
235 0.395803
240 0.453221
245 0.486751
250 0.519283
255 0.448171
260 0.457861
265 0.463836
270 0.449242
275 0.410359
280 0.42543
285 0.443414
290 0.483266
295 0.462822
300 0.515053
305 0.545312
310 0.420536
315 0.493721
320 0.429649
325 0.401741
330 0.560415
335 0.437898
340 0.421713
345 0.423036
350 0.544617
355 0.370085
360 0.423835
365 0.420743
370 0.634385
375 0.549247
380 0.386144
385 0.459611
390 0.413374
395 0.439668
400 0.412912
405 0.455015
410 0.513846
415 0.357779
420 0.392916
425 0.500123
430 0.364219
435 0.47899
440 0.594978
445 0.529778
450 0.581541
455 0.46293
460 0.48226
465 0.465422
470 0.440034
475 0.544545
480 0.48321
485 0.491255
490 0.608208
495 0.488267
500 0.47521
505 0.506935
510 0.476543
515 0.489554
520 0.556417
525 0.757895
530 0.554035
535 0.759652
540 0.834799
545 8.81046
550 154.047
555 260.186
560 75.3878
565 9.9807
570 2.09261
575 0.92941
580 0.911868
585 0.755063
590 0.728925
595 0.647231
600 1.00712
Ex : 563
200 0.299247
205 0.427042
210 0.485508
215 0.458454
220 0.514931
225 0.547572
230 0.44733
235 0.366165
240 0.455094
245 0.435844
250 0.534192
255 0.468177
260 0.564559
265 0.559841
270 0.45678
275 0.507081
280 0.513161
285 0.492494
290 0.408315
295 0.474106
300 0.50543
305 0.506182
310 0.493647
315 0.507288
320 0.492497
325 0.483469
330 0.459403
335 0.405305
340 0.534982
345 0.501941
350 0.466237
355 0.53628
360 0.426192
365 0.455961
370 0.513573
375 0.416293
380 0.512461
385 0.532448
390 0.544865
395 0.583411
400 0.514729
405 0.501311
410 0.458444
415 0.461882
420 0.515972
425 0.42832
430 0.527395
435 0.575346
440 0.512433
445 0.460418
450 0.546724
455 0.487183
460 0.417493
465 0.479739
470 0.478327
475 0.550333
480 0.690067
485 0.54113
490 0.635555
495 0.459463
500 0.563371
505 0.581378
510 0.513408
515 0.5973
520 0.634363
525 0.514634
530 0.753
535 0.602968
540 0.801731
545 0.864504
550 8.36932
555 146.959
560 249.366
565 73.3665
570 9.51997
575 1.90711
580 1.0805
585 0.839515
590 0.795536
595 0.714392
600 0.0812951
Ex : 568
200 0.463275
205 0.402199
210 0.441025
215 0.466443
220 0.460631
225 0.404012
230 0.518749
235 0.622048
240 0.619533
245 0.470061
250 0.473801
255 0.351118
260 0.447106
265 0.361659
270 0.441638
275 0.585289
280 0.502106
285 0.546981
290 0.415856
295 0.496583
300 0.41429
305 0.522551
310 0.515725
315 0.504642
320 0.551759
325 0.495669
330 0.463286
335 0.464366
340 0.682895
345 0.643809
350 0.458256
355 0.589424
360 0.526565
365 0.447446
370 0.443528
375 0.472201
380 0.494505
385 0.566813
390 0.587467
395 0.550126
400 0.589408
405 0.66234
410 0.526453
415 0.522433
420 0.404161
425 0.434506
430 0.530868
435 0.520477
440 0.509462
445 0.550193
450 0.552636
455 0.527577
460 0.557131
465 0.580755
470 0.5271
475 0.605199
480 0.475587
485 0.498874
490 0.515229
495 0.644051
500 0.587241
505 0.668054
510 0.569059
515 0.595941
520 0.472534
525 0.653983
530 0.839468
535 0.692589
540 0.691196
545 0.82483
550 0.776391
555 6.69133
560 136.123
565 246.87
570 75.7303
575 9.58971
580 1.90536
585 0.936084
590 0.700641
595 0.751909
600 0.217552
Ex : 573
200 0.526509
205 0.555796
210 0.520228
215 0.590582
220 0.35076
225 0.495597
230 0.551296
235 0.561051
240 0.482885
245 0.505723
250 0.492133
255 0.463451
260 0.490248
265 0.407795
270 0.456871
275 0.502145
280 0.468169
285 0.594278
290 0.479583
295 0.542577
300 0.426341
305 0.390709
310 0.517062
315 0.401677
320 0.457278
325 0.469037
330 0.498812
335 0.455354
340 0.552297
345 0.570981
350 0.594901
355 0.477977
360 0.441903
365 0.497337
370 0.491573
375 0.504148
380 0.476049
385 0.486282
390 0.532845
395 0.562741
400 0.53631
405 0.548877
410 0.410894
415 0.500068
420 0.40509
425 0.440891
430 0.622088
435 0.489566
440 0.539756
445 0.586963
450 0.562914
455 0.599592
460 0.607377
465 0.566679
470 0.479845
475 0.621955
480 0.560537
485 0.681838
490 0.624212
495 0.575533
500 0.422357
505 0.527903
510 0.597129
515 0.623764
520 0.506424
525 0.604363
530 0.685048
535 0.599617
540 0.636798
545 0.673481
550 0.603513
555 0.853416
560 5.88324
565 119.545
570 228.053
575 69.3811
580 9.07346
585 1.72378
590 0.837487
595 0.902619
600 0.878143
Ex : 578
200 0.511682
205 0.492055
210 0.531942
215 0.408541
220 0.536078
225 0.524032
230 0.526081
235 0.503207
240 0.490757
245 0.555325
250 0.643257
255 0.520616
260 0.477154
265 0.590563
270 0.550734
275 0.630368
280 0.484473
285 0.495994
290 0.54109
295 0.513991
300 0.616524
305 0.515184
310 0.53542
315 0.651998
320 0.472217
325 0.40921
330 0.491195
335 0.38568
340 0.473826
345 0.430006
350 0.542875
355 0.530181
360 0.507269
365 0.554198
370 0.478079
375 0.625094
380 0.73323
385 0.502098
390 0.543875
395 0.491575
400 0.447574
405 0.474839
410 0.572933
415 0.464381
420 0.437539
425 0.422431
430 0.484147
435 0.464896
440 0.506403
445 0.562477
450 0.674461
455 0.603718
460 0.578112
465 0.440375
470 0.440349
475 0.456121
480 0.554644
485 0.643247
490 0.602672
495 0.55137
500 0.575868
505 0.635245
510 0.56418
515 0.582681
520 0.48325
525 0.554625
530 0.484847
535 0.550217
540 0.521393
545 0.679834
550 0.590344
555 0.755358
560 0.734613
565 4.97536
570 106.469
575 202.365
580 61.689
585 8.07546
590 1.74208
595 0.793477
600 0.438212
Ex : 583
200 0.5427
205 0.490358
210 0.652582
215 0.534627
220 0.528154
225 0.463475
230 0.477841
235 0.54435
240 0.511621
245 0.491256
250 0.5097
255 0.6829
260 0.473229
265 0.530683
270 0.600105
275 0.527332
280 0.692565
285 0.430138
290 0.485291
295 0.551512
300 0.62033
305 0.443267
310 0.478037
315 0.556581
320 0.489311
325 0.712135
330 0.568634
335 0.505008
340 0.548562
345 0.558084
350 0.520052
355 0.447503
360 0.456785
365 0.637399
370 0.469434
375 0.450225
380 0.553213
385 0.60185
390 0.521653
395 0.595306
400 0.534652
405 0.546478
410 0.577139
415 0.554695
420 0.540271
425 0.471181
430 0.602292
435 0.575858
440 0.542742
445 0.66149
450 0.514179
455 0.570683
460 0.490915
465 0.452186
470 0.543391
475 0.428319
480 0.588348
485 0.484991
490 0.52143
495 0.533694
500 0.62516
505 0.607415
510 0.542607
515 0.563067
520 0.583272
525 0.423508
530 0.591603
535 0.501574
540 0.49508
545 0.531108
550 0.70555
555 0.631132
560 0.564833
565 0.711366
570 4.88534
575 95.1932
580 176.683
585 49.5447
590 6.44338
595 1.28132
600 0.450442
Ex : 588
200 0.739097
205 0.455115
210 0.453622
215 0.383819
220 0.633909
225 0.561029
230 0.403397
235 0.521532
240 0.529729
245 0.576579
250 0.497453
255 0.698406
260 0.557857
265 0.38512
270 0.541953
275 0.537612
280 0.417364
285 0.472116
290 0.506179
295 0.63967
300 0.495482
305 0.436452
310 0.598439
315 0.68043
320 0.487656
325 0.591678
330 0.554374
335 0.561151
340 0.510202
345 0.548919
350 0.580762
355 0.609579
360 0.607801
365 0.485191
370 0.475908
375 0.629253
380 0.456611
385 0.5595
390 0.641768
395 0.765441
400 0.500564
405 0.540176
410 0.538943
415 0.525951
420 0.510273
425 0.46745
430 0.593032
435 0.467205
440 0.483433
445 0.644684
450 0.472993
455 0.610294
460 0.529718
465 0.566828
470 0.640028
475 0.577397
480 0.526627
485 0.633424
490 0.6343
495 0.532959
500 0.482303
505 0.404853
510 0.66185
515 0.490404
520 0.494996
525 0.682373
530 0.568596
535 0.512063
540 0.529211
545 0.519489
550 0.497218
555 0.586845
560 0.667129
565 0.71143
570 0.752402
575 4.05576
580 78.9093
585 149.312
590 45.1748
595 5.83738
600 1.1574
Ex : 593
200 0.39415
205 0.589345
210 0.471211
215 0.53568
220 0.73541
225 0.512884
230 0.485989
235 0.460755
240 0.557205
245 0.5398
250 0.621405
255 0.54127
260 0.542809
265 0.51547
270 0.562899
275 0.624071
280 0.653211
285 0.601865
290 0.488112
295 0.608642
300 0.551013
305 0.479855
310 0.510368
315 0.722375
320 0.458196
325 0.496836
330 0.374187
335 0.661788
340 0.575405
345 0.53992
350 0.662616
355 0.609517
360 0.555469
365 0.516328
370 0.56233
375 0.628458
380 0.502714
385 0.776648
390 0.553717
395 0.498989
400 0.605055
405 0.524696
410 0.463773
415 0.526547
420 0.524967
425 0.572273
430 0.661322
435 0.769585
440 0.655256
445 0.623193
450 0.668366
455 0.50788
460 0.633729
465 0.581812
470 0.629573
475 0.530264
480 0.520927
485 0.663114
490 0.695287
495 0.479612
500 0.469412
505 0.579228
510 0.440751
515 0.599631
520 0.797035
525 0.527829
530 0.674003
535 0.573647
540 0.662868
545 0.613927
550 0.59348
555 0.680993
560 0.59071
565 0.795333
570 0.82302
575 0.767072
580 3.68124
585 70.3483
590 129.909
595 39.6998
600 6.20886
Ex : 598
200 0.590387
205 0.610965
210 0.711214
215 0.500041
220 0.704139
225 0.642696
230 0.547795
235 0.483037
240 0.471444
245 0.542738
250 0.570689
255 0.534658
260 0.673098
265 0.714431
270 0.515461
275 0.477205
280 0.569713
285 0.744483
290 0.698561
295 0.616904
300 0.581832
305 0.405996
310 0.435639
315 0.650453
320 0.564857
325 0.436357
330 0.499566
335 0.707559
340 0.591107
345 0.46564
350 0.571914
355 0.613525
360 0.443768
365 0.652968
370 0.607598
375 0.675266
380 0.645958
385 0.600017
390 0.657902
395 0.595976
400 0.734627
405 0.632726
410 0.537758
415 0.520605
420 0.579114
425 0.651102
430 0.489378
435 0.466564
440 0.59812
445 0.615536
450 0.605612
455 0.744172
460 0.647435
465 0.513331
470 0.530346
475 0.610917
480 0.645209
485 0.593217
490 0.564536
495 0.588852
500 0.74389
505 0.599317
510 0.691646
515 0.653739
520 0.583473
525 0.441719
530 0.468223
535 0.533472
540 0.769184
545 0.606736
550 0.610302
555 0.571384
560 0.505044
565 0.572742
570 0.559936
575 0.675345
580 0.754801
585 3.46713
590 63.5321
595 112.095
600 63.9605
Ex : 603
200 0.671013
205 0.576941
210 0.642594
215 0.548816
220 0.661014
225 0.640232
230 0.568489
235 0.545696
240 0.627594
245 0.564555
250 0.626189
255 0.602199
260 0.660696
265 0.634108
270 0.718959
275 0.562501
280 0.617718
285 0.737388
290 0.525742
295 0.567011
300 0.604274
305 0.468306
310 0.527918
315 0.501405
320 0.544627
325 0.64804
330 0.42423
335 0.559293
340 0.655746
345 0.693495
350 0.576425
355 0.578742
360 0.472986
365 0.597591
370 0.604225
375 0.529866
380 0.525919
385 0.565302
390 0.553981
395 0.667297
400 0.71114
405 0.541453
410 0.540497
415 0.58561
420 0.558412
425 0.587343
430 0.583936
435 0.489813
440 0.410726
445 0.617904
450 0.772023
455 0.71382
460 0.554027
465 0.431684
470 0.983051
475 0.852324
480 0.631863
485 0.689147
490 0.676357
495 0.60177
500 0.692814
505 0.655609
510 0.741101
515 0.498014
520 0.678676
525 0.694419
530 0.633873
535 0.570549
540 0.579967
545 0.630795
550 0.645104
555 0.755015
560 0.670348
565 0.585192
570 0.739727
575 0.660728
580 0.654592
585 0.527452
590 3.31294
595 56.6077
600 119.026
