File format V 1.0
sam. 10. déc. 01:11:49 2016
Operator : 
Comments : 

=============================================
SpectroFluorometer parameters
Mode : 3D measurement
Data : Fluorescence
Phospho. : Ordinary
Spectrum : Fluorescence

Scan speed : 2400 nm/mn
Response : 100 ms
PM Voltage : 700 V
Shutter : On

Lambda Ex. Start : 203
Lambda Ex. End : 603
Lambda Ex. Step : 5
Ex. Slit : 5 nm

Lambda Em. Start : 200
Lambda Em. End : 600
Lambda Em. Step : 5
Em. Slit : 5 nm

Repetition : 1
Decal lambda em : 10
=============================================
DATA
Ex : 203
200 12.8457
205 11.9696
210 11.9368
215 15.3934
220 15.4167
225 14.1612
230 11.635
235 13.8013
240 12.1548
245 12.4247
250 9.17969
255 11.2659
260 13.417
265 14.5112
270 11.5262
275 16.2042
280 15.6457
285 16.117
290 16.7171
295 16.5986
300 14.4065
305 12.1228
310 12.1746
315 16.3856
320 15.8613
325 13.3858
330 17.029
335 15.4919
340 14.2449
345 12.5379
350 13.2848
355 15.111
360 13.8078
365 19.5587
370 16.3258
375 12.1746
380 11.5662
385 14.0006
390 16.3598
395 14.2176
400 17.0654
405 12.8342
410 17.2434
415 14.3746
420 13.4692
425 13.9724
430 17.1619
435 13.008
440 12.7752
445 13.5756
450 15.1038
455 12.4145
460 14.6597
465 16.3697
470 14.1081
475 11.7274
480 13.0643
485 12.1963
490 15.207
495 11.0951
500 17.0193
505 15.5287
510 16.2286
515 12.4605
520 14.6659
525 13.7162
530 17.0314
535 13.4816
540 11.2618
545 19.634
550 13.0078
555 10.3861
560 14.712
565 14.8469
570 13.1134
575 13.1418
580 15.0156
585 9.78008
590 15.0626
595 14.5531
600 1.65609
Ex : 208
200 12.2472
205 16.3015
210 11.0355
215 14.5489
220 11.4994
225 11.523
230 12.161
235 13.1122
240 13.7776
245 17.4893
250 11.5336
255 15.987
260 16.728
265 12.0823
270 12.2213
275 13.0513
280 10.1345
285 13.9509
290 15.2382
295 14.3949
300 14.5122
305 15.1167
310 13.6076
315 17.5297
320 13.4274
325 14.0412
330 14.5374
335 22.8685
340 14.1497
345 13.7385
350 13.4375
355 16.4278
360 13.3901
365 16.4306
370 13.1918
375 12.2108
380 12.4097
385 15.322
390 12.6752
395 13.5757
400 12.4238
405 11.2815
410 13.721
415 12.8295
420 12.7384
425 14.6843
430 14.5653
435 14.2277
440 11.0837
445 13.0404
450 17.4852
455 15.1578
460 15.8335
465 14.4937
470 12.4234
475 15.4188
480 17.0429
485 14.878
490 16.1064
495 13.1502
500 11.6558
505 11.6053
510 13.4915
515 13.087
520 15.5286
525 14.3183
530 15.286
535 10.955
540 11.7385
545 10.7161
550 11.87
555 16.2175
560 14.183
565 13.7661
570 14.8647
575 12.0047
580 12.8809
585 12.4645
590 14.7323
595 13.2573
600 8.37671
Ex : 213
200 11.1667
205 9.91539
210 11.7024
215 14.3001
220 12.8542
225 16.3331
230 17.3125
235 14.1578
240 15.0937
245 10.7102
250 13.3357
255 12.883
260 13.3731
265 12.8486
270 14.5051
275 10.7486
280 11.3585
285 13.0801
290 16.2237
295 12.8103
300 10.9592
305 9.81705
310 11.114
315 16.1422
320 13.8116
325 17.2754
330 17.9805
335 16.6525
340 13.2218
345 12.4415
350 19.2378
355 18.2021
360 16.0651
365 16.7897
370 12.4132
375 9.9775
380 12.8661
385 13.2559
390 19.2479
395 14.0718
400 11.4634
405 17.0874
410 11.2446
415 13.992
420 10.1278
425 12.5335
430 18.4915
435 15.1924
440 19.9745
445 14.1119
450 13.0841
455 13.3985
460 16.8194
465 17.1089
470 14.991
475 15.7271
480 18.2993
485 12.6047
490 12.4178
495 16.7001
500 15.2937
505 16.6328
510 12.4542
515 12.4998
520 11.9758
525 12.7186
530 12.6562
535 15.7438
540 15.4331
545 14.5502
550 16.6393
555 16.2876
560 16.5976
565 13.4768
570 13.9456
575 14.2826
580 13.0841
585 16.1761
590 12.9183
595 11.522
600 29.6697
Ex : 218
200 12.3587
205 18.8014
210 16.6742
215 18.1009
220 16.1652
225 16.0825
230 14.9662
235 12.0894
240 13.2324
245 13.0264
250 13.4912
255 12.2422
260 14.2042
265 10.8252
270 11.4755
275 14.2297
280 11.5277
285 13.0107
290 13.8099
295 13.8168
300 9.93653
305 15.8417
310 14.308
315 17.7503
320 14.68
325 14.4288
330 16.6463
335 15.2632
340 13.4119
345 15.0368
350 16.0074
355 13.1802
360 14.3914
365 11.1147
370 12.0364
375 11.999
380 14.3117
385 16.6393
390 14.2954
395 13.6261
400 12.1188
405 15.9754
410 14.503
415 11.6518
420 12.1265
425 15.5894
430 14.7569
435 15.8533
440 13.2085
445 15.9039
450 12.8585
455 12.1752
460 10.7878
465 12.7584
470 15.9763
475 12.2566
480 13.0751
485 14.6621
490 16.024
495 11.65
500 17.358
505 18.2855
510 19.8261
515 14.6897
520 17.4788
525 15.3487
530 12.337
535 13.4867
540 11.9024
545 15.1546
550 14.7593
555 12.6216
560 11.2716
565 10.6897
570 14.3251
575 13.0361
580 12.0378
585 13.3569
590 11.4079
595 16.353
600 37.7522
Ex : 223
200 9.24138
205 13.4636
210 14.0978
215 10.7849
220 11.131
225 12.4589
230 9.44284
235 14.3291
240 14.0228
245 13.9189
250 11.4136
255 15.8162
260 12.2915
265 10.7317
270 13.4042
275 15.5985
280 10.1916
285 12.2648
290 12.156
295 15.4108
300 16.3543
305 16.4938
310 17.5733
315 13.8817
320 11.9693
325 14.8234
330 13.7543
335 10.4759
340 11.8076
345 14.5875
350 15.6668
355 12.5984
360 11.6795
365 12.237
370 11.4127
375 10.3197
380 11.69
385 13.6768
390 14.7183
395 13.8942
400 14.8403
405 15.5444
410 12.9669
415 13.9464
420 13.8227
425 11.6374
430 10.2055
435 12.6964
440 12.7901
445 15.0585
450 12.9138
455 12.323
460 17.4599
465 15.0008
470 15.6682
475 10.246
480 15.2595
485 18.3312
490 13.5628
495 14.8261
500 11.7789
505 11.3032
510 11.575
515 13.0957
520 14.3516
525 14.4183
530 16.0402
535 10.9338
540 16.4076
545 16.4408
550 15.241
555 14.3838
560 11.695
565 10.5713
570 11.7015
575 14.306
580 13.2391
585 15.9992
590 9.37375
595 11.1217
600 13.6725
Ex : 228
200 17.9945
205 13.6365
210 10.018
215 10.9928
220 11.4856
225 15.5053
230 10.6918
235 12.7667
240 12.3762
245 10.7881
250 9.83519
255 10.1054
260 10.756
265 10.3782
270 9.5295
275 12.3396
280 10.9535
285 13.7858
290 11.8578
295 9.56531
300 13.2759
305 8.91886
310 12.4934
315 13.5829
320 9.26202
325 16.262
330 10.3308
335 14.4381
340 11.079
345 13.4997
350 11.9599
355 14.2062
360 14.3092
365 11.8359
370 10.7271
375 10.7268
380 13.1401
385 11.3789
390 13.881
395 20.4431
400 12.3898
405 12.7622
410 16.6279
415 13.4878
420 11.2919
425 11.0615
430 12.6825
435 13.1571
440 13.573
445 14.2682
450 11.3719
455 14.2902
460 11.1809
465 11.0937
470 9.9402
475 10.8988
480 16.007
485 12.7975
490 14.8443
495 13.3052
500 14.6548
505 14.4327
510 12.6313
515 14.176
520 9.61806
525 10.4044
530 9.80688
535 12.4092
540 13.2864
545 14.9653
550 12.6601
555 12.9567
560 13.674
565 11.8966
570 10.7101
575 14.2643
580 11.3349
585 11.2776
590 8.88198
595 15.19
600 4.60873
Ex : 233
200 11.7568
205 17.0607
210 8.72592
215 10.7678
220 12.5128
225 10.9614
230 9.96712
235 12.3759
240 9.96103
245 11.3888
250 8.91566
255 10.9574
260 9.66377
265 11.1433
270 17.3696
275 13.373
280 12.8386
285 15.4042
290 10.2158
295 12.7368
300 10.0571
305 10.5476
310 10.4462
315 10.2356
320 10.4763
325 10.0968
330 9.70043
335 11.7547
340 11.0693
345 15.5013
350 11.1695
355 9.16669
360 10.4068
365 11.5274
370 10.1299
375 8.57866
380 13.9455
385 9.88503
390 16.4558
395 14.444
400 12.0303
405 9.35286
410 12.1609
415 10.6503
420 15.0641
425 11.4711
430 12.1697
435 12.4827
440 14.9474
445 13.4465
450 10.6718
455 11.4079
460 12.3714
465 13.5278
470 13.3827
475 14.4841
480 11.9239
485 13.5933
490 14.624
495 13.3978
500 11.8924
505 12.7318
510 9.66099
515 9.99096
520 9.58241
525 13.2928
530 13.6241
535 13.241
540 11.8016
545 9.41867
550 10.5559
555 12.3736
560 9.70392
565 11.4138
570 13.2606
575 12.7288
580 12.1884
585 10.7782
590 9.24051
595 10.9462
600 21.8056
Ex : 238
200 10.6784
205 10.2443
210 10.0505
215 12.2975
220 10.1217
225 9.50078
230 10.0139
235 8.38997
240 6.59866
245 10.3095
250 10.1151
255 8.18388
260 7.79458
265 10.8731
270 10.1295
275 9.32667
280 10.5815
285 8.10027
290 7.56644
295 10.3087
300 10.8331
305 9.61852
310 10.5401
315 11.0641
320 10.3472
325 9.72651
330 15.2006
335 9.24567
340 11.3242
345 9.16437
350 7.78306
355 11.1753
360 12.5161
365 11.4365
370 10.0121
375 11.113
380 9.07219
385 11.7254
390 9.24763
395 11.5853
400 10.4733
405 11.0233
410 12.2522
415 10.5367
420 15.2344
425 15.7061
430 8.75925
435 10.1491
440 9.04953
445 8.29974
450 8.07134
455 11.7064
460 9.51162
465 9.50688
470 9.45985
475 11.5031
480 12.5406
485 11.8804
490 10.4513
495 8.33313
500 10.2375
505 9.62861
510 12.7326
515 10.5108
520 10.3403
525 11.052
530 9.8342
535 11.2418
540 11.8095
545 11.9818
550 9.13774
555 11.1889
560 10.2166
565 10.9108
570 10.8509
575 9.28248
580 8.28626
585 13.4195
590 10.8549
595 10.8988
600 11.4949
Ex : 243
200 7.77083
205 5.83309
210 7.97416
215 7.47633
220 7.67519
225 7.9726
230 6.75297
235 6.75034
240 6.90991
245 7.24796
250 6.38977
255 7.29526
260 9.15367
265 7.49401
270 8.69757
275 10.0817
280 7.95892
285 8.00201
290 9.12552
295 9.64412
300 10.6591
305 6.85736
310 8.50156
315 9.13415
320 9.06432
325 10.4732
330 7.63785
335 7.9976
340 7.35224
345 12.8004
350 9.74735
355 9.41572
360 8.56421
365 10.5374
370 11.4444
375 7.90887
380 9.81475
385 8.75557
390 9.2574
395 12.3223
400 8.91355
405 8.63227
410 8.0984
415 9.40196
420 11.2328
425 11.19
430 14.2417
435 9.985
440 9.22074
445 9.02188
450 11.0378
455 7.35959
460 7.38755
465 8.92001
470 9.41168
475 9.2407
480 8.52193
485 10.0776
490 7.86522
495 10.9111
500 9.95111
505 10.4274
510 9.09478
515 8.4288
520 9.30642
525 8.04569
530 9.44951
535 7.95092
540 10.7074
545 8.33098
550 9.43567
555 9.02694
560 8.31981
565 10.4053
570 8.99519
575 8.50893
580 7.95765
585 6.45993
590 9.60372
595 8.13655
600 1.14746
Ex : 248
200 7.19533
205 7.77983
210 5.58546
215 6.62354
220 9.36852
225 6.34914
230 7.26286
235 6.85379
240 7.28477
245 6.62567
250 7.75417
255 7.45808
260 7.10524
265 7.71103
270 7.29283
275 5.16905
280 5.78148
285 8.68298
290 7.59508
295 6.43008
300 6.87958
305 8.20382
310 8.59387
315 7.99747
320 8.63194
325 6.48882
330 8.1513
335 8.41467
340 7.87655
345 6.80526
350 10.3082
355 8.61714
360 6.69713
365 6.69244
370 8.88237
375 7.00076
380 9.61582
385 10.3186
390 7.46442
395 8.09146
400 9.40583
405 8.10594
410 7.20016
415 7.55181
420 8.5398
425 8.25628
430 8.6695
435 8.97333
440 7.91232
445 8.65666
450 9.68576
455 8.59964
460 8.63509
465 7.12681
470 9.15794
475 6.14328
480 6.21871
485 7.01335
490 10.0567
495 8.22343
500 11.3077
505 9.56978
510 7.68203
515 6.97665
520 9.18516
525 8.24761
530 7.06013
535 6.39352
540 7.54951
545 7.00419
550 7.0328
555 7.50054
560 8.31242
565 11.1816
570 7.27981
575 5.73476
580 9.12292
585 7.99063
590 7.36312
595 7.41211
600 16.9563
Ex : 253
200 5.91241
205 5.72439
210 5.81008
215 5.80024
220 5.47087
225 6.03295
230 6.14633
235 6.62729
240 4.95928
245 5.0872
250 6.08364
255 5.94204
260 5.67015
265 4.83217
270 4.81997
275 6.58855
280 6.57275
285 5.66525
290 5.53408
295 5.96611
300 5.9338
305 5.63231
310 7.88165
315 4.91393
320 4.74729
325 4.46987
330 5.77779
335 6.52726
340 6.112
345 6.27483
350 5.61476
355 6.43436
360 7.51933
365 7.4092
370 6.77657
375 6.51506
380 8.14055
385 6.67689
390 6.52574
395 8.37759
400 6.87737
405 7.54214
410 6.61524
415 7.13217
420 6.21922
425 5.95609
430 7.1227
435 6.46641
440 7.1718
445 6.80243
450 5.38592
455 7.68037
460 8.69696
465 6.44423
470 8.09935
475 5.50682
480 5.42258
485 5.46651
490 5.90538
495 5.94945
500 8.01164
505 6.20787
510 6.14741
515 6.03921
520 5.2982
525 5.17564
530 5.21593
535 7.38097
540 6.72528
545 6.70244
550 5.52819
555 5.66169
560 5.93767
565 6.68218
570 6.50737
575 5.78119
580 4.54255
585 6.1392
590 5.64328
595 5.20547
600 4.65413
Ex : 258
200 5.11787
205 3.62509
210 4.11414
215 4.66994
220 4.80977
225 4.60706
230 3.64866
235 3.55767
240 4.5937
245 2.98539
250 5.53618
255 3.61876
260 4.8752
265 3.9805
270 4.99279
275 4.36227
280 5.08715
285 4.21545
290 3.34857
295 3.65399
300 5.38958
305 4.66973
310 4.32843
315 5.51678
320 4.74243
325 4.92247
330 5.34496
335 4.81727
340 4.76401
345 5.01633
350 5.80604
355 4.80263
360 4.95883
365 5.8542
370 4.77044
375 5.79431
380 5.14947
385 6.25455
390 5.44953
395 4.66938
400 5.07974
405 4.80145
410 5.16916
415 5.10925
420 4.87352
425 5.664
430 5.76483
435 4.87235
440 6.68865
445 5.06268
450 6.14654
455 4.53399
460 5.38921
465 5.19636
470 6.1695
475 5.07663
480 4.5596
485 5.23644
490 5.85277
495 5.37862
500 4.0504
505 4.59032
510 6.21027
515 5.36403
520 4.4288
525 4.97017
530 3.47566
535 4.50106
540 5.11285
545 4.55758
550 4.20796
555 4.4527
560 4.71573
565 5.73939
570 5.50229
575 6.07145
580 5.58945
585 4.87779
590 5.33819
595 4.26862
600 7.3027
Ex : 263
200 2.32789
205 2.95634
210 5.21252
215 3.55122
220 4.8032
225 3.62387
230 4.46322
235 4.0086
240 4.09736
245 4.16122
250 3.1295
255 3.48375
260 3.39196
265 3.91904
270 2.78978
275 3.94466
280 3.77283
285 3.353
290 3.84496
295 3.53463
300 2.77081
305 3.17203
310 3.33127
315 3.85049
320 3.52489
325 3.15879
330 3.81791
335 2.93895
340 3.76799
345 3.15289
350 3.38338
355 3.31824
360 3.80399
365 3.72882
370 4.29528
375 4.27323
380 3.55985
385 3.68613
390 4.13948
395 3.20736
400 4.67486
405 3.8602
410 4.52065
415 3.70832
420 2.97295
425 3.75268
430 4.33469
435 3.77262
440 4.46661
445 4.96206
450 5.27428
455 4.72804
460 4.44659
465 4.08156
470 3.25711
475 4.01716
480 4.10346
485 3.75198
490 3.80646
495 3.53156
500 4.86406
505 3.99312
510 4.06942
515 4.13431
520 3.65116
525 4.61655
530 5.6032
535 3.6491
540 3.96538
545 4.32319
550 3.49245
555 3.17034
560 4.19073
565 4.0879
570 4.04561
575 2.93591
580 4.07885
585 3.48915
590 4.09673
595 4.84849
600 2.01137
Ex : 268
200 2.36066
205 2.91488
210 2.75378
215 2.59992
220 2.87297
225 2.55187
230 3.38109
235 2.54521
240 3.21796
245 2.81025
250 3.02654
255 3.43778
260 3.52924
265 3.64581
270 2.87338
275 2.59404
280 2.12613
285 3.22159
290 2.60071
295 2.87637
300 2.48193
305 2.99447
310 3.13853
315 3.02403
320 3.36947
325 3.32217
330 3.50619
335 2.41197
340 2.88396
345 3.08397
350 2.77392
355 3.49557
360 3.12464
365 3.06533
370 3.58122
375 3.18019
380 2.76775
385 3.67506
390 4.19831
395 3.7955
400 2.60232
405 3.19853
410 3.44715
415 3.6279
420 3.66539
425 3.0882
430 2.60465
435 3.34395
440 3.19461
445 4.1525
450 2.39387
455 3.88435
460 3.27411
465 3.15118
470 2.5984
475 3.94081
480 3.95853
485 2.32988
490 3.04252
495 2.47976
500 3.4765
505 3.52315
510 3.24052
515 4.06687
520 2.55774
525 3.42525
530 3.35001
535 3.5374
540 3.3666
545 2.96511
550 2.54412
555 2.94295
560 2.8289
565 2.47817
570 3.06229
575 3.02048
580 3.58865
585 2.63417
590 3.06422
595 2.87105
600 5.58064
Ex : 273
200 1.8349
205 1.69826
210 2.27492
215 1.93978
220 2.83933
225 2.1202
230 2.41382
235 2.65018
240 2.72204
245 2.28975
250 2.2446
255 1.18685
260 2.58402
265 2.60895
270 1.98549
275 2.40186
280 2.49726
285 1.9683
290 2.38602
295 2.26548
300 2.00795
305 1.79312
310 1.83923
315 2.10351
320 2.68912
325 2.57644
330 2.66347
335 2.20449
340 1.91817
345 1.79735
350 2.20638
355 2.1039
360 2.63341
365 2.6579
370 3.09677
375 2.99849
380 2.59049
385 2.63023
390 2.48418
395 2.43776
400 3.0419
405 2.50981
410 2.42741
415 1.9699
420 1.93932
425 2.84663
430 2.94446
435 2.40175
440 2.88881
445 2.97883
450 2.82269
455 2.9565
460 2.7983
465 2.28656
470 2.26842
475 2.20277
480 2.16895
485 2.34363
490 2.01515
495 2.57167
500 1.69266
505 2.48559
510 2.50293
515 3.08807
520 2.40996
525 2.179
530 2.81542
535 2.35714
540 3.06655
545 3.06798
550 2.08163
555 2.92139
560 2.23478
565 2.16143
570 1.46522
575 2.34295
580 2.68446
585 2.08127
590 2.43653
595 2.14562
600 0.385956
Ex : 278
200 1.84703
205 1.45281
210 2.11442
215 1.56093
220 1.55786
225 1.63186
230 2.39914
235 1.68104
240 2.46121
245 1.77779
250 1.72033
255 1.84714
260 2.22976
265 2.18945
270 2.21254
275 2.16524
280 1.82537
285 2.1083
290 1.76889
295 1.37812
300 1.89251
305 1.67961
310 1.76276
315 2.18286
320 2.64073
325 2.2253
330 2.0166
335 2.06461
340 2.35134
345 1.89507
350 2.64626
355 2.685
360 2.05331
365 2.38411
370 2.28293
375 2.15938
380 2.71806
385 2.35577
390 2.77212
395 2.74426
400 2.2568
405 2.9879
410 1.81029
415 2.44746
420 1.99739
425 3.26748
430 2.48187
435 2.36144
440 2.24298
445 2.46118
450 2.11578
455 2.44805
460 3.42259
465 2.29582
470 1.831
475 2.26811
480 2.1247
485 2.73453
490 2.57941
495 1.80256
500 1.91845
505 1.59019
510 2.05812
515 1.25351
520 1.69988
525 1.91493
530 1.70025
535 1.634
540 1.60839
545 2.18251
550 2.59971
555 2.97443
560 2.4221
565 1.76372
570 1.63649
575 2.45618
580 1.78462
585 1.97411
590 1.63771
595 1.96839
600 3.41433
Ex : 283
200 1.23895
205 1.50932
210 1.6849
215 1.42471
220 1.62671
225 1.93689
230 1.44361
235 1.56947
240 1.49647
245 1.55697
250 1.59545
255 1.25494
260 1.27747
265 1.83918
270 1.47414
275 1.64341
280 2.00986
285 1.6192
290 1.78279
295 1.81337
300 1.52814
305 1.32355
310 1.30613
315 1.65421
320 1.55989
325 1.78257
330 1.66154
335 1.68748
340 1.66601
345 1.52776
350 1.72672
355 1.9089
360 1.51378
365 2.01448
370 1.96961
375 1.901
380 2.1614
385 2.30916
390 2.30656
395 2.93263
400 2.30027
405 2.16891
410 2.50371
415 2.47595
420 2.1229
425 2.17997
430 1.73377
435 1.75646
440 1.65822
445 1.79904
450 2.35953
455 1.79526
460 1.58564
465 2.10474
470 2.05709
475 2.06955
480 1.46612
485 1.3127
490 1.59344
495 2.08066
500 2.1015
505 1.78986
510 1.95661
515 2.25313
520 1.82262
525 2.02281
530 1.29831
535 1.51923
540 1.44504
545 1.46421
550 1.70144
555 1.85561
560 2.42324
565 2.35002
570 1.95104
575 1.62126
580 1.7251
585 1.57886
590 1.50955
595 1.89715
600 2.26815
Ex : 288
200 1.36825
205 1.12027
210 1.16314
215 1.29556
220 1.13758
225 1.03886
230 1.39223
235 1.36977
240 1.61345
245 1.7194
250 1.47289
255 1.02731
260 0.655491
265 1.45345
270 1.43161
275 1.31474
280 1.14466
285 1.44209
290 1.3425
295 1.65985
300 1.00946
305 1.18131
310 1.38945
315 1.69197
320 1.30586
325 1.3466
330 1.16081
335 1.32032
340 1.39932
345 1.20388
350 1.66528
355 1.66298
360 1.42514
365 1.55872
370 2.01503
375 2.21383
380 1.86888
385 2.12654
390 1.79993
395 1.55436
400 1.7653
405 1.80399
410 1.98536
415 2.0329
420 1.6725
425 1.84798
430 1.6066
435 1.81579
440 1.96853
445 1.85359
450 1.69682
455 1.70895
460 1.5024
465 1.23117
470 1.67408
475 1.62398
480 1.41067
485 1.7585
490 1.43167
495 1.25179
500 1.77591
505 1.50593
510 1.62803
515 1.6082
520 1.50823
525 1.79442
530 1.54961
535 1.53154
540 1.33956
545 1.76376
550 1.43163
555 1.11387
560 1.28505
565 1.67226
570 1.67356
575 1.67383
580 1.40375
585 1.21868
590 1.60514
595 1.41719
600 2.01245
Ex : 293
200 1.20377
205 1.25573
210 1.01512
215 1.20989
220 1.23624
225 1.23779
230 1.07868
235 1.15487
240 1.51953
245 0.754566
250 0.936871
255 1.10147
260 1.03332
265 1.00748
270 1.0651
275 1.1027
280 0.745618
285 1.23982
290 1.34732
295 1.34597
300 1.34919
305 1.04388
310 0.7651
315 0.945976
320 1.03102
325 1.18208
330 1.02363
335 1.33774
340 1.67678
345 1.39325
350 1.18416
355 1.30181
360 1.3101
365 1.45076
370 1.43216
375 1.50303
380 1.51068
385 1.61603
390 1.81178
395 1.84837
400 1.44269
405 1.68308
410 1.57586
415 1.65069
420 1.35029
425 2.18513
430 1.8969
435 1.76477
440 1.44266
445 1.58334
450 1.53165
455 1.38071
460 1.44062
465 1.27128
470 1.35099
475 1.69315
480 1.22409
485 1.18595
490 1.14811
495 1.48239
500 1.2323
505 1.25616
510 1.11057
515 1.02174
520 1.15455
525 1.33116
530 1.32799
535 1.24412
540 1.05069
545 1.09398
550 0.940829
555 1.275
560 1.19024
565 1.35915
570 1.40524
575 1.33945
580 1.72093
585 1.61614
590 1.34254
595 1.2867
600 0.146422
Ex : 298
200 0.879856
205 1.04196
210 1.03303
215 0.981899
220 0.770387
225 1.18084
230 0.830549
235 0.860873
240 0.950605
245 1.1039
250 0.818235
255 0.70521
260 1.03424
265 1.10033
270 0.795253
275 0.962441
280 0.893004
285 1.03233
290 1.21704
295 1.18353
300 1.02304
305 0.727953
310 1.28307
315 1.0204
320 0.899848
325 1.28701
330 1.16359
335 0.99814
340 1.18489
345 0.990938
350 1.11221
355 1.15927
360 1.13793
365 1.13431
370 1.79147
375 1.15011
380 1.29839
385 1.45177
390 1.17503
395 1.53042
400 1.60886
405 1.59584
410 1.42193
415 1.52278
420 1.43662
425 1.42186
430 1.66574
435 1.69318
440 1.55662
445 1.5245
450 1.25998
455 1.21704
460 1.53459
465 1.43853
470 1.26617
475 1.58174
480 1.07268
485 1.16659
490 1.15035
495 1.13522
500 1.37059
505 1.1364
510 1.04462
515 1.19247
520 1.38173
525 1.02089
530 1.07333
535 1.12359
540 1.1598
545 1.02321
550 1.02287
555 0.802216
560 1.16788
565 1.11877
570 1.02729
575 0.947538
580 0.805658
585 1.31815
590 1.70284
595 1.91382
600 4.28561
Ex : 303
200 1.14311
205 0.766282
210 0.721863
215 0.906623
220 0.891816
225 0.702994
230 0.679822
235 0.848396
240 0.852784
245 0.95536
250 0.804065
255 0.684509
260 1.06305
265 0.901995
270 1.05978
275 0.930121
280 0.830407
285 0.668203
290 0.841012
295 1.13984
300 1.0134
305 0.926396
310 0.867041
315 0.928523
320 1.02264
325 1.01823
330 1.19062
335 1.06863
340 1.12829
345 1.05275
350 0.813104
355 0.982797
360 1.03776
365 0.97181
370 1.16456
375 1.20388
380 1.32601
385 1.45686
390 1.79195
395 1.48843
400 1.23114
405 1.72968
410 1.55038
415 1.27019
420 1.52477
425 1.38534
430 1.28345
435 1.22898
440 1.29825
445 1.14045
450 1.30712
455 1.2014
460 1.40029
465 1.20312
470 1.04306
475 1.09941
480 0.956748
485 0.808657
490 1.21273
495 1.17201
500 0.915519
505 1.04242
510 1.23028
515 0.863156
520 0.896878
525 0.977039
530 1.04563
535 0.756477
540 1.03388
545 0.867879
550 1.085
555 0.832369
560 0.955282
565 0.904463
570 0.920959
575 0.891143
580 0.928615
585 0.753453
590 1.02211
595 1.1038
600 1.19427
Ex : 308
200 0.886033
205 0.753646
210 0.811214
215 0.666272
220 0.718448
225 0.888682
230 0.582821
235 0.660148
240 0.497977
245 0.89601
250 0.756946
255 0.67364
260 0.779518
265 0.624202
270 0.98934
275 0.791265
280 0.574201
285 0.816474
290 0.795009
295 0.819345
300 1.11517
305 1.16692
310 1.17196
315 0.806344
320 0.825074
325 0.852435
330 0.913794
335 0.852256
340 1.12888
345 1.12344
350 1.1719
355 1.08362
360 1.08631
365 1.03101
370 1.09551
375 1.18007
380 1.26341
385 1.36068
390 1.56654
395 1.3617
400 1.38014
405 1.34163
410 1.47934
415 1.44706
420 1.17743
425 1.2068
430 1.10948
435 1.4402
440 1.32281
445 1.48439
450 1.10634
455 1.04748
460 1.07454
465 1.02645
470 0.931992
475 1.24279
480 1.11203
485 0.948679
490 0.827928
495 0.978763
500 0.994276
505 0.841127
510 0.848082
515 0.904493
520 0.612584
525 0.98934
530 0.772331
535 0.903514
540 0.739956
545 0.816406
550 0.73349
555 0.67947
560 0.799698
565 1.03158
570 0.666484
575 0.745198
580 0.764123
585 0.81871
590 0.676931
595 0.60637
600 0.764504
Ex : 313
200 0.62612
205 0.752513
210 0.562895
215 0.796381
220 0.664338
225 0.659583
230 0.682966
235 0.676611
240 0.594838
245 0.782748
250 0.611863
255 0.907018
260 0.438787
265 0.701036
270 0.595332
275 0.715404
280 0.490935
285 0.740571
290 0.644226
295 0.584911
300 0.703003
305 1.06747
310 0.999382
315 0.654064
320 0.75148
325 0.744613
330 0.984712
335 0.844341
340 0.762185
345 0.909219
350 1.06753
355 1.28812
360 1.25122
365 1.05671
370 1.39458
375 1.46814
380 1.62115
385 1.62331
390 1.89939
395 1.73563
400 1.94535
405 1.68537
410 1.98288
415 1.7317
420 1.64258
425 1.69999
430 1.55842
435 1.38682
440 1.86904
445 1.92854
450 1.67126
455 1.47189
460 1.4257
465 1.37184
470 1.15339
475 1.23681
480 1.03059
485 1.0086
490 1.03592
495 0.773889
500 0.877668
505 0.959792
510 1.09884
515 0.784987
520 0.887324
525 0.744386
530 0.946159
535 0.734478
540 0.853722
545 0.657063
550 0.742483
555 0.720616
560 0.784846
565 0.639733
570 0.589568
575 0.599933
580 0.876689
585 0.688941
590 0.672216
595 0.64171
600 5.93405
Ex : 318
200 0.444444
205 0.672977
210 0.707713
215 0.617191
220 0.586929
225 0.525103
230 0.566968
235 0.57627
240 0.610628
245 0.613254
250 0.541824
255 0.58793
260 0.578116
265 0.534269
270 0.521103
275 0.54558
280 0.627293
285 0.436912
290 0.489054
295 0.503957
300 0.532124
305 0.540873
310 0.818823
315 1.75022
320 1.49753
325 1.19698
330 1.51838
335 1.39123
340 2.06026
345 2.75957
350 3.47524
355 4.17939
360 4.66228
365 5.96439
370 6.96857
375 7.75562
380 8.54457
385 9.48552
390 10.3709
395 11.0661
400 11.7576
405 12.2031
410 11.5706
415 11.1328
420 11.5067
425 11.0934
430 10.3724
435 10.0812
440 10.0715
445 9.27451
450 8.82568
455 8.99274
460 8.06387
465 6.89026
470 7.00347
475 6.35711
480 5.20235
485 5.16048
490 4.32023
495 4.30193
500 3.902
505 3.44275
510 2.90771
515 2.85524
520 2.16718
525 2.2794
530 1.98065
535 1.67049
540 1.5484
545 1.54798
550 1.57795
555 1.32328
560 1.33255
565 0.910894
570 1.132
575 1.03795
580 0.890325
585 0.930138
590 0.901405
595 0.631051
600 0.0718112
Ex : 323
200 0.594654
205 0.540839
210 0.495291
215 0.569955
220 0.512082
225 0.471756
230 0.623344
235 0.779146
240 0.631733
245 0.705368
250 0.575199
255 0.518364
260 0.574529
265 0.555886
270 0.743013
275 0.578392
280 0.487783
285 0.474487
290 0.48177
295 0.510932
300 0.59259
305 0.568246
310 0.688019
315 7.90371
320 32.9755
325 13.7592
330 3.86731
335 3.79081
340 5.38644
345 6.97708
350 10.2819
355 13.8705
360 17.2549
365 19.994
370 22.9837
375 26.0514
380 29.8684
385 32.5095
390 35.8442
395 38.0093
400 40.0889
405 40.0518
410 40.8634
415 39.9464
420 39.1287
425 38.2623
430 37.8035
435 35.3893
440 34.53
445 32.2754
450 30.8118
455 28.2884
460 25.9121
465 24.9565
470 22.5629
475 20.5442
480 18.6555
485 17.2156
490 14.8846
495 13.5668
500 11.9645
505 10.9385
510 9.59164
515 8.53218
520 7.04055
525 6.48245
530 5.56469
535 5.13682
540 4.56852
545 3.81113
550 3.55286
555 3.23261
560 2.78508
565 2.29209
570 1.80982
575 1.6475
580 0.97921
585 1.17539
590 0.981992
595 1.09075
600 0.124123
Ex : 328
200 0.515073
205 0.539792
210 0.590707
215 0.544888
220 0.486601
225 0.752159
230 0.502292
235 0.590274
240 0.450399
245 0.626171
250 0.558659
255 0.628935
260 0.443762
265 0.439047
270 0.38485
275 0.442711
280 0.446407
285 0.488435
290 0.557069
295 0.474287
300 0.513372
305 0.728354
310 0.617816
315 2.31296
320 71.515
325 166.968
330 48.2432
335 9.7758
340 6.81355
345 7.89481
350 10.0072
355 14.9098
360 19.4757
365 21.9319
370 24.1574
375 27.4085
380 31.5244
385 34.0168
390 36.5306
395 39.3555
400 40.8664
405 42.0011
410 41.8929
415 41.4364
420 40.3207
425 38.3503
430 37.2748
435 34.981
440 33.8209
445 32.2173
450 30.9117
455 29.2597
460 26.4574
465 24.2139
470 23.0367
475 20.4742
480 19.2029
485 17.8242
490 15.2316
495 14.3114
500 12.6551
505 10.9197
510 9.79365
515 8.34886
520 7.57752
525 6.58696
530 6.15343
535 4.90022
540 4.48401
545 3.88939
550 3.45689
555 2.97574
560 2.56096
565 2.26655
570 1.94335
575 1.74635
580 1.39261
585 1.14386
590 1.02084
595 0.885222
600 1.37096
Ex : 333
200 0.499091
205 0.530901
210 0.403682
215 0.453253
220 0.469869
225 0.427612
230 0.401929
235 0.337664
240 0.445287
245 0.512615
250 0.516782
255 0.402935
260 0.575717
265 0.416557
270 0.636314
275 0.536263
280 0.532469
285 0.575126
290 0.566976
295 0.543465
300 0.49081
305 0.503112
310 0.578683
315 0.604218
320 10.5071
325 192.561
330 318.51
335 80.807
340 13.2361
345 7.46661
350 7.10036
355 7.5436
360 10.8319
365 15.5375
370 15.8084
375 16.4092
380 17.4527
385 18.7082
390 22.0527
395 22.3961
400 22.941
405 23.6657
410 23.4401
415 24.283
420 23.614
425 22.2713
430 21.4262
435 20.5164
440 19.1243
445 18.3932
450 17.1198
455 15.6059
460 14.6325
465 13.7919
470 12.9603
475 11.5591
480 10.6922
485 9.56275
490 8.9936
495 7.8484
500 7.2176
505 6.45993
510 5.72522
515 5.03254
520 4.34618
525 3.7557
530 3.41033
535 3.20711
540 2.87053
545 2.58717
550 2.37805
555 2.37934
560 1.95416
565 1.84039
570 1.57601
575 1.35103
580 1.02387
585 0.955567
590 0.986945
595 0.795487
600 0.453061
Ex : 338
200 0.511244
205 0.40198
210 0.391405
215 0.538847
220 0.389481
225 0.351273
230 0.389494
235 0.361081
240 0.56938
245 0.426193
250 0.400429
255 0.492773
260 0.458636
265 0.425857
270 0.499297
275 0.462641
280 0.404621
285 0.425696
290 0.5332
295 0.555987
300 0.44407
305 0.42092
310 0.593543
315 0.609196
320 0.750743
325 17.9881
330 271.432
335 387.992
340 95.19
345 14.3224
350 6.23848
355 4.80508
360 4.80593
365 6.74124
370 11.6051
375 11.2729
380 10.4321
385 10.202
390 11.9539
395 13.011
400 13.1567
405 12.9698
410 13.6172
415 14.3711
420 13.7369
425 12.4879
430 11.7434
435 11.1414
440 11.1532
445 10.8861
450 9.54482
455 9.15475
460 8.57451
465 8.06195
470 7.60105
475 6.9684
480 6.22237
485 6.00665
490 5.42647
495 5.48873
500 4.44158
505 4.32895
510 3.85915
515 3.52626
520 3.00468
525 2.59793
530 2.34353
535 2.21108
540 2.06577
545 1.79835
550 1.8297
555 1.6073
560 1.54515
565 1.38709
570 1.2336
575 1.11481
580 0.989086
585 0.930611
590 0.957905
595 0.754007
600 1.443
Ex : 343
200 0.392688
205 0.424587
210 0.434959
215 0.401366
220 0.388343
225 0.448529
230 0.367121
235 0.389469
240 0.390326
245 0.34723
250 0.447266
255 0.452179
260 0.550032
265 0.522345
270 0.464468
275 0.367243
280 0.544981
285 0.409194
290 0.363735
295 0.497028
300 0.517089
305 0.438215
310 0.425991
315 0.533742
320 0.609015
325 0.765636
330 20.5203
335 306.73
340 431.761
345 102.864
350 14.4635
355 4.78925
360 3.70377
365 3.0956
370 4.33524
375 8.55156
380 10.2832
385 9.41743
390 9.72973
395 9.29006
400 9.35581
405 10.06
410 11.3111
415 11.4832
420 11.0629
425 10.0591
430 9.63841
435 9.3349
440 9.34423
445 9.06514
450 8.32911
455 7.46733
460 7.22377
465 7.12983
470 6.37471
475 5.93222
480 5.07902
485 5.22236
490 4.50791
495 4.25663
500 3.85403
505 3.82322
510 3.43013
515 2.93241
520 2.67592
525 2.29136
530 2.32536
535 2.06729
540 1.92041
545 1.72519
550 1.51293
555 1.47698
560 1.49381
565 1.32436
570 1.05547
575 1.02321
580 1.17095
585 0.808722
590 0.787415
595 0.717538
600 0.303204
Ex : 348
200 0.425665
205 0.359214
210 0.329438
215 0.271473
220 0.399397
225 0.441222
230 0.35914
235 0.386859
240 0.414974
245 0.296866
250 0.323977
255 0.317249
260 0.336785
265 0.301705
270 0.420125
275 0.425564
280 0.435215
285 0.43278
290 0.395287
295 0.418154
300 0.441156
305 0.383817
310 0.375861
315 0.47485
320 0.369553
325 0.600819
330 1.10049
335 19.8965
340 298.963
345 446.298
350 112.733
355 15.3559
360 4.63369
365 3.08223
370 2.50803
375 3.17729
380 7.33013
385 11.6875
390 11.6115
395 10.9173
400 9.80318
405 10.4039
410 12.0301
415 12.9346
420 12.0853
425 11.0061
430 10.3308
435 9.98876
440 10.1096
445 9.5503
450 9.06619
455 8.02269
460 7.59794
465 7.08678
470 6.434
475 6.51084
480 5.78761
485 5.46124
490 5.00764
495 4.45063
500 3.93885
505 3.94599
510 3.49837
515 3.12064
520 2.78265
525 2.45549
530 2.4538
535 2.23917
540 1.99374
545 1.70397
550 1.66825
555 1.37712
560 1.41443
565 1.24318
570 1.06343
575 1.07226
580 0.792218
585 0.830003
590 0.667766
595 0.732559
600 0.269094
Ex : 353
200 0.334613
205 0.389137
210 0.317934
215 0.41746
220 0.494436
225 0.35443
230 0.316668
235 0.358836
240 0.427507
245 0.313449
250 0.384876
255 0.239749
260 0.324018
265 0.368401
270 0.343095
275 0.366828
280 0.398161
285 0.409724
290 0.422848
295 0.335666
300 0.317749
305 0.364628
310 0.420184
315 0.371249
320 0.408587
325 0.61024
330 0.619141
335 0.978251
340 20.112
345 308.487
350 438.236
355 106.875
360 14.4163
365 4.19728
370 2.92029
375 2.44351
380 3.35516
385 7.92034
390 13.7732
395 13.4337
400 11.5234
405 10.8379
410 11.6265
415 13.438
420 13.1199
425 11.7689
430 10.7333
435 10.9252
440 10.8485
445 10.243
450 9.64644
455 8.70263
460 7.76237
465 7.50994
470 7.01523
475 6.75301
480 6.35766
485 5.69826
490 5.22755
495 4.94508
500 4.25097
505 3.91097
510 3.7582
515 3.46207
520 2.76398
525 2.60877
530 2.33148
535 2.33804
540 1.95611
545 1.74402
550 1.66666
555 1.55379
560 1.18957
565 1.04015
570 1.06929
575 0.906247
580 0.812185
585 0.939487
590 0.713322
595 0.688283
600 0.689997
Ex : 358
200 0.247741
205 0.340183
210 0.319425
215 0.286495
220 0.347125
225 0.341619
230 0.309011
235 0.273694
240 0.278779
245 0.329163
250 0.364143
255 0.288954
260 0.359748
265 0.337978
270 0.314008
275 0.284419
280 0.289957
285 0.274377
290 0.314716
295 0.353944
300 0.304467
305 0.434149
310 0.355275
315 0.368066
320 0.414954
325 0.491088
330 0.520186
335 0.550996
340 0.861292
345 20.2607
350 294.537
355 438.448
360 107.59
365 14.3861
370 3.9374
375 2.95811
380 3.03742
385 5.06047
390 9.28196
395 13.8152
400 12.1425
405 11.1193
410 11.3496
415 12.7028
420 12.2303
425 11.1518
430 10.226
435 10.1712
440 10.5683
445 10.2517
450 9.34026
455 8.21836
460 7.99395
465 7.33655
470 6.96339
475 6.73991
480 6.28537
485 5.82856
490 5.50053
495 4.89695
500 4.44355
505 4.1566
510 3.659
515 3.25652
520 2.84804
525 2.73189
530 2.48261
535 2.07217
540 1.92881
545 1.78992
550 1.81974
555 1.53176
560 1.38914
565 1.18758
570 1.07727
575 0.932023
580 0.867558
585 0.722696
590 0.64263
595 0.675835
600 0.570258
Ex : 363
200 0.254268
205 0.280943
210 0.357014
215 0.300476
220 0.278681
225 0.32309
230 0.336128
235 0.347127
240 0.342148
245 0.357585
250 0.31371
255 0.364349
260 0.358447
265 0.303407
270 0.256485
275 0.247481
280 0.238929
285 0.300724
290 0.262225
295 0.340185
300 0.315349
305 0.329996
310 0.432047
315 0.318973
320 0.35637
325 0.378972
330 0.42523
335 0.521862
340 0.602298
345 0.854942
350 17.5208
355 284.245
360 431.005
365 110.421
370 14.6909
375 3.79928
380 4.0888
385 6.08927
390 8.5203
395 9.78178
400 12.4922
405 14.2416
410 14.906
415 14.9518
420 13.341
425 11.8238
430 11.4215
435 11.3786
440 11.4247
445 11.4109
450 10.2835
455 9.48922
460 8.65498
465 8.39796
470 8.08162
475 7.36508
480 6.73915
485 6.23163
490 5.62216
495 5.33253
500 4.73302
505 4.23578
510 3.82917
515 3.53495
520 3.19179
525 2.78879
530 2.63052
535 2.14908
540 2.23969
545 1.87257
550 1.78014
555 1.53388
560 1.35334
565 1.28545
570 1.16963
575 0.86327
580 0.798828
585 0.687901
590 0.693768
595 0.558869
600 0.367438
Ex : 368
200 0.434094
205 0.326155
210 0.266722
215 0.340801
220 0.323421
225 0.258762
230 0.242673
235 0.291397
240 0.313813
245 0.266562
250 0.228673
255 0.307599
260 0.369048
265 0.311557
270 0.289792
275 0.271748
280 0.286639
285 0.292696
290 0.324191
295 0.255299
300 0.316024
305 0.346822
310 0.291723
315 0.366624
320 0.330904
325 0.279016
330 0.418442
335 0.437946
340 0.441533
345 0.542782
350 0.94797
355 14.797
360 270.195
365 434.974
370 114.086
375 15.2213
380 5.12062
385 7.29222
390 10.3503
395 11.5585
400 10.8183
405 13.9374
410 18.8011
415 18.8647
420 17.5979
425 14.6612
430 13.3477
435 13.0771
440 13.4511
445 13.1679
450 11.5991
455 10.6965
460 9.13979
465 9.14123
470 8.55046
475 8.06407
480 7.45296
485 6.90981
490 6.2902
495 5.60721
500 5.10865
505 4.74726
510 4.30596
515 3.74497
520 3.27682
525 2.90932
530 2.58227
535 2.58021
540 2.16207
545 2.00409
550 1.8809
555 1.61439
560 1.52366
565 1.25655
570 1.14342
575 0.977231
580 0.877187
585 0.64851
590 0.642259
595 0.669955
600 0.580937
Ex : 373
200 0.265221
205 0.282406
210 0.266118
215 0.226945
220 0.251884
225 0.233095
230 0.223296
235 0.273133
240 0.26457
245 0.258292
250 0.296835
255 0.288759
260 0.268631
265 0.346556
270 0.356561
275 0.378612
280 0.272112
285 0.397903
290 0.296118
295 0.247158
300 0.25257
305 0.295634
310 0.333311
315 0.309561
320 0.335701
325 0.333876
330 0.274578
335 0.402006
340 0.43341
345 0.559408
350 0.640651
355 0.916725
360 17.0014
365 272.021
370 442.472
375 113.892
380 15.9347
385 6.7805
390 9.89117
395 11.7757
400 10.8235
405 11.0007
410 14.5861
415 19.8058
420 18.5739
425 15.3712
430 13.1343
435 12.032
440 12.9165
445 12.9031
450 11.4013
455 10.1281
460 9.15042
465 8.77054
470 8.20751
475 7.87726
480 7.24063
485 6.50849
490 5.90674
495 5.29655
500 5.17639
505 4.26939
510 4.07707
515 3.7671
520 3.31977
525 2.84902
530 2.73218
535 2.25402
540 2.16853
545 2.01827
550 1.83339
555 1.49044
560 1.40789
565 1.31716
570 1.10281
575 0.963495
580 0.884731
585 0.679872
590 0.668564
595 0.530576
600 0.0831983
Ex : 378
200 0.333107
205 0.278865
210 0.296539
215 0.327199
220 0.214301
225 0.274388
230 0.241099
235 0.23046
240 0.275378
245 0.236466
250 0.256341
255 0.241673
260 0.260266
265 0.216734
270 0.351707
275 0.282509
280 0.296086
285 0.333278
290 0.28836
295 0.24296
300 0.259337
305 0.289624
310 0.337569
315 0.401519
320 0.287234
325 0.274965
330 0.317957
335 0.259425
340 0.330838
345 0.35142
350 0.40225
355 0.545584
360 0.857191
365 15.5574
370 270.05
375 431.923
380 114.852
385 17.3149
390 8.80188
395 9.12879
400 8.56512
405 8.18878
410 10.0066
415 13.0209
420 15.4336
425 13.9209
430 11.6043
435 10.6279
440 10.2752
445 9.90187
450 9.10806
455 8.37901
460 7.71965
465 7.51281
470 7.54703
475 7.13993
480 6.44224
485 5.96114
490 5.60397
495 5.20729
500 4.62272
505 4.24075
510 3.82384
515 3.62542
520 3.17162
525 2.97744
530 2.56782
535 2.24795
540 2.10519
545 1.94892
550 1.8377
555 1.57709
560 1.30354
565 1.26019
570 1.03729
575 0.995604
580 0.771552
585 0.651976
590 0.614105
595 0.537661
600 0.849324
Ex : 383
200 0.294205
205 0.23291
210 0.283932
215 0.193212
220 0.190854
225 0.269542
230 0.248769
235 0.259525
240 0.259452
245 0.249318
250 0.282359
255 0.236449
260 0.226466
265 0.26535
270 0.216248
275 0.292752
280 0.285133
285 0.274986
290 0.24621
295 0.267602
300 0.314172
305 0.312396
310 0.239183
315 0.255902
320 0.273571
325 0.316402
330 0.304034
335 0.358192
340 0.345126
345 0.32913
350 0.379409
355 0.445995
360 0.566188
365 0.688652
370 14.6992
375 266.422
380 451.723
385 122.364
390 20.8221
395 9.52699
400 7.99647
405 8.72664
410 10.3545
415 11.8901
420 12.3596
425 13.4801
430 12.9282
435 11.7246
440 11.3519
445 10.7623
450 9.6667
455 8.73254
460 7.92025
465 7.74414
470 7.27647
475 6.64311
480 6.66041
485 6.14866
490 5.75737
495 5.2307
500 4.81036
505 4.19863
510 4.04077
515 3.59505
520 3.22957
525 3.01854
530 2.77596
535 2.24135
540 2.21005
545 2.05044
550 1.76552
555 1.55194
560 1.40565
565 1.26351
570 1.08455
575 0.895099
580 0.81973
585 0.693667
590 0.539322
595 0.579134
600 0.377272
Ex : 388
200 0.266499
205 0.250269
210 0.203585
215 0.204182
220 0.194155
225 0.262036
230 0.229426
235 0.192673
240 0.243277
245 0.264096
250 0.277842
255 0.26446
260 0.265455
265 0.280643
270 0.239543
275 0.243072
280 0.233461
285 0.312491
290 0.239416
295 0.244311
300 0.256625
305 0.272378
310 0.301132
315 0.225721
320 0.226878
325 0.309183
330 0.298457
335 0.325712
340 0.316393
345 0.310008
350 0.332495
355 0.373789
360 0.474388
365 0.583724
370 0.796438
375 15.5065
380 272.709
385 446.219
390 124.333
395 23.1025
400 10.55
405 10.317
410 13.0032
415 14.041
420 13.6409
425 12.5231
430 13.5761
435 15.122
440 13.6037
445 12.7034
450 11.0034
455 9.62735
460 8.6771
465 8.31482
470 7.69766
475 7.48291
480 7.06895
485 6.43976
490 5.7648
495 5.29066
500 4.96652
505 4.44339
510 4.05723
515 3.67449
520 3.44381
525 2.83944
530 2.60876
535 2.38917
540 2.18002
545 1.92805
550 1.87431
555 1.56965
560 1.40117
565 1.30119
570 1.11196
575 0.927781
580 0.727027
585 0.785999
590 0.533506
595 0.447476
600 0.222871
Ex : 393
200 0.168719
205 0.218015
210 0.210162
215 0.173294
220 0.244336
225 0.379008
230 0.235449
235 0.257526
240 0.22307
245 0.197234
250 0.253819
255 0.186254
260 0.247394
265 0.231608
270 0.257464
275 0.207769
280 0.198463
285 0.227035
290 0.300697
295 0.311911
300 0.26533
305 0.226661
310 0.252583
315 0.222448
320 0.285585
325 0.241214
330 0.254059
335 0.2599
340 0.296313
345 0.313525
350 0.351687
355 0.370274
360 0.393992
365 0.57722
370 0.584398
375 0.888614
380 14.173
385 267.677
390 449.155
395 127.208
400 23.3454
405 10.8025
410 11.5002
415 14.2524
420 13.8098
425 11.7355
430 10.5344
435 11.9245
440 14.3746
445 13.2495
450 11.2901
455 9.42696
460 8.00107
465 7.77819
470 7.42316
475 7.1303
480 6.45517
485 6.2257
490 5.38591
495 5.24842
500 4.75584
505 4.27319
510 4.08004
515 3.69877
520 3.26713
525 2.75051
530 2.53442
535 2.35896
540 2.36085
545 2.05181
550 1.77984
555 1.64724
560 1.3818
565 1.21558
570 1.07162
575 0.915808
580 0.839423
585 0.699705
590 0.497496
595 0.522828
600 0.43113
Ex : 398
200 0.201142
205 0.163076
210 0.194965
215 0.232852
220 0.219235
225 0.239387
230 0.210146
235 0.234771
240 0.213939
245 0.241909
250 0.280134
255 0.229409
260 0.240708
265 0.211426
270 0.187128
275 0.180802
280 0.253244
285 0.211522
290 0.158837
295 0.210043
300 0.200141
305 0.221822
310 0.202641
315 0.26366
320 0.265783
325 0.204821
330 0.232517
335 0.28104
340 0.245479
345 0.24569
350 0.257925
355 0.309812
360 0.316808
365 0.335459
370 0.492267
375 0.601402
380 0.924768
385 14.976
390 272.391
395 454.165
400 123.347
405 19.5253
410 8.51039
415 9.24574
420 9.7357
425 8.35141
430 7.26647
435 7.00184
440 8.34645
445 10.4264
450 9.84516
455 7.80096
460 6.98022
465 6.34834
470 5.86391
475 5.88755
480 5.38729
485 4.88856
490 4.68611
495 4.24906
500 4.05817
505 3.84601
510 3.57419
515 3.26024
520 3.05958
525 2.67741
530 2.52913
535 2.26546
540 1.97486
545 1.73738
550 1.62776
555 1.56033
560 1.41577
565 1.26854
570 1.03177
575 0.898045
580 0.768477
585 0.597352
590 0.527746
595 0.480995
600 0.965054
Ex : 403
200 0.209848
205 0.176183
210 0.18377
215 0.215431
220 0.229129
225 0.202722
230 0.250319
235 0.187755
240 0.216045
245 0.237724
250 0.311393
255 0.228529
260 0.238787
265 0.260639
270 0.285269
275 0.182591
280 0.248323
285 0.203768
290 0.189756
295 0.300461
300 0.217901
305 0.183163
310 0.233397
315 0.225184
320 0.196448
325 0.225911
330 0.218683
335 0.229622
340 0.234269
345 0.226818
350 0.253373
355 0.245751
360 0.296239
365 0.293898
370 0.31101
375 0.396379
380 0.520166
385 0.896075
390 16.4456
395 270.545
400 441.612
405 118.892
410 17.7121
415 6.83614
420 6.01598
425 5.62493
430 4.98839
435 5.05552
440 5.76057
445 6.1116
450 7.6262
455 8.03055
460 6.68221
465 6.35656
470 5.53369
475 5.17109
480 4.89111
485 4.87564
490 4.30873
495 4.18814
500 3.8517
505 3.51585
510 3.38653
515 3.0267
520 2.83071
525 2.68229
530 2.34005
535 2.2461
540 1.95457
545 1.84808
550 1.60161
555 1.46852
560 1.35936
565 1.16409
570 1.04803
575 0.910448
580 0.729042
585 0.570696
590 0.538585
595 0.413717
600 0.160849
Ex : 408
200 0.223216
205 0.205874
210 0.17578
215 0.200938
220 0.178361
225 0.181641
230 0.164691
235 0.22309
240 0.268514
245 0.243832
250 0.253562
255 0.169233
260 0.236644
265 0.237478
270 0.246417
275 0.260173
280 0.227655
285 0.256045
290 0.214846
295 0.203293
300 0.194433
305 0.180068
310 0.227847
315 0.188036
320 0.260653
325 0.29669
330 0.241983
335 0.241262
340 0.235491
345 0.237799
350 0.252332
355 0.260904
360 0.227001
365 0.247652
370 0.296772
375 0.387853
380 0.370115
385 0.525521
390 0.795384
395 15.2055
400 278.505
405 448.24
410 117.1
415 17.9964
420 6.62338
425 5.24846
430 5.13032
435 5.23479
440 5.53555
445 5.97339
450 5.82171
455 7.59412
460 8.00495
465 6.80485
470 6.25656
475 5.88091
480 4.90605
485 4.79743
490 4.60155
495 4.10351
500 3.77924
505 3.52718
510 3.31824
515 3.02285
520 2.84889
525 2.60577
530 2.3203
535 2.25446
540 2.0577
545 1.92123
550 1.61801
555 1.45734
560 1.39596
565 1.1065
570 1.05583
575 0.828192
580 0.719982
585 0.602043
590 0.499024
595 0.460325
600 0.664073
Ex : 413
200 0.171734
205 0.247099
210 0.243751
215 0.173615
220 0.209892
225 0.277975
230 0.203889
235 0.266404
240 0.221188
245 0.241215
250 0.164891
255 0.203183
260 0.192577
265 0.236775
270 0.299293
275 0.229257
280 0.216777
285 0.226616
290 0.163427
295 0.217598
300 0.2275
305 0.215774
310 0.233716
315 0.241626
320 0.178296
325 0.194164
330 0.251193
335 0.218602
340 0.251084
345 0.200291
350 0.292015
355 0.255116
360 0.213094
365 0.287746
370 0.306913
375 0.342092
380 0.33081
385 0.409943
390 0.569493
395 0.790643
400 16.9386
405 284.54
410 450.452
415 114.908
420 17.4871
425 6.20548
430 4.80659
435 5.15939
440 5.31154
445 5.38913
450 5.07043
455 4.91027
460 5.82332
465 7.31022
470 6.80043
475 5.79108
480 5.34123
485 4.74373
490 4.21078
495 3.89547
500 3.58131
505 3.4838
510 3.20022
515 2.99806
520 2.68398
525 2.74117
530 2.37079
535 2.11031
540 1.96954
545 1.89037
550 1.50515
555 1.43646
560 1.42501
565 1.24967
570 0.919539
575 0.770646
580 0.667811
585 0.648073
590 0.491393
595 0.465719
600 0.325901
Ex : 418
200 0.21748
205 0.275317
210 0.201529
215 0.296954
220 0.239225
225 0.278051
230 0.159367
235 0.159706
240 0.188252
245 0.214651
250 0.160529
255 0.208601
260 0.242663
265 0.191411
270 0.174781
275 0.213731
280 0.203506
285 0.185439
290 0.176668
295 0.182196
300 0.18834
305 0.197253
310 0.179366
315 0.176438
320 0.174255
325 0.188351
330 0.21868
335 0.201135
340 0.292843
345 0.274339
350 0.28621
355 0.204637
360 0.215879
365 0.268739
370 0.222609
375 0.321175
380 0.302249
385 0.384111
390 0.464324
395 0.543581
400 0.928913
405 15.8532
410 278.037
415 443.015
420 115.87
425 16.2294
430 4.59158
435 3.45412
440 3.70607
445 3.75536
450 3.50221
455 3.27194
460 3.21898
465 3.93914
470 5.74891
475 5.87987
480 4.65234
485 4.18051
490 3.63569
495 3.44891
500 3.19363
505 2.97066
510 2.88056
515 2.73159
520 2.32183
525 2.1903
530 2.14649
535 2.0083
540 1.73394
545 1.59449
550 1.48895
555 1.34896
560 1.30743
565 1.14769
570 0.971553
575 0.883095
580 0.606995
585 0.556056
590 0.530206
595 0.459798
600 0.409107
Ex : 423
200 0.253956
205 0.209947
210 0.173818
215 0.177881
220 0.18562
225 0.286215
230 0.178756
235 0.263889
240 0.225474
245 0.208165
250 0.187731
255 0.257596
260 0.216282
265 0.280551
270 0.216314
275 0.201815
280 0.297806
285 0.184581
290 0.231295
295 0.181205
300 0.160827
305 0.206848
310 0.213232
315 0.201769
320 0.203078
325 0.211155
330 0.252998
335 0.185081
340 0.258498
345 0.235865
350 0.229564
355 0.232691
360 0.295457
365 0.323869
370 0.252332
375 0.259373
380 0.262822
385 0.318213
390 0.361693
395 0.399051
400 0.537292
405 0.843074
410 15.9509
415 286.827
420 440.405
425 109.469
430 14.4693
435 3.54798
440 2.32737
445 2.70455
450 2.66337
455 2.23466
460 2.32608
465 2.377
470 2.93071
475 4.80837
480 5.19835
485 4.06633
490 3.72766
495 3.2566
500 2.85028
505 2.86574
510 2.43621
515 2.20955
520 2.17518
525 2.16433
530 1.84078
535 1.90429
540 1.6701
545 1.4151
550 1.35051
555 1.28967
560 1.23756
565 1.01726
570 0.982438
575 0.837769
580 0.710999
585 0.599006
590 0.548495
595 0.418901
600 0.486413
Ex : 428
200 0.308775
205 0.185902
210 0.148133
215 0.216589
220 0.251763
225 0.229689
230 0.21801
235 0.168438
240 0.216912
245 0.201524
250 0.18113
255 0.23113
260 0.15883
265 0.17602
270 0.213852
275 0.187957
280 0.222844
285 0.214196
290 0.220598
295 0.202287
300 0.193735
305 0.201076
310 0.235485
315 0.235085
320 0.216216
325 0.192508
330 0.184279
335 0.246879
340 0.201812
345 0.25185
350 0.211512
355 0.278206
360 0.296434
365 0.23654
370 0.331251
375 0.310752
380 0.326324
385 0.315903
390 0.362632
395 0.370973
400 0.407695
405 0.554533
410 0.857063
415 17.8034
420 285.733
425 443.24
430 112.803
435 14.5753
440 3.1559
445 1.78552
450 2.0609
455 1.97446
460 1.88564
465 1.80319
470 2.04672
475 2.36616
480 3.56624
485 4.87228
490 3.89217
495 3.21235
500 2.99619
505 2.44066
510 2.30734
515 2.21315
520 2.04555
525 2.00304
530 1.76214
535 1.57364
540 1.53346
545 1.5096
550 1.29867
555 1.27166
560 1.11294
565 1.05665
570 0.875627
575 0.828911
580 0.663509
585 0.634044
590 0.559945
595 0.483862
600 0.344495
Ex : 433
200 0.26852
205 0.22838
210 0.192296
215 0.251736
220 0.183409
225 0.21449
230 0.191376
235 0.190404
240 0.196428
245 0.203117
250 0.202167
255 0.200984
260 0.220616
265 0.207165
270 0.186366
275 0.22271
280 0.238681
285 0.172626
290 0.226572
295 0.165168
300 0.187748
305 0.16974
310 0.236873
315 0.226391
320 0.299288
325 0.199037
330 0.259205
335 0.186669
340 0.212069
345 0.219736
350 0.218525
355 0.199921
360 0.218304
365 0.233729
370 0.257463
375 0.263136
380 0.336868
385 0.309834
390 0.36281
395 0.341315
400 0.420491
405 0.505239
410 0.638398
415 0.856277
420 18.9225
425 300.737
430 444.159
435 109.416
440 13.9285
445 2.97725
450 1.80659
455 1.71969
460 1.94814
465 1.82864
470 1.83611
475 1.92569
480 2.02371
485 2.87731
490 4.37384
495 3.95714
500 3.2958
505 3.03054
510 2.3628
515 2.14416
520 2.01134
525 1.84438
530 1.69823
535 1.55984
540 1.41452
545 1.39713
550 1.33235
555 1.24213
560 1.13921
565 0.999101
570 0.788411
575 0.746749
580 0.666367
585 0.653114
590 0.507112
595 0.446392
600 0.337156
Ex : 438
200 0.228033
205 0.233337
210 0.177784
215 0.240229
220 0.190032
225 0.207042
230 0.221417
235 0.184865
240 0.168701
245 0.209957
250 0.25812
255 0.222552
260 0.235078
265 0.263182
270 0.188346
275 0.205019
280 0.273508
285 0.283361
290 0.2816
295 0.175777
300 0.167104
305 0.246227
310 0.213965
315 0.23326
320 0.249882
325 0.217881
330 0.205785
335 0.205313
340 0.226752
345 0.287878
350 0.253951
355 0.268252
360 0.235178
365 0.268252
370 0.204297
375 0.244763
380 0.314585
385 0.279361
390 0.317454
395 0.281459
400 0.321057
405 0.333013
410 0.43762
415 0.525836
420 0.73296
425 17.9214
430 293.697
435 459.727
440 113.568
445 14.483
450 3.00447
455 1.62163
460 1.76288
465 1.95428
470 1.90347
475 1.76487
480 1.72536
485 1.92146
490 2.40934
495 4.04068
500 4.19078
505 2.9465
510 2.64641
515 2.44114
520 2.01992
525 1.88905
530 1.74247
535 1.70819
540 1.6163
545 1.37687
550 1.23724
555 1.24661
560 1.09966
565 1.14512
570 0.955148
575 0.874445
580 0.662501
585 0.620065
590 0.631912
595 0.417188
600 0.264565
Ex : 443
200 0.218062
205 0.207005
210 0.265539
215 0.219751
220 0.170595
225 0.213207
230 0.187193
235 0.230369
240 0.225003
245 0.237836
250 0.22274
255 0.209279
260 0.184225
265 0.256454
270 0.261291
275 0.191887
280 0.209292
285 0.199278
290 0.244246
295 0.221253
300 0.182644
305 0.224845
310 0.199178
315 0.173648
320 0.177008
325 0.232835
330 0.232981
335 0.213582
340 0.251648
345 0.246147
350 0.199008
355 0.221899
360 0.264997
365 0.243564
370 0.282499
375 0.254859
380 0.261468
385 0.240831
390 0.267809
395 0.285436
400 0.335997
405 0.34095
410 0.463785
415 0.455016
420 0.535697
425 0.79706
430 19.5346
435 308.088
440 457.884
445 111.041
450 14.3047
455 2.94328
460 1.56387
465 1.76576
470 1.92987
475 1.88577
480 1.72972
485 1.80865
490 1.92433
495 1.96447
500 3.15358
505 3.85097
510 2.96179
515 2.39884
520 2.2189
525 1.97304
530 1.72681
535 1.73291
540 1.51693
545 1.54836
550 1.40858
555 1.24565
560 1.14456
565 1.0731
570 0.933806
575 0.737267
580 0.644515
585 0.488304
590 0.551593
595 0.503244
600 0.638934
Ex : 448
200 0.174703
205 0.217853
210 0.225926
215 0.204359
220 0.184284
225 0.27053
230 0.261868
235 0.17744
240 0.189571
245 0.283415
250 0.273739
255 0.242679
260 0.193457
265 0.223405
270 0.240839
275 0.18031
280 0.208431
285 0.140749
290 0.226904
295 0.189735
300 0.191773
305 0.256121
310 0.210831
315 0.23781
320 0.208963
325 0.201851
330 0.164043
335 0.151305
340 0.223694
345 0.296828
350 0.222451
355 0.325284
360 0.237322
365 0.22513
370 0.254188
375 0.236797
380 0.225306
385 0.261782
390 0.305955
395 0.369987
400 0.366669
405 0.326019
410 0.305042
415 0.405122
420 0.430278
425 0.595189
430 0.855955
435 19.9536
440 329.672
445 485.129
450 117.839
455 15.0192
460 3.18582
465 1.69815
470 1.79536
475 1.90552
480 1.7715
485 1.74383
490 1.67836
495 1.56792
500 1.75083
505 2.58653
510 3.74792
515 3.33031
520 2.50667
525 2.2226
530 1.90161
535 1.66452
540 1.45496
545 1.46394
550 1.25888
555 1.17529
560 1.03731
565 0.964268
570 0.856428
575 0.832265
580 0.680265
585 0.57231
590 0.522126
595 0.446143
600 0.489334
Ex : 453
200 0.167202
205 0.165721
210 0.189654
215 0.201183
220 0.234279
225 0.235292
230 0.160351
235 0.157878
240 0.153785
245 0.218163
250 0.233272
255 0.18881
260 0.194047
265 0.236146
270 0.175305
275 0.201455
280 0.216758
285 0.158987
290 0.179276
295 0.245348
300 0.201636
305 0.175122
310 0.197306
315 0.182756
320 0.235491
325 0.201368
330 0.234345
335 0.228237
340 0.210877
345 0.201622
350 0.219298
355 0.171458
360 0.224115
365 0.237528
370 0.211955
375 0.260723
380 0.253774
385 0.239376
390 0.28089
395 0.237252
400 0.270841
405 0.287099
410 0.274943
415 0.342072
420 0.365796
425 0.414426
430 0.595404
435 0.790109
440 20.8634
445 349.344
450 493.087
455 113.003
460 14.4182
465 3.04035
470 1.63057
475 1.62043
480 1.83463
485 1.80148
490 1.58773
495 1.60096
500 1.48028
505 1.57308
510 2.02161
515 3.36211
520 3.21165
525 2.31514
530 2.17303
535 1.95933
540 1.62133
545 1.41818
550 1.22143
555 1.14533
560 1.10964
565 1.08096
570 0.95026
575 0.793135
580 0.64876
585 0.553
590 0.504904
595 0.41599
600 0.457458
Ex : 458
200 0.207481
205 0.247313
210 0.216437
215 0.21412
220 0.222976
225 0.224331
230 0.171055
235 0.209417
240 0.254817
245 0.247974
250 0.200134
255 0.193289
260 0.190237
265 0.17374
270 0.278108
275 0.170263
280 0.234971
285 0.181735
290 0.267924
295 0.224288
300 0.227333
305 0.239871
310 0.251069
315 0.294935
320 0.223585
325 0.257454
330 0.237682
335 0.224873
340 0.211666
345 0.307849
350 0.217343
355 0.241535
360 0.234425
365 0.217277
370 0.225601
375 0.284528
380 0.263583
385 0.22574
390 0.262233
395 0.267633
400 0.300463
405 0.328126
410 0.26518
415 0.35196
420 0.316179
425 0.368679
430 0.458545
435 0.545563
440 0.818502
445 23.902
450 356.702
455 505.806
460 121.392
465 15.4577
470 3.29533
475 1.64505
480 1.5146
485 1.87841
490 1.89737
495 1.58942
500 1.50393
505 1.42071
510 1.46662
515 1.88709
520 2.7619
525 3.59277
530 2.50638
535 1.96981
540 1.95573
545 1.59643
550 1.25824
555 1.17828
560 1.03893
565 1.02679
570 0.923549
575 0.793051
580 0.641739
585 0.549058
590 0.480825
595 0.46692
600 1.00454
Ex : 463
200 0.176799
205 0.217268
210 0.165157
215 0.207405
220 0.1801
225 0.22412
230 0.192263
235 0.201149
240 0.273222
245 0.15683
250 0.199509
255 0.190781
260 0.216952
265 0.172656
270 0.210387
275 0.256876
280 0.216093
285 0.232964
290 0.2157
295 0.241908
300 0.254069
305 0.173158
310 0.164966
315 0.20702
320 0.215728
325 0.192367
330 0.228966
335 0.264997
340 0.215072
345 0.225481
350 0.259008
355 0.185458
360 0.230882
365 0.264014
370 0.272791
375 0.187024
380 0.20436
385 0.243353
390 0.243486
395 0.25905
400 0.262704
405 0.289698
410 0.270408
415 0.249979
420 0.287275
425 0.313061
430 0.332979
435 0.381221
440 0.602352
445 0.781418
450 21.7593
455 361.197
460 539.5
465 127.792
470 16.1427
475 3.15439
480 1.60777
485 1.54265
490 1.66311
495 1.73016
500 1.53938
505 1.43897
510 1.42207
515 1.46303
520 1.62141
525 2.28544
530 3.42975
535 2.78214
540 2.01151
545 1.86635
550 1.70025
555 1.30631
560 1.12422
565 1.10366
570 0.878818
575 0.770593
580 0.652789
585 0.615071
590 0.514425
595 0.429101
600 0.593971
Ex : 468
200 0.224317
205 0.168546
210 0.184965
215 0.173904
220 0.172629
225 0.198627
230 0.184679
235 0.152515
240 0.161135
245 0.215477
250 0.18901
255 0.17274
260 0.17485
265 0.183839
270 0.186532
275 0.163331
280 0.234208
285 0.195107
290 0.190111
295 0.184001
300 0.234219
305 0.214545
310 0.170797
315 0.139414
320 0.197715
325 0.196577
330 0.197402
335 0.181454
340 0.201436
345 0.211294
350 0.22034
355 0.233557
360 0.187057
365 0.18152
370 0.18764
375 0.201566
380 0.224806
385 0.227033
390 0.20128
395 0.231662
400 0.236212
405 0.210158
410 0.265214
415 0.296498
420 0.290287
425 0.258281
430 0.281482
435 0.342816
440 0.32863
445 0.519363
450 0.725924
455 23.5897
460 375.728
465 565.903
470 134.075
475 16.6627
480 3.26328
485 1.56316
490 1.37941
495 1.54697
500 1.60639
505 1.43074
510 1.36173
515 1.32977
520 1.48336
525 1.55761
530 1.80639
535 2.75845
540 2.94589
545 2.00377
550 1.77711
555 1.5746
560 1.2193
565 1.07715
570 0.975766
575 0.891073
580 0.698264
585 0.66155
590 0.449106
595 0.46474
600 0.574623
Ex : 473
200 0.197535
205 0.192373
210 0.174124
215 0.219776
220 0.183419
225 0.183149
230 0.188965
235 0.162401
240 0.163691
245 0.230116
250 0.179569
255 0.199977
260 0.181264
265 0.175304
270 0.23208
275 0.242877
280 0.214945
285 0.188845
290 0.184671
295 0.227015
300 0.163875
305 0.158317
310 0.18382
315 0.207006
320 0.207835
325 0.186618
330 0.189277
335 0.227759
340 0.185154
345 0.219717
350 0.208778
355 0.195113
360 0.249042
365 0.253146
370 0.210054
375 0.23445
380 0.249573
385 0.210725
390 0.201348
395 0.236245
400 0.246784
405 0.220678
410 0.253938
415 0.223444
420 0.260796
425 0.341609
430 0.327487
435 0.314476
440 0.38812
445 0.429202
450 0.566401
455 0.866442
460 26.9164
465 400.815
470 549.824
475 122.798
480 15.4221
485 3.04041
490 1.54555
495 1.26905
500 1.52132
505 1.59057
510 1.50194
515 1.38694
520 1.32279
525 1.4667
530 1.43338
535 1.55461
540 2.50786
545 2.94025
550 2.22649
555 1.65166
560 1.52796
565 1.33541
570 0.993635
575 0.887885
580 0.620572
585 0.606378
590 0.583571
595 0.514741
600 0.697281
Ex : 478
200 0.303681
205 0.238186
210 0.229166
215 0.23745
220 0.240657
225 0.179187
230 0.200248
235 0.198379
240 0.274366
245 0.28811
250 0.233714
255 0.205164
260 0.265916
265 0.292088
270 0.186797
275 0.239147
280 0.21833
285 0.322171
290 0.272339
295 0.302588
300 0.240188
305 0.320409
310 0.187159
315 0.222154
320 0.216072
325 0.226937
330 0.24689
335 0.244897
340 0.29067
345 0.302354
350 0.288501
355 0.26022
360 0.211129
365 0.250001
370 0.24763
375 0.252006
380 0.235371
385 0.320458
390 0.245263
395 0.277245
400 0.323134
405 0.287987
410 0.377539
415 0.250888
420 0.28528
425 0.311472
430 0.410134
435 0.393525
440 0.371547
445 0.42843
450 0.51219
455 0.718113
460 1.0988
465 29.5168
470 410.004
475 553.968
480 133.219
485 16.6425
490 3.3365
495 1.49042
500 1.27238
505 1.47984
510 1.62517
515 1.45732
520 1.5051
525 1.45429
530 1.43029
535 1.49508
540 1.49643
545 2.03112
550 2.63045
555 2.33401
560 1.72072
565 1.38956
570 1.23544
575 0.946635
580 0.73816
585 0.609049
590 0.522463
595 0.49082
600 0.627391
Ex : 483
200 0.233687
205 0.23958
210 0.219859
215 0.22784
220 0.254479
225 0.176685
230 0.297897
235 0.225042
240 0.290963
245 0.205247
250 0.198302
255 0.213693
260 0.26363
265 0.257126
270 0.238053
275 0.230849
280 0.251718
285 0.256063
290 0.232023
295 0.236963
300 0.283843
305 0.262463
310 0.290361
315 0.288474
320 0.201305
325 0.22518
330 0.226085
335 0.263396
340 0.269426
345 0.276789
350 0.239318
355 0.261134
360 0.233583
365 0.289825
370 0.27753
375 0.245408
380 0.24917
385 0.268669
390 0.280936
395 0.251773
400 0.210075
405 0.269352
410 0.287228
415 0.263993
420 0.334686
425 0.326995
430 0.273496
435 0.328312
440 0.375855
445 0.428248
450 0.374924
455 0.489723
460 0.640929
465 1.08727
470 23.8528
475 399.083
480 594.59
485 138.781
490 17.2607
495 3.14668
500 1.53641
505 1.25561
510 1.38909
515 1.63783
520 1.73607
525 1.63547
530 1.48068
535 1.48223
540 1.4618
545 1.45545
550 1.47699
555 2.26162
560 2.48226
565 1.55456
570 1.28431
575 1.17391
580 0.833031
585 0.695805
590 0.609349
595 0.568619
600 0.393048
Ex : 488
200 0.264347
205 0.209685
210 0.275459
215 0.28005
220 0.241045
225 0.199947
230 0.250706
235 0.294621
240 0.230765
245 0.251111
250 0.255336
255 0.303295
260 0.266813
265 0.230622
270 0.279348
275 0.252762
280 0.295387
285 0.337883
290 0.211545
295 0.259462
300 0.298127
305 0.252429
310 0.266456
315 0.281231
320 0.308486
325 0.226322
330 0.239574
335 0.260771
340 0.322714
345 0.285741
350 0.305563
355 0.288617
360 0.253905
365 0.291046
370 0.30241
375 0.332608
380 0.295413
385 0.244736
390 0.296254
395 0.256077
400 0.251076
405 0.406124
410 0.409622
415 0.360315
420 0.297425
425 0.290805
430 0.417564
435 0.341811
440 0.387605
445 0.331891
450 0.408053
455 0.424112
460 0.612078
465 0.706432
470 0.95984
475 28.2478
480 438.986
485 732.742
490 151.507
495 18.6534
500 3.38838
505 1.51154
510 1.36655
515 1.42187
520 1.55359
525 1.67629
530 1.53861
535 1.40563
540 1.45287
545 1.46139
550 1.46936
555 1.46205
560 1.81408
565 2.22336
570 1.7756
575 1.26496
580 0.983531
585 0.822985
590 0.691564
595 0.517316
600 0.396978
Ex : 493
200 0.321033
205 0.313027
210 0.201354
215 0.265457
220 0.226
225 0.314313
230 0.234429
235 0.253078
240 0.198491
245 0.246609
250 0.251413
255 0.218983
260 0.23464
265 0.24607
270 0.288121
275 0.208703
280 0.23718
285 0.334896
290 0.284315
295 0.268664
300 0.311277
305 0.206057
310 0.27186
315 0.274163
320 0.222123
325 0.272414
330 0.28548
335 0.310538
340 0.257634
345 0.267413
350 0.202232
355 0.20061
360 0.349989
365 0.31572
370 0.292808
375 0.331252
380 0.291066
385 0.281334
390 0.239209
395 0.285637
400 0.287215
405 0.231099
410 0.305583
415 0.305752
420 0.339997
425 0.377573
430 0.30245
435 0.315142
440 0.357415
445 0.320197
450 0.314006
455 0.440758
460 0.407501
465 0.646638
470 0.654803
475 1.04344
480 25.9313
485 425.27
490 611.94
495 136.978
500 16.9345
505 3.1393
510 1.55722
515 1.38347
520 1.46193
525 1.74966
530 1.82384
535 1.54344
540 1.32832
545 1.27919
550 1.3626
555 1.25922
560 1.16642
565 1.40771
570 2.07428
575 1.71977
580 1.13385
585 0.845912
590 0.826461
595 0.570048
600 1.37645
Ex : 498
200 0.36852
205 0.290664
210 0.373049
215 0.348423
220 0.246087
225 0.297492
230 0.201154
235 0.296869
240 0.335296
245 0.295355
250 0.300645
255 0.268616
260 0.245191
265 0.265551
270 0.241377
275 0.348291
280 0.292714
285 0.310089
290 0.315369
295 0.276378
300 0.268933
305 0.263194
310 0.263715
315 0.335759
320 0.388817
325 0.292735
330 0.346834
335 0.375154
340 0.282675
345 0.345746
350 0.307357
355 0.308784
360 0.305568
365 0.42657
370 0.276555
375 0.292125
380 0.326885
385 0.257899
390 0.387168
395 0.265797
400 0.33377
405 0.349824
410 0.310387
415 0.326728
420 0.350649
425 0.372076
430 0.305073
435 0.360249
440 0.422781
445 0.269851
450 0.367026
455 0.475013
460 0.43957
465 0.526946
470 0.59536
475 0.844258
480 1.09978
485 31.6019
490 445.445
495 587.872
500 135.02
505 16.811
510 3.27615
515 1.87711
520 1.67451
525 1.60742
530 1.59795
535 1.67445
540 1.53082
545 1.38863
550 1.29038
555 1.23912
560 1.24099
565 1.17742
570 1.15324
575 1.55266
580 1.52501
585 1.04149
590 0.839039
595 0.802894
600 0.546284
Ex : 503
200 0.364483
205 0.285409
210 0.331547
215 0.314824
220 0.316472
225 0.263193
230 0.290854
235 0.255996
240 0.263891
245 0.4178
250 0.346317
255 0.3245
260 0.246339
265 0.243
270 0.271056
275 0.281161
280 0.278623
285 0.320959
290 0.336749
295 0.247854
300 0.300142
305 0.30935
310 0.295321
315 0.278697
320 0.289325
325 0.279493
330 0.292859
335 0.335981
340 0.362639
345 0.383391
350 0.250017
355 0.336945
360 0.299115
365 0.311027
370 0.353263
375 0.291198
380 0.291447
385 0.315185
390 0.339651
395 0.400377
400 0.31661
405 0.329724
410 0.3556
415 0.277148
420 0.323494
425 0.363925
430 0.363101
435 0.361836
440 0.453703
445 0.335384
450 0.394531
455 0.387598
460 0.484059
465 0.586866
470 0.551935
475 0.527249
480 0.83421
485 1.03527
490 28.2001
495 442.002
500 607.906
505 138.533
510 17.3903
515 3.44528
520 1.79935
525 1.56691
530 1.60111
535 1.71087
540 1.62345
545 1.53614
550 1.29823
555 1.19029
560 1.04103
565 1.04839
570 0.934847
575 1.09783
580 1.15225
585 1.29664
590 1.15092
595 0.766936
600 0.574062
Ex : 508
200 0.43545
205 0.339845
210 0.323056
215 0.27869
220 0.328607
225 0.338379
230 0.304986
235 0.280585
240 0.282783
245 0.358916
250 0.292355
255 0.321655
260 0.285656
265 0.309926
270 0.40711
275 0.28287
280 0.302539
285 0.298756
290 0.240358
295 0.277168
300 0.413432
305 0.31118
310 0.293623
315 0.351437
320 0.306559
325 0.323878
330 0.335908
335 0.414171
340 0.284034
345 0.340056
350 0.41486
355 0.403214
360 0.394259
365 0.289475
370 0.300987
375 0.412959
380 0.320894
385 0.308597
390 0.329375
395 0.364181
400 0.376816
405 0.511401
410 0.40641
415 0.388642
420 0.332966
425 0.317711
430 0.329067
435 0.347
440 0.364723
445 0.376824
450 0.41996
455 0.464711
460 0.490197
465 0.536086
470 0.493197
475 0.567836
480 0.645542
485 0.725594
490 1.1543
495 30.3193
500 443.958
505 605.855
510 143.957
515 18.1356
520 3.44987
525 1.86118
530 1.57433
535 1.35222
540 1.52888
545 1.64995
550 1.42273
555 1.37239
560 1.04817
565 1.08445
570 1.02583
575 0.793147
580 0.816801
585 0.858137
590 1.15525
595 1.05188
600 1.15288
Ex : 513
200 0.360447
205 0.370783
210 0.283243
215 0.300594
220 0.356928
225 0.339257
230 0.390034
235 0.362809
240 0.376343
245 0.287511
250 0.269238
255 0.361156
260 0.283454
265 0.262722
270 0.392887
275 0.435152
280 0.31842
285 0.349879
290 0.342976
295 0.312531
300 0.240767
305 0.311493
310 0.306067
315 0.232909
320 0.268819
325 0.255429
330 0.32594
335 0.328528
340 0.34576
345 0.380777
350 0.349633
355 0.357287
360 0.378834
365 0.364156
370 0.420906
375 0.318635
380 0.296498
385 0.326147
390 0.325569
395 0.329111
400 0.295262
405 0.343653
410 0.413961
415 0.343153
420 0.308323
425 0.393902
430 0.387635
435 0.341362
440 0.375753
445 0.42558
450 0.357258
455 0.378338
460 0.39461
465 0.402705
470 0.422423
475 0.530461
480 0.571227
485 0.65064
490 0.967834
495 1.10073
500 27.7042
505 437.508
510 623.557
515 149.683
520 18.7278
525 3.56077
530 1.82534
535 1.41001
540 1.53995
545 1.53668
550 1.65815
555 1.29453
560 1.23355
565 1.04278
570 0.932318
575 0.884438
580 0.666784
585 0.744139
590 0.753068
595 0.90939
600 1.01196
Ex : 518
200 0.293267
205 0.322687
210 0.278031
215 0.372926
220 0.273388
225 0.32132
230 0.295638
235 0.265722
240 0.377986
245 0.309909
250 0.361396
255 0.257286
260 0.316276
265 0.353651
270 0.314064
275 0.267062
280 0.383811
285 0.319647
290 0.30783
295 0.385791
300 0.34033
305 0.307493
310 0.305755
315 0.289963
320 0.33524
325 0.418346
330 0.388069
335 0.391452
340 0.33683
345 0.257018
350 0.36441
355 0.30354
360 0.340451
365 0.365754
370 0.336102
375 0.357302
380 0.33302
385 0.308387
390 0.375174
395 0.347343
400 0.273895
405 0.351494
410 0.458585
415 0.365445
420 0.376999
425 0.317384
430 0.34595
435 0.406727
440 0.498271
445 0.305435
450 0.429619
455 0.365375
460 0.475808
465 0.460148
470 0.465771
475 0.457373
480 0.589867
485 0.508622
490 0.696056
495 0.701872
500 1.13385
505 31.2944
510 445.003
515 614.965
520 149.208
525 18.5869
530 3.50889
535 2.00547
540 1.38174
545 1.29947
550 1.37724
555 1.47433
560 1.20252
565 1.12872
570 1.09328
575 0.915617
580 0.673195
585 0.579268
590 0.598283
595 0.60082
600 0.488395
Ex : 523
200 0.223111
205 0.267339
210 0.340724
215 0.276883
220 0.446778
225 0.371823
230 0.338631
235 0.281784
240 0.296284
245 0.43724
250 0.342967
255 0.450005
260 0.359143
265 0.37614
270 0.470606
275 0.400527
280 0.357948
285 0.384007
290 0.343564
295 0.334157
300 0.289075
305 0.333333
310 0.397262
315 0.361895
320 0.41639
325 0.287225
330 0.414719
335 0.412671
340 0.318049
345 0.415962
350 0.387309
355 0.366032
360 0.41959
365 0.341283
370 0.393068
375 0.398939
380 0.361411
385 0.365947
390 0.42425
395 0.360936
400 0.473601
405 0.273306
410 0.46672
415 0.414864
420 0.392231
425 0.344873
430 0.291055
435 0.341962
440 0.335148
445 0.472191
450 0.45046
455 0.37572
460 0.47028
465 0.385616
470 0.472517
475 0.527427
480 0.595671
485 0.476365
490 0.546141
495 0.74246
500 0.752127
505 1.04966
510 26.1421
515 404.725
520 603.549
525 151.451
530 18.9591
535 3.48781
540 1.67771
545 1.35174
550 1.30882
555 1.41959
560 1.17989
565 1.12342
570 1.07739
575 0.835984
580 0.699573
585 0.624694
590 0.633739
595 0.523052
600 0.26804
Ex : 528
200 0.288543
205 0.278532
210 0.363934
215 0.404862
220 0.335619
225 0.28722
230 0.420681
235 0.335562
240 0.356292
245 0.300576
250 0.355517
255 0.425947
260 0.374998
265 0.320859
270 0.402111
275 0.365816
280 0.413567
285 0.360887
290 0.275675
295 0.393978
300 0.425107
305 0.413656
310 0.340218
315 0.355225
320 0.31044
325 0.260084
330 0.332226
335 0.307145
340 0.414051
345 0.38655
350 0.421083
355 0.346728
360 0.368741
365 0.368778
370 0.452439
375 0.369613
380 0.419063
385 0.375681
390 0.346332
395 0.444765
400 0.513047
405 0.381004
410 0.346018
415 0.410773
420 0.401014
425 0.349676
430 0.448562
435 0.432123
440 0.490227
445 0.442611
450 0.512596
455 0.347296
460 0.417352
465 0.39697
470 0.444418
475 0.412286
480 0.459638
485 0.408385
490 0.500253
495 0.539112
500 0.683864
505 0.752633
510 1.16015
515 24.3131
520 400.35
525 607.923
530 150.171
535 18.7899
540 3.3307
545 1.52664
550 1.51926
555 1.17986
560 1.20286
565 1.19902
570 1.15861
575 0.948403
580 0.827091
585 0.691828
590 0.624291
595 0.666127
600 0.981921
Ex : 533
200 0.414235
205 0.319217
210 0.356401
215 0.352421
220 0.375205
225 0.325502
230 0.347678
235 0.451496
240 0.322032
245 0.362944
250 0.338853
255 0.405446
260 0.333602
265 0.374456
270 0.359897
275 0.298855
280 0.463631
285 0.441329
290 0.339673
295 0.397303
300 0.345122
305 0.356678
310 0.438803
315 0.470223
320 0.401005
325 0.295407
330 0.330121
335 0.423406
340 0.391088
345 0.439635
350 0.409999
355 0.345174
360 0.396862
365 0.442325
370 0.411937
375 0.394398
380 0.498772
385 0.414531
390 0.360474
395 0.336422
400 0.344076
405 0.422811
410 0.359805
415 0.471584
420 0.466773
425 0.32173
430 0.392247
435 0.472634
440 0.450838
445 0.399942
450 0.456609
455 0.466598
460 0.508194
465 0.530012
470 0.504567
475 0.444532
480 0.46813
485 0.60023
490 0.502331
495 0.557263
500 0.57119
505 0.716767
510 0.984378
515 1.19925
520 23.6228
525 386.422
530 588.817
535 150.388
540 18.6156
545 3.49808
550 1.48042
555 1.02843
560 1.11798
565 0.98494
570 0.924578
575 0.903574
580 0.71431
585 0.580387
590 0.546371
595 0.558342
600 0.433211
Ex : 538
200 0.318475
205 0.41796
210 0.273728
215 0.367742
220 0.336832
225 0.32306
230 0.428682
235 0.312678
240 0.364312
245 0.390663
250 0.395657
255 0.351513
260 0.315775
265 0.410209
270 0.483424
275 0.293624
280 0.298963
285 0.433645
290 0.341596
295 0.334148
300 0.318287
305 0.423043
310 0.299447
315 0.284298
320 0.360729
325 0.390096
330 0.381381
335 0.360222
340 0.344636
345 0.40115
350 0.431631
355 0.394469
360 0.433557
365 0.441254
370 0.500153
375 0.3563
380 0.480818
385 0.468168
390 0.377328
395 0.366908
400 0.3588
405 0.394133
410 0.440356
415 0.367711
420 0.323355
425 0.374278
430 0.485439
435 0.433963
440 0.414032
445 0.359517
450 0.47342
455 0.366007
460 0.429043
465 0.422094
470 0.371848
475 0.453493
480 0.435619
485 0.414178
490 0.468007
495 0.489087
500 0.515605
505 0.609652
510 0.687155
515 0.717856
520 1.22451
525 20.8393
530 365.326
535 578.742
540 153.471
545 19.0583
550 3.2768
555 1.42381
560 0.983877
565 0.804625
570 0.775213
575 0.804256
580 0.710566
585 0.580947
590 0.605456
595 0.646721
600 0.250835
Ex : 543
200 0.370221
205 0.308848
210 0.327197
215 0.416649
220 0.459954
225 0.485966
230 0.400705
235 0.369359
240 0.346276
245 0.382125
250 0.320883
255 0.318618
260 0.387519
265 0.336027
270 0.314383
275 0.37692
280 0.429543
285 0.417263
290 0.441938
295 0.325714
300 0.402192
305 0.412433
310 0.331918
315 0.453046
320 0.337274
325 0.340877
330 0.4048
335 0.411942
340 0.456785
345 0.337894
350 0.455268
355 0.407524
360 0.428585
365 0.405207
370 0.429552
375 0.411868
380 0.37181
385 0.406748
390 0.363314
395 0.445278
400 0.413909
405 0.461239
410 0.389886
415 0.364701
420 0.459241
425 0.440078
430 0.469983
435 0.504608
440 0.4722
445 0.446115
450 0.382965
455 0.385392
460 0.406423
465 0.538172
470 0.431393
475 0.426112
480 0.455884
485 0.558003
490 0.552603
495 0.481682
500 0.462783
505 0.516779
510 0.599411
515 0.710744
520 0.823333
525 0.984653
530 18.0559
535 345.724
540 572.666
545 158.621
550 19.6531
555 3.24603
560 1.31388
565 1.15447
570 0.798216
575 0.793384
580 0.703741
585 0.68938
590 0.594032
595 0.645013
600 0.567526
Ex : 548
200 0.406061
205 0.331234
210 0.413814
215 0.45239
220 0.410397
225 0.434515
230 0.35067
235 0.419876
240 0.370084
245 0.410882
250 0.381727
255 0.349086
260 0.362615
265 0.479873
270 0.327388
275 0.410366
280 0.37046
285 0.507334
290 0.385197
295 0.48507
300 0.610144
305 0.340264
310 0.420836
315 0.358001
320 0.368683
325 0.412235
330 0.379254
335 0.442023
340 0.336434
345 0.400374
350 0.51651
355 0.46817
360 0.415604
365 0.475807
370 0.469499
375 0.442609
380 0.407128
385 0.44879
390 0.36066
395 0.50225
400 0.540465
405 0.462052
410 0.458475
415 0.370249
420 0.368163
425 0.454793
430 0.416962
435 0.369223
440 0.427576
445 0.438287
450 0.366794
455 0.520324
460 0.452375
465 0.401605
470 0.537254
475 0.469653
480 0.39468
485 0.390603
490 0.448508
495 0.453497
500 0.471854
505 0.550624
510 0.48935
515 0.599279
520 0.801733
525 0.81579
530 0.963952
535 20.4289
540 349.516
545 591.375
550 170.826
555 20.7654
560 3.36568
565 1.24632
570 0.974051
575 0.792856
580 0.705577
585 0.727223
590 0.631795
595 0.640542
600 1.05325
Ex : 553
200 0.381171
205 0.456262
210 0.402684
215 0.347005
220 0.451488
225 0.508198
230 0.45892
235 0.579621
240 0.481773
245 0.363509
250 0.390576
255 0.349138
260 0.341973
265 0.357566
270 0.404883
275 0.361909
280 0.399506
285 0.52451
290 0.380722
295 0.437829
300 0.346363
305 0.381427
310 0.379641
315 0.370273
320 0.440073
325 0.504328
330 0.340086
335 0.465634
340 0.354217
345 0.347539
350 0.411094
355 0.397275
360 0.389135
365 0.378521
370 0.485833
375 0.462219
380 0.453938
385 0.363255
390 0.430873
395 0.501835
400 0.4297
405 0.470867
410 0.489895
415 0.42631
420 0.441046
425 0.364649
430 0.427423
435 0.54968
440 0.424181
445 0.429082
450 0.446468
455 0.570305
460 0.427287
465 0.524164
470 0.487936
475 0.560633
480 0.48524
485 0.46229
490 0.469733
495 0.469058
500 0.416308
505 0.503257
510 0.549316
515 0.581933
520 0.54209
525 0.546371
530 0.819925
535 1.02419
540 17.6709
545 329.626
550 541.323
555 150.837
560 18.672
565 3.09493
570 1.04737
575 0.995379
580 0.790287
585 0.532692
590 0.646676
595 0.571401
600 0.398788
Ex : 558
200 0.51761
205 0.459319
210 0.440221
215 0.413684
220 0.326646
225 0.375705
230 0.395524
235 0.310037
240 0.346665
245 0.526117
250 0.429358
255 0.415809
260 0.434558
265 0.334186
270 0.431252
275 0.429805
280 0.467027
285 0.474192
290 0.306719
295 0.423527
300 0.373613
305 0.396969
310 0.369443
315 0.446646
320 0.406698
325 0.345109
330 0.475445
335 0.396565
340 0.540089
345 0.510781
350 0.381854
355 0.391615
360 0.373447
365 0.429597
370 0.572668
375 0.423079
380 0.346608
385 0.355732
390 0.355604
395 0.544539
400 0.439159
405 0.555791
410 0.537418
415 0.451046
420 0.500658
425 0.584644
430 0.527493
435 0.463487
440 0.339035
445 0.483169
450 0.518525
455 0.407248
460 0.481317
465 0.503861
470 0.476442
475 0.413114
480 0.411488
485 0.460218
490 0.531565
495 0.424267
500 0.640172
505 0.444114
510 0.572645
515 0.600167
520 0.523095
525 0.549114
530 0.708957
535 0.896831
540 1.20713
545 16.1021
550 309.808
555 524.78
560 147.397
565 18.0717
570 2.86326
575 1.17526
580 0.79949
585 0.650917
590 0.462763
595 0.620802
600 0.419218
Ex : 563
200 0.549731
205 0.543974
210 0.383505
215 0.399493
220 0.403754
225 0.361342
230 0.44759
235 0.459559
240 0.43881
245 0.302865
250 0.379733
255 0.534349
260 0.408755
265 0.37166
270 0.379783
275 0.468724
280 0.561964
285 0.371903
290 0.330472
295 0.442461
300 0.440497
305 0.454501
310 0.373511
315 0.399476
320 0.397805
325 0.475581
330 0.459585
335 0.415807
340 0.342767
345 0.41547
350 0.482484
355 0.401623
360 0.429924
365 0.457367
370 0.44977
375 0.412722
380 0.424249
385 0.496122
390 0.39306
395 0.539239
400 0.357637
405 0.462679
410 0.435579
415 0.443322
420 0.505554
425 0.430545
430 0.465997
435 0.605762
440 0.384873
445 0.426632
450 0.51431
455 0.454391
460 0.497294
465 0.449891
470 0.437924
475 0.427815
480 0.37106
485 0.467463
490 0.491935
495 0.431064
500 0.422556
505 0.49345
510 0.528872
515 0.440214
520 0.458382
525 0.591425
530 0.701837
535 0.601411
540 0.707571
545 0.873561
550 15.9433
555 296.994
560 507.292
565 146.55
570 17.8114
575 2.79766
580 0.976452
585 0.773287
590 0.688867
595 0.63916
600 0.368135
Ex : 568
200 0.379141
205 0.434909
210 0.405083
215 0.400849
220 0.423891
225 0.426642
230 0.429481
235 0.581531
240 0.549683
245 0.349526
250 0.396664
255 0.361866
260 0.517903
265 0.528173
270 0.498197
275 0.451063
280 0.614727
285 0.435732
290 0.33841
295 0.40979
300 0.413255
305 0.430933
310 0.472816
315 0.454215
320 0.515229
325 0.601988
330 0.36831
335 0.459793
340 0.50232
345 0.52679
350 0.452959
355 0.477254
360 0.392971
365 0.452926
370 0.627461
375 0.469463
380 0.48497
385 0.384026
390 0.437953
395 0.513241
400 0.543574
405 0.420176
410 0.412368
415 0.429759
420 0.560483
425 0.491911
430 0.559126
435 0.583487
440 0.527722
445 0.449504
450 0.537639
455 0.528812
460 0.440494
465 0.475672
470 0.458453
475 0.581966
480 0.406565
485 0.564597
490 0.529015
495 0.603009
500 0.494511
505 0.619243
510 0.4894
515 0.404443
520 0.510419
525 0.475369
530 0.603502
535 0.519319
540 0.596581
545 0.77538
550 0.951542
555 12.27
560 267.802
565 484.067
570 144.999
575 17.9141
580 2.76629
585 0.977984
590 0.599025
595 0.598956
600 1.06046
Ex : 573
200 0.549809
205 0.464357
210 0.32191
215 0.395289
220 0.329353
225 0.413797
230 0.393482
235 0.390257
240 0.524818
245 0.540451
250 0.574493
255 0.439891
260 0.509743
265 0.582039
270 0.54907
275 0.463454
280 0.421165
285 0.535995
290 0.372225
295 0.353668
300 0.464183
305 0.593496
310 0.432939
315 0.457629
320 0.571192
325 0.358491
330 0.475698
335 0.484974
340 0.469833
345 0.465872
350 0.439562
355 0.527825
360 0.518997
365 0.411993
370 0.479246
375 0.498334
380 0.438685
385 0.397723
390 0.42597
395 0.560805
400 0.423081
405 0.442892
410 0.471505
415 0.56825
420 0.667945
425 0.548847
430 0.456099
435 0.419728
440 0.570738
445 0.574831
450 0.377646
455 0.568127
460 0.446338
465 0.576196
470 0.567037
475 0.521872
480 0.483082
485 0.446775
490 0.474436
495 0.459663
500 0.402048
505 0.422222
510 0.501137
515 0.521036
520 0.435506
525 0.479683
530 0.672828
535 0.612099
540 0.610679
545 0.63975
550 0.712494
555 0.911078
560 10.5282
565 229.914
570 443.185
575 137.444
580 16.891
585 2.60093
590 0.94446
595 0.593713
600 0.510664
Ex : 578
200 0.343442
205 0.41308
210 0.451942
215 0.40104
220 0.537582
225 0.385775
230 0.476734
235 0.488965
240 0.478487
245 0.469439
250 0.537834
255 0.454948
260 0.448847
265 0.488509
270 0.531963
275 0.41291
280 0.393666
285 0.390594
290 0.380871
295 0.507849
300 0.465772
305 0.62149
310 0.43932
315 0.400539
320 0.527342
325 0.348223
330 0.392228
335 0.444855
340 0.462385
345 0.5076
350 0.509749
355 0.492764
360 0.596768
365 0.464374
370 0.568012
375 0.475407
380 0.412638
385 0.663914
390 0.421297
395 0.493924
400 0.453764
405 0.324686
410 0.427414
415 0.570554
420 0.514197
425 0.52753
430 0.506296
435 0.447557
440 0.420967
445 0.458432
450 0.444865
455 0.512859
460 0.51002
465 0.562384
470 0.572658
475 0.50057
480 0.454282
485 0.433724
490 0.513971
495 0.520765
500 0.535518
505 0.629101
510 0.377116
515 0.420491
520 0.713383
525 0.527154
530 0.565883
535 0.533184
540 0.613288
545 0.545983
550 0.622241
555 0.765223
560 0.984643
565 9.81758
570 215.479
575 395.159
580 119.479
585 14.6374
590 2.45085
595 0.739659
600 0.164129
Ex : 583
200 0.409116
205 0.534453
210 0.45313
215 0.423661
220 0.474639
225 0.382474
230 0.550186
235 0.517326
240 0.42675
245 0.49027
250 0.449001
255 0.51938
260 0.447691
265 0.450329
270 0.402516
275 0.483885
280 0.502537
285 0.467017
290 0.459932
295 0.428354
300 0.501292
305 0.512991
310 0.465212
315 0.428519
320 0.496957
325 0.522262
330 0.510831
335 0.552936
340 0.390199
345 0.343919
350 0.488798
355 0.516107
360 0.376855
365 0.486564
370 0.506536
375 0.324079
380 0.325737
385 0.503179
390 0.484934
395 0.461607
400 0.398733
405 0.499316
410 0.528784
415 0.426092
420 0.604134
425 0.715411
430 0.590366
435 0.493508
440 0.52091
445 0.491323
450 0.445926
455 0.61028
460 0.568852
465 0.580667
470 0.456798
475 0.533958
480 0.462878
485 0.483585
490 0.496727
495 0.477798
500 0.43141
505 0.620411
510 0.525602
515 0.537277
520 0.40659
525 0.531911
530 0.627939
535 0.681382
540 0.513649
545 0.636589
550 0.537921
555 0.728328
560 0.784988
565 0.953842
570 7.8329
575 186.854
580 347.7
585 100.586
590 12.3079
595 1.86027
600 1.26832
Ex : 588
200 0.468295
205 0.405158
210 0.420579
215 0.326645
220 0.31365
225 0.378909
230 0.384322
235 0.444237
240 0.440777
245 0.516564
250 0.561383
255 0.523711
260 0.533787
265 0.521179
270 0.607351
275 0.544609
280 0.432726
285 0.433745
290 0.325328
295 0.463908
300 0.319703
305 0.490439
310 0.536233
315 0.42921
320 0.394907
325 0.500122
330 0.631173
335 0.668694
340 0.475388
345 0.515332
350 0.659239
355 0.519137
360 0.61761
365 0.441171
370 0.543556
375 0.430552
380 0.475232
385 0.615274
390 0.593961
395 0.396016
400 0.428142
405 0.554005
410 0.486221
415 0.406909
420 0.367368
425 0.521669
430 0.45716
435 0.404269
440 0.421995
445 0.445773
450 0.487167
455 0.513025
460 0.447681
465 0.487906
470 0.610831
475 0.569726
480 0.482828
485 0.482673
490 0.513137
495 0.525537
500 0.42822
505 0.563327
510 0.598069
515 0.517542
520 0.631295
525 0.512819
530 0.58099
535 0.545715
540 0.553523
545 0.55464
550 0.569567
555 0.624808
560 0.665307
565 0.656249
570 0.761584
575 7.0985
580 157
585 293.246
590 85.5112
595 10.7029
600 2.23885
Ex : 593
200 0.572164
205 0.523314
210 0.40618
215 0.424096
220 0.461254
225 0.37991
230 0.624132
235 0.496004
240 0.570841
245 0.547357
250 0.61841
255 0.628156
260 0.47006
265 0.429445
270 0.356001
275 0.594811
280 0.506002
285 0.447149
290 0.573842
295 0.733289
300 0.765045
305 0.535042
310 0.533481
315 0.430432
320 0.426037
325 0.501735
330 0.515156
335 0.495696
340 0.61073
345 0.413391
350 0.503033
355 0.528277
360 0.50721
365 0.493352
370 0.633869
375 0.468765
380 0.509167
385 0.549069
390 0.556772
395 0.523233
400 0.614087
405 0.438289
410 0.49458
415 0.52524
420 0.42713
425 0.650472
430 0.509991
435 0.585854
440 0.502926
445 0.548715
450 0.613676
455 0.586831
460 0.462447
465 0.45683
470 0.557065
475 0.521553
480 0.485383
485 0.54465
490 0.577036
495 0.502127
500 0.46017
505 0.464346
510 0.578494
515 0.509997
520 0.575047
525 0.496128
530 0.595394
535 0.530074
540 0.497901
545 0.486934
550 0.68773
555 0.591326
560 0.671496
565 0.640928
570 0.766185
575 0.842525
580 6.47367
585 142.121
590 256.82
595 77.0329
600 11.6332
Ex : 598
200 0.47652
205 0.544506
210 0.480453
215 0.40938
220 0.35513
225 0.42075
230 0.629687
235 0.555602
240 0.43542
245 0.582096
250 0.368091
255 0.485363
260 0.39765
265 0.556997
270 0.632672
275 0.551744
280 0.409562
285 0.632988
290 0.524947
295 0.618834
300 0.661161
305 0.356974
310 0.494509
315 0.522233
320 0.597995
325 0.491829
330 0.507013
335 0.542356
340 0.563826
345 0.484758
350 0.585726
355 0.683192
360 0.556799
365 0.520106
370 0.542638
375 0.571187
380 0.850002
385 0.48293
390 0.522254
395 0.454964
400 0.425853
405 0.577387
410 0.503032
415 0.536818
420 0.671513
425 0.421423
430 0.513336
435 0.454546
440 0.464542
445 0.549564
450 0.490277
455 0.53107
460 0.625996
465 0.558779
470 0.681969
475 0.60746
480 0.707313
485 0.548307
490 0.57064
495 0.502223
500 0.530921
505 0.528037
510 0.558892
515 0.435379
520 0.624809
525 0.564413
530 0.547287
535 0.496433
540 0.48287
545 0.518938
550 0.629193
555 0.645894
560 0.467223
565 0.541301
570 0.626158
575 0.777986
580 0.811114
585 6.5122
590 125.464
595 228.062
600 141.394
Ex : 603
200 0.539817
205 0.395949
210 0.452094
215 0.63794
220 0.734708
225 0.558191
230 0.50633
235 0.43923
240 0.434024
245 0.457244
250 0.396862
255 0.474907
260 0.525407
265 0.550889
270 0.50892
275 0.549816
280 0.613114
285 0.472821
290 0.653083
295 0.554826
300 0.677291
305 0.511239
310 0.680235
315 0.620957
320 0.591913
325 0.565603
330 0.640279
335 0.580684
340 0.516032
345 0.580773
350 0.523316
355 0.546438
360 0.672423
365 0.625587
370 0.710835
375 0.56086
380 0.509161
385 0.577925
390 0.629286
395 0.768679
400 0.595662
405 0.525737
410 0.476485
415 0.402723
420 0.530434
425 0.44133
430 0.604245
435 0.454398
440 0.428517
445 0.692828
450 0.480563
455 0.436902
460 0.490677
465 0.530315
470 0.529285
475 0.688398
480 0.466394
485 0.617982
490 0.478571
495 0.465277
500 0.546977
505 0.608379
510 0.497007
515 0.543139
520 0.449643
525 0.442582
530 0.644477
535 0.581657
540 0.809301
545 0.620829
550 0.669276
555 0.67955
560 0.652401
565 0.787726
570 0.614328
575 0.558862
580 0.718583
585 0.813726
590 5.44184
595 106.319
600 226.018
