File format V 1.0
ven. 9. déc. 19:10:07 2016
Operator : 
Comments : 

=============================================
SpectroFluorometer parameters
Mode : 3D measurement
Data : Fluorescence
Phospho. : Ordinary
Spectrum : Fluorescence

Scan speed : 2400 nm/mn
Response : 100 ms
PM Voltage : 700 V
Shutter : On

Lambda Ex. Start : 203
Lambda Ex. End : 603
Lambda Ex. Step : 5
Ex. Slit : 5 nm

Lambda Em. Start : 200
Lambda Em. End : 600
Lambda Em. Step : 5
Em. Slit : 5 nm

Repetition : 1
Decal lambda em : 10
=============================================
DATA
Ex : 203
200 20.2237
205 16.4752
210 20.604
215 19.9269
220 15.4409
225 15.7106
230 14.9222
235 22.0808
240 23.0772
245 18.3548
250 19.5249
255 16.9041
260 17.2262
265 18.2001
270 21.1055
275 22.8242
280 18.0045
285 16.5288
290 19.6208
295 17.2468
300 17.9367
305 14.8544
310 18.5389
315 17.1632
320 17.8991
325 16.8878
330 21.3256
335 13.4486
340 14.2895
345 21.5993
350 19.8311
355 15.3439
360 18.2025
365 19.8128
370 18.463
375 21.6806
380 19.798
385 17.9036
390 15.3806
395 20.9745
400 20.5624
405 17.2993
410 19.126
415 17.4419
420 13.4329
425 15.3041
430 17.1739
435 19.6611
440 16.1634
445 20.5634
450 19.4234
455 13.1648
460 18.9463
465 19.7017
470 15.1393
475 19.1693
480 17.3184
485 17.7197
490 19.9945
495 14.3084
500 15.6117
505 18.2635
510 18.4399
515 18.5926
520 14.9377
525 18.6423
530 17.6408
535 15.3063
540 22.3784
545 17.2721
550 20.4718
555 19.1107
560 18.2086
565 19.0495
570 17.4149
575 20.9045
580 17.2407
585 17.072
590 15.3717
595 14.4059
600 20.0281
Ex : 208
200 14.3081
205 13.9405
210 21.8323
215 15.9041
220 18.9945
225 17.969
230 19.9771
235 16.3645
240 15.8074
245 15.3257
250 15.3072
255 17.0201
260 15.8169
265 15.1095
270 16.2439
275 14.8254
280 22.5853
285 14.754
290 15.9941
295 17.4824
300 14.2267
305 14.693
310 13.0502
315 19.8896
320 13.7154
325 15.6701
330 17.2042
335 16.9661
340 16.0005
345 15.1255
350 16.9762
355 14.5775
360 16.603
365 24.6905
370 18.6538
375 16.9334
380 16.409
385 16.5964
390 18.5325
395 18.3902
400 17.8164
405 17.1224
410 21.2889
415 17.7042
420 17.9609
425 18.0869
430 15.8925
435 19.428
440 18.3479
445 19.3892
450 15.4568
455 20.7715
460 15.0297
465 18.0028
470 15.6353
475 13.7268
480 20.4718
485 19.5718
490 17.3702
495 19.3508
500 18.6702
505 15.2382
510 14.1626
515 18.7583
520 15.4332
525 15.7208
530 17.6029
535 19.6331
540 17.1565
545 16.6046
550 14.7189
555 23.847
560 18.5995
565 17.7072
570 18.3497
575 23.0233
580 21.0518
585 20.5762
590 19.5764
595 20.2437
600 5.84847
Ex : 213
200 15.175
205 19.8484
210 19.8455
215 15.932
220 17.4674
225 12.8998
230 17.7361
235 15.3376
240 19.3741
245 12.8175
250 18.8666
255 12.2517
260 14.0565
265 20.6231
270 12.2701
275 13.4799
280 20.0246
285 17.7953
290 12.8244
295 16.4067
300 13.4815
305 15.1062
310 14.8839
315 13.0197
320 16.3797
325 12.4032
330 14.0976
335 15.8382
340 16.3508
345 16.3461
350 15.8305
355 16.5159
360 12.6911
365 16.3816
370 19.686
375 24.6255
380 21.4694
385 17.6228
390 21.0646
395 16.3216
400 16.7265
405 22.2136
410 21.532
415 17.917
420 17.5422
425 16.5812
430 16.6999
435 17.9505
440 14.9232
445 16.3727
450 17.1596
455 17.1381
460 20.5279
465 20.3217
470 15.1227
475 20.308
480 17.7358
485 20.0636
490 17.3486
495 18.7563
500 15.8135
505 17.5269
510 17.5438
515 12.4949
520 22.433
525 14.8445
530 15.3511
535 18.5123
540 24.6243
545 20.9317
550 17.7557
555 13.9307
560 18.923
565 14.8112
570 13.5972
575 11.9003
580 17.1233
585 17.5152
590 17.6604
595 13.8348
600 7.60053
Ex : 218
200 18.8225
205 15.6937
210 14.1241
215 17.9124
220 18.7544
225 13.561
230 15.8475
235 14.6168
240 18.8834
245 15.3397
250 14.2823
255 17.0359
260 16.6891
265 17.2671
270 20.0008
275 16.2477
280 17.459
285 14.7603
290 11.5347
295 22.8917
300 15.1115
305 15.2796
310 19.2604
315 15.4278
320 13.5955
325 17.0025
330 14.9694
335 17.1035
340 22.6736
345 21.3983
350 12.4395
355 13.4388
360 21.0258
365 17.9682
370 16.099
375 19.6276
380 15.56
385 21.9493
390 15.881
395 11.8542
400 13.8751
405 17.237
410 14.7881
415 14.913
420 19.5332
425 17.0081
430 15.1705
435 15.4729
440 19.2591
445 19.2638
450 16.1182
455 16.8632
460 17.9506
465 19.6394
470 21.2566
475 12.3875
480 19.3012
485 14.3976
490 16.8406
495 16.9972
500 16.1873
505 18.2141
510 19.6604
515 14.6656
520 16.541
525 26.5724
530 13.7999
535 14.8835
540 20.3761
545 17.6933
550 15.0877
555 13.0615
560 15.4753
565 19.7175
570 12.5453
575 14.9081
580 11.0419
585 14.4505
590 14.2494
595 12.116
600 10.2408
Ex : 223
200 11.8342
205 19.8806
210 16.2492
215 15.7144
220 18.6526
225 18.2696
230 14.0863
235 18.3989
240 13.271
245 17.0363
250 15.7413
255 11.792
260 14.2259
265 15.0854
270 14.2448
275 18.3028
280 13.7816
285 18.8249
290 18.4858
295 15.6156
300 17.397
305 14.1678
310 13.4551
315 14.6508
320 16.3093
325 19.7344
330 13.1984
335 19.9751
340 18.7896
345 13.4308
350 14.97
355 19.5364
360 20.2622
365 20.9212
370 20.9745
375 16.8459
380 18.9352
385 19.2965
390 17.1446
395 19.9144
400 16.812
405 17.4027
410 13.6617
415 13.4566
420 16.9638
425 18.2286
430 18.7894
435 16.2679
440 14.2284
445 16.1418
450 15.1059
455 18.1259
460 15.5734
465 19.3495
470 18.7093
475 17.6648
480 16.7356
485 19.0732
490 14.4434
495 15.488
500 17.2587
505 16.5888
510 18.8965
515 17.8701
520 15.0778
525 18.2445
530 18.3991
535 17.4407
540 14.6081
545 17.557
550 14.6078
555 13.01
560 15.3905
565 14.691
570 15.4334
575 17.9267
580 15.88
585 14.4529
590 16.9648
595 14.236
600 5.60791
Ex : 228
200 13.8115
205 14.86
210 20.3998
215 14.1202
220 13.1024
225 12.4893
230 14.9268
235 14.8078
240 18.6481
245 13.9221
250 13.1003
255 18.0447
260 15.5188
265 16.7621
270 13.322
275 22.1744
280 16.2403
285 16.1918
290 16.3659
295 14.3612
300 16.6599
305 10.3366
310 14.4891
315 14.6575
320 17.915
325 18.5604
330 15.4417
335 16.9433
340 11.238
345 14.4879
350 14.5893
355 13.8373
360 12.9593
365 17.0545
370 17.9743
375 18.013
380 12.5397
385 14.0383
390 18.322
395 15.6463
400 16.0961
405 14.2385
410 11.6122
415 15.6825
420 12.1418
425 14.2896
430 15.5514
435 16.1902
440 15.982
445 13.0455
450 14.2349
455 14.0404
460 12.7971
465 15.9147
470 17.6183
475 14.9483
480 12.8834
485 15.2662
490 18.5118
495 11.2625
500 18.8305
505 17.0173
510 14.6186
515 11.7989
520 16.3742
525 13.3446
530 16.5591
535 17.3756
540 14.7935
545 16.4227
550 12.1369
555 15.1425
560 12.9436
565 12.9325
570 17.1311
575 16.0081
580 14.2612
585 16.2738
590 12.1962
595 13.5349
600 19.4858
Ex : 233
200 8.18719
205 11.2951
210 14.4856
215 14.3091
220 10.8872
225 11.3102
230 11.8185
235 13.2423
240 13.7232
245 14.1061
250 13.8473
255 13.9272
260 9.78643
265 12.0449
270 15.8538
275 16.089
280 12.9617
285 13.373
290 13.7421
295 11.2234
300 12.5377
305 17.2012
310 18.865
315 16.8655
320 11.5154
325 14.4133
330 12.9862
335 12.9336
340 11.6199
345 15.1778
350 14.1298
355 13.4113
360 14.3383
365 11.5844
370 16.0103
375 13.9378
380 11.0515
385 11.0343
390 14.8759
395 14.0554
400 13.1161
405 14.5185
410 16.0485
415 12.963
420 9.84766
425 14.6957
430 13.5156
435 11.4793
440 13.9989
445 15.7048
450 11.3936
455 17.3039
460 12.2517
465 12.5019
470 12.8659
475 15.096
480 12.2747
485 16.358
490 16.8655
495 15.7798
500 13.5671
505 14.7327
510 12.0459
515 12.6331
520 11.8679
525 13.7616
530 10.7593
535 12.5901
540 14.167
545 15.9264
550 13.5956
555 13.8454
560 12.4305
565 10.7792
570 15.8604
575 13.3819
580 13.793
585 12.2337
590 13.0605
595 10.2401
600 7.36871
Ex : 238
200 12.6094
205 12.1492
210 11.3707
215 17.1853
220 11.4693
225 9.98439
230 10.7185
235 9.56512
240 10.2922
245 10.3312
250 11.5687
255 11.478
260 9.67886
265 11.779
270 12.5037
275 12.7725
280 9.92542
285 9.013
290 9.76978
295 11.2571
300 11.2536
305 10.9573
310 8.19722
315 11.4863
320 13.2281
325 12.5116
330 16.9012
335 11.6431
340 10.2608
345 14.9908
350 10.7589
355 10.3342
360 12.9781
365 13.0207
370 11.6221
375 14.9965
380 10.0737
385 11.3265
390 11.8767
395 15.3198
400 14.5507
405 13.5768
410 11.3861
415 10.7973
420 9.36026
425 14.954
430 13.0896
435 11.8928
440 8.8425
445 11.1938
450 10.841
455 12.5187
460 11.6352
465 11.9707
470 11.3778
475 10.2895
480 11.4153
485 12.2087
490 16.0001
495 11.8129
500 12.1132
505 13.6356
510 12.9903
515 16.3173
520 12.652
525 11.0115
530 14.9178
535 12.8147
540 15.08
545 13.9883
550 11.7331
555 11.9971
560 9.76747
565 9.34167
570 11.4684
575 12.929
580 15.9076
585 12.7574
590 12.0367
595 11.2599
600 9.10947
Ex : 243
200 11.048
205 10.5169
210 11.3776
215 9.50776
220 11.9096
225 11.3382
230 10.6072
235 13.7971
240 13.6472
245 10.5475
250 13.8808
255 9.27009
260 10.1647
265 11.5283
270 12.9061
275 11.3527
280 11.458
285 10.1381
290 10.2225
295 8.38756
300 8.88127
305 10.6939
310 8.50891
315 8.40062
320 7.1146
325 12.648
330 10.3906
335 12.632
340 11.3967
345 8.773
350 12.736
355 10.7986
360 11.5222
365 9.42255
370 12.3155
375 10.9851
380 10.1742
385 11.7627
390 10.3854
395 12.1333
400 16.4127
405 10.7367
410 11.4674
415 12.893
420 11.7218
425 10.3042
430 9.60667
435 12.8699
440 9.89865
445 12.3143
450 9.96565
455 8.61033
460 12.1596
465 9.08441
470 12.2221
475 13.9059
480 13.761
485 12.2109
490 10.2064
495 10.8853
500 9.81475
505 10.2465
510 10.5155
515 8.64847
520 8.67515
525 12.1928
530 12.2924
535 10.6202
540 9.3134
545 9.7371
550 9.33754
555 10.4295
560 10.2268
565 10.9051
570 11.7469
575 10.3074
580 9.63737
585 10.5798
590 10.5719
595 10.1902
600 19.9914
Ex : 248
200 7.86408
205 7.53741
210 9.97566
215 8.45397
220 7.59865
225 8.37755
230 10.5266
235 7.40973
240 6.85712
245 8.77817
250 5.77684
255 7.44341
260 9.13148
265 8.53924
270 7.69764
275 10.489
280 8.42815
285 6.76497
290 7.81529
295 9.25721
300 8.4837
305 9.49075
310 8.46689
315 6.09342
320 8.66375
325 11.8723
330 10.9516
335 8.77898
340 8.46368
345 9.56452
350 8.55581
355 11.4969
360 9.0647
365 9.52479
370 6.95163
375 8.7669
380 9.20135
385 10.0129
390 10.9615
395 10.9433
400 12.1047
405 8.89501
410 8.28012
415 8.69937
420 7.53652
425 9.64716
430 8.6263
435 8.44909
440 11.208
445 8.30176
450 10.1269
455 10.246
460 9.26798
465 10.6251
470 7.96209
475 10.9022
480 9.67588
485 8.829
490 10.5554
495 9.34658
500 8.71843
505 8.73777
510 8.25012
515 9.56526
520 7.74853
525 8.47933
530 10.0649
535 9.14557
540 8.33214
545 7.99519
550 8.53813
555 8.54331
560 9.26312
565 8.35609
570 8.33874
575 10.3608
580 8.23196
585 9.32272
590 10.1208
595 8.68156
600 2.46494
Ex : 253
200 7.09184
205 6.86001
210 7.00479
215 9.15339
220 6.31589
225 7.2519
230 5.6294
235 7.72807
240 8.7545
245 7.22966
250 8.5687
255 9.39631
260 7.56658
265 9.70088
270 8.3999
275 5.50866
280 5.32397
285 5.7603
290 6.13527
295 7.55423
300 8.19177
305 7.28636
310 6.20009
315 6.07421
320 6.90587
325 6.55891
330 6.4239
335 7.60814
340 7.63076
345 6.89454
350 5.38628
355 7.33609
360 8.90652
365 8.13778
370 5.9471
375 7.01844
380 7.18113
385 7.92504
390 7.6577
395 7.74524
400 8.85271
405 7.20614
410 6.51993
415 6.58006
420 7.40546
425 8.32474
430 8.95505
435 6.44243
440 8.18305
445 6.77061
450 7.64435
455 6.53487
460 7.44686
465 9.10884
470 8.85382
475 6.34981
480 8.33233
485 6.87705
490 8.50077
495 8.60919
500 7.18536
505 5.90939
510 6.16917
515 6.61744
520 6.49087
525 7.13501
530 5.97596
535 8.85539
540 7.92275
545 7.44464
550 7.51297
555 6.91723
560 7.05355
565 7.57679
570 7.26633
575 6.37065
580 6.69854
585 6.52591
590 6.80379
595 8.12906
600 2.25436
Ex : 258
200 5.15217
205 5.07652
210 4.8672
215 4.56066
220 5.0005
225 5.73316
230 4.97398
235 5.45925
240 5.43181
245 6.96895
250 6.52203
255 7.59107
260 5.28264
265 5.7318
270 4.90816
275 5.6625
280 6.32063
285 5.65126
290 5.07411
295 5.56796
300 7.4961
305 5.70006
310 4.4459
315 3.49642
320 5.0447
325 4.20556
330 5.69123
335 6.65194
340 6.58437
345 8.02906
350 5.85739
355 5.68954
360 5.57891
365 6.32633
370 8.34995
375 6.6512
380 6.51811
385 7.14818
390 5.63369
395 7.18254
400 6.41751
405 4.88755
410 5.62471
415 4.9891
420 5.45808
425 6.00163
430 5.17909
435 6.1851
440 5.55392
445 6.56035
450 5.94002
455 4.89804
460 4.98665
465 7.96365
470 6.85921
475 6.88765
480 6.07293
485 4.84224
490 5.61172
495 6.00445
500 5.66774
505 5.50314
510 6.82073
515 6.46596
520 5.03276
525 5.79264
530 5.80889
535 5.76901
540 4.95049
545 6.07454
550 5.99234
555 5.45806
560 5.52958
565 6.04276
570 4.72402
575 4.21559
580 5.76205
585 6.76998
590 6.52802
595 5.08456
600 3.23722
Ex : 263
200 4.17804
205 3.73717
210 4.01087
215 3.3752
220 4.44436
225 4.52537
230 4.03264
235 4.20488
240 5.07089
245 4.21449
250 4.454
255 4.46775
260 4.45354
265 4.44818
270 5.24786
275 4.61675
280 4.32436
285 3.92798
290 4.4825
295 4.11089
300 4.63645
305 5.52823
310 3.64797
315 4.82553
320 3.85908
325 4.43453
330 4.86226
335 3.9198
340 4.6586
345 4.85771
350 5.44571
355 4.64663
360 3.99774
365 3.33109
370 3.822
375 4.23474
380 4.09011
385 4.34747
390 4.24798
395 5.44154
400 6.10525
405 4.98199
410 4.9733
415 5.80297
420 4.24095
425 4.74618
430 4.23193
435 4.77553
440 4.24214
445 4.34746
450 4.9134
455 5.3463
460 4.41795
465 5.03501
470 4.38661
475 3.77582
480 4.67697
485 4.47536
490 5.13572
495 5.12222
500 3.5776
505 5.47565
510 4.26654
515 4.17668
520 5.02813
525 4.3924
530 4.83684
535 4.63401
540 3.16446
545 5.01673
550 3.59784
555 4.09488
560 4.56878
565 3.72844
570 4.11089
575 4.31539
580 4.48848
585 3.64657
590 5.71158
595 4.33498
600 8.65904
Ex : 268
200 3.15166
205 3.07403
210 3.00632
215 2.63314
220 2.66529
225 3.61938
230 3.18298
235 3.07277
240 2.69582
245 2.9372
250 2.92744
255 2.7041
260 2.22275
265 3.64653
270 3.02299
275 3.34152
280 3.35718
285 2.88407
290 3.02479
295 2.89191
300 2.97626
305 2.298
310 2.54709
315 3.04007
320 3.88119
325 2.91641
330 4.39071
335 2.93802
340 3.88648
345 2.96247
350 3.65327
355 3.76952
360 3.25492
365 3.0194
370 2.88293
375 3.64114
380 3.47521
385 3.43148
390 3.61707
395 3.66173
400 4.62295
405 4.26178
410 3.74872
415 4.0844
420 3.99699
425 4.12794
430 3.84766
435 3.02226
440 3.9807
445 4.58295
450 3.3523
455 2.48398
460 3.15208
465 4.31358
470 3.72578
475 3.53253
480 3.55163
485 3.40823
490 4.0239
495 4.67857
500 3.63984
505 3.24606
510 2.63724
515 2.93872
520 4.33232
525 3.84484
530 5.07515
535 4.29322
540 4.59905
545 3.08303
550 2.83391
555 2.77659
560 2.32717
565 2.56219
570 2.59507
575 4.09228
580 2.92198
585 2.78036
590 2.80201
595 2.85313
600 6.30655
Ex : 273
200 2.41238
205 2.88333
210 2.35518
215 2.48951
220 3.01021
225 2.35375
230 2.26117
235 2.83184
240 2.74676
245 3.22463
250 2.81993
255 2.21662
260 2.35253
265 2.9909
270 3.222
275 2.77158
280 3.07842
285 3.05777
290 2.93365
295 2.77324
300 2.98267
305 3.02117
310 2.68468
315 1.9929
320 2.05484
325 2.33878
330 2.46797
335 2.49936
340 2.03251
345 2.83226
350 2.61611
355 2.67911
360 3.00013
365 3.06007
370 1.982
375 3.96087
380 2.98982
385 3.32923
390 2.87285
395 2.55897
400 3.02116
405 2.77681
410 2.63244
415 3.47802
420 2.70229
425 2.83756
430 2.91919
435 3.14993
440 3.58847
445 2.67862
450 3.32698
455 3.26379
460 2.54702
465 2.68431
470 2.63311
475 2.70553
480 2.58185
485 2.77004
490 3.01681
495 3.73326
500 2.25592
505 3.37998
510 3.19407
515 2.61777
520 3.12474
525 3.41632
530 3.75186
535 4.48928
540 4.08612
545 3.07242
550 2.75151
555 3.10866
560 2.36778
565 2.97348
570 2.77822
575 2.75596
580 2.18411
585 2.36932
590 2.74711
595 2.36037
600 0.789897
Ex : 278
200 2.26672
205 1.65394
210 2.20382
215 2.23691
220 2.75305
225 2.21573
230 2.17661
235 1.9847
240 1.86278
245 1.50398
250 1.8076
255 2.5311
260 2.3884
265 2.15821
270 2.36362
275 2.55149
280 2.40594
285 2.91763
290 1.53971
295 2.52125
300 2.53252
305 1.64949
310 2.26409
315 1.89589
320 1.92321
325 2.37954
330 2.16584
335 2.55948
340 2.72515
345 2.96802
350 2.27331
355 2.5983
360 1.90476
365 3.01911
370 2.43433
375 2.24877
380 3.10545
385 2.7051
390 3.39624
395 2.56737
400 2.18235
405 2.60186
410 3.01636
415 2.8983
420 2.26947
425 2.44627
430 2.4147
435 2.65328
440 2.58004
445 2.64436
450 2.46704
455 2.64676
460 3.04043
465 3.23472
470 1.94512
475 2.06036
480 2.19913
485 2.02901
490 2.34685
495 2.38161
500 2.17674
505 2.74964
510 2.64893
515 2.20937
520 2.05767
525 2.11078
530 2.49818
535 2.1847
540 2.13716
545 2.86038
550 3.41627
555 2.60989
560 2.05754
565 1.6508
570 3.19091
575 2.58869
580 2.21236
585 2.0846
590 2.36355
595 2.1637
600 2.44744
Ex : 283
200 1.76688
205 1.41392
210 1.82116
215 1.85338
220 1.55966
225 2.21748
230 1.73545
235 1.64997
240 1.41405
245 1.66015
250 2.07793
255 1.52102
260 2.25837
265 1.43685
270 1.62
275 1.92299
280 1.73553
285 1.99517
290 1.90713
295 2.14668
300 1.85657
305 1.84999
310 1.92867
315 1.93664
320 1.92815
325 1.80217
330 2.26026
335 2.08617
340 2.20804
345 2.08772
350 1.95837
355 1.88086
360 1.89765
365 1.7876
370 2.30403
375 2.02292
380 1.72618
385 2.26795
390 2.04691
395 2.40726
400 2.63539
405 2.70839
410 1.96093
415 2.50311
420 2.50269
425 2.31381
430 2.49966
435 2.24105
440 2.50054
445 1.92634
450 2.05787
455 2.07619
460 2.13076
465 1.80804
470 1.97464
475 2.13382
480 2.01756
485 1.82685
490 2.06459
495 1.93169
500 2.07738
505 1.77892
510 2.22662
515 2.30155
520 2.11894
525 3.04666
530 2.14625
535 1.78356
540 1.92947
545 1.97527
550 2.14216
555 2.51423
560 2.41718
565 2.5894
570 2.24594
575 1.37197
580 1.25074
585 1.60386
590 1.69604
595 2.49491
600 2.00842
Ex : 288
200 1.66412
205 1.54468
210 1.55588
215 1.37401
220 1.56458
225 1.65375
230 1.60446
235 1.13032
240 1.44425
245 1.50763
250 1.1107
255 1.40885
260 1.89378
265 1.65006
270 1.39262
275 1.6899
280 1.69831
285 1.79391
290 1.35732
295 1.1741
300 1.12907
305 1.68762
310 1.8349
315 1.28132
320 1.22572
325 1.43912
330 1.72602
335 1.54253
340 1.57752
345 1.95485
350 1.88797
355 1.93894
360 2.53811
365 1.87533
370 1.99506
375 1.89218
380 1.91848
385 1.76318
390 1.69085
395 1.96191
400 1.84365
405 1.94291
410 1.7627
415 2.44505
420 2.2144
425 2.26471
430 1.88693
435 1.64696
440 1.99797
445 1.98374
450 1.87267
455 2.24573
460 1.94012
465 1.50913
470 1.71571
475 1.57308
480 1.46803
485 1.59038
490 2.01015
495 1.67846
500 1.52806
505 1.58167
510 1.31553
515 1.29232
520 1.40346
525 1.51195
530 1.39539
535 1.66339
540 1.81829
545 1.77309
550 1.90672
555 1.25977
560 1.62964
565 2.11456
570 2.76298
575 2.6404
580 1.8076
585 1.73085
590 1.14493
595 1.50461
600 0.19136
Ex : 293
200 1.10791
205 0.865976
210 1.26156
215 1.34782
220 1.07516
225 1.13288
230 1.37421
235 1.26372
240 1.54536
245 1.30406
250 1.42535
255 1.15589
260 1.2996
265 1.61485
270 1.26253
275 1.36148
280 1.28947
285 1.48715
290 1.78857
295 1.49358
300 1.24589
305 1.59083
310 1.43544
315 1.09652
320 1.31572
325 1.2242
330 1.66679
335 1.58396
340 1.48272
345 1.22999
350 1.33398
355 1.33382
360 1.45141
365 1.62696
370 1.75811
375 1.7921
380 1.65249
385 1.71903
390 1.34961
395 1.75495
400 1.73498
405 1.9362
410 1.73535
415 1.45624
420 1.93519
425 1.92413
430 1.86344
435 1.66186
440 1.37682
445 1.73772
450 1.74818
455 1.52845
460 1.86574
465 1.47491
470 1.93775
475 1.38475
480 1.34604
485 1.61138
490 1.25509
495 1.57558
500 2.23002
505 2.10849
510 1.45176
515 1.61722
520 1.49781
525 1.3111
530 1.16685
535 1.47995
540 1.44876
545 1.43081
550 1.13739
555 1.25408
560 1.12416
565 1.10775
570 1.3241
575 1.89431
580 2.24373
585 2.10298
590 1.63955
595 1.54778
600 0.755573
Ex : 298
200 1.08514
205 1.37123
210 1.00272
215 1.00504
220 1.16391
225 1.31188
230 1.28526
235 0.983647
240 1.12039
245 1.16382
250 1.15515
255 1.16758
260 1.17843
265 0.8363
270 1.2577
275 1.45879
280 1.25624
285 1.54701
290 1.39194
295 1.64238
300 1.41495
305 1.0086
310 0.788406
315 1.1744
320 1.20533
325 1.02049
330 1.24581
335 0.913412
340 1.40582
345 1.52621
350 1.28851
355 1.51477
360 1.47074
365 1.50355
370 1.40072
375 1.585
380 1.79894
385 1.7855
390 1.23666
395 1.53017
400 1.49387
405 1.58394
410 1.70665
415 1.70686
420 1.44013
425 1.67896
430 1.583
435 1.78037
440 1.59515
445 1.67894
450 1.55887
455 1.48234
460 1.56544
465 1.13137
470 1.45367
475 1.39644
480 1.14176
485 1.30595
490 1.23461
495 1.35391
500 1.00034
505 1.08539
510 1.27975
515 1.0581
520 1.10045
525 1.52461
530 1.26109
535 1.14153
540 1.30642
545 1.31528
550 1.10732
555 1.12836
560 1.3301
565 1.20185
570 1.36398
575 0.971447
580 1.169
585 1.57827
590 1.49682
595 1.68118
600 0.941176
Ex : 303
200 1.303
205 0.896452
210 1.23014
215 0.920288
220 0.907679
225 0.595906
230 0.819925
235 0.911216
240 0.922876
245 1.15882
250 1.05485
255 0.90096
260 0.899386
265 1.00664
270 0.726364
275 1.08211
280 1.05251
285 1.02469
290 0.917119
295 1.10099
300 1.31455
305 0.978303
310 0.795691
315 0.859906
320 1.16212
325 1.03022
330 0.979816
335 1.22853
340 1.24771
345 1.42799
350 1.50293
355 1.09584
360 1.22781
365 1.4267
370 1.60601
375 1.37539
380 1.17058
385 1.50179
390 1.3
395 1.24325
400 1.1407
405 1.51226
410 2.01237
415 1.48342
420 1.57089
425 1.46983
430 1.37772
435 1.71767
440 1.4492
445 1.24393
450 1.34235
455 0.977588
460 1.20118
465 1.03551
470 1.26283
475 1.29836
480 1.31721
485 0.927699
490 1.21869
495 1.22689
500 0.927072
505 1.10936
510 1.17626
515 0.923635
520 1.07703
525 0.922546
530 0.975102
535 1.28885
540 1.05259
545 1.03697
550 1.02231
555 1.13676
560 0.761821
565 1.43014
570 1.05855
575 0.874318
580 1.09001
585 1.14545
590 1.26895
595 1.34661
600 0.153239
Ex : 308
200 0.890591
205 0.79578
210 0.888886
215 0.765318
220 0.741346
225 0.921784
230 0.872695
235 0.890267
240 0.921166
245 0.802903
250 0.698394
255 0.665057
260 1.1156
265 1.00396
270 0.892575
275 0.810535
280 0.970922
285 1.1001
290 0.933605
295 1.24123
300 1.22392
305 1.06793
310 0.862451
315 0.850015
320 0.804519
325 1.02804
330 0.719719
335 1.10886
340 1.01294
345 0.857388
350 1.38352
355 1.18294
360 1.28217
365 1.20265
370 1.40662
375 1.45298
380 1.5459
385 1.45321
390 1.16425
395 1.30593
400 1.44521
405 1.29894
410 1.44441
415 1.50284
420 1.57786
425 1.51277
430 1.22571
435 1.26671
440 1.3925
445 1.31261
450 1.35816
455 1.09509
460 1.11333
465 1.2515
470 1.2308
475 1.13391
480 1.14999
485 1.14514
490 1.08242
495 0.945406
500 1.35053
505 1.13298
510 1.16932
515 1.02791
520 1.07854
525 0.840031
530 1.17147
535 0.790482
540 1.01152
545 0.69315
550 0.949187
555 0.924948
560 1.11654
565 0.892466
570 0.745009
575 0.743851
580 1.03075
585 1.01728
590 0.863645
595 0.89506
600 1.70884
Ex : 313
200 0.819929
205 0.831438
210 0.619938
215 0.839658
220 0.630179
225 0.697484
230 0.638334
235 0.830297
240 0.731043
245 0.711782
250 0.663052
255 0.715598
260 0.697997
265 0.684479
270 0.720032
275 0.53096
280 0.657242
285 0.807459
290 0.613356
295 0.770121
300 0.723376
305 0.846024
310 1.0813
315 0.825323
320 1.13895
325 0.957818
330 0.935805
335 0.940682
340 1.01008
345 1.19112
350 1.02297
355 0.999173
360 1.16421
365 1.161
370 1.22654
375 1.22683
380 1.17965
385 1.37238
390 1.55188
395 1.57139
400 1.43553
405 1.78651
410 1.36807
415 1.53571
420 1.48929
425 1.189
430 1.6755
435 1.43557
440 1.6057
445 1.3981
450 1.21003
455 1.52988
460 1.21151
465 1.14287
470 1.08777
475 1.07419
480 1.11079
485 1.31948
490 1.01343
495 1.08437
500 0.957282
505 1.07086
510 1.04057
515 1.02704
520 0.908884
525 0.750697
530 0.987411
535 0.840932
540 0.649263
545 0.889597
550 0.90386
555 0.793001
560 0.828662
565 0.947233
570 0.851917
575 0.858453
580 0.680665
585 0.77809
590 0.637428
595 0.74733
600 0.316665
Ex : 318
200 0.8
205 0.610229
210 0.680685
215 0.680185
220 0.926093
225 0.611914
230 0.494319
235 0.672819
240 0.547415
245 0.533062
250 0.780854
255 0.689369
260 0.708125
265 0.745124
270 0.704094
275 0.586021
280 0.672008
285 0.951809
290 0.658643
295 0.613287
300 0.903214
305 0.792814
310 1.20546
315 1.64799
320 0.949223
325 0.939453
330 1.15606
335 1.11048
340 1.91741
345 2.12774
350 2.66509
355 2.93051
360 3.64444
365 4.1009
370 4.95442
375 5.50356
380 6.10485
385 6.81362
390 6.84308
395 7.56579
400 7.95037
405 7.7482
410 7.64476
415 8.31441
420 8.19317
425 7.4423
430 7.39646
435 7.07358
440 6.7024
445 6.44773
450 5.8547
455 5.60915
460 5.20904
465 5.50715
470 4.77125
475 4.39543
480 3.89262
485 3.49375
490 3.61791
495 2.93362
500 2.8751
505 2.46099
510 2.07478
515 2.04896
520 1.80444
525 1.81049
530 1.62044
535 1.46226
540 1.48751
545 1.14545
550 1.16194
555 1.27324
560 1.07659
565 0.831475
570 0.99306
575 0.911651
580 0.822501
585 0.721628
590 0.798274
595 0.802294
600 0.728257
Ex : 323
200 0.484808
205 0.797177
210 0.659335
215 0.743882
220 0.735674
225 0.608185
230 0.597519
235 0.475224
240 0.718338
245 0.659875
250 0.480845
255 0.716253
260 0.69275
265 0.769072
270 0.625203
275 0.721691
280 0.875901
285 0.766838
290 0.711899
295 0.654251
300 0.585061
305 0.628217
310 0.551532
315 4.07098
320 18.1075
325 8.13823
330 2.9564
335 3.45817
340 4.57962
345 6.42393
350 9.33006
355 11.5052
360 14.7241
365 16.8428
370 19.2857
375 23.0545
380 25.9188
385 28.8902
390 30.9892
395 33.2547
400 34.9034
405 36.1841
410 35.4376
415 35.265
420 33.6984
425 33.1902
430 31.5232
435 29.6779
440 29.3849
445 27.2206
450 25.9931
455 24.3175
460 22.6081
465 20.1604
470 19.0833
475 17.4954
480 15.9917
485 14.6669
490 13.4613
495 12.3052
500 10.2584
505 9.32072
510 8.33987
515 7.41047
520 6.19767
525 5.67128
530 5.13514
535 4.2378
540 4.15423
545 3.24308
550 2.76585
555 2.46376
560 2.26968
565 1.98807
570 1.93203
575 1.73892
580 1.25376
585 1.14561
590 0.935446
595 1.04711
600 0.605946
Ex : 328
200 0.686208
205 0.667153
210 0.499593
215 0.439238
220 0.581886
225 0.554268
230 0.518995
235 0.499744
240 0.572446
245 0.620695
250 0.668672
255 0.661845
260 0.71604
265 0.69603
270 0.682062
275 0.633475
280 0.647221
285 0.761841
290 0.605239
295 0.543162
300 0.691138
305 0.611166
310 0.577132
315 1.50955
320 43.3139
325 108.126
330 33.2167
335 7.81586
340 6.45915
345 7.56712
350 9.96258
355 14.4713
360 19.3898
365 20.7889
370 24.5627
375 26.2786
380 30.6033
385 34.4508
390 36.8542
395 39.7654
400 40.7773
405 41.735
410 41.9457
415 40.9648
420 40.7084
425 38.972
430 37.2384
435 34.6299
440 33.2588
445 31.835
450 30.9255
455 28.6409
460 25.9777
465 24.5617
470 23.0523
475 21.205
480 18.3715
485 16.9911
490 15.5941
495 13.9908
500 12.5832
505 10.8682
510 9.75934
515 8.4551
520 7.41659
525 6.76815
530 5.82031
535 4.9935
540 4.68734
545 4.06371
550 3.74613
555 2.99437
560 2.66332
565 2.28184
570 2.03656
575 1.86775
580 1.47055
585 1.2507
590 1.03966
595 1.13501
600 0.87267
Ex : 333
200 0.422153
205 0.618211
210 0.524763
215 0.525878
220 0.594065
225 0.609562
230 0.514698
235 0.509726
240 0.539434
245 0.421636
250 0.633206
255 0.566317
260 0.596724
265 0.55868
270 0.569789
275 0.504058
280 0.414396
285 0.483863
290 0.527682
295 0.76312
300 0.602648
305 0.474995
310 0.583875
315 0.617719
320 6.84348
325 132.648
330 227.359
335 58.6646
340 10.6477
345 7.04312
350 7.11269
355 7.99582
360 11.3003
365 15.9725
370 17.0819
375 16.9182
380 17.9364
385 19.8518
390 21.9591
395 24.2696
400 23.5853
405 24.3256
410 24.9612
415 25.0341
420 23.8678
425 22.8422
430 21.5815
435 20.7821
440 19.9097
445 18.6805
450 17.3827
455 16.4721
460 15.184
465 14.1025
470 12.8865
475 12.2145
480 11.017
485 9.92845
490 9.20773
495 8.55949
500 7.8255
505 6.58897
510 5.94827
515 5.06682
520 4.77855
525 4.52486
530 3.90205
535 3.51754
540 3.01581
545 2.65853
550 2.39643
555 2.27081
560 1.94094
565 2.01074
570 1.54738
575 1.42158
580 1.33124
585 1.2266
590 0.994516
595 0.838921
600 0.5113
Ex : 338
200 0.496408
205 0.530804
210 0.527223
215 0.387712
220 0.496167
225 0.622073
230 0.489985
235 0.481435
240 0.521154
245 0.471735
250 0.452249
255 0.463379
260 0.588638
265 0.461433
270 0.44342
275 0.440196
280 0.542545
285 0.459743
290 0.542057
295 0.475865
300 0.510571
305 0.548354
310 0.545662
315 0.671772
320 0.6552
325 13.6281
330 208.087
335 300.665
340 73.8536
345 11.6343
350 5.29403
355 4.91902
360 4.95992
365 6.75634
370 11.7306
375 11.9547
380 11.0114
385 11.0572
390 12.3938
395 13.0187
400 13.2694
405 12.9463
410 14.2322
415 14.6996
420 14.3271
425 13.4998
430 12.3258
435 11.7323
440 11.4223
445 11.2452
450 10.3938
455 10.009
460 9.31721
465 8.58435
470 8.0388
475 7.52726
480 7.10876
485 6.45177
490 5.87015
495 5.35155
500 4.98162
505 4.67475
510 4.33473
515 3.5381
520 2.88538
525 3.07728
530 2.67162
535 2.29974
540 2.19324
545 2.24834
550 1.97183
555 1.81041
560 1.77853
565 1.46367
570 1.24165
575 1.30977
580 1.01173
585 0.895357
590 0.759692
595 0.827989
600 0.737032
Ex : 343
200 0.476132
205 0.590084
210 0.479177
215 0.452708
220 0.391568
225 0.470141
230 0.514454
235 0.421068
240 0.563251
245 0.534419
250 0.493367
255 0.481926
260 0.487909
265 0.395989
270 0.43616
275 0.378693
280 0.420895
285 0.513309
290 0.445526
295 0.545405
300 0.541376
305 0.457196
310 0.536153
315 0.414638
320 0.687999
325 0.818894
330 16.044
335 234.154
340 328.62
345 79.3008
350 11.8711
355 4.69845
360 3.79001
365 3.16382
370 4.2456
375 8.23711
380 10.0218
385 8.85371
390 9.30043
395 9.50286
400 9.14405
405 10.0742
410 10.534
415 11.2316
420 10.8374
425 10.0443
430 9.79493
435 9.50296
440 9.54965
445 8.82939
450 8.52146
455 7.78215
460 7.34246
465 6.9597
470 6.59818
475 6.13519
480 5.51163
485 5.08543
490 4.60594
495 4.52991
500 4.19533
505 3.68222
510 3.59485
515 3.14436
520 2.86212
525 2.58723
530 2.28907
535 1.93616
540 1.97756
545 1.7629
550 1.82601
555 1.60413
560 1.38659
565 1.50033
570 1.26049
575 1.06976
580 0.851445
585 0.883797
590 0.838249
595 0.79364
600 0.350961
Ex : 348
200 0.35182
205 0.334671
210 0.4515
215 0.383243
220 0.424562
225 0.532369
230 0.446575
235 0.466044
240 0.363555
245 0.431444
250 0.2952
255 0.375447
260 0.380138
265 0.407866
270 0.378708
275 0.508967
280 0.432142
285 0.564369
290 0.488336
295 0.496506
300 0.416345
305 0.571219
310 0.465959
315 0.486101
320 0.657549
325 0.774943
330 0.967178
335 16.0758
340 240.18
345 355.71
350 89.4565
355 12.7085
360 4.46057
365 3.10294
370 2.49366
375 3.27183
380 7.45993
385 11.3751
390 10.9478
395 10.2329
400 9.53863
405 9.96081
410 10.9477
415 11.8116
420 11.6224
425 10.5405
430 9.80918
435 9.79132
440 9.81159
445 9.67385
450 8.8139
455 8.21317
460 7.742
465 7.30799
470 6.85079
475 6.34245
480 5.86206
485 5.18573
490 4.65905
495 4.52972
500 4.1772
505 3.76744
510 3.62838
515 3.17355
520 2.78414
525 2.56381
530 2.36261
535 2.21341
540 2.29348
545 1.73723
550 1.64984
555 1.50781
560 1.31808
565 1.33592
570 1.05503
575 1.00525
580 0.856906
585 0.910335
590 0.897816
595 0.776121
600 0.215678
Ex : 353
200 0.481192
205 0.427091
210 0.425261
215 0.344702
220 0.365548
225 0.36308
230 0.432402
235 0.400546
240 0.352676
245 0.449568
250 0.435914
255 0.394346
260 0.5011
265 0.496451
270 0.465511
275 0.383426
280 0.474605
285 0.573922
290 0.42498
295 0.472711
300 0.521246
305 0.471162
310 0.469184
315 0.368228
320 0.453384
325 0.469328
330 0.646864
335 0.88214
340 17.0636
345 249.304
350 350.34
355 84.8799
360 12.2181
365 3.9041
370 3.23742
375 2.55995
380 3.38466
385 7.6662
390 12.8036
395 12.868
400 11.0135
405 10.1436
410 11.5423
415 12.9045
420 12.5527
425 11.5592
430 10.4942
435 10.6684
440 10.4906
445 10.0608
450 9.22944
455 8.59416
460 7.80419
465 7.34396
470 7.18143
475 6.77938
480 5.94845
485 5.653
490 5.05604
495 4.62363
500 4.22969
505 3.94067
510 3.77756
515 3.23715
520 2.90961
525 2.74665
530 2.47706
535 2.34518
540 2.14724
545 1.75652
550 1.70507
555 1.72179
560 1.51696
565 1.20281
570 1.04369
575 1.0845
580 0.708647
585 0.782659
590 0.66023
595 0.599591
600 0.396273
Ex : 358
200 0.432449
205 0.356737
210 0.376821
215 0.524631
220 0.437714
225 0.426452
230 0.510785
235 0.391975
240 0.456887
245 0.327878
250 0.417491
255 0.360416
260 0.411207
265 0.385928
270 0.466753
275 0.453019
280 0.430442
285 0.451981
290 0.333318
295 0.405292
300 0.391749
305 0.424774
310 0.403781
315 0.54688
320 0.413404
325 0.437757
330 0.56593
335 0.612071
340 0.900165
345 16.4342
350 248.268
355 368.143
360 90.1547
365 12.2114
370 3.82306
375 3.09553
380 3.18375
385 4.70619
390 8.91543
395 12.6588
400 12.062
405 10.7721
410 10.9628
415 12.0653
420 11.754
425 10.598
430 10.2277
435 10.0691
440 10.0641
445 9.53807
450 8.99474
455 8.11539
460 7.96732
465 7.37054
470 6.8429
475 6.51438
480 6.14199
485 5.59324
490 5.00287
495 4.79973
500 4.33919
505 4.06292
510 3.60391
515 3.33305
520 2.99275
525 2.75016
530 2.56765
535 2.21226
540 2.17324
545 1.86453
550 1.79742
555 1.2382
560 1.45949
565 1.26787
570 1.03224
575 0.946591
580 0.928655
585 0.664718
590 0.648712
595 0.634604
600 0.743865
Ex : 363
200 0.344693
205 0.345185
210 0.400053
215 0.32319
220 0.350817
225 0.40054
230 0.323489
235 0.341224
240 0.330096
245 0.354858
250 0.467708
255 0.426584
260 0.337063
265 0.373821
270 0.388023
275 0.356921
280 0.338652
285 0.371223
290 0.484523
295 0.31158
300 0.35317
305 0.390047
310 0.386939
315 0.379669
320 0.366556
325 0.350555
330 0.382889
335 0.551718
340 0.728897
345 0.875374
350 14.574
355 233.99
360 356.31
365 91.6021
370 12.7678
375 3.77247
380 4.06116
385 5.65405
390 7.61755
395 9.14644
400 12.5941
405 14.1281
410 13.5394
415 13.578
420 12.7018
425 11.1584
430 10.4789
435 10.5611
440 11.0996
445 10.7679
450 9.65362
455 9.09638
460 8.48398
465 7.64856
470 7.54606
475 6.69734
480 6.32571
485 5.88422
490 5.38817
495 5.09391
500 4.49392
505 4.0644
510 3.72268
515 3.49397
520 3.0094
525 2.56665
530 2.51903
535 2.04953
540 1.90459
545 1.91845
550 1.72568
555 1.38587
560 1.45436
565 1.40246
570 1.0534
575 0.922595
580 0.943219
585 0.75252
590 0.686152
595 0.614944
600 0.545502
Ex : 368
200 0.279301
205 0.364158
210 0.242705
215 0.333955
220 0.368218
225 0.341119
230 0.293251
235 0.462204
240 0.21704
245 0.313444
250 0.320634
255 0.403397
260 0.386073
265 0.301498
270 0.282126
275 0.376895
280 0.335442
285 0.375568
290 0.40713
295 0.319171
300 0.299713
305 0.283072
310 0.338883
315 0.303818
320 0.376424
325 0.426033
330 0.379028
335 0.444388
340 0.51284
345 0.662515
350 0.815306
355 12.7508
360 232.596
365 371.866
370 97.586
375 13.3601
380 4.81169
385 6.69168
390 9.28035
395 10.1485
400 10.192
405 13.4241
410 17.2691
415 17.6972
420 16.0899
425 13.6791
430 12.5586
435 12.4288
440 12.279
445 12.3321
450 10.9091
455 9.90641
460 8.99682
465 8.35179
470 8.00522
475 7.65384
480 7.32338
485 6.28029
490 5.8703
495 5.26184
500 4.83281
505 4.30803
510 4.00275
515 3.55904
520 3.15556
525 2.90889
530 2.38345
535 2.37873
540 2.2084
545 1.95673
550 1.87049
555 1.50636
560 1.40983
565 1.15267
570 1.146
575 0.910112
580 0.68569
585 0.68346
590 0.609266
595 0.531678
600 0.61937
Ex : 373
200 0.295779
205 0.291773
210 0.265915
215 0.441205
220 0.330709
225 0.394617
230 0.29087
235 0.260414
240 0.336654
245 0.29934
250 0.286524
255 0.24269
260 0.364761
265 0.360249
270 0.281062
275 0.282437
280 0.354039
285 0.364097
290 0.455748
295 0.371629
300 0.327804
305 0.40103
310 0.324633
315 0.339084
320 0.288722
325 0.38681
330 0.303094
335 0.366852
340 0.376615
345 0.489377
350 0.53394
355 0.836713
360 15.1111
365 249.952
370 408.927
375 106.527
380 14.9141
385 6.26716
390 9.27939
395 10.6937
400 9.63716
405 9.71291
410 14.2249
415 18.537
420 17.5063
425 14.2642
430 12.507
435 11.6923
440 12.1162
445 11.6061
450 10.7224
455 9.68757
460 8.49568
465 8.31761
470 7.80596
475 7.27463
480 6.72802
485 6.18338
490 5.61063
495 5.13563
500 4.56839
505 4.25833
510 3.85756
515 3.39305
520 3.00511
525 2.9131
530 2.58291
535 2.35532
540 1.97281
545 1.90702
550 1.7158
555 1.59584
560 1.40078
565 1.21936
570 1.05249
575 0.94957
580 0.820891
585 0.65432
590 0.637154
595 0.62867
600 0.202544
Ex : 378
200 0.260443
205 0.321568
210 0.341188
215 0.321202
220 0.340989
225 0.287713
230 0.29437
235 0.392086
240 0.325786
245 0.262174
250 0.275847
255 0.265575
260 0.243073
265 0.286557
270 0.253835
275 0.276759
280 0.327533
285 0.298844
290 0.298776
295 0.363056
300 0.371049
305 0.29059
310 0.27518
315 0.2453
320 0.296726
325 0.318996
330 0.288567
335 0.327279
340 0.382496
345 0.419749
350 0.435116
355 0.540436
360 0.756755
365 14.1933
370 247
375 392.192
380 103.153
385 16.0751
390 8.05239
395 8.54716
400 8.05854
405 7.76454
410 9.15577
415 12.189
420 15.4268
425 13.3545
430 11.2019
435 9.95977
440 9.89714
445 9.81899
450 8.95763
455 8.30118
460 7.322
465 7.22319
470 6.90016
475 6.48713
480 6.07418
485 5.69715
490 5.10339
495 4.69147
500 4.32062
505 4.01591
510 3.79631
515 3.37164
520 2.99908
525 2.5712
530 2.4477
535 2.32603
540 2.05227
545 1.76148
550 1.72181
555 1.58213
560 1.36318
565 1.34033
570 1.2792
575 0.914161
580 0.682138
585 0.666754
590 0.592674
595 0.513635
600 0.353851
Ex : 383
200 0.257763
205 0.321693
210 0.294945
215 0.280412
220 0.283443
225 0.272393
230 0.270326
235 0.275389
240 0.300616
245 0.285136
250 0.306297
255 0.302899
260 0.283638
265 0.319582
270 0.271454
275 0.307061
280 0.340722
285 0.305679
290 0.280143
295 0.314572
300 0.375171
305 0.301466
310 0.363488
315 0.279583
320 0.322388
325 0.308028
330 0.33376
335 0.325181
340 0.457573
345 0.389905
350 0.376988
355 0.488592
360 0.601654
365 0.732973
370 13.4427
375 238.535
380 398.863
385 109.006
390 18.4965
395 8.51058
400 7.42181
405 8.0771
410 9.70178
415 10.9423
420 11.4482
425 13.2016
430 12.3996
435 11.4987
440 10.7846
445 9.9796
450 9.29099
455 8.29857
460 7.81224
465 7.61758
470 7.33588
475 6.91879
480 6.58404
485 5.82822
490 5.50087
495 5.08032
500 4.54462
505 4.07643
510 3.82285
515 3.41018
520 3.14032
525 2.81616
530 2.51721
535 2.31304
540 2.10101
545 1.85345
550 1.70889
555 1.55997
560 1.44221
565 1.2884
570 0.998331
575 0.880953
580 0.766954
585 0.723399
590 0.509057
595 0.511262
600 0.51859
Ex : 388
200 0.275535
205 0.279347
210 0.274079
215 0.349819
220 0.244668
225 0.237669
230 0.248899
235 0.315767
240 0.279947
245 0.309263
250 0.272613
255 0.261917
260 0.291499
265 0.306183
270 0.268639
275 0.258541
280 0.301563
285 0.240521
290 0.301677
295 0.269897
300 0.299855
305 0.288378
310 0.279056
315 0.291264
320 0.294607
325 0.334379
330 0.318339
335 0.247825
340 0.379141
345 0.329822
350 0.383792
355 0.401889
360 0.483801
365 0.604589
370 0.737935
375 14.3946
380 248.096
385 414.956
390 111.838
395 20.9164
400 9.64301
405 9.22701
410 12.0939
415 13.1129
420 12.6837
425 11.7252
430 13.2279
435 14.4182
440 13.2371
445 12.2468
450 10.7968
455 9.45288
460 8.45934
465 8.06778
470 7.62793
475 7.38565
480 6.66219
485 6.12113
490 5.51288
495 5.07718
500 4.72285
505 4.32594
510 3.84656
515 3.33615
520 3.18958
525 2.77372
530 2.67482
535 2.30392
540 1.99746
545 1.96893
550 1.83995
555 1.62295
560 1.35661
565 1.25048
570 1.16052
575 0.880747
580 0.736199
585 0.639832
590 0.579201
595 0.478545
600 0.393497
Ex : 393
200 0.214182
205 0.244061
210 0.260193
215 0.226906
220 0.232592
225 0.269151
230 0.29059
235 0.292267
240 0.245893
245 0.266091
250 0.2158
255 0.180767
260 0.240985
265 0.28191
270 0.251379
275 0.247393
280 0.29216
285 0.282086
290 0.255651
295 0.27762
300 0.263103
305 0.294821
310 0.339393
315 0.227739
320 0.268459
325 0.3019
330 0.270538
335 0.304008
340 0.353117
345 0.311422
350 0.260004
355 0.371672
360 0.404784
365 0.5032
370 0.573381
375 0.871706
380 13.5388
385 250.617
390 421.247
395 119.281
400 21.4346
405 9.98059
410 10.6918
415 13.4593
420 13.1059
425 11.2161
430 10.0655
435 11.1162
440 13.7513
445 12.7153
450 10.7473
455 9.16471
460 7.95447
465 7.4524
470 7.25615
475 6.99246
480 6.47193
485 5.57888
490 5.39703
495 4.86926
500 4.28576
505 4.09606
510 3.72666
515 3.19594
520 3.07706
525 2.56813
530 2.65355
535 2.41245
540 2.09586
545 1.8194
550 1.80115
555 1.60933
560 1.27405
565 1.25192
570 1.07146
575 0.935313
580 0.787404
585 0.600379
590 0.574473
595 0.566615
600 0.34933
Ex : 398
200 0.258335
205 0.303263
210 0.256872
215 0.288407
220 0.253401
225 0.267016
230 0.255942
235 0.261424
240 0.252292
245 0.307975
250 0.241473
255 0.243668
260 0.258453
265 0.260293
270 0.285511
275 0.322857
280 0.257893
285 0.286277
290 0.242169
295 0.257818
300 0.178122
305 0.248281
310 0.248365
315 0.26627
320 0.216372
325 0.285313
330 0.312959
335 0.226056
340 0.255961
345 0.300174
350 0.323036
355 0.241009
360 0.344627
365 0.411306
370 0.497158
375 0.583833
380 0.938916
385 14.0335
390 258.181
395 439.213
400 118.586
405 18.5397
410 8.26572
415 9.12509
420 9.23373
425 8.08776
430 6.9486
435 6.97013
440 8.02714
445 10.7916
450 9.58766
455 7.69511
460 6.64417
465 6.15573
470 5.86812
475 5.75954
480 5.31345
485 4.91163
490 4.53086
495 4.14808
500 3.89016
505 3.58909
510 3.31861
515 3.00596
520 2.91646
525 2.60981
530 2.27808
535 2.08092
540 1.96588
545 1.87003
550 1.528
555 1.3246
560 1.33974
565 1.03845
570 0.991188
575 0.855565
580 0.705816
585 0.539319
590 0.554412
595 0.595634
600 0.61567
Ex : 403
200 0.229512
205 0.274645
210 0.172753
215 0.231577
220 0.278221
225 0.251155
230 0.273654
235 0.262912
240 0.274476
245 0.24156
250 0.225605
255 0.276674
260 0.225086
265 0.245339
270 0.30756
275 0.296635
280 0.316513
285 0.284363
290 0.23498
295 0.228357
300 0.262573
305 0.235022
310 0.326668
315 0.2917
320 0.240948
325 0.237022
330 0.287299
335 0.302298
340 0.293562
345 0.310978
350 0.362818
355 0.35047
360 0.297552
365 0.301791
370 0.469699
375 0.418336
380 0.545392
385 0.92829
390 15.3773
395 266.179
400 437.577
405 119.261
410 17.773
415 6.93582
420 5.98351
425 5.77021
430 5.14277
435 5.2938
440 5.61583
445 6.40914
450 8.42601
455 8.28538
460 6.82714
465 5.8922
470 5.46171
475 5.03675
480 4.82365
485 4.58299
490 4.09637
495 4.1005
500 3.64335
505 3.54391
510 3.17033
515 2.81528
520 2.66234
525 2.46865
530 2.26345
535 1.98312
540 1.87966
545 1.73647
550 1.5336
555 1.44449
560 1.3394
565 1.13923
570 1.06394
575 0.767517
580 0.755888
585 0.683826
590 0.524909
595 0.50052
600 0.737275
Ex : 408
200 0.234911
205 0.231461
210 0.239017
215 0.189059
220 0.21848
225 0.212546
230 0.247949
235 0.245458
240 0.259128
245 0.1769
250 0.234303
255 0.263613
260 0.253862
265 0.177725
270 0.224017
275 0.265369
280 0.242867
285 0.215548
290 0.175413
295 0.321102
300 0.291977
305 0.307054
310 0.250156
315 0.268685
320 0.277556
325 0.28661
330 0.262039
335 0.32239
340 0.290644
345 0.371607
350 0.260063
355 0.252679
360 0.287948
365 0.302332
370 0.31318
375 0.405633
380 0.459194
385 0.650805
390 0.982357
395 15.2279
400 273.616
405 443.278
410 116.336
415 18.1551
420 6.9392
425 5.53259
430 5.55394
435 5.45253
440 5.93727
445 6.04786
450 6.36119
455 7.19434
460 8.12244
465 6.95154
470 6.25744
475 5.53242
480 5.02002
485 4.61654
490 4.39577
495 3.88046
500 3.81245
505 3.51652
510 3.24353
515 2.96879
520 2.81834
525 2.65154
530 2.31446
535 2.08529
540 1.89949
545 1.81332
550 1.64092
555 1.5169
560 1.28278
565 1.07644
570 0.857232
575 0.773509
580 0.761338
585 0.672679
590 0.48065
595 0.511464
600 0.286513
Ex : 413
200 0.222028
205 0.227504
210 0.279815
215 0.240842
220 0.28726
225 0.299808
230 0.30209
235 0.194968
240 0.248319
245 0.27049
250 0.229055
255 0.28971
260 0.18506
265 0.2128
270 0.210644
275 0.259725
280 0.263425
285 0.28443
290 0.277907
295 0.277184
300 0.327108
305 0.288258
310 0.279748
315 0.272231
320 0.254208
325 0.277042
330 0.268062
335 0.277835
340 0.280281
345 0.313946
350 0.252451
355 0.299787
360 0.334814
365 0.29988
370 0.321163
375 0.344527
380 0.350344
385 0.467383
390 0.600842
395 0.90758
400 17.18
405 287.795
410 458.699
415 118.718
420 17.9253
425 6.18418
430 4.93527
435 5.52226
440 5.69687
445 5.44525
450 5.29828
455 5.16956
460 5.93695
465 7.68569
470 6.76056
475 5.48176
480 5.20682
485 4.47939
490 4.10417
495 3.88189
500 3.59396
505 3.35981
510 3.21568
515 2.85783
520 2.49012
525 2.3935
530 2.15371
535 2.04223
540 1.87571
545 1.58393
550 1.48305
555 1.40668
560 1.20627
565 1.19257
570 1.02874
575 0.835665
580 0.724928
585 0.683455
590 0.629189
595 0.518956
600 0.239853
Ex : 418
200 0.22444
205 0.271164
210 0.232127
215 0.214632
220 0.193019
225 0.247889
230 0.255611
235 0.248425
240 0.219557
245 0.255756
250 0.23412
255 0.255111
260 0.240941
265 0.270706
270 0.238925
275 0.282224
280 0.245434
285 0.254755
290 0.256084
295 0.24575
300 0.209406
305 0.259023
310 0.218618
315 0.230394
320 0.23026
325 0.254674
330 0.243243
335 0.305785
340 0.287676
345 0.251216
350 0.245783
355 0.288402
360 0.364316
365 0.313315
370 0.330496
375 0.322616
380 0.414969
385 0.409706
390 0.477664
395 0.620874
400 0.940065
405 17.1311
410 285.522
415 480.352
420 130.873
425 18.1094
430 4.83416
435 3.66521
440 3.96469
445 3.87835
450 3.50586
455 3.34277
460 3.41211
465 4.19255
470 5.99999
475 5.68006
480 4.62098
485 4.2371
490 3.49701
495 3.01604
500 2.87794
505 2.79518
510 2.5934
515 2.42332
520 2.28731
525 2.10938
530 2.0588
535 1.98895
540 1.74083
545 1.59075
550 1.40651
555 1.35198
560 1.10801
565 1.15962
570 0.956311
575 0.827668
580 0.675181
585 0.585216
590 0.481264
595 0.374175
600 0.380736
Ex : 423
200 0.252992
205 0.212065
210 0.216397
215 0.236391
220 0.227776
225 0.311109
230 0.269278
235 0.282616
240 0.225667
245 0.227699
250 0.218372
255 0.235634
260 0.247582
265 0.239756
270 0.205095
275 0.238267
280 0.199696
285 0.206272
290 0.258628
295 0.265277
300 0.288609
305 0.268697
310 0.273695
315 0.251859
320 0.377996
325 0.281806
330 0.253549
335 0.231728
340 0.257967
345 0.263285
350 0.266946
355 0.290878
360 0.254757
365 0.324111
370 0.291656
375 0.290589
380 0.287708
385 0.321761
390 0.42632
395 0.420579
400 0.622399
405 0.892843
410 17.2101
415 299.451
420 456.446
425 112.687
430 14.8453
435 3.66271
440 2.46312
445 2.62995
450 2.79506
455 2.40518
460 2.15303
465 2.33575
470 2.719
475 4.54613
480 5.2258
485 4.03987
490 3.37279
495 3.17952
500 2.50265
505 2.26463
510 2.36277
515 2.15176
520 2.09228
525 2.04157
530 1.88565
535 1.80054
540 1.57029
545 1.472
550 1.39744
555 1.21041
560 1.18381
565 0.97931
570 0.87956
575 0.75675
580 0.688369
585 0.636806
590 0.511459
595 0.392304
600 0.464269
Ex : 428
200 0.172411
205 0.203981
210 0.298903
215 0.217314
220 0.218447
225 0.234914
230 0.29364
235 0.251907
240 0.257449
245 0.296068
250 0.29012
255 0.277116
260 0.259255
265 0.282221
270 0.275269
275 0.240492
280 0.252736
285 0.259103
290 0.284784
295 0.213963
300 0.297362
305 0.2851
310 0.248615
315 0.172792
320 0.247499
325 0.232223
330 0.277632
335 0.318465
340 0.249361
345 0.287959
350 0.276186
355 0.277617
360 0.322292
365 0.271392
370 0.294425
375 0.26684
380 0.26672
385 0.358221
390 0.316962
395 0.3948
400 0.473132
405 0.53185
410 1.01015
415 18.4112
420 308.015
425 465.531
430 118.186
435 15.285
440 3.31057
445 1.93035
450 2.13887
455 2.03404
460 1.9225
465 1.8691
470 1.96217
475 2.20817
480 3.66252
485 5.06333
490 3.90336
495 3.09357
500 2.84298
505 2.43541
510 2.25339
515 1.90274
520 1.99732
525 1.97355
530 1.89754
535 1.67407
540 1.61706
545 1.47699
550 1.3823
555 1.20402
560 1.01606
565 0.887865
570 0.866099
575 0.816363
580 0.615693
585 0.508999
590 0.486036
595 0.377409
600 0.320446
Ex : 433
200 0.234974
205 0.199834
210 0.27327
215 0.240257
220 0.253678
225 0.219463
230 0.256626
235 0.273658
240 0.191905
245 0.273896
250 0.271972
255 0.238738
260 0.282863
265 0.247175
270 0.218874
275 0.278491
280 0.333
285 0.257627
290 0.245854
295 0.262841
300 0.257357
305 0.268899
310 0.247739
315 0.274903
320 0.234673
325 0.22418
330 0.310538
335 0.252746
340 0.266591
345 0.238289
350 0.211782
355 0.303269
360 0.279959
365 0.334795
370 0.320514
375 0.285941
380 0.359359
385 0.339312
390 0.345545
395 0.455155
400 0.371087
405 0.481051
410 0.632619
415 0.877603
420 19.5171
425 324.648
430 470.215
435 113.555
440 14.6434
445 3.233
450 1.81158
455 2.10646
460 2.03499
465 1.88529
470 1.66379
475 1.74499
480 1.99393
485 2.91778
490 4.59046
495 4.19284
500 3.07283
505 2.76686
510 2.26814
515 2.03059
520 1.81873
525 1.77768
530 1.65128
535 1.52222
540 1.48152
545 1.34489
550 1.37351
555 1.21331
560 1.16744
565 1.03645
570 0.827661
575 0.792233
580 0.667257
585 0.651583
590 0.481065
595 0.388182
600 0.369217
Ex : 438
200 0.247141
205 0.210814
210 0.247983
215 0.245879
220 0.223768
225 0.196103
230 0.232206
235 0.241113
240 0.23642
245 0.266665
250 0.230241
255 0.183842
260 0.26421
265 0.277798
270 0.276397
275 0.323051
280 0.261719
285 0.259202
290 0.298202
295 0.265623
300 0.261454
305 0.27728
310 0.275031
315 0.301322
320 0.229551
325 0.271753
330 0.313078
335 0.231603
340 0.215089
345 0.314166
350 0.313983
355 0.237829
360 0.268546
365 0.311055
370 0.382597
375 0.255428
380 0.293909
385 0.220912
390 0.296917
395 0.361447
400 0.422468
405 0.334631
410 0.44831
415 0.695224
420 0.994957
425 18.8422
430 315.544
435 491.788
440 121.81
445 15.6298
450 3.22455
455 1.76854
460 1.92783
465 2.06417
470 1.90923
475 1.79882
480 1.85162
485 1.87964
490 2.29367
495 4.07127
500 4.35238
505 2.99224
510 2.55195
515 2.23084
520 2.07898
525 1.93176
530 1.60985
535 1.63579
540 1.51513
545 1.40609
550 1.37631
555 1.15976
560 1.17981
565 1.02895
570 0.88709
575 0.753381
580 0.620241
585 0.566234
590 0.474857
595 0.436731
600 0.785156
Ex : 443
200 0.273202
205 0.29013
210 0.251386
215 0.217538
220 0.316237
225 0.25021
230 0.235699
235 0.228648
240 0.234966
245 0.161702
250 0.248314
255 0.267866
260 0.25903
265 0.268393
270 0.315063
275 0.23391
280 0.394669
285 0.308062
290 0.27095
295 0.16763
300 0.304702
305 0.294648
310 0.231869
315 0.241792
320 0.277212
325 0.222673
330 0.279747
335 0.27636
340 0.228173
345 0.287314
350 0.27674
355 0.342845
360 0.394281
365 0.424036
370 0.353603
375 0.361447
380 0.282479
385 0.281808
390 0.290999
395 0.310017
400 0.385567
405 0.332794
410 0.387103
415 0.469426
420 0.55952
425 0.926338
430 21.6123
435 340.094
440 498.96
445 119.582
450 15.2645
455 3.42379
460 1.80055
465 1.86498
470 2.0357
475 1.89481
480 1.71382
485 1.85096
490 1.93721
495 2.04536
500 3.09292
505 4.21848
510 3.04498
515 2.45155
520 2.21094
525 1.79773
530 1.60492
535 1.54465
540 1.48809
545 1.48546
550 1.21938
555 1.14292
560 1.02267
565 1.07648
570 0.91889
575 0.790216
580 0.690826
585 0.491141
590 0.44988
595 0.501074
600 0.648845
Ex : 448
200 0.254102
205 0.249115
210 0.269137
215 0.233694
220 0.31638
225 0.267946
230 0.200661
235 0.263828
240 0.363648
245 0.24001
250 0.24339
255 0.210753
260 0.229698
265 0.223959
270 0.253221
275 0.208586
280 0.243387
285 0.281763
290 0.262656
295 0.285375
300 0.256147
305 0.270311
310 0.266383
315 0.240786
320 0.258461
325 0.277271
330 0.330138
335 0.26015
340 0.242601
345 0.354741
350 0.262028
355 0.321971
360 0.268247
365 0.360286
370 0.291877
375 0.295018
380 0.29917
385 0.246385
390 0.37361
395 0.300662
400 0.334329
405 0.408891
410 0.419807
415 0.466947
420 0.472997
425 0.656266
430 0.809278
435 20.81
440 347.094
445 528.646
450 128.105
455 16.2502
460 3.31088
465 1.72118
470 1.77493
475 2.00378
480 1.89546
485 1.80691
490 1.64429
495 1.77176
500 1.7882
505 2.72497
510 3.82522
515 3.12603
520 2.34433
525 2.27741
530 1.97074
535 1.67595
540 1.49288
545 1.37244
550 1.36985
555 1.21451
560 1.08451
565 1.06302
570 0.942059
575 0.79476
580 0.695048
585 0.625089
590 0.579021
595 0.427633
600 0.698141
Ex : 453
200 0.231184
205 0.236955
210 0.233924
215 0.280347
220 0.315071
225 0.274607
230 0.241649
235 0.21358
240 0.254331
245 0.246046
250 0.300566
255 0.266442
260 0.248865
265 0.253365
270 0.269704
275 0.266358
280 0.270636
285 0.271067
290 0.265819
295 0.217161
300 0.214134
305 0.302705
310 0.254242
315 0.316318
320 0.220851
325 0.326886
330 0.230393
335 0.223244
340 0.277107
345 0.279166
350 0.22546
355 0.250307
360 0.279521
365 0.306118
370 0.320354
375 0.35247
380 0.263161
385 0.291268
390 0.288164
395 0.316127
400 0.291068
405 0.306644
410 0.294416
415 0.428598
420 0.421092
425 0.508927
430 0.668969
435 0.889831
440 23.2009
445 377.168
450 545.434
455 126.618
460 16.1085
465 3.30226
470 1.87555
475 1.90874
480 1.92886
485 1.82104
490 1.73036
495 1.56106
500 1.47965
505 1.53492
510 2.05412
515 3.54826
520 3.5146
525 2.51084
530 2.1662
535 1.86198
540 1.54102
545 1.44523
550 1.34563
555 1.31113
560 1.18074
565 0.953309
570 0.88332
575 0.791371
580 0.652711
585 0.624729
590 0.509417
595 0.519674
600 0.375638
Ex : 458
200 0.242957
205 0.287786
210 0.252473
215 0.240228
220 0.283888
225 0.270258
230 0.236843
235 0.223728
240 0.247225
245 0.267254
250 0.308686
255 0.334241
260 0.238526
265 0.299717
270 0.224327
275 0.246187
280 0.266221
285 0.303851
290 0.254245
295 0.288856
300 0.216614
305 0.270314
310 0.280615
315 0.249746
320 0.234749
325 0.279064
330 0.283833
335 0.320816
340 0.274547
345 0.276099
350 0.256132
355 0.265738
360 0.285463
365 0.207877
370 0.282713
375 0.307761
380 0.309332
385 0.285981
390 0.275465
395 0.330001
400 0.26033
405 0.365582
410 0.369757
415 0.312061
420 0.361032
425 0.508824
430 0.476588
435 0.686608
440 0.927614
445 26.0475
450 399.188
455 582.924
460 138.615
465 17.5706
470 3.53451
475 1.67919
480 1.74702
485 1.82904
490 1.81785
495 1.61578
500 1.66501
505 1.64373
510 1.57031
515 1.649
520 3.02722
525 3.5226
530 2.63883
535 2.08415
540 1.999
545 1.63086
550 1.39224
555 1.38954
560 1.19231
565 0.990018
570 0.98347
575 0.810593
580 0.702993
585 0.695878
590 0.518934
595 0.492756
600 0.292395
Ex : 463
200 0.264559
205 0.235277
210 0.305551
215 0.269426
220 0.28307
225 0.257504
230 0.291606
235 0.277734
240 0.231308
245 0.215021
250 0.219895
255 0.247496
260 0.292691
265 0.290235
270 0.256953
275 0.232851
280 0.160166
285 0.260717
290 0.21002
295 0.181319
300 0.2376
305 0.269945
310 0.304934
315 0.215262
320 0.21607
325 0.256303
330 0.244645
335 0.263692
340 0.222186
345 0.255823
350 0.247189
355 0.28819
360 0.353322
365 0.315511
370 0.329568
375 0.283039
380 0.267831
385 0.285522
390 0.232894
395 0.301651
400 0.325813
405 0.261124
410 0.328578
415 0.293977
420 0.366916
425 0.399846
430 0.420248
435 0.441661
440 0.62577
445 0.948929
450 24.9965
455 416.04
460 640.276
465 150.41
470 18.9247
475 3.65268
480 1.84827
485 1.67681
490 1.77014
495 1.94144
500 1.69667
505 1.61493
510 1.51632
515 1.52913
520 1.70507
525 2.28187
530 3.34513
535 2.87107
540 2.04344
545 1.88697
550 1.72795
555 1.36673
560 1.19416
565 1.1676
570 1.07154
575 0.876201
580 0.692159
585 0.624193
590 0.559817
595 0.500078
600 0.0820673
Ex : 468
200 0.207723
205 0.22109
210 0.205433
215 0.204614
220 0.251635
225 0.24309
230 0.207025
235 0.182954
240 0.20562
245 0.245339
250 0.216211
255 0.249251
260 0.250064
265 0.222948
270 0.216302
275 0.248721
280 0.280963
285 0.240259
290 0.226164
295 0.192792
300 0.219919
305 0.239531
310 0.234836
315 0.246467
320 0.240834
325 0.242563
330 0.217659
335 0.242731
340 0.26207
345 0.269827
350 0.250891
355 0.246695
360 0.259517
365 0.251848
370 0.232906
375 0.235479
380 0.274049
385 0.274614
390 0.321832
395 0.249736
400 0.28299
405 0.304108
410 0.309584
415 0.300916
420 0.281944
425 0.307596
430 0.374724
435 0.382956
440 0.485249
445 0.559487
450 0.913836
455 26.6966
460 422.129
465 657.413
470 156.936
475 19.386
480 3.64367
485 1.71084
490 1.54577
495 1.70839
500 1.7577
505 1.52492
510 1.50224
515 1.4654
520 1.60778
525 1.67424
530 2.03318
535 3.1413
540 3.04421
545 2.10648
550 1.71759
555 1.70371
560 1.42509
565 1.07501
570 0.871237
575 0.88465
580 0.626571
585 0.65823
590 0.596229
595 0.504824
600 0.242177
Ex : 473
200 0.262091
205 0.184443
210 0.193452
215 0.249982
220 0.233822
225 0.256284
230 0.272403
235 0.23457
240 0.190025
245 0.213427
250 0.279036
255 0.261408
260 0.276283
265 0.306357
270 0.272058
275 0.26006
280 0.255619
285 0.230183
290 0.263704
295 0.22796
300 0.219269
305 0.292099
310 0.247608
315 0.208863
320 0.254219
325 0.28557
330 0.255656
335 0.262324
340 0.258904
345 0.242897
350 0.232684
355 0.245265
360 0.257103
365 0.255643
370 0.291885
375 0.307609
380 0.304184
385 0.282463
390 0.254526
395 0.259312
400 0.268584
405 0.315406
410 0.284394
415 0.378723
420 0.31437
425 0.270092
430 0.399044
435 0.360989
440 0.449142
445 0.539579
450 0.6045
455 0.990475
460 32.3025
465 491.468
470 642.925
475 150.086
480 18.6971
485 3.57495
490 1.74418
495 1.51871
500 1.7709
505 1.7222
510 1.64729
515 1.56273
520 1.45626
525 1.51098
530 1.66536
535 1.67693
540 2.70574
545 3.30746
550 2.29217
555 1.71874
560 1.50313
565 1.35176
570 0.969428
575 0.831184
580 0.709626
585 0.647727
590 0.585194
595 0.486829
600 0.339405
Ex : 478
200 0.374404
205 0.350477
210 0.267915
215 0.289622
220 0.270867
225 0.29036
230 0.265051
235 0.273998
240 0.247883
245 0.27298
250 0.303277
255 0.26597
260 0.254673
265 0.277003
270 0.338883
275 0.345135
280 0.258996
285 0.297343
290 0.276879
295 0.360378
300 0.281568
305 0.375035
310 0.258419
315 0.314239
320 0.282302
325 0.294101
330 0.271982
335 0.308986
340 0.284013
345 0.236935
350 0.354626
355 0.313865
360 0.318723
365 0.280377
370 0.230238
375 0.29123
380 0.26197
385 0.303603
390 0.282156
395 0.310119
400 0.313999
405 0.350334
410 0.400827
415 0.339104
420 0.331977
425 0.414938
430 0.353833
435 0.395817
440 0.478687
445 0.535279
450 0.623699
455 0.795331
460 1.17652
465 35.4983
470 482.009
475 658.719
480 159.312
485 19.6389
490 3.73725
495 1.81477
500 1.43831
505 1.55876
510 1.69907
515 1.68175
520 1.66629
525 1.59039
530 1.5662
535 1.49847
540 1.73445
545 2.18514
550 2.74117
555 2.39192
560 1.82295
565 1.51151
570 1.19327
575 0.993211
580 0.794261
585 0.639577
590 0.553016
595 0.46257
600 0.894214
Ex : 483
200 0.22963
205 0.309994
210 0.241463
215 0.307733
220 0.3148
225 0.259095
230 0.261361
235 0.29054
240 0.279825
245 0.263395
250 0.283185
255 0.309764
260 0.270836
265 0.268366
270 0.349085
275 0.304138
280 0.244677
285 0.229485
290 0.279206
295 0.262387
300 0.253337
305 0.335036
310 0.231519
315 0.286886
320 0.22538
325 0.1988
330 0.279777
335 0.23947
340 0.272165
345 0.307857
350 0.319529
355 0.26168
360 0.255146
365 0.348369
370 0.326686
375 0.324067
380 0.289409
385 0.302614
390 0.280912
395 0.350726
400 0.351576
405 0.272182
410 0.366752
415 0.323709
420 0.340616
425 0.4201
430 0.405705
435 0.425892
440 0.391803
445 0.49434
450 0.511264
455 0.635948
460 0.760048
465 1.1408
470 27.1311
475 469.034
480 714.705
485 166.296
490 20.6818
495 3.78636
500 1.66102
505 1.43559
510 1.5678
515 1.76307
520 1.67315
525 1.57719
530 1.67705
535 1.56771
540 1.49615
545 1.41764
550 1.77516
555 2.47152
560 2.57149
565 1.71804
570 1.26185
575 1.16635
580 0.934372
585 0.67243
590 0.588442
595 0.569199
600 0.658786
Ex : 488
200 0.318438
205 0.292673
210 0.306281
215 0.258437
220 0.274657
225 0.329138
230 0.392935
235 0.372802
240 0.32701
245 0.271665
250 0.344816
255 0.333898
260 0.288179
265 0.330134
270 0.342257
275 0.278406
280 0.283341
285 0.314186
290 0.339953
295 0.296224
300 0.365842
305 0.327603
310 0.25673
315 0.478354
320 0.370156
325 0.284789
330 0.328097
335 0.38251
340 0.291511
345 0.350813
350 0.317835
355 0.303839
360 0.329664
365 0.327056
370 0.360277
375 0.347596
380 0.359954
385 0.357132
390 0.386224
395 0.433546
400 0.450209
405 0.364636
410 0.439866
415 0.348256
420 0.32282
425 0.303492
430 0.446912
435 0.41445
440 0.528603
445 0.52315
450 0.484567
455 0.631183
460 0.739909
465 0.844789
470 1.29005
475 33.8007
480 541.492
485 743.423
490 166.537
495 20.7149
500 3.79849
505 1.81355
510 1.56306
515 1.45705
520 1.85143
525 1.84541
530 1.68767
535 1.59528
540 1.55691
545 1.52667
550 1.39612
555 1.38229
560 2.21097
565 2.55623
570 1.83203
575 1.16839
580 1.16854
585 0.880445
590 0.809085
595 0.566422
600 0.304544
Ex : 493
200 0.404096
205 0.285852
210 0.286624
215 0.335545
220 0.261328
225 0.304667
230 0.267361
235 0.257482
240 0.275294
245 0.378903
250 0.29347
255 0.293754
260 0.31529
265 0.329334
270 0.311936
275 0.292598
280 0.250626
285 0.264553
290 0.289976
295 0.256715
300 0.278173
305 0.344478
310 0.340286
315 0.265411
320 0.251009
325 0.294332
330 0.355534
335 0.356067
340 0.295977
345 0.325181
350 0.332718
355 0.272628
360 0.365662
365 0.366051
370 0.307695
375 0.367936
380 0.454934
385 0.313643
390 0.364661
395 0.369405
400 0.400787
405 0.34595
410 0.337904
415 0.438914
420 0.325636
425 0.361748
430 0.403487
435 0.363808
440 0.453592
445 0.46145
450 0.502785
455 0.539602
460 0.544842
465 0.766641
470 0.882746
475 1.1957
480 31.0449
485 506.864
490 729.791
495 162.577
500 20.0708
505 3.60815
510 1.68776
515 1.54626
520 1.62627
525 1.8329
530 1.8997
535 1.76982
540 1.57763
545 1.24301
550 1.33603
555 1.32756
560 1.41738
565 1.53622
570 1.92381
575 1.77521
580 1.22156
585 0.951199
590 0.73567
595 0.625196
600 0.538416
Ex : 498
200 0.310748
205 0.308411
210 0.308166
215 0.312989
220 0.390192
225 0.339835
230 0.37145
235 0.364722
240 0.318843
245 0.319326
250 0.318154
255 0.328667
260 0.422415
265 0.39129
270 0.263786
275 0.318782
280 0.399255
285 0.349465
290 0.365444
295 0.353881
300 0.310514
305 0.399501
310 0.31014
315 0.267437
320 0.390178
325 0.347437
330 0.408701
335 0.322552
340 0.338001
345 0.286763
350 0.281993
355 0.316705
360 0.335866
365 0.32803
370 0.350446
375 0.424728
380 0.348313
385 0.418252
390 0.406402
395 0.309933
400 0.430633
405 0.382203
410 0.392961
415 0.425938
420 0.355447
425 0.379216
430 0.405791
435 0.456516
440 0.449364
445 0.564445
450 0.495675
455 0.551743
460 0.46868
465 0.640128
470 0.747719
475 0.934904
480 1.29031
485 37.9627
490 543.953
495 701.452
500 159.508
505 19.8465
510 3.78642
515 1.9046
520 1.61556
525 1.69698
530 1.95723
535 1.70874
540 1.70121
545 1.63739
550 1.44502
555 1.3691
560 1.42329
565 1.33293
570 1.24315
575 1.56497
580 1.65528
585 1.00802
590 0.774625
595 0.801333
600 0.90618
Ex : 503
200 0.42309
205 0.313384
210 0.377649
215 0.335802
220 0.35373
225 0.290593
230 0.40974
235 0.381531
240 0.342814
245 0.442999
250 0.448567
255 0.405407
260 0.294227
265 0.364672
270 0.322256
275 0.407429
280 0.399026
285 0.365937
290 0.401087
295 0.324089
300 0.317103
305 0.322177
310 0.409968
315 0.439765
320 0.372546
325 0.426831
330 0.39265
335 0.415625
340 0.3457
345 0.344561
350 0.412073
355 0.434138
360 0.414912
365 0.454811
370 0.373912
375 0.341391
380 0.32996
385 0.406925
390 0.39832
395 0.327256
400 0.369116
405 0.327501
410 0.398593
415 0.406968
420 0.461011
425 0.398109
430 0.417354
435 0.403624
440 0.434969
445 0.531837
450 0.456717
455 0.54354
460 0.488235
465 0.571701
470 0.716123
475 0.704138
480 0.895387
485 1.36407
490 37.1841
495 546.159
500 754.794
505 171.133
510 21.3654
515 4.10738
520 2.04049
525 1.67279
530 1.66474
535 1.74976
540 1.90717
545 1.67919
550 1.49064
555 1.22208
560 1.18911
565 1.15987
570 1.06291
575 0.910876
580 1.32729
585 1.25193
590 0.980362
595 0.688526
600 1.73371
Ex : 508
200 0.435559
205 0.359856
210 0.520277
215 0.314112
220 0.446925
225 0.410277
230 0.344006
235 0.465633
240 0.398785
245 0.445336
250 0.256553
255 0.321316
260 0.323875
265 0.320329
270 0.483004
275 0.327851
280 0.391748
285 0.313876
290 0.312042
295 0.505266
300 0.346304
305 0.3491
310 0.358
315 0.383441
320 0.395526
325 0.445298
330 0.462335
335 0.443517
340 0.410452
345 0.428572
350 0.41369
355 0.369076
360 0.412471
365 0.453671
370 0.385133
375 0.434609
380 0.435572
385 0.468167
390 0.386097
395 0.433582
400 0.453904
405 0.361584
410 0.399333
415 0.370208
420 0.485595
425 0.474891
430 0.492781
435 0.405918
440 0.48701
445 0.558595
450 0.441181
455 0.490247
460 0.548714
465 0.537707
470 0.596866
475 0.779868
480 0.80443
485 0.918879
490 1.42446
495 39.2799
500 554.265
505 741.484
510 173.94
515 21.7522
520 4.05693
525 2.05106
530 1.72174
535 1.62114
540 1.77178
545 1.73205
550 1.61273
555 1.37823
560 1.04896
565 1.2799
570 0.989355
575 0.807978
580 0.969407
585 0.841262
590 1.17551
595 1.03665
600 0.791308
Ex : 513
200 0.458699
205 0.352169
210 0.437306
215 0.328055
220 0.379723
225 0.331109
230 0.354119
235 0.391348
240 0.331203
245 0.392043
250 0.393267
255 0.4508
260 0.436332
265 0.397262
270 0.437987
275 0.415707
280 0.337806
285 0.404087
290 0.350663
295 0.465231
300 0.396495
305 0.321508
310 0.316199
315 0.381781
320 0.276453
325 0.311002
330 0.338
335 0.438195
340 0.431315
345 0.455446
350 0.431798
355 0.359508
360 0.375368
365 0.363296
370 0.429999
375 0.375723
380 0.341598
385 0.396577
390 0.458563
395 0.41599
400 0.540151
405 0.413603
410 0.445177
415 0.389621
420 0.5342
425 0.495548
430 0.431344
435 0.490899
440 0.341945
445 0.482711
450 0.447313
455 0.445827
460 0.567614
465 0.544401
470 0.555492
475 0.626101
480 0.658776
485 0.715283
490 1.07758
495 1.33465
500 36.9669
505 558.885
510 790.247
515 189.263
520 23.4914
525 4.4558
530 1.99572
535 1.68828
540 1.60696
545 1.59354
550 1.6394
555 1.47782
560 1.31479
565 1.32722
570 0.988424
575 0.678638
580 0.92751
585 0.626054
590 0.680952
595 0.952758
600 1.38402
Ex : 518
200 0.280245
205 0.494248
210 0.350798
215 0.357973
220 0.320473
225 0.377012
230 0.361165
235 0.306119
240 0.36143
245 0.491079
250 0.406958
255 0.346765
260 0.421449
265 0.31776
270 0.343886
275 0.40406
280 0.372147
285 0.322591
290 0.380198
295 0.335107
300 0.283798
305 0.310709
310 0.535863
315 0.409732
320 0.44069
325 0.422427
330 0.397308
335 0.400724
340 0.494509
345 0.406705
350 0.499534
355 0.564884
360 0.454211
365 0.423993
370 0.41402
375 0.531528
380 0.48707
385 0.532963
390 0.396608
395 0.391173
400 0.454979
405 0.414866
410 0.448414
415 0.533086
420 0.45883
425 0.444067
430 0.469805
435 0.555011
440 0.434301
445 0.408071
450 0.467736
455 0.531615
460 0.417693
465 0.648486
470 0.476867
475 0.549944
480 0.528774
485 0.694856
490 0.835959
495 1.05326
500 1.46006
505 35.3582
510 562.623
515 789.352
520 191.766
525 23.8274
530 4.3426
535 2.03659
540 1.57747
545 1.50307
550 1.4718
555 1.44704
560 1.31651
565 1.16027
570 1.0125
575 0.856258
580 0.688463
585 0.698211
590 0.524333
595 0.687385
600 0.929808
Ex : 523
200 0.444018
205 0.394436
210 0.440335
215 0.333567
220 0.320072
225 0.332775
230 0.394097
235 0.429047
240 0.395654
245 0.349213
250 0.403432
255 0.355227
260 0.467755
265 0.360162
270 0.388344
275 0.360954
280 0.393754
285 0.349508
290 0.332403
295 0.339789
300 0.391559
305 0.408308
310 0.397289
315 0.447554
320 0.406822
325 0.33505
330 0.325865
335 0.449989
340 0.353606
345 0.46604
350 0.466618
355 0.420859
360 0.401895
365 0.492469
370 0.515352
375 0.461174
380 0.445241
385 0.352053
390 0.458792
395 0.525155
400 0.426195
405 0.353554
410 0.38416
415 0.409326
420 0.374984
425 0.397747
430 0.502973
435 0.546951
440 0.436755
445 0.442054
450 0.525081
455 0.491393
460 0.527074
465 0.501716
470 0.611498
475 0.583625
480 0.673651
485 0.625429
490 0.676193
495 0.94144
500 0.90917
505 1.4122
510 32.246
515 524.49
520 800.325
525 201.647
530 24.8985
535 4.45909
540 1.88981
545 1.35592
550 1.29502
555 1.21348
560 1.29546
565 1.20001
570 1.14432
575 0.803376
580 0.772942
585 0.666321
590 0.65057
595 0.541549
600 0.312796
Ex : 528
200 0.453947
205 0.382688
210 0.369562
215 0.513495
220 0.510092
225 0.441334
230 0.391709
235 0.393315
240 0.392863
245 0.398103
250 0.392939
255 0.485349
260 0.453147
265 0.441505
270 0.311625
275 0.3702
280 0.339022
285 0.440371
290 0.371201
295 0.41753
300 0.351254
305 0.406135
310 0.474092
315 0.403414
320 0.417624
325 0.45561
330 0.438794
335 0.566374
340 0.453496
345 0.465813
350 0.44423
355 0.407298
360 0.460052
365 0.44814
370 0.48775
375 0.527629
380 0.386947
385 0.408671
390 0.54775
395 0.472871
400 0.380009
405 0.438573
410 0.442692
415 0.397582
420 0.468897
425 0.471973
430 0.465819
435 0.442335
440 0.43858
445 0.469745
450 0.51012
455 0.510231
460 0.54926
465 0.49199
470 0.471277
475 0.44619
480 0.552871
485 0.59393
490 0.680242
495 0.741029
500 0.740416
505 1.09547
510 1.50125
515 30.0895
520 501.649
525 753.28
530 188.006
535 23.2417
540 4.13561
545 1.79963
550 1.52529
555 1.25747
560 1.0347
565 1.18944
570 1.01427
575 0.928605
580 0.906247
585 0.58035
590 0.58114
595 0.596885
600 0.880685
Ex : 533
200 0.470139
205 0.388666
210 0.366717
215 0.449174
220 0.519437
225 0.387994
230 0.481331
235 0.454771
240 0.415771
245 0.500475
250 0.400367
255 0.441768
260 0.446869
265 0.444584
270 0.39447
275 0.538355
280 0.380393
285 0.321742
290 0.502285
295 0.405756
300 0.480232
305 0.334445
310 0.437008
315 0.381539
320 0.405884
325 0.509152
330 0.496152
335 0.430865
340 0.494579
345 0.495912
350 0.487793
355 0.358559
360 0.437009
365 0.593783
370 0.518335
375 0.413612
380 0.593965
385 0.527364
390 0.503723
395 0.486083
400 0.347315
405 0.504164
410 0.529868
415 0.439348
420 0.465499
425 0.466095
430 0.493942
435 0.540164
440 0.47565
445 0.499117
450 0.492017
455 0.523015
460 0.522867
465 0.44396
470 0.486766
475 0.611232
480 0.662832
485 0.563126
490 0.648124
495 0.618042
500 0.750966
505 0.829444
510 1.08579
515 1.38447
520 32.9922
525 529.421
530 871.513
535 205.465
540 25.1512
545 4.21604
550 1.67441
555 1.34369
560 1.086
565 1.13533
570 1.16086
575 1.02563
580 0.86532
585 0.570966
590 0.516716
595 0.614766
600 0.640388
Ex : 538
200 0.477723
205 0.36429
210 0.505167
215 0.45745
220 0.565035
225 0.393352
230 0.511837
235 0.588583
240 0.54857
245 0.53826
250 0.469237
255 0.531203
260 0.46641
265 0.55015
270 0.552372
275 0.432868
280 0.430373
285 0.457413
290 0.439272
295 0.392493
300 0.454571
305 0.493761
310 0.444563
315 0.432874
320 0.386213
325 0.42961
330 0.435714
335 0.521947
340 0.434846
345 0.497186
350 0.361108
355 0.532486
360 0.51773
365 0.47216
370 0.557637
375 0.49853
380 0.449063
385 0.539716
390 0.49486
395 0.496162
400 0.426172
405 0.411701
410 0.371665
415 0.423224
420 0.449452
425 0.541044
430 0.489679
435 0.538457
440 0.551629
445 0.485901
450 0.574311
455 0.561452
460 0.443064
465 0.672067
470 0.544337
475 0.620667
480 0.617316
485 0.572355
490 0.595972
495 0.625883
500 0.584223
505 0.703901
510 0.792202
515 1.04929
520 1.32146
525 25.2577
530 464.176
535 723.546
540 188.358
545 23.0759
550 4.01415
555 1.57852
560 1.19218
565 1.01436
570 0.980072
575 0.919085
580 0.817773
585 0.854258
590 0.687346
595 0.698686
600 0.759986
Ex : 543
200 0.467002
205 0.405299
210 0.441064
215 0.484921
220 0.461236
225 0.492104
230 0.362867
235 0.510004
240 0.448606
245 0.450092
250 0.484657
255 0.464753
260 0.55844
265 0.446503
270 0.547446
275 0.528231
280 0.449245
285 0.575249
290 0.372031
295 0.433107
300 0.464432
305 0.40553
310 0.467259
315 0.395448
320 0.479203
325 0.394006
330 0.487355
335 0.49811
340 0.42867
345 0.457788
350 0.496877
355 0.389824
360 0.477782
365 0.495416
370 0.414319
375 0.462079
380 0.445265
385 0.406615
390 0.45143
395 0.432829
400 0.400379
405 0.454143
410 0.434708
415 0.420947
420 0.527967
425 0.484349
430 0.532085
435 0.644784
440 0.636548
445 0.497902
450 0.559309
455 0.484278
460 0.46969
465 0.427078
470 0.457548
475 0.573198
480 0.576054
485 0.434224
490 0.581161
495 0.61031
500 0.723149
505 0.686539
510 0.687576
515 0.781421
520 1.0674
525 1.46659
530 24.3323
535 451.54
540 757.975
545 201.354
550 24.7277
555 3.85043
560 1.45315
565 1.19592
570 0.976703
575 0.817538
580 0.879664
585 0.775097
590 0.617168
595 0.568657
600 1.02342
Ex : 548
200 0.43017
205 0.486852
210 0.396403
215 0.427674
220 0.493169
225 0.457383
230 0.44208
235 0.401895
240 0.454261
245 0.488451
250 0.463763
255 0.518237
260 0.431937
265 0.366526
270 0.503287
275 0.521316
280 0.392147
285 0.379416
290 0.422505
295 0.521685
300 0.521313
305 0.39021
310 0.481451
315 0.560848
320 0.489767
325 0.455213
330 0.482018
335 0.441354
340 0.648375
345 0.382557
350 0.438348
355 0.49059
360 0.646099
365 0.378517
370 0.468052
375 0.544914
380 0.473056
385 0.495142
390 0.443504
395 0.497087
400 0.414833
405 0.447166
410 0.450083
415 0.492192
420 0.510025
425 0.44417
430 0.452262
435 0.452361
440 0.465375
445 0.506266
450 0.445475
455 0.609226
460 0.592818
465 0.469009
470 0.536767
475 0.490515
480 0.580874
485 0.531026
490 0.647723
495 0.659464
500 0.536824
505 0.581669
510 0.709082
515 0.703277
520 0.768617
525 1.01292
530 1.31535
535 26.5215
540 500.861
545 788.608
550 202.767
555 24.7025
560 3.95586
565 1.32746
570 1.07173
575 0.873989
580 0.634349
585 0.668953
590 0.799537
595 0.623905
600 1.23588
Ex : 553
200 0.611563
205 0.414228
210 0.451781
215 0.440681
220 0.456073
225 0.584115
230 0.487238
235 0.489208
240 0.514995
245 0.503009
250 0.397018
255 0.497832
260 0.498454
265 0.575218
270 0.516935
275 0.619717
280 0.484522
285 0.541133
290 0.446029
295 0.410755
300 0.497813
305 0.473372
310 0.405918
315 0.524829
320 0.476857
325 0.379599
330 0.448453
335 0.405953
340 0.538333
345 0.500659
350 0.572829
355 0.588227
360 0.543597
365 0.457715
370 0.50082
375 0.590118
380 0.453271
385 0.386753
390 0.655616
395 0.562196
400 0.522376
405 0.659812
410 0.565622
415 0.574953
420 0.571146
425 0.505829
430 0.611473
435 0.637892
440 0.53835
445 0.61637
450 0.542737
455 0.480749
460 0.62881
465 0.52602
470 0.481874
475 0.497527
480 0.535114
485 0.720845
490 0.730632
495 0.561431
500 0.707541
505 0.773433
510 0.630853
515 0.64444
520 0.802457
525 0.749264
530 0.977985
535 1.29491
540 24.8027
545 457.293
550 717.006
555 197.007
560 23.9707
565 3.804
570 1.28209
575 0.9502
580 0.809351
585 0.640749
590 0.747831
595 0.748485
600 0.896569
Ex : 558
200 0.443202
205 0.505623
210 0.580087
215 0.493065
220 0.597305
225 0.592757
230 0.478088
235 0.543046
240 0.427214
245 0.5421
250 0.531363
255 0.543646
260 0.570347
265 0.542536
270 0.574155
275 0.566823
280 0.558
285 0.440273
290 0.543678
295 0.467446
300 0.460285
305 0.513131
310 0.554304
315 0.540774
320 0.485158
325 0.541146
330 0.464569
335 0.548114
340 0.622163
345 0.519135
350 0.390591
355 0.499609
360 0.630814
365 0.560632
370 0.665368
375 0.618474
380 0.454355
385 0.527307
390 0.493743
395 0.541133
400 0.512227
405 0.523946
410 0.674141
415 0.682474
420 0.575652
425 0.537961
430 0.547596
435 0.594997
440 0.506204
445 0.533229
450 0.554641
455 0.642497
460 0.481737
465 0.569975
470 0.534764
475 0.614502
480 0.56825
485 0.516958
490 0.614443
495 0.650072
500 0.58324
505 0.593772
510 0.681877
515 0.732597
520 0.816499
525 0.714174
530 0.869055
535 1.00931
540 1.26472
545 21.2832
550 414.848
555 704.03
560 203.984
565 24.9819
570 3.858
575 1.47376
580 1.01096
585 0.861194
590 0.72088
595 0.598562
600 0.396772
Ex : 563
200 0.527705
205 0.636455
210 0.489006
215 0.399946
220 0.453909
225 0.461522
230 0.566875
235 0.527435
240 0.513958
245 0.506945
250 0.459726
255 0.574563
260 0.569229
265 0.546621
270 0.429807
275 0.550344
280 0.505802
285 0.441894
290 0.494634
295 0.569492
300 0.548389
305 0.520776
310 0.516159
315 0.49936
320 0.511443
325 0.558621
330 0.504978
335 0.565834
340 0.626593
345 0.60922
350 0.571049
355 0.478994
360 0.533189
365 0.484823
370 0.607362
375 0.55147
380 0.494964
385 0.567416
390 0.4586
395 0.449106
400 0.561336
405 0.571974
410 0.595381
415 0.554267
420 0.62184
425 0.55539
430 0.624257
435 0.561994
440 0.559253
445 0.712197
450 0.622501
455 0.550262
460 0.648869
465 0.482788
470 0.516525
475 0.610802
480 0.673259
485 0.671773
490 0.624513
495 0.529791
500 0.50412
505 0.594309
510 0.641134
515 0.658957
520 0.688861
525 0.660769
530 0.836085
535 0.896821
540 0.83006
545 1.07288
550 20.7196
555 391.469
560 677.664
565 194.28
570 23.6923
575 3.47692
580 1.1626
585 0.911625
590 0.827419
595 0.656519
600 0.614929
Ex : 568
200 0.564541
205 0.552164
210 0.458469
215 0.539071
220 0.44523
225 0.434404
230 0.449419
235 0.499192
240 0.377453
245 0.637371
250 0.401113
255 0.593464
260 0.499902
265 0.527341
270 0.52447
275 0.361086
280 0.461316
285 0.489656
290 0.521008
295 0.480175
300 0.582548
305 0.642513
310 0.591072
315 0.781466
320 0.531652
325 0.69911
330 0.658004
335 0.567064
340 0.458698
345 0.428665
350 0.667048
355 0.552759
360 0.504261
365 0.538908
370 0.404677
375 0.652972
380 0.553151
385 0.580377
390 0.601447
395 0.523769
400 0.576706
405 0.598013
410 0.594098
415 0.570966
420 0.527098
425 0.602353
430 0.609241
435 0.675211
440 0.598667
445 0.593546
450 0.629655
455 0.485747
460 0.556744
465 0.457745
470 0.592347
475 0.584233
480 0.68344
485 0.606544
490 0.63412
495 0.70635
500 0.475573
505 0.531793
510 0.567889
515 0.607357
520 0.666277
525 0.515827
530 0.797685
535 0.859217
540 0.810752
545 1.03296
550 1.40775
555 16.0366
560 370.682
565 658.196
570 193.192
575 23.7742
580 3.45981
585 1.25695
590 0.887011
595 0.772314
600 0.239807
Ex : 573
200 0.398926
205 0.601057
210 0.560768
215 0.487812
220 0.463515
225 0.437635
230 0.556627
235 0.621127
240 0.516885
245 0.562098
250 0.432006
255 0.380401
260 0.462684
265 0.376194
270 0.489696
275 0.547992
280 0.480758
285 0.371365
290 0.443768
295 0.526793
300 0.609396
305 0.425008
310 0.550101
315 0.534993
320 0.66785
325 0.590644
330 0.505229
335 0.478641
340 0.46593
345 0.524036
350 0.635486
355 0.609046
360 0.57121
365 0.537396
370 0.542803
375 0.5704
380 0.618825
385 0.529281
390 0.687095
395 0.538736
400 0.602668
405 0.758213
410 0.627429
415 0.566032
420 0.536119
425 0.527399
430 0.526776
435 0.481136
440 0.622096
445 0.671189
450 0.508211
455 0.565456
460 0.633058
465 0.662061
470 0.804696
475 0.591557
480 0.558359
485 0.634951
490 0.573906
495 0.524568
500 0.632215
505 0.699897
510 0.526543
515 0.605737
520 0.687771
525 0.804603
530 0.647757
535 0.909756
540 0.812552
545 0.785335
550 0.792835
555 1.07183
560 13.9474
565 305.717
570 590.194
575 182.242
580 22.4679
585 3.37693
590 1.295
595 0.851089
600 0.47479
Ex : 578
200 0.594319
205 0.721967
210 0.431806
215 0.52337
220 0.468156
225 0.534997
230 0.540962
235 0.422201
240 0.503597
245 0.533708
250 0.552088
255 0.597631
260 0.457848
265 0.534348
270 0.455083
275 0.564651
280 0.693762
285 0.509412
290 0.604296
295 0.557878
300 0.529554
305 0.517899
310 0.655105
315 0.469076
320 0.446056
325 0.772204
330 0.717251
335 0.65903
340 0.441325
345 0.546718
350 0.681326
355 0.684945
360 0.654377
365 0.632351
370 0.611513
375 0.549442
380 0.648957
385 0.623234
390 0.589863
395 0.635623
400 0.800524
405 0.620805
410 0.731036
415 0.574901
420 0.643248
425 0.539648
430 0.478655
435 0.563832
440 0.535225
445 0.5531
450 0.580862
455 0.550411
460 0.527518
465 0.608016
470 0.577006
475 0.532404
480 0.542186
485 0.596565
490 0.639209
495 0.654185
500 0.630752
505 0.745177
510 0.630624
515 0.697252
520 0.639802
525 0.78664
530 0.780191
535 0.556791
540 0.797833
545 0.811721
550 0.99509
555 0.96577
560 1.01452
565 12.6896
570 275.429
575 522.251
580 157.867
585 19.5032
590 3.01807
595 0.993986
600 0.152793
Ex : 583
200 0.515766
205 0.669463
210 0.563068
215 0.702109
220 0.50893
225 0.501099
230 0.61598
235 0.524114
240 0.504223
245 0.612328
250 0.539003
255 0.563601
260 0.653412
265 0.569341
270 0.554776
275 0.480887
280 0.56835
285 0.53971
290 0.505839
295 0.519801
300 0.605898
305 0.449995
310 0.408038
315 0.510193
320 0.526216
325 0.706593
330 0.502354
335 0.693503
340 0.525496
345 0.488062
350 0.473563
355 0.529619
360 0.499925
365 0.557651
370 0.52255
375 0.540593
380 0.707269
385 0.743821
390 0.615842
395 0.615081
400 0.662895
405 0.642073
410 0.550848
415 0.598061
420 0.666612
425 0.700263
430 0.588471
435 0.473608
440 0.600834
445 0.568169
450 0.640465
455 0.622114
460 0.615428
465 0.492137
470 0.563861
475 0.521985
480 0.64722
485 0.612492
490 0.701553
495 0.583686
500 0.571405
505 0.64381
510 0.548357
515 0.667109
520 0.659887
525 0.664956
530 0.755137
535 0.682729
540 0.669097
545 0.693828
550 0.663925
555 0.71304
560 0.904138
565 1.10379
570 10.6993
575 253.513
580 451.182
585 130.382
590 16.1641
595 2.5735
600 0.410553
Ex : 588
200 0.65798
205 0.554172
210 0.720541
215 0.559338
220 0.553789
225 0.593522
230 0.60593
235 0.484201
240 0.560114
245 0.566405
250 0.605702
255 0.561452
260 0.520183
265 0.624734
270 0.475853
275 0.518075
280 0.510992
285 0.562392
290 0.532384
295 0.56989
300 0.502817
305 0.605391
310 0.614665
315 0.720373
320 0.519626
325 0.592118
330 0.44226
335 0.548531
340 0.568337
345 0.557767
350 0.425278
355 0.649006
360 0.656789
365 0.502032
370 0.504752
375 0.449659
380 0.538556
385 0.520082
390 0.47237
395 0.500691
400 0.516062
405 0.509724
410 0.579633
415 0.567347
420 0.584207
425 0.56315
430 0.515498
435 0.595408
440 0.716334
445 0.585703
450 0.697769
455 0.603411
460 0.51092
465 0.511575
470 0.64542
475 0.616201
480 0.693683
485 0.800152
490 0.560818
495 0.627208
500 0.552033
505 0.635585
510 0.666152
515 0.703796
520 0.608164
525 0.590273
530 0.614709
535 0.726266
540 0.662828
545 0.737137
550 0.716935
555 0.840872
560 0.776754
565 1.12643
570 1.05788
575 9.70993
580 212.296
585 385.163
590 119.626
595 14.766
600 2.10232
Ex : 593
200 0.451805
205 0.527821
210 0.623607
215 0.812732
220 0.488154
225 0.488
230 0.554605
235 0.502053
240 0.631225
245 0.71631
250 0.562118
255 0.632005
260 0.554739
265 0.677104
270 0.60506
275 0.883304
280 0.546728
285 0.654504
290 0.604748
295 0.583899
300 0.621833
305 0.603089
310 0.648345
315 0.712923
320 0.642593
325 0.550216
330 0.636596
335 0.55482
340 0.557054
345 0.665068
350 0.589563
355 0.567679
360 0.595823
365 0.704339
370 0.642406
375 0.534242
380 0.676784
385 0.634475
390 0.585576
395 0.687104
400 0.529676
405 0.643738
410 0.590843
415 0.570389
420 0.631623
425 0.586751
430 0.631678
435 0.621481
440 0.589001
445 0.530035
450 0.637213
455 0.677187
460 0.720894
465 0.618074
470 0.525537
475 0.577262
480 0.673098
485 0.699339
490 0.67495
495 0.637813
500 0.547575
505 0.597335
510 0.782048
515 0.839954
520 0.866691
525 0.770992
530 0.722741
535 0.556864
540 0.759037
545 0.733016
550 0.665036
555 0.747115
560 0.818238
565 0.819011
570 0.886194
575 0.955595
580 8.68845
585 190.821
590 337.884
595 102.009
600 14.2668
Ex : 598
200 0.572775
205 0.768192
210 0.644588
215 0.670845
220 0.637633
225 0.623018
230 0.61676
235 0.513752
240 0.660029
245 0.57785
250 0.62296
255 0.606329
260 0.527805
265 0.543514
270 0.706481
275 0.52087
280 0.684784
285 0.526256
290 0.498155
295 0.540905
300 0.56381
305 0.540312
310 0.674652
315 0.484729
320 0.543804
325 0.590758
330 0.502706
335 0.753775
340 0.639841
345 0.514698
350 0.667403
355 0.654865
360 0.61608
365 0.674524
370 0.592245
375 0.730509
380 0.697576
385 0.545559
390 0.595072
395 0.779323
400 0.629016
405 0.455158
410 0.535942
415 0.807157
420 0.661367
425 0.669063
430 0.664806
435 0.677313
440 0.686992
445 0.610161
450 0.58028
455 0.640919
460 0.575122
465 0.5937
470 0.743103
475 0.700211
480 0.569854
485 0.759949
490 0.667898
495 0.773204
500 0.628246
505 0.658027
510 0.602263
515 0.751526
520 0.549989
525 0.591775
530 0.829357
535 0.666893
540 0.787675
545 0.81129
550 0.805658
555 0.771054
560 0.619653
565 0.771312
570 0.783463
575 0.703615
580 0.9556
585 8.24111
590 164.722
595 293.911
600 181.629
Ex : 603
200 0.561168
205 0.526412
210 0.623534
215 0.586431
220 0.531524
225 0.472678
230 0.588042
235 0.563394
240 0.637067
245 0.57711
250 0.547551
255 0.821689
260 0.757669
265 0.585695
270 0.425683
275 0.536583
280 0.539029
285 0.472019
290 0.749115
295 0.580185
300 0.56211
305 0.620886
310 0.607189
315 0.62725
320 0.535348
325 0.671617
330 0.706534
335 0.605443
340 0.637763
345 0.704082
350 0.783723
355 0.708018
360 0.632042
365 0.501971
370 0.672823
375 0.624092
380 0.637816
385 0.534769
390 0.666029
395 0.696427
400 0.516393
405 0.639434
410 0.606679
415 0.761287
420 0.680105
425 0.635955
430 0.595053
435 0.66658
440 0.722846
445 0.702207
450 0.60394
455 0.797201
460 0.654969
465 0.551765
470 0.630482
475 0.71781
480 0.647462
485 0.830132
490 0.651374
495 0.608389
500 0.594774
505 0.699179
510 0.567669
515 0.561522
520 0.975234
525 0.673718
530 0.750952
535 0.809819
540 0.775943
545 0.707766
550 0.738981
555 0.723229
560 0.748171
565 0.710902
570 0.737244
575 0.803523
580 0.732625
585 0.895658
590 7.62375
595 145.069
600 298.545
