File format V 1.0
ven. 9. déc. 21:47:19 2016
Operator : 
Comments : 

=============================================
SpectroFluorometer parameters
Mode : 3D measurement
Data : Fluorescence
Phospho. : Ordinary
Spectrum : Fluorescence

Scan speed : 2400 nm/mn
Response : 100 ms
PM Voltage : 700 V
Shutter : On

Lambda Ex. Start : 203
Lambda Ex. End : 603
Lambda Ex. Step : 5
Ex. Slit : 5 nm

Lambda Em. Start : 200
Lambda Em. End : 600
Lambda Em. Step : 5
Em. Slit : 5 nm

Repetition : 1
Decal lambda em : 10
=============================================
DATA
Ex : 203
200 15.9753
205 13.374
210 15.4382
215 13.5476
220 13.4346
225 15.7802
230 12.6193
235 16.2618
240 12.8727
245 12.5424
250 19.2061
255 17.6009
260 17.5303
265 12.6122
270 12.6716
275 13.0748
280 14.4357
285 12.5658
290 15.0876
295 11.7386
300 20.0816
305 14.5159
310 14.0587
315 18.2081
320 13.6764
325 13.3287
330 15.7409
335 13.648
340 15.5582
345 13.4053
350 14.5876
355 10.7045
360 16.0242
365 16.9984
370 12.8086
375 14.7725
380 13.519
385 13.6414
390 14.3706
395 14.9847
400 15.3306
405 13.0128
410 14.9901
415 16.6369
420 16.8896
425 14.4652
430 15.7394
435 18.966
440 15.6043
445 22.0624
450 14.6119
455 15.3889
460 17.0161
465 13.457
470 16.5968
475 14.7706
480 17.0165
485 15.4405
490 15.1657
495 16.5162
500 14.669
505 16.0119
510 20.9843
515 19.2619
520 16.3075
525 17.8189
530 17.1152
535 16.6215
540 17.1654
545 18.5542
550 16.3021
555 13.726
560 15.4082
565 18.2203
570 13.6785
575 14.7695
580 11.2517
585 12.719
590 19.5711
595 15.6644
600 18.325
Ex : 208
200 15.7111
205 13.1048
210 13.5603
215 17.1202
220 12.7166
225 12.1994
230 12.3069
235 10.7338
240 13.7371
245 14.7734
250 13.422
255 13.048
260 13.4238
265 16.4337
270 15.5925
275 15.385
280 14.1383
285 14.7207
290 14.6159
295 10.1993
300 18.515
305 18.4722
310 13.5497
315 13.8105
320 14.6258
325 15.5032
330 15.9213
335 18.8947
340 13.9644
345 14.1384
350 12.7345
355 15.5183
360 16.6933
365 16.8786
370 21.9704
375 19.6082
380 19.1708
385 17.4713
390 14.3439
395 13.6796
400 16.8769
405 17.6412
410 18.8454
415 12.3874
420 21.417
425 17.2341
430 15.4771
435 15.6018
440 14.5451
445 12.746
450 14.4581
455 16.1063
460 17.1356
465 14.0184
470 12.2603
475 13.3476
480 14.8285
485 18.0047
490 14.207
495 12.7307
500 17.0635
505 15.7518
510 20.2173
515 16.7542
520 14.3023
525 16.7338
530 17.4395
535 16.3595
540 15.1116
545 20.5181
550 15.3996
555 14.989
560 16.5359
565 14.3601
570 15.6675
575 14.2422
580 11.7986
585 13.8691
590 16.5245
595 15.1201
600 13.6844
Ex : 213
200 16.0422
205 13.8397
210 16.0021
215 18.0318
220 15.498
225 14.9211
230 15.2695
235 10.9261
240 14.1619
245 14.2731
250 16.3248
255 15.8782
260 14.6117
265 11.7323
270 14.2585
275 14.4367
280 15.3816
285 14.2189
290 12.6823
295 12.2397
300 10.9144
305 10.7765
310 12.6277
315 11.7306
320 14.3947
325 15.1177
330 15.9449
335 18.212
340 12.4192
345 15.1627
350 15.7866
355 16.5647
360 16.1865
365 16.7402
370 14.2004
375 17.8807
380 13.2775
385 12.234
390 14.5384
395 15.9912
400 18.3435
405 14.0986
410 12.3697
415 11.0568
420 18.4444
425 16.3729
430 15.1005
435 11.0798
440 13.4145
445 11.8623
450 17.2254
455 18.8796
460 20.937
465 17.9808
470 15.2755
475 15.2846
480 15.2373
485 11.3278
490 14.28
495 16.8347
500 14.1341
505 9.57915
510 15.1978
515 18.0302
520 12.4441
525 12.0093
530 15.4358
535 16.8674
540 17.2599
545 14.1298
550 16.3944
555 13.5349
560 12.6907
565 12.0445
570 16.12
575 13.9441
580 15.7822
585 21.0656
590 12.8882
595 14.2101
600 1.61706
Ex : 218
200 12.4855
205 16.8306
210 16.4548
215 16.6109
220 15.0127
225 16.3057
230 14.6602
235 15.3841
240 15.0706
245 11.2564
250 14.7595
255 14.8779
260 11.8393
265 11.1877
270 10.1399
275 14.2034
280 16.7642
285 15.081
290 13.998
295 12.4087
300 21.8338
305 18.945
310 13.7026
315 11.3476
320 16.3832
325 13.1259
330 14.9693
335 11.7026
340 14.5049
345 17.1963
350 14.3486
355 16.7091
360 15.3008
365 14.4985
370 13.6372
375 14.1494
380 14.1728
385 19.6718
390 14.159
395 16.4914
400 17.9164
405 16.031
410 12.7541
415 12.5181
420 16.8677
425 15.8175
430 18.1947
435 20.7427
440 13.6813
445 13.3206
450 16.2464
455 11.9626
460 12.2759
465 16.3907
470 14.4296
475 12.0162
480 15.3833
485 14.4476
490 18.2815
495 13.9064
500 15.578
505 14.0466
510 21.3247
515 14.1803
520 14.6184
525 14.2271
530 14.1064
535 13.4072
540 17.023
545 12.8128
550 15.1543
555 16.5782
560 17.2173
565 19.4976
570 13.9718
575 16.5678
580 15.8443
585 15.6885
590 14.6823
595 14.4263
600 75.1966
Ex : 223
200 16.8412
205 12.8732
210 12.2528
215 16.0905
220 11.1362
225 13.0317
230 17.3668
235 16.4046
240 17.6422
245 14.0701
250 15.1234
255 17.8235
260 16.0303
265 17.0135
270 17.4377
275 19.5251
280 13.6305
285 13.6138
290 12.5391
295 11.4124
300 13.7777
305 17.871
310 15.3841
315 12.0831
320 14.8482
325 16.76
330 15.2889
335 15.2518
340 13.2961
345 14.2645
350 12.9946
355 13.4153
360 16.4948
365 15.7935
370 19.5677
375 14.0504
380 13.2014
385 12.8694
390 12.8726
395 13.1978
400 17.0237
405 13.8417
410 12.2047
415 14.9709
420 14.7384
425 11.6117
430 14.5649
435 16.738
440 14.8686
445 14.7685
450 13.9132
455 14.1241
460 11.9816
465 13.2396
470 13.3308
475 13.4655
480 12.0266
485 15.3298
490 14.4162
495 13.3016
500 14.171
505 18.7747
510 14.9122
515 16.3399
520 12.4019
525 13.8511
530 14.1533
535 13.7451
540 14.1766
545 15.0084
550 11.8464
555 11.964
560 13.9503
565 13.8355
570 13.0084
575 15.6952
580 15.4036
585 15.4073
590 16.2986
595 15.531
600 1.76737
Ex : 228
200 15.4649
205 12.2308
210 15.1401
215 13.8103
220 14.0211
225 9.97294
230 9.20076
235 10.6288
240 13.4268
245 14.5592
250 11.6739
255 11.7792
260 12.7576
265 14.17
270 12.8528
275 10.8479
280 13.7299
285 14.1354
290 10.4216
295 15.4798
300 12.396
305 10.7109
310 12.5991
315 17.1733
320 13.1764
325 14.8058
330 12.2068
335 11.9995
340 14.2201
345 12.152
350 9.94949
355 14.7977
360 12.4344
365 14.5185
370 14.7633
375 11.4329
380 13.8984
385 13.332
390 13.4854
395 12.2792
400 17.17
405 13.9784
410 13.465
415 13.0835
420 13.4618
425 12.5305
430 12.8923
435 11.6402
440 11.5446
445 11.7065
450 14.2461
455 17.9554
460 14.4138
465 14.8536
470 12.5227
475 15.4344
480 14.7372
485 10.3451
490 13.5841
495 13.8035
500 13.101
505 10.5873
510 11.9403
515 8.96714
520 11.8349
525 12.6626
530 11.4984
535 12.6019
540 13.8091
545 11.6077
550 12.5795
555 13.0537
560 11.9584
565 11.7059
570 14.6676
575 12.3592
580 10.0903
585 9.73653
590 12.4755
595 14.8364
600 1.68832
Ex : 233
200 16.1743
205 9.53947
210 10.9634
215 13.4001
220 11.6276
225 8.79723
230 13.6919
235 11.1664
240 12.0494
245 13.808
250 12.5295
255 15.0458
260 14.4253
265 13.5175
270 9.76971
275 10.0252
280 15.6981
285 12.7865
290 13.6984
295 10.2684
300 14.0058
305 10.0534
310 12.7776
315 12.3393
320 13.2818
325 10.593
330 10.1255
335 13.7363
340 9.34632
345 11.6492
350 13.5024
355 9.55246
360 14.4833
365 13.3933
370 10.5325
375 13.1644
380 10.2287
385 9.05239
390 9.18742
395 9.36044
400 11.8993
405 14.075
410 9.26615
415 11.6072
420 12.2097
425 16.6985
430 12.9157
435 15.3729
440 13.8582
445 11.4925
450 13.6002
455 12.5914
460 13.1048
465 13.338
470 9.97924
475 12.967
480 10.3177
485 11.1622
490 13.5168
495 12.2752
500 12.1562
505 12.9886
510 12.5775
515 14.0938
520 11.4443
525 10.24
530 12.5079
535 12.8731
540 12.5864
545 12.2241
550 11.1438
555 9.95623
560 14.5694
565 13.1141
570 9.40372
575 9.82764
580 9.42651
585 14.3398
590 14.769
595 14.6355
600 1.66546
Ex : 238
200 11.4467
205 8.92169
210 9.49181
215 11.0227
220 12.2899
225 10.1455
230 11.5417
235 9.81804
240 11.269
245 9.93272
250 9.99967
255 8.32809
260 10.3183
265 10.9874
270 11.0676
275 14.3462
280 11.8201
285 8.73386
290 8.63544
295 8.91039
300 7.52431
305 10.8121
310 10.4205
315 9.79521
320 13.423
325 11.8036
330 13.0166
335 11.5892
340 10.5843
345 12.0371
350 12.0985
355 13.1069
360 11.8597
365 12.3729
370 10.0228
375 9.76997
380 11.4533
385 11.7678
390 11.4512
395 13.078
400 10.3316
405 10.9316
410 13.5253
415 8.79846
420 9.94784
425 12.2516
430 10.7149
435 9.7102
440 7.89557
445 9.57265
450 9.94029
455 15.9519
460 14.702
465 11.5057
470 10.5084
475 9.98496
480 10.6768
485 8.31622
490 11.6756
495 8.68646
500 11.8962
505 11.2777
510 14.3057
515 10.231
520 11.4221
525 9.8833
530 11.3686
535 13.5834
540 9.35678
545 9.00791
550 8.89292
555 10.1743
560 13.204
565 11.2863
570 14.7325
575 11.9572
580 9.61206
585 11.6199
590 10.2374
595 12.1846
600 20.1445
Ex : 243
200 8.57407
205 10.7749
210 8.1925
215 9.31268
220 11.0784
225 10.9697
230 7.81778
235 11.1605
240 10.1097
245 8.73798
250 8.72593
255 10.8099
260 8.90517
265 10.5052
270 9.41709
275 8.2362
280 11.6804
285 8.51389
290 9.7541
295 8.99357
300 10.8537
305 9.50967
310 10.6299
315 9.48615
320 7.14864
325 8.31758
330 9.33702
335 9.13538
340 10.4457
345 9.77829
350 11.5525
355 10.4978
360 8.1431
365 10.4566
370 10.6275
375 10.1048
380 12.5983
385 10.8508
390 8.94508
395 9.09154
400 9.31359
405 9.53542
410 10.597
415 10.7107
420 10.1098
425 12.9014
430 10.8523
435 9.17095
440 11.2301
445 9.51158
450 10.6091
455 10.6142
460 8.32561
465 10.4289
470 9.19139
475 9.04475
480 10.1878
485 11.6574
490 9.75695
495 13.0741
500 8.72183
505 7.27989
510 9.87703
515 10.9601
520 8.5855
525 10.9748
530 11.2815
535 11.075
540 12.4635
545 9.00621
550 7.89621
555 8.90555
560 7.72083
565 10.491
570 12.1786
575 10.8754
580 8.65507
585 8.18156
590 8.17566
595 10.8572
600 1.23551
Ex : 248
200 9.0058
205 9.72861
210 7.25271
215 8.22916
220 8.04482
225 9.11487
230 11.0827
235 7.41247
240 8.99317
245 7.84579
250 6.66224
255 8.7067
260 8.93286
265 8.58398
270 6.49977
275 7.23848
280 8.83589
285 7.38939
290 7.1971
295 8.7525
300 8.41551
305 8.60222
310 9.0878
315 6.9687
320 8.51641
325 7.23433
330 8.37581
335 8.89655
340 8.49129
345 7.9543
350 6.35478
355 7.6637
360 7.19899
365 8.19156
370 7.92457
375 6.2387
380 7.0797
385 9.29469
390 8.11998
395 5.97222
400 8.58455
405 9.84438
410 8.61401
415 8.63583
420 6.67857
425 9.18038
430 8.76733
435 7.60992
440 9.79448
445 9.90679
450 7.63277
455 8.17231
460 9.63579
465 8.71948
470 7.77819
475 9.20726
480 7.08397
485 9.03634
490 10.3457
495 8.02403
500 7.25287
505 7.91771
510 8.15201
515 8.13915
520 8.40813
525 5.99863
530 9.06475
535 6.86457
540 6.53027
545 7.18824
550 8.93289
555 8.91873
560 7.01343
565 6.88068
570 7.15739
575 5.97735
580 8.66154
585 7.83896
590 8.04307
595 8.52256
600 5.1793
Ex : 253
200 5.54726
205 6.4571
210 6.46225
215 6.60731
220 5.87266
225 6.61786
230 7.85174
235 6.67376
240 5.82707
245 5.85997
250 6.84395
255 8.54942
260 6.94875
265 5.22392
270 6.60417
275 8.245
280 6.25095
285 6.20275
290 3.63506
295 5.57462
300 6.11901
305 6.92848
310 5.63699
315 5.10297
320 6.35073
325 7.2408
330 5.53519
335 5.56076
340 6.86509
345 6.08063
350 8.41108
355 8.0735
360 6.97789
365 6.62505
370 6.62894
375 6.99109
380 4.83844
385 6.84287
390 8.48822
395 8.00772
400 7.07479
405 6.55428
410 5.68232
415 6.71491
420 6.31198
425 7.20961
430 7.13134
435 6.40733
440 6.59664
445 5.25759
450 6.30447
455 7.52766
460 5.34876
465 8.29677
470 7.33248
475 7.63318
480 9.45233
485 6.62068
490 7.0114
495 6.47001
500 6.85063
505 6.10771
510 6.24947
515 6.9845
520 6.66063
525 6.6069
530 7.07601
535 7.13399
540 6.70167
545 9.32627
550 8.62827
555 8.56577
560 5.40358
565 7.7354
570 6.38675
575 5.44731
580 6.348
585 7.14736
590 5.46017
595 5.01364
600 0.767467
Ex : 258
200 5.94971
205 5.95582
210 4.58827
215 5.18525
220 4.31829
225 4.6457
230 4.43181
235 4.27332
240 4.63653
245 4.87523
250 5.37461
255 4.90669
260 4.99959
265 4.60436
270 5.4255
275 5.50099
280 4.95255
285 5.54635
290 4.6414
295 4.96598
300 5.46255
305 4.52091
310 5.19966
315 4.44695
320 4.7868
325 4.45707
330 4.60004
335 4.64354
340 6.26288
345 5.14195
350 5.22093
355 5.89383
360 5.0948
365 4.8428
370 6.1019
375 5.02416
380 4.9821
385 4.87591
390 5.03097
395 6.71904
400 4.88737
405 5.54364
410 6.65116
415 4.53858
420 5.42508
425 5.57975
430 6.72196
435 4.19194
440 5.35889
445 5.71664
450 5.85698
455 5.85587
460 4.70217
465 4.76414
470 5.70093
475 4.53533
480 5.98677
485 5.27278
490 6.8106
495 4.56216
500 5.62049
505 4.98233
510 4.96517
515 6.83487
520 5.95554
525 6.3424
530 6.42176
535 5.33263
540 6.21161
545 5.28931
550 3.90362
555 3.9423
560 4.5175
565 7.40348
570 5.08311
575 5.26266
580 4.38822
585 4.83309
590 4.65532
595 5.64758
600 3.52284
Ex : 263
200 3.96252
205 5.08167
210 3.94612
215 3.88428
220 3.09526
225 3.69213
230 3.99487
235 3.67349
240 3.72456
245 3.59896
250 3.94621
255 3.71417
260 4.9368
265 3.7607
270 3.76918
275 3.2382
280 4.16923
285 3.90575
290 3.77378
295 4.20935
300 4.10221
305 4.64863
310 4.02937
315 4.0764
320 4.2527
325 5.09891
330 4.71089
335 3.81557
340 5.03273
345 4.54985
350 4.17735
355 2.972
360 4.02208
365 4.93371
370 3.41847
375 3.98366
380 5.59225
385 3.41306
390 4.16282
395 4.1612
400 4.29553
405 4.31327
410 5.46877
415 4.38041
420 4.76082
425 4.03162
430 4.738
435 4.58754
440 3.59705
445 3.65297
450 3.47737
455 5.24797
460 3.83423
465 3.96661
470 5.11512
475 4.62522
480 3.49539
485 3.93025
490 4.30788
495 3.624
500 3.11913
505 4.17755
510 4.90234
515 3.65756
520 3.70102
525 4.19658
530 3.95753
535 3.87835
540 5.24656
545 4.60375
550 3.47925
555 4.31133
560 3.28769
565 3.90562
570 3.75061
575 3.91871
580 3.39506
585 4.07174
590 3.46926
595 3.82118
600 8.91707
Ex : 268
200 2.36385
205 2.55956
210 2.99119
215 2.81546
220 3.43255
225 3.31885
230 3.01105
235 3.24515
240 3.66551
245 3.17937
250 2.918
255 2.43007
260 2.85754
265 4.31839
270 3.37366
275 2.73478
280 2.66601
285 2.6589
290 3.15648
295 2.63264
300 3.223
305 3.72168
310 3.52313
315 3.6424
320 3.61221
325 3.24878
330 3.61559
335 3.26874
340 2.71958
345 3.68016
350 2.64198
355 3.09951
360 2.57289
365 3.20804
370 4.08038
375 2.70399
380 3.05252
385 3.42112
390 3.84361
395 4.08572
400 2.20906
405 3.84771
410 3.35463
415 4.20304
420 3.38048
425 3.03605
430 4.51192
435 3.67609
440 4.07353
445 2.62225
450 2.70485
455 3.23729
460 3.52964
465 3.14084
470 3.64257
475 3.93167
480 2.25476
485 2.76715
490 4.0921
495 2.94478
500 2.50995
505 2.87363
510 3.91508
515 3.45799
520 2.78922
525 2.96979
530 3.71594
535 2.91939
540 3.10029
545 3.73724
550 4.31168
555 3.47756
560 3.83654
565 2.82838
570 3.32702
575 3.6364
580 3.40579
585 3.02208
590 3.27519
595 2.94756
600 0.419821
Ex : 273
200 2.33112
205 2.62177
210 2.49623
215 2.42273
220 2.01952
225 2.31396
230 2.53544
235 2.57035
240 3.25099
245 2.73681
250 2.51723
255 2.11034
260 2.01256
265 2.5482
270 2.60432
275 2.21211
280 2.30028
285 2.45625
290 1.77762
295 1.32305
300 1.96007
305 2.14273
310 2.64369
315 2.72867
320 2.46711
325 2.69943
330 2.62693
335 2.38707
340 2.72384
345 2.53429
350 2.74256
355 2.39009
360 2.54696
365 2.41319
370 2.86774
375 2.6647
380 3.04503
385 3.26208
390 3.15206
395 3.01561
400 3.07112
405 3.09671
410 3.46827
415 2.77286
420 2.18332
425 2.99955
430 3.13288
435 2.94225
440 3.0813
445 2.36254
450 3.27353
455 2.5679
460 2.63048
465 2.8977
470 3.04163
475 2.77703
480 2.70214
485 2.39646
490 2.75459
495 2.52312
500 2.28024
505 2.9995
510 2.72649
515 2.9454
520 2.68315
525 2.217
530 2.68679
535 2.14205
540 2.6425
545 3.36206
550 2.59007
555 2.80565
560 2.51044
565 3.22981
570 2.37779
575 2.20222
580 2.18073
585 2.28991
590 2.38141
595 2.33655
600 3.84615
Ex : 278
200 2.28461
205 2.33339
210 1.70474
215 1.6955
220 2.1698
225 1.68012
230 1.59992
235 1.98778
240 1.95131
245 1.95126
250 1.88246
255 1.70677
260 1.58741
265 1.93659
270 2.17322
275 2.76846
280 2.17773
285 1.77785
290 2.20006
295 1.63861
300 1.465
305 1.41896
310 1.94014
315 1.40122
320 2.31412
325 2.41038
330 1.58716
335 2.09969
340 1.71455
345 1.85493
350 2.45359
355 2.0523
360 2.47831
365 2.33327
370 3.07954
375 2.22804
380 2.81238
385 2.93219
390 2.11847
395 2.36961
400 2.69593
405 2.25769
410 2.36519
415 2.00996
420 2.24282
425 2.29349
430 1.98102
435 2.09454
440 2.14826
445 2.31181
450 2.48658
455 2.77337
460 2.58257
465 2.16171
470 2.38558
475 1.88307
480 2.93778
485 2.23055
490 1.96973
495 2.47597
500 2.56455
505 2.33024
510 2.34405
515 2.00289
520 1.74614
525 2.21143
530 2.01634
535 1.86467
540 2.04868
545 3.26681
550 2.66934
555 3.01327
560 2.09864
565 2.22573
570 2.53688
575 1.85254
580 1.78721
585 2.04092
590 2.69548
595 1.78534
600 2.97613
Ex : 283
200 1.60864
205 1.94327
210 1.1966
215 1.52228
220 1.92156
225 1.72161
230 1.48067
235 1.72298
240 2.34506
245 1.41887
250 1.23076
255 1.3157
260 1.76111
265 1.86333
270 1.45745
275 1.99008
280 1.95165
285 1.50037
290 1.16822
295 1.57906
300 1.31116
305 1.49619
310 1.59227
315 1.5241
320 1.43217
325 1.76918
330 1.9073
335 1.84447
340 1.66243
345 1.78388
350 1.92704
355 1.65808
360 1.78432
365 2.05586
370 1.60132
375 2.05111
380 2.10161
385 2.80482
390 2.10498
395 2.09946
400 2.4275
405 1.9956
410 2.17885
415 2.11293
420 2.53494
425 2.37717
430 2.51109
435 2.19731
440 2.18153
445 2.08591
450 2.34297
455 2.0067
460 2.15665
465 1.86032
470 2.43885
475 2.12665
480 1.77231
485 1.57661
490 1.89959
495 1.82604
500 1.80123
505 1.90781
510 1.41898
515 1.63771
520 1.62804
525 1.90013
530 1.86589
535 1.27114
540 1.4676
545 2.01562
550 1.86139
555 2.03919
560 2.13106
565 2.09852
570 1.74031
575 1.26333
580 1.87568
585 1.4962
590 1.29911
595 1.62751
600 1.09536
Ex : 288
200 1.0871
205 1.06158
210 1.05707
215 1.11571
220 1.56765
225 1.25474
230 1.61881
235 1.72374
240 1.58669
245 0.908959
250 1.4881
255 1.63731
260 1.81103
265 1.56656
270 1.29809
275 1.36125
280 1.48858
285 1.9345
290 1.30965
295 1.40972
300 1.596
305 1.33494
310 1.71611
315 1.36259
320 1.60847
325 1.37163
330 1.55234
335 1.3275
340 1.44777
345 1.47676
350 1.39707
355 1.30372
360 1.33369
365 1.88289
370 1.61128
375 1.9421
380 1.48932
385 2.05128
390 1.46316
395 1.6981
400 1.8531
405 1.58042
410 1.9513
415 2.25844
420 1.39892
425 1.75854
430 1.7945
435 2.06844
440 2.0025
445 1.77619
450 1.6477
455 2.00147
460 1.58899
465 1.90448
470 2.51216
475 1.53837
480 1.51406
485 1.29278
490 1.78396
495 1.70097
500 1.42327
505 2.20979
510 1.39011
515 1.32397
520 1.6243
525 1.75244
530 1.31516
535 1.3342
540 1.31641
545 1.27096
550 1.30351
555 0.932414
560 1.73335
565 1.52148
570 2.14002
575 1.79669
580 1.33909
585 1.48145
590 1.30459
595 1.33135
600 1.13841
Ex : 293
200 1.25669
205 1.09986
210 1.13424
215 1.42556
220 0.943585
225 1.53103
230 1.25146
235 1.04187
240 1.29399
245 1.46009
250 1.29744
255 1.07571
260 1.18965
265 0.827905
270 1.28346
275 1.61795
280 1.03414
285 1.3695
290 1.60618
295 1.1929
300 1.03571
305 0.963347
310 1.61311
315 1.52404
320 1.3891
325 1.38954
330 1.06229
335 1.30747
340 1.28382
345 1.46289
350 1.39419
355 1.46851
360 1.41583
365 1.42683
370 1.462
375 1.63864
380 1.68765
385 1.7921
390 1.74826
395 1.64455
400 1.98395
405 1.57705
410 1.71202
415 1.7349
420 1.42842
425 1.74594
430 1.84197
435 1.48373
440 1.73439
445 1.60474
450 1.47624
455 1.2588
460 1.35167
465 1.76461
470 1.5887
475 1.5176
480 1.07262
485 1.08623
490 1.49196
495 1.04813
500 1.29239
505 1.14327
510 1.38804
515 1.46212
520 1.55491
525 1.53329
530 1.44097
535 1.26839
540 1.15773
545 1.14861
550 1.01443
555 1.20551
560 1.17907
565 1.11954
570 1.10815
575 1.55757
580 1.60089
585 1.56989
590 1.59325
595 1.20547
600 0.527108
Ex : 298
200 0.897654
205 1.06368
210 1.04
215 1.0981
220 0.885751
225 1.06553
230 1.11783
235 0.934788
240 1.03428
245 1.16408
250 1.02943
255 0.926847
260 1.19356
265 1.09928
270 0.984693
275 1.27041
280 1.01753
285 1.20926
290 1.01945
295 1.33143
300 0.9513
305 1.11669
310 1.22481
315 1.15944
320 0.91676
325 1.07307
330 1.0614
335 0.944609
340 1.21226
345 0.852058
350 1.33887
355 1.18902
360 1.1676
365 1.10346
370 1.16013
375 1.65726
380 1.4218
385 1.44834
390 1.37844
395 1.58079
400 1.42448
405 1.38068
410 1.46415
415 1.23973
420 1.42399
425 1.58438
430 1.56274
435 1.51464
440 1.34225
445 1.30675
450 1.44258
455 1.41944
460 1.54645
465 1.18413
470 1.58578
475 1.46427
480 1.11141
485 1.05598
490 1.12625
495 1.21802
500 1.07639
505 1.27553
510 0.96274
515 1.16285
520 1.117
525 0.830997
530 1.03508
535 1.00399
540 0.84131
545 1.0497
550 1.02431
555 1.13391
560 0.888275
565 1.38456
570 0.980307
575 0.886309
580 1.14411
585 1.20199
590 1.57393
595 1.42123
600 4.2235
Ex : 303
200 0.882994
205 0.978543
210 0.898811
215 0.871838
220 1.05766
225 0.808195
230 0.902603
235 0.890137
240 0.880814
245 1.25406
250 0.839746
255 0.789992
260 1.03049
265 1.02935
270 0.960056
275 0.915548
280 0.760064
285 0.905083
290 1.14143
295 0.926289
300 1.30482
305 0.923358
310 1.11976
315 0.834562
320 0.828412
325 1.03242
330 0.773874
335 1.04441
340 0.97566
345 0.911892
350 0.95368
355 0.961965
360 1.44238
365 0.981282
370 1.16515
375 1.29046
380 1.42573
385 1.15356
390 1.33594
395 1.43484
400 1.2865
405 1.37642
410 1.37827
415 1.37827
420 1.40491
425 1.45221
430 1.21606
435 1.59415
440 1.3802
445 1.15043
450 1.0045
455 1.16401
460 1.21697
465 1.37309
470 1.13728
475 1.03879
480 1.1093
485 1.15258
490 1.02301
495 1.11469
500 1.22401
505 1.0834
510 1.2206
515 1.03853
520 1.04605
525 1.11649
530 0.781811
535 0.984817
540 0.857689
545 0.898226
550 0.88694
555 1.20435
560 0.821226
565 0.941618
570 1.04067
575 1.10948
580 0.760827
585 1.09039
590 1.02567
595 1.14303
600 0.532892
Ex : 308
200 0.530312
205 0.689865
210 0.873673
215 0.938614
220 0.711847
225 0.735966
230 0.763559
235 0.709283
240 0.611333
245 0.675523
250 0.992182
255 0.894672
260 0.816331
265 0.819156
270 0.643564
275 0.819686
280 0.799759
285 0.840574
290 0.936834
295 0.740874
300 0.977178
305 0.915301
310 0.835047
315 0.791147
320 0.862525
325 0.843293
330 0.813129
335 0.838603
340 0.960427
345 0.980341
350 0.881653
355 0.816728
360 0.949798
365 1.02702
370 1.35722
375 1.10504
380 1.11955
385 1.16985
390 1.50641
395 1.45215
400 1.20194
405 1.28001
410 1.23444
415 1.2296
420 1.33834
425 1.48562
430 1.21315
435 1.23165
440 1.44572
445 1.42425
450 1.17894
455 1.0356
460 1.1996
465 1.237
470 1.15067
475 1.08376
480 0.995412
485 1.01833
490 1.01788
495 1.21633
500 1.03517
505 0.952737
510 0.840571
515 0.679211
520 0.845095
525 1.09127
530 1.0764
535 0.939715
540 0.941366
545 0.673478
550 0.715964
555 0.778114
560 0.715353
565 0.727831
570 0.842782
575 0.795613
580 0.837898
585 0.699225
590 0.782027
595 1.06147
600 0.512765
Ex : 313
200 0.699863
205 0.645841
210 0.644752
215 0.545488
220 0.958255
225 0.78552
230 0.534222
235 0.592171
240 0.827585
245 0.597389
250 0.611256
255 0.7894
260 0.951275
265 0.731561
270 0.821427
275 0.893096
280 0.724349
285 0.663622
290 0.627627
295 0.705685
300 0.826864
305 0.839793
310 1.03703
315 0.735031
320 0.764812
325 0.817542
330 0.889207
335 0.733111
340 1.05597
345 0.857974
350 1.06449
355 1.16176
360 0.97363
365 1.27928
370 1.60761
375 1.79232
380 1.92682
385 1.99557
390 1.97143
395 2.11862
400 2.25386
405 1.97166
410 2.30913
415 2.08849
420 1.93193
425 2.12483
430 2.24015
435 2.30919
440 1.84068
445 1.86824
450 1.79842
455 1.64602
460 1.30666
465 1.36205
470 1.57622
475 1.21773
480 1.3267
485 1.21364
490 1.04472
495 1.0566
500 1.02475
505 0.954111
510 1.05855
515 1.11169
520 0.918621
525 1.09215
530 0.805541
535 0.808052
540 0.703061
545 0.809546
550 0.689595
555 0.827447
560 0.857151
565 1.03693
570 0.852218
575 0.595147
580 0.785573
585 0.676508
590 0.687125
595 0.641673
600 0.598559
Ex : 318
200 0.610808
205 0.571491
210 0.714078
215 0.733683
220 0.737175
225 0.561963
230 0.559372
235 0.741716
240 0.546991
245 0.57746
250 0.647091
255 0.744325
260 0.510545
265 0.666994
270 0.739289
275 0.658844
280 0.607358
285 0.821926
290 0.696536
295 0.517082
300 0.701511
305 0.56619
310 0.810289
315 1.05462
320 1.05181
325 0.876869
330 1.31854
335 1.77765
340 1.9699
345 3.07529
350 4.10269
355 4.78819
360 6.02914
365 6.95384
370 8.21225
375 8.93824
380 10.631
385 11.5581
390 13.4761
395 13.9808
400 14.2643
405 14.523
410 13.9614
415 13.6222
420 14.3654
425 13.4616
430 12.8977
435 12.7764
440 12.8362
445 11.7534
450 11.2011
455 10.8891
460 9.78216
465 8.94496
470 8.15362
475 7.58908
480 6.94509
485 6.19281
490 6.14763
495 5.10767
500 4.45013
505 3.94224
510 3.61963
515 3.25527
520 2.89168
525 2.52205
530 2.38389
535 2.11065
540 1.87131
545 1.82628
550 1.6206
555 1.51967
560 1.65486
565 1.19873
570 1.12729
575 1.10929
580 1.15128
585 1.00711
590 1.19524
595 0.877518
600 1.12453
Ex : 323
200 0.536972
205 0.49121
210 0.487077
215 0.520952
220 0.716916
225 0.484313
230 0.657803
235 0.699618
240 0.772425
245 0.567126
250 0.704333
255 0.698817
260 0.642532
265 0.56992
270 0.461739
275 0.500481
280 0.610161
285 0.530854
290 0.675266
295 0.568739
300 0.500516
305 0.571022
310 0.615113
315 3.90975
320 13.3806
325 6.02561
330 2.87087
335 3.61614
340 5.88019
345 7.27351
350 10.3363
355 14.3848
360 17.097
365 20.6789
370 24.1791
375 27.5069
380 31.9889
385 35.2401
390 38.2972
395 40.5845
400 42.1904
405 44.3323
410 43.9524
415 43.5521
420 42.7298
425 42.178
430 41.5474
435 38.8961
440 37.7504
445 35.9092
450 34.1638
455 31.7924
460 29.8222
465 27.2308
470 24.9529
475 22.8772
480 21.3911
485 19.1718
490 16.8917
495 14.935
500 13.5743
505 11.7608
510 10.5229
515 9.64998
520 8.3897
525 7.09799
530 6.36986
535 5.6301
540 5.08841
545 4.42228
550 4.28064
555 3.56144
560 2.83024
565 2.70929
570 2.34405
575 1.96973
580 1.55365
585 1.33383
590 1.1342
595 1.02532
600 1.20994
Ex : 328
200 0.53344
205 0.54679
210 0.511553
215 0.59697
220 0.55888
225 0.698926
230 0.657822
235 0.526581
240 0.404389
245 0.5129
250 0.588907
255 0.47113
260 0.664428
265 0.584462
270 0.614387
275 0.535038
280 0.638969
285 0.620736
290 0.473865
295 0.53064
300 0.646229
305 0.472161
310 0.530585
315 1.35208
320 26.0291
325 58.2342
330 19.1359
335 5.97178
340 6.44043
345 7.4044
350 9.86362
355 14.3745
360 19.8006
365 21.8912
370 23.3071
375 26.7234
380 30.7615
385 33.9484
390 37.7038
395 40.4335
400 42.2271
405 43.2802
410 43.0875
415 42.6402
420 41.2893
425 40.1059
430 39.5852
435 37.5084
440 36.3003
445 34.4304
450 32.5628
455 30.1756
460 28.7364
465 26.5829
470 24.5971
475 22.4581
480 20.535
485 17.8385
490 16.6408
495 15.0065
500 13.9621
505 12.1297
510 11.2027
515 9.62585
520 8.44769
525 7.50618
530 6.63925
535 5.98418
540 5.34753
545 4.72273
550 4.16814
555 3.96731
560 3.3601
565 3.12919
570 2.39193
575 2.2558
580 1.7472
585 1.66788
590 1.3218
595 1.09632
600 1.71099
Ex : 333
200 0.391969
205 0.455213
210 0.554813
215 0.496974
220 0.494134
225 0.520744
230 0.388443
235 0.452753
240 0.457875
245 0.47924
250 0.356636
255 0.520753
260 0.558313
265 0.502266
270 0.394152
275 0.553889
280 0.516665
285 0.571963
290 0.440908
295 0.521182
300 0.610014
305 0.517777
310 0.605004
315 0.715922
320 4.40157
325 63.5977
330 108.469
335 30.5592
340 7.60992
345 5.92412
350 6.40474
355 7.72155
360 10.9999
365 16.0698
370 16.8883
375 16.8271
380 18.0814
385 20.7629
390 23.337
395 24.379
400 24.8355
405 26.0227
410 26.3509
415 26.3272
420 25.1757
425 24.8049
430 23.2714
435 23.2196
440 21.8809
445 20.6555
450 18.7252
455 18.4219
460 16.8556
465 15.7809
470 15.022
475 14.0432
480 13.651
485 11.6944
490 11.5606
495 10.5278
500 9.84319
505 8.42149
510 7.85435
515 7.09218
520 6.15676
525 5.83187
530 5.01769
535 4.76504
540 4.25979
545 4.07768
550 3.49997
555 3.34404
560 3.08197
565 2.72382
570 2.11383
575 1.82445
580 1.60796
585 1.33911
590 1.03615
595 1.05278
600 0.15108
Ex : 338
200 0.346765
205 0.392503
210 0.591125
215 0.442172
220 0.509969
225 0.466349
230 0.520964
235 0.50463
240 0.532557
245 0.383417
250 0.368169
255 0.504852
260 0.404114
265 0.392502
270 0.494182
275 0.384714
280 0.416455
285 0.536501
290 0.430328
295 0.512965
300 0.530846
305 0.458213
310 0.399809
315 0.535609
320 0.602053
325 6.92871
330 97.5378
335 143.182
340 36.766
345 7.39044
350 4.80253
355 4.78745
360 5.00666
365 7.37833
370 11.943
375 12.9622
380 12.5747
385 12.9887
390 15.4848
395 16.0891
400 16.9318
405 16.4795
410 17.602
415 18.1478
420 17.0547
425 16.011
430 15.1974
435 15.0259
440 15.0541
445 13.7617
450 13.7531
455 12.312
460 11.9506
465 11.0217
470 10.6361
475 10.2018
480 9.28304
485 8.88958
490 8.52124
495 7.71696
500 7.60704
505 6.6989
510 6.45217
515 5.57063
520 5.23744
525 4.59804
530 4.46932
535 3.93471
540 3.67096
545 3.28375
550 3.13823
555 2.8969
560 2.57044
565 2.5402
570 2.19321
575 1.82037
580 1.63432
585 1.29574
590 1.00961
595 0.876742
600 0.574076
Ex : 343
200 0.37575
205 0.468542
210 0.474094
215 0.452007
220 0.391051
225 0.462985
230 0.376947
235 0.389945
240 0.394904
245 0.397181
250 0.488645
255 0.439135
260 0.492318
265 0.514643
270 0.451928
275 0.325129
280 0.411486
285 0.432197
290 0.402457
295 0.446108
300 0.357464
305 0.544762
310 0.439406
315 0.388833
320 0.503103
325 0.647778
330 7.89203
335 107.442
340 154.758
345 38.2889
350 6.8561
355 3.83834
360 3.94054
365 3.79248
370 5.04798
375 9.62424
380 12.0038
385 12.0985
390 13.2237
395 13.776
400 12.999
405 14.3132
410 15.005
415 15.2566
420 14.8041
425 13.9288
430 13.2381
435 13.0193
440 12.6567
445 12.112
450 11.4363
455 11.1551
460 10.6728
465 10.3185
470 9.78035
475 9.08013
480 8.46686
485 8.61334
490 8.14668
495 7.76798
500 7.15637
505 6.68211
510 5.82821
515 5.38165
520 5.01639
525 4.99941
530 4.38703
535 3.96761
540 3.6858
545 3.15959
550 2.91962
555 2.77598
560 2.66148
565 2.34145
570 1.94556
575 1.8141
580 1.48151
585 1.37963
590 1.03135
595 1.01767
600 0.781908
Ex : 348
200 0.414209
205 0.315034
210 0.43243
215 0.392276
220 0.422773
225 0.374687
230 0.328857
235 0.396619
240 0.431012
245 0.494114
250 0.381276
255 0.396747
260 0.33227
265 0.312999
270 0.421427
275 0.452799
280 0.433437
285 0.420748
290 0.441038
295 0.34937
300 0.427806
305 0.392774
310 0.433162
315 0.443445
320 0.451897
325 0.394976
330 0.567586
335 8.28199
340 109.283
345 161.346
350 41.7022
355 7.06448
360 3.77463
365 3.76838
370 3.73985
375 4.60999
380 9.12139
385 14.3757
390 15.5715
395 16.0502
400 14.35
405 14.6372
410 16.0024
415 16.3516
420 16.0976
425 14.9643
430 13.8456
435 13.9105
440 13.7075
445 12.7912
450 12.2741
455 10.9507
460 10.7318
465 10.2789
470 10.4864
475 9.73072
480 9.27683
485 8.34683
490 8.09153
495 7.77045
500 7.20785
505 6.52175
510 6.28382
515 5.99446
520 5.30726
525 4.8704
530 4.42512
535 4.04432
540 3.74039
545 3.5728
550 3.48249
555 2.85003
560 2.66132
565 2.27537
570 2.2755
575 1.87519
580 1.61106
585 1.3158
590 1.25809
595 0.912888
600 1.10683
Ex : 353
200 0.311973
205 0.386055
210 0.3605
215 0.294191
220 0.463443
225 0.388755
230 0.408629
235 0.316686
240 0.417239
245 0.326008
250 0.310783
255 0.351183
260 0.335365
265 0.350423
270 0.308768
275 0.444436
280 0.547056
285 0.456473
290 0.383098
295 0.521619
300 0.379393
305 0.43892
310 0.372107
315 0.36077
320 0.443714
325 0.398649
330 0.449072
335 0.679002
340 7.86502
345 112.066
350 159.958
355 40.1885
360 6.72
365 3.4876
370 3.6991
375 3.89623
380 5.5282
385 10.6452
390 16.8954
395 17.8401
400 16.6258
405 15.5253
410 16.2209
415 17.2724
420 17.1456
425 15.7052
430 14.5037
435 14.0464
440 14.1619
445 13.4453
450 12.558
455 11.4546
460 11.3004
465 10.8448
470 9.87986
475 9.86239
480 9.50051
485 9.02384
490 8.36733
495 7.8127
500 7.16072
505 6.65856
510 6.69131
515 6.03372
520 5.21837
525 5.28953
530 4.54338
535 4.51637
540 3.80707
545 3.69616
550 3.29103
555 3.22658
560 2.89316
565 2.48593
570 2.33163
575 1.81421
580 1.56645
585 1.42059
590 1.08643
595 0.943344
600 0.631237
Ex : 358
200 0.40399
205 0.347701
210 0.429396
215 0.353176
220 0.320712
225 0.335639
230 0.286694
235 0.410161
240 0.254362
245 0.277564
250 0.376611
255 0.381289
260 0.36434
265 0.309941
270 0.271146
275 0.329422
280 0.345015
285 0.355103
290 0.319426
295 0.306049
300 0.358882
305 0.3448
310 0.298335
315 0.483135
320 0.380514
325 0.370672
330 0.489919
335 0.46741
340 0.6483
345 7.59473
350 106.737
355 159.452
360 41.5203
365 6.46424
370 3.4219
375 3.94766
380 4.62926
385 7.02595
390 12.0837
395 17.0181
400 17.0952
405 15.6232
410 15.1943
415 16.0833
420 15.8098
425 14.4048
430 13.3911
435 13.2511
440 13.2262
445 12.4536
450 11.866
455 11.3628
460 10.7268
465 10.0758
470 10.1083
475 9.56966
480 9.34228
485 9.11732
490 8.63212
495 7.90653
500 7.42365
505 7.2663
510 6.94237
515 6.40596
520 5.81541
525 5.5372
530 4.80136
535 4.29682
540 4.09614
545 3.81146
550 3.22333
555 3.01776
560 2.82198
565 2.33438
570 2.06012
575 1.7487
580 1.52182
585 1.3165
590 1.21391
595 0.954393
600 1.96826
Ex : 363
200 0.419199
205 0.311374
210 0.333322
215 0.307939
220 0.374051
225 0.226106
230 0.293207
235 0.355566
240 0.471977
245 0.329752
250 0.325727
255 0.380355
260 0.331748
265 0.316302
270 0.299165
275 0.277235
280 0.300806
285 0.32789
290 0.400121
295 0.32217
300 0.358556
305 0.310606
310 0.299021
315 0.343906
320 0.242506
325 0.383688
330 0.429749
335 0.384119
340 0.48946
345 0.471921
350 6.92714
355 100.512
360 159.344
365 42.5107
370 7.08403
375 3.69475
380 5.21175
385 7.96283
390 11.1848
395 13.3843
400 16.4229
405 17.7667
410 17.7865
415 17.5454
420 15.8061
425 14.2607
430 13.4204
435 13.5143
440 13.3824
445 12.8557
450 12.0297
455 10.8524
460 11.2352
465 10.7822
470 10.3533
475 10.1629
480 9.93627
485 9.57312
490 9.00731
495 8.62666
500 7.96128
505 7.78945
510 7.25478
515 6.65034
520 5.92771
525 5.56298
530 4.81746
535 4.69948
540 4.12058
545 3.95184
550 3.57586
555 3.15027
560 2.86377
565 2.69509
570 2.19599
575 1.81301
580 1.63277
585 1.28634
590 1.10794
595 0.80253
600 0.653723
Ex : 368
200 0.386171
205 0.381808
210 0.271431
215 0.224915
220 0.347222
225 0.318565
230 0.319759
235 0.296165
240 0.273209
245 0.253578
250 0.276821
255 0.303112
260 0.299894
265 0.263068
270 0.37105
275 0.26937
280 0.342092
285 0.279327
290 0.294672
295 0.37285
300 0.291001
305 0.333583
310 0.335767
315 0.314311
320 0.331681
325 0.331164
330 0.334821
335 0.266515
340 0.378435
345 0.426099
350 0.426235
355 5.59076
360 99.1549
365 163.862
370 45.1964
375 7.57043
380 4.8375
385 8.63516
390 12.3166
395 14.7604
400 15.134
405 17.3504
410 21.1005
415 21.2905
420 19.3342
425 17.101
430 14.9104
435 14.7651
440 14.3532
445 14.1441
450 12.867
455 11.9067
460 11.5257
465 11.4379
470 11.1148
475 11.0096
480 10.4742
485 9.75163
490 9.55606
495 9.09079
500 8.69458
505 8.12914
510 7.44555
515 7.07403
520 6.63555
525 6.1132
530 5.47529
535 4.77318
540 4.41886
545 4.04181
550 3.46991
555 3.40389
560 3.00253
565 2.65548
570 2.25379
575 1.8826
580 1.5613
585 1.54672
590 1.15793
595 0.879493
600 0.882028
Ex : 373
200 0.335242
205 0.259951
210 0.306047
215 0.252915
220 0.340076
225 0.353494
230 0.291133
235 0.26161
240 0.302848
245 0.252404
250 0.287047
255 0.227699
260 0.275276
265 0.258239
270 0.289197
275 0.298661
280 0.273834
285 0.300868
290 0.271397
295 0.259599
300 0.275679
305 0.236999
310 0.304415
315 0.303213
320 0.278179
325 0.271965
330 0.280481
335 0.318807
340 0.316741
345 0.365713
350 0.360654
355 0.479298
360 6.59736
365 101.153
370 160.66
375 43.9455
380 8.2217
385 7.089
390 12.3668
395 15.1996
400 14.4656
405 13.9991
410 17.7455
415 22.4025
420 20.9206
425 17.398
430 14.9946
435 14.1662
440 14.3377
445 13.7188
450 12.9207
455 12.1475
460 11.2616
465 11.0279
470 10.9105
475 10.9449
480 10.4846
485 10.3167
490 9.77113
495 9.36698
500 9.29811
505 8.67999
510 7.83353
515 7.35769
520 6.79872
525 6.01965
530 5.89187
535 5.3615
540 4.74289
545 4.23918
550 3.77119
555 3.69018
560 3.22511
565 2.76533
570 2.37894
575 2.10576
580 1.77052
585 1.42338
590 1.21756
595 0.884102
600 1.44127
Ex : 378
200 0.211581
205 0.230728
210 0.248088
215 0.238489
220 0.276576
225 0.227195
230 0.275436
235 0.236052
240 0.205543
245 0.292278
250 0.279706
255 0.252424
260 0.275192
265 0.300305
270 0.267572
275 0.288598
280 0.263285
285 0.308964
290 0.185862
295 0.365385
300 0.270283
305 0.201688
310 0.34172
315 0.29231
320 0.235045
325 0.231036
330 0.311513
335 0.306132
340 0.302223
345 0.333266
350 0.309915
355 0.419122
360 0.49071
365 6.47768
370 101.769
375 164.784
380 45.4602
385 10.0966
390 9.41186
395 11.3589
400 11.0237
405 10.7449
410 12.0709
415 14.9544
420 17.0876
425 15.628
430 13.2965
435 12.0662
440 11.6517
445 11.1658
450 11.0503
455 10.4133
460 10.284
465 10.3246
470 10.0647
475 10.1613
480 9.87795
485 10.0168
490 9.74234
495 9.28478
500 9.05479
505 8.59208
510 7.82587
515 7.44656
520 6.93867
525 6.29362
530 6.00336
535 5.25413
540 4.87119
545 4.50004
550 4.13671
555 3.69225
560 3.31519
565 2.92078
570 2.4442
575 2.06474
580 1.78796
585 1.36171
590 1.18088
595 0.966166
600 0.75935
Ex : 383
200 0.283549
205 0.193147
210 0.275133
215 0.27771
220 0.305047
225 0.274574
230 0.232426
235 0.284041
240 0.281791
245 0.329067
250 0.264096
255 0.294328
260 0.278766
265 0.296742
270 0.279656
275 0.309281
280 0.287221
285 0.229133
290 0.294541
295 0.245948
300 0.246394
305 0.260152
310 0.27943
315 0.231868
320 0.222383
325 0.271837
330 0.316838
335 0.303598
340 0.379586
345 0.274755
350 0.336491
355 0.391556
360 0.451365
365 0.505404
370 6.09199
375 102.166
380 172.161
385 51.0444
390 13.9939
395 10.5627
400 10.1429
405 11.0544
410 11.7389
415 12.787
420 12.5032
425 13.9419
430 13.7948
435 12.5227
440 11.5371
445 10.6608
450 9.93067
455 9.55308
460 9.71471
465 9.99557
470 9.90508
475 9.88996
480 9.83761
485 9.84188
490 9.48022
495 9.28511
500 9.07711
505 8.56765
510 8.12897
515 7.62766
520 6.97964
525 6.49898
530 5.97314
535 5.3413
540 5.08334
545 4.48329
550 3.98874
555 3.63207
560 3.08574
565 2.82203
570 2.44254
575 1.98459
580 1.60284
585 1.3486
590 1.12248
595 0.941774
600 0.967462
Ex : 388
200 0.295591
205 0.29391
210 0.210239
215 0.308878
220 0.334778
225 0.286775
230 0.220477
235 0.251809
240 0.34163
245 0.293351
250 0.282213
255 0.279888
260 0.227469
265 0.19076
270 0.177431
275 0.293948
280 0.247663
285 0.268394
290 0.281338
295 0.247275
300 0.151846
305 0.270696
310 0.296833
315 0.26065
320 0.32888
325 0.262454
330 0.2578
335 0.292589
340 0.335584
345 0.240395
350 0.287503
355 0.371241
360 0.368843
365 0.434965
370 0.489793
375 6.49322
380 104.932
385 175.468
390 55.6481
395 17.4586
400 12.3176
405 11.9513
410 14.0553
415 14.8533
420 14.2497
425 12.7361
430 13.6887
435 15.0843
440 13.5495
445 12.6061
450 11.3082
455 10.2187
460 9.94879
465 9.96517
470 9.90875
475 9.91748
480 9.81348
485 9.75786
490 9.48531
495 9.52415
500 8.78384
505 8.45854
510 8.18837
515 7.43528
520 6.65088
525 6.35625
530 5.89742
535 5.494
540 5.31744
545 4.35248
550 4.14622
555 3.56214
560 3.3348
565 2.7699
570 2.36219
575 2.20572
580 1.7925
585 1.39251
590 1.19871
595 0.93209
600 0.552527
Ex : 393
200 0.263463
205 0.200227
210 0.240156
215 0.287271
220 0.213773
225 0.25492
230 0.269773
235 0.228434
240 0.271241
245 0.298822
250 0.215844
255 0.217051
260 0.243956
265 0.23983
270 0.250379
275 0.253369
280 0.214061
285 0.183763
290 0.247889
295 0.278656
300 0.23508
305 0.212976
310 0.200266
315 0.224416
320 0.218039
325 0.251296
330 0.204492
335 0.195382
340 0.264792
345 0.320253
350 0.302842
355 0.266336
360 0.304762
365 0.362224
370 0.419242
375 0.559904
380 6.28992
385 107.761
390 183.751
395 59.8337
400 17.1464
405 11.3711
410 12.3036
415 15.2515
420 14.6992
425 12.769
430 11.0832
435 11.789
440 14.5566
445 14.0039
450 12.1949
455 10.8281
460 9.91256
465 9.71578
470 9.83073
475 10.1402
480 9.90837
485 9.7549
490 9.55742
495 9.29628
500 8.89684
505 8.92668
510 8.27017
515 7.66857
520 7.15096
525 6.36418
530 6.03817
535 5.3025
540 5.20238
545 4.60014
550 4.12651
555 3.90368
560 3.3109
565 3.00529
570 2.49165
575 1.9938
580 1.67621
585 1.43973
590 1.09838
595 1.00109
600 0.508139
Ex : 398
200 0.251593
205 0.188073
210 0.194224
215 0.184618
220 0.21017
225 0.199247
230 0.159908
235 0.260765
240 0.186671
245 0.224341
250 0.240989
255 0.306176
260 0.278867
265 0.257699
270 0.246419
275 0.292138
280 0.227836
285 0.16463
290 0.186102
295 0.210337
300 0.257843
305 0.236983
310 0.209183
315 0.227736
320 0.181526
325 0.230243
330 0.240963
335 0.265097
340 0.286847
345 0.290826
350 0.229822
355 0.270159
360 0.283687
365 0.309974
370 0.370341
375 0.430648
380 0.669241
385 7.08846
390 110.238
395 186.057
400 54.6476
405 11.6102
410 7.6378
415 9.05148
420 9.14732
425 8.15023
430 7.15388
435 6.79601
440 8.25843
445 10.4598
450 10.5415
455 8.97822
460 9.12012
465 8.62491
470 8.46527
475 9.1439
480 9.10955
485 9.40545
490 9.10572
495 8.81071
500 8.87027
505 8.37285
510 7.96719
515 7.58652
520 7.17942
525 6.60056
530 6.12485
535 5.7481
540 4.94603
545 4.69944
550 4.18846
555 3.89791
560 3.33816
565 3.09993
570 2.68569
575 2.13497
580 1.71284
585 1.31867
590 1.11605
595 0.921844
600 0.675678
Ex : 403
200 0.216212
205 0.196511
210 0.169749
215 0.24656
220 0.201218
225 0.25649
230 0.290046
235 0.276093
240 0.273945
245 0.180608
250 0.2559
255 0.225453
260 0.222718
265 0.220921
270 0.293534
275 0.222984
280 0.179655
285 0.219768
290 0.299678
295 0.266564
300 0.263884
305 0.245592
310 0.227235
315 0.225355
320 0.27186
325 0.207555
330 0.242105
335 0.208693
340 0.207108
345 0.231379
350 0.239795
355 0.18949
360 0.271424
365 0.25242
370 0.264365
375 0.300598
380 0.360232
385 0.772034
390 7.42637
395 111.754
400 181.142
405 51.5585
410 8.85233
415 4.3409
420 4.12655
425 4.47557
430 4.13512
435 3.95695
440 4.19896
445 5.19539
450 7.49791
455 8.62305
460 7.94752
465 7.98782
470 7.85952
475 8.28907
480 8.03547
485 8.76346
490 8.90489
495 8.69229
500 8.25557
505 8.17393
510 7.96009
515 7.57993
520 6.85425
525 6.61529
530 5.95762
535 5.84191
540 5.082
545 4.67823
550 4.31244
555 3.74885
560 3.22584
565 3.0946
570 2.62458
575 2.12315
580 1.67619
585 1.45836
590 1.08502
595 0.952007
600 0.991545
Ex : 408
200 0.186158
205 0.214915
210 0.237671
215 0.281417
220 0.238368
225 0.274473
230 0.22424
235 0.237448
240 0.245016
245 0.224465
250 0.261325
255 0.221521
260 0.279511
265 0.27499
270 0.214253
275 0.187587
280 0.184112
285 0.270225
290 0.222123
295 0.234048
300 0.25478
305 0.198724
310 0.280061
315 0.236146
320 0.21517
325 0.246737
330 0.268196
335 0.287039
340 0.250466
345 0.208164
350 0.243174
355 0.304823
360 0.266593
365 0.245604
370 0.287991
375 0.269642
380 0.357525
385 0.39187
390 0.735949
395 6.75739
400 112.558
405 183.997
410 49.256
415 7.81169
420 3.0785
425 3.00003
430 3.34909
435 3.41131
440 3.28373
445 3.68598
450 4.55259
455 7.03406
460 8.90055
465 8.27499
470 8.14935
475 8.2159
480 8.1124
485 8.34834
490 8.79739
495 8.51969
500 8.57683
505 8.37253
510 7.94434
515 7.37651
520 7.11455
525 6.08363
530 5.98627
535 5.61909
540 5.17263
545 4.66099
550 4.22921
555 3.84515
560 3.30834
565 2.95911
570 2.58168
575 2.21352
580 1.74036
585 1.43695
590 1.18534
595 1.0912
600 1.39275
Ex : 413
200 0.199605
205 0.189883
210 0.172812
215 0.203582
220 0.229059
225 0.246558
230 0.245185
235 0.253878
240 0.228385
245 0.293936
250 0.248036
255 0.214973
260 0.224441
265 0.205064
270 0.165505
275 0.241709
280 0.183761
285 0.244266
290 0.252301
295 0.19965
300 0.19639
305 0.199632
310 0.229597
315 0.234981
320 0.259683
325 0.21522
330 0.270502
335 0.20948
340 0.238499
345 0.217137
350 0.277105
355 0.301428
360 0.305871
365 0.301651
370 0.215137
375 0.25127
380 0.277098
385 0.318545
390 0.509357
395 0.52975
400 7.42842
405 119.877
410 188.102
415 49.5012
420 7.56998
425 2.94683
430 2.64404
435 3.12655
440 3.41827
445 3.68968
450 3.90593
455 4.34001
460 6.4405
465 9.188
470 8.51511
475 8.62092
480 8.79811
485 8.31688
490 8.4298
495 8.3191
500 8.34915
505 8.13166
510 7.8201
515 7.41564
520 7.04274
525 6.51957
530 6.21277
535 5.56233
540 5.22513
545 4.52462
550 4.40866
555 3.98738
560 3.40783
565 2.94338
570 2.50556
575 2.22352
580 1.74815
585 1.44703
590 1.1912
595 0.999817
600 1.38146
Ex : 418
200 0.220421
205 0.212943
210 0.236015
215 0.297214
220 0.224327
225 0.219413
230 0.255757
235 0.248846
240 0.297031
245 0.291032
250 0.208014
255 0.190551
260 0.246738
265 0.19428
270 0.197321
275 0.185332
280 0.201608
285 0.206707
290 0.211585
295 0.206063
300 0.193196
305 0.21458
310 0.192824
315 0.205799
320 0.282003
325 0.186521
330 0.187261
335 0.224881
340 0.240902
345 0.226357
350 0.224262
355 0.203562
360 0.224597
365 0.235304
370 0.218781
375 0.288807
380 0.357185
385 0.311673
390 0.346575
395 0.376659
400 0.484461
405 6.99895
410 118.173
415 192.373
420 52.1773
425 7.69593
430 2.99033
435 2.36924
440 2.67817
445 3.2633
450 3.50991
455 3.93304
460 4.53789
465 6.11624
470 8.62087
475 9.59851
480 8.92932
485 8.68942
490 8.52823
495 8.03261
500 8.05805
505 7.86397
510 7.71319
515 7.15225
520 6.69568
525 6.18667
530 5.89383
535 5.45205
540 4.98518
545 4.48696
550 4.18723
555 3.84834
560 3.51403
565 2.96353
570 2.52221
575 2.08666
580 1.49706
585 1.43493
590 1.12331
595 1.043
600 1.07801
Ex : 423
200 0.192203
205 0.195529
210 0.239511
215 0.260952
220 0.17684
225 0.289931
230 0.2097
235 0.20825
240 0.236415
245 0.235422
250 0.24874
255 0.248705
260 0.231636
265 0.211322
270 0.212051
275 0.235928
280 0.194352
285 0.277014
290 0.255104
295 0.226141
300 0.234409
305 0.224861
310 0.215369
315 0.266961
320 0.190257
325 0.267749
330 0.189159
335 0.274137
340 0.308782
345 0.278594
350 0.296982
355 0.360505
360 0.260379
365 0.217501
370 0.289185
375 0.26605
380 0.295392
385 0.286556
390 0.334243
395 0.333599
400 0.430252
405 0.508777
410 7.03772
415 124.427
420 191.813
425 49.5261
430 7.32005
435 2.57246
440 2.1828
445 2.87975
450 3.37026
455 3.65066
460 4.08544
465 4.75397
470 5.96031
475 8.30211
480 9.39714
485 8.79805
490 8.65894
495 8.19793
500 7.87009
505 7.59437
510 7.2816
515 6.83698
520 6.47783
525 5.89567
530 5.72115
535 5.32526
540 4.74284
545 4.48068
550 4.0802
555 3.57583
560 3.36997
565 2.88555
570 2.55353
575 2.0512
580 1.6162
585 1.31318
590 1.09076
595 0.958503
600 0.408388
Ex : 428
200 0.245916
205 0.210392
210 0.23976
215 0.229374
220 0.319857
225 0.238146
230 0.239812
235 0.242196
240 0.232349
245 0.176343
250 0.251322
255 0.212218
260 0.243951
265 0.232516
270 0.222311
275 0.214569
280 0.247006
285 0.247163
290 0.217631
295 0.223006
300 0.248322
305 0.260894
310 0.309216
315 0.208261
320 0.260344
325 0.211424
330 0.229101
335 0.224889
340 0.218738
345 0.238177
350 0.279106
355 0.276893
360 0.284098
365 0.214939
370 0.297165
375 0.283356
380 0.281621
385 0.23459
390 0.280425
395 0.319221
400 0.352146
405 0.441255
410 0.555652
415 7.59816
420 125.442
425 196.007
430 51.8672
435 7.62217
440 2.6541
445 2.35084
450 3.05106
455 3.58771
460 4.08544
465 4.45585
470 5.24572
475 5.90939
480 7.42163
485 9.3875
490 8.75958
495 8.14041
500 8.05948
505 7.22343
510 7.01279
515 6.45664
520 6.25404
525 5.77213
530 5.26325
535 5.10829
540 4.69573
545 4.47175
550 3.91421
555 3.62574
560 3.35088
565 2.78917
570 2.41801
575 1.93488
580 1.72056
585 1.38092
590 1.10445
595 0.880803
600 0.241424
Ex : 433
200 0.180082
205 0.215446
210 0.30211
215 0.248955
220 0.269715
225 0.19948
230 0.284654
235 0.222662
240 0.22392
245 0.219318
250 0.309904
255 0.277843
260 0.240008
265 0.1946
270 0.211291
275 0.239919
280 0.263386
285 0.218181
290 0.228378
295 0.211757
300 0.262503
305 0.253412
310 0.235952
315 0.218022
320 0.226332
325 0.199652
330 0.283874
335 0.269329
340 0.293025
345 0.251377
350 0.318368
355 0.311699
360 0.249755
365 0.255788
370 0.2643
375 0.250742
380 0.239493
385 0.294725
390 0.242936
395 0.313954
400 0.344141
405 0.340916
410 0.44485
415 0.510843
420 8.92443
425 137.334
430 205.738
435 53.97
440 7.96154
445 2.85553
450 2.48881
455 3.20974
460 3.79939
465 4.19351
470 4.74431
475 5.21251
480 5.54864
485 6.98854
490 8.91254
495 8.46043
500 7.81973
505 7.19583
510 6.77982
515 5.98757
520 5.84649
525 5.55079
530 4.98569
535 4.80287
540 4.31738
545 4.07839
550 3.78487
555 3.35188
560 2.99916
565 2.65436
570 2.18751
575 1.88227
580 1.54731
585 1.30107
590 1.01131
595 0.965314
600 1.13622
Ex : 438
200 0.33336
205 0.192515
210 0.246486
215 0.287925
220 0.228683
225 0.20495
230 0.262167
235 0.286176
240 0.256673
245 0.21881
250 0.228386
255 0.23671
260 0.215822
265 0.244225
270 0.238909
275 0.231292
280 0.198685
285 0.219297
290 0.182726
295 0.270769
300 0.240618
305 0.256962
310 0.224418
315 0.228045
320 0.264288
325 0.265286
330 0.196593
335 0.233342
340 0.314741
345 0.302595
350 0.227241
355 0.227272
360 0.24594
365 0.2353
370 0.2423
375 0.250658
380 0.280381
385 0.258913
390 0.289076
395 0.329881
400 0.322161
405 0.338537
410 0.351387
415 0.390976
420 0.558934
425 8.66853
430 138.039
435 218.546
440 55.5504
445 8.16424
450 2.92498
455 2.75853
460 3.19907
465 3.98794
470 4.2801
475 4.37206
480 5.14139
485 5.3794
490 6.10847
495 7.7634
500 8.20116
505 7.10922
510 6.65657
515 6.17055
520 5.38385
525 4.93803
530 4.7589
535 4.43213
540 4.09012
545 3.84802
550 3.42598
555 3.1048
560 2.77184
565 2.57078
570 2.35066
575 1.86336
580 1.65554
585 1.27435
590 1.06541
595 0.823229
600 0.340853
Ex : 443
200 0.320779
205 0.299481
210 0.327324
215 0.250153
220 0.214655
225 0.248704
230 0.20538
235 0.207934
240 0.222927
245 0.301658
250 0.207087
255 0.284445
260 0.213155
265 0.30305
270 0.256073
275 0.216407
280 0.25159
285 0.271443
290 0.232087
295 0.340943
300 0.222381
305 0.229798
310 0.274136
315 0.247776
320 0.270871
325 0.248936
330 0.296595
335 0.254957
340 0.225146
345 0.208458
350 0.22239
355 0.202359
360 0.27728
365 0.323963
370 0.300934
375 0.288762
380 0.267567
385 0.276366
390 0.300359
395 0.313827
400 0.277852
405 0.297918
410 0.35265
415 0.413105
420 0.377271
425 0.618768
430 9.6151
435 146.181
440 219.436
445 55.3397
450 8.13676
455 3.03801
460 2.74418
465 3.30584
470 3.99529
475 4.23612
480 4.52812
485 4.67874
490 4.97591
495 5.2112
500 6.70495
505 7.88158
510 6.66775
515 5.93192
520 5.64044
525 4.78458
530 4.37925
535 4.01805
540 3.58999
545 3.37024
550 3.38241
555 2.85648
560 2.53276
565 2.30634
570 2.07301
575 1.73326
580 1.51952
585 1.14135
590 0.977637
595 0.806379
600 0.99309
Ex : 448
200 0.229427
205 0.19728
210 0.259649
215 0.239176
220 0.207046
225 0.235567
230 0.23262
235 0.25414
240 0.252214
245 0.30539
250 0.228165
255 0.294046
260 0.246266
265 0.181721
270 0.250804
275 0.266478
280 0.240301
285 0.262913
290 0.240813
295 0.26068
300 0.248102
305 0.27395
310 0.254611
315 0.283684
320 0.228424
325 0.205003
330 0.236178
335 0.236547
340 0.208579
345 0.280445
350 0.224333
355 0.228922
360 0.218056
365 0.250837
370 0.23986
375 0.283209
380 0.312464
385 0.279474
390 0.281823
395 0.288193
400 0.292983
405 0.296108
410 0.234565
415 0.356258
420 0.372604
425 0.489076
430 0.565998
435 10.1561
440 154.152
445 232
450 58.0699
455 8.72425
460 3.24543
465 2.79505
470 3.45017
475 3.91275
480 4.2097
485 4.07321
490 4.22694
495 4.62699
500 4.63932
505 5.5615
510 6.47844
515 5.8854
520 5.11433
525 4.66219
530 4.39192
535 3.72263
540 3.4217
545 3.10933
550 2.70988
555 2.81363
560 2.39163
565 2.20625
570 1.82822
575 1.56268
580 1.23482
585 1.11067
590 0.900139
595 0.83123
600 1.04129
Ex : 453
200 0.206881
205 0.294222
210 0.198488
215 0.25747
220 0.233633
225 0.221287
230 0.227124
235 0.302001
240 0.230888
245 0.242751
250 0.197575
255 0.231793
260 0.224485
265 0.282194
270 0.274531
275 0.266894
280 0.269943
285 0.233891
290 0.266421
295 0.25311
300 0.231906
305 0.195904
310 0.214997
315 0.2306
320 0.208596
325 0.172457
330 0.223168
335 0.273241
340 0.250794
345 0.22571
350 0.183353
355 0.23826
360 0.273239
365 0.260568
370 0.290119
375 0.282741
380 0.274424
385 0.259418
390 0.251788
395 0.194464
400 0.282384
405 0.369683
410 0.309673
415 0.337425
420 0.337976
425 0.307898
430 0.422466
435 0.565494
440 10.266
445 168.349
450 239.514
455 57.0785
460 8.52604
465 3.18141
470 2.62873
475 3.19464
480 3.67297
485 3.78434
490 3.76651
495 3.68417
500 3.73004
505 3.9983
510 4.22491
515 5.5606
520 5.58697
525 4.50386
530 4.03818
535 3.81526
540 3.27391
545 3.03888
550 2.71312
555 2.4596
560 2.35127
565 2.01095
570 1.72421
575 1.41871
580 1.2129
585 1.07269
590 0.831182
595 0.709959
600 0.582308
Ex : 458
200 0.226484
205 0.226401
210 0.23496
215 0.21223
220 0.315039
225 0.270135
230 0.25247
235 0.200155
240 0.238162
245 0.281523
250 0.254401
255 0.211572
260 0.240078
265 0.254714
270 0.24713
275 0.290741
280 0.287238
285 0.266208
290 0.281123
295 0.239566
300 0.22852
305 0.258522
310 0.244009
315 0.2779
320 0.302937
325 0.26592
330 0.244718
335 0.229734
340 0.241915
345 0.243362
350 0.285247
355 0.253121
360 0.301712
365 0.316069
370 0.262964
375 0.235606
380 0.251906
385 0.254957
390 0.291124
395 0.260432
400 0.282552
405 0.3208
410 0.33438
415 0.29969
420 0.327502
425 0.367314
430 0.449192
435 0.490393
440 0.639462
445 11.5085
450 174.197
455 251.557
460 61.8102
465 9.08344
470 3.29865
475 2.62777
480 2.83844
485 3.34601
490 3.43588
495 3.2238
500 3.08207
505 3.36187
510 3.26395
515 3.50497
520 4.52994
525 5.26584
530 3.99896
535 3.5624
540 3.30477
545 2.86116
550 2.6024
555 2.34049
560 2.22619
565 1.86657
570 1.63688
575 1.39457
580 1.14874
585 0.948035
590 0.861067
595 0.649012
600 0.449015
Ex : 463
200 0.242583
205 0.214984
210 0.204377
215 0.186332
220 0.188148
225 0.215372
230 0.273488
235 0.235096
240 0.227523
245 0.218648
250 0.212299
255 0.261474
260 0.206261
265 0.230215
270 0.256132
275 0.181071
280 0.211643
285 0.234688
290 0.263711
295 0.297641
300 0.277058
305 0.246624
310 0.277232
315 0.229353
320 0.218243
325 0.220668
330 0.239264
335 0.245697
340 0.245299
345 0.250281
350 0.258203
355 0.200886
360 0.266809
365 0.179186
370 0.238756
375 0.257321
380 0.27921
385 0.247744
390 0.224465
395 0.26917
400 0.33672
405 0.331077
410 0.28342
415 0.340514
420 0.307354
425 0.309604
430 0.319231
435 0.384236
440 0.517369
445 0.628956
450 11.0592
455 176.394
460 268.252
465 65.8338
470 9.36096
475 3.04733
480 2.52192
485 2.51289
490 2.86344
495 3.1568
500 3.03322
505 2.82536
510 2.75526
515 2.84147
520 2.94722
525 3.58428
530 4.6546
535 4.15354
540 3.26402
545 3.16308
550 2.71413
555 2.22433
560 1.81106
565 1.76335
570 1.59734
575 1.33587
580 1.19862
585 0.867376
590 0.84049
595 0.691766
600 0.508061
Ex : 468
200 0.192622
205 0.19782
210 0.229742
215 0.23068
220 0.193106
225 0.211798
230 0.191677
235 0.222112
240 0.187579
245 0.162176
250 0.180011
255 0.239797
260 0.197774
265 0.212364
270 0.22275
275 0.190764
280 0.25458
285 0.218322
290 0.230888
295 0.239822
300 0.229778
305 0.213345
310 0.191793
315 0.190483
320 0.256207
325 0.192568
330 0.249492
335 0.213007
340 0.261852
345 0.225236
350 0.205187
355 0.241992
360 0.170037
365 0.225791
370 0.307892
375 0.233966
380 0.1832
385 0.230722
390 0.265153
395 0.242246
400 0.26177
405 0.238089
410 0.260478
415 0.292234
420 0.262326
425 0.241547
430 0.249732
435 0.328193
440 0.349482
445 0.481073
450 0.569816
455 12.1249
460 178.353
465 273.131
470 67.2705
475 9.18948
480 2.90138
485 2.21778
490 2.44605
495 2.69921
500 2.66005
505 2.51911
510 2.49049
515 2.53737
520 2.5978
525 2.55524
530 2.81476
535 3.80669
540 3.84387
545 2.72321
550 2.49724
555 2.43157
560 2.15949
565 1.78081
570 1.50685
575 1.27403
580 1.07989
585 0.93633
590 0.731976
595 0.740794
600 0.423433
Ex : 473
200 0.258369
205 0.283944
210 0.226248
215 0.24211
220 0.191328
225 0.219885
230 0.247215
235 0.179046
240 0.212512
245 0.199227
250 0.203905
255 0.218077
260 0.226697
265 0.220908
270 0.211476
275 0.228946
280 0.213535
285 0.277519
290 0.199965
295 0.237091
300 0.250271
305 0.227468
310 0.186088
315 0.206668
320 0.216407
325 0.257152
330 0.27089
335 0.296206
340 0.24539
345 0.265551
350 0.259032
355 0.213876
360 0.243175
365 0.25843
370 0.261854
375 0.252034
380 0.249406
385 0.253032
390 0.224594
395 0.262882
400 0.263907
405 0.271291
410 0.230593
415 0.315948
420 0.312296
425 0.297322
430 0.347145
435 0.328902
440 0.302308
445 0.347436
450 0.470099
455 0.669738
460 13.2852
465 193.048
470 265.685
475 61.8771
480 8.65043
485 2.67193
490 1.86578
495 2.0129
500 2.17077
505 2.38819
510 2.28865
515 2.18224
520 2.40255
525 2.43091
530 2.40245
535 2.65858
540 3.3253
545 3.71647
550 2.88151
555 2.35223
560 2.23843
565 1.9562
570 1.55764
575 1.29807
580 0.982119
585 0.921255
590 0.785578
595 0.647525
600 1.86461
Ex : 478
200 0.284836
205 0.288976
210 0.246667
215 0.237786
220 0.246671
225 0.31259
230 0.217357
235 0.252245
240 0.259734
245 0.228358
250 0.277959
255 0.282588
260 0.272431
265 0.224096
270 0.282861
275 0.262869
280 0.280119
285 0.253948
290 0.240808
295 0.36341
300 0.209658
305 0.271552
310 0.237191
315 0.268317
320 0.299087
325 0.300151
330 0.244456
335 0.26785
340 0.308149
345 0.242058
350 0.261375
355 0.320325
360 0.329209
365 0.320769
370 0.305387
375 0.307853
380 0.289238
385 0.334311
390 0.301677
395 0.328747
400 0.247594
405 0.289432
410 0.237978
415 0.289433
420 0.326368
425 0.297847
430 0.329009
435 0.26948
440 0.30731
445 0.353836
450 0.377394
455 0.510611
460 0.610262
465 14.3155
470 196.492
475 270.236
480 65.3374
485 9.10825
490 2.7794
495 1.99086
500 1.89442
505 2.03
510 2.20622
515 2.23311
520 2.27939
525 2.2311
530 2.13664
535 2.17732
540 2.27052
545 2.59117
550 3.19238
555 3.00658
560 2.27238
565 1.9706
570 1.7371
575 1.38438
580 1.25053
585 0.968597
590 0.812091
595 0.701403
600 0.853231
Ex : 483
200 0.215218
205 0.313629
210 0.2395
215 0.30206
220 0.254727
225 0.28341
230 0.238671
235 0.256093
240 0.263534
245 0.250984
250 0.327425
255 0.281259
260 0.262525
265 0.214507
270 0.296881
275 0.265178
280 0.272078
285 0.299732
290 0.298463
295 0.332355
300 0.213065
305 0.282469
310 0.283515
315 0.290171
320 0.236363
325 0.321453
330 0.237485
335 0.29338
340 0.308767
345 0.281411
350 0.241628
355 0.2781
360 0.266622
365 0.27335
370 0.291492
375 0.293905
380 0.315888
385 0.324814
390 0.305897
395 0.243279
400 0.268119
405 0.322852
410 0.343212
415 0.244689
420 0.264401
425 0.303833
430 0.392046
435 0.381573
440 0.307363
445 0.327044
450 0.370432
455 0.418049
460 0.555021
465 0.807841
470 11.1107
475 189.61
480 279.835
485 67.6006
490 9.22603
495 2.56215
500 1.68683
505 1.6686
510 2.09038
515 2.30086
520 2.18645
525 2.23333
530 2.1033
535 2.21868
540 2.12083
545 1.9658
550 2.15026
555 2.97545
560 2.96003
565 2.08629
570 1.7379
575 1.58087
580 1.27304
585 0.919276
590 0.868162
595 0.711515
600 0.516129
Ex : 488
200 0.270888
205 0.347658
210 0.354428
215 0.333859
220 0.378675
225 0.327635
230 0.26778
235 0.302078
240 0.261144
245 0.40991
250 0.314636
255 0.228398
260 0.321877
265 0.274407
270 0.293032
275 0.264232
280 0.376788
285 0.278036
290 0.280882
295 0.222645
300 0.287103
305 0.373244
310 0.241578
315 0.351339
320 0.278241
325 0.360446
330 0.27054
335 0.287187
340 0.26105
345 0.263253
350 0.26556
355 0.325934
360 0.301149
365 0.294022
370 0.308393
375 0.305127
380 0.411515
385 0.290255
390 0.351317
395 0.283487
400 0.234769
405 0.315096
410 0.35826
415 0.236024
420 0.427074
425 0.318647
430 0.324079
435 0.41532
440 0.388965
445 0.339153
450 0.374107
455 0.503764
460 0.480524
465 0.602151
470 0.83701
475 13.9653
480 206.32
485 279.524
490 66.2745
495 8.91798
500 2.48122
505 1.6207
510 1.60754
515 1.89311
520 2.299
525 2.19948
530 2.0986
535 2.00271
540 1.90673
545 1.71355
550 1.85734
555 1.91424
560 2.57185
565 2.83107
570 2.13196
575 1.52285
580 1.29351
585 1.12652
590 0.897477
595 0.769356
600 1.23378
Ex : 493
200 0.311524
205 0.354858
210 0.300031
215 0.30375
220 0.338184
225 0.320635
230 0.340839
235 0.309161
240 0.329876
245 0.318084
250 0.29496
255 0.301701
260 0.336326
265 0.315026
270 0.33043
275 0.355571
280 0.324628
285 0.351352
290 0.309737
295 0.309326
300 0.297033
305 0.298511
310 0.300415
315 0.360575
320 0.271839
325 0.290552
330 0.318047
335 0.29215
340 0.285512
345 0.280866
350 0.288291
355 0.328094
360 0.373476
365 0.323582
370 0.321982
375 0.321965
380 0.247554
385 0.298003
390 0.19507
395 0.301188
400 0.279257
405 0.290884
410 0.324098
415 0.379862
420 0.30485
425 0.305381
430 0.278549
435 0.320221
440 0.318568
445 0.366777
450 0.388321
455 0.431103
460 0.446692
465 0.440564
470 0.595504
475 0.759398
480 12.647
485 200.145
490 290.405
495 67.3275
500 8.85409
505 2.46959
510 1.85052
515 1.6318
520 1.84697
525 2.16393
530 2.12059
535 2.03356
540 1.75817
545 1.76875
550 1.75245
555 1.67021
560 1.72245
565 1.68322
570 2.50969
575 1.90446
580 1.23909
585 1.10119
590 1.00991
595 0.831469
600 0.746864
Ex : 498
200 0.34737
205 0.270459
210 0.284897
215 0.388357
220 0.356488
225 0.29708
230 0.371412
235 0.369652
240 0.318169
245 0.393865
250 0.31744
255 0.297879
260 0.329173
265 0.273254
270 0.273287
275 0.294448
280 0.287031
285 0.354988
290 0.354175
295 0.289987
300 0.342349
305 0.361915
310 0.275433
315 0.34101
320 0.25749
325 0.288566
330 0.324161
335 0.389689
340 0.300523
345 0.312393
350 0.294738
355 0.419807
360 0.335657
365 0.292444
370 0.354152
375 0.331128
380 0.318067
385 0.303451
390 0.350161
395 0.384993
400 0.376846
405 0.339548
410 0.427672
415 0.368397
420 0.316228
425 0.361391
430 0.404828
435 0.402055
440 0.328781
445 0.423202
450 0.395669
455 0.359339
460 0.41119
465 0.571793
470 0.482828
475 0.627788
480 0.786078
485 15.0624
490 214.705
495 284.891
500 65.9633
505 9.15971
510 2.56913
515 1.84832
520 1.61229
525 1.91105
530 2.05518
535 2.03567
540 1.94402
545 1.80988
550 1.6588
555 1.6753
560 1.49017
565 1.49002
570 1.51915
575 1.88006
580 1.83129
585 1.34854
590 1.08004
595 0.923661
600 0.726243
Ex : 503
200 0.382469
205 0.372464
210 0.328154
215 0.354051
220 0.283634
225 0.251899
230 0.284039
235 0.395624
240 0.320575
245 0.295194
250 0.286507
255 0.234027
260 0.391037
265 0.289363
270 0.263154
275 0.361245
280 0.385408
285 0.3622
290 0.3455
295 0.357707
300 0.318251
305 0.290974
310 0.451577
315 0.428377
320 0.416965
325 0.33823
330 0.330894
335 0.363237
340 0.366097
345 0.363898
350 0.379799
355 0.305121
360 0.310905
365 0.342431
370 0.352541
375 0.408361
380 0.381931
385 0.409757
390 0.344158
395 0.365855
400 0.328815
405 0.361042
410 0.377362
415 0.420505
420 0.353519
425 0.410566
430 0.39284
435 0.423125
440 0.382333
445 0.417311
450 0.456859
455 0.433557
460 0.482048
465 0.507206
470 0.453699
475 0.542607
480 0.722026
485 0.793094
490 14.2377
495 209.827
500 297.218
505 69.7381
510 9.34749
515 2.71168
520 2.08889
525 1.82919
530 1.89415
535 1.93524
540 2.16361
545 1.68455
550 1.60195
555 1.57392
560 1.41989
565 1.44389
570 1.25741
575 1.31263
580 1.4913
585 1.63797
590 1.33276
595 0.954576
600 2.21388
Ex : 508
200 0.36085
205 0.340646
210 0.300805
215 0.276999
220 0.282597
225 0.397535
230 0.334938
235 0.334103
240 0.389222
245 0.337053
250 0.466916
255 0.331064
260 0.3817
265 0.354743
270 0.335249
275 0.262868
280 0.382885
285 0.382648
290 0.395182
295 0.470539
300 0.331578
305 0.395086
310 0.371208
315 0.37289
320 0.303063
325 0.357731
330 0.337193
335 0.335721
340 0.413675
345 0.354102
350 0.343962
355 0.320072
360 0.471525
365 0.391964
370 0.351643
375 0.346981
380 0.371993
385 0.389319
390 0.351897
395 0.372943
400 0.385177
405 0.410189
410 0.381724
415 0.294818
420 0.321116
425 0.345175
430 0.384233
435 0.350702
440 0.440436
445 0.446719
450 0.374485
455 0.403777
460 0.37193
465 0.446268
470 0.459705
475 0.575969
480 0.534024
485 0.640982
490 0.847102
495 15.2605
500 208.702
505 285.496
510 69.8118
515 9.49962
520 2.64087
525 1.82483
530 1.67893
535 1.82199
540 2.01274
545 1.7836
550 1.84842
555 1.57608
560 1.34231
565 1.40943
570 1.33894
575 1.18212
580 0.991986
585 1.11223
590 1.26125
595 1.16485
600 0.145588
Ex : 513
200 0.356092
205 0.350924
210 0.333154
215 0.443629
220 0.334622
225 0.352552
230 0.407858
235 0.322135
240 0.371743
245 0.388495
250 0.348546
255 0.360032
260 0.376594
265 0.460741
270 0.365485
275 0.359131
280 0.367279
285 0.353433
290 0.364648
295 0.315212
300 0.343999
305 0.314587
310 0.357354
315 0.366708
320 0.423907
325 0.395705
330 0.28252
335 0.421578
340 0.366024
345 0.328236
350 0.295087
355 0.458522
360 0.388173
365 0.382243
370 0.330695
375 0.390958
380 0.381851
385 0.282018
390 0.455087
395 0.376145
400 0.433851
405 0.5958
410 0.398494
415 0.419424
420 0.318769
425 0.334879
430 0.383873
435 0.510581
440 0.444418
445 0.395244
450 0.41145
455 0.530768
460 0.427438
465 0.577722
470 0.376828
475 0.466839
480 0.549279
485 0.489633
490 0.575328
495 0.751581
500 13.6114
505 205.427
510 289.399
515 71.8624
520 9.65053
525 2.55098
530 1.73336
535 1.45403
540 1.62237
545 1.71871
550 1.54405
555 1.54065
560 1.40194
565 1.24641
570 1.33228
575 0.947808
580 0.959226
585 1.00425
590 0.96151
595 1.14756
600 1.09675
Ex : 518
200 0.319314
205 0.310986
210 0.326492
215 0.362774
220 0.370829
225 0.336678
230 0.421449
235 0.438361
240 0.345542
245 0.43787
250 0.308401
255 0.370394
260 0.398771
265 0.35918
270 0.389524
275 0.362923
280 0.348011
285 0.379986
290 0.354356
295 0.374081
300 0.398682
305 0.371141
310 0.311292
315 0.333273
320 0.404866
325 0.364711
330 0.443866
335 0.300875
340 0.354214
345 0.427974
350 0.417751
355 0.398063
360 0.34477
365 0.37233
370 0.36008
375 0.39061
380 0.358424
385 0.414378
390 0.375223
395 0.366801
400 0.49435
405 0.381811
410 0.410362
415 0.366795
420 0.386185
425 0.38766
430 0.376385
435 0.415553
440 0.395809
445 0.470327
450 0.442049
455 0.526954
460 0.399769
465 0.458441
470 0.431672
475 0.531884
480 0.561847
485 0.532289
490 0.496727
495 0.688201
500 0.976449
505 14.3474
510 202.95
515 290.674
520 72.1073
525 9.81511
530 2.54839
535 1.67826
540 1.551
545 1.44374
550 1.36179
555 1.52415
560 1.31173
565 1.33494
570 1.09946
575 1.11703
580 0.897941
585 0.927766
590 0.921593
595 0.754441
600 0.236599
Ex : 523
200 0.471294
205 0.374919
210 0.325304
215 0.380241
220 0.382437
225 0.467001
230 0.351548
235 0.337993
240 0.355013
245 0.35251
250 0.529031
255 0.498154
260 0.431379
265 0.560641
270 0.419394
275 0.426892
280 0.410873
285 0.496127
290 0.324538
295 0.344849
300 0.363908
305 0.392229
310 0.444914
315 0.35475
320 0.347158
325 0.339056
330 0.347021
335 0.421179
340 0.405641
345 0.380793
350 0.400205
355 0.585282
360 0.436621
365 0.410118
370 0.373023
375 0.411881
380 0.327515
385 0.359226
390 0.3016
395 0.304428
400 0.422683
405 0.411366
410 0.40168
415 0.411857
420 0.378387
425 0.449051
430 0.461188
435 0.342197
440 0.429404
445 0.350796
450 0.454716
455 0.442198
460 0.444658
465 0.450965
470 0.507005
475 0.580671
480 0.491533
485 0.451966
490 0.59037
495 0.598859
500 0.663166
505 0.953608
510 13.1361
515 194.765
520 291.441
525 76.8742
530 10.0009
535 2.49222
540 1.64519
545 1.42216
550 1.23511
555 1.36124
560 1.5264
565 1.28525
570 1.23438
575 0.997382
580 0.887493
585 0.812185
590 0.838461
595 0.690316
600 0.450949
Ex : 528
200 0.508279
205 0.42333
210 0.461137
215 0.411277
220 0.372318
225 0.287194
230 0.439975
235 0.328481
240 0.390147
245 0.373272
250 0.397569
255 0.3145
260 0.373759
265 0.380251
270 0.3725
275 0.309166
280 0.509449
285 0.444186
290 0.416411
295 0.382104
300 0.388214
305 0.431121
310 0.362195
315 0.456794
320 0.464262
325 0.374959
330 0.379932
335 0.435852
340 0.473991
345 0.41556
350 0.344885
355 0.441083
360 0.453313
365 0.431655
370 0.33831
375 0.335148
380 0.371379
385 0.439863
390 0.396947
395 0.456248
400 0.375905
405 0.36057
410 0.387063
415 0.398341
420 0.388108
425 0.475081
430 0.438278
435 0.362895
440 0.386622
445 0.438086
450 0.466233
455 0.417226
460 0.482475
465 0.490615
470 0.496692
475 0.34144
480 0.463418
485 0.503695
490 0.51213
495 0.541128
500 0.589815
505 0.721721
510 0.848795
515 12.3389
520 191.507
525 285.601
530 73.3229
535 9.79909
540 2.26242
545 1.58294
550 1.36667
555 1.28786
560 1.17524
565 1.29619
570 1.21349
575 1.1194
580 0.965831
585 0.810439
590 0.862974
595 0.756012
600 0.534057
Ex : 533
200 0.38966
205 0.587917
210 0.344357
215 0.384668
220 0.423403
225 0.47374
230 0.350001
235 0.493066
240 0.412649
245 0.431147
250 0.35874
255 0.411705
260 0.315415
265 0.294934
270 0.425208
275 0.426063
280 0.383427
285 0.558551
290 0.421199
295 0.40035
300 0.409908
305 0.454275
310 0.389521
315 0.375451
320 0.384617
325 0.431838
330 0.333253
335 0.374103
340 0.38763
345 0.381409
350 0.409504
355 0.416153
360 0.404511
365 0.351762
370 0.505777
375 0.444183
380 0.477093
385 0.402239
390 0.41448
395 0.429322
400 0.36926
405 0.466326
410 0.467204
415 0.381084
420 0.471857
425 0.395394
430 0.410065
435 0.463844
440 0.273177
445 0.406
450 0.43616
455 0.485147
460 0.425095
465 0.40711
470 0.365293
475 0.55556
480 0.58318
485 0.532838
490 0.392916
495 0.495752
500 0.570816
505 0.570626
510 0.739117
515 0.847818
520 12.2457
525 182.898
530 277.199
535 70.7462
540 9.34145
545 2.24736
550 1.4042
555 1.14073
560 1.0878
565 1.1975
570 1.12381
575 1.04635
580 0.91092
585 0.876961
590 0.84061
595 0.841458
600 0.250966
Ex : 538
200 0.408226
205 0.429256
210 0.391128
215 0.432334
220 0.472288
225 0.432846
230 0.44318
235 0.395948
240 0.462384
245 0.424219
250 0.436842
255 0.332068
260 0.374724
265 0.423179
270 0.405238
275 0.40581
280 0.409048
285 0.437513
290 0.32757
295 0.407259
300 0.530766
305 0.525229
310 0.414976
315 0.415787
320 0.386576
325 0.522309
330 0.467219
335 0.516425
340 0.484556
345 0.528849
350 0.422816
355 0.427414
360 0.391126
365 0.518484
370 0.468163
375 0.454922
380 0.45235
385 0.515774
390 0.436397
395 0.406245
400 0.475423
405 0.481893
410 0.434836
415 0.421681
420 0.447072
425 0.458762
430 0.397897
435 0.528674
440 0.421792
445 0.451091
450 0.475044
455 0.562259
460 0.440714
465 0.449999
470 0.607083
475 0.642694
480 0.459159
485 0.530056
490 0.502477
495 0.5166
500 0.51395
505 0.580789
510 0.704939
515 0.786125
520 0.798346
525 10.2616
530 167.73
535 271.91
540 73.4173
545 9.7553
550 2.08779
555 1.20743
560 1.26886
565 1.05206
570 1.11206
575 0.897683
580 1.07338
585 1.00434
590 0.817042
595 0.742784
600 1.08151
Ex : 543
200 0.454257
205 0.340981
210 0.39792
215 0.422513
220 0.454075
225 0.389433
230 0.421083
235 0.380745
240 0.408144
245 0.512923
250 0.50444
255 0.359451
260 0.406288
265 0.437809
270 0.611613
275 0.422223
280 0.356141
285 0.436351
290 0.483596
295 0.471969
300 0.318262
305 0.493136
310 0.403853
315 0.388492
320 0.38479
325 0.456377
330 0.488918
335 0.443077
340 0.430846
345 0.370651
350 0.359904
355 0.365546
360 0.443197
365 0.507385
370 0.397368
375 0.44742
380 0.454224
385 0.419476
390 0.463082
395 0.398941
400 0.445789
405 0.469874
410 0.518288
415 0.397727
420 0.383211
425 0.505668
430 0.476985
435 0.552535
440 0.485523
445 0.554633
450 0.52127
455 0.513397
460 0.393913
465 0.486059
470 0.612733
475 0.393341
480 0.491915
485 0.563517
490 0.426798
495 0.445312
500 0.48635
505 0.477816
510 0.558452
515 0.594293
520 0.762812
525 0.824815
530 9.65064
535 170.059
540 275.574
545 76.038
550 9.77109
555 2.16229
560 1.27768
565 1.17316
570 0.963825
575 0.938371
580 0.920641
585 0.777822
590 0.864776
595 0.81447
600 0.790905
Ex : 548
200 0.460254
205 0.385548
210 0.475451
215 0.420016
220 0.408205
225 0.410156
230 0.377007
235 0.56614
240 0.574795
245 0.415803
250 0.308286
255 0.502686
260 0.47644
265 0.379648
270 0.500735
275 0.51687
280 0.385747
285 0.401815
290 0.491558
295 0.434679
300 0.50269
305 0.41712
310 0.431045
315 0.324208
320 0.325033
325 0.365525
330 0.50961
335 0.511055
340 0.507557
345 0.494394
350 0.42317
355 0.447912
360 0.516716
365 0.537379
370 0.48071
375 0.503131
380 0.447508
385 0.442922
390 0.522107
395 0.473982
400 0.509079
405 0.479668
410 0.444754
415 0.51544
420 0.547842
425 0.428778
430 0.525426
435 0.455988
440 0.642382
445 0.459381
450 0.475098
455 0.513308
460 0.492857
465 0.457735
470 0.467476
475 0.454389
480 0.621789
485 0.381081
490 0.462459
495 0.481844
500 0.439373
505 0.581482
510 0.53239
515 0.492484
520 0.523674
525 0.600962
530 0.83388
535 10.6028
540 171.306
545 273.131
550 75.806
555 9.94042
560 2.09289
565 1.30367
570 1.00931
575 0.838472
580 0.761291
585 0.73498
590 0.772568
595 0.718563
600 0.676242
Ex : 553
200 0.471612
205 0.362897
210 0.532264
215 0.39903
220 0.525258
225 0.509816
230 0.426865
235 0.531002
240 0.439326
245 0.392696
250 0.460138
255 0.393083
260 0.412148
265 0.476999
270 0.434063
275 0.474936
280 0.460524
285 0.520937
290 0.431929
295 0.468624
300 0.456531
305 0.57527
310 0.378862
315 0.391425
320 0.417148
325 0.410393
330 0.417366
335 0.599142
340 0.36989
345 0.502978
350 0.473559
355 0.440835
360 0.58041
365 0.40863
370 0.442233
375 0.444724
380 0.491524
385 0.632137
390 0.428762
395 0.435222
400 0.42586
405 0.417166
410 0.437009
415 0.485416
420 0.49704
425 0.509698
430 0.473483
435 0.537786
440 0.585427
445 0.542652
450 0.510255
455 0.659359
460 0.679579
465 0.604158
470 0.561997
475 0.650841
480 0.490842
485 0.541132
490 0.48242
495 0.52441
500 0.46657
505 0.40774
510 0.469742
515 0.490212
520 0.595928
525 0.575621
530 0.684431
535 0.911879
540 9.10542
545 160.795
550 268.408
555 75.7573
560 9.74105
565 2.00443
570 1.23429
575 1.05026
580 0.937414
585 0.816675
590 0.772901
595 0.854033
600 0.543146
Ex : 558
200 0.555767
205 0.45536
210 0.413307
215 0.511255
220 0.54261
225 0.411449
230 0.529176
235 0.598336
240 0.55044
245 0.563628
250 0.490149
255 0.508716
260 0.409994
265 0.577612
270 0.503314
275 0.677124
280 0.472877
285 0.409679
290 0.498296
295 0.416414
300 0.658703
305 0.472431
310 0.449289
315 0.512021
320 0.51164
325 0.555785
330 0.490444
335 0.406361
340 0.637939
345 0.532628
350 0.49692
355 0.42875
360 0.441934
365 0.508155
370 0.402814
375 0.452646
380 0.588238
385 0.436404
390 0.604813
395 0.546633
400 0.652203
405 0.468686
410 0.49354
415 0.509086
420 0.582062
425 0.468592
430 0.440234
435 0.441597
440 0.612262
445 0.53
450 0.55186
455 0.441755
460 0.579395
465 0.518276
470 0.512227
475 0.557858
480 0.593645
485 0.556961
490 0.513985
495 0.627566
500 0.701019
505 0.646219
510 0.714407
515 0.397486
520 0.708543
525 0.648999
530 0.603374
535 0.710303
540 0.830943
545 8.57714
550 151.304
555 262.203
560 74.5211
565 9.68352
570 2.04536
575 1.14595
580 1.01223
585 0.778283
590 0.674249
595 0.776951
600 0.415536
Ex : 563
200 0.497795
205 0.514142
210 0.512952
215 0.473089
220 0.331866
225 0.476132
230 0.492277
235 0.492046
240 0.585939
245 0.493114
250 0.503377
255 0.440722
260 0.475117
265 0.425728
270 0.589188
275 0.578145
280 0.644506
285 0.487069
290 0.435062
295 0.424114
300 0.463767
305 0.503819
310 0.512818
315 0.374722
320 0.511843
325 0.578127
330 0.438
335 0.462967
340 0.464692
345 0.421266
350 0.442357
355 0.460958
360 0.42664
365 0.495435
370 0.699719
375 0.520171
380 0.591615
385 0.491695
390 0.52042
395 0.636685
400 0.477046
405 0.466759
410 0.621034
415 0.478307
420 0.563796
425 0.444857
430 0.631331
435 0.493119
440 0.462825
445 0.497009
450 0.493063
455 0.576596
460 0.577393
465 0.506027
470 0.357018
475 0.539099
480 0.4697
485 0.580695
490 0.462029
495 0.553126
500 0.573465
505 0.533928
510 0.586654
515 0.429867
520 0.591077
525 0.569982
530 0.589628
535 0.579978
540 0.738443
545 0.819079
550 8.72672
555 147.247
560 250.115
565 71.4963
570 9.16253
575 1.7157
580 0.853197
585 1.01695
590 0.843641
595 0.788591
600 0.801113
Ex : 568
200 0.441755
205 0.55308
210 0.53741
215 0.414283
220 0.435819
225 0.458334
230 0.492375
235 0.616635
240 0.544976
245 0.482516
250 0.432413
255 0.430679
260 0.603038
265 0.515187
270 0.488769
275 0.47131
280 0.431266
285 0.626931
290 0.53669
295 0.531619
300 0.519431
305 0.508568
310 0.453113
315 0.366818
320 0.488394
325 0.469642
330 0.593715
335 0.561682
340 0.452119
345 0.593303
350 0.468827
355 0.542109
360 0.771798
365 0.546618
370 0.557656
375 0.408479
380 0.457498
385 0.453689
390 0.688394
395 0.481511
400 0.512611
405 0.533555
410 0.509913
415 0.50038
420 0.521565
425 0.544162
430 0.535284
435 0.461134
440 0.622756
445 0.567177
450 0.388992
455 0.579794
460 0.509759
465 0.519884
470 0.497983
475 0.629144
480 0.424686
485 0.535521
490 0.571394
495 0.563833
500 0.585227
505 0.500797
510 0.568991
515 0.686609
520 0.537095
525 0.514024
530 0.559803
535 0.67376
540 0.681065
545 0.678377
550 0.813125
555 6.52569
560 135.069
565 248.218
570 75.2877
575 9.59795
580 1.88284
585 1.09852
590 0.924308
595 0.84103
600 0.323411
Ex : 573
200 0.484432
205 0.602925
210 0.542026
215 0.468404
220 0.563894
225 0.43215
230 0.485474
235 0.579228
240 0.523804
245 0.620491
250 0.545206
255 0.403594
260 0.548581
265 0.517232
270 0.600154
275 0.484896
280 0.48107
285 0.629107
290 0.63634
295 0.585064
300 0.571785
305 0.578482
310 0.463189
315 0.625088
320 0.428356
325 0.422779
330 0.623612
335 0.490461
340 0.525633
345 0.572408
350 0.448781
355 0.540475
360 0.569075
365 0.562821
370 0.603448
375 0.560488
380 0.517574
385 0.513552
390 0.453048
395 0.656405
400 0.561589
405 0.518498
410 0.590198
415 0.55639
420 0.468538
425 0.512779
430 0.599965
435 0.532837
440 0.55013
445 0.533757
450 0.372626
455 0.562661
460 0.59138
465 0.581573
470 0.515025
475 0.512897
480 0.471773
485 0.420428
490 0.655925
495 0.589884
500 0.44821
505 0.623672
510 0.627494
515 0.581086
520 0.683048
525 0.507741
530 0.67169
535 0.582949
540 0.683171
545 0.700119
550 0.836126
555 0.806599
560 5.64291
565 119.96
570 231.699
575 70.8213
580 9.25399
585 1.75349
590 1.04449
595 0.856355
600 0.42326
Ex : 578
200 0.561164
205 0.50034
210 0.645129
215 0.477964
220 0.453071
225 0.476404
230 0.574289
235 0.540813
240 0.554798
245 0.880727
250 0.395143
255 0.535035
260 0.583489
265 0.48671
270 0.592977
275 0.481552
280 0.489801
285 0.6775
290 0.540645
295 0.470046
300 0.415925
305 0.480329
310 0.480178
315 0.473172
320 0.511878
325 0.385683
330 0.48958
335 0.629723
340 0.462313
345 0.544891
350 0.513809
355 0.585949
360 0.561449
365 0.444514
370 0.428924
375 0.583521
380 0.620019
385 0.523068
390 0.510575
395 0.616601
400 0.551771
405 0.531453
410 0.494605
415 0.6425
420 0.478227
425 0.64288
430 0.484164
435 0.527609
440 0.441146
445 0.645395
450 0.645947
455 0.68638
460 0.592192
465 0.537416
470 0.530812
475 0.651473
480 0.595666
485 0.521221
490 0.449121
495 0.467975
500 0.509798
505 0.498227
510 0.42905
515 0.562218
520 0.543224
525 0.504838
530 0.699405
535 0.637239
540 0.679398
545 0.627227
550 0.580438
555 0.832451
560 0.896609
565 5.21207
570 105.59
575 205.99
580 62.7695
585 8.18207
590 1.72037
595 0.756608
600 1.19554
Ex : 583
200 0.662199
205 0.555679
210 0.535111
215 0.564148
220 0.459771
225 0.698974
230 0.669292
235 0.637546
240 0.518367
245 0.526262
250 0.650029
255 0.599306
260 0.57761
265 0.603564
270 0.558202
275 0.538297
280 0.488063
285 0.588912
290 0.487348
295 0.585106
300 0.643569
305 0.607157
310 0.439222
315 0.574701
320 0.558918
325 0.59493
330 0.441584
335 0.584776
340 0.626529
345 0.587142
350 0.520965
355 0.574668
360 0.685359
365 0.54028
370 0.632576
375 0.718047
380 0.522502
385 0.49451
390 0.589935
395 0.482633
400 0.532223
405 0.534781
410 0.514045
415 0.462446
420 0.536354
425 0.581543
430 0.508115
435 0.580797
440 0.468404
445 0.45737
450 0.597111
455 0.626589
460 0.593979
465 0.584298
470 0.564343
475 0.493114
480 0.498475
485 0.464002
490 0.424589
495 0.534108
500 0.443357
505 0.526161
510 0.537351
515 0.595538
520 0.513181
525 0.660021
530 0.580071
535 0.511238
540 0.508758
545 0.572838
550 0.682027
555 0.76575
560 0.797093
565 0.756344
570 4.55558
575 95.8279
580 177.063
585 52.3015
590 7.03375
595 1.32162
600 0.764458
Ex : 588
200 0.359073
205 0.481491
210 0.468796
215 0.643295
220 0.704403
225 0.522069
230 0.545936
235 0.541122
240 0.526758
245 0.651142
250 0.52322
255 0.576648
260 0.548233
265 0.571001
270 0.590729
275 0.535831
280 0.412603
285 0.512651
290 0.634769
295 0.473108
300 0.459213
305 0.5404
310 0.607676
315 0.438714
320 0.655182
325 0.456885
330 0.447744
335 0.51784
340 0.579845
345 0.566926
350 0.573393
355 0.577608
360 0.640583
365 0.57532
370 0.535467
375 0.479641
380 0.636987
385 0.478133
390 0.582616
395 0.493451
400 0.475773
405 0.493436
410 0.57947
415 0.696559
420 0.517607
425 0.616699
430 0.525288
435 0.613271
440 0.586456
445 0.670069
450 0.569307
455 0.622942
460 0.489728
465 0.58302
470 0.557279
475 0.523698
480 0.675339
485 0.601332
490 0.626611
495 0.701979
500 0.581245
505 0.621405
510 0.620606
515 0.554037
520 0.531954
525 0.579618
530 0.513929
535 0.616633
540 0.562733
545 0.789946
550 0.634163
555 0.543062
560 0.5942
565 0.793625
570 0.872196
575 4.505
580 77.4448
585 147.547
590 45.2169
595 5.93989
600 1.27377
Ex : 593
200 0.532152
205 0.596719
210 0.547762
215 0.574224
220 0.572838
225 0.602042
230 0.534698
235 0.419874
240 0.572471
245 0.565396
250 0.589215
255 0.655526
260 0.534717
265 0.482284
270 0.523912
275 0.438786
280 0.882075
285 0.628427
290 0.497855
295 0.528941
300 0.509149
305 0.523629
310 0.541358
315 0.687066
320 0.43676
325 0.467178
330 0.501885
335 0.489446
340 0.574563
345 0.504299
350 0.507821
355 0.605071
360 0.577451
365 0.643895
370 0.713249
375 0.573819
380 0.579076
385 0.67104
390 0.538374
395 0.646373
400 0.550755
405 0.525542
410 0.584437
415 0.600474
420 0.675831
425 0.569302
430 0.701727
435 0.629502
440 0.731551
445 0.607503
450 0.567454
455 0.468876
460 0.654963
465 0.529005
470 0.478377
475 0.530447
480 0.492489
485 0.479595
490 0.533385
495 0.581522
500 0.532945
505 0.537084
510 0.740235
515 0.652624
520 0.767608
525 0.543514
530 0.583388
535 0.589439
540 0.467451
545 0.576208
550 0.649355
555 0.678998
560 0.745105
565 0.749001
570 0.840601
575 0.703746
580 3.66412
585 71.8073
590 130.162
595 39.6165
600 5.77844
Ex : 598
200 0.480492
205 0.625412
210 0.68677
215 0.518182
220 0.514354
225 0.601616
230 0.580695
235 0.770957
240 0.583367
245 0.572009
250 0.623302
255 0.568177
260 0.767437
265 0.591438
270 0.618258
275 0.583794
280 0.599165
285 0.439612
290 0.578089
295 0.527752
300 0.584804
305 0.4795
310 0.5456
315 0.739432
320 0.626619
325 0.712533
330 0.583172
335 0.508437
340 0.64972
345 0.624417
350 0.495104
355 0.797424
360 0.659819
365 0.546807
370 0.674748
375 0.643962
380 0.803752
385 0.556057
390 0.625822
395 0.56566
400 0.590892
405 0.580777
410 0.481824
415 0.672011
420 0.533783
425 0.704523
430 0.624648
435 0.679627
440 0.657536
445 0.813671
450 0.631372
455 0.581276
460 0.582679
465 0.627526
470 0.596409
475 0.599255
480 0.676595
485 0.57699
490 0.478961
495 0.471936
500 0.538225
505 0.514676
510 0.505403
515 0.559645
520 0.609487
525 0.65331
530 0.776266
535 0.681193
540 0.614085
545 0.646314
550 0.656081
555 0.642038
560 0.74
565 0.603341
570 0.653571
575 0.79522
580 0.719004
585 3.78528
590 64.6424
595 113.969
600 74.9959
Ex : 603
200 0.494133
205 0.580826
210 0.690018
215 0.637266
220 0.513483
225 0.635338
230 0.760396
235 0.620672
240 0.553569
245 0.567845
250 0.680356
255 0.666864
260 0.780574
265 0.66398
270 0.606931
275 0.573078
280 0.590278
285 0.622933
290 0.545278
295 0.581227
300 0.570431
305 0.737707
310 0.551553
315 0.405567
320 0.559555
325 0.754393
330 0.621364
335 0.548195
340 0.593285
345 0.707658
350 0.624699
355 0.622413
360 0.526534
365 0.62511
370 0.698109
375 0.666615
380 0.445304
385 0.502667
390 0.702174
395 0.615458
400 0.543768
405 0.577254
410 0.509183
415 0.562644
420 0.626451
425 0.658062
430 0.879973
435 0.575021
440 0.641839
445 0.803484
450 0.548979
455 0.600399
460 0.604797
465 0.663863
470 0.806761
475 0.627591
480 0.66209
485 0.722849
490 0.720011
495 0.583707
500 0.521286
505 0.525414
510 0.504746
515 0.502684
520 0.510547
525 0.516701
530 0.643618
535 0.723111
540 0.551259
545 0.623597
550 0.497589
555 0.69566
560 0.5953
565 0.625846
570 0.69269
575 0.555109
580 0.725626
585 0.890777
590 3.57951
595 56.6724
600 97.4703
