File format V 1.0
sam. 10. déc. 02:31:13 2016
Operator : 
Comments : 

=============================================
SpectroFluorometer parameters
Mode : 3D measurement
Data : Fluorescence
Phospho. : Ordinary
Spectrum : Fluorescence

Scan speed : 2400 nm/mn
Response : 100 ms
PM Voltage : 700 V
Shutter : On

Lambda Ex. Start : 203
Lambda Ex. End : 603
Lambda Ex. Step : 5
Ex. Slit : 5 nm

Lambda Em. Start : 200
Lambda Em. End : 600
Lambda Em. Step : 5
Em. Slit : 5 nm

Repetition : 1
Decal lambda em : 10
=============================================
DATA
Ex : 203
200 15.4596
205 17.3426
210 11.5697
215 11.2495
220 12.1869
225 17.7124
230 13.935
235 13.08
240 15.2406
245 11.0144
250 12.8932
255 12.9488
260 14.5149
265 15.9459
270 17.4691
275 11.8269
280 14.2515
285 16.2527
290 13.3803
295 11.5825
300 11.2788
305 19.472
310 13.7994
315 14.6355
320 12.6183
325 10.9536
330 11.7938
335 14.1971
340 18.4899
345 14.1941
350 13.1257
355 14.1855
360 19.6219
365 14.5481
370 14.8297
375 15.2198
380 16.0194
385 16.2054
390 18.5343
395 20.3092
400 15.763
405 16.3307
410 15.4024
415 14.2569
420 14.6238
425 13.4731
430 19.267
435 15.6227
440 15.9234
445 17.2951
450 18.1333
455 12.5878
460 18.797
465 16.2432
470 16.416
475 14.1074
480 14.3172
485 14.0516
490 20.0561
495 12.4602
500 17.1326
505 13.1553
510 16.8075
515 14.5423
520 18.8303
525 14.7077
530 16.4629
535 13.0277
540 15.9099
545 18.3803
550 14.3163
555 13.9839
560 18.648
565 12.7402
570 14.4749
575 11.6427
580 11.9969
585 14.7784
590 13.5808
595 15.7913
600 35.1773
Ex : 208
200 15.479
205 10.9083
210 10.559
215 14.7306
220 13.5063
225 12.9437
230 12.2518
235 12.0287
240 15.9401
245 10.846
250 12.6625
255 13.0606
260 16.5412
265 13.5878
270 10.6473
275 12.5058
280 13.5398
285 10.5886
290 13.5961
295 12.3861
300 13.5177
305 13.4574
310 12.9219
315 12.7447
320 14.8059
325 10.9978
330 14.0963
335 13.7406
340 15.1323
345 12.003
350 15.575
355 18.2647
360 17.7115
365 16.2241
370 20.491
375 14.1189
380 15.931
385 15.9516
390 17.5774
395 13.3625
400 16.6534
405 15.5255
410 20.0557
415 17.9686
420 17.3479
425 17.2693
430 10.6901
435 16.3603
440 13.5009
445 19.0007
450 19.2764
455 15.4293
460 15.1485
465 18.3946
470 19.179
475 17.2326
480 14.6109
485 20.5185
490 13.44
495 13.9518
500 12.737
505 15.1466
510 14.457
515 15.2845
520 18.3723
525 13.8065
530 16.5023
535 14.4018
540 13.7626
545 15.9435
550 15.9627
555 14.6664
560 15.0741
565 12.6096
570 13.984
575 15.2346
580 11.6788
585 9.45163
590 18.5711
595 14.5677
600 12.883
Ex : 213
200 11.4199
205 10.6147
210 15.8039
215 13.4745
220 9.97589
225 13.8342
230 11.5172
235 11.8064
240 12.4732
245 12.8014
250 11.6685
255 12.3775
260 11.5461
265 15.9497
270 9.47315
275 15.673
280 13.0775
285 15.7021
290 16.2649
295 13.9266
300 14.1276
305 17.4304
310 11.3335
315 14.839
320 17.0255
325 14.9563
330 14.6122
335 14.7498
340 17.7048
345 16.3171
350 16.7659
355 18.8618
360 15.708
365 13.587
370 18.8457
375 16.3739
380 9.02845
385 18.7059
390 19.1178
395 22.7825
400 15.5471
405 14.3116
410 17.1267
415 18.2072
420 20.6026
425 16.9975
430 16.0434
435 19.2333
440 22.2842
445 12.9488
450 15.5866
455 19.5554
460 15.5885
465 18.9801
470 16.6876
475 18.6088
480 16.1357
485 16.164
490 15.7868
495 15.8045
500 19.5276
505 13.7532
510 12.337
515 19.365
520 14.8357
525 15.5656
530 16.7731
535 13.5581
540 17.3441
545 12.7693
550 18.037
555 16.4598
560 12.5311
565 14.1453
570 15.7784
575 17.0183
580 16.6587
585 15.4258
590 16.4123
595 20.4567
600 28.205
Ex : 218
200 20.0455
205 16.6446
210 10.8929
215 12.7445
220 11.4164
225 12.4701
230 12.7781
235 10.9691
240 11.6492
245 14.6872
250 11.9097
255 10.8281
260 12.5419
265 12.9622
270 13.1631
275 13.1154
280 13.4956
285 14.1852
290 14.0567
295 12.3487
300 16.6567
305 15.1522
310 13.9729
315 13.3786
320 13.5876
325 13.0669
330 14.8934
335 13.6785
340 15.3219
345 20.9339
350 15.5898
355 17.394
360 17.0246
365 18.9245
370 17.0408
375 14.0907
380 17.1477
385 15.5967
390 16.327
395 14.9196
400 13.4111
405 19.5851
410 19.8505
415 13.692
420 15.431
425 15.0889
430 17.0315
435 20.0332
440 18.7575
445 14.6727
450 13.2233
455 16.973
460 13.8706
465 17.1904
470 18.691
475 16.6289
480 13.3357
485 16.7325
490 18.1627
495 17.0215
500 17.3969
505 14.3562
510 11.8649
515 20.0647
520 15.9279
525 15.4723
530 13.102
535 13.1472
540 11.4154
545 12.3917
550 16.3581
555 14.155
560 11.9515
565 14.9265
570 12.587
575 12.863
580 15.6521
585 14.1733
590 12.5461
595 15.6386
600 22.8713
Ex : 223
200 13.0253
205 14.4052
210 14.4593
215 14.8861
220 12.9161
225 9.37893
230 11.3668
235 9.89825
240 12.977
245 12.2207
250 15.4427
255 10.113
260 12.3505
265 11.4628
270 11.1551
275 14.2296
280 11.005
285 9.46216
290 11.9693
295 14.9843
300 10.9245
305 14.1764
310 13.1848
315 12.4932
320 12.8784
325 11.7484
330 15.2104
335 12.5821
340 12.516
345 19.8475
350 15.4237
355 16.2052
360 19.6253
365 17.3136
370 17.1677
375 12.553
380 14.6978
385 16.4411
390 17.2852
395 14.512
400 17.9068
405 13.7393
410 13.61
415 22.2566
420 15.6898
425 17.2327
430 14.3094
435 14.7381
440 15.7373
445 13.1213
450 15.3563
455 16.2328
460 17.133
465 13.4465
470 15.3281
475 14.8741
480 18.1092
485 15.109
490 13.8581
495 13.4121
500 14.6194
505 17.6247
510 16.7789
515 11.9149
520 12.0001
525 14.427
530 14.7449
535 13.4239
540 12.6544
545 12.8463
550 17.7269
555 14.7558
560 12.9271
565 15.1473
570 12.5382
575 14.5738
580 13.4991
585 16.2324
590 11.8453
595 12.8035
600 9.43282
Ex : 228
200 11.9905
205 11.0732
210 10.6991
215 13.5434
220 8.56375
225 12.5395
230 10.4026
235 11.4099
240 15.3431
245 11.9446
250 13.3917
255 10.524
260 10.0259
265 12.448
270 10.9122
275 13.4117
280 12.592
285 10.8888
290 8.01442
295 13.31
300 13.813
305 14.769
310 13.9133
315 10.0693
320 10.2272
325 10.1019
330 13.9949
335 14.0998
340 20.7364
345 12.326
350 18.7613
355 15.8969
360 15.7099
365 15.9086
370 19.6302
375 16.1552
380 16.2761
385 15.3076
390 12.9871
395 12.4149
400 13.2427
405 13.8169
410 17.4827
415 11.1657
420 13.833
425 12.4891
430 13.12
435 16.8779
440 14.6022
445 17.7086
450 20.1824
455 14.5968
460 12.7454
465 14.658
470 13.9909
475 15.9393
480 17.6542
485 12.1332
490 15.7069
495 14.5572
500 12.9017
505 14.3526
510 13.5546
515 14.0641
520 15.4165
525 10.7372
530 11.2017
535 15.9922
540 16.0127
545 14.2009
550 13.6063
555 13.706
560 14.7073
565 14.5989
570 16.8335
575 12.8327
580 13.9531
585 9.997
590 11.004
595 10.66
600 28.9069
Ex : 233
200 11.5714
205 9.64122
210 10.8024
215 11.0558
220 11.6818
225 11.0044
230 7.04935
235 11.4152
240 10.4969
245 13.9695
250 9.26301
255 10.4812
260 10.2151
265 12.4446
270 12.0464
275 9.60924
280 11.1813
285 12.9253
290 10.3244
295 10.9651
300 12.1208
305 9.93874
310 13.7727
315 13.5956
320 13.3251
325 16.0838
330 12.6403
335 10.2345
340 11.8121
345 14.4206
350 14.5297
355 11.7106
360 13.4833
365 12.8184
370 12.4128
375 12.3067
380 13.418
385 11.8995
390 11.9367
395 14.9128
400 14.4566
405 16.887
410 16.8187
415 16.9751
420 14.3788
425 16.1837
430 11.6996
435 13.271
440 11.3856
445 14.9649
450 16.0059
455 13.9287
460 14.5366
465 15.5367
470 15.6453
475 11.6234
480 9.61035
485 14.7316
490 13.8745
495 10.1167
500 16.8456
505 10.4237
510 15.3783
515 12.0173
520 10.8134
525 12.6151
530 14.8715
535 10.6969
540 10.5857
545 12.421
550 12.4106
555 12.9789
560 10.1389
565 9.82419
570 12.1544
575 9.9838
580 13.3266
585 12.5149
590 10.1814
595 9.19064
600 1.04586
Ex : 238
200 9.3361
205 13.4353
210 10.2974
215 8.43201
220 9.08307
225 8.98403
230 10.1835
235 11.3934
240 10.8668
245 11.4776
250 10.1756
255 8.17792
260 9.11605
265 11.8207
270 12.4678
275 11.0938
280 11.6514
285 11.9225
290 7.24417
295 10.1351
300 9.36354
305 7.43143
310 9.11312
315 10.6212
320 10.7211
325 12.8878
330 12.6981
335 10.0892
340 12.8051
345 15.1541
350 13.1919
355 13.2231
360 12.3533
365 10.6844
370 15.5337
375 10.3184
380 12.4634
385 10.4316
390 11.2795
395 10.921
400 14.2663
405 14.0087
410 13.0112
415 12.3084
420 12.0016
425 10.0062
430 9.97749
435 10.012
440 12.1759
445 10.0901
450 13.7682
455 12.0421
460 15.211
465 13.615
470 10.7839
475 12.7056
480 10.1089
485 13.6955
490 11.763
495 12.6639
500 10.0878
505 14.3777
510 13.6698
515 11.837
520 10.6265
525 11.2929
530 12.6914
535 10.0643
540 11.0014
545 12.2736
550 8.97068
555 11.6147
560 15.1784
565 11.6325
570 10.7255
575 10.8715
580 11.3158
585 10.3322
590 8.95589
595 9.05456
600 8.85851
Ex : 243
200 7.56429
205 6.31827
210 7.59359
215 11.0791
220 7.72502
225 9.24222
230 9.10305
235 8.82532
240 6.29164
245 7.49245
250 11.1715
255 8.19085
260 8.53426
265 4.76197
270 9.70929
275 9.04813
280 8.49445
285 10.0981
290 7.474
295 8.19795
300 7.502
305 8.00778
310 10.8367
315 7.06313
320 8.59657
325 9.57674
330 12.6768
335 10.8161
340 11.0038
345 10.8904
350 11.071
355 8.89791
360 10.7739
365 10.579
370 9.49797
375 8.00289
380 11.9296
385 10.6691
390 11.0768
395 10.579
400 9.35758
405 10.9761
410 10.8721
415 12.1769
420 11.7356
425 11.504
430 9.86642
435 10.5478
440 13.9888
445 11.8692
450 12.385
455 10.3036
460 10.0779
465 11.119
470 10.598
475 11.4912
480 15.3431
485 12.1915
490 8.93806
495 10.3207
500 10.165
505 11.086
510 10.4276
515 8.82185
520 9.99517
525 11.1963
530 8.48643
535 9.79611
540 9.87685
545 9.18739
550 7.7864
555 8.25852
560 8.01043
565 9.9733
570 8.91527
575 11.3052
580 9.62142
585 7.59371
590 7.71389
595 11.1704
600 12.0828
Ex : 248
200 5.77676
205 7.83877
210 7.32363
215 8.06667
220 9.68813
225 7.12593
230 5.98306
235 7.47949
240 7.90442
245 5.17973
250 6.75615
255 7.51145
260 7.09961
265 8.91151
270 9.67206
275 8.07645
280 7.59866
285 6.54918
290 7.94533
295 8.96618
300 7.57663
305 6.68168
310 6.97169
315 8.15234
320 6.69182
325 6.85076
330 8.86048
335 8.87099
340 8.71135
345 8.07277
350 8.41205
355 10.0554
360 8.37896
365 10.1328
370 7.83039
375 8.88807
380 9.0413
385 9.28388
390 13.0947
395 7.94407
400 11.3651
405 11.4351
410 11.0468
415 9.58186
420 7.50097
425 8.90281
430 9.68844
435 10.1808
440 8.92741
445 9.54021
450 8.57955
455 7.75175
460 9.98439
465 10.232
470 8.07894
475 7.89245
480 11.3031
485 7.88144
490 9.64368
495 9.09493
500 10.3401
505 8.95915
510 7.59039
515 11.0336
520 9.93176
525 7.67614
530 9.21596
535 8.6424
540 8.80541
545 7.70411
550 9.02755
555 8.71586
560 10.5976
565 10.0257
570 6.56078
575 6.92517
580 5.86861
585 9.67263
590 8.86417
595 6.94051
600 4.03922
Ex : 253
200 5.17604
205 6.14675
210 4.00419
215 5.83196
220 4.45212
225 5.08423
230 4.37469
235 4.56805
240 5.94646
245 5.08363
250 6.39681
255 5.00977
260 4.65771
265 5.49321
270 5.3568
275 5.08502
280 4.62892
285 5.17108
290 5.76967
295 5.4113
300 5.52179
305 5.41919
310 5.02806
315 4.79751
320 5.32159
325 5.80019
330 7.80025
335 7.30146
340 6.45245
345 6.61642
350 8.61577
355 8.70912
360 10.0351
365 7.5172
370 8.38272
375 8.04139
380 7.86545
385 6.29364
390 7.76881
395 8.10539
400 5.9078
405 6.61644
410 6.05734
415 8.46324
420 7.9929
425 7.81229
430 5.63216
435 9.64672
440 7.10499
445 7.0951
450 8.94979
455 7.69907
460 8.41414
465 7.75607
470 7.74621
475 7.28363
480 6.69092
485 7.6949
490 8.01932
495 7.34689
500 7.32479
505 7.50455
510 7.48458
515 5.23061
520 6.91077
525 6.61036
530 5.99009
535 6.09468
540 7.12283
545 5.76928
550 7.10224
555 6.01678
560 5.88209
565 6.31781
570 6.27705
575 7.0847
580 5.2937
585 4.60641
590 5.15525
595 5.80052
600 1.81214
Ex : 258
200 3.60465
205 4.03777
210 4.48907
215 5.8018
220 5.31966
225 5.14521
230 4.45225
235 4.7192
240 4.17376
245 4.70714
250 4.84181
255 4.19904
260 5.93799
265 4.202
270 4.58632
275 4.77123
280 4.2066
285 4.55659
290 5.09057
295 3.97095
300 4.44327
305 4.16057
310 4.5133
315 4.98315
320 4.77138
325 4.53173
330 5.0883
335 6.30329
340 6.06549
345 5.47954
350 6.21175
355 6.12528
360 6.57744
365 5.72885
370 5.37718
375 5.89437
380 6.11016
385 4.86477
390 5.54155
395 5.11172
400 6.54983
405 6.96591
410 6.60515
415 6.86521
420 6.40602
425 6.99353
430 5.70378
435 7.32329
440 5.06611
445 6.4059
450 6.0633
455 6.29242
460 6.04016
465 5.80954
470 5.03029
475 6.28295
480 7.32091
485 5.79344
490 5.38905
495 6.8682
500 5.00666
505 5.09697
510 5.64501
515 6.65474
520 5.22811
525 4.16212
530 4.62197
535 5.34524
540 4.61266
545 4.55169
550 4.86763
555 5.00539
560 3.86192
565 4.76374
570 4.25462
575 4.1193
580 4.5845
585 4.44656
590 4.76854
595 4.79231
600 8.96428
Ex : 263
200 3.40237
205 5.26728
210 4.63788
215 3.11933
220 3.91563
225 4.39952
230 4.14113
235 3.76755
240 2.45701
245 3.50495
250 2.91809
255 3.64975
260 4.67742
265 3.72521
270 3.48643
275 3.77422
280 3.60395
285 4.05531
290 3.99465
295 3.89128
300 4.36007
305 3.29694
310 3.26637
315 3.87539
320 3.00661
325 3.81332
330 3.75957
335 4.84285
340 4.26142
345 4.21984
350 3.98596
355 4.24009
360 3.85382
365 4.47848
370 4.97187
375 4.16455
380 3.95742
385 4.85634
390 5.54364
395 4.65916
400 5.47704
405 6.67268
410 6.26569
415 4.61337
420 4.88794
425 4.85313
430 5.02479
435 6.72124
440 4.02129
445 4.21196
450 4.3786
455 5.74945
460 4.09242
465 4.85802
470 4.06551
475 4.39913
480 4.73395
485 6.34783
490 5.09171
495 5.41411
500 5.80026
505 4.92936
510 4.81901
515 4.40629
520 5.1062
525 5.14863
530 3.34049
535 4.45321
540 4.43962
545 4.42153
550 3.09893
555 3.99607
560 4.10358
565 3.34186
570 4.25641
575 4.29825
580 2.91955
585 3.45385
590 3.61135
595 2.96111
600 0.336963
Ex : 268
200 2.3524
205 2.39746
210 2.04419
215 2.56869
220 2.80442
225 2.33794
230 2.71608
235 2.89435
240 2.41768
245 2.67806
250 2.65034
255 2.83541
260 3.04745
265 2.48013
270 2.9624
275 2.85962
280 2.36703
285 3.28348
290 2.87285
295 3.0074
300 3.2093
305 3.13016
310 2.97754
315 3.58207
320 2.4413
325 3.67353
330 2.96119
335 3.84289
340 3.99658
345 3.06336
350 3.29024
355 3.13903
360 4.00903
365 3.42452
370 3.84681
375 3.69546
380 3.76221
385 3.62662
390 3.63881
395 4.53846
400 3.8226
405 3.81578
410 3.74974
415 3.91841
420 4.29918
425 4.95156
430 4.20698
435 4.22118
440 4.22788
445 3.36764
450 3.90417
455 4.31972
460 4.01339
465 3.37621
470 3.78439
475 2.7524
480 2.59633
485 2.47639
490 3.3402
495 4.28273
500 3.93715
505 3.42663
510 3.2588
515 3.34559
520 4.13203
525 3.68619
530 4.01935
535 4.53247
540 3.1846
545 3.16853
550 3.67098
555 3.96463
560 2.99436
565 2.64097
570 2.37249
575 3.10479
580 2.73358
585 2.23851
590 3.04737
595 2.16089
600 0.290211
Ex : 273
200 1.80679
205 2.04433
210 2.26932
215 2.67667
220 1.97386
225 2.26104
230 2.09962
235 2.3623
240 2.29867
245 1.95663
250 2.06425
255 2.34608
260 2.00424
265 2.99746
270 2.81916
275 2.42345
280 2.9578
285 2.10398
290 1.93929
295 2.13761
300 1.60896
305 1.89774
310 2.47903
315 2.32112
320 2.18805
325 1.92405
330 2.65497
335 3.16718
340 3.67612
345 4.0617
350 3.54012
355 3.30657
360 3.35913
365 3.35861
370 3.60377
375 3.89947
380 3.86604
385 3.2822
390 3.27833
395 3.78466
400 3.07006
405 2.65598
410 3.81815
415 4.15803
420 2.99259
425 3.41426
430 2.8993
435 3.40484
440 2.79358
445 2.73307
450 2.98956
455 2.88166
460 2.83855
465 3.62868
470 3.16983
475 2.76984
480 3.27894
485 2.73329
490 2.48604
495 2.83793
500 2.60542
505 2.47855
510 2.35372
515 2.34653
520 2.70262
525 2.70395
530 2.04573
535 3.32829
540 3.57448
545 3.33929
550 2.24873
555 2.42639
560 2.34087
565 2.27382
570 2.15415
575 2.16552
580 1.99558
585 1.98862
590 2.09277
595 2.58776
600 0.294477
Ex : 278
200 1.84814
205 2.34201
210 1.59963
215 1.93647
220 2.19845
225 2.30431
230 1.97069
235 2.46958
240 1.7284
245 1.72491
250 1.51777
255 1.9769
260 2.31397
265 1.82624
270 2.30618
275 2.68971
280 2.32439
285 2.14752
290 2.29291
295 1.43656
300 1.64185
305 1.9208
310 2.02315
315 1.94132
320 1.54781
325 2.2102
330 2.68195
335 2.40457
340 2.67953
345 2.7679
350 2.60005
355 2.66228
360 2.789
365 2.12559
370 3.08526
375 2.8612
380 2.70688
385 2.47613
390 3.31471
395 2.90619
400 2.40786
405 3.00131
410 2.56897
415 2.98418
420 3.33505
425 3.17082
430 2.17886
435 2.71328
440 3.1752
445 3.04337
450 2.37114
455 2.50167
460 2.65952
465 2.73505
470 3.28218
475 2.70004
480 2.98167
485 2.65496
490 2.00843
495 2.07475
500 2.50519
505 3.12895
510 2.07626
515 1.81642
520 2.95896
525 2.80909
530 1.77821
535 1.79944
540 2.41306
545 3.00672
550 3.9926
555 3.47464
560 2.37264
565 1.60475
570 1.66257
575 2.4188
580 2.29997
585 1.70466
590 1.02319
595 1.61516
600 0.31673
Ex : 283
200 1.32364
205 1.15606
210 1.47842
215 1.70066
220 1.36212
225 2.07027
230 1.54277
235 1.73054
240 1.35993
245 1.8402
250 1.4509
255 1.72175
260 1.59657
265 1.52525
270 1.70194
275 1.65982
280 1.9636
285 2.23118
290 1.46684
295 1.61984
300 1.80724
305 1.51872
310 1.35271
315 1.2424
320 1.36839
325 1.75555
330 1.95422
335 2.45285
340 2.22178
345 2.30546
350 1.9028
355 1.973
360 2.64218
365 2.37675
370 2.11174
375 2.66779
380 3.48077
385 2.57247
390 2.465
395 2.67149
400 2.25592
405 2.58714
410 2.4339
415 2.47817
420 2.83569
425 2.88074
430 2.70576
435 2.59031
440 2.35897
445 2.74115
450 2.95341
455 2.01743
460 2.65206
465 2.39351
470 2.48219
475 2.40715
480 2.13415
485 2.08683
490 2.13001
495 2.17263
500 2.09301
505 2.08146
510 1.44506
515 1.82715
520 2.14455
525 1.61686
530 1.82144
535 2.28687
540 1.98682
545 1.61764
550 1.92693
555 2.24505
560 3.10843
565 2.96041
570 1.92257
575 1.99575
580 1.68457
585 1.35459
590 1.46784
595 1.58347
600 1.63258
Ex : 288
200 1.75322
205 1.52617
210 1.3201
215 1.09121
220 1.07116
225 1.2015
230 1.00793
235 1.15563
240 1.28539
245 1.31182
250 1.1901
255 1.1225
260 1.33184
265 1.20686
270 1.0789
275 1.53677
280 1.53095
285 1.56414
290 1.4552
295 1.18241
300 1.36697
305 1.45141
310 1.5014
315 1.29453
320 1.53231
325 1.62127
330 2.23647
335 1.85726
340 1.84698
345 1.64
350 1.95372
355 2.06787
360 2.42428
365 2.40467
370 2.34241
375 2.35498
380 2.3202
385 1.81417
390 2.08768
395 2.66514
400 2.56203
405 2.36144
410 1.98565
415 2.17791
420 2.26594
425 2.24424
430 1.87801
435 2.27045
440 2.25581
445 2.55434
450 2.81336
455 1.87655
460 1.92392
465 1.94655
470 2.25825
475 1.99104
480 1.79097
485 1.93981
490 2.19895
495 2.07547
500 1.78028
505 1.49625
510 1.93696
515 1.40522
520 1.70752
525 1.41047
530 1.2042
535 1.45556
540 1.27291
545 1.21972
550 1.61213
555 1.791
560 1.62501
565 1.6296
570 2.87094
575 2.54365
580 1.63537
585 1.43987
590 1.11926
595 1.18572
600 0.382243
Ex : 293
200 1.05125
205 1.06425
210 1.05507
215 1.68253
220 1.30118
225 0.960904
230 1.07649
235 1.57002
240 1.11961
245 1.61479
250 1.01508
255 0.962275
260 1.13341
265 0.778034
270 1.41619
275 1.26447
280 1.26556
285 1.45154
290 1.9941
295 1.35482
300 0.950932
305 1.29174
310 1.05405
315 1.07833
320 1.01055
325 1.19735
330 1.69563
335 1.48028
340 1.8515
345 1.77405
350 1.6179
355 2.00034
360 1.65014
365 1.87165
370 1.94274
375 2.14655
380 2.15986
385 2.06822
390 1.95889
395 2.1351
400 2.06917
405 2.06475
410 2.09336
415 1.91833
420 2.23945
425 1.91668
430 2.06754
435 1.79254
440 1.78169
445 1.71755
450 2.2141
455 2.20797
460 1.63546
465 1.91291
470 1.57462
475 1.85124
480 2.02822
485 1.5936
490 2.36154
495 1.43353
500 1.17926
505 1.27454
510 1.37149
515 1.36509
520 1.38176
525 1.49851
530 1.64147
535 1.42682
540 1.20373
545 1.38973
550 1.65558
555 1.1883
560 1.25425
565 1.27641
570 1.25486
575 2.37807
580 2.49062
585 1.96971
590 1.35993
595 1.06678
600 0.121396
Ex : 298
200 1.10224
205 0.834465
210 1.10044
215 0.833616
220 1.05116
225 0.835082
230 0.838227
235 1.03896
240 0.927419
245 1.03967
250 1.04277
255 0.998429
260 1.11758
265 0.758244
270 0.763802
275 0.75085
280 0.96915
285 0.93481
290 1.56149
295 1.46049
300 1.25018
305 1.17227
310 1.08711
315 1.03961
320 1.05406
325 1.38265
330 1.6799
335 1.48058
340 1.42638
345 1.41981
350 1.83269
355 1.79558
360 1.60447
365 1.68341
370 1.53186
375 1.57323
380 1.90274
385 1.8629
390 2.04403
395 2.27514
400 1.87463
405 2.16376
410 1.95628
415 1.99862
420 1.86924
425 1.82932
430 1.4474
435 1.87509
440 1.63594
445 1.77123
450 1.84547
455 1.57898
460 1.59782
465 1.92742
470 1.6902
475 1.45984
480 1.44532
485 1.74022
490 1.49154
495 1.30671
500 1.42138
505 1.26084
510 1.11522
515 1.1374
520 1.05138
525 1.2543
530 1.31953
535 0.959842
540 1.23056
545 1.2542
550 1.23491
555 1.29277
560 1.20312
565 1.38908
570 0.928545
575 0.905175
580 1.0653
585 1.66309
590 2.15548
595 1.70586
600 0.464488
Ex : 303
200 0.912967
205 0.765491
210 0.740119
215 0.64885
220 0.890835
225 0.855929
230 0.820756
235 0.924254
240 0.821257
245 0.695512
250 0.867093
255 0.806629
260 0.763045
265 0.802359
270 0.81275
275 0.912608
280 0.940961
285 0.769483
290 0.690897
295 1.35653
300 1.38651
305 1.18719
310 1.05218
315 1.03281
320 1.08535
325 1.07384
330 1.47809
335 1.39218
340 1.65113
345 1.46142
350 1.40686
355 1.48391
360 1.64173
365 1.63811
370 1.5891
375 1.58881
380 1.7427
385 1.72306
390 1.92109
395 1.79377
400 1.86556
405 1.73266
410 1.91991
415 1.74636
420 1.58707
425 1.75629
430 1.57815
435 1.45521
440 1.55847
445 2.05636
450 1.45453
455 1.78506
460 1.54908
465 1.44551
470 1.46187
475 1.42051
480 1.50118
485 1.12967
490 1.19131
495 1.19983
500 1.29863
505 1.14331
510 1.22205
515 1.04599
520 1.10408
525 1.04306
530 1.19534
535 0.867401
540 0.750766
545 0.90655
550 1.05251
555 1.06029
560 0.783669
565 0.764858
570 0.919939
575 0.939456
580 0.771404
585 0.692395
590 0.923062
595 1.65683
600 2.03914
Ex : 308
200 0.838154
205 0.6019
210 0.75487
215 0.850971
220 0.796544
225 0.667458
230 0.730351
235 0.698645
240 0.573574
245 0.754571
250 0.656082
255 0.859086
260 0.664192
265 0.828252
270 0.807254
275 0.890435
280 0.664283
285 0.681478
290 0.818898
295 1.02613
300 1.09507
305 1.17419
310 0.912387
315 0.863469
320 0.909012
325 1.1495
330 1.26765
335 1.35556
340 1.60034
345 1.38942
350 1.68309
355 1.52481
360 1.6193
365 1.80557
370 1.5414
375 1.5239
380 1.86591
385 2.03475
390 1.97563
395 1.96383
400 1.79133
405 1.96218
410 1.56707
415 1.60177
420 1.46455
425 1.69962
430 1.60303
435 2.10372
440 1.51429
445 1.57137
450 1.66474
455 1.62575
460 1.44823
465 1.18499
470 1.23067
475 1.33044
480 1.49997
485 1.25514
490 1.11991
495 1.26831
500 1.26137
505 1.02345
510 1.03184
515 0.901007
520 1.2935
525 1.1226
530 0.960856
535 0.965978
540 0.954774
545 1.17681
550 0.964149
555 0.838122
560 0.991822
565 0.882805
570 0.787871
575 0.855376
580 1.0371
585 0.902052
590 0.915668
595 0.827536
600 0.209262
Ex : 313
200 0.705128
205 0.825552
210 0.579833
215 0.881973
220 0.587594
225 0.680001
230 0.466949
235 0.649808
240 0.591487
245 0.782029
250 0.86494
255 0.724369
260 0.659555
265 0.613585
270 0.685114
275 0.748532
280 0.599766
285 0.440942
290 0.502347
295 0.612112
300 0.711103
305 0.8977
310 1.1127
315 0.893154
320 1.04219
325 1.43611
330 1.60641
335 1.43814
340 1.47534
345 1.58533
350 1.5581
355 1.55004
360 1.738
365 1.91948
370 1.7185
375 1.80737
380 1.92489
385 2.05919
390 2.13929
395 2.43676
400 2.1857
405 2.24458
410 1.97699
415 2.32134
420 1.844
425 2.0497
430 2.00983
435 2.09773
440 1.89859
445 1.69737
450 1.58461
455 1.71415
460 1.47492
465 1.46284
470 1.57007
475 1.7003
480 1.25279
485 1.31288
490 1.34713
495 1.37705
500 1.05489
505 1.22048
510 1.09436
515 0.893972
520 0.729021
525 0.868531
530 0.776477
535 0.94517
540 0.789252
545 0.974061
550 0.784701
555 0.76283
560 0.794509
565 0.760862
570 0.755827
575 0.909836
580 0.750245
585 0.707459
590 0.808512
595 0.873979
600 1.50089
Ex : 318
200 0.663318
205 0.537678
210 0.525012
215 0.476691
220 0.650255
225 0.57213
230 0.447425
235 0.5594
240 0.52761
245 0.728687
250 0.674535
255 0.622775
260 0.513419
265 0.462045
270 0.55588
275 0.514515
280 0.596004
285 0.76986
290 0.496759
295 0.487177
300 0.556546
305 0.537308
310 1.38836
315 4.45336
320 2.7752
325 2.27954
330 2.54498
335 2.35414
340 2.72424
345 3.12765
350 3.71237
355 4.02467
360 5.26644
365 5.60801
370 6.53119
375 7.40915
380 8.8404
385 9.87912
390 10.4998
395 10.7126
400 10.8184
405 11.2042
410 11.0215
415 10.8837
420 10.9663
425 10.3086
430 9.8471
435 9.71484
440 9.29346
445 9.0611
450 8.75422
455 8.1453
460 7.39835
465 7.14056
470 6.13307
475 6.34454
480 5.35359
485 5.15129
490 4.42897
495 3.993
500 3.75753
505 3.27717
510 2.93137
515 2.62819
520 2.26252
525 2.12398
530 1.88377
535 1.91356
540 1.62629
545 1.50005
550 1.2614
555 1.06579
560 1.26588
565 1.08929
570 0.950687
575 0.826066
580 0.780282
585 0.923543
590 0.668647
595 0.760684
600 0.954304
Ex : 323
200 0.452344
205 0.61342
210 0.562887
215 0.574054
220 0.569264
225 0.445509
230 0.347156
235 0.446456
240 0.498548
245 0.488187
250 0.695198
255 0.594548
260 0.563876
265 0.559893
270 0.579191
275 0.386984
280 0.587974
285 0.42577
290 0.646742
295 0.535149
300 0.527818
305 0.608358
310 1.04595
315 29.2963
320 128.548
325 51.3841
330 9.77771
335 5.7026
340 6.27081
345 7.39719
350 10.0993
355 12.8943
360 16.5778
365 19.6675
370 21.9543
375 25.3817
380 29.5718
385 31.6861
390 34.8031
395 35.8092
400 37.8735
405 39.273
410 39.1527
415 38.9019
420 37.6903
425 36.9902
430 36.034
435 35.1337
440 32.8992
445 31.885
450 29.6825
455 27.4754
460 25.6927
465 24.1676
470 21.8765
475 19.5376
480 18.7498
485 16.7459
490 14.745
495 13.5742
500 12.0071
505 10.3707
510 9.35753
515 8.05257
520 7.19797
525 6.39604
530 5.66538
535 4.80108
540 4.48081
545 3.51587
550 3.47696
555 2.9868
560 2.91223
565 2.02673
570 2.02155
575 1.78415
580 1.31544
585 1.28007
590 1.34103
595 0.815934
600 0.440706
Ex : 328
200 0.53966
205 0.366639
210 0.547739
215 0.508455
220 0.562227
225 0.598509
230 0.506455
235 0.579582
240 0.540193
245 0.609887
250 0.645542
255 0.607176
260 0.628126
265 0.634388
270 0.536045
275 0.597755
280 0.574551
285 0.835635
290 0.770108
295 0.670491
300 0.721267
305 0.753831
310 0.971809
315 7.79334
320 294.29
325 682.212
330 201.327
335 29.4008
340 10.8403
345 9.6527
350 10.6799
355 14.7166
360 19.1045
365 21.4621
370 24.1097
375 26.9321
380 29.5153
385 32.8537
390 36.8967
395 37.8816
400 39.6445
405 40.86
410 41.347
415 40.0534
420 39.8787
425 38.6098
430 37.1132
435 36.051
440 32.811
445 31.9685
450 30.4749
455 28.0082
460 25.8864
465 24.6402
470 22.4642
475 20.2811
480 18.9654
485 16.9806
490 15.0988
495 14.2706
500 12.3054
505 11.3066
510 9.13477
515 8.54772
520 7.19925
525 6.68428
530 5.99744
535 5.08131
540 4.07951
545 4.04848
550 3.47187
555 2.97743
560 2.86961
565 2.57386
570 2.08024
575 1.69493
580 1.56334
585 1.40952
590 1.20283
595 1.01525
600 1.43733
Ex : 333
200 0.498905
205 0.506554
210 0.535043
215 0.5151
220 0.524318
225 0.587735
230 0.61191
235 0.626022
240 0.71083
245 0.499551
250 0.61581
255 0.693123
260 0.616637
265 0.624518
270 0.623318
275 0.67585
280 0.521644
285 0.594904
290 0.692583
295 0.892704
300 0.696683
305 0.729391
310 1.02345
315 1.34686
320 40.3278
325 812.842
330 1380.46
335 348.141
340 46.6371
345 12.368
350 8.29971
355 9.0551
360 11.4479
365 15.5501
370 16.1766
375 16.0702
380 17.5023
385 19.5277
390 21.7704
395 22.4341
400 23.2518
405 23.04
410 24.8015
415 24.179
420 23.1848
425 21.3551
430 20.6246
435 20.1505
440 19.1272
445 18.1754
450 16.6253
455 15.6887
460 14.33
465 13.8041
470 12.7727
475 11.9889
480 11.1283
485 10.4348
490 8.79563
495 8.06109
500 7.13582
505 6.44077
510 5.78397
515 5.29548
520 4.46672
525 4.21518
530 3.68791
535 3.43765
540 3.01262
545 2.6321
550 2.75435
555 2.33969
560 2.25772
565 1.58119
570 1.53647
575 1.48835
580 1.39515
585 1.21869
590 1.03026
595 1.09267
600 1.37866
Ex : 338
200 0.486088
205 0.617338
210 0.529753
215 0.47691
220 0.587847
225 0.509771
230 0.593644
235 0.624959
240 0.578522
245 0.473377
250 0.47936
255 0.517235
260 0.610779
265 0.614048
270 0.550638
275 0.672897
280 0.561864
285 0.570658
290 0.633109
295 0.720855
300 0.823937
305 0.897831
310 0.973598
315 1.28676
320 1.77686
325 78.2646
330 1224.96
335 1790.74
340 431.327
345 55.9223
350 12.075
355 6.53276
360 5.81923
365 7.33939
370 11.6402
375 11.418
380 10.4444
385 10.8319
390 12.254
395 13.2497
400 13.0254
405 12.9144
410 13.622
415 14.2991
420 13.051
425 12.2291
430 11.7351
435 11.9078
440 10.8772
445 10.1649
450 9.1915
455 9.00987
460 8.67744
465 7.96888
470 7.45405
475 7.02343
480 6.27261
485 5.70067
490 5.47492
495 5.03716
500 4.41572
505 3.98047
510 3.56449
515 3.25103
520 3.13988
525 2.85555
530 2.58325
535 2.36118
540 2.39137
545 2.17497
550 1.99589
555 1.61385
560 1.57394
565 1.6574
570 1.43437
575 1.49696
580 1.3522
585 1.15885
590 1.01274
595 0.991631
600 1.03003
Ex : 343
200 0.573937
205 0.417655
210 0.562382
215 0.552501
220 0.737716
225 0.604494
230 0.470406
235 0.567339
240 0.442195
245 0.578002
250 0.571391
255 0.560981
260 0.597549
265 0.547319
270 0.555204
275 0.575273
280 0.569419
285 0.684273
290 0.681739
295 0.760244
300 0.703944
305 0.926366
310 0.832364
315 0.984943
320 1.2954
325 2.64809
330 89.874
335 1410.62
340 2018.45
345 478.649
350 60.3725
355 12.017
360 5.73011
365 4.40809
370 5.14376
375 8.64828
380 9.93447
385 9.86455
390 9.95851
395 10.3163
400 9.35539
405 9.75519
410 10.7342
415 11.1433
420 10.6152
425 9.70846
430 9.31256
435 9.17819
440 8.70456
445 8.47576
450 7.84732
455 7.69153
460 6.83922
465 6.71383
470 6.2901
475 5.81557
480 5.51039
485 4.92379
490 4.45342
495 3.91955
500 4.02763
505 3.42354
510 3.31902
515 3.11172
520 2.82952
525 2.3401
530 2.15682
535 2.12797
540 2.04261
545 1.82138
550 1.87811
555 1.69904
560 1.55266
565 1.56038
570 1.28757
575 1.40455
580 1.12119
585 1.20027
590 1.11229
595 1.164
600 0.826263
Ex : 348
200 0.433574
205 0.425165
210 0.518959
215 0.413283
220 0.521293
225 0.51247
230 0.492008
235 0.597777
240 0.622029
245 0.552168
250 0.493826
255 0.629659
260 0.610998
265 0.598774
270 0.689258
275 0.653115
280 0.551742
285 0.740441
290 0.593201
295 0.675621
300 0.775492
305 0.714056
310 0.698902
315 0.97057
320 1.04151
325 1.74325
330 2.95761
335 90.8765
340 1426.87
345 2117.36
350 533.267
355 66.4651
360 11.9723
365 5.39265
370 3.60754
375 4.02757
380 7.78389
385 12.2253
390 11.9913
395 11.3148
400 10.2075
405 10.1777
410 11.2873
415 12.3462
420 11.2702
425 10.5381
430 9.75619
435 9.33951
440 9.45427
445 9.12828
450 8.23092
455 7.48472
460 7.39938
465 6.64378
470 6.06221
475 5.96578
480 5.74972
485 5.14014
490 4.94142
495 4.22775
500 3.88283
505 3.47638
510 3.68182
515 3.05311
520 2.78427
525 2.76101
530 2.21371
535 2.10486
540 2.00865
545 1.9592
550 1.70718
555 1.61783
560 1.46195
565 1.5848
570 1.30995
575 1.2535
580 1.06466
585 0.922444
590 1.00752
595 1.14331
600 1.36446
Ex : 353
200 0.388289
205 0.535685
210 0.475982
215 0.450526
220 0.398393
225 0.553396
230 0.519758
235 0.445711
240 0.44926
245 0.483798
250 0.527515
255 0.499309
260 0.519533
265 0.54344
270 0.456131
275 0.611938
280 0.569846
285 0.557612
290 0.588373
295 0.633492
300 0.695425
305 0.648746
310 0.518341
315 0.692308
320 0.93267
325 1.23049
330 1.95564
335 3.03478
340 95.2735
345 1485.4
350 2122.33
355 517.403
360 64.7218
365 11.6298
370 4.84685
375 3.65403
380 4.25235
385 8.57479
390 13.6399
395 13.8458
400 11.5222
405 10.664
410 11.4116
415 12.7857
420 12.4607
425 11.0193
430 10.2097
435 10.1306
440 9.79773
445 9.57351
450 8.73336
455 7.91394
460 7.52693
465 7.08767
470 6.42887
475 6.04423
480 5.59823
485 5.25196
490 5.14336
495 4.47288
500 4.04627
505 3.8132
510 3.497
515 3.30956
520 2.78957
525 2.57774
530 2.63791
535 2.04922
540 2.07717
545 1.86296
550 1.52959
555 1.6852
560 1.45402
565 1.22863
570 1.26037
575 1.0855
580 1.0724
585 0.980689
590 0.900001
595 0.900774
600 1.22768
Ex : 358
200 0.352554
205 0.408405
210 0.41068
215 0.385121
220 0.417771
225 0.434891
230 0.442495
235 0.448371
240 0.491272
245 0.389679
250 0.477468
255 0.388858
260 0.402143
265 0.443482
270 0.496302
275 0.517055
280 0.54813
285 0.58702
290 0.673883
295 0.534452
300 0.535278
305 0.725974
310 0.564667
315 0.680602
320 0.666762
325 0.902962
330 1.42273
335 1.87924
340 3.26446
345 90.8093
350 1438.17
355 2156.71
360 530.588
365 65.6199
370 11.4938
375 4.98069
380 4.42329
385 5.67731
390 9.46284
395 13.6271
400 12.9578
405 11.2583
410 11.3559
415 11.8027
420 10.8848
425 10.2525
430 9.2893
435 9.46335
440 9.46512
445 9.04759
450 8.35927
455 7.73727
460 7.45222
465 6.77636
470 6.40927
475 6.15464
480 5.83243
485 5.23117
490 5.06061
495 4.53735
500 4.36301
505 4.04459
510 3.45532
515 3.02446
520 2.99269
525 2.42683
530 2.46293
535 2.19705
540 1.89531
545 1.76673
550 1.74023
555 1.65505
560 1.48716
565 1.44536
570 1.26789
575 1.10916
580 1.10164
585 0.868846
590 0.924925
595 0.873728
600 0.944729
Ex : 363
200 0.407803
205 0.382531
210 0.347474
215 0.44441
220 0.458013
225 0.358658
230 0.373772
235 0.356983
240 0.373587
245 0.318119
250 0.376636
255 0.437081
260 0.472089
265 0.442426
270 0.493346
275 0.367687
280 0.402994
285 0.54553
290 0.462429
295 0.431837
300 0.52916
305 0.609626
310 0.587185
315 0.536094
320 0.653035
325 0.764062
330 1.01345
335 1.27165
340 1.96432
345 3.21764
350 84.4002
355 1397.94
360 2156.82
365 555.423
370 68.6498
375 11.8241
380 6.34614
385 7.36645
390 9.05728
395 10.5872
400 12.7259
405 14.2082
410 14.1595
415 13.5173
420 12.2115
425 10.9066
430 10.0468
435 10.3926
440 10.1769
445 9.5028
450 9.38502
455 8.34584
460 7.614
465 7.34956
470 6.89058
475 6.58097
480 6.09281
485 5.77351
490 5.00605
495 5.04584
500 4.3109
505 4.06296
510 3.71439
515 3.37363
520 2.94634
525 2.64017
530 2.4811
535 2.35802
540 2.13339
545 1.97739
550 1.73251
555 1.71859
560 1.5084
565 1.3497
570 1.24686
575 1.09139
580 1.11061
585 0.886558
590 0.810507
595 0.795832
600 0.445044
Ex : 368
200 0.339173
205 0.428257
210 0.414913
215 0.379253
220 0.367552
225 0.446499
230 0.406355
235 0.367261
240 0.368147
245 0.433913
250 0.471489
255 0.444629
260 0.40027
265 0.362358
270 0.348682
275 0.357152
280 0.423538
285 0.456616
290 0.407249
295 0.451457
300 0.458118
305 0.537818
310 0.46008
315 0.510892
320 0.602941
325 0.688142
330 0.951567
335 1.16367
340 1.40427
345 1.96514
350 3.099
355 70.2151
360 1373.67
365 2220.77
370 586.73
375 72.8659
380 13.5268
385 9.51054
390 11.6564
395 12.0864
400 11.2585
405 14.1357
410 17.8253
415 17.8427
420 16.0841
425 13.4871
430 12.0073
435 11.9693
440 11.8502
445 11.7307
450 10.9178
455 9.54401
460 8.72476
465 8.05253
470 7.56111
475 7.09378
480 6.76252
485 6.10947
490 5.5558
495 5.22213
500 4.67863
505 3.96656
510 3.77874
515 3.55979
520 3.09085
525 2.8915
530 2.45572
535 2.3636
540 2.14482
545 2.07217
550 1.8375
555 1.69801
560 1.53205
565 1.39207
570 1.23851
575 1.11123
580 0.99131
585 0.813455
590 0.773902
595 0.592622
600 1.22541
Ex : 373
200 0.304428
205 0.303716
210 0.33317
215 0.384108
220 0.388608
225 0.364271
230 0.387375
235 0.338726
240 0.354212
245 0.463675
250 0.379189
255 0.534484
260 0.43441
265 0.404785
270 0.487091
275 0.371671
280 0.349324
285 0.459962
290 0.414375
295 0.467169
300 0.408846
305 0.473893
310 0.47531
315 0.559541
320 0.55709
325 0.669123
330 0.73086
335 1.0153
340 1.18683
345 1.39484
350 1.95387
355 3.30901
360 84.3381
365 1400.54
370 2201.08
375 578.267
380 72.0553
385 14.9653
390 11.748
395 12.7051
400 11.719
405 11.0083
410 14.3899
415 19.025
420 17.8625
425 14.9918
430 11.8733
435 11.6818
440 11.8104
445 11.139
450 10.615
455 9.32248
460 8.57226
465 7.94127
470 7.43285
475 7.30389
480 6.78295
485 5.9303
490 5.59584
495 5.21264
500 4.52097
505 4.12552
510 3.97365
515 3.45718
520 3.10145
525 2.88887
530 2.7284
535 2.42969
540 2.09555
545 2.01005
550 1.86228
555 1.6056
560 1.55379
565 1.41959
570 1.04848
575 1.08581
580 0.905521
585 0.791549
590 0.751733
595 0.655273
600 1.61116
Ex : 378
200 0.360734
205 0.464709
210 0.341385
215 0.342425
220 0.37522
225 0.328365
230 0.282028
235 0.347144
240 0.319914
245 0.378407
250 0.359778
255 0.400749
260 0.340485
265 0.39125
270 0.390966
275 0.360524
280 0.354254
285 0.3462
290 0.314092
295 0.351571
300 0.380049
305 0.398939
310 0.402916
315 0.390876
320 0.479916
325 0.584657
330 0.540426
335 0.843554
340 0.820286
345 1.03936
350 1.52911
355 1.97054
360 2.97949
365 76.5874
370 1414.66
375 2267.52
380 597.405
385 75.7008
390 17.488
395 11.2975
400 9.45927
405 8.44228
410 9.93407
415 12.6329
420 14.9187
425 13.3341
430 11.0585
435 10.2726
440 9.68773
445 9.34555
450 8.84064
455 7.81455
460 7.2744
465 6.99658
470 6.83205
475 6.39215
480 6.0047
485 5.5531
490 5.15886
495 4.62542
500 4.27639
505 4.15512
510 3.65677
515 3.56326
520 3.02476
525 2.7913
530 2.57425
535 2.3175
540 2.04967
545 2.02667
550 1.68243
555 1.52339
560 1.43279
565 1.22594
570 1.17301
575 1.11783
580 0.921738
585 0.938047
590 0.683191
595 0.5955
600 0.301925
Ex : 383
200 0.334683
205 0.373746
210 0.320206
215 0.360755
220 0.394726
225 0.330748
230 0.360511
235 0.285389
240 0.315836
245 0.295702
250 0.387536
255 0.306155
260 0.373638
265 0.483796
270 0.473053
275 0.388279
280 0.40863
285 0.466867
290 0.474266
295 0.420204
300 0.430546
305 0.437351
310 0.418123
315 0.382054
320 0.373173
325 0.509889
330 0.540707
335 0.690683
340 0.784177
345 0.965924
350 1.12401
355 1.5181
360 1.86063
365 3.07102
370 73.9756
375 1399.74
380 2356.36
385 627.783
390 82.0294
395 17.9529
400 10.1691
405 9.53005
410 10.5228
415 11.0483
420 11.5341
425 12.7674
430 12.0769
435 10.8705
440 10.5074
445 9.59655
450 8.76056
455 8.22747
460 7.55621
465 7.04646
470 6.55864
475 6.27744
480 5.8413
485 5.45153
490 5.11273
495 4.72289
500 4.30646
505 3.98419
510 3.63456
515 3.16462
520 3.02803
525 2.6171
530 2.41942
535 2.30686
540 1.94375
545 1.90198
550 1.62086
555 1.55606
560 1.48403
565 1.36808
570 1.1461
575 0.917765
580 0.955965
585 0.708741
590 0.727603
595 0.658104
600 0.857444
Ex : 388
200 0.319801
205 0.327738
210 0.350674
215 0.312418
220 0.322959
225 0.409021
230 0.347324
235 0.292942
240 0.405892
245 0.376069
250 0.344097
255 0.35265
260 0.354285
265 0.274617
270 0.333447
275 0.388744
280 0.415473
285 0.417512
290 0.401769
295 0.407166
300 0.362698
305 0.311978
310 0.395014
315 0.384804
320 0.433546
325 0.455519
330 0.522533
335 0.543159
340 0.682505
345 0.769853
350 0.922132
355 1.07377
360 1.34532
365 1.84509
370 3.11031
375 79.6335
380 1448.25
385 2382.22
390 633.591
395 84.3962
400 19.192
405 12.0539
410 12.8517
415 13.9513
420 12.8646
425 11.6767
430 12.7852
435 13.9431
440 12.7512
445 11.3244
450 10.0677
455 8.87209
460 8.18556
465 7.51106
470 7.48265
475 6.82044
480 6.24645
485 5.54526
490 5.32677
495 5.00981
500 4.4915
505 3.97243
510 3.75792
515 3.43537
520 3.1774
525 2.75843
530 2.58329
535 2.28278
540 2.07511
545 2.0021
550 1.74518
555 1.61938
560 1.35294
565 1.33157
570 1.19598
575 0.885242
580 0.856859
585 0.862709
590 0.689455
595 0.686138
600 0.683374
Ex : 393
200 0.284432
205 0.394389
210 0.316038
215 0.379118
220 0.363089
225 0.351572
230 0.289467
235 0.25776
240 0.306455
245 0.366477
250 0.322043
255 0.305901
260 0.308437
265 0.420753
270 0.361785
275 0.342212
280 0.396311
285 0.320222
290 0.360258
295 0.377483
300 0.369536
305 0.345895
310 0.445832
315 0.372146
320 0.3906
325 0.428748
330 0.548608
335 0.493654
340 0.626766
345 0.606024
350 0.717322
355 0.918552
360 0.95203
365 1.39738
370 1.86132
375 3.22732
380 70.1872
385 1444.43
390 2431.53
395 654.335
400 86.8054
405 19.49
410 12.8633
415 14.1278
420 13.7869
425 11.91
430 10.3368
435 11.1879
440 13.5248
445 12.4606
450 10.7743
455 8.56434
460 7.52557
465 7.04419
470 6.94613
475 6.38758
480 5.95303
485 5.43124
490 5.0681
495 4.60176
500 4.11137
505 3.80016
510 3.61555
515 3.35684
520 2.9452
525 2.66683
530 2.4576
535 2.37504
540 2.04729
545 1.7969
550 1.55769
555 1.48443
560 1.38388
565 1.246
570 1.12769
575 1.0621
580 0.7611
585 0.661884
590 0.666903
595 0.513835
600 0.171605
Ex : 398
200 0.29526
205 0.321851
210 0.340091
215 0.297401
220 0.26993
225 0.412684
230 0.35835
235 0.268458
240 0.28548
245 0.350369
250 0.36018
255 0.355845
260 0.351708
265 0.374154
270 0.335078
275 0.293347
280 0.325694
285 0.355345
290 0.302722
295 0.340769
300 0.345782
305 0.35319
310 0.342225
315 0.325445
320 0.390844
325 0.485923
330 0.50195
335 0.479986
340 0.527258
345 0.528012
350 0.609394
355 0.745791
360 0.808412
365 1.11364
370 1.34517
375 1.81659
380 3.1873
385 74.8735
390 1475.36
395 2485.54
400 656.638
405 83.4416
410 17.3185
415 10.6793
420 9.81427
425 8.3426
430 6.88469
435 6.89816
440 7.75689
445 10.3317
450 9.33315
455 7.49446
460 6.34089
465 5.71191
470 5.2667
475 5.30088
480 4.74995
485 4.54517
490 4.21657
495 4.05697
500 3.65229
505 3.47848
510 3.15492
515 3.01411
520 2.81627
525 2.59649
530 2.17562
535 2.0475
540 1.95843
545 1.68299
550 1.63563
555 1.343
560 1.26107
565 1.0042
570 0.999765
575 0.879492
580 0.8366
585 0.712482
590 0.656448
595 0.49002
600 0.456949
Ex : 403
200 0.348736
205 0.307538
210 0.272595
215 0.328132
220 0.291471
225 0.301562
230 0.320769
235 0.329998
240 0.339197
245 0.361132
250 0.325065
255 0.330598
260 0.373007
265 0.299997
270 0.27428
275 0.368933
280 0.342396
285 0.335543
290 0.326268
295 0.319004
300 0.334578
305 0.314238
310 0.347232
315 0.416387
320 0.378379
325 0.384271
330 0.467933
335 0.52173
340 0.475877
345 0.568709
350 0.537604
355 0.654067
360 0.662899
365 0.921879
370 1.11984
375 1.35167
380 1.86646
385 3.2146
390 83.2934
395 1517.6
400 2476.69
405 659.899
410 81.7527
415 14.8649
420 6.99273
425 5.59478
430 4.94724
435 4.72998
440 4.97578
445 5.84932
450 7.29458
455 7.44288
460 5.89952
465 5.42765
470 4.67988
475 4.3835
480 4.18783
485 4.08039
490 4.13639
495 3.63957
500 3.3399
505 3.25472
510 3.05469
515 2.75379
520 2.51797
525 2.44439
530 2.17348
535 2.0252
540 1.92656
545 1.90072
550 1.45671
555 1.31446
560 1.24017
565 1.08381
570 0.933054
575 0.881173
580 0.752997
585 0.694765
590 0.650523
595 0.572196
600 0.51873
Ex : 408
200 0.402871
205 0.278955
210 0.316985
215 0.308722
220 0.306237
225 0.312505
230 0.300569
235 0.334189
240 0.284077
245 0.303724
250 0.30064
255 0.318717
260 0.341
265 0.32319
270 0.271186
275 0.270032
280 0.282934
285 0.272599
290 0.312525
295 0.311504
300 0.324161
305 0.333343
310 0.386554
315 0.352255
320 0.33103
325 0.392795
330 0.457976
335 0.513812
340 0.46101
345 0.463264
350 0.535033
355 0.563954
360 0.668153
365 0.792842
370 0.769798
375 1.02828
380 1.43548
385 2.08171
390 3.30124
395 80.1143
400 1551.4
405 2529.28
410 653.43
415 81.0887
420 14.3736
425 6.12131
430 4.98462
435 4.93407
440 4.67233
445 4.87036
450 4.78882
455 6.38238
460 7.03674
465 6.1169
470 5.23103
475 4.80774
480 4.35585
485 3.97924
490 3.70673
495 3.89067
500 3.41654
505 3.26349
510 2.89178
515 2.69693
520 2.47452
525 2.44148
530 2.09872
535 2.03452
540 1.82451
545 1.62608
550 1.50779
555 1.37972
560 1.23271
565 1.21091
570 1.01102
575 0.999534
580 0.875277
585 0.714498
590 0.584054
595 0.529322
600 0.5499
Ex : 413
200 0.274982
205 0.279199
210 0.256632
215 0.297816
220 0.274908
225 0.285791
230 0.267591
235 0.232875
240 0.302702
245 0.319141
250 0.286086
255 0.270105
260 0.345738
265 0.338365
270 0.315008
275 0.345024
280 0.305629
285 0.42122
290 0.309046
295 0.333421
300 0.307644
305 0.328575
310 0.336116
315 0.349313
320 0.32215
325 0.444341
330 0.445712
335 0.502444
340 0.47806
345 0.532995
350 0.497574
355 0.616497
360 0.669522
365 0.69677
370 0.760936
375 0.800697
380 1.13295
385 1.33501
390 2.03955
395 3.23636
400 91.3573
405 1600.05
410 2536.06
415 637.441
420 78.7803
425 13.5498
430 5.5028
435 4.83674
440 4.42752
445 4.29187
450 4.06761
455 4.06499
460 5.06562
465 6.85884
470 6.08928
475 4.91583
480 4.50496
485 3.96429
490 3.26893
495 3.23631
500 3.3381
505 3.05275
510 2.98045
515 2.60053
520 2.36801
525 2.22332
530 2.1615
535 2.03805
540 1.81197
545 1.63178
550 1.51465
555 1.39637
560 1.35251
565 1.07081
570 0.971665
575 0.894824
580 0.67631
585 0.692597
590 0.677031
595 0.540981
600 0.554549
Ex : 418
200 0.339536
205 0.250392
210 0.307136
215 0.26569
220 0.301658
225 0.310952
230 0.325651
235 0.306335
240 0.299311
245 0.28647
250 0.29423
255 0.27053
260 0.327047
265 0.290448
270 0.285084
275 0.358676
280 0.402794
285 0.300526
290 0.302969
295 0.285153
300 0.331257
305 0.337451
310 0.335785
315 0.329465
320 0.370379
325 0.385613
330 0.438599
335 0.432721
340 0.496555
345 0.514522
350 0.476942
355 0.527219
360 0.532298
365 0.625993
370 0.730988
375 0.759929
380 0.889278
385 1.07462
390 1.31728
395 1.99778
400 3.37599
405 86.071
410 1595.18
415 2566.93
420 664.633
425 81.1393
430 12.9585
435 4.73942
440 4.23486
445 3.69651
450 3.36774
455 3.17315
460 3.29373
465 3.82584
470 5.58403
475 5.47823
480 4.27828
485 3.96139
490 3.48728
495 2.96179
500 2.86174
505 2.66693
510 2.57598
515 2.44802
520 2.21947
525 2.12016
530 1.84426
535 1.75362
540 1.77229
545 1.5462
550 1.3408
555 1.28949
560 1.2048
565 1.05776
570 0.96403
575 0.877667
580 0.789308
585 0.67837
590 0.56376
595 0.484323
600 0.711022
Ex : 423
200 0.291994
205 0.294848
210 0.280823
215 0.267408
220 0.307717
225 0.274795
230 0.298368
235 0.31255
240 0.331084
245 0.342291
250 0.347133
255 0.349201
260 0.296294
265 0.295615
270 0.322503
275 0.390985
280 0.405368
285 0.303255
290 0.295856
295 0.313686
300 0.382586
305 0.336802
310 0.334982
315 0.343695
320 0.30721
325 0.404298
330 0.350662
335 0.393122
340 0.442657
345 0.445182
350 0.464226
355 0.56514
360 0.53993
365 0.509631
370 0.624464
375 0.598973
380 0.706289
385 0.881678
390 1.22058
395 1.51668
400 2.09563
405 3.38507
410 88.9022
415 1658.55
420 2562.27
425 632.975
430 76.9901
435 12.2317
440 4.28289
445 3.49988
450 3.00356
455 2.70778
460 2.51172
465 2.51577
470 2.84033
475 4.60583
480 5.27368
485 4.04081
490 3.47021
495 3.15139
500 2.86599
505 2.41023
510 2.34525
515 2.14356
520 2.08375
525 1.88946
530 1.70027
535 1.59673
540 1.47524
545 1.46466
550 1.38066
555 1.31894
560 1.13589
565 1.05016
570 0.989617
575 0.851791
580 0.782963
585 0.639983
590 0.525238
595 0.550307
600 0.590824
Ex : 428
200 0.254057
205 0.251617
210 0.289599
215 0.307018
220 0.282328
225 0.233883
230 0.2849
235 0.356196
240 0.356192
245 0.342848
250 0.325901
255 0.315873
260 0.322857
265 0.358905
270 0.342124
275 0.331053
280 0.345314
285 0.32569
290 0.366029
295 0.358369
300 0.282075
305 0.327716
310 0.2796
315 0.235327
320 0.376653
325 0.380961
330 0.417546
335 0.42201
340 0.434304
345 0.467283
350 0.463679
355 0.461242
360 0.52476
365 0.446966
370 0.61673
375 0.629574
380 0.692649
385 0.801163
390 1.01012
395 1.17003
400 1.50102
405 2.17875
410 3.35459
415 97.3656
420 1670.28
425 2602.03
430 665.061
435 80.7578
440 12.4676
445 4.2461
450 3.36237
455 2.88025
460 2.42538
465 2.43597
470 2.3715
475 2.46725
480 3.75105
485 5.01109
490 4.08544
495 3.4055
500 2.98332
505 2.53118
510 2.22931
515 2.04496
520 1.93163
525 1.80379
530 1.68914
535 1.58798
540 1.61476
545 1.49903
550 1.42311
555 1.2889
560 1.11506
565 1.08561
570 0.985997
575 0.893832
580 0.731675
585 0.659226
590 0.669937
595 0.56282
600 0.873446
Ex : 433
200 0.255786
205 0.253793
210 0.244128
215 0.334355
220 0.274307
225 0.277492
230 0.285395
235 0.294893
240 0.263565
245 0.305931
250 0.327178
255 0.313465
260 0.288213
265 0.425122
270 0.328216
275 0.344943
280 0.271067
285 0.320774
290 0.359173
295 0.302835
300 0.326125
305 0.361096
310 0.313303
315 0.266346
320 0.393139
325 0.363525
330 0.338866
335 0.400022
340 0.419235
345 0.434685
350 0.395262
355 0.437473
360 0.579653
365 0.557857
370 0.609716
375 0.606756
380 0.701729
385 0.789004
390 0.830174
395 0.990271
400 1.1925
405 1.63785
410 2.06892
415 3.49521
420 108.171
425 1790.53
430 2637.22
435 643.884
440 78.1043
445 12.5691
450 3.92187
455 3.06796
460 2.8471
465 2.71132
470 2.13096
475 2.23839
480 2.33631
485 3.20656
490 4.80184
495 4.08395
500 3.03791
505 2.88396
510 2.40493
515 2.0798
520 1.97441
525 1.93445
530 1.75668
535 1.56459
540 1.55654
545 1.45889
550 1.28516
555 1.25531
560 1.16471
565 1.00343
570 1.00502
575 0.872055
580 0.666268
585 0.589818
590 0.630361
595 0.553694
600 0.34127
Ex : 438
200 0.230966
205 0.351918
210 0.295418
215 0.33044
220 0.352208
225 0.312846
230 0.3225
235 0.27735
240 0.268275
245 0.31852
250 0.319728
255 0.304158
260 0.336627
265 0.334785
270 0.288445
275 0.324759
280 0.3186
285 0.408559
290 0.350668
295 0.466521
300 0.387537
305 0.38304
310 0.325429
315 0.364439
320 0.433656
325 0.316996
330 0.361218
335 0.41918
340 0.423492
345 0.404926
350 0.457843
355 0.492113
360 0.598395
365 0.537578
370 0.53079
375 0.595351
380 0.578353
385 0.76223
390 0.77636
395 0.897564
400 0.969018
405 1.22006
410 1.59104
415 2.26904
420 3.57786
425 100.741
430 1767.28
435 2787.07
440 680.641
445 82.42
450 12.8328
455 3.99955
460 3.09538
465 2.83936
470 2.61088
475 1.97546
480 2.08765
485 2.2899
490 2.74865
495 4.07976
500 4.38571
505 3.11936
510 2.73025
515 2.23486
520 2.02953
525 1.83459
530 1.5864
535 1.71638
540 1.65087
545 1.56246
550 1.38748
555 1.26656
560 1.10473
565 1.1077
570 1.02546
575 0.863507
580 0.774997
585 0.731139
590 0.568745
595 0.630494
600 1.74173
Ex : 443
200 0.306838
205 0.31172
210 0.394788
215 0.313578
220 0.345533
225 0.291743
230 0.32675
235 0.314162
240 0.277522
245 0.318482
250 0.327055
255 0.349376
260 0.325663
265 0.301066
270 0.379729
275 0.339587
280 0.355765
285 0.364123
290 0.350075
295 0.378545
300 0.486615
305 0.338729
310 0.3604
315 0.335254
320 0.363513
325 0.349926
330 0.420597
335 0.427373
340 0.481517
345 0.409204
350 0.440169
355 0.538726
360 0.410797
365 0.545825
370 0.545813
375 0.561384
380 0.629827
385 0.737161
390 0.739718
395 0.753561
400 0.84925
405 1.04774
410 1.3226
415 1.57428
420 2.2772
425 3.47937
430 114.068
435 1885.3
440 2808.95
445 686.284
450 83.2519
455 13.0114
460 4.20958
465 3.3435
470 3.10828
475 2.38424
480 2.29421
485 2.15517
490 2.14329
495 2.22002
500 3.57088
505 4.24148
510 3.18464
515 2.44429
520 2.39161
525 1.98415
530 1.82031
535 1.54694
540 1.47169
545 1.47854
550 1.32754
555 1.27335
560 1.19496
565 1.09563
570 1.00238
575 0.845324
580 0.818575
585 0.698214
590 0.539925
595 0.468015
600 0.0653981
Ex : 448
200 0.328651
205 0.348075
210 0.313994
215 0.306469
220 0.358049
225 0.40973
230 0.29764
235 0.361681
240 0.351526
245 0.315477
250 0.338232
255 0.366095
260 0.316261
265 0.375025
270 0.316264
275 0.400735
280 0.315999
285 0.29456
290 0.292822
295 0.409815
300 0.357344
305 0.304398
310 0.336175
315 0.393614
320 0.373374
325 0.448085
330 0.444932
335 0.351832
340 0.406158
345 0.490408
350 0.481112
355 0.519539
360 0.49296
365 0.52199
370 0.536307
375 0.630215
380 0.577236
385 0.635426
390 0.661229
395 0.697707
400 0.794421
405 0.93343
410 1.07022
415 1.37928
420 1.69234
425 2.46675
430 3.54573
435 117.352
440 1994.74
445 2966.53
450 722.877
455 87.2716
460 13.9963
465 4.57564
470 3.1961
475 2.8485
480 2.55056
485 2.14164
490 2.02413
495 1.84444
500 1.99956
505 2.89058
510 4.12786
515 3.37697
520 2.59038
525 2.30633
530 2.10113
535 1.63638
540 1.61911
545 1.47835
550 1.35557
555 1.24816
560 1.18389
565 1.07769
570 0.941847
575 0.887504
580 0.801413
585 0.689522
590 0.59307
595 0.626389
600 0.255153
Ex : 453
200 0.340994
205 0.265504
210 0.317385
215 0.28449
220 0.30668
225 0.278447
230 0.321171
235 0.31707
240 0.335392
245 0.269371
250 0.32377
255 0.402855
260 0.315474
265 0.282117
270 0.302214
275 0.277499
280 0.295448
285 0.318408
290 0.329448
295 0.332277
300 0.336695
305 0.402163
310 0.346366
315 0.334225
320 0.404153
325 0.443224
330 0.301819
335 0.411575
340 0.45194
345 0.442187
350 0.418708
355 0.362547
360 0.525697
365 0.476121
370 0.568
375 0.571048
380 0.475623
385 0.565105
390 0.567698
395 0.629147
400 0.773491
405 0.795208
410 0.772577
415 1.03591
420 1.27025
425 1.64885
430 2.26641
435 3.75302
440 122.885
445 2148.37
450 3063.11
455 705.037
460 85.603
465 13.6283
470 4.31163
475 3.0084
480 2.80934
485 2.27776
490 1.99499
495 1.94738
500 1.82973
505 1.8675
510 2.28822
515 3.36901
520 3.32592
525 2.49915
530 2.26382
535 2.06719
540 1.71553
545 1.37667
550 1.3492
555 1.36884
560 1.12994
565 1.08333
570 0.94232
575 0.888544
580 0.845857
585 0.668295
590 0.647285
595 0.600967
600 0.8917
Ex : 458
200 0.307717
205 0.308913
210 0.255889
215 0.307198
220 0.293886
225 0.337315
230 0.30237
235 0.28419
240 0.328479
245 0.288617
250 0.28141
255 0.376978
260 0.365541
265 0.332903
270 0.335393
275 0.345149
280 0.386216
285 0.306319
290 0.34591
295 0.344892
300 0.34388
305 0.307308
310 0.34495
315 0.367417
320 0.338277
325 0.440757
330 0.360694
335 0.455843
340 0.422502
345 0.436198
350 0.476144
355 0.470861
360 0.503027
365 0.527203
370 0.50569
375 0.532702
380 0.520472
385 0.594757
390 0.680536
395 0.648803
400 0.652459
405 0.755501
410 0.745794
415 0.820193
420 0.984377
425 1.16342
430 1.70151
435 2.21541
440 3.66049
445 135.634
450 2205.28
455 3217.42
460 760.743
465 92.3615
470 14.4028
475 4.29958
480 2.89438
485 2.65052
490 2.32347
495 2.02772
500 1.8464
505 1.90289
510 1.88492
515 2.1274
520 2.94686
525 3.5865
530 2.78208
535 2.2249
540 2.05791
545 1.79898
550 1.56057
555 1.33664
560 1.35936
565 1.16673
570 1.04868
575 0.948519
580 0.85238
585 0.761313
590 0.688517
595 0.578281
600 0.578559
Ex : 463
200 0.234413
205 0.3523
210 0.345359
215 0.368191
220 0.359789
225 0.298206
230 0.314074
235 0.342993
240 0.319342
245 0.366602
250 0.313111
255 0.310041
260 0.290566
265 0.278144
270 0.337322
275 0.378084
280 0.350255
285 0.336457
290 0.320668
295 0.370162
300 0.377274
305 0.359135
310 0.376525
315 0.304436
320 0.320206
325 0.348149
330 0.349032
335 0.359392
340 0.441745
345 0.378234
350 0.353433
355 0.441208
360 0.384101
365 0.454873
370 0.506288
375 0.544133
380 0.463112
385 0.617831
390 0.604126
395 0.537497
400 0.647172
405 0.644919
410 0.704296
415 0.867786
420 0.946747
425 1.01414
430 1.24767
435 1.58887
440 2.22956
445 3.83272
450 133.604
455 2291.43
460 3438.58
465 808.367
470 97.5414
475 14.5478
480 4.36199
485 2.92113
490 2.5672
495 2.39739
500 2.11621
505 1.81496
510 1.64792
515 1.71164
520 1.88554
525 2.53003
530 3.45485
535 3.17559
540 2.22601
545 1.8867
550 1.90392
555 1.54417
560 1.26133
565 1.16412
570 0.98404
575 0.870532
580 0.828543
585 0.723558
590 0.691089
595 0.669267
600 0.57543
Ex : 468
200 0.339596
205 0.268341
210 0.29418
215 0.391822
220 0.361874
225 0.270374
230 0.285585
235 0.317025
240 0.260284
245 0.236181
250 0.382675
255 0.345133
260 0.326657
265 0.326778
270 0.381502
275 0.366676
280 0.314271
285 0.307352
290 0.318738
295 0.382374
300 0.335742
305 0.352808
310 0.346004
315 0.288914
320 0.397071
325 0.378641
330 0.35328
335 0.412259
340 0.43581
345 0.396252
350 0.361764
355 0.428192
360 0.408328
365 0.495519
370 0.449468
375 0.492782
380 0.545696
385 0.536
390 0.477455
395 0.600515
400 0.618907
405 0.542504
410 0.587448
415 0.762061
420 0.766693
425 0.872591
430 0.977058
435 1.08772
440 1.56764
445 2.25865
450 3.60766
455 143.819
460 2308.95
465 3584.9
470 843.653
475 100.86
480 14.823
485 4.29683
490 2.67033
495 2.39638
500 2.12802
505 1.89874
510 1.83558
515 1.65394
520 1.80296
525 1.77438
530 2.15533
535 3.13929
540 3.30601
545 2.3687
550 1.8798
555 1.73312
560 1.49326
565 1.2083
570 1.07328
575 0.925334
580 0.843833
585 0.679388
590 0.696746
595 0.624317
600 0.88465
Ex : 473
200 0.273742
205 0.301615
210 0.315242
215 0.285726
220 0.324543
225 0.308955
230 0.376722
235 0.360318
240 0.35106
245 0.324823
250 0.35776
255 0.331102
260 0.340727
265 0.306039
270 0.34058
275 0.333347
280 0.307341
285 0.33466
290 0.355303
295 0.31482
300 0.318552
305 0.384404
310 0.394978
315 0.384724
320 0.460896
325 0.355642
330 0.45111
335 0.435384
340 0.44186
345 0.407673
350 0.422376
355 0.445189
360 0.379304
365 0.471339
370 0.513868
375 0.471678
380 0.494295
385 0.563812
390 0.596303
395 0.638327
400 0.609429
405 0.673058
410 0.693292
415 0.773472
420 0.833863
425 0.786405
430 1.00241
435 0.978879
440 1.28595
445 1.77341
450 2.31427
455 3.85157
460 166.387
465 2533.46
470 3504.76
475 791.146
480 94.8523
485 14.2379
490 4.19847
495 2.49172
500 2.30406
505 2.22238
510 1.89578
515 1.90649
520 1.68304
525 1.86836
530 1.88472
535 2.00539
540 2.80477
545 3.17928
550 2.27094
555 1.77732
560 1.71553
565 1.34245
570 1.10653
575 1.008
580 0.890652
585 0.845966
590 0.68779
595 0.704094
600 0.434072
Ex : 478
200 0.370589
205 0.357265
210 0.369145
215 0.3572
220 0.391158
225 0.328386
230 0.332978
235 0.326651
240 0.402952
245 0.409217
250 0.364897
255 0.353482
260 0.386442
265 0.332744
270 0.376498
275 0.341597
280 0.385194
285 0.32586
290 0.38452
295 0.38016
300 0.479999
305 0.439296
310 0.384959
315 0.372053
320 0.50409
325 0.425313
330 0.450403
335 0.467243
340 0.434845
345 0.462731
350 0.528973
355 0.49748
360 0.511496
365 0.554552
370 0.481737
375 0.531953
380 0.579314
385 0.456299
390 0.640765
395 0.6554
400 0.653225
405 0.708155
410 0.696407
415 0.697796
420 0.849586
425 0.939576
430 0.793245
435 1.02631
440 1.13752
445 1.48479
450 2.13599
455 3.02764
460 4.9541
465 183.846
470 2621.24
475 3598.06
480 848.109
485 101.874
490 14.9885
495 4.50367
500 2.52374
505 2.33801
510 2.16377
515 2.06064
520 1.86843
525 1.94066
530 1.7275
535 1.68569
540 1.80917
545 2.5211
550 3.04762
555 2.52706
560 1.71374
565 1.5868
570 1.56919
575 1.17351
580 0.896921
585 0.845104
590 0.737195
595 0.675799
600 0.455788
Ex : 483
200 0.360483
205 0.332632
210 0.435172
215 0.393214
220 0.392087
225 0.48584
230 0.416054
235 0.38332
240 0.387036
245 0.387435
250 0.359224
255 0.390998
260 0.38345
265 0.334594
270 0.375688
275 0.460716
280 0.38358
285 0.381391
290 0.390103
295 0.410694
300 0.392977
305 0.388367
310 0.378081
315 0.442147
320 0.404396
325 0.449284
330 0.446095
335 0.407419
340 0.499095
345 0.463321
350 0.605806
355 0.496386
360 0.482309
365 0.52557
370 0.490807
375 0.445191
380 0.559005
385 0.622527
390 0.620617
395 0.583172
400 0.642568
405 0.728776
410 0.747566
415 0.60802
420 0.655806
425 0.724245
430 0.794231
435 0.955805
440 1.07546
445 1.21948
450 1.49365
455 2.00967
460 3.0299
465 4.90989
470 143.467
475 2562.43
480 3827.7
485 895.876
490 107.242
495 15.7242
500 4.53
505 2.43993
510 2.20501
515 2.35016
520 2.21258
525 1.97362
530 1.96077
535 1.86347
540 1.76386
545 1.76523
550 1.83755
555 2.81391
560 2.82195
565 2.03363
570 1.60026
575 1.36109
580 1.13436
585 0.937805
590 0.787286
595 0.654614
600 0.950993
Ex : 488
200 0.476543
205 0.431816
210 0.397135
215 0.387369
220 0.475924
225 0.427816
230 0.472479
235 0.433962
240 0.437028
245 0.345589
250 0.409849
255 0.410285
260 0.429305
265 0.458659
270 0.466882
275 0.393938
280 0.462746
285 0.331136
290 0.355658
295 0.488852
300 0.42129
305 0.43469
310 0.459017
315 0.445209
320 0.488234
325 0.579963
330 0.490628
335 0.43434
340 0.504163
345 0.443534
350 0.48238
355 0.502824
360 0.508979
365 0.54789
370 0.638444
375 0.647022
380 0.54794
385 0.582837
390 0.541584
395 0.573809
400 0.654305
405 0.609231
410 0.724412
415 0.699034
420 0.734173
425 0.847521
430 0.75984
435 0.974896
440 0.967572
445 1.14922
450 1.38892
455 1.68507
460 2.25462
465 3.39287
470 4.75548
475 175.573
480 2768.47
485 3777.22
490 865.185
495 103.777
500 15.3314
505 4.31715
510 2.65955
515 2.49937
520 2.2846
525 2.23863
530 2.08147
535 1.91724
540 1.71771
545 1.76334
550 1.81169
555 1.69137
560 2.26348
565 2.48068
570 1.87775
575 1.36719
580 1.16869
585 0.985721
590 0.878826
595 0.683715
600 0.840477
Ex : 493
200 0.395731
205 0.397985
210 0.374531
215 0.392103
220 0.377488
225 0.443699
230 0.437531
235 0.472183
240 0.377335
245 0.435696
250 0.4274
255 0.376158
260 0.455297
265 0.412591
270 0.470961
275 0.343412
280 0.382369
285 0.433925
290 0.426885
295 0.434072
300 0.46464
305 0.42339
310 0.403918
315 0.418542
320 0.403228
325 0.519217
330 0.512287
335 0.537498
340 0.513525
345 0.542029
350 0.498808
355 0.569197
360 0.510971
365 0.561253
370 0.493443
375 0.549858
380 0.548486
385 0.539024
390 0.595344
395 0.610688
400 0.653918
405 0.687678
410 0.631362
415 0.767739
420 0.784827
425 0.800876
430 0.716017
435 0.805753
440 0.933216
445 0.966838
450 1.13566
455 1.36951
460 1.75308
465 2.4967
470 3.17389
475 4.60938
480 161.582
485 2724.37
490 3969.38
495 893.233
500 106.465
505 15.4017
510 4.47461
515 2.60387
520 2.40089
525 2.48119
530 2.19197
535 2.06907
540 1.86724
545 1.72859
550 1.62865
555 1.60355
560 1.60974
565 1.79886
570 2.18007
575 1.95405
580 1.1887
585 1.11354
590 0.977211
595 0.852866
600 1.41746
Ex : 498
200 0.447605
205 0.412967
210 0.45939
215 0.383518
220 0.410374
225 0.437948
230 0.449441
235 0.493256
240 0.555741
245 0.497851
250 0.540337
255 0.438867
260 0.455799
265 0.417546
270 0.393055
275 0.410584
280 0.510193
285 0.429975
290 0.426354
295 0.477112
300 0.499518
305 0.456915
310 0.435945
315 0.486423
320 0.52249
325 0.415408
330 0.481391
335 0.455264
340 0.617292
345 0.610593
350 0.574957
355 0.460176
360 0.545311
365 0.62327
370 0.663592
375 0.564923
380 0.639714
385 0.657518
390 0.593832
395 0.638666
400 0.684916
405 0.682265
410 0.758675
415 0.642873
420 0.789881
425 0.685677
430 0.826821
435 0.86212
440 0.851908
445 1.0849
450 1.07983
455 1.26154
460 1.61689
465 2.00947
470 2.45281
475 3.42567
480 5.15362
485 194.335
490 2877.63
495 3833.25
500 867.48
505 103.929
510 15.3034
515 4.63418
520 2.69112
525 2.37932
530 2.28324
535 2.21109
540 1.94057
545 1.79347
550 1.76813
555 1.65489
560 1.48312
565 1.49539
570 1.40299
575 1.77855
580 1.74339
585 1.36013
590 1.03474
595 0.925285
600 0.564221
Ex : 503
200 0.395854
205 0.395658
210 0.433738
215 0.48202
220 0.472436
225 0.46477
230 0.41166
235 0.421959
240 0.473736
245 0.499061
250 0.511952
255 0.516353
260 0.39883
265 0.448661
270 0.518033
275 0.48597
280 0.425051
285 0.475385
290 0.376534
295 0.459455
300 0.441242
305 0.397
310 0.476611
315 0.47883
320 0.460395
325 0.515386
330 0.486287
335 0.509113
340 0.639867
345 0.561204
350 0.539062
355 0.532775
360 0.706092
365 0.582226
370 0.471236
375 0.645263
380 0.574814
385 0.660211
390 0.656564
395 0.560878
400 0.609398
405 0.6793
410 0.730252
415 0.654492
420 0.773628
425 0.789117
430 0.800696
435 0.877905
440 0.817836
445 0.965646
450 1.03828
455 1.09804
460 1.42407
465 1.58468
470 1.85285
475 2.2655
480 3.58514
485 5.12997
490 175.014
495 2844.58
500 3937.28
505 887.078
510 106.491
515 15.6055
520 4.88924
525 2.87433
530 2.49349
535 2.36627
540 2.21626
545 1.89977
550 1.79172
555 1.50718
560 1.60723
565 1.38253
570 1.26114
575 1.17777
580 1.39935
585 1.70529
590 1.2596
595 0.957917
600 1.27947
Ex : 508
200 0.452472
205 0.445532
210 0.483304
215 0.461417
220 0.446916
225 0.43702
230 0.461078
235 0.443466
240 0.529946
245 0.466955
250 0.430659
255 0.52239
260 0.469193
265 0.479117
270 0.490791
275 0.49198
280 0.445254
285 0.500661
290 0.427135
295 0.409006
300 0.452499
305 0.54898
310 0.527437
315 0.471513
320 0.465907
325 0.501016
330 0.451069
335 0.519738
340 0.490052
345 0.554009
350 0.467597
355 0.555226
360 0.479262
365 0.470112
370 0.451285
375 0.669958
380 0.55505
385 0.55954
390 0.546812
395 0.703178
400 0.548587
405 0.725329
410 0.713012
415 0.649782
420 0.720129
425 0.744447
430 0.723765
435 0.802168
440 0.761633
445 0.973397
450 0.963582
455 0.997313
460 1.25021
465 1.30757
470 1.51989
475 1.67073
480 2.28388
485 3.41544
490 5.35082
495 190.082
500 2845
505 3907.96
510 922.636
515 110.499
520 16.3518
525 4.90843
530 3.05631
535 2.38453
540 2.34303
545 2.03966
550 2.08428
555 1.66478
560 1.4843
565 1.45264
570 1.32927
575 1.11295
580 1.08124
585 1.09446
590 1.31964
595 1.34392
600 0.735048
Ex : 513
200 0.481534
205 0.521074
210 0.432322
215 0.493958
220 0.604159
225 0.460995
230 0.461881
235 0.474209
240 0.448402
245 0.454676
250 0.471487
255 0.422567
260 0.488255
265 0.476058
270 0.566336
275 0.522906
280 0.568644
285 0.520856
290 0.480416
295 0.49407
300 0.536348
305 0.417418
310 0.507333
315 0.483482
320 0.444785
325 0.535247
330 0.468998
335 0.575025
340 0.636227
345 0.582619
350 0.58097
355 0.547581
360 0.58238
365 0.548286
370 0.609615
375 0.577525
380 0.631037
385 0.720191
390 0.713044
395 0.619374
400 0.723842
405 0.725783
410 0.674248
415 0.66546
420 0.650408
425 0.716896
430 0.706844
435 0.808067
440 0.825121
445 0.896121
450 0.907741
455 1.06911
460 1.19934
465 1.36425
470 1.47916
475 1.62223
480 1.88947
485 2.31278
490 3.38264
495 5.015
500 172.903
505 2782.42
510 3964.17
515 950.385
520 113.689
525 16.6489
530 4.7256
535 2.68446
540 2.37203
545 2.22031
550 2.07697
555 1.84186
560 1.6888
565 1.43675
570 1.41757
575 1.15059
580 1.10416
585 0.976666
590 0.958591
595 1.25647
600 1.14439
Ex : 518
200 0.540711
205 0.532758
210 0.457343
215 0.465131
220 0.390212
225 0.381503
230 0.545418
235 0.495302
240 0.439422
245 0.504485
250 0.502548
255 0.60312
260 0.540118
265 0.529649
270 0.463777
275 0.461598
280 0.569416
285 0.632343
290 0.464016
295 0.488596
300 0.495893
305 0.547837
310 0.552127
315 0.469705
320 0.588808
325 0.482526
330 0.525323
335 0.546833
340 0.508533
345 0.573541
350 0.562311
355 0.528499
360 0.564616
365 0.578832
370 0.610724
375 0.523813
380 0.470309
385 0.608795
390 0.534129
395 0.703018
400 0.632221
405 0.652964
410 0.648137
415 0.643568
420 0.844246
425 0.795051
430 0.740386
435 0.864972
440 0.857608
445 0.848577
450 0.769824
455 0.920047
460 1.1621
465 1.24347
470 1.24406
475 1.30165
480 1.6997
485 1.80743
490 2.24467
495 3.32106
500 4.98997
505 176.234
510 2693.33
515 3916.74
520 947.007
525 113.526
530 16.4907
535 4.61753
540 2.86723
545 2.14546
550 1.90919
555 1.86702
560 1.6407
565 1.68609
570 1.22789
575 1.22681
580 1.11605
585 0.964744
590 0.914198
595 0.88447
600 0.557598
Ex : 523
200 0.489676
205 0.560787
210 0.459556
215 0.495228
220 0.465599
225 0.587942
230 0.501108
235 0.394148
240 0.387281
245 0.471098
250 0.571491
255 0.495527
260 0.593651
265 0.496776
270 0.508857
275 0.445201
280 0.603071
285 0.522778
290 0.482153
295 0.597434
300 0.465202
305 0.454929
310 0.470217
315 0.427043
320 0.504345
325 0.505293
330 0.582086
335 0.686639
340 0.576705
345 0.674188
350 0.602448
355 0.563758
360 0.528086
365 0.546
370 0.514648
375 0.588919
380 0.748686
385 0.620793
390 0.582617
395 0.691862
400 0.700031
405 0.683808
410 0.687314
415 0.737587
420 0.791916
425 0.76212
430 0.906516
435 0.796124
440 0.854995
445 0.801924
450 0.843949
455 0.878089
460 1.18079
465 1.12655
470 1.04909
475 1.36586
480 1.51124
485 1.55132
490 1.95384
495 2.52417
500 3.3885
505 4.75868
510 159.443
515 2584.84
520 3854.9
525 964.198
530 115.13
535 16.4667
540 4.60135
545 2.83397
550 2.14446
555 1.7141
560 1.72821
565 1.50518
570 1.32129
575 0.983003
580 1.12724
585 0.920882
590 0.877777
595 0.951928
600 0.748098
Ex : 528
200 0.421896
205 0.510408
210 0.40551
215 0.467222
220 0.427197
225 0.505591
230 0.455237
235 0.480199
240 0.515518
245 0.48972
250 0.510071
255 0.539633
260 0.557006
265 0.483104
270 0.499315
275 0.478844
280 0.53731
285 0.469698
290 0.476882
295 0.463394
300 0.484873
305 0.60737
310 0.45855
315 0.465979
320 0.553417
325 0.50232
330 0.512362
335 0.579122
340 0.634999
345 0.581727
350 0.624752
355 0.678878
360 0.55242
365 0.569132
370 0.728239
375 0.610158
380 0.616045
385 0.593278
390 0.577883
395 0.658368
400 0.733946
405 0.689623
410 0.653384
415 0.798906
420 0.59693
425 0.699369
430 0.759115
435 0.717022
440 0.746689
445 0.708914
450 0.792075
455 0.870352
460 0.936974
465 1.12603
470 1.15749
475 1.07512
480 1.13004
485 1.35291
490 1.4557
495 1.82465
500 2.33325
505 3.2788
510 4.63702
515 147.767
520 2542.56
525 3792.97
530 936.373
535 112.269
540 15.98
545 4.25739
550 2.50384
555 1.90754
560 1.71664
565 1.56379
570 1.59841
575 1.30111
580 1.11364
585 1.0622
590 1.02348
595 0.818843
600 1.3309
Ex : 533
200 0.545788
205 0.469421
210 0.429741
215 0.582594
220 0.515207
225 0.51618
230 0.533955
235 0.569734
240 0.485686
245 0.617861
250 0.539974
255 0.489345
260 0.417107
265 0.403672
270 0.538541
275 0.598661
280 0.508365
285 0.492575
290 0.45701
295 0.613508
300 0.541058
305 0.5219
310 0.55865
315 0.464025
320 0.518972
325 0.565649
330 0.630704
335 0.583226
340 0.613416
345 0.592088
350 0.502977
355 0.673119
360 0.691371
365 0.698313
370 0.714635
375 0.697325
380 0.728789
385 0.663386
390 0.684074
395 0.628906
400 0.744828
405 0.850139
410 0.683889
415 0.636764
420 0.74545
425 0.819283
430 0.688117
435 0.840731
440 0.815236
445 0.942494
450 0.845229
455 0.95362
460 0.903604
465 1.24389
470 1.03515
475 1.17184
480 1.29235
485 1.2135
490 1.46569
495 1.53336
500 2.006
505 2.3519
510 3.00176
515 4.60534
520 146.349
525 2429.15
530 3716.53
535 949.386
540 113.401
545 16.3863
550 4.43906
555 2.41871
560 1.75889
565 1.65023
570 1.45004
575 1.18151
580 1.16579
585 1.06312
590 0.986973
595 0.918241
600 1.15686
Ex : 538
200 0.588219
205 0.496975
210 0.467317
215 0.483385
220 0.449574
225 0.51423
230 0.536281
235 0.471912
240 0.606121
245 0.514586
250 0.519545
255 0.597827
260 0.450718
265 0.513065
270 0.620258
275 0.492393
280 0.485474
285 0.490894
290 0.485885
295 0.486218
300 0.66191
305 0.491727
310 0.537745
315 0.590053
320 0.595276
325 0.58657
330 0.655098
335 0.607948
340 0.594662
345 0.594968
350 0.569604
355 0.706272
360 0.601875
365 0.678516
370 0.646556
375 0.646352
380 0.653836
385 0.617094
390 0.612478
395 0.59683
400 0.627394
405 0.724216
410 0.6405
415 0.790852
420 0.641236
425 0.718378
430 0.787113
435 0.752181
440 0.762404
445 0.873644
450 1.02647
455 0.998731
460 0.891354
465 1.14912
470 1.01483
475 0.97631
480 1.15061
485 1.00534
490 1.37013
495 1.33315
500 1.559
505 1.85702
510 2.38475
515 3.31331
520 4.60124
525 124.097
530 2308.16
535 3685.46
540 973.917
545 116.616
550 16.2563
555 4.1166
560 2.33441
565 1.57851
570 1.39265
575 1.30427
580 1.18797
585 1.15614
590 1.0834
595 0.912014
600 1.51437
Ex : 543
200 0.514955
205 0.520079
210 0.507695
215 0.513584
220 0.57687
225 0.460099
230 0.480127
235 0.576092
240 0.661644
245 0.57692
250 0.53937
255 0.565283
260 0.476772
265 0.576211
270 0.520613
275 0.553848
280 0.599636
285 0.514421
290 0.557245
295 0.588169
300 0.580682
305 0.490089
310 0.551402
315 0.530696
320 0.571757
325 0.567742
330 0.541684
335 0.710809
340 0.623907
345 0.5765
350 0.599024
355 0.599476
360 0.64935
365 0.566776
370 0.69905
375 0.771686
380 0.640661
385 0.679174
390 0.624831
395 0.649709
400 0.656385
405 0.698801
410 0.667244
415 0.601917
420 0.80603
425 0.756827
430 0.742494
435 0.701776
440 0.763183
445 0.91697
450 0.851524
455 0.833381
460 0.973329
465 1.02876
470 1.06405
475 0.99088
480 1.04494
485 1.01207
490 1.12515
495 1.23095
500 1.26662
505 1.48212
510 1.77982
515 2.5135
520 2.99274
525 4.45952
530 111.808
535 2196.83
540 3648.61
545 990.142
550 118.838
555 16.4952
560 4.0678
565 2.12611
570 1.58919
575 1.27122
580 1.0968
585 1.23776
590 0.990709
595 0.980595
600 0.746879
Ex : 548
200 0.47733
205 0.542618
210 0.412243
215 0.546219
220 0.566455
225 0.535828
230 0.652944
235 0.457196
240 0.527265
245 0.541094
250 0.554542
255 0.568047
260 0.509205
265 0.600506
270 0.60454
275 0.546247
280 0.581248
285 0.485612
290 0.497435
295 0.473511
300 0.455412
305 0.481954
310 0.468513
315 0.600727
320 0.499945
325 0.48954
330 0.476638
335 0.551646
340 0.486086
345 0.500339
350 0.541503
355 0.565977
360 0.693841
365 0.585189
370 0.834503
375 0.545086
380 0.695221
385 0.818325
390 0.716305
395 0.786745
400 0.689097
405 0.759323
410 0.751859
415 0.727251
420 0.760661
425 0.684768
430 0.73306
435 0.76802
440 0.713868
445 0.768126
450 0.877518
455 0.81441
460 0.980468
465 0.953062
470 0.902243
475 0.963241
480 0.991975
485 1.15329
490 1.20896
495 1.18299
500 1.35923
505 1.31949
510 1.50223
515 1.77409
520 2.22012
525 3.0798
530 4.43706
535 124.923
540 2193.71
545 3507.09
550 960.27
555 114.789
560 15.6645
565 3.89857
570 2.11342
575 1.60287
580 1.27896
585 1.13706
590 0.995522
595 0.905802
600 0.402171
Ex : 553
200 0.667889
205 0.583971
210 0.633519
215 0.748964
220 0.629733
225 0.547593
230 0.576127
235 0.548396
240 0.543272
245 0.544994
250 0.524445
255 0.466466
260 0.452374
265 0.544986
270 0.535657
275 0.591638
280 0.581772
285 0.51185
290 0.556942
295 0.611477
300 0.746107
305 0.739199
310 0.62781
315 0.599537
320 0.517763
325 0.51126
330 0.672013
335 0.644906
340 0.695694
345 0.716293
350 0.678518
355 0.562602
360 0.657185
365 0.586714
370 0.639297
375 0.723555
380 0.598165
385 0.612648
390 0.547819
395 0.579007
400 0.63991
405 0.662121
410 0.6677
415 0.775394
420 0.86021
425 0.765143
430 0.666745
435 0.716145
440 0.726168
445 0.739502
450 0.763069
455 0.805544
460 0.793798
465 0.845707
470 0.97355
475 0.927473
480 1.00241
485 1.01269
490 1.04562
495 0.992077
500 1.00061
505 1.26242
510 1.32099
515 1.65229
520 1.8276
525 2.06829
530 2.81532
535 4.05493
540 104.46
545 2062.99
550 3418.07
555 954.939
560 114.284
565 15.8135
570 3.73887
575 1.91681
580 1.28034
585 1.17443
590 1.08942
595 1.03066
600 0.450318
Ex : 558
200 0.591918
205 0.53116
210 0.533124
215 0.608294
220 0.55117
225 0.687118
230 0.65
235 0.558925
240 0.590964
245 0.505744
250 0.449472
255 0.478681
260 0.517079
265 0.537417
270 0.627444
275 0.659703
280 0.617863
285 0.591091
290 0.511774
295 0.485606
300 0.52351
305 0.640581
310 0.428707
315 0.456002
320 0.583303
325 0.532101
330 0.721186
335 0.598172
340 0.630139
345 0.628158
350 0.673664
355 0.598837
360 0.709889
365 0.63764
370 0.630343
375 0.64969
380 0.652199
385 0.611388
390 0.684594
395 0.693136
400 0.673644
405 0.722615
410 0.669674
415 0.872142
420 0.79273
425 0.750554
430 0.746848
435 0.7996
440 0.730479
445 0.84621
450 0.927598
455 0.921891
460 0.982373
465 1.04597
470 0.936561
475 1.11374
480 1.06563
485 0.962549
490 1.08066
495 0.893008
500 0.965762
505 1.06267
510 1.16601
515 1.2767
520 1.56451
525 1.70728
530 2.25822
535 2.95457
540 4.41738
545 98.464
550 1952.74
555 3322.32
560 941.483
565 113.096
570 15.3657
575 3.54412
580 1.77928
585 1.28034
590 1.04435
595 0.913014
600 1.48047
Ex : 563
200 0.592939
205 0.729284
210 0.61174
215 0.600082
220 0.543248
225 0.655646
230 0.681962
235 0.556033
240 0.49917
245 0.496324
250 0.621608
255 0.764966
260 0.666928
265 0.608054
270 0.660241
275 0.542726
280 0.561228
285 0.559636
290 0.629992
295 0.628574
300 0.518962
305 0.626168
310 0.738573
315 0.585434
320 0.579879
325 0.78894
330 0.607651
335 0.66073
340 0.604712
345 0.550888
350 0.648405
355 0.553193
360 0.742889
365 0.645386
370 0.688368
375 0.825082
380 0.743131
385 0.553835
390 0.593281
395 0.606782
400 0.562343
405 0.691708
410 0.752967
415 0.762236
420 0.857364
425 0.745299
430 0.805211
435 0.905885
440 0.848479
445 0.821218
450 0.76061
455 0.788747
460 0.887706
465 0.906378
470 0.925629
475 0.846303
480 0.953918
485 1.01026
490 1.0612
495 0.980123
500 1.15232
505 1.03367
510 1.09291
515 1.4149
520 1.39051
525 1.41443
530 1.82149
535 2.02397
540 3.02755
545 4.10076
550 95.7048
555 1888.89
560 3187.59
565 917.425
570 109.725
575 14.7699
580 3.65364
585 1.76124
590 1.28222
595 0.990124
600 0.901758
Ex : 568
200 0.478445
205 0.468469
210 0.607543
215 0.60561
220 0.51149
225 0.463919
230 0.684537
235 0.551641
240 0.586208
245 0.58883
250 0.649706
255 0.691235
260 0.558512
265 0.486275
270 0.550621
275 0.541308
280 0.640796
285 0.727084
290 0.662874
295 0.687095
300 0.619026
305 0.564217
310 0.533895
315 0.474568
320 0.751619
325 0.595898
330 0.715864
335 0.573113
340 0.5384
345 0.586543
350 0.632283
355 0.619043
360 0.708361
365 0.709765
370 0.574706
375 0.770228
380 0.703429
385 0.760838
390 0.831399
395 0.802578
400 0.75821
405 0.780442
410 0.698433
415 0.764102
420 0.805332
425 0.87518
430 0.727895
435 0.719608
440 0.865199
445 0.806001
450 0.752786
455 0.78104
460 0.87583
465 0.892601
470 0.986118
475 0.909906
480 1.04832
485 0.958268
490 0.965882
495 0.906851
500 1.00353
505 1.00445
510 1.17036
515 1.16351
520 1.41561
525 1.37359
530 1.38328
535 1.62199
540 1.92616
545 2.98395
550 3.98578
555 72.3407
560 1707.66
565 3099.9
570 928.522
575 111.51
580 14.8059
585 3.27184
590 1.50475
595 1.14392
600 0.959407
Ex : 573
200 0.556459
205 0.584282
210 0.502736
215 0.618269
220 0.556784
225 0.61683
230 0.61061
235 0.53958
240 0.579757
245 0.698334
250 0.555286
255 0.636979
260 0.58173
265 0.53321
270 0.66648
275 0.562553
280 0.586796
285 0.58133
290 0.655196
295 0.629269
300 0.577478
305 0.594002
310 0.48414
315 0.547014
320 0.616749
325 0.733986
330 0.767951
335 0.66636
340 0.732397
345 0.700743
350 0.662689
355 0.652054
360 0.75592
365 0.587257
370 0.725497
375 0.82132
380 0.678911
385 0.718853
390 0.646047
395 0.712938
400 0.791669
405 0.671892
410 0.738825
415 0.687868
420 0.851095
425 0.780521
430 0.742975
435 0.859918
440 0.845041
445 0.787361
450 0.707369
455 0.781912
460 0.806994
465 0.937035
470 0.858604
475 0.822134
480 0.967228
485 0.862642
490 0.917865
495 0.999304
500 0.957227
505 1.05504
510 1.07957
515 1.13979
520 1.15431
525 1.22696
530 1.22252
535 1.36893
540 1.7233
545 2.05953
550 2.58121
555 3.5315
560 61.9703
565 1472.7
570 2848.97
575 876.81
580 105.133
585 14.1168
590 3.05198
595 1.55434
600 1.41239
Ex : 578
200 0.694305
205 0.572869
210 0.520563
215 0.575752
220 0.568931
225 0.644707
230 0.587836
235 0.553727
240 0.703887
245 0.583838
250 0.56014
255 0.638546
260 0.573966
265 0.498071
270 0.443231
275 0.51489
280 0.644114
285 0.617331
290 0.475
295 0.596859
300 0.66467
305 0.708206
310 0.551843
315 0.6958
320 0.483486
325 0.604325
330 0.598015
335 0.596625
340 0.602046
345 0.774752
350 0.744445
355 0.638413
360 0.574724
365 0.610053
370 0.800897
375 0.649095
380 0.693632
385 0.669842
390 0.735976
395 0.753171
400 0.593705
405 0.607669
410 0.692805
415 0.670282
420 0.816192
425 0.800085
430 0.622576
435 0.74532
440 0.759013
445 0.792684
450 0.804859
455 0.87315
460 0.785011
465 0.861202
470 0.742455
475 0.690301
480 0.720375
485 0.907385
490 0.843432
495 0.78001
500 0.936547
505 0.886883
510 0.859228
515 1.01613
520 1.15331
525 1.09485
530 1.2169
535 1.25049
540 1.23259
545 1.70432
550 1.91119
555 2.5425
560 3.15628
565 54.0843
570 1319.23
575 2485.94
580 752.793
585 90.2279
590 12.1046
595 2.57593
600 1.27262
Ex : 583
200 0.703601
205 0.581151
210 0.659362
215 0.512924
220 0.591246
225 0.541309
230 0.375051
235 0.674145
240 0.566025
245 0.52186
250 0.563582
255 0.648876
260 0.680207
265 0.653684
270 0.544076
275 0.706441
280 0.742336
285 0.574089
290 0.561663
295 0.495402
300 0.623716
305 0.530672
310 0.508264
315 0.655897
320 0.568453
325 0.691619
330 0.651259
335 0.552145
340 0.818823
345 0.819495
350 0.752794
355 0.747218
360 0.846498
365 0.724131
370 0.866416
375 0.761893
380 0.754082
385 0.85515
390 0.786472
395 0.744525
400 0.715656
405 0.585397
410 0.7828
415 0.758301
420 0.715592
425 0.716807
430 0.841149
435 0.612275
440 0.670752
445 0.614393
450 0.735716
455 0.73938
460 0.824207
465 1.04702
470 0.854858
475 0.68358
480 0.867139
485 0.864931
490 0.747858
495 0.864363
500 0.891194
505 0.991417
510 1.0254
515 0.916673
520 0.906188
525 1.01684
530 0.999924
535 0.988682
540 1.13616
545 1.28731
550 1.53026
555 2.04886
560 2.16645
565 3.19962
570 45.3391
575 1172.01
580 2166.44
585 619.478
590 74.2837
595 10.101
600 2.32419
Ex : 588
200 0.592281
205 0.520794
210 0.533846
215 0.571576
220 0.632356
225 0.555822
230 0.478545
235 0.527601
240 0.523453
245 0.501987
250 0.540862
255 0.567127
260 0.645029
265 0.646878
270 0.733569
275 0.551831
280 0.601436
285 0.553033
290 0.583329
295 0.463416
300 0.525865
305 0.615082
310 0.602535
315 0.688312
320 0.523973
325 0.607566
330 0.507517
335 0.473918
340 0.687127
345 0.679733
350 0.485574
355 0.660349
360 0.746099
365 0.697048
370 0.690643
375 0.674474
380 0.611054
385 0.732526
390 0.835433
395 0.678783
400 0.615916
405 0.668022
410 0.749608
415 0.915226
420 0.631898
425 0.632081
430 0.733616
435 0.949951
440 0.799921
445 0.846151
450 0.632604
455 0.873897
460 0.962992
465 0.959896
470 0.827519
475 0.759033
480 0.814595
485 0.912377
490 0.806506
495 0.807891
500 0.93522
505 0.777084
510 0.915587
515 0.883764
520 0.982829
525 0.959582
530 1.08155
535 1.02968
540 1.08342
545 1.20964
550 1.11085
555 1.43228
560 1.70532
565 2.33362
570 2.62673
575 41.1026
580 977.219
585 1846.39
590 545.926
595 65.4094
600 9.12284
Ex : 593
200 0.440614
205 0.577731
210 0.623717
215 0.604013
220 0.640044
225 0.572227
230 0.584802
235 0.619802
240 0.606904
245 0.492738
250 0.511082
255 0.525729
260 0.58826
265 0.54711
270 0.555897
275 0.686983
280 0.573129
285 0.616762
290 0.622174
295 0.609788
300 0.654045
305 0.653242
310 0.653866
315 0.520888
320 0.487251
325 0.678651
330 0.579894
335 0.620222
340 0.550368
345 0.814598
350 0.650078
355 0.678778
360 0.703301
365 0.666999
370 0.62149
375 0.708988
380 0.581198
385 0.600242
390 0.810169
395 0.757114
400 0.709077
405 0.635454
410 0.627122
415 0.620363
420 0.637318
425 0.64376
430 0.695608
435 0.614454
440 0.744274
445 0.497616
450 0.76954
455 0.708464
460 0.785075
465 0.774679
470 0.785972
475 0.853305
480 0.964996
485 0.859514
490 1.06075
495 0.767226
500 1.01376
505 0.833858
510 0.776531
515 0.837411
520 0.803438
525 0.855685
530 0.952759
535 0.896709
540 0.900456
545 1.00986
550 1.15888
555 1.1684
560 1.34421
565 1.64511
570 1.7999
575 2.43703
580 34.9601
585 871.79
590 1599.77
595 468.653
600 70.3446
Ex : 598
200 0.548905
205 0.592538
210 0.503429
215 0.674329
220 0.563776
225 0.727551
230 0.619268
235 0.647599
240 0.657914
245 0.692167
250 0.710999
255 0.869783
260 0.534064
265 0.608572
270 0.520564
275 0.6343
280 0.522476
285 0.514594
290 0.637528
295 0.624769
300 0.563951
305 0.517565
310 0.557668
315 0.551788
320 0.563608
325 0.594886
330 0.719882
335 0.631206
340 0.690158
345 0.817135
350 0.755538
355 0.638435
360 0.532399
365 0.608529
370 0.634934
375 0.574767
380 0.680774
385 0.732084
390 0.695958
395 0.86901
400 0.791441
405 0.694608
410 0.74984
415 0.709657
420 0.824381
425 0.664102
430 0.685364
435 0.692981
440 0.655012
445 0.626979
450 0.853875
455 0.904333
460 1.08852
465 0.730728
470 0.700338
475 0.751345
480 0.900591
485 0.796925
490 0.914362
495 0.814767
500 0.869267
505 0.902105
510 0.921366
515 1.00861
520 0.86523
525 0.908034
530 0.913474
535 0.818888
540 0.908905
545 0.946345
550 0.974142
555 1.00861
560 1.28209
565 1.3602
570 1.60389
575 1.79823
580 2.17967
585 34.5195
590 779.142
595 1405.69
600 877.363
Ex : 603
200 0.628684
205 0.621101
210 0.457783
215 0.711576
220 0.482411
225 0.513197
230 0.52669
235 0.619016
240 0.680752
245 0.551883
250 0.725646
255 0.594142
260 0.525295
265 0.589392
270 0.615357
275 0.638946
280 0.657772
285 0.743994
290 0.662174
295 0.703081
300 0.611651
305 0.555875
310 0.633279
315 0.692213
320 0.606324
325 0.69563
330 0.559777
335 0.591022
340 0.683192
345 0.510451
350 0.625436
355 0.716771
360 0.603448
365 0.79478
370 0.967677
375 0.674172
380 0.647945
385 0.514974
390 0.707741
395 0.801958
400 0.935001
405 0.755709
410 0.676147
415 0.926538
420 0.676792
425 0.727998
430 0.634198
435 0.798543
440 0.84567
445 0.758849
450 0.649736
455 0.816057
460 0.758201
465 0.950388
470 0.979558
475 0.921808
480 0.909386
485 0.833334
490 0.823508
495 0.828779
500 1.0493
505 0.891709
510 0.960893
515 0.924442
520 0.848969
525 1.0551
530 0.945481
535 0.75512
540 0.976442
545 1.12925
550 1.11579
555 1.14404
560 1.19604
565 1.16369
570 1.15213
575 1.62216
580 1.78909
585 2.16913
590 30.2909
595 667.012
600 1342.84
