File format V 1.0
sam. 10. déc. 04:21:05 2016
Operator : 
Comments : 

=============================================
SpectroFluorometer parameters
Mode : 3D measurement
Data : Fluorescence
Phospho. : Ordinary
Spectrum : Fluorescence

Scan speed : 2400 nm/mn
Response : 100 ms
PM Voltage : 700 V
Shutter : On

Lambda Ex. Start : 203
Lambda Ex. End : 603
Lambda Ex. Step : 5
Ex. Slit : 5 nm

Lambda Em. Start : 200
Lambda Em. End : 600
Lambda Em. Step : 5
Em. Slit : 5 nm

Repetition : 1
Decal lambda em : 10
=============================================
DATA
Ex : 203
200 13.9305
205 15.666
210 14.1896
215 18.5516
220 13.8771
225 15.292
230 18.5353
235 17.0348
240 13.47
245 14.7525
250 11.8009
255 14.7022
260 11.8209
265 16.6928
270 12.7154
275 13.614
280 14.698
285 14.2046
290 11.8923
295 11.006
300 15.0152
305 12.7624
310 9.72864
315 15.9026
320 16.07
325 8.43408
330 14.6933
335 13.825
340 15.8784
345 14.9326
350 15.034
355 15.9393
360 16.095
365 13.8264
370 14.9979
375 13.6423
380 16.5293
385 17.6885
390 17.5085
395 18.5193
400 17.1624
405 13.0841
410 15.8743
415 21.4523
420 17.4523
425 14.4739
430 14.9722
435 18.9001
440 16.6272
445 19.2606
450 19.9489
455 14.4169
460 15.7674
465 13.8235
470 14.9153
475 14.3814
480 18.7268
485 11.4783
490 13.3154
495 15.497
500 13.5373
505 15.7879
510 12.7826
515 10.9107
520 14.9907
525 15.515
530 13.7446
535 13.5037
540 14.723
545 9.35067
550 13.4917
555 13.7219
560 13.8042
565 12.9114
570 12.6821
575 16.2951
580 11.0318
585 11.0703
590 12.903
595 13.2727
600 17.019
Ex : 208
200 8.27363
205 9.80354
210 12.9594
215 16.2019
220 9.76891
225 8.2112
230 12.0841
235 12.3907
240 14.3081
245 14.1478
250 14.5873
255 10.9474
260 13.935
265 10.2337
270 13.3123
275 14.2528
280 14.7409
285 14.4742
290 14.3705
295 11.0617
300 9.96414
305 13.0741
310 12.7245
315 12.5888
320 10.8315
325 11.1612
330 14.844
335 13.7185
340 15.82
345 13.055
350 16.4339
355 11.8483
360 12.8221
365 15.4866
370 16.5543
375 17.2685
380 16.221
385 16.134
390 13.8893
395 14.0114
400 13.2871
405 13.1208
410 10.8594
415 16.6589
420 18.7969
425 15.7927
430 11.7595
435 14.1801
440 15.0628
445 13.2045
450 16.1847
455 20.7578
460 15.7448
465 13.2268
470 16.1465
475 13.486
480 17.0193
485 17.2539
490 14.0897
495 15.4585
500 14.5252
505 17.6596
510 15.9649
515 18.1623
520 15.6781
525 14.9859
530 14.2261
535 11.0057
540 21.5459
545 14.1458
550 14.4234
555 16.8528
560 10.9242
565 14.4607
570 18.2446
575 14.0015
580 15.6445
585 15.6311
590 13.0591
595 12.3932
600 1.4103
Ex : 213
200 11.9833
205 14.4235
210 13.5482
215 10.7303
220 10.3234
225 10.7644
230 12.288
235 15.5472
240 14.1556
245 14.4359
250 13.7111
255 16.3135
260 13.0887
265 14.6312
270 12.5917
275 17.3345
280 13.8659
285 10.063
290 9.24833
295 12.7881
300 10.5412
305 13.3939
310 14.8324
315 11.4766
320 14.5894
325 13.8729
330 16.3389
335 13.6111
340 16.2053
345 16.0086
350 13.3424
355 16.3785
360 14.058
365 15.2111
370 16.0284
375 16.7538
380 13.1509
385 17.8409
390 14.7444
395 14.2257
400 15.5936
405 14.0012
410 15.2669
415 16.7222
420 14.2721
425 14.9372
430 20.1784
435 13.4673
440 18.3303
445 16.3692
450 16.0821
455 14.2696
460 14.6888
465 18.167
470 14.5973
475 13.7622
480 16.8027
485 11.5375
490 12.2265
495 18.4205
500 15.0432
505 16.3612
510 19.4229
515 13.132
520 15.1865
525 14.843
530 14.0673
535 13.9034
540 14.8652
545 16.4326
550 13.9223
555 11.1035
560 14.3959
565 11.5617
570 10.3581
575 11.9027
580 11.7439
585 17.3796
590 13.429
595 15.7682
600 6.57986
Ex : 218
200 11.3016
205 14.4548
210 14.2003
215 17.1339
220 12.8501
225 8.19104
230 13.4396
235 10.5472
240 12.2902
245 12.8346
250 14.2115
255 10.7665
260 11.764
265 13.266
270 16.4307
275 11.9485
280 13.8697
285 11.5657
290 15.6037
295 14.3655
300 12.9302
305 12.1428
310 13.6562
315 15.5807
320 14.8294
325 15.5564
330 12.6838
335 13.3445
340 20.0096
345 12.0303
350 14.8637
355 15.5512
360 16.7108
365 17.8141
370 13.9238
375 14.3539
380 15.0316
385 12.8989
390 14.4035
395 15.8684
400 15.4171
405 15.8205
410 13.1196
415 17.2937
420 17.1516
425 17.4781
430 14.8389
435 12.8429
440 12.2307
445 12.3742
450 13.6564
455 17.1352
460 15.1956
465 15.1247
470 16.2333
475 14.7605
480 12.8252
485 12.5177
490 18.1026
495 17.924
500 13.8902
505 16.6618
510 12.759
515 14.2777
520 13.8225
525 14.4947
530 15.6703
535 11.2523
540 13.7683
545 12.8497
550 12.1423
555 13.8669
560 13.2871
565 15.1424
570 12.2456
575 13.9623
580 11.4927
585 11.6951
590 14.4036
595 12.8446
600 6.24717
Ex : 223
200 12.2618
205 11.7603
210 12.4879
215 16.6171
220 10.0249
225 11.8546
230 13.7413
235 12.2128
240 11.5921
245 15.3415
250 13.2579
255 14.5515
260 13.3165
265 12.3714
270 18.4878
275 14.4256
280 8.98104
285 10.3739
290 11.5611
295 11.3843
300 13.0302
305 11.52
310 14.4938
315 12.1037
320 13.0193
325 16.7103
330 14.186
335 15.8643
340 13.4018
345 11.5265
350 13.0303
355 12.8419
360 15.1165
365 13.5264
370 16.5316
375 18.8916
380 14.6393
385 11.8451
390 14.8191
395 16.1249
400 16.3246
405 13.6887
410 16.6373
415 11.6692
420 14.6745
425 13.6405
430 11.1989
435 16.1783
440 14.5773
445 15.9826
450 14.138
455 12.1999
460 15.3825
465 21.0657
470 12.1214
475 12.9292
480 14.6708
485 14.3564
490 13.453
495 11.5939
500 11.9632
505 13.6054
510 11.3519
515 15.2319
520 13.7936
525 13.3873
530 14.0207
535 12.6522
540 10.8523
545 14.455
550 14.991
555 16.4882
560 16.0693
565 14.7906
570 11.0944
575 9.3328
580 18.3741
585 11.9505
590 13.283
595 13.9589
600 26.4022
Ex : 228
200 13.6784
205 14.3739
210 11.9869
215 11.168
220 15.6338
225 11.3681
230 14.6252
235 11.8511
240 10.0884
245 10.4576
250 10.8778
255 11.3451
260 10.1306
265 15.27
270 13.549
275 13.3953
280 10.7865
285 11.1618
290 12.1108
295 10.0266
300 10.4877
305 14.0412
310 12.2724
315 9.98626
320 15.1028
325 12.3118
330 12.8913
335 13.6347
340 11.7713
345 13.1417
350 10.8884
355 15.66
360 14.1711
365 13.4441
370 13.1891
375 14.9393
380 15.839
385 17.8788
390 19.4085
395 14.3501
400 14.1714
405 16.0888
410 14.4203
415 14.6166
420 15.7921
425 14.3675
430 12.6987
435 14.447
440 11.4056
445 15.0096
450 15.5646
455 13.318
460 13.1715
465 15.8657
470 8.61234
475 13.7808
480 14.4248
485 16.7115
490 15.8134
495 11.4604
500 12.4946
505 12.9469
510 14.559
515 15.7329
520 14.6818
525 15.8224
530 12.1396
535 16.625
540 13.6579
545 12.3568
550 12.3195
555 13.9699
560 14.1965
565 12.3309
570 14.8959
575 12.3957
580 11.5865
585 12.7025
590 11.6368
595 13.8424
600 7.04014
Ex : 233
200 12.812
205 12.6
210 8.31802
215 8.06531
220 8.6416
225 9.24534
230 11.1832
235 10.9224
240 11.1765
245 11.0489
250 11.7481
255 9.96003
260 7.5045
265 11.2802
270 9.56592
275 11.2509
280 9.30066
285 8.60114
290 8.58569
295 9.17976
300 10.0042
305 8.68573
310 10.0818
315 8.71137
320 11.268
325 12.3478
330 13.5853
335 10.3198
340 12.8849
345 14.6983
350 15.59
355 12.8927
360 11.1949
365 12.2402
370 12.4857
375 11.5843
380 15.0464
385 9.70077
390 12.6009
395 12.8589
400 10.6847
405 9.55099
410 11.873
415 12.0477
420 13.0289
425 11.7161
430 10.1871
435 13.9946
440 11.7171
445 15.176
450 12.3451
455 14.6812
460 12.2894
465 14.0825
470 15.0992
475 8.72082
480 11.4166
485 11.6198
490 9.5949
495 10.8485
500 9.35198
505 11.4033
510 7.90792
515 11.3531
520 12.4183
525 9.99598
530 11.0287
535 11.198
540 9.73244
545 10.9655
550 9.30572
555 14.1285
560 10.6402
565 10.8148
570 9.83161
575 10.7865
580 12.5658
585 12.1066
590 11.9474
595 11.2776
600 7.04367
Ex : 238
200 11.1004
205 8.38564
210 9.96637
215 6.62067
220 10.4048
225 9.60665
230 10.2852
235 10.8131
240 9.78732
245 6.9564
250 8.068
255 7.58698
260 9.96642
265 8.38255
270 9.93075
275 10.9744
280 9.74418
285 9.65439
290 10.7449
295 8.33398
300 10.0621
305 9.52641
310 9.98724
315 7.64005
320 10.0061
325 9.04035
330 8.57046
335 11.6631
340 12.4712
345 12.6129
350 14.0375
355 10.6152
360 11.7111
365 10.3393
370 10.4294
375 11.7545
380 13.5166
385 12.1263
390 11.0896
395 9.01272
400 10.6079
405 10.7528
410 13.3555
415 11.969
420 11.3121
425 15.1737
430 11.9108
435 12.4858
440 8.79308
445 11.1377
450 12.8096
455 10.2756
460 12.7451
465 12.3957
470 11.8338
475 13.408
480 12.9347
485 13.3286
490 12.0351
495 11.4773
500 9.62774
505 8.75824
510 10.0151
515 7.15479
520 8.27091
525 7.87574
530 12.7123
535 10.8994
540 13.5826
545 12.4405
550 9.64526
555 12.5963
560 10.3362
565 11.9473
570 11.4141
575 7.92282
580 13.6159
585 8.9835
590 11.8215
595 11.0146
600 12.331
Ex : 243
200 9.09153
205 7.62552
210 10.0414
215 7.03897
220 8.58671
225 8.06355
230 6.89371
235 8.18249
240 7.77578
245 9.2638
250 9.46842
255 8.27383
260 7.60215
265 8.17628
270 7.52703
275 8.39905
280 6.54246
285 7.72779
290 9.70425
295 9.52971
300 8.95838
305 8.90165
310 10.7514
315 11.4767
320 7.52803
325 9.89594
330 10.3601
335 10.0103
340 10.1679
345 9.18522
350 10.3437
355 10.5397
360 8.27938
365 6.45528
370 10.3199
375 10.3106
380 13.5221
385 11.5077
390 9.86444
395 8.69943
400 12.8039
405 9.50528
410 8.63868
415 8.8193
420 10.1893
425 10.5754
430 10.2576
435 9.99755
440 8.54495
445 8.96776
450 10.0468
455 10.7931
460 10.7863
465 11.1228
470 10.0189
475 11.1677
480 11.899
485 9.58001
490 8.58706
495 9.46839
500 8.4417
505 8.34242
510 8.20999
515 11.8158
520 10.0987
525 9.78416
530 9.38679
535 11.3405
540 8.77729
545 7.8029
550 7.61174
555 8.35004
560 8.05577
565 7.87929
570 9.71738
575 8.91508
580 7.89725
585 10.6941
590 7.29377
595 9.15445
600 4.71316
Ex : 248
200 5.56156
205 6.89035
210 7.20775
215 6.53731
220 7.27427
225 7.87676
230 6.48352
235 6.54676
240 7.30503
245 7.22611
250 5.49181
255 7.20741
260 6.46611
265 7.2218
270 6.52111
275 7.29193
280 7.42315
285 8.06359
290 9.23228
295 6.81347
300 7.25223
305 6.72968
310 7.87961
315 7.69437
320 7.43766
325 7.66353
330 7.59869
335 10.6103
340 8.32751
345 8.41041
350 8.23622
355 8.13528
360 8.04441
365 9.31509
370 8.38384
375 9.73749
380 8.97445
385 9.77588
390 8.6098
395 7.83645
400 8.1265
405 8.19265
410 10.1771
415 10.4333
420 7.59501
425 6.53706
430 8.09938
435 11.0623
440 9.07893
445 8.01708
450 7.45286
455 8.37434
460 9.42796
465 7.57516
470 9.92071
475 9.22817
480 8.28243
485 8.18771
490 8.50945
495 8.06326
500 8.34805
505 5.46305
510 9.43814
515 7.29323
520 6.7432
525 5.85204
530 7.91335
535 6.65691
540 8.67575
545 7.91379
550 8.95499
555 8.31297
560 9.23077
565 9.23568
570 6.45222
575 6.65356
580 7.90082
585 7.37114
590 9.1702
595 6.57051
600 1.1908
Ex : 253
200 5.44819
205 4.45011
210 6.03978
215 6.45302
220 5.40037
225 6.0011
230 5.77801
235 5.95761
240 6.00382
245 5.69266
250 5.64599
255 5.16235
260 4.86902
265 6.44755
270 6.75645
275 4.7907
280 5.36715
285 4.38608
290 4.84574
295 5.81099
300 4.62973
305 5.52572
310 5.82127
315 5.32091
320 6.15757
325 4.59573
330 6.65823
335 7.05167
340 7.01426
345 5.67013
350 7.59787
355 7.57821
360 7.45753
365 5.67497
370 7.29232
375 8.91754
380 7.30251
385 6.79724
390 5.73667
395 6.22503
400 6.50879
405 5.76678
410 7.56606
415 5.95076
420 7.36242
425 8.05834
430 6.93798
435 5.09457
440 5.93468
445 6.0825
450 7.14911
455 7.96583
460 5.5657
465 6.30902
470 7.94693
475 6.54608
480 6.57464
485 6.34697
490 7.55687
495 7.66074
500 8.2509
505 7.179
510 4.75026
515 7.186
520 8.64443
525 7.37056
530 6.37861
535 5.69941
540 6.13263
545 6.47123
550 6.1396
555 5.84162
560 5.90435
565 5.66453
570 6.60422
575 6.46192
580 6.47649
585 4.71939
590 4.60329
595 5.18963
600 14.6221
Ex : 258
200 3.23909
205 5.02501
210 5.41524
215 3.77653
220 4.8987
225 5.03684
230 4.08157
235 4.64609
240 4.40268
245 4.66327
250 5.13152
255 5.19808
260 3.93036
265 3.68828
270 4.74326
275 4.28789
280 4.81139
285 5.65889
290 3.82347
295 5.1368
300 4.7288
305 4.08467
310 3.8454
315 5.06978
320 4.93718
325 6.07076
330 4.89986
335 4.50851
340 7.40158
345 5.89069
350 4.95881
355 6.41913
360 5.50129
365 5.62191
370 4.866
375 6.02351
380 6.5081
385 5.44245
390 5.42742
395 4.75721
400 4.79949
405 5.84262
410 4.91933
415 4.70814
420 5.78665
425 6.06657
430 5.66526
435 5.84316
440 5.49611
445 5.26888
450 7.88301
455 4.38552
460 5.88339
465 5.44046
470 5.84313
475 6.04811
480 6.20558
485 4.62448
490 5.00772
495 4.97345
500 5.57707
505 5.48015
510 5.38361
515 6.52701
520 5.5923
525 6.41402
530 6.02815
535 5.21809
540 4.63786
545 4.39803
550 5.45188
555 3.85496
560 4.62676
565 3.24954
570 4.43796
575 5.66174
580 4.67092
585 4.37516
590 3.32286
595 5.23439
600 5.84958
Ex : 263
200 2.77518
205 2.63612
210 2.83363
215 4.50362
220 2.78033
225 2.90521
230 4.41191
235 3.29701
240 3.27909
245 2.70411
250 3.42575
255 3.35077
260 3.51557
265 3.27303
270 3.31147
275 3.25111
280 3.15241
285 3.14356
290 3.578
295 3.25707
300 3.68531
305 3.52175
310 2.73892
315 3.33954
320 3.31467
325 4.31022
330 4.03005
335 4.58946
340 4.27934
345 5.33102
350 3.86325
355 3.80183
360 3.08465
365 4.20574
370 4.59264
375 4.20702
380 4.15446
385 3.98874
390 3.96478
395 4.32782
400 3.8353
405 6.01339
410 4.7433
415 4.58668
420 3.79881
425 4.59181
430 4.56575
435 3.36759
440 3.75346
445 3.60696
450 5.46904
455 4.27205
460 3.1765
465 4.55201
470 4.84209
475 3.47377
480 5.24838
485 4.18597
490 4.34391
495 3.59537
500 3.97909
505 4.13426
510 4.18993
515 4.08147
520 4.41282
525 4.24274
530 3.26406
535 3.50138
540 3.09027
545 2.9915
550 3.00037
555 3.19712
560 3.43256
565 3.20733
570 3.10333
575 3.77542
580 3.62773
585 3.1321
590 3.31786
595 4.13438
600 3.35064
Ex : 268
200 2.35098
205 2.85298
210 2.18796
215 3.118
220 2.86074
225 2.54208
230 3.00154
235 3.33415
240 2.66636
245 2.90717
250 3.15765
255 3.31536
260 3.5476
265 3.23622
270 2.35607
275 2.77765
280 2.41951
285 2.59884
290 3.62079
295 2.84333
300 2.61084
305 2.88411
310 2.81184
315 3.30029
320 2.28509
325 2.58257
330 3.53675
335 3.9504
340 4.07935
345 3.01779
350 3.56766
355 4.07785
360 3.78242
365 3.87322
370 3.24191
375 3.3527
380 4.77964
385 3.21914
390 3.34269
395 3.75283
400 3.35858
405 3.64969
410 4.28979
415 3.37382
420 3.30974
425 3.67076
430 2.94078
435 3.77063
440 3.80261
445 3.8851
450 4.30881
455 3.47727
460 3.12015
465 3.77679
470 2.87337
475 3.80997
480 3.92943
485 2.92666
490 3.89124
495 3.07143
500 3.71209
505 3.2306
510 2.60026
515 2.85297
520 2.70569
525 3.41787
530 2.93429
535 3.45905
540 2.53874
545 3.20231
550 2.90954
555 3.10623
560 2.64627
565 2.32102
570 3.52635
575 2.51861
580 2.71686
585 2.73035
590 3.24716
595 3.33414
600 1.86985
Ex : 273
200 2.28799
205 2.87965
210 2.51831
215 2.07569
220 2.08051
225 2.37967
230 2.02645
235 2.9275
240 2.48022
245 2.00232
250 1.94804
255 2.78164
260 1.94346
265 2.41203
270 2.17912
275 1.77111
280 2.03006
285 2.83183
290 2.25021
295 1.96753
300 1.71721
305 1.60169
310 1.83607
315 2.29422
320 2.37664
325 2.33242
330 2.7572
335 2.71621
340 2.40413
345 3.41397
350 3.09924
355 2.97683
360 3.1096
365 2.62633
370 3.18564
375 2.7918
380 3.21943
385 2.9906
390 3.00473
395 3.30483
400 3.35283
405 2.90784
410 3.09728
415 3.51331
420 3.70542
425 2.55474
430 3.27904
435 2.80791
440 3.14271
445 2.4435
450 2.98729
455 2.51547
460 3.12057
465 2.72469
470 3.12564
475 3.01017
480 3.14858
485 2.86532
490 2.45496
495 2.79501
500 2.27362
505 2.3396
510 2.40449
515 2.28197
520 1.62782
525 2.27741
530 3.08601
535 3.21512
540 2.8517
545 3.45029
550 3.13786
555 1.65275
560 2.19308
565 2.13512
570 2.02287
575 2.29081
580 2.34305
585 2.4186
590 2.56431
595 1.89462
600 4.32759
Ex : 278
200 1.35862
205 1.542
210 1.82785
215 1.94588
220 1.71813
225 1.84201
230 1.67998
235 1.78771
240 1.78648
245 1.78064
250 1.70051
255 1.67529
260 1.51351
265 1.81076
270 2.18495
275 1.79898
280 1.50984
285 2.01408
290 1.70508
295 1.51718
300 1.5567
305 2.48979
310 2.06523
315 2.18905
320 1.56096
325 1.96234
330 2.75818
335 2.41894
340 2.34536
345 3.08731
350 2.64257
355 2.90752
360 2.67558
365 2.58494
370 2.99324
375 2.98479
380 2.59311
385 2.08859
390 2.4488
395 2.6936
400 2.5576
405 2.82276
410 2.76031
415 2.82537
420 2.19886
425 3.03357
430 2.75307
435 2.98142
440 2.84847
445 2.27901
450 2.72087
455 2.19942
460 2.47728
465 2.52605
470 2.68896
475 2.38905
480 2.02249
485 1.97757
490 2.01928
495 2.65148
500 1.9541
505 2.05949
510 1.96181
515 1.53064
520 2.22353
525 1.85893
530 1.77981
535 2.46301
540 1.65966
545 2.99916
550 2.48591
555 2.39381
560 1.89309
565 1.641
570 1.98161
575 1.75918
580 1.552
585 2.32625
590 2.11504
595 1.94647
600 2.40747
Ex : 283
200 1.57814
205 1.29975
210 1.82089
215 1.14053
220 2.06787
225 1.80831
230 1.19844
235 1.22185
240 1.95501
245 1.72924
250 1.51212
255 2.12766
260 1.54136
265 1.50045
270 1.62028
275 1.59638
280 2.00674
285 1.716
290 1.55098
295 1.21872
300 1.54122
305 1.32643
310 1.13914
315 1.71385
320 1.50252
325 1.50029
330 2.09986
335 2.05185
340 2.20089
345 2.04842
350 1.63243
355 1.95875
360 2.18978
365 1.86531
370 2.33366
375 2.37543
380 2.72902
385 2.58895
390 2.40364
395 2.38508
400 2.51973
405 2.229
410 2.44107
415 1.89963
420 2.27022
425 1.94594
430 2.15281
435 2.3216
440 1.9048
445 1.95482
450 1.99601
455 2.12777
460 2.20138
465 2.47246
470 1.81966
475 1.92651
480 2.04106
485 2.14514
490 2.00235
495 2.09899
500 1.89741
505 1.75475
510 1.88211
515 1.6189
520 1.43198
525 1.65352
530 1.79845
535 1.66231
540 1.73346
545 1.40402
550 2.41997
555 2.24511
560 2.50008
565 2.14237
570 1.30414
575 1.71692
580 1.63318
585 1.46586
590 1.42145
595 1.56195
600 0.44121
Ex : 288
200 0.808102
205 1.10354
210 1.77242
215 1.24344
220 1.39927
225 1.43686
230 1.23466
235 1.10819
240 1.39321
245 1.13909
250 1.48341
255 1.17632
260 1.18975
265 1.26562
270 1.29256
275 1.24161
280 1.74694
285 1.62991
290 1.43659
295 1.35657
300 1.7944
305 1.04383
310 1.09347
315 1.25043
320 1.13434
325 1.36298
330 1.81447
335 1.51902
340 1.92602
345 1.90468
350 2.00119
355 1.51627
360 1.97563
365 1.41767
370 1.65454
375 1.81569
380 2.02995
385 1.91263
390 2.03652
395 2.19024
400 1.83941
405 1.96699
410 2.31711
415 1.86817
420 2.19851
425 2.19041
430 1.87476
435 1.94146
440 2.12891
445 1.76222
450 1.98487
455 1.72689
460 1.77916
465 1.94013
470 1.77009
475 1.66326
480 1.68334
485 2.00375
490 1.84224
495 1.57414
500 1.68251
505 1.63465
510 1.65339
515 1.44709
520 1.83072
525 1.22222
530 1.4061
535 1.32324
540 1.36093
545 1.4606
550 1.20762
555 1.69231
560 1.63056
565 1.6095
570 1.76641
575 1.56835
580 1.55939
585 1.34127
590 1.22188
595 1.06571
600 0.967195
Ex : 293
200 0.657991
205 1.09777
210 1.14573
215 0.912277
220 0.95027
225 1.16369
230 1.09609
235 1.57318
240 1.08641
245 1.06725
250 1.1195
255 0.738797
260 1.16954
265 1.19972
270 1.09972
275 1.13397
280 1.06478
285 1.23918
290 1.38399
295 0.968858
300 1.24716
305 1.00557
310 1.49694
315 1.20554
320 1.25568
325 1.53955
330 1.67419
335 1.86278
340 1.40449
345 1.68359
350 1.70741
355 1.41432
360 1.77181
365 1.78719
370 1.78995
375 1.88986
380 1.86498
385 1.7602
390 1.97312
395 1.63823
400 1.50862
405 1.63982
410 1.80034
415 1.84629
420 1.78706
425 1.99619
430 1.96511
435 1.89697
440 1.92814
445 1.99841
450 1.81405
455 1.474
460 1.44217
465 1.44846
470 1.72577
475 1.61872
480 1.27413
485 1.36429
490 1.36875
495 1.27826
500 1.41112
505 1.23804
510 1.55487
515 1.55489
520 1.18297
525 1.24462
530 1.46263
535 1.24976
540 1.24601
545 1.1261
550 1.46782
555 1.3224
560 1.0059
565 1.13383
570 1.23576
575 1.40448
580 1.44922
585 1.53342
590 1.08247
595 1.30861
600 0.361604
Ex : 298
200 0.908763
205 1.55761
210 1.31823
215 0.999333
220 0.774449
225 0.933404
230 0.87755
235 0.925715
240 0.747286
245 0.761041
250 0.993159
255 0.905506
260 1.00384
265 0.929284
270 0.970904
275 0.719483
280 0.844984
285 0.798909
290 1.0188
295 0.983893
300 0.933857
305 0.98174
310 0.927657
315 0.87097
320 1.12609
325 0.975508
330 1.07572
335 1.31492
340 1.58922
345 1.86284
350 1.25243
355 1.53351
360 1.51506
365 1.62925
370 1.50181
375 1.59305
380 1.6264
385 1.64467
390 1.6698
395 1.9542
400 1.61239
405 1.61849
410 1.47401
415 1.83511
420 1.92336
425 1.65175
430 1.59551
435 1.79054
440 1.58887
445 1.34918
450 1.59397
455 1.8276
460 1.71127
465 1.55491
470 1.41905
475 1.23401
480 1.5688
485 1.45391
490 1.14748
495 1.41713
500 1.13141
505 1.20225
510 1.03802
515 1.16958
520 1.10607
525 1.1236
530 1.02058
535 1.11116
540 1.30545
545 1.09346
550 1.07745
555 0.97611
560 0.877562
565 1.03442
570 1.0881
575 1.10825
580 1.12752
585 1.37319
590 1.68149
595 1.29304
600 1.40886
Ex : 303
200 0.671062
205 0.881919
210 0.597392
215 1.00128
220 1.03598
225 0.950073
230 0.718966
235 0.79737
240 1.07479
245 0.735351
250 0.952147
255 0.934579
260 0.717151
265 0.754502
270 0.621055
275 1.02089
280 0.687545
285 0.782219
290 0.915157
295 0.918963
300 0.91672
305 0.912054
310 0.637755
315 0.789962
320 0.935816
325 1.20592
330 1.35436
335 1.82659
340 1.24641
345 1.28464
350 1.69263
355 1.29569
360 1.53567
365 1.64565
370 1.70639
375 1.69393
380 1.79347
385 1.47846
390 1.51618
395 1.64199
400 1.72149
405 1.66013
410 1.84585
415 1.51113
420 1.59845
425 1.3537
430 1.38754
435 1.45113
440 1.62315
445 1.58674
450 1.26087
455 1.31379
460 1.17205
465 1.2929
470 1.42817
475 1.37953
480 1.2978
485 1.15799
490 1.30183
495 0.996688
500 0.936812
505 1.14724
510 1.18098
515 0.983229
520 1.09443
525 1.0017
530 1.09598
535 0.9653
540 1.05617
545 1.13668
550 1.19155
555 1.01309
560 0.946374
565 0.797204
570 0.770858
575 1.20358
580 0.896344
585 0.804187
590 1.23787
595 1.07532
600 0.591534
Ex : 308
200 0.857056
205 0.548723
210 0.68206
215 0.604384
220 0.724474
225 0.60437
230 0.645476
235 0.801907
240 0.736193
245 0.676045
250 0.595365
255 0.596233
260 0.829289
265 0.762402
270 0.750098
275 0.751322
280 0.835616
285 0.742046
290 0.811541
295 0.616443
300 0.606593
305 0.75921
310 0.760502
315 0.771474
320 0.808677
325 1.2252
330 1.20736
335 1.3038
340 1.39395
345 1.35363
350 1.44678
355 1.23673
360 1.18695
365 1.39037
370 1.37954
375 1.36335
380 1.17882
385 1.48033
390 1.51012
395 1.66222
400 1.59889
405 1.40393
410 1.29932
415 1.44498
420 1.60779
425 1.43677
430 1.34748
435 1.42634
440 1.35687
445 1.41532
450 1.48583
455 1.14042
460 1.31092
465 1.59209
470 1.10869
475 1.07633
480 1.23119
485 1.0398
490 1.14258
495 1.12919
500 0.922583
505 0.927052
510 0.745103
515 0.797522
520 0.719665
525 0.956264
530 0.785204
535 0.847902
540 0.93641
545 0.783213
550 0.806634
555 1.00602
560 0.964055
565 1.06599
570 0.746634
575 0.784047
580 0.881824
585 0.663348
590 0.687893
595 0.794949
600 0.72103
Ex : 313
200 0.700734
205 0.525527
210 0.695231
215 0.7305
220 0.942734
225 0.597278
230 0.655911
235 0.664545
240 0.730069
245 0.699002
250 0.708573
255 0.673464
260 0.493073
265 0.709475
270 0.622453
275 0.489594
280 0.585737
285 0.55758
290 0.710291
295 0.876959
300 0.62591
305 0.752001
310 0.988774
315 0.684552
320 1.01138
325 1.37782
330 1.61872
335 1.40344
340 1.39292
345 1.2605
350 1.38533
355 1.20634
360 1.59318
365 1.71186
370 1.38895
375 1.73329
380 1.47189
385 1.69211
390 1.89491
395 1.69272
400 1.91204
405 1.838
410 1.73004
415 1.62538
420 1.73618
425 1.73205
430 1.55159
435 1.6748
440 1.56618
445 1.55113
450 1.38972
455 1.30893
460 1.20983
465 1.56739
470 1.23968
475 1.16889
480 1.06768
485 1.08693
490 0.935718
495 1.07526
500 0.98796
505 0.862478
510 0.848724
515 1.04659
520 0.880528
525 0.834859
530 0.784328
535 0.822437
540 0.702459
545 0.759312
550 0.842258
555 0.64624
560 0.655287
565 0.545169
570 0.515635
575 0.793857
580 0.648644
585 0.622311
590 0.703923
595 0.759988
600 3.21366
Ex : 318
200 0.580488
205 0.65379
210 0.411958
215 0.661229
220 0.694404
225 0.708967
230 0.746718
235 0.675555
240 0.343043
245 0.532716
250 0.50724
255 0.547092
260 0.58275
265 0.497565
270 0.525903
275 0.541512
280 0.668145
285 0.627575
290 0.687129
295 0.683543
300 0.69089
305 0.657057
310 0.942489
315 2.86122
320 2.08749
325 1.88439
330 2.00673
335 2.18301
340 2.19193
345 2.68743
350 3.14719
355 3.41601
360 3.74973
365 4.44984
370 5.18087
375 5.98814
380 6.64334
385 7.18239
390 7.67109
395 8.3368
400 8.65826
405 8.69501
410 8.73451
415 9.21575
420 8.41355
425 8.493
430 8.17075
435 8.16089
440 7.64422
445 7.59402
450 6.72987
455 6.39504
460 5.56837
465 5.59068
470 5.2419
475 4.93646
480 4.6239
485 4.05426
490 3.77975
495 3.09049
500 2.78528
505 2.62715
510 2.40566
515 2.49376
520 1.9967
525 2.07724
530 1.53203
535 1.46268
540 1.50955
545 1.21403
550 1.01996
555 1.11897
560 0.94579
565 0.945916
570 0.791733
575 0.696239
580 0.715907
585 0.682725
590 0.791238
595 0.580243
600 0.610676
Ex : 323
200 0.534581
205 0.626119
210 0.610831
215 0.596738
220 0.479407
225 0.561378
230 0.649672
235 0.59597
240 0.464618
245 0.482976
250 0.472344
255 0.561193
260 0.553827
265 0.666488
270 0.645784
275 0.553785
280 0.545076
285 0.458835
290 0.541654
295 0.515629
300 0.53916
305 0.623802
310 0.853034
315 22.2411
320 98.7492
325 41.666
330 8.05786
335 5.19805
340 5.596
345 6.99192
350 9.71655
355 12.6903
360 15.2163
365 18.0602
370 21.1681
375 24.4412
380 27.7568
385 30.2842
390 33.142
395 34.6709
400 36.0333
405 37.2656
410 37.227
415 36.2023
420 35.8254
425 35.2609
430 33.4836
435 31.7759
440 30.697
445 29.142
450 27.3953
455 26.1198
460 24.1963
465 23.4056
470 21.144
475 18.74
480 17.3884
485 15.191
490 14.469
495 12.9592
500 11.6343
505 9.83373
510 8.99724
515 8.07108
520 7.25947
525 5.95919
530 5.33452
535 4.9391
540 4.1837
545 3.53457
550 3.35877
555 3.08622
560 2.81121
565 2.19435
570 1.88884
575 1.6739
580 1.56981
585 1.49194
590 0.899545
595 1.13119
600 0.867228
Ex : 328
200 0.386432
205 0.481522
210 0.65492
215 0.524589
220 0.547802
225 0.513402
230 0.464413
235 0.567407
240 0.597866
245 0.441924
250 0.507397
255 0.500753
260 0.53972
265 0.758177
270 0.568085
275 0.52078
280 0.651252
285 0.622586
290 0.547502
295 0.614859
300 0.605539
305 0.680095
310 0.687952
315 6.2631
320 250.892
325 590.201
330 173.969
335 26.0917
340 9.60535
345 9.07726
350 10.7532
355 15.3884
360 20.1774
365 22.5179
370 24.2301
375 27.7777
380 30.9633
385 35.22
390 38.2267
395 39.7335
400 41.9529
405 42.3055
410 43.6673
415 43.1511
420 41.5497
425 40.4023
430 39.4303
435 38.2389
440 36.3741
445 34.2749
450 33.2671
455 29.7143
460 27.8506
465 26.3979
470 24.798
475 22.6929
480 20.2013
485 19.0488
490 16.8978
495 15.2382
500 14.0426
505 12.4894
510 11.6274
515 9.18412
520 8.39064
525 7.27923
530 7.29377
535 6.1369
540 5.98336
545 5.34432
550 4.45869
555 4.20133
560 3.62444
565 3.11085
570 2.72906
575 2.47493
580 1.81201
585 1.63161
590 1.2642
595 1.35033
600 0.502333
Ex : 333
200 0.636049
205 0.450831
210 0.629813
215 0.549321
220 0.454338
225 0.514232
230 0.514397
235 0.473542
240 0.670398
245 0.602168
250 0.607643
255 0.525756
260 0.531792
265 0.534363
270 0.556998
275 0.5374
280 0.709513
285 0.612495
290 0.769436
295 0.719355
300 0.627154
305 0.76006
310 0.722318
315 1.28708
320 34.6323
325 723.451
330 1215.92
335 304.398
340 41.5663
345 11.9685
350 8.36239
355 9.32764
360 12.3351
365 17.0163
370 18.0489
375 18.0907
380 19.5273
385 22.3937
390 24.2171
395 24.406
400 26.4862
405 26.7468
410 27.845
415 27.0445
420 27.0065
425 25.299
430 24.8618
435 23.9056
440 22.4046
445 22.0019
450 21.6434
455 19.8396
460 18.107
465 16.7718
470 16.1062
475 14.8782
480 13.9506
485 12.9487
490 11.9302
495 10.8933
500 10.0395
505 9.26193
510 8.58047
515 7.7673
520 7.11913
525 5.93523
530 6.01864
535 5.64375
540 4.6007
545 4.45224
550 3.92851
555 3.50004
560 3.26535
565 2.95316
570 2.53072
575 2.43807
580 1.82579
585 1.65348
590 1.43162
595 1.3118
600 1.89442
Ex : 338
200 0.532565
205 0.6225
210 0.485235
215 0.469018
220 0.532716
225 0.471848
230 0.441833
235 0.587566
240 0.7255
245 0.59198
250 0.540047
255 0.487191
260 0.548369
265 0.621255
270 0.61305
275 0.563868
280 0.663998
285 0.702743
290 0.551386
295 0.667418
300 0.754601
305 0.771815
310 0.85164
315 1.12665
320 1.56045
325 66.2962
330 1063.87
335 1547.83
340 366.663
345 47.7346
350 11.1191
355 6.81377
360 6.32862
365 8.29146
370 12.8678
375 12.9737
380 12.4417
385 13.1458
390 14.7311
395 15.3631
400 15.5666
405 16.1389
410 16.9843
415 17.3612
420 17.3065
425 16.2169
430 16.0839
435 15.2403
440 15.2084
445 14.1166
450 13.6147
455 13.0081
460 12.2362
465 11.5071
470 11.0951
475 10.5705
480 9.79017
485 9.68111
490 8.51559
495 8.43255
500 8.2501
505 7.04386
510 6.53541
515 6.20477
520 5.57716
525 5.11439
530 4.77131
535 4.36519
540 3.93093
545 3.93278
550 3.49075
555 3.29013
560 3.01453
565 2.93815
570 2.40389
575 1.94701
580 1.8896
585 1.76284
590 1.40033
595 1.37777
600 1.91688
Ex : 343
200 0.609132
205 0.67949
210 0.502855
215 0.436084
220 0.596828
225 0.5979
230 0.421267
235 0.579414
240 0.670522
245 0.511745
250 0.537211
255 0.413377
260 0.587613
265 0.58726
270 0.523943
275 0.596519
280 0.584364
285 0.584545
290 0.642489
295 0.571281
300 0.750667
305 0.719797
310 0.837151
315 0.997895
320 1.34675
325 1.9002
330 75.9997
335 1197.75
340 1702.77
345 395.516
350 50.9846
355 11.09
360 5.7271
365 4.66021
370 5.78179
375 9.99835
380 11.644
385 11.4232
390 11.8596
395 12.1512
400 11.7358
405 12.1802
410 13.6828
415 14.2375
420 14.0648
425 13.6453
430 12.9092
435 12.5736
440 12.9427
445 12.3382
450 11.9643
455 11.3093
460 10.695
465 10.8303
470 10.1315
475 9.41064
480 8.90086
485 8.62252
490 8.30077
495 7.47177
500 7.12257
505 6.40504
510 6.27459
515 5.92436
520 5.41452
525 5.09801
530 4.68773
535 4.46414
540 3.8688
545 3.39289
550 3.1944
555 3.04955
560 2.90205
565 2.43427
570 2.18093
575 1.97484
580 1.66447
585 1.70173
590 1.36732
595 1.3654
600 1.64374
Ex : 348
200 0.428653
205 0.55032
210 0.490372
215 0.38317
220 0.513119
225 0.393986
230 0.469642
235 0.408459
240 0.388118
245 0.463708
250 0.498271
255 0.601404
260 0.506843
265 0.650602
270 0.524872
275 0.543204
280 0.480173
285 0.608838
290 0.711848
295 0.529697
300 0.572107
305 0.681278
310 0.680278
315 0.678255
320 0.848928
325 1.45267
330 2.45396
335 75.8685
340 1182.59
345 1738.43
350 431.394
355 54.3569
360 10.6236
365 5.16665
370 4.3851
375 5.10649
380 8.99084
385 13.2219
390 13.7168
395 13.2316
400 12.0979
405 12.6267
410 14.4177
415 15.0807
420 14.7024
425 14.063
430 13.7372
435 13.3294
440 13.0122
445 12.8473
450 12.6551
455 11.2746
460 11.2765
465 10.6071
470 9.965
475 9.69722
480 9.42548
485 8.88731
490 8.43058
495 7.45706
500 7.13712
505 6.55092
510 6.25006
515 5.89552
520 5.53081
525 5.08629
530 4.70623
535 4.27253
540 3.87454
545 3.52296
550 3.18555
555 2.96468
560 2.59534
565 2.55238
570 2.13806
575 2.03911
580 1.65005
585 1.43512
590 1.39783
595 1.1809
600 2.04025
Ex : 353
200 0.374524
205 0.39213
210 0.454076
215 0.43513
220 0.478731
225 0.413514
230 0.326502
235 0.522266
240 0.477185
245 0.46554
250 0.460282
255 0.622687
260 0.496375
265 0.411699
270 0.446942
275 0.512222
280 0.532077
285 0.645353
290 0.500899
295 0.466468
300 0.535796
305 0.637446
310 0.546077
315 0.693932
320 0.749309
325 1.04632
330 1.68761
335 2.54968
340 78.104
345 1200.37
350 1698.84
355 407.62
360 51.4917
365 10.2002
370 5.268
375 4.25554
380 5.17772
385 9.50298
390 15.1115
395 14.6779
400 13.5002
405 12.822
410 13.8972
415 15.5532
420 15.2271
425 14.1721
430 14.1336
435 13.8539
440 13.8193
445 13.1222
450 12.8151
455 12.0265
460 11.3834
465 11.0023
470 10.599
475 10.056
480 9.21244
485 8.92685
490 8.02658
495 7.90924
500 7.4905
505 6.94163
510 6.3873
515 5.5755
520 5.06526
525 4.98173
530 4.41577
535 4.21632
540 3.64041
545 3.83199
550 3.14944
555 2.92673
560 2.54803
565 2.36537
570 2.10928
575 1.93794
580 1.54525
585 1.36863
590 1.25821
595 1.15494
600 0.623222
Ex : 358
200 0.406871
205 0.445238
210 0.349182
215 0.335466
220 0.39432
225 0.325861
230 0.304909
235 0.308561
240 0.478434
245 0.426459
250 0.415658
255 0.429236
260 0.408494
265 0.411904
270 0.346751
275 0.463534
280 0.437849
285 0.36963
290 0.44578
295 0.452623
300 0.570071
305 0.511599
310 0.519905
315 0.537442
320 0.595714
325 0.936468
330 1.01344
335 1.5883
340 2.59019
345 72.7291
350 1128.31
355 1683.8
360 406.464
365 51.0712
370 9.87515
375 5.31865
380 4.76815
385 6.40731
390 10.2612
395 14.783
400 14.2748
405 12.9534
410 13.6744
415 14.5885
420 14.8009
425 13.4118
430 13.0133
435 12.9087
440 13.2798
445 12.9905
450 12.3342
455 11.573
460 11.3787
465 10.8701
470 10.527
475 9.73804
480 9.50636
485 8.87058
490 8.49265
495 7.81023
500 7.31574
505 6.45229
510 6.23342
515 5.70924
520 5.42637
525 4.97197
530 4.58779
535 3.97676
540 3.74163
545 3.61275
550 3.30168
555 2.79498
560 2.63909
565 2.44194
570 2.13751
575 1.93407
580 1.48547
585 1.25318
590 1.14556
595 1.08202
600 0.697096
Ex : 363
200 0.379556
205 0.385036
210 0.434146
215 0.363208
220 0.323166
225 0.360397
230 0.398599
235 0.323575
240 0.407097
245 0.420936
250 0.340053
255 0.394697
260 0.330999
265 0.437489
270 0.340197
275 0.362936
280 0.389229
285 0.48382
290 0.424571
295 0.509242
300 0.451694
305 0.510418
310 0.519292
315 0.532844
320 0.418391
325 0.673529
330 0.898
335 1.13707
340 1.6687
345 2.42479
350 63.5844
355 1076.18
360 1640.77
365 413.897
370 51.7954
375 9.88486
380 5.96863
385 7.03204
390 9.33869
395 11.2352
400 14.5951
405 15.6407
410 16.2254
415 16.0332
420 14.9775
425 14.4779
430 13.7235
435 13.7188
440 14.1565
445 13.9161
450 13.1271
455 12.0857
460 11.8296
465 11.2227
470 11.2021
475 10.5946
480 9.91849
485 9.11323
490 8.71971
495 8.38746
500 7.52669
505 7.3055
510 6.57466
515 6.08838
520 5.50142
525 5.0378
530 4.5828
535 3.93362
540 3.94489
545 3.6953
550 3.28211
555 2.80715
560 2.56602
565 2.18792
570 2.07873
575 1.82495
580 1.53892
585 1.21576
590 1.05718
595 0.94998
600 1.65575
Ex : 368
200 0.273799
205 0.286916
210 0.299534
215 0.303266
220 0.254032
225 0.335387
230 0.38169
235 0.33874
240 0.390472
245 0.380696
250 0.346471
255 0.400559
260 0.311262
265 0.312849
270 0.447163
275 0.431658
280 0.445847
285 0.457116
290 0.419389
295 0.346321
300 0.510215
305 0.449293
310 0.49159
315 0.47906
320 0.505889
325 0.625435
330 0.767826
335 0.850879
340 1.16653
345 1.55269
350 2.25549
355 52.1102
360 1017.18
365 1648.91
370 429.462
375 53.946
380 10.7936
385 8.97345
390 11.0071
395 11.8717
400 11.9451
405 15.1468
410 19.7244
415 19.5711
420 18.7622
425 16.772
430 15.173
435 15.5958
440 15.9628
445 15.0837
450 14.2757
455 13.3446
460 12.8178
465 12.1496
470 12.2554
475 11.281
480 10.6554
485 9.61277
490 8.8423
495 8.46523
500 7.7824
505 7.21934
510 6.61001
515 6.13107
520 5.70104
525 5.07224
530 4.6241
535 4.3718
540 3.92189
545 3.49042
550 3.28513
555 2.86866
560 2.6569
565 2.42081
570 2.07341
575 1.75252
580 1.48865
585 1.28501
590 1.08289
595 0.903315
600 0.857265
Ex : 373
200 0.37447
205 0.367063
210 0.312626
215 0.376689
220 0.26642
225 0.409107
230 0.312772
235 0.353842
240 0.310952
245 0.285177
250 0.434172
255 0.424047
260 0.422148
265 0.382641
270 0.409506
275 0.3151
280 0.291618
285 0.327015
290 0.374806
295 0.375876
300 0.433387
305 0.450224
310 0.383481
315 0.319127
320 0.467986
325 0.556113
330 0.578383
335 0.76062
340 0.89954
345 1.12223
350 1.5818
355 2.41811
360 60.3933
365 1016.01
370 1607.29
375 418.577
380 52.8774
385 12.2906
390 11.3648
395 12.7704
400 11.6827
405 11.753
410 15.7236
415 20.7681
420 19.3716
425 16.6481
430 14.6636
435 14.3258
440 15.0102
445 14.7647
450 14.015
455 13.085
460 12.176
465 11.6475
470 11.9349
475 10.9893
480 10.3082
485 9.40358
490 8.97304
495 8.4222
500 7.78422
505 7.07139
510 6.73628
515 5.79534
520 5.26078
525 5.15277
530 4.78387
535 4.22341
540 3.92197
545 3.42382
550 3.29932
555 3.08287
560 2.66413
565 2.23341
570 2.14207
575 1.74098
580 1.43388
585 1.10959
590 0.929644
595 0.988983
600 0.599012
Ex : 378
200 0.287824
205 0.267273
210 0.283468
215 0.345766
220 0.296027
225 0.362346
230 0.350067
235 0.336072
240 0.368734
245 0.328101
250 0.357008
255 0.248967
260 0.344507
265 0.370601
270 0.325489
275 0.343669
280 0.279705
285 0.361987
290 0.399565
295 0.380353
300 0.323748
305 0.364022
310 0.362568
315 0.395379
320 0.373092
325 0.49668
330 0.634274
335 0.613349
340 0.714285
345 0.857747
350 1.05548
355 1.5204
360 2.28543
365 55.5489
370 1013.62
375 1620.88
380 420.907
385 54.382
390 14.0108
395 10.432
400 9.32289
405 9.07772
410 11.1328
415 14.054
420 16.854
425 14.9479
430 13.1517
435 12.907
440 12.574
445 12.4702
450 11.8923
455 11.5221
460 10.705
465 10.4376
470 10.3569
475 9.92867
480 8.93933
485 8.7151
490 8.21381
495 7.9028
500 7.29389
505 6.79589
510 6.41118
515 5.95195
520 5.67128
525 5.05411
530 4.40175
535 4.06259
540 3.67071
545 3.55846
550 3.1587
555 2.85851
560 2.48728
565 2.31541
570 1.91289
575 1.56102
580 1.39116
585 1.15334
590 1.0036
595 0.895947
600 0.988159
Ex : 383
200 0.248361
205 0.307306
210 0.314248
215 0.270935
220 0.343027
225 0.278812
230 0.268864
235 0.33561
240 0.322319
245 0.259956
250 0.25487
255 0.353934
260 0.332479
265 0.238791
270 0.346105
275 0.357821
280 0.31285
285 0.38715
290 0.41968
295 0.369433
300 0.314718
305 0.358197
310 0.281246
315 0.372501
320 0.455498
325 0.432976
330 0.423476
335 0.603612
340 0.590427
345 0.789568
350 0.803661
355 0.939954
360 1.59685
365 2.1928
370 51.0701
375 983.849
380 1647.88
385 437.544
390 58.6121
395 14.7336
400 9.53388
405 9.8617
410 11.297
415 12.5359
420 12.9901
425 14.7331
430 14.7951
435 13.5602
440 13.1975
445 12.6304
450 11.6402
455 11.5163
460 10.9018
465 10.1607
470 10.6537
475 9.95632
480 9.67671
485 8.80258
490 8.45479
495 7.87408
500 7.18126
505 6.82901
510 6.38396
515 5.88133
520 5.24607
525 4.73345
530 4.54714
535 4.1915
540 3.74231
545 3.35274
550 3.02405
555 2.76643
560 2.59548
565 2.39541
570 2.13381
575 1.67016
580 1.27893
585 1.16484
590 1.02008
595 0.823884
600 1.03556
Ex : 388
200 0.202789
205 0.242528
210 0.31209
215 0.305387
220 0.272316
225 0.300842
230 0.315668
235 0.305567
240 0.328281
245 0.291589
250 0.275817
255 0.297463
260 0.245289
265 0.354152
270 0.267648
275 0.2764
280 0.293053
285 0.309756
290 0.29784
295 0.381014
300 0.380917
305 0.374661
310 0.410349
315 0.325829
320 0.307257
325 0.42972
330 0.444247
335 0.439859
340 0.468544
345 0.563766
350 0.680505
355 0.91024
360 1.00279
365 1.48372
370 2.29987
375 55.0986
380 1004.02
385 1632.42
390 432.228
395 59.8553
400 15.5518
405 11.4983
410 13.1534
415 14.3333
420 14.2371
425 13.1762
430 14.7504
435 15.8475
440 15.059
445 13.6855
450 12.6988
455 11.2924
460 11.3263
465 10.7625
470 10.3049
475 10.3446
480 9.51624
485 9.0721
490 8.70786
495 8.09212
500 7.31258
505 7.01139
510 6.82914
515 6.05081
520 5.35266
525 4.90061
530 4.66864
535 4.00615
540 3.60267
545 3.40259
550 3.17046
555 2.69427
560 2.61566
565 2.22769
570 1.85985
575 1.58114
580 1.40847
585 1.18835
590 0.960361
595 0.81398
600 0.389708
Ex : 393
200 0.321416
205 0.285237
210 0.28731
215 0.306546
220 0.322635
225 0.32762
230 0.265196
235 0.251691
240 0.280063
245 0.27163
250 0.298972
255 0.340958
260 0.301922
265 0.333751
270 0.347064
275 0.317699
280 0.237938
285 0.302231
290 0.340854
295 0.376519
300 0.257364
305 0.288075
310 0.349549
315 0.303779
320 0.350433
325 0.426519
330 0.409053
335 0.444541
340 0.49816
345 0.500845
350 0.636923
355 0.658926
360 0.807028
365 0.977436
370 1.39866
375 2.24275
380 47.6171
385 986.014
390 1644
395 442.819
400 60.9996
405 16.0207
410 12.6199
415 14.4237
420 13.9514
425 12.6686
430 11.5965
435 12.83
440 15.2312
445 14.3613
450 12.8395
455 11.4532
460 10.6005
465 10.0747
470 10.1185
475 9.55692
480 9.05922
485 8.42839
490 8.0275
495 7.49552
500 7.2327
505 6.78035
510 6.45531
515 5.54527
520 5.34667
525 4.799
530 4.37297
535 4.10943
540 3.68286
545 3.18024
550 2.93058
555 2.75361
560 2.5584
565 2.30247
570 1.94386
575 1.68053
580 1.33876
585 1.17575
590 0.894188
595 0.897376
600 1.32652
Ex : 398
200 0.37644
205 0.294778
210 0.242713
215 0.261237
220 0.337004
225 0.226087
230 0.303828
235 0.298969
240 0.297295
245 0.33116
250 0.254678
255 0.209519
260 0.228423
265 0.248295
270 0.254859
275 0.277836
280 0.33238
285 0.27544
290 0.295756
295 0.301779
300 0.334459
305 0.259325
310 0.341949
315 0.216282
320 0.312049
325 0.342347
330 0.405914
335 0.427384
340 0.418331
345 0.484633
350 0.515136
355 0.527298
360 0.661856
365 0.740846
370 0.89841
375 1.34428
380 2.33817
385 49.2908
390 992.173
395 1663.44
400 439.835
405 57.3394
410 13.7389
415 10.5451
420 9.9053
425 8.98134
430 7.8328
435 8.22171
440 9.61431
445 11.8018
450 11.2489
455 9.87933
460 9.07756
465 8.72035
470 8.29668
475 8.315
480 7.74546
485 7.53488
490 7.34691
495 7.10328
500 6.91157
505 6.18419
510 5.91027
515 5.54371
520 5.00748
525 4.63904
530 4.35741
535 3.76423
540 3.63412
545 3.30599
550 2.95213
555 2.60517
560 2.42866
565 2.20569
570 1.8849
575 1.53979
580 1.32456
585 1.11717
590 0.899398
595 0.711465
600 0.519618
Ex : 403
200 0.242661
205 0.241292
210 0.268665
215 0.237775
220 0.256681
225 0.232724
230 0.227059
235 0.240641
240 0.224326
245 0.279561
250 0.24886
255 0.248939
260 0.285774
265 0.300049
270 0.275202
275 0.246777
280 0.250604
285 0.296866
290 0.285961
295 0.283392
300 0.271017
305 0.224368
310 0.292242
315 0.309983
320 0.337559
325 0.326893
330 0.353623
335 0.320042
340 0.386588
345 0.449588
350 0.452233
355 0.456982
360 0.637926
365 0.64607
370 0.767674
375 0.876194
380 1.37767
385 2.37717
390 55.113
395 1008.21
400 1635.16
405 435.764
410 55.5147
415 12.018
420 7.16738
425 6.52984
430 6.19192
435 6.05144
440 6.54912
445 7.50219
450 9.69377
455 9.93875
460 8.47142
465 8.10047
470 7.59824
475 7.26273
480 7.42251
485 7.24374
490 6.99365
495 6.70521
500 6.10747
505 5.9746
510 5.62995
515 5.3992
520 5.02381
525 4.54857
530 4.19714
535 3.90039
540 3.48793
545 3.20618
550 2.90362
555 2.51273
560 2.34321
565 2.02037
570 1.96595
575 1.59999
580 1.25941
585 1.07053
590 0.849719
595 0.768794
600 0.435959
Ex : 408
200 0.272051
205 0.318243
210 0.20491
215 0.284922
220 0.248801
225 0.215884
230 0.241084
235 0.294367
240 0.313793
245 0.239582
250 0.245501
255 0.280024
260 0.253863
265 0.277999
270 0.248715
275 0.246093
280 0.226208
285 0.270866
290 0.251279
295 0.319385
300 0.233478
305 0.231719
310 0.250937
315 0.292882
320 0.248636
325 0.289901
330 0.326082
335 0.366192
340 0.418905
345 0.441514
350 0.39006
355 0.473408
360 0.485321
365 0.542019
370 0.557111
375 0.772645
380 0.911789
385 1.37129
390 2.25813
395 51.5976
400 1013.46
405 1647.4
410 427.153
415 54.7575
420 11.8621
425 6.37545
430 6.17493
435 6.02703
440 6.25314
445 6.83232
450 7.17966
455 8.94507
460 9.8642
465 8.50635
470 7.7481
475 7.64595
480 7.03371
485 6.75735
490 6.54637
495 6.40063
500 6.25149
505 5.88445
510 5.44025
515 5.21593
520 4.85098
525 4.43546
530 4.17962
535 3.85326
540 3.48367
545 3.18219
550 2.85829
555 2.65893
560 2.43274
565 2.08514
570 1.78272
575 1.55225
580 1.30443
585 1.01826
590 0.859595
595 0.736496
600 0.568546
Ex : 413
200 0.23379
205 0.197958
210 0.214384
215 0.220245
220 0.252371
225 0.20829
230 0.231014
235 0.227797
240 0.230923
245 0.241902
250 0.261636
255 0.287981
260 0.276333
265 0.206454
270 0.22804
275 0.331361
280 0.321952
285 0.255691
290 0.355756
295 0.262246
300 0.237856
305 0.29855
310 0.284475
315 0.272605
320 0.312675
325 0.373109
330 0.340401
335 0.40018
340 0.350838
345 0.401071
350 0.522621
355 0.449958
360 0.453609
365 0.463237
370 0.621804
375 0.702796
380 0.729423
385 0.965066
390 1.46167
395 2.18777
400 56.534
405 1025.04
410 1628.57
415 417.858
420 53.2913
425 11.0512
430 6.13437
435 5.94341
440 6.07211
445 6.1337
450 6.02333
455 6.3141
460 7.31857
465 9.35221
470 8.55177
475 7.9005
480 7.26058
485 6.63604
490 6.51555
495 6.175
500 6.02444
505 5.79158
510 5.44432
515 4.95944
520 4.62983
525 4.24268
530 3.87582
535 3.59592
540 3.42365
545 3.26925
550 2.88973
555 2.45232
560 2.25412
565 2.10382
570 1.74701
575 1.55492
580 1.23928
585 0.998016
590 0.954687
595 0.857482
600 0.168474
Ex : 418
200 0.262697
205 0.280516
210 0.247366
215 0.308051
220 0.206425
225 0.231677
230 0.294187
235 0.267195
240 0.243168
245 0.214325
250 0.241559
255 0.204855
260 0.294426
265 0.255423
270 0.300805
275 0.303366
280 0.259313
285 0.255084
290 0.224673
295 0.307442
300 0.272886
305 0.297945
310 0.223826
315 0.247825
320 0.266385
325 0.352277
330 0.375355
335 0.410424
340 0.317487
345 0.405293
350 0.368218
355 0.399989
360 0.418322
365 0.440291
370 0.463833
375 0.6084
380 0.642277
385 0.849922
390 1.08356
395 1.3767
400 2.28756
405 54.3604
410 1013.73
415 1621.94
420 420.935
425 52.5427
430 9.71027
435 4.76757
440 4.98648
445 5.20084
450 4.66527
455 4.56981
460 4.83147
465 5.71926
470 7.78142
475 7.79786
480 6.69687
485 6.48248
490 5.85864
495 5.4227
500 5.51296
505 5.28438
510 4.96169
515 4.54105
520 4.35377
525 4.23363
530 3.72239
535 3.42464
540 3.22418
545 2.90899
550 2.65862
555 2.44907
560 2.2619
565 2.03155
570 1.76375
575 1.54379
580 1.25961
585 1.01243
590 0.910725
595 0.766485
600 1.28826
Ex : 423
200 0.246828
205 0.308102
210 0.257571
215 0.285201
220 0.249396
225 0.262586
230 0.281084
235 0.271994
240 0.245135
245 0.244844
250 0.244331
255 0.270405
260 0.250481
265 0.263048
270 0.226219
275 0.220563
280 0.232676
285 0.266598
290 0.277882
295 0.243977
300 0.222589
305 0.304508
310 0.228202
315 0.243551
320 0.286433
325 0.300509
330 0.269101
335 0.344763
340 0.306474
345 0.371972
350 0.416524
355 0.423748
360 0.394474
365 0.397237
370 0.425523
375 0.576755
380 0.566326
385 0.598611
390 0.845658
395 1.0528
400 1.42759
405 2.12009
410 55.6182
415 1039.76
420 1600.44
425 397.153
430 49.0626
435 8.82549
440 4.15052
445 3.9458
450 4.05797
455 3.96293
460 3.76438
465 4.24774
470 4.84484
475 6.73212
480 7.59289
485 6.2252
490 5.81505
495 5.4365
500 5.28349
505 4.85447
510 4.74388
515 4.44452
520 4.15254
525 3.95048
530 3.71358
535 3.44717
540 3.27186
545 2.90204
550 2.73791
555 2.60591
560 2.28918
565 2.04895
570 1.78154
575 1.52372
580 1.3156
585 1.12564
590 0.87053
595 0.757354
600 1.05556
Ex : 428
200 0.242886
205 0.269578
210 0.25563
215 0.250462
220 0.245037
225 0.213242
230 0.264646
235 0.257818
240 0.24377
245 0.243211
250 0.302305
255 0.291234
260 0.274128
265 0.24995
270 0.272135
275 0.301108
280 0.287906
285 0.260935
290 0.244494
295 0.224447
300 0.291702
305 0.271936
310 0.307015
315 0.29678
320 0.287795
325 0.305144
330 0.297095
335 0.381489
340 0.33352
345 0.361417
350 0.372544
355 0.370518
360 0.330347
365 0.449075
370 0.43243
375 0.414246
380 0.472714
385 0.599495
390 0.633977
395 0.816341
400 0.955393
405 1.4142
410 2.16271
415 60.0988
420 1030.79
425 1592.56
430 408.766
435 50.4301
440 8.82292
445 3.79451
450 3.49847
455 3.66675
460 3.55551
465 3.50564
470 3.97532
475 4.3557
480 5.74118
485 6.99692
490 5.99595
495 5.50791
500 4.91655
505 4.61205
510 4.41622
515 4.3303
520 3.968
525 3.67312
530 3.77896
535 3.4743
540 3.08646
545 2.73311
550 2.65104
555 2.58047
560 2.24371
565 2.07695
570 1.70521
575 1.50098
580 1.1826
585 1.03733
590 0.908306
595 0.763758
600 0.961181
Ex : 433
200 0.256084
205 0.254852
210 0.199517
215 0.246743
220 0.227601
225 0.290603
230 0.2476
235 0.246721
240 0.19593
245 0.291286
250 0.232154
255 0.277529
260 0.228588
265 0.253784
270 0.30202
275 0.299679
280 0.260389
285 0.290818
290 0.257596
295 0.246081
300 0.186554
305 0.259571
310 0.308618
315 0.260586
320 0.278338
325 0.319099
330 0.291127
335 0.309797
340 0.320574
345 0.337833
350 0.427442
355 0.372867
360 0.426322
365 0.335488
370 0.399309
375 0.435662
380 0.488672
385 0.51304
390 0.576774
395 0.670546
400 0.752401
405 1.20186
410 1.54685
415 2.38768
420 64.9077
425 1086.38
430 1602.32
435 393.207
440 48.2867
445 8.47815
450 3.79711
455 3.45288
460 3.52413
465 3.4936
470 3.51548
475 3.6576
480 3.92496
485 4.83008
490 6.70517
495 6.03336
500 5.0361
505 4.83993
510 4.467
515 4.05538
520 3.73756
525 3.64393
530 3.34281
535 3.26285
540 3.04791
545 2.77968
550 2.62878
555 2.53984
560 2.14038
565 2.02292
570 1.63008
575 1.49725
580 1.29361
585 0.997275
590 0.988031
595 0.772262
600 0.614159
Ex : 438
200 0.251483
205 0.264604
210 0.232643
215 0.26759
220 0.203539
225 0.239108
230 0.255863
235 0.234999
240 0.207173
245 0.220181
250 0.298632
255 0.242954
260 0.290069
265 0.258734
270 0.260645
275 0.267926
280 0.305965
285 0.275447
290 0.222471
295 0.256939
300 0.283897
305 0.266015
310 0.308365
315 0.32676
320 0.254059
325 0.239017
330 0.299453
335 0.306098
340 0.340908
345 0.344369
350 0.403432
355 0.307082
360 0.379463
365 0.330971
370 0.433325
375 0.394066
380 0.393199
385 0.514691
390 0.498827
395 0.657319
400 0.770909
405 0.806858
410 0.896146
415 1.44265
420 2.24747
425 61.5852
430 1063.82
435 1661.16
440 410.129
445 50.2618
450 8.67976
455 3.66925
460 3.53652
465 3.69886
470 3.45743
475 3.50071
480 3.64898
485 3.80336
490 4.41012
495 5.88436
500 6.06736
505 4.81259
510 4.39634
515 4.08413
520 4.01553
525 3.54257
530 3.2902
535 3.39796
540 3.08997
545 2.61009
550 2.69017
555 2.52203
560 2.20711
565 2.00028
570 1.67034
575 1.44651
580 1.2993
585 1.05516
590 0.914944
595 0.780478
600 0.839376
Ex : 443
200 0.245748
205 0.218212
210 0.271048
215 0.286565
220 0.273814
225 0.236515
230 0.274734
235 0.309028
240 0.266911
245 0.256205
250 0.271607
255 0.28596
260 0.255959
265 0.266189
270 0.252801
275 0.272314
280 0.261782
285 0.283677
290 0.231095
295 0.281761
300 0.222619
305 0.281121
310 0.302361
315 0.226444
320 0.279187
325 0.234141
330 0.223538
335 0.328751
340 0.284463
345 0.342179
350 0.320235
355 0.318749
360 0.373043
365 0.33054
370 0.36689
375 0.382514
380 0.398867
385 0.476851
390 0.532241
395 0.565045
400 0.601768
405 0.695492
410 0.851203
415 1.09519
420 1.4578
425 2.3698
430 66.6284
435 1119.02
440 1659.85
445 407.109
450 50.1208
455 8.79956
460 3.78015
465 3.43037
470 3.61156
475 3.60453
480 3.36225
485 3.3884
490 3.6311
495 4.01252
500 5.30003
505 5.8873
510 4.89839
515 4.36791
520 4.02403
525 3.50426
530 3.18915
535 3.12345
540 2.90563
545 2.88075
550 2.5442
555 2.49678
560 2.31268
565 1.92288
570 1.71478
575 1.49359
580 1.27389
585 1.04841
590 0.951342
595 0.780499
600 1.5134
Ex : 448
200 0.318045
205 0.265804
210 0.268935
215 0.303483
220 0.204931
225 0.251278
230 0.28792
235 0.238158
240 0.280126
245 0.247696
250 0.242471
255 0.284295
260 0.212052
265 0.233494
270 0.259202
275 0.24965
280 0.237967
285 0.17175
290 0.2731
295 0.293181
300 0.299811
305 0.275361
310 0.290721
315 0.268363
320 0.244325
325 0.283994
330 0.267397
335 0.286272
340 0.37818
345 0.346914
350 0.449675
355 0.487118
360 0.377774
365 0.376243
370 0.341478
375 0.37093
380 0.369271
385 0.417989
390 0.540921
395 0.459028
400 0.482568
405 0.538628
410 0.602571
415 0.816936
420 1.01518
425 1.40043
430 2.20784
435 67.3618
440 1161.39
445 1720.87
450 421.022
455 51.6046
460 9.03223
465 3.86748
470 3.34798
475 3.49293
480 3.44282
485 3.39154
490 3.37575
495 3.44061
500 3.48558
505 4.59228
510 5.64334
515 5.15936
520 4.35553
525 3.82481
530 3.54131
535 3.10873
540 2.86667
545 2.68962
550 2.63689
555 2.40815
560 2.15665
565 2.07053
570 1.71903
575 1.42704
580 1.10922
585 1.03088
590 0.796144
595 0.778813
600 0.847797
Ex : 453
200 0.209041
205 0.235674
210 0.199037
215 0.279146
220 0.264673
225 0.232186
230 0.234997
235 0.20321
240 0.278251
245 0.284142
250 0.252822
255 0.263813
260 0.301684
265 0.207887
270 0.262096
275 0.337936
280 0.292115
285 0.26035
290 0.288329
295 0.221558
300 0.198576
305 0.19906
310 0.273925
315 0.28126
320 0.300792
325 0.407137
330 0.336253
335 0.336971
340 0.34372
345 0.317969
350 0.344197
355 0.377538
360 0.377846
365 0.327357
370 0.385899
375 0.374661
380 0.371059
385 0.410861
390 0.406473
395 0.400201
400 0.466581
405 0.541744
410 0.652086
415 0.768852
420 0.784481
425 0.948647
430 1.40127
435 2.30601
440 69.2901
445 1231.92
450 1765.02
455 406.927
460 50.0175
465 9.07788
470 3.80364
475 3.25
480 3.40772
485 3.36426
490 3.31904
495 3.29644
500 3.14849
505 3.44035
510 4.11577
515 5.24578
520 4.90278
525 4.17869
530 3.64316
535 3.3607
540 2.92934
545 2.73864
550 2.54945
555 2.3868
560 2.14062
565 1.86347
570 1.7448
575 1.37585
580 1.30587
585 1.0986
590 0.879465
595 0.84924
600 0.620954
Ex : 458
200 0.229903
205 0.248067
210 0.276613
215 0.265973
220 0.214732
225 0.223092
230 0.269066
235 0.25071
240 0.236396
245 0.250427
250 0.337081
255 0.286078
260 0.228326
265 0.236741
270 0.243117
275 0.217912
280 0.256204
285 0.202628
290 0.277608
295 0.259621
300 0.248127
305 0.257882
310 0.293606
315 0.272918
320 0.297707
325 0.290317
330 0.327555
335 0.295097
340 0.275905
345 0.321081
350 0.336955
355 0.347767
360 0.366739
365 0.326094
370 0.290116
375 0.31176
380 0.379191
385 0.379169
390 0.390097
395 0.469145
400 0.502851
405 0.566066
410 0.606163
415 0.624733
420 0.664969
425 0.747378
430 1.01312
435 1.31349
440 2.33155
445 77.0639
450 1252.26
455 1826.93
460 433.053
465 53.2857
470 9.21473
475 3.71918
480 3.22986
485 3.47611
490 3.4218
495 3.16935
500 3.06583
505 2.96152
510 3.12112
515 3.39783
520 4.65709
525 5.08716
530 4.2291
535 3.48823
540 3.22277
545 2.93456
550 2.72389
555 2.5091
560 2.21049
565 1.99912
570 1.75336
575 1.40506
580 1.22358
585 1.06683
590 0.900189
595 0.757381
600 1.03463
Ex : 463
200 0.265753
205 0.187187
210 0.281761
215 0.225796
220 0.227141
225 0.27108
230 0.230474
235 0.282159
240 0.184159
245 0.217425
250 0.222299
255 0.233354
260 0.315071
265 0.222166
270 0.30429
275 0.27128
280 0.229316
285 0.190816
290 0.272592
295 0.276214
300 0.27504
305 0.289131
310 0.244259
315 0.252714
320 0.261868
325 0.293329
330 0.254092
335 0.27873
340 0.242872
345 0.334477
350 0.284215
355 0.335812
360 0.354663
365 0.277934
370 0.345757
375 0.327505
380 0.288041
385 0.35883
390 0.4219
395 0.397381
400 0.360704
405 0.475606
410 0.492915
415 0.556351
420 0.625607
425 0.680469
430 0.748638
435 1.09273
440 1.29133
445 2.32016
450 74.0286
455 1287.94
460 1933.87
465 456.367
470 55.9687
475 9.33088
480 3.78798
485 3.01183
490 3.1549
495 3.31825
500 3.12823
505 2.87572
510 3.09343
515 3.09713
520 3.26817
525 3.9359
530 4.90217
535 4.3649
540 3.19765
545 3.04034
550 2.79625
555 2.44063
560 2.1528
565 2.009
570 1.83071
575 1.49754
580 1.17257
585 1.15419
590 0.947073
595 0.825578
600 1.37866
Ex : 468
200 0.195837
205 0.232915
210 0.201238
215 0.191496
220 0.169542
225 0.207606
230 0.195711
235 0.273179
240 0.23801
245 0.194792
250 0.269944
255 0.187814
260 0.228141
265 0.188167
270 0.238452
275 0.236676
280 0.261272
285 0.235611
290 0.230912
295 0.230731
300 0.269869
305 0.295508
310 0.233875
315 0.267856
320 0.274481
325 0.273035
330 0.25542
335 0.271566
340 0.26437
345 0.220834
350 0.25247
355 0.290311
360 0.268594
365 0.355386
370 0.317022
375 0.298445
380 0.304098
385 0.330926
390 0.409061
395 0.447064
400 0.374089
405 0.427511
410 0.431574
415 0.519486
420 0.571195
425 0.523224
430 0.61765
435 0.749123
440 0.98971
445 1.39829
450 2.16139
455 80.1055
460 1294.66
465 1995.62
470 467.065
475 56.7666
480 9.40928
485 3.63993
490 2.99637
495 2.99005
500 3.18729
505 2.80212
510 2.69848
515 2.87212
520 3.05262
525 2.90281
530 3.36175
535 4.33761
540 4.32149
545 3.39171
550 3.00823
555 2.76914
560 2.36128
565 2.09575
570 1.76335
575 1.54607
580 1.34766
585 1.08048
590 0.978525
595 0.73614
600 0.446478
Ex : 473
200 0.216
205 0.184693
210 0.207957
215 0.251893
220 0.234828
225 0.230322
230 0.198029
235 0.213613
240 0.245367
245 0.239389
250 0.236197
255 0.225682
260 0.241018
265 0.20995
270 0.230296
275 0.243127
280 0.260808
285 0.212166
290 0.195856
295 0.248684
300 0.245348
305 0.212599
310 0.230239
315 0.246022
320 0.25646
325 0.234707
330 0.337127
335 0.299083
340 0.292357
345 0.260232
350 0.304123
355 0.303563
360 0.277975
365 0.331568
370 0.317793
375 0.34644
380 0.365208
385 0.343965
390 0.369243
395 0.383507
400 0.382691
405 0.474014
410 0.417815
415 0.397769
420 0.461917
425 0.555516
430 0.549471
435 0.625354
440 0.764296
445 0.96641
450 1.47616
455 2.43214
460 91.8344
465 1400.83
470 1931.27
475 436.107
480 53.1303
485 8.86026
490 3.56147
495 2.67907
500 2.96926
505 2.99637
510 2.89113
515 2.70129
520 2.63581
525 2.7701
530 2.87569
535 3.07534
540 3.83129
545 4.12959
550 3.45887
555 2.76961
560 2.42724
565 2.27548
570 1.81168
575 1.6101
580 1.33134
585 1.08773
590 0.922543
595 0.814951
600 1.03749
Ex : 478
200 0.263607
205 0.271114
210 0.233461
215 0.232654
220 0.272234
225 0.254695
230 0.304332
235 0.210136
240 0.270085
245 0.252963
250 0.258566
255 0.392965
260 0.337433
265 0.267488
270 0.252414
275 0.294995
280 0.349007
285 0.278716
290 0.285061
295 0.235198
300 0.291913
305 0.266911
310 0.299883
315 0.300889
320 0.286655
325 0.336885
330 0.393411
335 0.312911
340 0.278333
345 0.371346
350 0.428179
355 0.351048
360 0.310031
365 0.386113
370 0.367842
375 0.41554
380 0.364351
385 0.383977
390 0.470977
395 0.459866
400 0.385555
405 0.49631
410 0.464127
415 0.466047
420 0.47208
425 0.591316
430 0.621556
435 0.684107
440 0.79359
445 0.917925
450 1.11448
455 1.72058
460 2.83952
465 99.9737
470 1426.61
475 1938.33
480 460.341
485 56.1835
490 9.35756
495 3.65483
500 2.88923
505 2.99458
510 2.94864
515 2.85304
520 2.6978
525 2.9579
530 2.9239
535 2.7764
540 2.88699
545 3.32833
550 3.85877
555 3.31233
560 2.68397
565 2.3644
570 1.96529
575 1.79459
580 1.39771
585 1.08775
590 1.06472
595 0.814173
600 0.308561
Ex : 483
200 0.254614
205 0.254657
210 0.240368
215 0.292762
220 0.293223
225 0.272431
230 0.228013
235 0.227035
240 0.276577
245 0.257817
250 0.283735
255 0.266649
260 0.269291
265 0.338698
270 0.315721
275 0.275463
280 0.261229
285 0.272034
290 0.315631
295 0.346143
300 0.300861
305 0.280631
310 0.323089
315 0.325187
320 0.326072
325 0.384737
330 0.342078
335 0.338328
340 0.316408
345 0.306137
350 0.343486
355 0.321271
360 0.355035
365 0.340154
370 0.370919
375 0.396998
380 0.412048
385 0.352691
390 0.424586
395 0.42167
400 0.413552
405 0.492163
410 0.430674
415 0.459646
420 0.472919
425 0.543839
430 0.639135
435 0.553151
440 0.60107
445 0.697773
450 0.873442
455 1.3007
460 1.90525
465 2.9448
470 77.2516
475 1392.76
480 2075.4
485 485.642
490 58.8591
495 9.45121
500 3.5899
505 2.82385
510 2.87536
515 2.90505
520 2.89088
525 2.96811
530 2.65013
535 2.78302
540 2.65465
545 2.58742
550 2.7947
555 3.57071
560 3.43333
565 2.5173
570 2.08183
575 1.83357
580 1.58753
585 1.13244
590 1.11487
595 0.882145
600 0.902802
Ex : 488
200 0.289569
205 0.341515
210 0.311732
215 0.286585
220 0.266944
225 0.311625
230 0.291294
235 0.250498
240 0.231792
245 0.356227
250 0.287669
255 0.37931
260 0.39653
265 0.305787
270 0.296794
275 0.255883
280 0.278425
285 0.386369
290 0.316214
295 0.347593
300 0.317457
305 0.316248
310 0.347195
315 0.332356
320 0.333194
325 0.346295
330 0.360903
335 0.338521
340 0.375171
345 0.402721
350 0.36236
355 0.300139
360 0.322274
365 0.323941
370 0.366268
375 0.364246
380 0.399041
385 0.450316
390 0.459334
395 0.404274
400 0.454107
405 0.492818
410 0.467572
415 0.467734
420 0.48018
425 0.530643
430 0.57955
435 0.652055
440 0.652597
445 0.828028
450 0.897354
455 1.04194
460 1.3866
465 2.07373
470 2.88332
475 93.4375
480 1486.76
485 2016.98
490 466.478
495 56.9206
500 9.36984
505 3.47816
510 2.85468
515 2.77494
520 2.99949
525 3.05378
530 3.04869
535 2.63395
540 2.68131
545 2.38686
550 2.36727
555 2.47583
560 2.93694
565 3.27545
570 2.51302
575 1.88556
580 1.50316
585 1.20673
590 1.01916
595 0.911608
600 0.687422
Ex : 493
200 0.366774
205 0.245986
210 0.279245
215 0.345207
220 0.291928
225 0.298549
230 0.350372
235 0.265532
240 0.342656
245 0.313747
250 0.322389
255 0.263914
260 0.288336
265 0.271828
270 0.27023
275 0.268944
280 0.290548
285 0.210304
290 0.215112
295 0.343838
300 0.305354
305 0.278942
310 0.366274
315 0.26621
320 0.281407
325 0.2314
330 0.361297
335 0.273982
340 0.336763
345 0.299005
350 0.41651
355 0.348395
360 0.336551
365 0.384198
370 0.321235
375 0.356368
380 0.411522
385 0.366348
390 0.426404
395 0.373144
400 0.390693
405 0.444335
410 0.439182
415 0.447033
420 0.451548
425 0.499096
430 0.505415
435 0.585025
440 0.604947
445 0.646493
450 0.803368
455 0.833817
460 1.00348
465 1.35616
470 1.87445
475 2.71557
480 86.7795
485 1457.23
490 2101.59
495 474.322
500 57.4101
505 9.1526
510 3.53477
515 2.74653
520 2.84208
525 2.91394
530 2.8624
535 2.79372
540 2.71029
545 2.5413
550 2.2671
555 2.27594
560 2.16974
565 2.29313
570 2.78181
575 2.30748
580 1.70936
585 1.33372
590 1.14997
595 0.864819
600 0.914003
Ex : 498
200 0.270027
205 0.288132
210 0.394568
215 0.299068
220 0.329214
225 0.281274
230 0.259511
235 0.286904
240 0.266454
245 0.299063
250 0.356142
255 0.32739
260 0.358483
265 0.295401
270 0.29443
275 0.248231
280 0.32129
285 0.34893
290 0.325761
295 0.319507
300 0.332074
305 0.31334
310 0.294818
315 0.332903
320 0.356445
325 0.340456
330 0.379845
335 0.295099
340 0.415647
345 0.473382
350 0.388523
355 0.35689
360 0.348976
365 0.417522
370 0.44672
375 0.463434
380 0.436689
385 0.471329
390 0.440113
395 0.472689
400 0.402286
405 0.47159
410 0.439559
415 0.374974
420 0.490268
425 0.587949
430 0.509012
435 0.556847
440 0.573757
445 0.634879
450 0.672363
455 0.817936
460 0.971001
465 1.22444
470 1.46521
475 1.81521
480 2.90489
485 102.002
490 1523.38
495 2024
500 461.24
505 55.8952
510 9.17307
515 3.62302
520 2.54734
525 2.77692
530 2.83485
535 2.77721
540 2.6036
545 2.2904
550 2.44571
555 2.111
560 2.13822
565 2.01093
570 1.92661
575 2.22474
580 1.95637
585 1.49966
590 1.1609
595 0.936629
600 0.582871
Ex : 503
200 0.373339
205 0.472295
210 0.387109
215 0.368502
220 0.324177
225 0.407508
230 0.430257
235 0.386202
240 0.356974
245 0.396168
250 0.467051
255 0.336842
260 0.454417
265 0.391687
270 0.240873
275 0.307454
280 0.417586
285 0.367699
290 0.362641
295 0.424395
300 0.45718
305 0.381195
310 0.351275
315 0.40579
320 0.379471
325 0.412191
330 0.406583
335 0.406923
340 0.333472
345 0.392068
350 0.365826
355 0.398124
360 0.383232
365 0.437345
370 0.461958
375 0.432958
380 0.367744
385 0.405846
390 0.435104
395 0.432571
400 0.38849
405 0.402404
410 0.456059
415 0.57016
420 0.499031
425 0.482527
430 0.558859
435 0.597692
440 0.605132
445 0.497725
450 0.62637
455 0.791743
460 0.788343
465 0.991271
470 1.1134
475 1.48211
480 1.92871
485 2.97321
490 91.697
495 1495.28
500 2056.89
505 466.875
510 56.5897
515 9.14786
520 3.57091
525 2.90116
530 2.57253
535 2.90723
540 2.68355
545 2.54109
550 2.20567
555 2.07181
560 2.03989
565 1.74047
570 1.79697
575 1.53896
580 1.76925
585 1.88768
590 1.41006
595 1.0366
600 0.49
Ex : 508
200 0.363605
205 0.340711
210 0.419794
215 0.273817
220 0.304283
225 0.358835
230 0.46846
235 0.326267
240 0.311322
245 0.268161
250 0.299399
255 0.332098
260 0.355828
265 0.365326
270 0.466582
275 0.341062
280 0.31141
285 0.352563
290 0.2813
295 0.355336
300 0.329406
305 0.395671
310 0.28069
315 0.395777
320 0.367832
325 0.473726
330 0.32022
335 0.379212
340 0.407607
345 0.405914
350 0.42307
355 0.413956
360 0.467837
365 0.436961
370 0.358226
375 0.432478
380 0.511962
385 0.492846
390 0.442878
395 0.429648
400 0.399153
405 0.482524
410 0.537829
415 0.510238
420 0.51963
425 0.483063
430 0.548302
435 0.550213
440 0.641668
445 0.606322
450 0.70708
455 0.71889
460 0.866436
465 0.89751
470 0.842841
475 1.12787
480 1.40466
485 1.73763
490 2.87835
495 99.6931
500 1495.81
505 2034.56
510 481.783
515 58.4816
520 9.59263
525 3.88507
530 2.74791
535 2.64686
540 2.55999
545 2.6292
550 2.50368
555 2.17154
560 1.82136
565 1.93436
570 1.68119
575 1.60647
580 1.29302
585 1.25995
590 1.594
595 1.41636
600 0.947953
Ex : 513
200 0.355847
205 0.365618
210 0.337971
215 0.317486
220 0.331352
225 0.449086
230 0.394241
235 0.403572
240 0.378972
245 0.403142
250 0.408165
255 0.364093
260 0.406841
265 0.414151
270 0.440545
275 0.354788
280 0.283552
285 0.307829
290 0.470776
295 0.347795
300 0.445335
305 0.327469
310 0.370447
315 0.353733
320 0.327937
325 0.426936
330 0.421554
335 0.372605
340 0.381319
345 0.406176
350 0.413059
355 0.467887
360 0.340073
365 0.408335
370 0.454421
375 0.460259
380 0.398384
385 0.433692
390 0.439471
395 0.457087
400 0.506528
405 0.460781
410 0.445793
415 0.576655
420 0.535097
425 0.495834
430 0.490666
435 0.461031
440 0.481375
445 0.60165
450 0.652254
455 0.571911
460 0.786233
465 0.729827
470 0.821537
475 0.98066
480 1.04309
485 1.45886
490 2.02064
495 2.811
500 90.4046
505 1451.64
510 2058.38
515 494.425
520 60.1529
525 9.75244
530 3.57632
535 2.80557
540 2.48514
545 2.46843
550 2.46578
555 2.18456
560 1.84812
565 1.69856
570 1.58065
575 1.4488
580 1.20007
585 1.00562
590 1.14668
595 1.22643
600 0.448392
Ex : 518
200 0.351182
205 0.44506
210 0.420542
215 0.345966
220 0.441165
225 0.375508
230 0.36787
235 0.289871
240 0.341852
245 0.361529
250 0.346299
255 0.420725
260 0.444162
265 0.388608
270 0.422934
275 0.36955
280 0.323088
285 0.334817
290 0.366152
295 0.345066
300 0.383329
305 0.368673
310 0.30776
315 0.385229
320 0.359193
325 0.421024
330 0.381753
335 0.488415
340 0.428897
345 0.367413
350 0.374413
355 0.324616
360 0.375659
365 0.430566
370 0.45781
375 0.436226
380 0.451571
385 0.456153
390 0.435879
395 0.424129
400 0.507871
405 0.500237
410 0.566729
415 0.457633
420 0.576957
425 0.484367
430 0.579778
435 0.546081
440 0.574484
445 0.6388
450 0.710235
455 0.536631
460 0.577781
465 0.732022
470 0.681237
475 0.812231
480 0.925648
485 1.06985
490 1.37601
495 1.92645
500 2.912
505 90.8721
510 1398.2
515 2019.39
520 495.413
525 60.186
530 9.56243
535 3.54766
540 2.61652
545 2.22621
550 2.16132
555 2.23927
560 2.09284
565 1.93431
570 1.54634
575 1.44079
580 1.20812
585 1.14266
590 1.05604
595 0.867512
600 1.00553
Ex : 523
200 0.359542
205 0.312625
210 0.296317
215 0.40517
220 0.44713
225 0.356818
230 0.327247
235 0.278952
240 0.413395
245 0.451817
250 0.442769
255 0.441802
260 0.45465
265 0.330814
270 0.341672
275 0.3752
280 0.349678
285 0.448713
290 0.372465
295 0.40869
300 0.336083
305 0.440103
310 0.362967
315 0.298615
320 0.368176
325 0.305119
330 0.374754
335 0.418272
340 0.447038
345 0.406971
350 0.400473
355 0.432622
360 0.455175
365 0.507103
370 0.398827
375 0.501935
380 0.388434
385 0.560754
390 0.432122
395 0.479021
400 0.561888
405 0.45573
410 0.487905
415 0.471692
420 0.591266
425 0.552478
430 0.440138
435 0.546119
440 0.610043
445 0.558627
450 0.565179
455 0.697724
460 0.761976
465 0.761263
470 0.729271
475 0.789608
480 0.822401
485 0.84522
490 1.07484
495 1.26764
500 1.72026
505 2.58697
510 82.1607
515 1344.34
520 1987.49
525 497.713
530 60.3503
535 9.43153
540 3.33079
545 2.42444
550 2.08935
555 1.88764
560 1.88467
565 1.64996
570 1.61319
575 1.26472
580 1.2828
585 0.960734
590 0.948067
595 0.860364
600 0.319457
Ex : 528
200 0.276972
205 0.335235
210 0.452032
215 0.411128
220 0.349196
225 0.350061
230 0.345688
235 0.464176
240 0.451779
245 0.313819
250 0.403859
255 0.45567
260 0.400161
265 0.512761
270 0.480492
275 0.401954
280 0.380231
285 0.406
290 0.345652
295 0.320786
300 0.376465
305 0.380897
310 0.477844
315 0.498183
320 0.359151
325 0.433337
330 0.363062
335 0.43901
340 0.4396
345 0.456093
350 0.421566
355 0.405881
360 0.531352
365 0.424289
370 0.530162
375 0.403476
380 0.498519
385 0.576338
390 0.470261
395 0.514522
400 0.379757
405 0.534591
410 0.495467
415 0.548038
420 0.48653
425 0.378264
430 0.531378
435 0.538064
440 0.556302
445 0.57616
450 0.571246
455 0.546638
460 0.573368
465 0.725586
470 0.683989
475 0.678008
480 0.749024
485 0.896488
490 0.865823
495 1.11066
500 1.43359
505 1.98732
510 2.46266
515 75.3368
520 1309.36
525 1939.19
530 479.666
535 58.4134
540 9.17088
545 3.31061
550 2.28917
555 1.94171
560 1.66097
565 1.86699
570 1.61007
575 1.36933
580 1.19479
585 1.0823
590 0.933375
595 0.756505
600 0.825406
Ex : 533
200 0.43241
205 0.375966
210 0.356546
215 0.404785
220 0.400496
225 0.410475
230 0.393806
235 0.324302
240 0.452888
245 0.359357
250 0.391538
255 0.322191
260 0.391072
265 0.483347
270 0.338177
275 0.359452
280 0.42546
285 0.456794
290 0.424565
295 0.40869
300 0.438148
305 0.400793
310 0.580608
315 0.502596
320 0.343266
325 0.441219
330 0.526973
335 0.405122
340 0.51618
345 0.416676
350 0.471258
355 0.521129
360 0.425311
365 0.497168
370 0.439395
375 0.358114
380 0.489266
385 0.467224
390 0.44034
395 0.48222
400 0.400642
405 0.412016
410 0.504782
415 0.559219
420 0.560174
425 0.494225
430 0.484714
435 0.608732
440 0.537853
445 0.518287
450 0.584092
455 0.622305
460 0.509472
465 0.651393
470 0.688365
475 0.571424
480 0.789593
485 0.840588
490 0.930109
495 0.886436
500 1.24849
505 1.41942
510 1.72714
515 2.75219
520 75.7008
525 1253.95
530 1915.26
535 486.791
540 58.8489
545 9.04192
550 3.21177
555 2.18588
560 1.80581
565 1.71458
570 1.54936
575 1.39437
580 1.3075
585 1.10179
590 0.997511
595 0.970051
600 1.24473
Ex : 538
200 0.37387
205 0.471503
210 0.330649
215 0.39266
220 0.411098
225 0.469889
230 0.447072
235 0.490662
240 0.340539
245 0.44391
250 0.469797
255 0.384783
260 0.471397
265 0.340603
270 0.418507
275 0.402585
280 0.491436
285 0.417981
290 0.380613
295 0.311946
300 0.388196
305 0.411846
310 0.489152
315 0.470012
320 0.357617
325 0.504328
330 0.452823
335 0.361306
340 0.374225
345 0.394811
350 0.421937
355 0.535275
360 0.570461
365 0.481946
370 0.440941
375 0.434166
380 0.43746
385 0.420998
390 0.483553
395 0.550491
400 0.506059
405 0.531853
410 0.549268
415 0.582447
420 0.648553
425 0.464926
430 0.526861
435 0.552276
440 0.69265
445 0.527026
450 0.590867
455 0.677929
460 0.567274
465 0.563569
470 0.672198
475 0.694235
480 0.75205
485 0.747848
490 0.809824
495 0.849765
500 0.838065
505 1.00553
510 1.47123
515 1.71859
520 2.65797
525 63.1417
530 1181.33
535 1869.69
540 495.002
545 59.8754
550 8.96193
555 2.91726
560 2.19818
565 1.46691
570 1.32036
575 1.49907
580 1.3564
585 1.07253
590 0.890777
595 0.839372
600 1.24916
Ex : 543
200 0.478467
205 0.384592
210 0.342183
215 0.496418
220 0.435796
225 0.38099
230 0.409989
235 0.364842
240 0.43155
245 0.455623
250 0.451123
255 0.426962
260 0.411007
265 0.359534
270 0.424704
275 0.391439
280 0.399129
285 0.463231
290 0.397056
295 0.378266
300 0.438047
305 0.495333
310 0.398045
315 0.34373
320 0.441246
325 0.351328
330 0.545424
335 0.428661
340 0.38683
345 0.418671
350 0.472794
355 0.54133
360 0.402607
365 0.404139
370 0.404568
375 0.438115
380 0.731837
385 0.424969
390 0.420679
395 0.515351
400 0.460123
405 0.415687
410 0.499086
415 0.466049
420 0.45135
425 0.510367
430 0.513068
435 0.463775
440 0.645978
445 0.468636
450 0.679799
455 0.643158
460 0.671791
465 0.669434
470 0.741185
475 0.715438
480 0.707742
485 0.681494
490 0.837523
495 0.818276
500 0.895257
505 0.850427
510 1.14529
515 1.16182
520 1.82832
525 2.67503
530 57.5764
535 1111.44
540 1848.47
545 500.029
550 60.3005
555 9.08475
560 2.64645
565 1.78687
570 1.39335
575 1.07788
580 0.962938
585 1.0811
590 0.901011
595 0.830287
600 1.54068
Ex : 548
200 0.428699
205 0.472851
210 0.490664
215 0.406525
220 0.473245
225 0.365319
230 0.329551
235 0.506786
240 0.433344
245 0.356558
250 0.437852
255 0.46649
260 0.473392
265 0.376187
270 0.452837
275 0.361073
280 0.401345
285 0.540962
290 0.378839
295 0.420269
300 0.493973
305 0.430722
310 0.429044
315 0.388105
320 0.484747
325 0.488695
330 0.525731
335 0.500139
340 0.492684
345 0.509596
350 0.500497
355 0.414182
360 0.461049
365 0.476673
370 0.50239
375 0.40683
380 0.517079
385 0.486747
390 0.503832
395 0.506005
400 0.541001
405 0.512949
410 0.574523
415 0.524768
420 0.535289
425 0.569754
430 0.57095
435 0.490376
440 0.584474
445 0.628126
450 0.628113
455 0.781791
460 0.699603
465 0.604937
470 0.532897
475 0.514282
480 0.775686
485 0.575829
490 0.676408
495 0.710753
500 0.672125
505 0.790239
510 0.85951
515 1.09471
520 1.45215
525 1.68961
530 2.49299
535 61.5322
540 1107.23
545 1786.59
550 483.607
555 58.3853
560 8.61047
565 2.61975
570 1.75318
575 1.26179
580 1.02065
585 1.09096
590 0.88375
595 0.855659
600 1.44618
Ex : 553
200 0.461314
205 0.432591
210 0.354133
215 0.389567
220 0.525829
225 0.557906
230 0.389853
235 0.438828
240 0.357485
245 0.471192
250 0.405477
255 0.423057
260 0.380777
265 0.428036
270 0.519291
275 0.35786
280 0.437402
285 0.475618
290 0.512642
295 0.524717
300 0.402163
305 0.341348
310 0.330402
315 0.36465
320 0.493074
325 0.509001
330 0.411468
335 0.431506
340 0.405042
345 0.440877
350 0.58459
355 0.568565
360 0.558924
365 0.49896
370 0.559949
375 0.56028
380 0.515534
385 0.530245
390 0.528849
395 0.621161
400 0.650502
405 0.559976
410 0.645875
415 0.472447
420 0.47047
425 0.56581
430 0.547947
435 0.508469
440 0.504041
445 0.584579
450 0.579206
455 0.62376
460 0.672212
465 0.733518
470 0.690919
475 0.822059
480 0.621088
485 0.722169
490 0.699117
495 0.662749
500 0.719231
505 0.678529
510 0.817152
515 0.954329
520 1.03553
525 1.3181
530 1.56897
535 2.35567
540 53.1557
545 1035.19
550 1733.13
555 477.426
560 57.6821
565 8.45863
570 2.28954
575 1.6367
580 1.199
585 1.02878
590 0.929504
595 0.867037
600 0.764766
Ex : 558
200 0.407231
205 0.38273
210 0.442521
215 0.511172
220 0.577619
225 0.495235
230 0.478886
235 0.481696
240 0.485611
245 0.323975
250 0.398133
255 0.432463
260 0.430009
265 0.462713
270 0.357421
275 0.532914
280 0.484991
285 0.523632
290 0.400238
295 0.46366
300 0.436124
305 0.447898
310 0.484514
315 0.519177
320 0.493241
325 0.742117
330 0.384949
335 0.50462
340 0.470354
345 0.375445
350 0.53128
355 0.427008
360 0.553399
365 0.512635
370 0.521685
375 0.527666
380 0.559746
385 0.443398
390 0.43438
395 0.617362
400 0.646223
405 0.504388
410 0.523403
415 0.648568
420 0.623279
425 0.55665
430 0.536884
435 0.703501
440 0.663006
445 0.504778
450 0.612188
455 0.634205
460 0.679982
465 0.587383
470 0.711187
475 0.554821
480 0.634387
485 0.570874
490 0.694413
495 0.756491
500 0.722961
505 0.72299
510 0.723895
515 0.763812
520 0.981345
525 0.919699
530 1.34314
535 1.52559
540 2.26945
545 47.5812
550 967.019
555 1680.54
560 470.747
565 56.779
570 7.90172
575 2.14245
580 1.3124
585 1.02593
590 0.986876
595 0.847558
600 0.24415
Ex : 563
200 0.508599
205 0.480771
210 0.47197
215 0.524763
220 0.457136
225 0.514438
230 0.574167
235 0.394792
240 0.362868
245 0.490861
250 0.487892
255 0.474131
260 0.46703
265 0.522527
270 0.431105
275 0.411064
280 0.545717
285 0.385872
290 0.475049
295 0.498975
300 0.455405
305 0.526111
310 0.369249
315 0.424841
320 0.578371
325 0.497865
330 0.335909
335 0.446747
340 0.42549
345 0.437903
350 0.570331
355 0.496709
360 0.546983
365 0.595251
370 0.558135
375 0.655047
380 0.519541
385 0.532066
390 0.506203
395 0.479148
400 0.44286
405 0.624793
410 0.458538
415 0.58726
420 0.59393
425 0.512811
430 0.518
435 0.530419
440 0.508371
445 0.574779
450 0.581179
455 0.632831
460 0.59722
465 0.740501
470 0.652998
475 0.842166
480 0.691464
485 0.609709
490 0.668397
495 0.607666
500 0.871714
505 0.712465
510 0.691151
515 0.797704
520 0.871668
525 0.900486
530 1.01848
535 1.28098
540 1.60099
545 2.32518
550 45.965
555 938.489
560 1603.28
565 448.802
570 53.9957
575 7.77781
580 2.33996
585 1.38892
590 0.966889
595 0.828406
600 0.297358
Ex : 568
200 0.324443
205 0.401319
210 0.477901
215 0.467222
220 0.403374
225 0.410943
230 0.483693
235 0.412488
240 0.566371
245 0.39055
250 0.540789
255 0.467956
260 0.485458
265 0.480712
270 0.522284
275 0.379582
280 0.622919
285 0.478431
290 0.555413
295 0.440158
300 0.377788
305 0.451397
310 0.556658
315 0.524678
320 0.497969
325 0.411239
330 0.390205
335 0.616859
340 0.541511
345 0.491558
350 0.653578
355 0.540917
360 0.505409
365 0.439122
370 0.512103
375 0.474319
380 0.559946
385 0.552551
390 0.627101
395 0.753615
400 0.49953
405 0.613543
410 0.532835
415 0.706121
420 0.636659
425 0.555627
430 0.501631
435 0.491093
440 0.647293
445 0.616159
450 0.492118
455 0.615986
460 0.644153
465 0.66703
470 0.710432
475 0.653406
480 0.670641
485 0.67554
490 0.682359
495 0.561541
500 0.85302
505 0.825687
510 0.73012
515 0.774432
520 0.80382
525 0.822751
530 0.969336
535 1.06557
540 1.14173
545 1.51245
550 2.14877
555 36.4337
560 836.634
565 1532.04
570 453.146
575 54.6344
580 7.47771
585 1.99758
590 1.10584
595 0.784064
600 0.469917
Ex : 573
200 0.487015
205 0.453201
210 0.536764
215 0.49287
220 0.48455
225 0.47723
230 0.414444
235 0.545778
240 0.487671
245 0.539611
250 0.505359
255 0.47835
260 0.392516
265 0.512867
270 0.49023
275 0.485776
280 0.429176
285 0.4528
290 0.450381
295 0.398961
300 0.461893
305 0.51113
310 0.376071
315 0.506288
320 0.530494
325 0.51453
330 0.473852
335 0.457236
340 0.414922
345 0.535334
350 0.487026
355 0.561713
360 0.501268
365 0.435958
370 0.549022
375 0.518074
380 0.525835
385 0.478951
390 0.551758
395 0.384371
400 0.468651
405 0.522178
410 0.465217
415 0.484355
420 0.602052
425 0.525045
430 0.656324
435 0.635934
440 0.548268
445 0.48174
450 0.595226
455 0.676057
460 0.648352
465 0.648402
470 0.654883
475 0.547837
480 0.50622
485 0.650937
490 0.79454
495 0.585102
500 0.554675
505 0.593543
510 0.701322
515 0.729297
520 0.690044
525 0.814891
530 0.886596
535 0.898971
540 0.927482
545 1.07204
550 1.35551
555 2.1457
560 31.429
565 718.767
570 1407.44
575 424.782
580 51.3201
585 7.13751
590 1.8815
595 1.22269
600 2.10191
Ex : 578
200 0.581341
205 0.579548
210 0.364773
215 0.483809
220 0.414085
225 0.491498
230 0.504205
235 0.436124
240 0.469418
245 0.480875
250 0.539289
255 0.464687
260 0.503868
265 0.456451
270 0.45012
275 0.413359
280 0.59768
285 0.504072
290 0.612761
295 0.481079
300 0.424933
305 0.664358
310 0.569656
315 0.652908
320 0.490694
325 0.495177
330 0.567398
335 0.532447
340 0.467234
345 0.578894
350 0.477882
355 0.674532
360 0.613677
365 0.527591
370 0.506348
375 0.519391
380 0.693254
385 0.471761
390 0.531659
395 0.427267
400 0.396093
405 0.562454
410 0.597138
415 0.555797
420 0.546052
425 0.642595
430 0.587058
435 0.51319
440 0.620206
445 0.556394
450 0.666247
455 0.579894
460 0.566323
465 0.622366
470 0.684139
475 0.63585
480 0.619624
485 0.538658
490 0.750655
495 0.531899
500 0.729597
505 0.55988
510 0.646678
515 0.787596
520 0.622405
525 0.760471
530 0.791262
535 0.733784
540 0.849922
545 0.929522
550 0.99198
555 1.41182
560 1.85715
565 26.7281
570 633.982
575 1222.84
580 365.623
585 44.1225
590 6.13528
595 1.55088
600 1.52593
Ex : 583
200 0.518403
205 0.452549
210 0.544624
215 0.501781
220 0.437303
225 0.494015
230 0.528474
235 0.352675
240 0.465471
245 0.488761
250 0.606841
255 0.513803
260 0.474924
265 0.46829
270 0.538069
275 0.534037
280 0.390621
285 0.43537
290 0.518399
295 0.460641
300 0.544243
305 0.47277
310 0.522801
315 0.504898
320 0.44837
325 0.515351
330 0.500751
335 0.482105
340 0.555788
345 0.641385
350 0.534452
355 0.517953
360 0.531935
365 0.577484
370 0.513698
375 0.649812
380 0.536957
385 0.581594
390 0.486581
395 0.64045
400 0.47494
405 0.508586
410 0.726877
415 0.644819
420 0.584529
425 0.483322
430 0.653701
435 0.678085
440 0.43443
445 0.592742
450 0.523702
455 0.66447
460 0.610905
465 0.586512
470 0.756323
475 0.704185
480 0.647291
485 0.605547
490 0.56291
495 0.711877
500 0.687835
505 0.635264
510 0.630705
515 0.707677
520 0.67639
525 0.712031
530 0.760178
535 0.737011
540 0.789887
545 0.741836
550 1.06537
555 1.10662
560 1.47472
565 1.60303
570 22.1037
575 561.351
580 1045.46
585 296.451
590 35.9261
595 5.17608
600 0.808852
Ex : 588
200 0.574423
205 0.519276
210 0.526465
215 0.502499
220 0.596478
225 0.663822
230 0.502231
235 0.468792
240 0.599201
245 0.504928
250 0.646784
255 0.521462
260 0.400721
265 0.548723
270 0.528955
275 0.427722
280 0.439924
285 0.521486
290 0.490722
295 0.622965
300 0.616704
305 0.506649
310 0.513159
315 0.546342
320 0.514921
325 0.494986
330 0.545078
335 0.5019
340 0.509886
345 0.583301
350 0.529205
355 0.452069
360 0.643825
365 0.696406
370 0.684191
375 0.561847
380 0.614475
385 0.489428
390 0.470053
395 0.533149
400 0.582345
405 0.451922
410 0.615871
415 0.537991
420 0.460379
425 0.562499
430 0.623979
435 0.594603
440 0.60701
445 0.533908
450 0.710696
455 0.521941
460 0.601481
465 0.558375
470 0.648725
475 0.732533
480 0.666218
485 0.745787
490 0.619186
495 0.577059
500 0.585564
505 0.732902
510 0.65934
515 0.623934
520 0.626182
525 0.597494
530 0.642818
535 0.779596
540 0.631192
545 0.975077
550 0.805851
555 0.946523
560 1.14385
565 1.13117
570 1.34898
575 20.6148
580 465.953
585 880.613
590 259.268
595 31.3256
600 4.16736
Ex : 593
200 0.484102
205 0.546223
210 0.57698
215 0.431934
220 0.454957
225 0.514667
230 0.589679
235 0.59444
240 0.485903
245 0.481484
250 0.620942
255 0.462947
260 0.443884
265 0.406808
270 0.506188
275 0.609109
280 0.361688
285 0.537497
290 0.603387
295 0.543664
300 0.498542
305 0.612454
310 0.556556
315 0.571252
320 0.537043
325 0.464274
330 0.507799
335 0.504358
340 0.532197
345 0.475619
350 0.583528
355 0.474418
360 0.527961
365 0.458278
370 0.616535
375 0.626841
380 0.525514
385 0.581632
390 0.636219
395 0.465284
400 0.588626
405 0.523254
410 0.468821
415 0.643797
420 0.629595
425 0.681521
430 0.725922
435 0.643656
440 0.708764
445 0.636382
450 0.69653
455 0.633583
460 0.674083
465 0.721366
470 0.794287
475 0.586006
480 0.72306
485 0.695986
490 0.862126
495 0.721258
500 0.463295
505 0.733626
510 0.778081
515 0.756453
520 0.624999
525 0.692958
530 0.699647
535 0.633762
540 0.964726
545 0.766917
550 0.833699
555 0.904866
560 0.980271
565 0.870875
570 1.19831
575 1.41971
580 16.5276
585 404.83
590 742.262
595 219.141
600 32.3742
Ex : 598
200 0.481288
205 0.633165
210 0.561128
215 0.448948
220 0.735215
225 0.563077
230 0.596399
235 0.442035
240 0.563073
245 0.586819
250 0.487752
255 0.485388
260 0.574476
265 0.521863
270 0.590022
275 0.545935
280 0.372381
285 0.362985
290 0.447405
295 0.417166
300 0.426818
305 0.49083
310 0.571271
315 0.515304
320 0.400811
325 0.454427
330 0.511393
335 0.559897
340 0.562984
345 0.53718
350 0.636292
355 0.651237
360 0.577165
365 0.530238
370 0.730027
375 0.687973
380 0.660972
385 0.562404
390 0.56102
395 0.701447
400 0.689075
405 0.605382
410 0.621276
415 0.755797
420 0.613819
425 0.667796
430 0.631191
435 0.658527
440 0.582031
445 0.50145
450 0.688027
455 0.568658
460 0.858181
465 0.732237
470 0.87313
475 0.510411
480 0.796586
485 0.682325
490 0.671623
495 0.686042
500 0.569119
505 0.475057
510 0.740769
515 0.628947
520 0.83698
525 0.670257
530 0.721744
535 0.752909
540 0.873727
545 0.77742
550 0.818194
555 0.815461
560 0.948778
565 1.08039
570 1.04833
575 1.38336
580 1.23921
585 16.5002
590 365.386
595 646.413
600 416.909
Ex : 603
200 0.819191
205 0.680709
210 0.642558
215 0.45381
220 0.684197
225 0.632418
230 0.721863
235 0.570836
240 0.609477
245 0.574812
250 0.53035
255 0.485659
260 0.487804
265 0.629257
270 0.505583
275 0.606874
280 0.760674
285 0.580738
290 0.513563
295 0.580035
300 0.450936
305 0.527373
310 0.664172
315 0.534759
320 0.637363
325 0.607183
330 0.519684
335 0.658778
340 0.644153
345 0.659101
350 0.701854
355 0.549852
360 0.560401
365 0.623222
370 0.561933
375 0.571989
380 0.652503
385 0.6134
390 0.602069
395 0.563636
400 0.805318
405 0.598296
410 0.594316
415 0.494654
420 0.577197
425 0.729065
430 0.734701
435 0.628693
440 0.491519
445 0.705335
450 0.765405
455 0.620391
460 0.756458
465 0.649994
470 0.790248
475 0.67509
480 0.682575
485 0.785971
490 0.768035
495 0.606291
500 0.524097
505 0.759778
510 0.604315
515 0.692451
520 0.673187
525 0.708965
530 0.676972
535 0.837868
540 1.06057
545 0.878022
550 0.889974
555 0.680597
560 0.683655
565 0.99206
570 0.905281
575 0.914113
580 1.19964
585 1.48858
590 14.6574
595 308.575
600 619.885
