File format V 1.0
ven. 9. déc. 17:03:25 2016
Operator : 
Comments : 

=============================================
SpectroFluorometer parameters
Mode : 3D measurement
Data : Fluorescence
Phospho. : Ordinary
Spectrum : Fluorescence

Scan speed : 2400 nm/mn
Response : 100 ms
PM Voltage : 700 V
Shutter : On

Lambda Ex. Start : 203
Lambda Ex. End : 603
Lambda Ex. Step : 5
Ex. Slit : 5 nm

Lambda Em. Start : 200
Lambda Em. End : 600
Lambda Em. Step : 5
Em. Slit : 5 nm

Repetition : 1
Decal lambda em : 10
=============================================
DATA
Ex : 203
200 13.0797
205 14.5599
210 14.805
215 15.4624
220 13.3258
225 13.8109
230 12.2185
235 17.6979
240 16.572
245 12.3966
250 13.8116
255 18.2905
260 15.8488
265 14.3537
270 12.5672
275 16.8744
280 14.2732
285 13.1633
290 14.318
295 13.2896
300 14.3032
305 16.5308
310 12.1503
315 20.1479
320 14.1949
325 12.1165
330 12.9241
335 10.8123
340 11.9734
345 13.4905
350 12.9042
355 9.59841
360 11.327
365 15.3567
370 12.0249
375 13.1739
380 13.1604
385 15.362
390 11.8711
395 9.91336
400 14.5507
405 16.5694
410 14.1726
415 14.2347
420 14.2826
425 17.0889
430 11.947
435 19.2813
440 16.6345
445 14.1126
450 14.3351
455 17.0118
460 19.1869
465 11.1304
470 15.8499
475 14.4682
480 13.4667
485 15.5576
490 17.4957
495 14.1419
500 8.64935
505 13.5408
510 12.8138
515 16.0742
520 18.4287
525 17.2343
530 12.7495
535 14.0776
540 20.1046
545 11.7838
550 13.3164
555 18.0784
560 12.8789
565 11.1131
570 18.1748
575 14.2802
580 13.289
585 16.7909
590 16.9019
595 17.1388
600 13.471
Ex : 208
200 12.6345
205 12.5687
210 16.1779
215 14.8817
220 15.026
225 11.6767
230 19.4989
235 15.2919
240 19.011
245 20.1875
250 14.4542
255 11.2733
260 16.2151
265 13.7351
270 14.7906
275 17.4194
280 10.7951
285 11.148
290 16.014
295 15.3073
300 13.4003
305 13.6688
310 12.5865
315 16.5941
320 10.8906
325 15.2536
330 10.9294
335 13.4551
340 15.4728
345 14.2898
350 11.8501
355 16.6705
360 15.158
365 20.456
370 15.2527
375 12.1119
380 17.1823
385 15.5579
390 19.8849
395 15.722
400 12.0454
405 22.7694
410 14.2957
415 16.4646
420 12.1311
425 13.8981
430 12.3116
435 14.7255
440 19.7787
445 16.4428
450 13.8349
455 13.3072
460 14.4802
465 13.8556
470 15.9056
475 10.1308
480 13.457
485 11.8588
490 13.1085
495 19.2091
500 17.1855
505 16.4303
510 15.558
515 11.628
520 15.9004
525 13.069
530 11.6518
535 15.5343
540 13.061
545 11.6806
550 14.8699
555 16.5536
560 15.9243
565 12.8522
570 12.5113
575 14.9368
580 12.533
585 11.3734
590 10.8606
595 14.4369
600 12.0558
Ex : 213
200 15.9388
205 14.8371
210 16.6751
215 13.8583
220 12.5337
225 13.6926
230 13.2012
235 13.3163
240 11.9666
245 10.9209
250 13.961
255 13.8672
260 14.6029
265 13.6914
270 11.5996
275 14.0861
280 10.5973
285 13.8917
290 13.4822
295 16.5098
300 12.6117
305 14.9814
310 17.9767
315 14.6914
320 13.014
325 15.6084
330 14.8321
335 15.1383
340 12.1677
345 12.8815
350 15.1437
355 10.512
360 13.3716
365 10.4355
370 15.218
375 18.1392
380 15.8068
385 19.6577
390 13.1565
395 14.08
400 11.9547
405 11.3109
410 13.5656
415 14.314
420 18.1048
425 12.3773
430 14.6304
435 10.4491
440 15.0188
445 15.8748
450 16.2812
455 12.9761
460 12.6688
465 15.6386
470 15.6079
475 14.4362
480 11.7241
485 13.6352
490 19.7001
495 11.524
500 12.6121
505 14.6159
510 14.871
515 18.2368
520 12.4746
525 16.4913
530 10.5614
535 9.83953
540 17.9933
545 14.6961
550 13.7172
555 12.1602
560 15.6337
565 14.067
570 12.9779
575 13.2011
580 13.6137
585 16.2475
590 12.4587
595 12.7756
600 10.9067
Ex : 218
200 14.05
205 14.4091
210 13.6355
215 12.3101
220 11.8768
225 13.4027
230 13.9258
235 12.1207
240 16.137
245 14.2869
250 12.4718
255 12.5887
260 11.5799
265 11.3714
270 14.817
275 15.4981
280 16.0479
285 17.6708
290 13.8246
295 13.415
300 13.4728
305 12.7567
310 14.1274
315 10.8629
320 12.3778
325 8.06705
330 10.1469
335 13.197
340 12.4049
345 14.9442
350 14.7387
355 12.0973
360 14.4707
365 9.27164
370 11.1415
375 17.5844
380 12.7663
385 15.8877
390 12.646
395 13.2629
400 13.6476
405 16.6361
410 13.1802
415 15.0618
420 16.3798
425 17.9456
430 16.8952
435 15.0698
440 12.8611
445 12.2228
450 13.0145
455 15.5106
460 18.5783
465 16.2325
470 12.8434
475 12.1547
480 12.8763
485 10.5978
490 13.0413
495 9.82345
500 10.8364
505 13.3502
510 12.0864
515 13.2664
520 13.9976
525 12.0999
530 16.6972
535 14.4816
540 16.6073
545 12.0843
550 12.1516
555 13.5082
560 8.77162
565 9.89566
570 14.9371
575 15.3328
580 11.9649
585 13.4851
590 11.8658
595 11.9184
600 33.2596
Ex : 223
200 14.1677
205 12.9933
210 12.6575
215 9.82478
220 12.4626
225 8.77041
230 10.7191
235 16.099
240 11.4226
245 9.54275
250 11.6103
255 20.1515
260 11.6848
265 12.6866
270 13.3047
275 13.8768
280 14.9569
285 14.6552
290 13.0899
295 12.4508
300 12.2527
305 11.7983
310 10.0858
315 13.4416
320 12.222
325 16.4749
330 12.4063
335 11.8143
340 14.3402
345 10.1881
350 11.0942
355 12.8318
360 15.6116
365 13.8975
370 11.7673
375 9.5885
380 11.302
385 11.802
390 15.648
395 13.8995
400 14.7809
405 12.2193
410 12.9219
415 13.7306
420 12.1718
425 15.3859
430 14.638
435 12.3968
440 12.7232
445 17.0839
450 12.6264
455 12.4766
460 15.2783
465 17.3113
470 12.8762
475 11.5108
480 9.94592
485 12.7248
490 9.51983
495 12.6308
500 12.2642
505 13.3399
510 10.9498
515 10.0667
520 13.7075
525 13.7413
530 13.5104
535 13.8617
540 13.4513
545 13.5879
550 15.7655
555 14.9893
560 15.2437
565 12.403
570 14.1717
575 12.9019
580 12.189
585 12.3448
590 12.1507
595 14.1182
600 22.137
Ex : 228
200 11.8523
205 11.5617
210 10.7463
215 9.75788
220 16.4951
225 10.9607
230 13.3751
235 11.1235
240 8.99001
245 12.2394
250 14.7728
255 12.8473
260 10.1937
265 12.7513
270 10.3228
275 12.0927
280 13.1922
285 11.2644
290 8.51836
295 12.6945
300 12.1233
305 10.7351
310 15.4158
315 15.5568
320 12.6345
325 10.7832
330 10.9904
335 14.2466
340 20.3821
345 11.5843
350 12.5277
355 12.7273
360 13.5598
365 12.0003
370 16.6168
375 9.27408
380 10.5463
385 15.0909
390 10.0542
395 10.4742
400 12.1672
405 14.4859
410 11.851
415 12.3562
420 16.5842
425 16.2276
430 14.2182
435 14.2719
440 13.2328
445 11.0024
450 16.6698
455 13.2625
460 11.4086
465 14.0606
470 11.9582
475 12.4383
480 10.5428
485 11.4846
490 9.14255
495 10.8195
500 9.8445
505 13.8137
510 10.0772
515 13.2282
520 11.6182
525 14.9696
530 11.1799
535 13.7345
540 12.8424
545 14.0677
550 12.7703
555 11.2598
560 12.6324
565 12.1192
570 11.3854
575 11.2947
580 8.65786
585 14.2053
590 13.4637
595 12.5514
600 17.38
Ex : 233
200 12.0789
205 12.0745
210 8.72213
215 15.0332
220 8.78129
225 11.3334
230 9.92438
235 8.94988
240 8.91295
245 10.1493
250 11.3726
255 13.1614
260 7.85393
265 10.185
270 8.08278
275 10.2965
280 9.28988
285 11.1866
290 11.401
295 10.8322
300 10.2655
305 12.1633
310 10.6097
315 10.4633
320 12.8895
325 10.2009
330 7.79094
335 10.1107
340 9.24487
345 11.594
350 15.1169
355 12.0917
360 11.4048
365 14.5352
370 10.0637
375 10.1472
380 13.8473
385 11.8464
390 10.3354
395 9.65174
400 10.1548
405 12.3947
410 9.57816
415 11.274
420 9.12844
425 13.216
430 11.2381
435 13.3808
440 9.60277
445 9.9548
450 7.7655
455 9.01564
460 15.4151
465 10.9324
470 14.5518
475 11.9526
480 14.0348
485 11.4054
490 9.90306
495 7.84809
500 10.1087
505 11.3864
510 9.72995
515 10.0903
520 9.76233
525 12.0202
530 8.71732
535 11.2371
540 10.9843
545 9.47271
550 10.426
555 7.83526
560 8.77693
565 9.31735
570 14.5981
575 13.1068
580 9.49017
585 10.9372
590 8.81845
595 9.51837
600 6.99118
Ex : 238
200 12.5047
205 7.87785
210 8.45773
215 7.3129
220 9.71464
225 8.02119
230 9.09405
235 8.51221
240 7.53795
245 10.152
250 9.46768
255 9.32276
260 8.62235
265 9.87916
270 8.20176
275 11.8198
280 8.66517
285 8.21428
290 9.26426
295 10.327
300 8.11642
305 8.44381
310 10.5621
315 8.20336
320 9.87915
325 9.55265
330 8.23851
335 12.1138
340 10.9171
345 10.9405
350 9.97184
355 9.29097
360 8.78782
365 7.47701
370 9.94313
375 10.7721
380 10.3134
385 10.3739
390 9.0885
395 11.8144
400 9.96256
405 9.29818
410 11.0771
415 9.84042
420 10.6661
425 12.2178
430 7.07296
435 10.255
440 7.8012
445 11.4636
450 11.013
455 11.3845
460 9.467
465 9.10192
470 10.4834
475 8.98906
480 7.89496
485 10.7272
490 8.80962
495 8.44042
500 11.6579
505 10.0666
510 13.6881
515 9.19665
520 9.55252
525 13.4534
530 12.6534
535 10.1653
540 9.27407
545 8.76612
550 10.5778
555 9.18779
560 7.2982
565 7.30661
570 9.80219
575 9.28178
580 9.2464
585 12.1712
590 8.02135
595 7.42804
600 7.49181
Ex : 243
200 7.52734
205 11.5334
210 7.71363
215 9.59564
220 5.83845
225 6.84612
230 9.05628
235 7.54363
240 9.2611
245 9.32511
250 9.42292
255 7.99886
260 6.77815
265 7.49889
270 7.37838
275 9.09399
280 7.86191
285 6.12108
290 8.45943
295 7.89489
300 6.39427
305 8.86987
310 8.86703
315 8.49889
320 6.97568
325 4.85838
330 8.01379
335 9.23025
340 8.59556
345 7.04019
350 7.86319
355 8.51136
360 8.35601
365 6.62902
370 9.88483
375 9.22006
380 7.89425
385 8.98582
390 9.74107
395 9.9563
400 6.62391
405 8.36365
410 9.19857
415 9.6134
420 9.09502
425 8.89702
430 7.66078
435 9.22581
440 10.0985
445 6.8552
450 8.75593
455 6.92139
460 6.60978
465 6.96654
470 9.75638
475 9.06221
480 10.4165
485 11.1788
490 7.49598
495 7.67216
500 7.10878
505 9.43025
510 8.91049
515 7.88932
520 8.80185
525 9.55088
530 6.03917
535 7.39706
540 7.76294
545 8.85571
550 7.82247
555 12.5954
560 9.10026
565 10.9883
570 7.19115
575 7.31089
580 7.72583
585 8.80798
590 8.91277
595 7.28828
600 24.3138
Ex : 248
200 6.1192
205 6.03417
210 5.75952
215 6.83243
220 5.79261
225 6.91937
230 5.98544
235 5.56275
240 6.55343
245 6.86949
250 5.33764
255 8.01071
260 7.28173
265 6.80836
270 7.43637
275 6.59787
280 7.3358
285 5.70129
290 7.58349
295 5.81546
300 5.48173
305 6.55661
310 7.29645
315 8.475
320 7.12339
325 6.59596
330 6.85132
335 6.63514
340 6.17107
345 9.45275
350 7.7165
355 7.40214
360 6.01577
365 6.6793
370 6.55585
375 6.67748
380 6.8645
385 9.69913
390 7.61703
395 7.59441
400 7.75888
405 5.39506
410 7.92952
415 6.79636
420 11.9032
425 8.03492
430 5.32821
435 8.12157
440 6.21672
445 6.98716
450 6.45205
455 8.20954
460 6.88189
465 8.20403
470 7.9991
475 6.91611
480 6.52243
485 6.15889
490 4.7467
495 6.31723
500 6.81373
505 6.87357
510 6.49806
515 6.45651
520 6.95849
525 7.53586
530 6.28444
535 6.87513
540 5.82922
545 6.98911
550 4.43391
555 5.56256
560 6.01456
565 8.93835
570 7.10202
575 9.35414
580 5.83722
585 5.28326
590 7.99548
595 6.26561
600 7.80263
Ex : 253
200 6.62308
205 4.62164
210 4.85848
215 4.43836
220 6.57852
225 6.00707
230 4.88414
235 4.21815
240 5.17291
245 6.95127
250 8.27945
255 8.30783
260 5.46288
265 5.55533
270 6.3208
275 5.67407
280 7.27718
285 6.31483
290 5.18836
295 5.11434
300 4.38773
305 5.6495
310 3.8623
315 5.54988
320 6.25871
325 4.66478
330 6.57626
335 4.68862
340 7.22776
345 7.82515
350 5.64761
355 4.31718
360 5.55601
365 5.49679
370 6.00926
375 6.09497
380 6.88986
385 6.16836
390 5.55843
395 5.38708
400 5.15985
405 5.19353
410 4.71316
415 7.32348
420 6.67845
425 6.79135
430 6.04159
435 7.83575
440 6.51674
445 5.62146
450 6.49337
455 5.23757
460 4.1248
465 6.59858
470 6.02369
475 5.47614
480 6.27845
485 6.18539
490 5.04745
495 6.3263
500 4.62653
505 7.40567
510 7.62579
515 5.27231
520 6.07962
525 4.81245
530 4.89767
535 4.1467
540 4.87697
545 6.11323
550 8.71775
555 7.20524
560 4.62673
565 5.8013
570 5.59166
575 5.41105
580 6.69779
585 6.59159
590 5.2945
595 5.55124
600 0.63171
Ex : 258
200 4.53209
205 4.44164
210 2.93382
215 4.56672
220 3.02787
225 5.1974
230 3.83651
235 4.06383
240 4.27682
245 4.2526
250 3.37837
255 4.43592
260 4.54154
265 3.58732
270 3.28394
275 3.73842
280 3.88033
285 3.86136
290 5.09016
295 4.82903
300 5.99831
305 4.02616
310 4.20805
315 3.81224
320 4.64142
325 4.23429
330 3.38181
335 4.27787
340 3.97057
345 3.5359
350 3.76995
355 3.9666
360 4.5816
365 4.47829
370 3.69774
375 4.39635
380 5.73499
385 4.89516
390 4.31837
395 4.93502
400 6.01585
405 4.36894
410 4.04017
415 5.47977
420 5.14083
425 3.73416
430 5.29535
435 4.37218
440 5.24781
445 4.20229
450 3.77644
455 4.51623
460 6.26149
465 4.7682
470 4.40418
475 5.03026
480 3.93414
485 3.33733
490 3.90437
495 3.56575
500 3.69661
505 5.09634
510 6.12891
515 5.79678
520 4.9498
525 4.94879
530 4.08249
535 4.48154
540 3.89136
545 3.92434
550 2.97937
555 3.7583
560 2.99004
565 5.23617
570 3.72481
575 4.2785
580 5.07234
585 4.65907
590 4.28076
595 4.72286
600 0.537443
Ex : 263
200 2.68454
205 3.67166
210 3.02175
215 2.64138
220 2.65008
225 3.231
230 3.76502
235 2.66365
240 4.0263
245 3.09179
250 3.11388
255 3.45745
260 3.57019
265 2.17301
270 3.80337
275 3.74515
280 3.17171
285 3.09339
290 2.95662
295 2.81616
300 3.18834
305 3.71823
310 2.61766
315 3.92182
320 3.26161
325 3.29173
330 4.59263
335 3.84135
340 4.05981
345 4.21714
350 3.00389
355 2.89594
360 2.91442
365 4.28043
370 3.34093
375 3.00525
380 3.29553
385 3.69155
390 4.31174
395 3.16782
400 4.7407
405 4.20925
410 4.74641
415 3.31635
420 4.422
425 3.91029
430 3.72536
435 2.89943
440 4.14035
445 3.49557
450 3.25285
455 3.85835
460 3.44957
465 3.51908
470 3.28097
475 3.01357
480 3.23663
485 3.52542
490 3.29972
495 2.7344
500 3.2619
505 3.71907
510 3.33933
515 3.36239
520 4.24932
525 3.8183
530 3.60493
535 2.88151
540 3.01483
545 2.83035
550 3.95704
555 2.84332
560 2.95732
565 2.57321
570 3.05054
575 3.14828
580 3.22606
585 3.03277
590 3.35877
595 5.02094
600 2.9172
Ex : 268
200 2.30964
205 2.37366
210 2.06424
215 3.09177
220 2.39282
225 2.16352
230 2.42153
235 3.06657
240 2.9706
245 3.09315
250 2.16892
255 1.84884
260 3.52949
265 2.55782
270 2.19287
275 2.45482
280 2.19073
285 2.15094
290 1.98025
295 2.13619
300 2.80694
305 2.82056
310 3.18647
315 2.79118
320 2.05511
325 2.07551
330 2.81413
335 3.51789
340 2.51846
345 3.42541
350 2.12316
355 2.47713
360 2.29579
365 3.6351
370 1.86623
375 2.59996
380 2.39013
385 2.95601
390 3.29255
395 2.59395
400 2.66964
405 3.81092
410 2.76454
415 2.80034
420 2.85663
425 2.65644
430 2.8059
435 2.92687
440 2.47346
445 3.2344
450 2.66496
455 2.93838
460 3.01877
465 3.19555
470 3.04368
475 3.81238
480 2.74137
485 2.57791
490 2.29671
495 2.27132
500 2.38792
505 2.62675
510 2.7988
515 2.27758
520 2.30517
525 3.07821
530 3.86785
535 3.30594
540 2.70809
545 2.16503
550 2.0872
555 3.00355
560 2.38294
565 2.66251
570 2.4016
575 2.94282
580 2.03709
585 2.14866
590 2.95044
595 2.81603
600 3.44549
Ex : 273
200 2.14136
205 1.83623
210 1.64405
215 2.02088
220 1.85757
225 1.80324
230 1.64627
235 1.56412
240 2.38525
245 2.25022
250 2.21564
255 2.25358
260 2.19464
265 1.80995
270 2.17462
275 2.28783
280 3.14988
285 2.10471
290 2.38417
295 2.41612
300 1.69096
305 1.72759
310 2.24403
315 2.03656
320 1.64724
325 2.41692
330 2.6397
335 2.45173
340 2.7141
345 1.60347
350 2.33493
355 2.08105
360 2.18227
365 2.09819
370 2.73954
375 2.21162
380 2.19922
385 2.31605
390 2.00814
395 2.47845
400 1.54314
405 2.27524
410 2.89779
415 2.15954
420 1.75895
425 2.13163
430 2.24194
435 3.04158
440 2.86927
445 2.97725
450 1.97588
455 3.29241
460 2.8025
465 2.11912
470 2.24251
475 2.61608
480 2.45917
485 2.48375
490 2.26233
495 2.58177
500 2.19256
505 2.69023
510 2.73066
515 2.00552
520 3.01158
525 1.97409
530 1.76079
535 2.67464
540 3.04535
545 3.73821
550 2.31932
555 1.56955
560 2.46992
565 2.91804
570 2.5606
575 1.88396
580 1.95801
585 1.9996
590 1.58307
595 2.18888
600 2.29843
Ex : 278
200 1.99285
205 1.49776
210 1.42607
215 1.31435
220 1.78175
225 1.45685
230 1.54171
235 1.28214
240 1.6646
245 1.63627
250 1.63435
255 1.63496
260 1.46907
265 1.42428
270 1.68686
275 1.97223
280 1.71661
285 1.85354
290 1.39206
295 1.47036
300 1.85239
305 1.82052
310 2.1029
315 1.45783
320 1.30683
325 1.63685
330 1.83793
335 2.07955
340 2.33599
345 2.30813
350 1.39311
355 1.51857
360 2.04993
365 1.79
370 1.88523
375 2.06982
380 2.66229
385 2.25877
390 1.94772
395 2.31611
400 2.16097
405 2.87945
410 2.01317
415 2.1912
420 2.36399
425 2.3805
430 2.25564
435 2.20295
440 2.47642
445 2.07628
450 1.528
455 1.65445
460 1.81391
465 2.78046
470 2.07658
475 1.89918
480 1.72996
485 1.82547
490 1.89308
495 1.62292
500 1.84852
505 1.91164
510 1.39488
515 1.57795
520 1.35075
525 1.32864
530 2.34498
535 2.12486
540 1.84082
545 2.80178
550 2.7495
555 2.4718
560 1.69581
565 1.90142
570 1.46848
575 1.64577
580 1.849
585 1.91595
590 1.62615
595 1.50656
600 0.969024
Ex : 283
200 1.33794
205 1.21534
210 1.45934
215 1.54232
220 1.44865
225 1.64979
230 1.71127
235 1.15029
240 1.3464
245 1.43877
250 1.26214
255 1.71936
260 1.30622
265 1.94046
270 1.53188
275 1.51158
280 1.2827
285 1.28219
290 1.12456
295 1.49798
300 1.34576
305 1.47251
310 1.76966
315 1.60345
320 1.05979
325 1.71209
330 2.11733
335 1.85871
340 1.43688
345 1.52228
350 1.76851
355 1.8072
360 1.50225
365 1.45933
370 1.52349
375 2.02849
380 2.30566
385 1.84787
390 1.924
395 1.56602
400 1.60058
405 1.57968
410 1.94801
415 2.32947
420 2.02975
425 1.9059
430 2.09992
435 1.83389
440 1.68197
445 1.6599
450 1.73258
455 1.84609
460 1.55406
465 1.89179
470 1.83793
475 2.11272
480 1.40003
485 1.3893
490 1.85236
495 1.67007
500 1.48942
505 1.48748
510 1.2671
515 1.17448
520 1.68749
525 1.7726
530 1.38926
535 1.41877
540 1.20841
545 1.6894
550 1.51267
555 1.87227
560 2.59288
565 2.34514
570 2.15533
575 1.41731
580 1.28503
585 1.38527
590 0.954575
595 1.44677
600 1.24245
Ex : 288
200 1.40466
205 1.38498
210 1.43243
215 1.21172
220 0.923276
225 1.33269
230 1.18857
235 1.13027
240 1.18625
245 0.93656
250 1.33031
255 1.07859
260 1.19028
265 1.03245
270 1.15401
275 0.84157
280 1.2384
285 1.20051
290 1.39813
295 1.2744
300 1.04302
305 1.22191
310 1.51176
315 1.18462
320 1.02349
325 1.15652
330 1.30305
335 1.40128
340 1.16214
345 1.27461
350 1.36395
355 0.939296
360 1.53177
365 1.55159
370 1.54516
375 1.40778
380 1.55407
385 1.73166
390 1.57184
395 1.91895
400 1.69834
405 2.04284
410 1.35688
415 1.5676
420 1.61338
425 2.0831
430 1.438
435 1.61976
440 1.73863
445 1.58154
450 1.76592
455 1.93782
460 1.66295
465 1.97303
470 1.5303
475 1.63923
480 1.27694
485 1.32431
490 1.33427
495 1.33989
500 1.1029
505 1.48137
510 1.26064
515 1.18047
520 1.4542
525 1.43579
530 1.32395
535 1.18872
540 1.01014
545 0.99317
550 1.02735
555 1.08363
560 0.962615
565 1.42708
570 1.89188
575 2.15591
580 1.45182
585 1.21666
590 1.18737
595 1.27913
600 1.79431
Ex : 293
200 0.836725
205 0.8689
210 0.802328
215 0.864203
220 0.861242
225 1.28788
230 1.1381
235 1.05223
240 0.94602
245 1.33408
250 1.08419
255 0.767812
260 1.32203
265 1.11092
270 0.880177
275 0.781462
280 0.974293
285 1.22916
290 1.37012
295 1.14863
300 1.1351
305 1.14468
310 1.03541
315 0.755842
320 0.846096
325 0.890781
330 0.890709
335 1.26614
340 1.44309
345 1.289
350 1.0747
355 1.29574
360 1.45721
365 1.46186
370 1.82046
375 1.43647
380 1.32186
385 1.34179
390 1.72891
395 1.41617
400 1.1099
405 1.53681
410 1.55987
415 1.29273
420 1.51524
425 1.50867
430 1.65166
435 1.47375
440 1.60288
445 1.10147
450 1.30049
455 1.28343
460 1.48963
465 1.27332
470 1.27329
475 1.11486
480 1.22405
485 1.60721
490 1.25341
495 1.32227
500 1.03371
505 0.938098
510 0.733879
515 1.40106
520 1.05747
525 1.03225
530 1.39963
535 0.983766
540 0.976517
545 0.985545
550 0.932227
555 0.839596
560 1.24539
565 1.03429
570 1.30601
575 1.35153
580 2.09939
585 1.68423
590 1.38492
595 0.901959
600 0.528017
Ex : 298
200 0.857612
205 0.816276
210 0.91292
215 0.503678
220 0.922104
225 0.973889
230 1.0842
235 0.857598
240 0.910467
245 0.740865
250 0.779875
255 1.06007
260 1.01305
265 0.855243
270 0.893692
275 0.781868
280 0.699534
285 0.773919
290 1.2024
295 1.14791
300 0.814102
305 1.19958
310 0.800061
315 0.887069
320 1.01896
325 0.930471
330 0.885436
335 0.89757
340 1.05395
345 0.742454
350 1.11136
355 1.05939
360 1.03535
365 1.2109
370 1.09785
375 1.04682
380 0.999814
385 1.23959
390 0.985522
395 1.23304
400 1.29201
405 1.0589
410 1.35532
415 1.4459
420 1.3615
425 1.20829
430 1.16715
435 1.14398
440 1.2753
445 1.08893
450 1.02473
455 1.10357
460 1.14378
465 1.29383
470 1.27083
475 1.09394
480 1.36687
485 1.20071
490 0.937316
495 0.817602
500 1.00503
505 0.883123
510 1.08978
515 1.12006
520 1.32985
525 1.11897
530 1.17919
535 1.12001
540 0.879862
545 0.857292
550 0.971555
555 0.79189
560 0.727976
565 0.926792
570 1.2328
575 0.844781
580 1.39909
585 1.42803
590 1.52308
595 1.5664
600 0.439753
Ex : 303
200 0.606147
205 0.748613
210 0.706327
215 0.603404
220 0.77023
225 0.738521
230 0.763155
235 0.766309
240 0.682801
245 0.602489
250 0.675502
255 0.758221
260 0.549439
265 0.707995
270 0.793619
275 0.664886
280 0.601635
285 0.645979
290 0.71276
295 1.01345
300 0.976247
305 0.672366
310 0.644282
315 1.01445
320 0.996564
325 0.684858
330 0.771992
335 0.836687
340 0.987172
345 0.809871
350 1.1381
355 1.08588
360 1.01745
365 0.967164
370 1.09136
375 1.45126
380 1.26868
385 1.3627
390 1.25633
395 1.32734
400 1.33265
405 1.06021
410 1.31046
415 1.07147
420 1.06629
425 1.32059
430 1.32868
435 1.0952
440 1.03706
445 1.17652
450 0.981375
455 1.23202
460 1.08393
465 1.0602
470 1.11457
475 0.973337
480 1.15424
485 0.983012
490 0.815022
495 0.906966
500 0.892194
505 0.793277
510 0.864788
515 0.860156
520 0.927718
525 0.79667
530 0.732015
535 0.739226
540 0.712142
545 0.784855
550 0.647577
555 0.995229
560 0.741977
565 0.794939
570 0.813215
575 0.962661
580 0.852319
585 0.792954
590 1.08698
595 1.09649
600 0.799979
Ex : 308
200 0.550473
205 0.43255
210 0.59421
215 0.62483
220 0.532691
225 0.666083
230 0.763458
235 0.513662
240 0.837987
245 0.540855
250 0.512226
255 0.622392
260 0.48811
265 0.738672
270 0.59977
275 0.661562
280 0.665239
285 0.734355
290 0.742202
295 0.667184
300 0.865124
305 1.07086
310 0.687024
315 0.52605
320 0.656087
325 0.627552
330 0.678152
335 0.882041
340 0.854299
345 0.708149
350 0.949171
355 0.75178
360 0.723684
365 1.04163
370 0.956271
375 0.716623
380 0.978179
385 1.07915
390 1.30016
395 1.14123
400 1.26121
405 1.25942
410 1.07987
415 1.22882
420 1.33354
425 1.15634
430 1.00266
435 1.17351
440 1.11572
445 1.21593
450 0.97746
455 0.959946
460 0.848448
465 0.995438
470 0.836381
475 0.963472
480 0.814785
485 0.927742
490 0.893531
495 0.72894
500 0.631739
505 0.711879
510 0.881278
515 0.726325
520 0.763181
525 0.854101
530 0.810466
535 0.817612
540 0.750502
545 0.648994
550 0.635527
555 0.453164
560 0.704206
565 0.611184
570 0.649596
575 0.502164
580 0.850378
585 0.892211
590 0.837905
595 0.816686
600 0.0929357
Ex : 313
200 0.677491
205 0.521323
210 0.5836
215 0.599914
220 0.583796
225 0.526932
230 0.743346
235 0.641703
240 0.533731
245 0.406632
250 0.448211
255 0.55352
260 0.670409
265 0.564038
270 0.546779
275 0.563369
280 0.648728
285 0.504561
290 0.458726
295 0.566989
300 0.600441
305 0.911772
310 0.762341
315 0.563342
320 0.531227
325 0.586174
330 0.568291
335 0.656549
340 0.88243
345 0.747582
350 0.63016
355 0.811869
360 0.826147
365 0.839859
370 0.898163
375 1.1516
380 0.990653
385 1.04297
390 1.28458
395 1.34166
400 1.43806
405 1.33772
410 1.21975
415 1.31728
420 1.32191
425 1.17871
430 1.323
435 1.10219
440 1.18738
445 1.17414
450 1.22867
455 1.03077
460 1.17915
465 0.937902
470 0.895764
475 1.00132
480 1.01456
485 1.08834
490 1.05742
495 0.94503
500 0.818181
505 0.815087
510 0.736858
515 0.649103
520 0.508513
525 0.847728
530 0.73308
535 0.619486
540 0.717494
545 0.806611
550 0.798176
555 0.678321
560 0.607819
565 0.525984
570 0.541778
575 0.537677
580 0.62127
585 0.560272
590 0.600334
595 0.573077
600 0.250699
Ex : 318
200 0.560503
205 0.582743
210 0.502368
215 0.567066
220 0.5378
225 0.559074
230 0.417564
235 0.455988
240 0.624415
245 0.508458
250 0.397105
255 0.46988
260 0.613096
265 0.544052
270 0.55395
275 0.547642
280 0.657738
285 0.470854
290 0.545917
295 0.554311
300 0.618043
305 0.506699
310 0.880612
315 0.89766
320 0.778434
325 0.751121
330 0.836846
335 1.08775
340 1.30093
345 1.62684
350 2.19604
355 2.58773
360 2.77692
365 3.81777
370 4.03112
375 4.5842
380 5.1305
385 5.76154
390 6.26119
395 6.69326
400 7.05968
405 7.10011
410 7.00939
415 7.29833
420 6.93466
425 6.65086
430 6.53799
435 6.2713
440 6.18017
445 6.21731
450 5.31711
455 5.62404
460 5.01512
465 4.52436
470 4.45605
475 4.02453
480 3.84705
485 3.48659
490 2.77842
495 2.41839
500 2.25262
505 2.17989
510 2.08635
515 1.62865
520 1.48551
525 1.56404
530 1.47661
535 1.04599
540 1.04596
545 0.941516
550 1.03077
555 0.899638
560 0.833499
565 0.940308
570 0.797708
575 0.72298
580 0.754611
585 0.71111
590 0.639994
595 0.544579
600 0.421991
Ex : 323
200 0.612155
205 0.556632
210 0.571833
215 0.590238
220 0.45887
225 0.403753
230 0.423343
235 0.619674
240 0.447098
245 0.503165
250 0.56166
255 0.482108
260 0.399486
265 0.437462
270 0.403427
275 0.608008
280 0.489496
285 0.697182
290 0.438043
295 0.419033
300 0.445312
305 0.62872
310 0.508319
315 2.15933
320 9.33946
325 5.07914
330 2.18115
335 2.87419
340 4.25749
345 5.50624
350 8.60262
355 11.4959
360 13.596
365 16.8134
370 19.0938
375 22.2127
380 25.1561
385 28.0356
390 30.3672
395 32.0346
400 33.8002
405 34.1644
410 35.3464
415 34.9928
420 34.0486
425 31.7765
430 32.9966
435 31.4046
440 29.9821
445 28.3249
450 26.6689
455 25.2451
460 24.1835
465 21.1328
470 19.6211
475 18.362
480 15.669
485 15.0353
490 13.6803
495 11.9931
500 10.8536
505 9.39107
510 8.71078
515 7.40581
520 6.52443
525 5.28462
530 4.75
535 3.98772
540 3.56605
545 3.09664
550 3.0102
555 2.52055
560 2.23888
565 2.00405
570 1.28819
575 1.37286
580 1.3007
585 1.01679
590 0.938166
595 0.795452
600 0.508301
Ex : 328
200 0.469256
205 0.574589
210 0.405926
215 0.413071
220 0.500108
225 0.454514
230 0.491627
235 0.395554
240 0.406273
245 0.443939
250 0.369407
255 0.367136
260 0.492011
265 0.545809
270 0.526856
275 0.421774
280 0.366878
285 0.343856
290 0.378907
295 0.517838
300 0.527573
305 0.397542
310 0.433179
315 0.897391
320 23.6145
325 58.4965
330 19.8586
335 6.31427
340 6.57652
345 8.04123
350 9.86451
355 13.716
360 19.8523
365 22.0761
370 24.8869
375 27.6108
380 31.4146
385 34.5396
390 38.1285
395 40.6674
400 41.9469
405 43.128
410 44.6973
415 44.4355
420 42.7145
425 40.7859
430 40.0135
435 38.9553
440 36.514
445 36.0351
450 33.3218
455 31.9264
460 28.5357
465 26.4905
470 24.4749
475 23.8643
480 20.1262
485 18.9054
490 16.498
495 14.928
500 13.4899
505 11.713
510 10.2033
515 9.2684
520 7.99342
525 6.93913
530 6.22582
535 5.23906
540 5.1408
545 4.43893
550 3.94708
555 3.24245
560 3.01307
565 2.43101
570 1.92723
575 1.64436
580 1.48985
585 1.22281
590 0.926828
595 0.746796
600 0.986335
Ex : 333
200 0.408654
205 0.392553
210 0.314543
215 0.340591
220 0.421764
225 0.469037
230 0.369077
235 0.420051
240 0.356723
245 0.474163
250 0.473626
255 0.377528
260 0.492832
265 0.526878
270 0.473705
275 0.414616
280 0.484426
285 0.323059
290 0.415315
295 0.431809
300 0.369546
305 0.463025
310 0.440425
315 0.543116
320 3.93055
325 74.3717
330 135.756
335 37.2928
340 8.41703
345 6.43576
350 7.2904
355 7.94416
360 11.2424
365 16.3907
370 16.7818
375 17.6207
380 19.0597
385 22.2463
390 23.6043
395 25.255
400 26.2071
405 26.871
410 27.9464
415 27.2309
420 25.9589
425 25.6836
430 24.9456
435 23.759
440 23.7903
445 22.1131
450 20.5416
455 19.3159
460 18.1367
465 15.9734
470 15.2875
475 14.4092
480 13.4865
485 11.6513
490 10.857
495 10.097
500 8.75545
505 7.77515
510 6.94589
515 6.28087
520 5.51808
525 4.67425
530 4.17388
535 3.87735
540 3.3143
545 3.0793
550 2.89301
555 2.49395
560 2.25223
565 1.79853
570 1.75081
575 1.61179
580 1.44716
585 1.02545
590 0.79324
595 0.716808
600 0.74107
Ex : 338
200 0.334631
205 0.337004
210 0.368089
215 0.375646
220 0.322831
225 0.471376
230 0.397841
235 0.360599
240 0.498673
245 0.413379
250 0.404393
255 0.376357
260 0.383967
265 0.352404
270 0.345685
275 0.332969
280 0.397134
285 0.394024
290 0.309296
295 0.437441
300 0.450244
305 0.44291
310 0.409563
315 0.419172
320 0.597493
325 8.39651
330 124.229
335 182.499
340 45.9059
345 8.23743
350 5.2606
355 4.78566
360 4.92467
365 6.87928
370 11.6582
375 12.0034
380 10.7694
385 11.8433
390 13.3609
395 14.7593
400 15.0783
405 15.2996
410 15.836
415 15.8613
420 15.7674
425 14.8487
430 14.3236
435 13.9383
440 13.8019
445 12.7623
450 12.3454
455 11.706
460 10.582
465 9.75108
470 9.41311
475 8.54022
480 7.72907
485 7.18399
490 7.29614
495 5.94024
500 5.75877
505 5.16424
510 4.68001
515 4.13503
520 3.73922
525 3.52881
530 3.2696
535 2.96155
540 2.85775
545 2.3808
550 2.06734
555 1.90143
560 1.74767
565 1.62849
570 1.54205
575 1.31331
580 1.16178
585 0.814321
590 0.852443
595 0.752005
600 0.613527
Ex : 343
200 0.304075
205 0.375813
210 0.283341
215 0.383808
220 0.412371
225 0.461931
230 0.310642
235 0.367642
240 0.317742
245 0.310446
250 0.295561
255 0.279486
260 0.329296
265 0.427776
270 0.419033
275 0.428834
280 0.307588
285 0.311092
290 0.348656
295 0.42221
300 0.3558
305 0.385596
310 0.375808
315 0.524773
320 0.508528
325 0.517526
330 9.85439
335 143.959
340 209.898
345 50.8396
350 8.25706
355 4.01317
360 3.83266
365 3.39243
370 4.5051
375 8.84123
380 10.4159
385 9.35122
390 10.6786
395 10.6694
400 11.2829
405 11.8356
410 12.5245
415 13.0163
420 12.6763
425 11.9994
430 11.239
435 10.956
440 11.3527
445 10.6931
450 9.88532
455 9.29367
460 8.72869
465 8.08014
470 7.84456
475 7.54114
480 6.7923
485 6.24179
490 5.68414
495 5.29081
500 4.81882
505 4.60497
510 3.93935
515 3.60751
520 3.23489
525 3.03646
530 2.75332
535 2.60906
540 2.42884
545 2.07118
550 2.08883
555 1.86262
560 1.65484
565 1.51109
570 1.31954
575 1.16463
580 1.03487
585 0.772337
590 0.806803
595 0.700459
600 1.07017
Ex : 348
200 0.384087
205 0.316444
210 0.302204
215 0.311296
220 0.273246
225 0.345583
230 0.301235
235 0.311723
240 0.271317
245 0.322324
250 0.320136
255 0.263005
260 0.354887
265 0.297077
270 0.353632
275 0.393518
280 0.311063
285 0.208494
290 0.299588
295 0.445453
300 0.322907
305 0.34826
310 0.306797
315 0.300234
320 0.34211
325 0.581348
330 0.588686
335 9.32662
340 145.497
345 218.29
350 55.7919
355 8.52694
360 3.52844
365 3.15232
370 2.5957
375 3.34417
380 7.96579
385 12.0675
390 11.8016
395 11.8644
400 10.982
405 11.3619
410 12.3072
415 13.1904
420 12.9874
425 12.2697
430 11.7316
435 11.526
440 11.2887
445 10.3278
450 9.92538
455 9.13145
460 8.72339
465 8.2426
470 7.5909
475 7.36256
480 6.80811
485 6.23402
490 5.59652
495 5.31701
500 4.71203
505 4.4134
510 3.92493
515 3.37555
520 3.42911
525 2.99429
530 2.72415
535 2.56778
540 2.30223
545 2.14997
550 1.9084
555 1.7442
560 1.5559
565 1.50392
570 1.28952
575 1.21848
580 1.01782
585 0.94095
590 0.660392
595 0.703239
600 0.446182
Ex : 353
200 0.425132
205 0.383888
210 0.328799
215 0.299757
220 0.318273
225 0.280175
230 0.307027
235 0.41667
240 0.391395
245 0.39356
250 0.366321
255 0.339814
260 0.411166
265 0.364342
270 0.304747
275 0.332095
280 0.346334
285 0.358834
290 0.303193
295 0.374465
300 0.271524
305 0.282951
310 0.343222
315 0.362492
320 0.4297
325 0.399658
330 0.606543
335 0.660259
340 9.77652
345 150.28
350 217.287
355 53.8862
360 8.26209
365 3.32116
370 3.01805
375 2.58088
380 3.68375
385 8.48261
390 14.2492
395 14.289
400 12.4541
405 11.9487
410 13.1462
415 13.922
420 13.5935
425 12.4991
430 11.4023
435 11.7981
440 11.4872
445 10.5172
450 9.97491
455 9.54382
460 8.74155
465 8.26558
470 7.6543
475 7.29151
480 6.7607
485 6.28607
490 5.71793
495 5.2537
500 4.81177
505 4.42405
510 4.1115
515 3.69117
520 3.32565
525 3.00224
530 2.82261
535 2.60647
540 2.27697
545 2.05612
550 1.72579
555 1.81682
560 1.54038
565 1.34208
570 1.39225
575 1.13388
580 0.929239
585 0.857585
590 0.874635
595 0.689899
600 0.796382
Ex : 358
200 0.261378
205 0.188057
210 0.241453
215 0.29167
220 0.31394
225 0.279692
230 0.270785
235 0.229975
240 0.216506
245 0.229027
250 0.257783
255 0.471388
260 0.285854
265 0.30209
270 0.322343
275 0.264597
280 0.256256
285 0.406965
290 0.374091
295 0.346949
300 0.283891
305 0.331052
310 0.279565
315 0.338461
320 0.406485
325 0.357017
330 0.364428
335 0.494466
340 0.54234
345 9.88907
350 146.594
355 219.165
360 55.8969
365 8.29914
370 3.04048
375 3.04325
380 3.3754
385 5.27132
390 9.39704
395 14.1415
400 13.4038
405 12.1028
410 12.2883
415 12.9875
420 12.1991
425 11.7633
430 10.9186
435 10.3795
440 10.8559
445 10.8687
450 9.92294
455 9.04203
460 8.43019
465 8.27777
470 7.55389
475 7.08344
480 6.57044
485 6.4229
490 6.00506
495 5.0637
500 4.96526
505 4.40702
510 3.79883
515 3.69381
520 3.22638
525 3.03504
530 2.67772
535 2.53961
540 2.35839
545 2.09233
550 1.90376
555 1.74334
560 1.34858
565 1.45789
570 1.36503
575 1.1899
580 0.854609
585 0.815969
590 0.643026
595 0.634628
600 0.810721
Ex : 363
200 0.292099
205 0.294477
210 0.405356
215 0.219197
220 0.393188
225 0.23997
230 0.281814
235 0.287897
240 0.266614
245 0.27798
250 0.283505
255 0.242963
260 0.222196
265 0.273856
270 0.290271
275 0.308466
280 0.305784
285 0.32403
290 0.235341
295 0.336626
300 0.306775
305 0.265677
310 0.333012
315 0.336061
320 0.302402
325 0.298997
330 0.359725
335 0.410316
340 0.399926
345 0.688062
350 9.14996
355 140.368
360 221.024
365 57.7365
370 8.40517
375 3.46976
380 4.23177
385 6.39181
390 8.32963
395 10.1264
400 13.5136
405 14.753
410 14.0546
415 13.9694
420 12.9447
425 11.437
430 11.4886
435 10.9981
440 10.7756
445 10.3561
450 10.0279
455 9.23642
460 8.59217
465 8.05845
470 7.51071
475 7.47809
480 6.7379
485 6.10628
490 5.84575
495 5.65416
500 5.03381
505 4.64648
510 4.27875
515 3.35103
520 3.17521
525 3.18224
530 2.64389
535 2.61046
540 2.5316
545 2.14199
550 1.9404
555 1.65673
560 1.40039
565 1.49528
570 1.21504
575 0.989191
580 0.935403
585 0.800095
590 0.683438
595 0.650761
600 0.243662
Ex : 368
200 0.214763
205 0.280883
210 0.243695
215 0.272198
220 0.295834
225 0.261414
230 0.260694
235 0.206848
240 0.26062
245 0.221803
250 0.240028
255 0.271443
260 0.268402
265 0.246127
270 0.275481
275 0.238608
280 0.276734
285 0.291227
290 0.335405
295 0.296507
300 0.281882
305 0.222448
310 0.26445
315 0.263828
320 0.21562
325 0.271876
330 0.334285
335 0.299856
340 0.34557
345 0.447976
350 0.509765
355 7.58041
360 138.681
365 226.621
370 59.8667
375 8.88638
380 4.44651
385 6.86688
390 9.53977
395 10.832
400 11.2025
405 14.7227
410 17.9573
415 17.2257
420 15.7589
425 13.627
430 12.2972
435 12.3989
440 12.1005
445 11.6572
450 10.8845
455 9.75023
460 9.06251
465 8.37746
470 7.96669
475 7.59095
480 7.23717
485 6.51512
490 6.02805
495 5.33741
500 5.05934
505 4.76043
510 4.28166
515 3.79046
520 3.50862
525 3.10768
530 2.80033
535 2.55935
540 2.33951
545 2.0586
550 1.87282
555 1.78694
560 1.52961
565 1.32558
570 1.19834
575 0.951265
580 0.921096
585 0.790789
590 0.710583
595 0.55521
600 0.408038
Ex : 373
200 0.211103
205 0.227792
210 0.206024
215 0.298813
220 0.268315
225 0.236095
230 0.230151
235 0.20174
240 0.279854
245 0.25162
250 0.209994
255 0.190893
260 0.184269
265 0.213167
270 0.280456
275 0.201941
280 0.240809
285 0.329797
290 0.227102
295 0.250851
300 0.269108
305 0.272939
310 0.228248
315 0.194336
320 0.225837
325 0.259855
330 0.253749
335 0.33299
340 0.283974
345 0.325667
350 0.373731
355 0.515036
360 8.79162
365 141.631
370 224.834
375 60.007
380 9.1901
385 6.07339
390 9.69829
395 11.7378
400 10.5394
405 10.437
410 14.1676
415 18.273
420 16.5597
425 13.5185
430 11.6117
435 11.2721
440 11.0573
445 11.0722
450 10.2157
455 9.55066
460 8.69562
465 7.93231
470 7.61517
475 7.48386
480 6.86678
485 6.32352
490 5.81281
495 5.59616
500 4.94076
505 4.49846
510 3.90686
515 3.48548
520 3.34138
525 3.24208
530 2.74404
535 2.48542
540 2.25055
545 2.22219
550 1.89434
555 1.66102
560 1.54234
565 1.32573
570 1.19013
575 1.02941
580 0.817692
585 0.707689
590 0.579744
595 0.541765
600 1.11901
Ex : 378
200 0.219399
205 0.156782
210 0.245687
215 0.24016
220 0.255678
225 0.253943
230 0.250492
235 0.288641
240 0.260062
245 0.29015
250 0.281521
255 0.296421
260 0.234581
265 0.216291
270 0.264099
275 0.261484
280 0.224516
285 0.317407
290 0.220999
295 0.209673
300 0.243891
305 0.182452
310 0.21643
315 0.313776
320 0.273454
325 0.270928
330 0.2261
335 0.273859
340 0.324531
345 0.305947
350 0.338194
355 0.364215
360 0.529479
365 8.18734
370 142.504
375 231.353
380 62.6108
385 11.0884
390 7.62553
395 8.88795
400 8.27498
405 7.96958
410 9.2851
415 11.6009
420 14.3213
425 12.7656
430 10.9091
435 9.80685
440 9.24728
445 8.91963
450 8.47008
455 7.91012
460 7.24004
465 6.99931
470 6.48579
475 6.63678
480 6.19575
485 5.7107
490 5.33101
495 4.81012
500 4.45049
505 4.21545
510 3.86368
515 3.54016
520 3.3895
525 3.05438
530 2.60299
535 2.58449
540 2.20964
545 2.0555
550 1.81558
555 1.57691
560 1.42835
565 1.23776
570 1.01672
575 0.872508
580 0.87852
585 0.769485
590 0.678717
595 0.560103
600 0.632659
Ex : 383
200 0.239051
205 0.217557
210 0.297236
215 0.230063
220 0.278087
225 0.237673
230 0.199254
235 0.218632
240 0.247266
245 0.236272
250 0.231216
255 0.243937
260 0.218169
265 0.233193
270 0.284263
275 0.247117
280 0.212484
285 0.292397
290 0.294019
295 0.245349
300 0.22096
305 0.272484
310 0.245135
315 0.286901
320 0.222769
325 0.187259
330 0.227239
335 0.238107
340 0.273547
345 0.256594
350 0.279836
355 0.321908
360 0.297673
365 0.497233
370 7.83979
375 140.342
380 237.758
385 67.2552
390 13.7768
395 8.2401
400 7.71214
405 8.23012
410 8.71174
415 9.41889
420 9.73461
425 11.3595
430 11.9819
435 10.2289
440 9.52414
445 8.57475
450 7.72275
455 7.45148
460 6.83627
465 6.51279
470 6.413
475 6.05621
480 5.84723
485 5.5612
490 5.14466
495 5.05253
500 4.46292
505 4.3365
510 3.86975
515 3.51051
520 3.23612
525 2.87454
530 2.54191
535 2.49211
540 2.12915
545 2.08222
550 1.91834
555 1.71873
560 1.39248
565 1.29251
570 1.21768
575 0.973839
580 0.803529
585 0.693923
590 0.583744
595 0.54056
600 1.33737
Ex : 388
200 0.242987
205 0.197456
210 0.250503
215 0.192929
220 0.232004
225 0.212852
230 0.224904
235 0.252674
240 0.217394
245 0.200273
250 0.217368
255 0.239975
260 0.275548
265 0.214212
270 0.194924
275 0.283129
280 0.281129
285 0.261131
290 0.19515
295 0.305632
300 0.259012
305 0.231962
310 0.237363
315 0.159119
320 0.229555
325 0.317517
330 0.237646
335 0.270856
340 0.240489
345 0.238606
350 0.27059
355 0.254555
360 0.309669
365 0.350113
370 0.534819
375 8.96462
380 146.991
385 241.994
390 69.4351
395 15.7902
400 9.17776
405 9.17151
410 10.5891
415 11.4906
420 10.7646
425 9.68645
430 11.1502
435 12.7459
440 10.9899
445 9.93588
450 8.57699
455 7.43098
460 7.00034
465 6.75042
470 6.60073
475 6.37197
480 6.20322
485 5.63639
490 5.30724
495 4.81985
500 4.40718
505 4.0587
510 3.79464
515 3.50946
520 3.15734
525 2.99558
530 2.62773
535 2.47271
540 2.21613
545 2.03135
550 1.79108
555 1.55079
560 1.41863
565 1.25367
570 1.10598
575 0.95937
580 0.793433
585 0.637778
590 0.550543
595 0.54626
600 0.381995
Ex : 393
200 0.230409
205 0.238194
210 0.147295
215 0.239804
220 0.210142
225 0.188022
230 0.238748
235 0.192248
240 0.248992
245 0.256929
250 0.264662
255 0.19926
260 0.245352
265 0.226951
270 0.205009
275 0.224905
280 0.23461
285 0.149362
290 0.252917
295 0.19287
300 0.229628
305 0.243097
310 0.235039
315 0.232362
320 0.282209
325 0.180235
330 0.203597
335 0.247823
340 0.206835
345 0.271906
350 0.201051
355 0.267231
360 0.286237
365 0.363656
370 0.375047
375 0.584719
380 7.80937
385 148.775
390 248.395
395 73.3743
400 16.2469
405 8.86935
410 9.5867
415 11.8388
420 11.1967
425 9.78973
430 8.52227
435 9.62322
440 12.2547
445 10.6734
450 8.75693
455 7.68352
460 6.65218
465 6.36631
470 6.20274
475 5.78509
480 5.74855
485 5.33035
490 5.09503
495 4.85207
500 4.32854
505 4.0126
510 3.69632
515 3.37586
520 2.84677
525 2.89228
530 2.64116
535 2.27013
540 2.27953
545 1.98875
550 1.85668
555 1.70297
560 1.56121
565 1.2316
570 1.14385
575 1.01042
580 0.776866
585 0.668176
590 0.618708
595 0.509747
600 0.749756
Ex : 398
200 0.142834
205 0.214784
210 0.168639
215 0.23977
220 0.20045
225 0.155212
230 0.174437
235 0.166113
240 0.22408
245 0.266658
250 0.207441
255 0.202013
260 0.260318
265 0.190103
270 0.215271
275 0.219907
280 0.21493
285 0.173038
290 0.201541
295 0.183898
300 0.189814
305 0.223551
310 0.178378
315 0.188464
320 0.201735
325 0.201107
330 0.216492
335 0.226072
340 0.253752
345 0.30757
350 0.226947
355 0.198845
360 0.272915
365 0.279426
370 0.414605
375 0.370414
380 0.604579
385 8.65131
390 148.465
395 252.799
400 69.9257
405 12.4027
410 6.58383
415 7.19989
420 7.46617
425 6.75897
430 5.65288
435 5.57468
440 6.74915
445 9.21399
450 8.38746
455 6.68507
460 6.23636
465 5.44103
470 5.28033
475 5.00966
480 4.97117
485 4.51971
490 4.23153
495 3.99404
500 3.73233
505 3.78262
510 3.34593
515 3.17222
520 3.06839
525 2.57599
530 2.3919
535 2.29296
540 2.0676
545 1.80028
550 1.79176
555 1.51096
560 1.25647
565 1.32011
570 1.06743
575 0.871716
580 0.66492
585 0.627817
590 0.56243
595 0.516009
600 0.0947688
Ex : 403
200 0.278715
205 0.170157
210 0.225435
215 0.195301
220 0.219369
225 0.206381
230 0.207234
235 0.214274
240 0.244869
245 0.194915
250 0.168395
255 0.187351
260 0.164773
265 0.188384
270 0.205403
275 0.207945
280 0.209864
285 0.270388
290 0.18938
295 0.175553
300 0.152977
305 0.185706
310 0.218002
315 0.21081
320 0.221761
325 0.194625
330 0.190983
335 0.207208
340 0.219421
345 0.232592
350 0.203549
355 0.226395
360 0.22946
365 0.26736
370 0.282504
375 0.285958
380 0.436681
385 0.69161
390 9.47897
395 152.973
400 248.292
405 67.483
410 10.4965
415 4.24574
420 4.09067
425 3.87914
430 3.59549
435 3.45031
440 3.77045
445 4.56318
450 6.87872
455 7.26141
460 5.37348
465 4.9483
470 4.63684
475 4.49308
480 4.24471
485 4.19458
490 3.87414
495 3.69463
500 3.68986
505 3.39917
510 3.06368
515 2.96739
520 2.71566
525 2.49411
530 2.32821
535 2.1282
540 1.93992
545 1.83986
550 1.62731
555 1.6525
560 1.38618
565 1.21034
570 1.13676
575 0.915045
580 0.736386
585 0.655225
590 0.610027
595 0.470416
600 0.51254
Ex : 408
200 0.175766
205 0.190219
210 0.162648
215 0.19598
220 0.171864
225 0.180994
230 0.194844
235 0.168382
240 0.197552
245 0.216074
250 0.154252
255 0.247521
260 0.169893
265 0.198845
270 0.228323
275 0.183235
280 0.200654
285 0.215729
290 0.266123
295 0.213
300 0.180166
305 0.200675
310 0.195568
315 0.209424
320 0.243631
325 0.21604
330 0.176019
335 0.220216
340 0.197772
345 0.259432
350 0.253144
355 0.240175
360 0.23866
365 0.264476
370 0.273316
375 0.302079
380 0.305649
385 0.406281
390 0.610168
395 8.66575
400 157.363
405 255.918
410 67.1391
415 10.1615
420 3.64955
425 3.15025
430 3.30883
435 3.23231
440 3.38617
445 3.38239
450 3.75353
455 5.74825
460 7.02137
465 5.51606
470 4.74844
475 4.46164
480 4.17846
485 3.98807
490 3.88069
495 3.68139
500 3.34555
505 3.19423
510 2.92655
515 2.87959
520 2.74053
525 2.47794
530 2.21298
535 2.22286
540 1.86005
545 1.72215
550 1.52388
555 1.39957
560 1.20779
565 1.16154
570 0.973513
575 0.945001
580 0.744259
585 0.600242
590 0.495531
595 0.435045
600 0.736088
Ex : 413
200 0.204634
205 0.243578
210 0.185921
215 0.221965
220 0.192862
225 0.16171
230 0.188463
235 0.227628
240 0.140772
245 0.149749
250 0.182209
255 0.21648
260 0.241239
265 0.193788
270 0.177195
275 0.213995
280 0.189597
285 0.252038
290 0.220337
295 0.206163
300 0.171114
305 0.174232
310 0.210338
315 0.228788
320 0.177345
325 0.205715
330 0.28747
335 0.242254
340 0.224699
345 0.242183
350 0.272891
355 0.246327
360 0.196751
365 0.238667
370 0.267652
375 0.214833
380 0.309385
385 0.315781
390 0.382947
395 0.597562
400 9.70419
405 163.081
410 257.702
415 66.8041
420 9.87965
425 3.34017
430 2.65298
435 3.24432
440 3.39818
445 3.21062
450 2.928
455 3.29558
460 4.74376
465 6.44339
470 5.70438
475 4.66867
480 4.21377
485 3.82384
490 3.47561
495 3.47503
500 3.11691
505 2.93008
510 2.85245
515 2.67497
520 2.68695
525 2.29447
530 2.17228
535 2.10463
540 1.9211
545 1.76039
550 1.57365
555 1.32327
560 1.30789
565 1.1783
570 1.05044
575 0.826007
580 0.663536
585 0.569618
590 0.562061
595 0.476173
600 0.333886
Ex : 418
200 0.220058
205 0.155779
210 0.176099
215 0.193984
220 0.218836
225 0.279179
230 0.192106
235 0.200005
240 0.188848
245 0.177328
250 0.190676
255 0.215187
260 0.20639
265 0.183419
270 0.22644
275 0.205029
280 0.199489
285 0.203292
290 0.196137
295 0.216275
300 0.181206
305 0.194937
310 0.200693
315 0.261859
320 0.206312
325 0.177046
330 0.262168
335 0.241184
340 0.235305
345 0.187173
350 0.242973
355 0.228563
360 0.246606
365 0.255011
370 0.234599
375 0.272165
380 0.278649
385 0.289583
390 0.323577
395 0.389965
400 0.590571
405 9.19022
410 163.087
415 265.47
420 70.8603
425 9.98192
430 2.87752
435 2.30382
440 2.56266
445 2.82412
450 2.45509
455 2.56811
460 2.78292
465 3.55995
470 5.43119
475 5.47087
480 4.08599
485 3.80149
490 3.35221
495 3.02469
500 2.93936
505 2.74803
510 2.61261
515 2.63078
520 2.414
525 2.23398
530 2.14639
535 1.96302
540 1.80419
545 1.6015
550 1.50829
555 1.42878
560 1.16933
565 1.1028
570 1.01924
575 0.837655
580 0.666958
585 0.620686
590 0.489608
595 0.42417
600 0.216648
Ex : 423
200 0.233203
205 0.226322
210 0.184426
215 0.229245
220 0.190763
225 0.20435
230 0.169011
235 0.209408
240 0.21208
245 0.198869
250 0.173833
255 0.20086
260 0.195933
265 0.173649
270 0.235573
275 0.182708
280 0.192403
285 0.168251
290 0.205497
295 0.161315
300 0.185934
305 0.189926
310 0.165189
315 0.16698
320 0.206156
325 0.197131
330 0.212696
335 0.208604
340 0.198926
345 0.256149
350 0.245369
355 0.247225
360 0.250982
365 0.2009
370 0.204602
375 0.243537
380 0.268797
385 0.264845
390 0.315821
395 0.318596
400 0.436046
405 0.597304
410 9.86475
415 173.51
420 267.913
425 67.5905
430 9.29053
435 2.60157
440 1.94662
445 2.29291
450 2.35455
455 2.09952
460 2.07289
465 2.41159
470 2.73781
475 4.466
480 5.33679
485 3.84692
490 3.53619
495 3.08909
500 2.7863
505 2.41286
510 2.44113
515 2.4405
520 2.22519
525 2.07229
530 2.07273
535 1.89687
540 1.87413
545 1.63525
550 1.5725
555 1.2386
560 1.18479
565 1.09746
570 0.992473
575 0.91581
580 0.75304
585 0.578332
590 0.545924
595 0.477723
600 0.215225
Ex : 428
200 0.223325
205 0.268771
210 0.210775
215 0.222368
220 0.195238
225 0.17596
230 0.189436
235 0.178762
240 0.26072
245 0.268102
250 0.191206
255 0.235308
260 0.234109
265 0.234152
270 0.166189
275 0.182282
280 0.261803
285 0.210821
290 0.200671
295 0.182453
300 0.166032
305 0.158424
310 0.235808
315 0.215742
320 0.281556
325 0.23599
330 0.190398
335 0.187421
340 0.189673
345 0.206138
350 0.212833
355 0.211493
360 0.210542
365 0.299731
370 0.275924
375 0.251103
380 0.194738
385 0.222083
390 0.237389
395 0.301664
400 0.385975
405 0.402489
410 0.561789
415 10.4509
420 174.865
425 276.32
430 71.7804
435 9.61123
440 2.46193
445 1.98988
450 2.00186
455 2.11303
460 1.97954
465 2.01364
470 2.12492
475 2.34411
480 3.88817
485 5.33413
490 4.12108
495 3.43027
500 3.06198
505 2.50372
510 2.39939
515 2.21823
520 2.20645
525 1.90056
530 1.87936
535 1.84908
540 1.61979
545 1.58143
550 1.39787
555 1.20324
560 1.24728
565 1.08367
570 1.04654
575 0.859116
580 0.708172
585 0.54238
590 0.480503
595 0.383083
600 0.285285
Ex : 433
200 0.16798
205 0.202801
210 0.140272
215 0.173523
220 0.188724
225 0.224292
230 0.218161
235 0.18764
240 0.196194
245 0.231921
250 0.267622
255 0.255533
260 0.293009
265 0.230358
270 0.214084
275 0.19529
280 0.206318
285 0.181664
290 0.276416
295 0.196786
300 0.222185
305 0.234749
310 0.214623
315 0.25993
320 0.27664
325 0.244772
330 0.214072
335 0.208996
340 0.211134
345 0.247414
350 0.251372
355 0.213301
360 0.213559
365 0.271167
370 0.252554
375 0.223083
380 0.218166
385 0.266326
390 0.243397
395 0.293428
400 0.305493
405 0.351767
410 0.521162
415 0.555609
420 11.7734
425 192.078
430 285.301
435 71.9225
440 9.64123
445 2.61331
450 1.71081
455 1.99664
460 2.06969
465 1.89513
470 1.86867
475 1.97931
480 2.23719
485 3.12923
490 4.88979
495 4.21652
500 3.16951
505 2.87459
510 2.45386
515 2.22621
520 2.03061
525 1.91061
530 1.85592
535 1.88241
540 1.62131
545 1.49825
550 1.41067
555 1.39573
560 1.23589
565 1.17168
570 0.962287
575 0.879398
580 0.767922
585 0.538644
590 0.502686
595 0.546154
600 1.22773
Ex : 438
200 0.225663
205 0.136717
210 0.209719
215 0.189388
220 0.22889
225 0.158298
230 0.183364
235 0.220609
240 0.206144
245 0.249768
250 0.223898
255 0.185394
260 0.215185
265 0.218502
270 0.224572
275 0.182495
280 0.224048
285 0.250272
290 0.228607
295 0.210946
300 0.219842
305 0.204219
310 0.193118
315 0.236925
320 0.245696
325 0.180264
330 0.180848
335 0.274855
340 0.273644
345 0.220999
350 0.176394
355 0.189249
360 0.241142
365 0.188359
370 0.213462
375 0.236399
380 0.209031
385 0.278455
390 0.280918
395 0.295408
400 0.29326
405 0.391811
410 0.320357
415 0.342624
420 0.630609
425 11.817
430 187.655
435 293.355
440 72.9916
445 9.71189
450 2.56464
455 1.72654
460 1.99594
465 2.2133
470 2.06655
475 1.88336
480 1.86888
485 2.08795
490 2.53667
495 4.42276
500 4.75348
505 3.34732
510 2.71463
515 2.45836
520 2.20017
525 2.01021
530 1.89581
535 1.73016
540 1.67469
545 1.43175
550 1.548
555 1.30003
560 1.13562
565 1.0116
570 0.915169
575 0.857441
580 0.62529
585 0.589177
590 0.445688
595 0.483495
600 0.694051
Ex : 443
200 0.231221
205 0.212973
210 0.184
215 0.200239
220 0.233638
225 0.223529
230 0.173039
235 0.216763
240 0.204899
245 0.224407
250 0.238829
255 0.224803
260 0.240295
265 0.203553
270 0.214868
275 0.190592
280 0.211854
285 0.231628
290 0.193791
295 0.196475
300 0.216316
305 0.279636
310 0.243669
315 0.204562
320 0.206585
325 0.217507
330 0.220481
335 0.259341
340 0.218616
345 0.232643
350 0.230842
355 0.223657
360 0.288785
365 0.29546
370 0.279729
375 0.229967
380 0.251473
385 0.231079
390 0.281385
395 0.321669
400 0.275969
405 0.282009
410 0.305588
415 0.386337
420 0.514351
425 0.630306
430 12.9214
435 209.767
440 310.426
445 76.2002
450 10.2113
455 2.67097
460 1.70194
465 1.91972
470 1.96069
475 2.09895
480 1.90985
485 1.89948
490 2.09621
495 2.22498
500 3.58745
505 4.54398
510 3.27703
515 2.48118
520 2.59131
525 2.09197
530 1.88393
535 1.62951
540 1.70093
545 1.56474
550 1.55485
555 1.37023
560 1.34109
565 1.13603
570 0.993776
575 0.917248
580 0.78493
585 0.602949
590 0.530695
595 0.429873
600 0.378598
Ex : 448
200 0.218959
205 0.192792
210 0.228825
215 0.245518
220 0.231188
225 0.186816
230 0.186877
235 0.222813
240 0.195661
245 0.212119
250 0.241284
255 0.213588
260 0.191475
265 0.206479
270 0.188181
275 0.254377
280 0.19217
285 0.218525
290 0.194103
295 0.180242
300 0.233507
305 0.230569
310 0.217194
315 0.246431
320 0.206666
325 0.206221
330 0.195485
335 0.28151
340 0.244478
345 0.245205
350 0.266281
355 0.279416
360 0.182043
365 0.259427
370 0.2308
375 0.234937
380 0.287818
385 0.283314
390 0.215192
395 0.248363
400 0.287232
405 0.300659
410 0.314356
415 0.313018
420 0.366766
425 0.483049
430 0.624045
435 13.2857
440 218.217
445 323.289
450 78.5068
455 10.4212
460 2.58714
465 1.79093
470 1.90192
475 2.17714
480 1.97063
485 1.80297
490 1.78391
495 1.86643
500 1.97853
505 2.87461
510 4.17039
515 3.55293
520 2.45645
525 2.3789
530 1.95165
535 1.76009
540 1.60448
545 1.5094
550 1.44083
555 1.32602
560 1.21566
565 1.09828
570 1.00546
575 0.853957
580 0.666046
585 0.553642
590 0.529551
595 0.462082
600 0.598411
Ex : 453
200 0.177043
205 0.241404
210 0.240538
215 0.200273
220 0.169588
225 0.189601
230 0.185806
235 0.287033
240 0.222638
245 0.1932
250 0.218904
255 0.257616
260 0.214013
265 0.212623
270 0.28852
275 0.276778
280 0.193659
285 0.240234
290 0.196198
295 0.229015
300 0.20889
305 0.20233
310 0.249447
315 0.249352
320 0.213648
325 0.184437
330 0.185211
335 0.231883
340 0.239968
345 0.245907
350 0.219381
355 0.241375
360 0.235219
365 0.252309
370 0.217277
375 0.196149
380 0.208123
385 0.250639
390 0.27371
395 0.248557
400 0.251992
405 0.240272
410 0.235482
415 0.292314
420 0.272211
425 0.413677
430 0.433346
435 0.674415
440 13.9689
445 237.743
450 340.347
455 79.8693
460 10.4683
465 2.7348
470 1.69545
475 1.96052
480 2.00565
485 1.96963
490 1.89323
495 1.82481
500 1.76149
505 1.87848
510 2.31645
515 3.84531
520 3.83418
525 2.50639
530 2.27212
535 2.2059
540 1.90039
545 1.608
550 1.42185
555 1.27467
560 1.23756
565 1.14138
570 0.962014
575 0.876976
580 0.732054
585 0.639995
590 0.583141
595 0.490196
600 0.153294
Ex : 458
200 0.218847
205 0.217867
210 0.18938
215 0.196776
220 0.197853
225 0.18787
230 0.227263
235 0.212905
240 0.248884
245 0.198652
250 0.200459
255 0.212839
260 0.269204
265 0.224868
270 0.217272
275 0.181353
280 0.236324
285 0.201538
290 0.179088
295 0.25007
300 0.195523
305 0.232992
310 0.215987
315 0.239275
320 0.207001
325 0.226133
330 0.181268
335 0.227858
340 0.167401
345 0.232882
350 0.275723
355 0.220939
360 0.204829
365 0.22412
370 0.230324
375 0.200904
380 0.250081
385 0.280148
390 0.273046
395 0.265228
400 0.198256
405 0.321726
410 0.289169
415 0.262453
420 0.306899
425 0.335836
430 0.334051
435 0.406299
440 0.660938
445 15.5529
450 241.958
455 358.08
460 84.1478
465 11.1081
470 2.83734
475 1.73423
480 1.69293
485 2.03688
490 1.90471
495 1.79005
500 1.6554
505 1.58498
510 1.68878
515 1.96358
520 3.3394
525 4.07979
530 2.77446
535 2.19914
540 1.96201
545 1.69901
550 1.5367
555 1.43576
560 1.29574
565 1.09353
570 0.972035
575 0.992259
580 0.693726
585 0.61303
590 0.616067
595 0.492241
600 0.822865
Ex : 463
200 0.300724
205 0.188381
210 0.190292
215 0.194857
220 0.16294
225 0.214501
230 0.215626
235 0.253425
240 0.25907
245 0.244437
250 0.212766
255 0.197842
260 0.202434
265 0.186414
270 0.215514
275 0.281455
280 0.185266
285 0.188922
290 0.268358
295 0.208127
300 0.225617
305 0.246706
310 0.216403
315 0.218594
320 0.260874
325 0.248071
330 0.243818
335 0.210068
340 0.204897
345 0.211289
350 0.23274
355 0.217952
360 0.244862
365 0.253032
370 0.292672
375 0.301931
380 0.257
385 0.228685
390 0.192576
395 0.216439
400 0.235965
405 0.23096
410 0.268766
415 0.244064
420 0.301486
425 0.267693
430 0.436503
435 0.417935
440 0.430969
445 0.657593
450 14.6861
455 252.965
460 377.856
465 89.4645
470 11.6848
475 2.81487
480 1.76954
485 1.68758
490 1.92066
495 1.93242
500 1.77076
505 1.57171
510 1.65978
515 1.7631
520 2.00965
525 2.54724
530 3.71305
535 3.24116
540 2.22312
545 2.0744
550 1.7545
555 1.44633
560 1.35947
565 1.19445
570 1.09998
575 0.861913
580 0.838325
585 0.679779
590 0.55609
595 0.516334
600 0.346703
Ex : 468
200 0.211629
205 0.180706
210 0.187434
215 0.231671
220 0.2243
225 0.18333
230 0.170772
235 0.185555
240 0.187091
245 0.239819
250 0.238609
255 0.199036
260 0.221826
265 0.184251
270 0.211907
275 0.189186
280 0.227886
285 0.199849
290 0.195349
295 0.264559
300 0.18371
305 0.167351
310 0.163293
315 0.203711
320 0.212111
325 0.207645
330 0.147608
335 0.212054
340 0.272376
345 0.198571
350 0.214369
355 0.181033
360 0.213704
365 0.184603
370 0.195074
375 0.213571
380 0.215875
385 0.189077
390 0.184146
395 0.25391
400 0.212121
405 0.244459
410 0.291048
415 0.259421
420 0.289227
425 0.287564
430 0.246181
435 0.255177
440 0.351863
445 0.414015
450 0.579172
455 16.449
460 258.606
465 404.67
470 96.6871
475 12.5055
480 2.89802
485 1.70607
490 1.67171
495 1.9053
500 1.84798
505 1.73905
510 1.55352
515 1.54033
520 1.65811
525 1.68774
530 2.21315
535 3.26444
540 3.23109
545 2.38023
550 1.83593
555 1.71319
560 1.51384
565 1.1798
570 1.03143
575 0.918145
580 0.763662
585 0.677644
590 0.631649
595 0.491698
600 0.279994
Ex : 473
200 0.235476
205 0.221196
210 0.234799
215 0.210787
220 0.199163
225 0.242308
230 0.169809
235 0.217511
240 0.205146
245 0.198537
250 0.217577
255 0.193743
260 0.20654
265 0.249821
270 0.213137
275 0.215496
280 0.176617
285 0.212838
290 0.181407
295 0.194656
300 0.22694
305 0.200964
310 0.20174
315 0.234712
320 0.228505
325 0.265701
330 0.190892
335 0.232766
340 0.223798
345 0.218439
350 0.246185
355 0.216831
360 0.191462
365 0.226478
370 0.287029
375 0.245089
380 0.208138
385 0.225069
390 0.271402
395 0.253077
400 0.229496
405 0.230664
410 0.322183
415 0.207492
420 0.272723
425 0.277359
430 0.306416
435 0.287412
440 0.31475
445 0.336512
450 0.506455
455 0.674421
460 19.3351
465 281.688
470 383.618
475 88.0662
480 11.405
485 2.58055
490 1.55197
495 1.4753
500 1.7069
505 1.88123
510 1.80435
515 1.6184
520 1.55796
525 1.67887
530 1.66364
535 1.91255
540 2.98097
545 3.41505
550 2.4204
555 1.82666
560 1.52523
565 1.41275
570 1.13654
575 0.962949
580 0.788535
585 0.605031
590 0.639077
595 0.491424
600 0.787307
Ex : 478
200 0.342278
205 0.273198
210 0.268594
215 0.29641
220 0.258868
225 0.249126
230 0.238456
235 0.260793
240 0.310746
245 0.250326
250 0.234147
255 0.254903
260 0.321418
265 0.295809
270 0.233241
275 0.329715
280 0.229725
285 0.286446
290 0.229479
295 0.216859
300 0.238939
305 0.253333
310 0.255217
315 0.23324
320 0.277366
325 0.239762
330 0.257501
335 0.306973
340 0.22304
345 0.232219
350 0.239889
355 0.252553
360 0.250349
365 0.233511
370 0.248317
375 0.267833
380 0.300355
385 0.256489
390 0.306544
395 0.234431
400 0.225934
405 0.275515
410 0.266407
415 0.30333
420 0.273084
425 0.315897
430 0.358789
435 0.349771
440 0.347922
445 0.36162
450 0.450204
455 0.493251
460 0.824184
465 21.5855
470 300.376
475 450.879
480 102.386
485 12.9915
490 2.93815
495 1.63649
500 1.46052
505 1.65193
510 1.83105
515 1.79082
520 1.67609
525 1.72919
530 1.62491
535 1.87025
540 1.54979
545 2.28056
550 3.13438
555 2.56978
560 1.87045
565 1.49662
570 1.39502
575 1.03827
580 0.881353
585 0.706064
590 0.586761
595 0.594181
600 0.513113
Ex : 483
200 0.261558
205 0.293875
210 0.282426
215 0.310797
220 0.272201
225 0.241888
230 0.283492
235 0.327816
240 0.241777
245 0.272624
250 0.307653
255 0.286781
260 0.261205
265 0.284802
270 0.244057
275 0.24971
280 0.215629
285 0.211192
290 0.2635
295 0.345558
300 0.331783
305 0.252208
310 0.314029
315 0.346675
320 0.223138
325 0.239373
330 0.240115
335 0.32234
340 0.344916
345 0.359191
350 0.274017
355 0.255794
360 0.253472
365 0.222541
370 0.24532
375 0.238888
380 0.254874
385 0.240861
390 0.274474
395 0.260543
400 0.312734
405 0.300939
410 0.229094
415 0.289015
420 0.314586
425 0.331817
430 0.332416
435 0.354891
440 0.400994
445 0.35871
450 0.410464
455 0.440921
460 0.589079
465 0.78578
470 16.2603
475 280.442
480 421.824
485 99.1059
490 12.7473
495 2.89626
500 1.70323
505 1.50271
510 1.62254
515 1.99298
520 1.86032
525 1.90786
530 1.73375
535 1.69202
540 1.61488
545 1.57912
550 1.83095
555 2.60538
560 2.73097
565 1.84669
570 1.39709
575 1.20278
580 0.950696
585 0.760708
590 0.719898
595 0.591329
600 0.886791
Ex : 488
200 0.296613
205 0.273365
210 0.270769
215 0.331498
220 0.308427
225 0.236142
230 0.276434
235 0.329564
240 0.31728
245 0.338075
250 0.251914
255 0.226686
260 0.260785
265 0.233125
270 0.274053
275 0.200733
280 0.290711
285 0.309827
290 0.271693
295 0.279497
300 0.252674
305 0.270586
310 0.248811
315 0.327696
320 0.309039
325 0.276572
330 0.276124
335 0.196684
340 0.292364
345 0.226995
350 0.319627
355 0.341992
360 0.302975
365 0.273604
370 0.257634
375 0.293989
380 0.303247
385 0.340941
390 0.259062
395 0.329887
400 0.260318
405 0.29592
410 0.319296
415 0.305444
420 0.344662
425 0.338541
430 0.314179
435 0.377615
440 0.302887
445 0.319294
450 0.42245
455 0.44035
460 0.53372
465 0.564892
470 0.774262
475 19.4449
480 305.126
485 413.98
490 95.8045
495 12.2821
500 2.74362
505 1.58843
510 1.27173
515 1.63416
520 1.79533
525 1.99942
530 1.8408
535 1.66762
540 1.53325
545 1.65604
550 1.42352
555 1.54671
560 2.12132
565 2.59724
570 1.90725
575 1.36209
580 1.17093
585 0.81277
590 0.689309
595 0.614514
600 0.212291
Ex : 493
200 0.27819
205 0.253527
210 0.270985
215 0.25686
220 0.3409
225 0.291691
230 0.276492
235 0.242647
240 0.279347
245 0.270056
250 0.244408
255 0.258562
260 0.283051
265 0.250009
270 0.262261
275 0.24987
280 0.26404
285 0.248075
290 0.312769
295 0.252325
300 0.334304
305 0.293706
310 0.284772
315 0.29
320 0.364723
325 0.295069
330 0.281608
335 0.300827
340 0.338111
345 0.301222
350 0.276397
355 0.289509
360 0.297049
365 0.263594
370 0.296402
375 0.276894
380 0.302927
385 0.324265
390 0.35629
395 0.331095
400 0.298235
405 0.268843
410 0.323328
415 0.327468
420 0.331639
425 0.356909
430 0.27403
435 0.298145
440 0.307307
445 0.339075
450 0.402999
455 0.353365
460 0.421701
465 0.503968
470 0.513461
475 0.711941
480 18.7306
485 302.501
490 443.655
495 102.225
500 13.0399
505 2.76139
510 1.64171
515 1.43644
520 1.86212
525 1.92696
530 2.00828
535 1.88965
540 1.64955
545 1.56167
550 1.48261
555 1.24635
560 1.34155
565 1.58644
570 2.1413
575 1.93352
580 1.14101
585 1.04332
590 0.819253
595 0.637373
600 0.508543
Ex : 498
200 0.235586
205 0.291906
210 0.29386
215 0.288608
220 0.314799
225 0.398811
230 0.258961
235 0.315143
240 0.288576
245 0.288828
250 0.292212
255 0.362164
260 0.42457
265 0.324443
270 0.356718
275 0.222785
280 0.256343
285 0.345774
290 0.370689
295 0.380372
300 0.326828
305 0.307953
310 0.281981
315 0.302203
320 0.30289
325 0.293775
330 0.331345
335 0.271996
340 0.367164
345 0.268476
350 0.252197
355 0.316142
360 0.334754
365 0.306482
370 0.279333
375 0.333921
380 0.369603
385 0.280551
390 0.275188
395 0.340553
400 0.345316
405 0.36144
410 0.301266
415 0.34901
420 0.302845
425 0.356091
430 0.361011
435 0.33623
440 0.38276
445 0.359049
450 0.425025
455 0.515247
460 0.517492
465 0.52682
470 0.525184
475 0.701702
480 0.851938
485 22.1155
490 323.503
495 426.555
500 97.8172
505 12.4673
510 2.78309
515 1.66944
520 1.63871
525 1.60769
530 1.9565
535 1.89362
540 1.70479
545 1.59278
550 1.3787
555 1.39552
560 1.32269
565 1.33196
570 1.33422
575 1.79762
580 1.63975
585 1.24035
590 0.794563
595 0.7318
600 0.855258
Ex : 503
200 0.28041
205 0.373821
210 0.289265
215 0.198035
220 0.308492
225 0.333913
230 0.325543
235 0.300123
240 0.328952
245 0.30084
250 0.310415
255 0.312181
260 0.278053
265 0.279887
270 0.318092
275 0.321577
280 0.402892
285 0.304764
290 0.317378
295 0.347808
300 0.28956
305 0.372988
310 0.309549
315 0.352443
320 0.349857
325 0.293515
330 0.343768
335 0.377588
340 0.320189
345 0.269094
350 0.302471
355 0.34543
360 0.355989
365 0.419342
370 0.389134
375 0.354348
380 0.349064
385 0.379081
390 0.377708
395 0.332498
400 0.323029
405 0.324337
410 0.312922
415 0.433124
420 0.324386
425 0.292551
430 0.291384
435 0.353907
440 0.273832
445 0.388603
450 0.355862
455 0.363674
460 0.564319
465 0.43103
470 0.51998
475 0.557699
480 0.78927
485 0.918994
490 20.299
495 317.955
500 432.274
505 98.2065
510 12.6397
515 2.81628
520 1.8288
525 1.73011
530 1.66908
535 1.7698
540 1.74417
545 1.60924
550 1.45038
555 1.36139
560 1.16783
565 1.18165
570 1.04212
575 1.08651
580 1.24814
585 1.54528
590 1.14336
595 0.909105
600 1.0148
Ex : 508
200 0.252246
205 0.355904
210 0.289448
215 0.184139
220 0.29762
225 0.254899
230 0.334783
235 0.310364
240 0.285062
245 0.330031
250 0.303334
255 0.33994
260 0.346842
265 0.337544
270 0.403913
275 0.314087
280 0.27311
285 0.270661
290 0.281454
295 0.397132
300 0.36383
305 0.292022
310 0.218999
315 0.280569
320 0.278606
325 0.262362
330 0.332426
335 0.296817
340 0.398225
345 0.324878
350 0.306383
355 0.350971
360 0.365707
365 0.343387
370 0.376251
375 0.319414
380 0.328096
385 0.279075
390 0.26593
395 0.345625
400 0.380419
405 0.353232
410 0.38605
415 0.316376
420 0.417201
425 0.411291
430 0.336866
435 0.43724
440 0.318515
445 0.467039
450 0.384362
455 0.342962
460 0.439235
465 0.518373
470 0.478836
475 0.481033
480 0.516246
485 0.728045
490 0.99568
495 21.6637
500 319.752
505 438.979
510 104.052
515 13.2979
520 2.90919
525 1.86254
530 1.57327
535 1.59327
540 1.69539
545 1.63483
550 1.61368
555 1.34522
560 1.39612
565 1.15662
570 1.08468
575 0.990947
580 0.880851
585 0.990406
590 1.19163
595 1.22618
600 0.812876
Ex : 513
200 0.356105
205 0.349489
210 0.341973
215 0.334138
220 0.391629
225 0.302234
230 0.405091
235 0.369273
240 0.400015
245 0.323142
250 0.351027
255 0.383253
260 0.330218
265 0.319356
270 0.354422
275 0.310572
280 0.423244
285 0.385196
290 0.314926
295 0.324279
300 0.357416
305 0.377746
310 0.371987
315 0.361304
320 0.333692
325 0.297742
330 0.29706
335 0.335946
340 0.384618
345 0.34822
350 0.375295
355 0.348967
360 0.303767
365 0.434667
370 0.296185
375 0.349013
380 0.411579
385 0.31925
390 0.378266
395 0.30468
400 0.279134
405 0.368258
410 0.334448
415 0.407319
420 0.401262
425 0.382777
430 0.300271
435 0.348114
440 0.386941
445 0.35836
450 0.441413
455 0.362845
460 0.373952
465 0.425549
470 0.535064
475 0.533372
480 0.490228
485 0.521209
490 0.763614
495 0.912005
500 20.6144
505 317.642
510 452.513
515 109.477
520 13.9742
525 3.06894
530 1.86086
535 1.60533
540 1.41393
545 1.66213
550 1.65485
555 1.59653
560 1.19427
565 1.1038
570 1.03274
575 0.833025
580 0.929268
585 0.882341
590 0.740877
595 0.910526
600 1.13678
Ex : 518
200 0.39889
205 0.339688
210 0.363118
215 0.346643
220 0.264563
225 0.417979
230 0.431293
235 0.318774
240 0.224084
245 0.3857
250 0.31316
255 0.370348
260 0.368821
265 0.483365
270 0.299738
275 0.391241
280 0.29946
285 0.321986
290 0.333587
295 0.328189
300 0.30683
305 0.408582
310 0.297184
315 0.330545
320 0.295082
325 0.341416
330 0.37827
335 0.313701
340 0.324204
345 0.368779
350 0.335003
355 0.384068
360 0.449014
365 0.361594
370 0.306876
375 0.346766
380 0.36569
385 0.370604
390 0.35417
395 0.355634
400 0.395812
405 0.38172
410 0.351938
415 0.407232
420 0.384305
425 0.487826
430 0.368899
435 0.552821
440 0.336456
445 0.285966
450 0.413308
455 0.417925
460 0.440482
465 0.454083
470 0.51238
475 0.35938
480 0.519212
485 0.615853
490 0.66669
495 0.687722
500 0.975757
505 20.2288
510 302.039
515 442.913
520 106.797
525 13.5618
530 2.9943
535 1.56726
540 1.46133
545 1.30842
550 1.34314
555 1.4648
560 1.2781
565 1.2827
570 1.07206
575 0.836812
580 0.757948
585 0.867111
590 0.675927
595 0.785837
600 0.989548
Ex : 523
200 0.295767
205 0.296443
210 0.374854
215 0.360536
220 0.334986
225 0.383083
230 0.340331
235 0.326779
240 0.291921
245 0.384645
250 0.335676
255 0.462627
260 0.35322
265 0.332436
270 0.251198
275 0.271032
280 0.30848
285 0.398868
290 0.281475
295 0.3385
300 0.389458
305 0.3184
310 0.357666
315 0.352733
320 0.340283
325 0.420346
330 0.401901
335 0.28623
340 0.259039
345 0.432329
350 0.468539
355 0.319111
360 0.359729
365 0.371404
370 0.350797
375 0.47909
380 0.336337
385 0.33837
390 0.349099
395 0.388411
400 0.367544
405 0.260137
410 0.432783
415 0.366347
420 0.399647
425 0.337038
430 0.33594
435 0.384935
440 0.433894
445 0.385312
450 0.377563
455 0.428978
460 0.444157
465 0.385029
470 0.41898
475 0.471832
480 0.487856
485 0.570724
490 0.568951
495 0.499724
500 0.639509
505 0.948177
510 17.9929
515 293.125
520 433.316
525 109.883
530 14.0674
535 2.86735
540 1.48543
545 1.36246
550 1.17558
555 1.20627
560 1.28352
565 1.17731
570 1.13376
575 1.00177
580 0.827354
585 0.754293
590 0.696861
595 0.626259
600 0.812114
Ex : 528
200 0.415233
205 0.366021
210 0.308826
215 0.39889
220 0.429802
225 0.313887
230 0.353576
235 0.367522
240 0.313008
245 0.354634
250 0.355844
255 0.356044
260 0.443982
265 0.381992
270 0.321883
275 0.325814
280 0.342806
285 0.40504
290 0.453388
295 0.41955
300 0.39438
305 0.378554
310 0.319159
315 0.334914
320 0.368565
325 0.414962
330 0.297843
335 0.513955
340 0.388187
345 0.321796
350 0.472145
355 0.468839
360 0.397463
365 0.379498
370 0.389408
375 0.477605
380 0.374946
385 0.316106
390 0.354806
395 0.368529
400 0.340474
405 0.36582
410 0.426659
415 0.488003
420 0.441441
425 0.397446
430 0.414608
435 0.470478
440 0.426492
445 0.398598
450 0.49412
455 0.434449
460 0.532108
465 0.40501
470 0.442977
475 0.446838
480 0.488992
485 0.417942
490 0.379372
495 0.477144
500 0.57519
505 0.754396
510 0.995726
515 18.0673
520 288.346
525 430.094
530 107.352
535 13.63
540 2.75028
545 1.44622
550 1.19972
555 1.10364
560 1.12366
565 1.12765
570 1.05934
575 0.93306
580 0.732475
585 0.782034
590 0.73204
595 0.632377
600 0.166028
Ex : 533
200 0.364506
205 0.339234
210 0.399623
215 0.37552
220 0.336057
225 0.416212
230 0.334675
235 0.395748
240 0.341898
245 0.409935
250 0.38013
255 0.390874
260 0.392935
265 0.365246
270 0.381755
275 0.346396
280 0.368764
285 0.382026
290 0.316161
295 0.477379
300 0.368391
305 0.323308
310 0.288948
315 0.452898
320 0.26299
325 0.354962
330 0.357228
335 0.441314
340 0.412907
345 0.455632
350 0.350745
355 0.339475
360 0.411435
365 0.359007
370 0.35428
375 0.507453
380 0.362578
385 0.394107
390 0.406291
395 0.367028
400 0.419275
405 0.404821
410 0.375622
415 0.450413
420 0.371564
425 0.344187
430 0.469661
435 0.444046
440 0.421819
445 0.377319
450 0.416114
455 0.4571
460 0.385089
465 0.385692
470 0.396037
475 0.340105
480 0.452061
485 0.544752
490 0.358203
495 0.490717
500 0.535746
505 0.497743
510 0.682362
515 1.03857
520 18.0494
525 282.384
530 419.259
535 107.679
540 13.6592
545 2.6453
550 1.41991
555 1.21583
560 0.997554
565 1.06277
570 1.00983
575 1.04263
580 0.771902
585 0.772051
590 0.692882
595 0.563223
600 0.469214
Ex : 538
200 0.339426
205 0.315337
210 0.483205
215 0.454055
220 0.282196
225 0.515302
230 0.342154
235 0.438865
240 0.459453
245 0.348104
250 0.335808
255 0.299135
260 0.317555
265 0.456314
270 0.356583
275 0.394657
280 0.340899
285 0.305032
290 0.299456
295 0.390574
300 0.330822
305 0.405694
310 0.339001
315 0.303646
320 0.285195
325 0.460545
330 0.443541
335 0.313585
340 0.385919
345 0.436216
350 0.408643
355 0.424833
360 0.325794
365 0.477415
370 0.395977
375 0.434556
380 0.477966
385 0.397242
390 0.373576
395 0.385705
400 0.48159
405 0.455178
410 0.496533
415 0.372412
420 0.368289
425 0.556403
430 0.504829
435 0.444084
440 0.464156
445 0.532245
450 0.373855
455 0.383004
460 0.42018
465 0.422244
470 0.375495
475 0.463896
480 0.471915
485 0.567496
490 0.414655
495 0.591895
500 0.671534
505 0.511762
510 0.562803
515 0.637278
520 0.861217
525 15.1351
530 264.777
535 426.442
540 115.575
545 14.4107
550 2.56728
555 1.38853
560 1.12872
565 0.925712
570 1.01509
575 0.848374
580 0.89355
585 0.827089
590 0.697372
595 0.669194
600 1.02038
Ex : 543
200 0.342409
205 0.466398
210 0.387544
215 0.46448
220 0.398081
225 0.395104
230 0.350302
235 0.46421
240 0.344143
245 0.351902
250 0.372291
255 0.469948
260 0.335898
265 0.334658
270 0.393492
275 0.392916
280 0.410014
285 0.286333
290 0.309305
295 0.372756
300 0.358393
305 0.364455
310 0.396468
315 0.389092
320 0.449169
325 0.456409
330 0.39691
335 0.40181
340 0.292308
345 0.295393
350 0.394503
355 0.403148
360 0.477677
365 0.349845
370 0.390552
375 0.373804
380 0.445229
385 0.371887
390 0.347389
395 0.388259
400 0.365937
405 0.327855
410 0.399513
415 0.334079
420 0.304369
425 0.407463
430 0.397503
435 0.352637
440 0.478647
445 0.422683
450 0.478238
455 0.471603
460 0.358211
465 0.37956
470 0.446295
475 0.328656
480 0.420152
485 0.476259
490 0.451039
495 0.452139
500 0.570968
505 0.588122
510 0.537561
515 0.575551
520 0.643931
525 0.930583
530 13.7972
535 255.486
540 428.349
545 117.294
550 14.9937
555 2.79233
560 1.32359
565 1.20564
570 0.926624
575 0.858662
580 0.801538
585 0.887509
590 0.779674
595 0.729857
600 0.866589
Ex : 548
200 0.343339
205 0.479312
210 0.4604
215 0.419952
220 0.430158
225 0.426816
230 0.309558
235 0.402645
240 0.517264
245 0.306359
250 0.481285
255 0.346627
260 0.480166
265 0.509467
270 0.414152
275 0.422682
280 0.465254
285 0.368924
290 0.379457
295 0.381164
300 0.357779
305 0.443039
310 0.389438
315 0.381406
320 0.348829
325 0.47408
330 0.319985
335 0.479448
340 0.411135
345 0.347738
350 0.419165
355 0.371278
360 0.477524
365 0.460323
370 0.412199
375 0.415363
380 0.460168
385 0.485221
390 0.464437
395 0.383044
400 0.489958
405 0.54815
410 0.440909
415 0.548997
420 0.485392
425 0.525208
430 0.429252
435 0.489626
440 0.42588
445 0.548642
450 0.450222
455 0.373405
460 0.36363
465 0.39485
470 0.402746
475 0.448964
480 0.568252
485 0.54233
490 0.479751
495 0.561564
500 0.406676
505 0.498813
510 0.636732
515 0.467808
520 0.556681
525 0.623921
530 0.898783
535 14.7322
540 259.468
545 406.227
550 113.467
555 13.9987
560 2.56974
565 1.20503
570 1.25346
575 0.693576
580 0.761122
585 0.715133
590 0.766493
595 0.768135
600 0.176031
Ex : 553
200 0.432934
205 0.367102
210 0.431027
215 0.410612
220 0.46689
225 0.538141
230 0.429094
235 0.490565
240 0.437371
245 0.400357
250 0.491067
255 0.389611
260 0.432931
265 0.423107
270 0.361614
275 0.49515
280 0.412802
285 0.486599
290 0.274831
295 0.493959
300 0.433094
305 0.393881
310 0.493324
315 0.480952
320 0.402043
325 0.346493
330 0.56403
335 0.499357
340 0.42706
345 0.403244
350 0.343161
355 0.425071
360 0.387335
365 0.40144
370 0.41158
375 0.455252
380 0.437428
385 0.408065
390 0.461471
395 0.428993
400 0.450276
405 0.476502
410 0.468662
415 0.416631
420 0.410775
425 0.372535
430 0.367912
435 0.513237
440 0.36896
445 0.541368
450 0.457137
455 0.508633
460 0.459343
465 0.450761
470 0.51334
475 0.55645
480 0.513239
485 0.419906
490 0.534415
495 0.500297
500 0.395573
505 0.451226
510 0.50395
515 0.627197
520 0.545861
525 0.625965
530 0.793037
535 0.954245
540 12.7005
545 244.627
550 413.74
555 117.909
560 14.6932
565 2.56056
570 0.971344
575 0.823865
580 0.851325
585 0.746705
590 0.68328
595 0.640111
600 0.860579
Ex : 558
200 0.562097
205 0.497859
210 0.368483
215 0.420343
220 0.36087
225 0.438534
230 0.36694
235 0.485991
240 0.422571
245 0.494802
250 0.533809
255 0.540193
260 0.372852
265 0.434665
270 0.505448
275 0.380069
280 0.441936
285 0.403123
290 0.355459
295 0.387986
300 0.427578
305 0.394606
310 0.397888
315 0.359969
320 0.404716
325 0.522252
330 0.617494
335 0.41665
340 0.506269
345 0.465029
350 0.404656
355 0.586262
360 0.5492
365 0.64755
370 0.390261
375 0.422853
380 0.483994
385 0.498956
390 0.488871
395 0.489116
400 0.426411
405 0.500464
410 0.408765
415 0.527905
420 0.443059
425 0.439082
430 0.499872
435 0.534702
440 0.580316
445 0.564652
450 0.57163
455 0.430173
460 0.447477
465 0.525846
470 0.540535
475 0.490759
480 0.500648
485 0.416534
490 0.494689
495 0.49762
500 0.443414
505 0.430059
510 0.430697
515 0.523417
520 0.66482
525 0.513648
530 0.750288
535 0.847365
540 0.951218
545 12.5602
550 232.757
555 397.057
560 113.668
565 14.3143
570 2.49382
575 1.11918
580 0.84182
585 0.814834
590 0.69011
595 0.597134
600 0.519915
Ex : 563
200 0.409166
205 0.445222
210 0.453776
215 0.530103
220 0.450458
225 0.486711
230 0.532721
235 0.375667
240 0.386765
245 0.449683
250 0.412888
255 0.440984
260 0.487273
265 0.368845
270 0.525211
275 0.457481
280 0.453731
285 0.411443
290 0.422532
295 0.415224
300 0.445722
305 0.560991
310 0.370072
315 0.525603
320 0.425219
325 0.555397
330 0.536568
335 0.531479
340 0.468702
345 0.491473
350 0.393557
355 0.417389
360 0.422283
365 0.432909
370 0.59305
375 0.441246
380 0.339819
385 0.437352
390 0.526188
395 0.420428
400 0.609948
405 0.463929
410 0.499629
415 0.546326
420 0.424508
425 0.557166
430 0.400498
435 0.483653
440 0.533453
445 0.527723
450 0.457509
455 0.430217
460 0.485121
465 0.538921
470 0.71386
475 0.654531
480 0.525865
485 0.45775
490 0.577215
495 0.575325
500 0.490894
505 0.482239
510 0.658419
515 0.609989
520 0.545035
525 0.547803
530 0.444053
535 0.641481
540 0.644961
545 1.0986
550 12.5372
555 228.262
560 384.091
565 111.403
570 13.9221
575 2.45431
580 1.06693
585 0.794758
590 0.841545
595 0.680038
600 0.169062
Ex : 568
200 0.414107
205 0.558848
210 0.385098
215 0.553726
220 0.483578
225 0.365397
230 0.471784
235 0.500107
240 0.39431
245 0.492726
250 0.423242
255 0.395677
260 0.543902
265 0.427158
270 0.466018
275 0.549251
280 0.437511
285 0.481869
290 0.401636
295 0.551956
300 0.512334
305 0.506098
310 0.477373
315 0.537517
320 0.455775
325 0.366408
330 0.433592
335 0.476914
340 0.425832
345 0.501013
350 0.64393
355 0.478592
360 0.433508
365 0.586512
370 0.415991
375 0.457436
380 0.492754
385 0.50008
390 0.614519
395 0.461477
400 0.418341
405 0.442428
410 0.47916
415 0.545639
420 0.589081
425 0.530343
430 0.386551
435 0.443387
440 0.392918
445 0.454138
450 0.455446
455 0.508376
460 0.50465
465 0.561279
470 0.494054
475 0.522111
480 0.395888
485 0.605664
490 0.501132
495 0.511603
500 0.493669
505 0.46612
510 0.470177
515 0.470426
520 0.515319
525 0.548207
530 0.637333
535 0.664733
540 0.707327
545 0.662505
550 0.915642
555 9.53103
560 208.934
565 381.524
570 114.839
575 14.36
580 2.33634
585 1.00925
590 0.880336
595 0.700788
600 0.364598
Ex : 573
200 0.478705
205 0.487547
210 0.478863
215 0.453834
220 0.600011
225 0.528125
230 0.303499
235 0.495114
240 0.574702
245 0.426785
250 0.500588
255 0.431312
260 0.482901
265 0.554934
270 0.438345
275 0.46542
280 0.523648
285 0.477937
290 0.475315
295 0.329931
300 0.390635
305 0.440171
310 0.460838
315 0.410296
320 0.384462
325 0.55381
330 0.567181
335 0.517579
340 0.536982
345 0.476068
350 0.346381
355 0.395698
360 0.530861
365 0.565704
370 0.484938
375 0.575173
380 0.664528
385 0.54937
390 0.459898
395 0.550378
400 0.518189
405 0.49394
410 0.498074
415 0.465541
420 0.440817
425 0.364108
430 0.519641
435 0.513322
440 0.479198
445 0.535905
450 0.538947
455 0.503654
460 0.430836
465 0.565902
470 0.546699
475 0.449646
480 0.367147
485 0.422695
490 0.597296
495 0.415407
500 0.568741
505 0.558469
510 0.524899
515 0.513311
520 0.492133
525 0.527129
530 0.583993
535 0.540125
540 0.639477
545 0.765643
550 0.626421
555 0.830622
560 7.69375
565 181.313
570 346.896
575 107.756
580 13.7127
585 2.32639
590 0.917382
595 0.872562
600 0.735049
Ex : 578
200 0.473987
205 0.543215
210 0.494932
215 0.564305
220 0.502265
225 0.645555
230 0.542251
235 0.469989
240 0.593699
245 0.452536
250 0.58216
255 0.452336
260 0.437719
265 0.418929
270 0.412079
275 0.479541
280 0.37815
285 0.430088
290 0.459959
295 0.439764
300 0.459492
305 0.448385
310 0.496763
315 0.476294
320 0.542707
325 0.452338
330 0.493046
335 0.410845
340 0.45769
345 0.382314
350 0.409256
355 0.407874
360 0.397525
365 0.552989
370 0.580081
375 0.593525
380 0.549303
385 0.531891
390 0.532325
395 0.578709
400 0.460079
405 0.492966
410 0.626007
415 0.501771
420 0.341586
425 0.55393
430 0.469078
435 0.605477
440 0.537879
445 0.502772
450 0.557082
455 0.650977
460 0.606187
465 0.599102
470 0.426701
475 0.519038
480 0.52858
485 0.460517
490 0.502329
495 0.48809
500 0.53086
505 0.386804
510 0.572426
515 0.683347
520 0.504453
525 0.554325
530 0.56479
535 0.538388
540 0.498578
545 0.568946
550 0.795021
555 0.708785
560 0.752828
565 7.26123
570 166.29
575 315.228
580 95.672
585 12.0456
590 1.99202
595 0.864687
600 1.13343
Ex : 583
200 0.429728
205 0.434703
210 0.547505
215 0.519388
220 0.501464
225 0.458839
230 0.375433
235 0.526137
240 0.501984
245 0.534995
250 0.616833
255 0.478639
260 0.430769
265 0.377983
270 0.394144
275 0.752561
280 0.545372
285 0.589374
290 0.459716
295 0.43891
300 0.341614
305 0.561839
310 0.534602
315 0.507776
320 0.580102
325 0.377957
330 0.416698
335 0.486223
340 0.492746
345 0.615571
350 0.507219
355 0.474825
360 0.492921
365 0.490765
370 0.456591
375 0.503461
380 0.526061
385 0.456523
390 0.458698
395 0.564524
400 0.626716
405 0.555182
410 0.422414
415 0.622534
420 0.477246
425 0.581894
430 0.501606
435 0.387474
440 0.563129
445 0.550375
450 0.468835
455 0.449333
460 0.372922
465 0.474768
470 0.477613
475 0.495799
480 0.445393
485 0.573203
490 0.487159
495 0.509977
500 0.411489
505 0.603322
510 0.573272
515 0.558755
520 0.630279
525 0.584771
530 0.483601
535 0.605384
540 0.577387
545 0.525982
550 0.623472
555 0.675571
560 0.703955
565 0.804537
570 6.62835
575 147.793
580 274.09
585 77.2226
590 9.86164
595 1.76592
600 3.67279
Ex : 588
200 0.479833
205 0.344658
210 0.572944
215 0.585837
220 0.496908
225 0.584716
230 0.389075
235 0.49272
240 0.671139
245 0.471095
250 0.512014
255 0.421766
260 0.520388
265 0.480548
270 0.447436
275 0.480818
280 0.452704
285 0.513765
290 0.416322
295 0.483979
300 0.441046
305 0.414261
310 0.568267
315 0.382369
320 0.504072
325 0.382986
330 0.495713
335 0.447643
340 0.443902
345 0.469759
350 0.431557
355 0.579875
360 0.560418
365 0.52449
370 0.516581
375 0.536718
380 0.494377
385 0.54367
390 0.444608
395 0.405213
400 0.37769
405 0.4491
410 0.499823
415 0.650004
420 0.610046
425 0.40115
430 0.697502
435 0.509825
440 0.610211
445 0.627483
450 0.550886
455 0.594616
460 0.498796
465 0.590451
470 0.616126
475 0.675129
480 0.582254
485 0.59969
490 0.648929
495 0.492089
500 0.552648
505 0.440442
510 0.558548
515 0.48587
520 0.473189
525 0.46352
530 0.655981
535 0.599275
540 0.576954
545 0.710742
550 0.539864
555 0.594311
560 0.559928
565 0.556756
570 0.709875
575 5.74312
580 122.252
585 232.2
590 67.454
595 8.70652
600 2.07871
Ex : 593
200 0.474546
205 0.393006
210 0.440637
215 0.389566
220 0.5716
225 0.496567
230 0.459115
235 0.470398
240 0.453935
245 0.492098
250 0.32854
255 0.560971
260 0.557833
265 0.43471
270 0.551372
275 0.548904
280 0.430251
285 0.614752
290 0.423547
295 0.573389
300 0.529714
305 0.405083
310 0.484565
315 0.498955
320 0.40271
325 0.475048
330 0.426307
335 0.525876
340 0.530633
345 0.455298
350 0.490183
355 0.472334
360 0.57423
365 0.532535
370 0.664927
375 0.473898
380 0.504461
385 0.552961
390 0.563213
395 0.577185
400 0.718627
405 0.58647
410 0.518046
415 0.573539
420 0.500985
425 0.520508
430 0.552406
435 0.632336
440 0.496344
445 0.475017
450 0.523159
455 0.433264
460 0.480122
465 0.35893
470 0.437361
475 0.461177
480 0.707081
485 0.545421
490 0.479605
495 0.487959
500 0.77548
505 0.594776
510 0.570451
515 0.50284
520 0.499259
525 0.447812
530 0.635641
535 0.699652
540 0.628441
545 0.642132
550 0.614011
555 0.52786
560 0.546892
565 0.66411
570 0.777888
575 0.760432
580 4.85683
585 106.792
590 202.196
595 60.7561
600 9.14794
Ex : 598
200 0.520755
205 0.486454
210 0.575016
215 0.591753
220 0.620372
225 0.57537
230 0.616744
235 0.476072
240 0.584923
245 0.592605
250 0.455896
255 0.572103
260 0.679902
265 0.581253
270 0.484713
275 0.460621
280 0.666216
285 0.382826
290 0.488252
295 0.506361
300 0.547174
305 0.51353
310 0.482712
315 0.702412
320 0.65433
325 0.55387
330 0.501139
335 0.455558
340 0.535564
345 0.459268
350 0.480473
355 0.452346
360 0.485193
365 0.892567
370 0.40786
375 0.607894
380 0.556541
385 0.430637
390 0.462007
395 0.713169
400 0.58242
405 0.533402
410 0.488142
415 0.547119
420 0.579866
425 0.525818
430 0.563233
435 0.424954
440 0.543005
445 0.61408
450 0.672386
455 0.430548
460 0.556406
465 0.680957
470 0.632277
475 0.642559
480 0.577975
485 0.505048
490 0.682633
495 0.703401
500 0.596498
505 0.608557
510 0.44445
515 0.66271
520 0.717856
525 0.490749
530 0.539298
535 0.496083
540 0.48659
545 0.636844
550 0.605054
555 0.544104
560 0.662682
565 0.633697
570 0.60432
575 0.789708
580 1.02754
585 4.58378
590 95.5758
595 174.964
600 109.665
Ex : 603
200 0.492596
205 0.516764
210 0.479294
215 0.505171
220 0.377858
225 0.556043
230 0.674125
235 0.574534
240 0.495576
245 0.435215
250 0.595003
255 0.444174
260 0.631897
265 0.55368
270 0.608709
275 0.721654
280 0.453837
285 0.513442
290 0.539336
295 0.451328
300 0.537165
305 0.670845
310 0.462292
315 0.433521
320 0.581682
325 0.550845
330 0.464446
335 0.545296
340 0.529885
345 0.416074
350 0.465409
355 0.626388
360 0.447536
365 0.514148
370 0.609355
375 0.548408
380 0.550072
385 0.701908
390 0.415391
395 0.488609
400 0.598355
405 0.538966
410 0.5461
415 0.481073
420 0.61029
425 0.639698
430 0.73725
435 0.577697
440 0.593209
445 0.711412
450 0.509972
455 0.495434
460 0.698524
465 0.440283
470 0.513287
475 0.571239
480 0.908236
485 0.622967
490 0.672468
495 0.485436
500 0.464093
505 0.57048
510 0.453711
515 0.488778
520 0.462885
525 0.49911
530 0.773739
535 0.559908
540 0.57185
545 0.590102
550 0.693788
555 0.58674
560 0.657115
565 0.655581
570 0.681741
575 0.679507
580 0.662695
585 0.724813
590 4.37927
595 84.7772
600 164.66
