File format V 1.0
sam. 10. déc. 00:24:30 2016
Operator : 
Comments : 

=============================================
SpectroFluorometer parameters
Mode : 3D measurement
Data : Fluorescence
Phospho. : Ordinary
Spectrum : Fluorescence

Scan speed : 2400 nm/mn
Response : 100 ms
PM Voltage : 700 V
Shutter : On

Lambda Ex. Start : 203
Lambda Ex. End : 603
Lambda Ex. Step : 5
Ex. Slit : 5 nm

Lambda Em. Start : 200
Lambda Em. End : 600
Lambda Em. Step : 5
Em. Slit : 5 nm

Repetition : 1
Decal lambda em : 10
=============================================
DATA
Ex : 203
200 20.6446
205 17.1362
210 13.7139
215 13.613
220 12.3039
225 12.7919
230 10.4521
235 13.1892
240 19.304
245 12.8213
250 15.5475
255 13.2184
260 14.598
265 16.0726
270 12.272
275 14.5646
280 12.7298
285 15.3584
290 19.0675
295 12.4905
300 15.2606
305 17.3791
310 12.4349
315 12.5356
320 13.2495
325 12.7609
330 14.2485
335 15.9703
340 10.4684
345 18.3152
350 15.5241
355 14.4133
360 15.974
365 17.2654
370 11.2935
375 16.9191
380 15.5437
385 20.2288
390 11.0124
395 18.4565
400 13.6365
405 17.4481
410 15.9535
415 13.4657
420 13.6112
425 12.5521
430 12.3797
435 13.2698
440 13.6723
445 19.0639
450 12.7433
455 13.4887
460 18.574
465 18.6818
470 16.1778
475 14.6342
480 15.431
485 12.8947
490 16.7684
495 13.3819
500 16.464
505 15.0724
510 14.7826
515 15.7925
520 12.0887
525 10.7606
530 14.813
535 23.483
540 17.8163
545 12.1177
550 17.0575
555 14.8397
560 12.2958
565 14.747
570 15.0931
575 15.7113
580 17.5476
585 14.7126
590 13.069
595 18.7821
600 2.43273
Ex : 208
200 18.0618
205 12.2668
210 16.5973
215 12.2785
220 11.2477
225 10.5283
230 12.326
235 14.2086
240 12.5892
245 15.6792
250 16.4382
255 12.3498
260 14.3522
265 14.5981
270 10.5773
275 15.1813
280 16.8143
285 14.2095
290 16.5933
295 13.6791
300 15.0419
305 13.1528
310 19.4815
315 18.65
320 16.3225
325 15.3299
330 17.8559
335 13.8327
340 16.0897
345 12.683
350 17.3949
355 13.0497
360 17.4482
365 16.5041
370 15.4767
375 13.397
380 19.759
385 11.7195
390 16.8857
395 13.1675
400 15.1948
405 16.6353
410 15.272
415 13.5888
420 13.7106
425 13.0586
430 14.0247
435 12.5671
440 14.3393
445 15.8996
450 15.3264
455 14.9615
460 10.6384
465 15.3345
470 15.0911
475 19.7717
480 17.1392
485 19.3358
490 16.6786
495 18.3575
500 15.5209
505 13.2764
510 13.7341
515 20.7497
520 17.9892
525 15.5926
530 15.9099
535 20.0079
540 14.1212
545 16.8079
550 15.2114
555 16.7754
560 16.7662
565 15.0369
570 12.7489
575 16.7497
580 15.7055
585 16.0028
590 13.4175
595 9.97671
600 8.81574
Ex : 213
200 11.3256
205 12.6575
210 9.83894
215 11.4798
220 11.8584
225 16.1862
230 18.1637
235 13.7821
240 15.3369
245 12.2269
250 15.0873
255 16.1822
260 18.1171
265 16.9438
270 12.1331
275 13.92
280 14.2149
285 13.6468
290 12.2564
295 14.5581
300 15.8981
305 10.8902
310 14.9497
315 18.3824
320 18.4921
325 12.2309
330 14.2232
335 17.4057
340 13.8486
345 13.5572
350 12.9263
355 18.7413
360 15.8771
365 13.2415
370 17.2134
375 18.016
380 13.1873
385 15.3896
390 11.3751
395 15.8162
400 16.0341
405 16.3257
410 15.5491
415 16.7592
420 17.7441
425 14.2303
430 13.6323
435 13.1921
440 10.9667
445 10.5078
450 15.4009
455 16.666
460 16.5602
465 16.1201
470 17.4615
475 16.6711
480 12.6704
485 13.3262
490 14.1151
495 15.3043
500 12.5499
505 14.6862
510 11.1764
515 10.1739
520 11.6967
525 12.7711
530 15.1616
535 13.3635
540 15.2363
545 16.8456
550 19.1552
555 12.2795
560 17.1351
565 12.7584
570 14.6951
575 17.9827
580 17.1118
585 12.9537
590 13.2821
595 16.3812
600 1.86412
Ex : 218
200 14.2
205 12.4757
210 13.8017
215 13.0325
220 14.612
225 11.7129
230 15.8645
235 14.7135
240 13.1352
245 12.247
250 14.2259
255 12.7043
260 13.7425
265 13.5854
270 15.9285
275 13.5803
280 13.782
285 13.4745
290 12.1785
295 14.5286
300 10.194
305 12.2793
310 15.1809
315 10.509
320 11.3325
325 10.5869
330 16.2754
335 14.4092
340 14.0519
345 16.4535
350 18.9936
355 21.1149
360 15.1034
365 16.1786
370 11.6124
375 20.0225
380 19.436
385 18.6092
390 16.0068
395 16.4387
400 13.5665
405 17.9977
410 15.8573
415 17.6971
420 16.425
425 11.0364
430 11.1917
435 13.7495
440 17.1479
445 14.5428
450 12.858
455 18.0821
460 13.7747
465 13.307
470 12.328
475 18.3133
480 13.3607
485 13.4385
490 14.0872
495 13.1292
500 11.3274
505 16.1928
510 11.9476
515 14.9233
520 16.7786
525 16.2326
530 13.051
535 12.9838
540 17.3833
545 17.7565
550 15.0115
555 13.2975
560 12.6116
565 14.8376
570 15.1553
575 12.4871
580 15.8402
585 13.9049
590 14.1941
595 14.9403
600 94.3084
Ex : 223
200 17.0115
205 11.2434
210 14.1136
215 15.6765
220 14.1908
225 13.5618
230 14.5409
235 13.1962
240 12.1504
245 11.1999
250 12.8285
255 11.7607
260 19.4813
265 13.7676
270 13.3101
275 17.6189
280 13.7694
285 12.7565
290 14.8521
295 13.0315
300 14.4372
305 12.9544
310 18.3694
315 13.1988
320 10.0311
325 13.7513
330 16.2364
335 15.1547
340 10.4245
345 11.8452
350 13.9571
355 14.9766
360 13.931
365 14.2604
370 13.014
375 12.4334
380 11.3257
385 18.9686
390 12.3727
395 14.0438
400 12.4994
405 14.6016
410 15.4535
415 15.1267
420 11.8601
425 13.6221
430 12.7499
435 12.285
440 14.1052
445 12.891
450 15.4709
455 12.0781
460 14.2219
465 14.3614
470 13.5471
475 12.5169
480 20.805
485 11.769
490 16.2205
495 13.7557
500 11.687
505 15.1425
510 15.696
515 14.9784
520 15.7593
525 15.1189
530 14.9687
535 12.9141
540 15.9661
545 15.8229
550 13.7643
555 13.4555
560 14.8591
565 14.1467
570 13.1906
575 17.1064
580 15.3258
585 17.0516
590 10.938
595 12.6212
600 1.43625
Ex : 228
200 13.2438
205 11.2645
210 11.9433
215 14.1701
220 9.53436
225 14.4676
230 12.8135
235 11.2678
240 13.8796
245 11.784
250 9.27112
255 12.6316
260 10.4401
265 14.747
270 14.2835
275 13.5674
280 12.6541
285 13.0502
290 11.3818
295 11.8618
300 12.055
305 13.451
310 14.2939
315 13.5856
320 11.4284
325 13.2024
330 12.9893
335 14.2789
340 13.8564
345 15.1408
350 13.471
355 12.4941
360 11.4563
365 14.0842
370 15.689
375 9.79267
380 12.6155
385 12.3379
390 12.6592
395 16.6494
400 13.3391
405 15.8317
410 10.6162
415 10.6028
420 14.1769
425 12.8943
430 14.1867
435 13.2576
440 11.4554
445 13.1981
450 13.7955
455 11.3756
460 19.3815
465 12.3598
470 13.5669
475 12.7708
480 13.449
485 13.8756
490 15.133
495 13.7306
500 11.7421
505 13.8317
510 13.309
515 14.883
520 15.0857
525 13.4589
530 13.1242
535 14.0567
540 15.7929
545 15.7088
550 16.2887
555 12.8309
560 12.4879
565 13.3761
570 13.0623
575 12.5567
580 13.6007
585 13.37
590 10.7666
595 10.3088
600 17.6565
Ex : 233
200 11.3088
205 10.1446
210 11.0496
215 11.0311
220 11.662
225 10.2185
230 9.80332
235 9.04941
240 10.5092
245 10.6097
250 11.0833
255 9.35773
260 12.9751
265 11.0939
270 7.58376
275 12.3752
280 10.3358
285 10.7647
290 12.2588
295 10.7831
300 12.522
305 10.1669
310 15.4153
315 16.7159
320 12.8825
325 13.1114
330 11.0121
335 10.853
340 11.094
345 11.3868
350 12.0757
355 12.7471
360 12.6389
365 13.2515
370 12.3681
375 15.2517
380 14.7411
385 13.2923
390 11.2695
395 11.3071
400 10.8819
405 16.8415
410 15.719
415 11.5203
420 13.6519
425 11.4674
430 12.3784
435 13.1065
440 10.9193
445 13.1955
450 17.5671
455 14.8387
460 14.9041
465 11.7481
470 16.3617
475 12.785
480 10.4675
485 10.6797
490 13.0616
495 12.1925
500 11.1993
505 9.51869
510 10.844
515 12.7131
520 10.6531
525 11.6521
530 10.5298
535 9.93963
540 9.54361
545 11.404
550 11.9526
555 10.9091
560 14.7779
565 12.7448
570 15.3663
575 10.5545
580 9.56237
585 9.38268
590 11.3841
595 12.5397
600 1.42697
Ex : 238
200 7.65613
205 9.26566
210 8.826
215 9.34849
220 9.13984
225 11.029
230 9.53843
235 8.88758
240 13.0379
245 10.851
250 8.40705
255 11.2678
260 10.3763
265 12.4918
270 8.7085
275 9.71641
280 6.69478
285 9.57804
290 7.13486
295 10.2445
300 10.6575
305 11.4167
310 10.6005
315 10.755
320 10.301
325 9.54609
330 8.04436
335 9.86571
340 9.68562
345 10.1801
350 10.424
355 10.8339
360 12.0176
365 13.0952
370 11.2273
375 10.4724
380 7.94727
385 7.72189
390 7.61614
395 9.50907
400 13.8797
405 9.68507
410 10.0202
415 10.0253
420 8.6607
425 10.4073
430 9.79639
435 9.12054
440 9.57043
445 12.1897
450 9.60958
455 10.9427
460 12.155
465 7.20574
470 10.0651
475 12.4641
480 10.4591
485 8.77464
490 11.2365
495 7.07078
500 7.94266
505 9.25203
510 10.5341
515 9.37023
520 9.59601
525 8.77765
530 10.1711
535 9.55402
540 8.26812
545 10.1163
550 6.53743
555 10.6958
560 9.49212
565 8.57658
570 11.3491
575 10.6678
580 9.14917
585 11.2768
590 9.74213
595 11.0982
600 10.758
Ex : 243
200 10.2257
205 10.1784
210 8.56106
215 9.45012
220 8.88445
225 10.9147
230 8.69984
235 10.7784
240 10.1616
245 9.80583
250 8.77682
255 8.24779
260 8.76277
265 7.79031
270 7.53784
275 8.67158
280 8.85271
285 9.1402
290 10.021
295 8.47079
300 8.75742
305 8.71638
310 8.4334
315 8.09091
320 10.163
325 9.41238
330 7.25841
335 11.4942
340 9.20942
345 10.3279
350 7.60265
355 11.795
360 12.3854
365 8.38988
370 10.1111
375 8.6865
380 9.58604
385 9.83385
390 11.263
395 13.1021
400 7.40431
405 8.12586
410 9.05245
415 11.2265
420 8.92968
425 9.84855
430 9.71592
435 7.63312
440 8.1407
445 9.30233
450 8.23291
455 8.10528
460 7.12928
465 8.86374
470 8.21796
475 8.35916
480 9.87428
485 7.87725
490 9.25694
495 7.77852
500 7.78721
505 8.26469
510 10.1618
515 8.95889
520 8.26667
525 7.66752
530 8.31993
535 10.9141
540 11.0003
545 6.99908
550 9.32247
555 10.5018
560 7.92687
565 9.56452
570 11.1653
575 10.1764
580 7.6805
585 8.08655
590 8.00323
595 9.90126
600 1.12673
Ex : 248
200 5.92219
205 5.63173
210 5.80349
215 10.0514
220 5.32163
225 7.74608
230 7.58271
235 7.07725
240 6.68751
245 9.2713
250 6.19174
255 7.03543
260 7.13655
265 7.33556
270 5.64007
275 6.06581
280 8.02209
285 8.54157
290 7.92064
295 5.75826
300 6.75364
305 7.18928
310 6.14889
315 6.90315
320 7.67278
325 11.6675
330 8.38965
335 6.41783
340 7.33485
345 8.81326
350 6.22627
355 7.29726
360 9.74522
365 8.60311
370 8.11173
375 6.90566
380 7.07111
385 7.18041
390 7.23481
395 8.18498
400 6.71478
405 8.74823
410 6.78501
415 10.9175
420 8.2287
425 9.51802
430 8.2487
435 7.72748
440 11.023
445 8.61941
450 8.08742
455 8.90476
460 8.95039
465 8.01359
470 7.70614
475 10.1917
480 7.28958
485 7.6486
490 8.93964
495 7.15839
500 5.54102
505 5.60797
510 6.67628
515 9.5521
520 6.49416
525 5.80228
530 6.91418
535 6.01089
540 7.30119
545 7.07674
550 9.33398
555 6.74478
560 9.4317
565 6.26116
570 5.99224
575 7.45
580 9.86637
585 7.99084
590 6.3809
595 6.2649
600 7.70408
Ex : 253
200 4.96602
205 6.26054
210 7.1374
215 5.47517
220 5.62567
225 5.08648
230 6.55841
235 5.42798
240 7.837
245 4.50825
250 6.57131
255 5.92222
260 4.9192
265 4.37539
270 6.17609
275 6.30827
280 4.34243
285 5.04434
290 5.11933
295 4.59577
300 5.23537
305 6.50964
310 5.38957
315 6.55304
320 6.05416
325 6.55048
330 6.77385
335 6.49842
340 7.03482
345 5.89951
350 4.81217
355 4.92173
360 9.69975
365 6.03964
370 6.9508
375 5.58108
380 5.36739
385 4.71415
390 5.85811
395 7.51767
400 5.52096
405 7.43983
410 5.78027
415 6.01018
420 6.39756
425 5.81144
430 10.2386
435 6.5129
440 5.83901
445 6.94262
450 5.62287
455 5.28006
460 5.96743
465 7.91713
470 6.80225
475 6.71775
480 5.78773
485 5.98715
490 6.68683
495 7.4533
500 7.26374
505 6.86121
510 6.17998
515 6.25757
520 8.85835
525 10.1455
530 5.26308
535 6.63518
540 8.63073
545 8.74414
550 5.84504
555 5.47596
560 6.77118
565 6.23083
570 6.63322
575 6.88909
580 6.22022
585 6.06484
590 6.15808
595 5.78979
600 3.71134
Ex : 258
200 5.26901
205 4.0246
210 3.92793
215 3.37628
220 5.87659
225 3.78002
230 4.22035
235 3.33085
240 5.52664
245 4.33675
250 4.25289
255 5.8931
260 4.22236
265 3.89846
270 4.56716
275 4.23797
280 5.42285
285 4.45616
290 4.43722
295 4.15589
300 4.60682
305 4.24113
310 5.3204
315 4.04903
320 4.83596
325 5.09984
330 4.41997
335 5.20259
340 6.10835
345 5.5813
350 5.53787
355 4.61475
360 5.1234
365 5.11363
370 5.04057
375 5.13418
380 4.52709
385 5.98978
390 6.49722
395 4.61714
400 5.76542
405 8.10088
410 4.69553
415 4.53501
420 5.42812
425 5.78634
430 4.52968
435 4.52752
440 4.15719
445 5.1535
450 6.09715
455 6.30231
460 4.89475
465 4.50044
470 4.97993
475 5.81916
480 4.98784
485 3.60254
490 4.8375
495 5.5811
500 5.7044
505 5.95427
510 5.41086
515 5.13778
520 4.41694
525 4.12301
530 4.97035
535 3.99498
540 5.20964
545 4.93838
550 5.11415
555 2.78031
560 4.66367
565 5.15353
570 4.6404
575 4.57581
580 3.65431
585 4.5399
590 5.31376
595 4.69761
600 8.91322
Ex : 263
200 2.96608
205 3.63552
210 3.26014
215 3.02434
220 2.60564
225 3.54681
230 2.77217
235 3.82906
240 4.53962
245 3.53531
250 4.82012
255 3.94787
260 3.10251
265 3.36427
270 3.15356
275 3.21456
280 3.15007
285 3.08918
290 3.77551
295 4.00728
300 3.5763
305 3.22017
310 4.4467
315 3.73782
320 4.09071
325 3.22713
330 3.84538
335 4.28089
340 3.70246
345 3.83011
350 4.44048
355 4.29303
360 3.53257
365 3.7421
370 4.4064
375 3.35742
380 4.34415
385 5.30121
390 3.51111
395 3.73505
400 3.67844
405 4.11707
410 4.13953
415 4.65707
420 4.97295
425 4.55657
430 4.73841
435 3.2306
440 3.64394
445 4.24103
450 4.74198
455 4.06143
460 4.18055
465 3.52239
470 3.43231
475 3.91911
480 4.63433
485 2.96409
490 4.16592
495 3.45445
500 3.6851
505 4.27468
510 4.37664
515 3.21204
520 4.92773
525 4.26854
530 4.04409
535 3.1989
540 4.41026
545 2.57682
550 3.11321
555 3.88954
560 4.94592
565 3.41555
570 3.91698
575 2.99239
580 3.92598
585 3.58349
590 3.79729
595 4.00033
600 6.82481
Ex : 268
200 3.17265
205 2.58918
210 2.46958
215 3.52873
220 2.46308
225 2.41656
230 2.84811
235 2.87377
240 2.48223
245 2.4913
250 2.64291
255 2.55995
260 3.32067
265 2.85398
270 2.75297
275 3.18329
280 2.91334
285 2.71378
290 3.09689
295 2.84115
300 2.9935
305 3.98004
310 2.3615
315 2.84622
320 2.64078
325 3.33834
330 3.31102
335 2.86004
340 3.39777
345 3.61369
350 3.61374
355 3.25482
360 4.66098
365 2.97496
370 3.0003
375 2.66875
380 3.66686
385 3.93902
390 3.57455
395 3.58834
400 2.51894
405 3.96976
410 3.46484
415 2.44097
420 3.43047
425 3.23986
430 2.994
435 3.11712
440 2.87905
445 2.84042
450 2.4685
455 2.94367
460 3.05213
465 3.979
470 4.06444
475 3.52441
480 2.44493
485 2.66456
490 2.60358
495 2.5561
500 2.45865
505 3.41
510 3.18419
515 2.71363
520 3.17654
525 3.06756
530 3.71563
535 3.41285
540 3.51073
545 2.13374
550 3.04912
555 2.46561
560 2.48842
565 2.84617
570 3.18917
575 2.6631
580 3.06427
585 2.6672
590 3.0729
595 2.25315
600 3.96234
Ex : 273
200 1.90332
205 2.25645
210 2.34562
215 2.72624
220 2.00361
225 2.11306
230 2.41331
235 3.06642
240 1.98626
245 2.17668
250 2.29725
255 2.76028
260 2.3614
265 2.09592
270 2.71126
275 1.99424
280 3.04368
285 1.99743
290 2.60088
295 1.93721
300 2.47768
305 1.84623
310 2.55441
315 2.24842
320 2.21223
325 2.30188
330 2.18289
335 2.33816
340 2.55283
345 2.19289
350 2.79875
355 2.49103
360 2.56806
365 2.7242
370 2.64396
375 2.65337
380 2.95805
385 2.78937
390 2.77074
395 2.98972
400 2.57298
405 2.91416
410 3.08321
415 3.19002
420 3.44053
425 2.64124
430 2.58866
435 2.07968
440 2.46176
445 2.53171
450 2.40772
455 2.71612
460 1.92422
465 1.95121
470 2.59396
475 3.02519
480 2.69517
485 2.22367
490 2.95198
495 2.42723
500 2.62313
505 1.81615
510 2.65537
515 2.46902
520 2.53881
525 1.89981
530 2.31239
535 2.3806
540 2.98612
545 2.74132
550 2.0752
555 2.44622
560 2.57547
565 2.17891
570 2.5153
575 1.99564
580 2.53173
585 3.08588
590 1.84243
595 2.28083
600 2.49278
Ex : 278
200 1.78026
205 2.16323
210 1.99801
215 1.97782
220 2.12142
225 1.89801
230 1.53001
235 1.52786
240 1.93597
245 2.12285
250 1.72523
255 1.32193
260 1.90127
265 1.74337
270 1.82906
275 1.73942
280 1.44143
285 1.68048
290 1.75658
295 1.71664
300 2.02177
305 1.94442
310 2.29525
315 1.62964
320 2.09914
325 2.06436
330 2.32051
335 2.18993
340 1.8643
345 1.54703
350 2.27103
355 1.658
360 2.07989
365 2.09416
370 1.91428
375 2.2232
380 2.37974
385 2.80488
390 2.36512
395 2.68493
400 2.24393
405 2.28136
410 1.685
415 2.23954
420 2.4154
425 2.16673
430 2.20083
435 2.17345
440 2.49518
445 1.99773
450 1.87987
455 2.51251
460 2.29501
465 1.96614
470 2.0976
475 2.32637
480 1.80451
485 1.61978
490 2.18792
495 1.92439
500 1.87508
505 2.07803
510 1.94257
515 1.84245
520 1.86885
525 1.52641
530 1.73751
535 1.58284
540 2.23529
545 2.40648
550 2.86916
555 2.24451
560 2.21975
565 2.23304
570 1.68387
575 1.44534
580 1.96848
585 2.00126
590 1.41231
595 1.81783
600 1.65433
Ex : 283
200 1.35366
205 1.84338
210 1.5291
215 1.54212
220 1.75977
225 1.63844
230 1.94424
235 1.40975
240 1.54458
245 1.70126
250 1.64009
255 1.94693
260 1.63008
265 1.38213
270 1.85129
275 1.76867
280 1.45087
285 1.37811
290 1.33265
295 1.1472
300 1.22797
305 1.44995
310 1.58072
315 1.3083
320 1.46051
325 1.75173
330 1.36383
335 1.389
340 1.87042
345 1.22573
350 1.8467
355 1.86903
360 1.8018
365 1.72615
370 2.47508
375 2.08008
380 2.07706
385 1.78978
390 2.10128
395 1.89974
400 2.0525
405 2.28628
410 2.1708
415 2.33015
420 1.89258
425 2.00857
430 2.29214
435 2.28884
440 2.23274
445 1.7026
450 2.01061
455 2.08017
460 1.91321
465 1.63622
470 1.6288
475 1.73192
480 1.91011
485 1.87184
490 1.77322
495 1.68899
500 1.66843
505 1.92096
510 1.59868
515 1.35308
520 1.57682
525 1.65892
530 1.53973
535 1.39786
540 2.03389
545 1.75377
550 1.79923
555 1.46121
560 1.65365
565 2.02147
570 1.60518
575 1.39791
580 1.76782
585 1.60711
590 1.86478
595 1.76263
600 0.799367
Ex : 288
200 1.00802
205 1.20676
210 1.21035
215 1.46752
220 1.47852
225 1.44133
230 1.28117
235 1.35548
240 1.32563
245 0.990187
250 1.32485
255 1.2437
260 1.77184
265 1.37616
270 0.954571
275 0.915048
280 1.56566
285 1.43951
290 1.11307
295 1.7553
300 1.13747
305 1.11773
310 1.45794
315 1.64836
320 1.35379
325 1.44478
330 1.35674
335 1.4206
340 1.3925
345 1.41167
350 1.68616
355 1.71772
360 1.38385
365 1.51265
370 1.40918
375 1.36546
380 1.51532
385 1.9254
390 1.99441
395 1.69064
400 2.14405
405 2.22301
410 1.72659
415 1.93128
420 1.63473
425 2.01992
430 1.46
435 1.92089
440 2.00402
445 1.70634
450 1.67182
455 1.62852
460 1.58413
465 1.98818
470 2.0663
475 1.51241
480 1.53528
485 1.48816
490 1.72874
495 1.48414
500 1.60432
505 1.83745
510 1.69924
515 1.65719
520 1.48832
525 1.31824
530 1.56794
535 1.40967
540 1.33815
545 1.90415
550 1.57817
555 1.28121
560 1.10403
565 1.59368
570 1.82591
575 1.94605
580 1.35797
585 1.12834
590 1.10751
595 1.3833
600 1.27032
Ex : 293
200 1.1536
205 1.12675
210 1.27148
215 1.05884
220 1.08351
225 1.20246
230 1.21705
235 1.11929
240 0.961856
245 0.99442
250 1.09321
255 0.950408
260 1.09075
265 0.998711
270 1.37243
275 1.10127
280 1.23942
285 1.30426
290 1.26729
295 1.21856
300 0.971337
305 1.04819
310 0.745926
315 0.984302
320 1.16749
325 1.05263
330 1.32486
335 1.16741
340 1.23896
345 1.17115
350 1.50798
355 1.18234
360 1.28336
365 1.54643
370 1.56196
375 1.49942
380 1.1921
385 1.43716
390 1.38505
395 1.31432
400 1.45616
405 1.5416
410 1.30284
415 1.46378
420 1.6732
425 1.30788
430 1.23
435 1.61328
440 1.30407
445 1.61667
450 1.4432
455 1.6142
460 1.34701
465 1.26208
470 1.1674
475 1.67298
480 1.25802
485 1.54294
490 1.43646
495 1.38417
500 1.25637
505 1.14955
510 1.35407
515 1.36972
520 1.10796
525 1.10993
530 1.23107
535 1.33905
540 1.21706
545 1.27184
550 1.17099
555 1.03064
560 1.10237
565 0.923607
570 1.04404
575 1.53476
580 1.71003
585 1.30307
590 0.884789
595 1.16711
600 0.567227
Ex : 298
200 0.952055
205 0.79878
210 0.890283
215 0.793905
220 0.92446
225 0.801143
230 1.06416
235 1.04519
240 0.9283
245 0.912154
250 0.932472
255 1.0081
260 1.39203
265 1.00374
270 0.82505
275 0.605433
280 0.800139
285 0.855839
290 1.28211
295 1.6296
300 1.02668
305 0.955309
310 1.1485
315 0.942271
320 1.15016
325 1.07176
330 1.25782
335 0.977886
340 1.18018
345 1.01616
350 1.0054
355 0.996309
360 1.21582
365 1.22758
370 1.4016
375 1.1787
380 1.29452
385 1.36115
390 1.35103
395 1.53639
400 1.63862
405 1.342
410 1.59929
415 1.62154
420 1.45929
425 1.32238
430 1.44932
435 1.31212
440 1.24929
445 1.04878
450 1.3639
455 1.46095
460 1.45031
465 1.1323
470 1.20902
475 1.18927
480 1.17894
485 1.16854
490 1.35396
495 1.18828
500 0.884668
505 1.14764
510 1.2892
515 1.04192
520 1.0335
525 1.05211
530 1.05686
535 1.26337
540 0.884352
545 0.989358
550 1.13208
555 0.962795
560 0.959646
565 0.891589
570 1.25996
575 1.20668
580 0.922709
585 1.3629
590 1.47885
595 1.12455
600 0.173416
Ex : 303
200 0.730432
205 0.702141
210 1.09293
215 1.14274
220 0.879735
225 0.907457
230 0.885829
235 0.711075
240 0.942114
245 0.782531
250 0.91571
255 0.79434
260 0.714976
265 0.912823
270 0.707721
275 0.720225
280 0.800595
285 0.698278
290 0.742385
295 1.05943
300 0.952931
305 0.944906
310 0.663687
315 0.919948
320 1.0311
325 1.0864
330 0.981102
335 0.920063
340 1.19317
345 0.839821
350 1.01562
355 1.16761
360 1.16929
365 1.07711
370 1.31324
375 1.25931
380 1.36798
385 1.29153
390 1.47628
395 1.71705
400 1.43878
405 1.30829
410 1.50401
415 1.68191
420 1.44476
425 1.25317
430 1.54307
435 1.48
440 1.54581
445 1.1255
450 1.14307
455 1.07625
460 1.22583
465 1.18454
470 1.06214
475 1.07993
480 1.09812
485 1.08741
490 1.31019
495 0.890823
500 1.24073
505 1.05413
510 0.87348
515 1.02657
520 1.08138
525 0.926365
530 1.23651
535 1.00707
540 1.19697
545 0.975412
550 0.858938
555 0.663659
560 0.769168
565 0.759778
570 1.10683
575 0.930566
580 0.812614
585 0.944579
590 0.828411
595 1.04186
600 1.03083
Ex : 308
200 0.543324
205 0.651983
210 0.554921
215 0.597912
220 0.682453
225 0.680833
230 0.670697
235 0.754008
240 0.628004
245 0.674194
250 0.898067
255 0.731501
260 0.89601
265 0.96117
270 0.904724
275 0.631742
280 0.808597
285 0.59692
290 0.677227
295 0.700721
300 0.814253
305 0.773374
310 0.64796
315 0.663807
320 0.830923
325 0.645244
330 0.928985
335 1.06338
340 0.96451
345 0.866488
350 1.04394
355 1.3752
360 0.924006
365 1.15535
370 1.21725
375 1.10153
380 1.15772
385 1.3291
390 1.3582
395 1.44004
400 1.28177
405 1.22992
410 1.17045
415 1.45837
420 1.58504
425 1.22125
430 1.34012
435 1.26559
440 1.0038
445 1.30109
450 1.24448
455 1.03938
460 0.98684
465 1.05002
470 1.29295
475 0.885268
480 1.18635
485 0.992955
490 0.951407
495 1.26116
500 0.921934
505 0.875249
510 0.993544
515 0.637101
520 0.776112
525 0.812644
530 0.862177
535 0.723038
540 0.790803
545 1.03407
550 0.887031
555 0.824361
560 0.797551
565 1.07316
570 0.832689
575 0.689534
580 0.757108
585 0.712648
590 0.583646
595 0.800993
600 0.0911499
Ex : 313
200 0.579989
205 0.533031
210 0.641442
215 0.593455
220 0.684395
225 0.746881
230 0.591918
235 0.849404
240 0.81809
245 0.642522
250 0.67185
255 0.795293
260 0.801229
265 0.651932
270 0.749552
275 0.711511
280 0.747505
285 0.596091
290 0.69277
295 0.589073
300 0.719769
305 0.763021
310 0.651571
315 0.628024
320 0.518878
325 0.834046
330 0.899398
335 0.852963
340 1.00285
345 0.99494
350 1.02547
355 0.81705
360 0.986978
365 1.06149
370 1.28631
375 1.31417
380 1.36439
385 1.32371
390 1.39906
395 1.25483
400 1.23097
405 1.62324
410 1.59387
415 1.84475
420 1.57723
425 1.5242
430 1.50621
435 1.50535
440 1.21024
445 1.4427
450 1.55206
455 1.45031
460 1.4149
465 1.38419
470 1.18935
475 1.09933
480 1.14889
485 1.11832
490 0.881824
495 1.19031
500 1.06799
505 1.26299
510 0.974601
515 0.911063
520 0.660683
525 0.764453
530 0.755519
535 0.823626
540 0.652372
545 0.662268
550 0.687383
555 0.666579
560 0.700748
565 0.834243
570 0.886083
575 0.834624
580 0.874259
585 0.558838
590 0.685273
595 0.831522
600 0.502074
Ex : 318
200 0.477234
205 0.713971
210 0.810439
215 0.559237
220 0.50696
225 0.517973
230 0.49649
235 0.547248
240 0.605028
245 0.749883
250 0.576939
255 0.696745
260 0.659797
265 0.740395
270 0.718485
275 0.643631
280 0.702752
285 0.632472
290 0.557244
295 0.62413
300 0.636456
305 0.727074
310 0.810493
315 1.31962
320 1.12918
325 1.03261
330 1.2983
335 1.55416
340 1.68789
345 2.19931
350 2.88513
355 3.49216
360 4.45082
365 4.6833
370 5.51806
375 6.30008
380 7.0682
385 8.17367
390 8.65996
395 9.26941
400 9.41018
405 9.87844
410 10.1871
415 9.67576
420 9.37215
425 9.08993
430 8.76677
435 8.75871
440 8.37554
445 8.04689
450 7.51436
455 6.7865
460 6.63748
465 5.95862
470 5.80889
475 5.06206
480 4.81167
485 4.13156
490 3.9298
495 3.68835
500 3.18401
505 2.63994
510 2.49016
515 2.17787
520 2.12736
525 2.10445
530 1.58506
535 1.50516
540 1.48864
545 1.1073
550 1.27401
555 1.16096
560 1.16973
565 0.92326
570 0.780402
575 0.727236
580 0.715791
585 0.725745
590 0.721447
595 0.991198
600 0.322925
Ex : 323
200 0.711479
205 0.554869
210 0.576614
215 0.519879
220 0.818623
225 0.545745
230 0.618349
235 0.480616
240 0.533152
245 0.513133
250 0.455868
255 0.654495
260 0.576996
265 0.463032
270 0.607111
275 0.444543
280 0.53077
285 0.588895
290 0.532783
295 0.472794
300 0.522252
305 0.545432
310 0.478082
315 6.27445
320 26.8703
325 12.1731
330 3.79525
335 3.72098
340 4.76976
345 7.03825
350 9.96491
355 13.3233
360 15.6118
365 18.2734
370 21.5998
375 25.225
380 28.8436
385 32.1452
390 34.9711
395 37.0388
400 37.2933
405 38.5965
410 39.5377
415 39.3214
420 37.4643
425 35.7479
430 34.6837
435 33.5985
440 33.0095
445 31.1804
450 29.2596
455 27.1207
460 25.6006
465 24.0681
470 21.8034
475 20.1972
480 17.94
485 16.1683
490 14.7704
495 13.0086
500 11.1318
505 10.74
510 9.1082
515 8.36277
520 6.86612
525 6.37025
530 5.2953
535 4.58784
540 3.87646
545 3.33414
550 3.32897
555 2.85749
560 2.58368
565 1.97175
570 1.6651
575 1.54533
580 1.22843
585 1.26159
590 0.881705
595 0.735711
600 0.613787
Ex : 328
200 0.708109
205 0.463534
210 0.50849
215 0.42028
220 0.662622
225 0.511705
230 0.478547
235 0.414766
240 0.416048
245 0.511333
250 0.483947
255 0.43227
260 0.417177
265 0.58955
270 0.58889
275 0.439819
280 0.562946
285 0.490778
290 0.548383
295 0.517143
300 0.601856
305 0.416824
310 0.509182
315 2.18498
320 64.0467
325 150.48
330 44.6289
335 9.08924
340 7.2175
345 8.55094
350 10.3988
355 14.0753
360 19.2778
365 22.3798
370 24.5089
375 28.1459
380 31.5145
385 35.2946
390 37.959
395 40.061
400 41.8551
405 42.8368
410 42.9964
415 41.8444
420 41.3666
425 39.5827
430 37.7704
435 36.83
440 35.9189
445 33.9186
450 31.6944
455 30.0514
460 26.9172
465 25.5718
470 23.3809
475 21.8011
480 19.1754
485 17.7328
490 15.4221
495 14.5222
500 13.0896
505 11.4134
510 10.4699
515 8.83412
520 7.42436
525 6.90127
530 5.97035
535 5.27981
540 4.54177
545 3.99271
550 3.74106
555 3.1483
560 2.70003
565 2.61679
570 2.11002
575 1.67282
580 1.3783
585 1.19986
590 0.95322
595 0.981799
600 0.320244
Ex : 333
200 0.423161
205 0.46432
210 0.48636
215 0.301163
220 0.424942
225 0.522529
230 0.267903
235 0.463883
240 0.627878
245 0.516818
250 0.353614
255 0.386994
260 0.461973
265 0.399745
270 0.43259
275 0.535257
280 0.439621
285 0.559266
290 0.602532
295 0.454864
300 0.561214
305 0.698681
310 0.59051
315 0.668053
320 9.17369
325 180.51
330 300.691
335 76.6787
340 13.0816
345 7.32412
350 6.84119
355 7.82524
360 11.1852
365 15.7419
370 17.238
375 17.0684
380 17.8738
385 20.4488
390 23.1116
395 23.8926
400 24.3267
405 24.5276
410 24.7491
415 25.8706
420 24.9645
425 22.712
430 22.2586
435 21.9609
440 20.6683
445 19.1793
450 18.1912
455 16.7049
460 16.1358
465 13.9449
470 13.2489
475 12.2731
480 11.1254
485 9.90274
490 9.69011
495 8.22546
500 7.88021
505 6.61005
510 5.93056
515 5.45672
520 4.41134
525 4.05542
530 3.82282
535 3.37262
540 3.00599
545 2.71805
550 2.65183
555 2.2525
560 2.27083
565 1.74839
570 1.36408
575 1.21548
580 1.23398
585 1.13851
590 1.01071
595 0.931324
600 0.432477
Ex : 338
200 0.334057
205 0.452916
210 0.452684
215 0.437308
220 0.344318
225 0.406578
230 0.572083
235 0.417366
240 0.331896
245 0.422042
250 0.463453
255 0.413774
260 0.547495
265 0.562608
270 0.429526
275 0.428616
280 0.421819
285 0.393636
290 0.466002
295 0.525294
300 0.493045
305 0.516472
310 0.544171
315 0.425987
320 0.790859
325 17.6567
330 268.134
335 381.591
340 92.3488
345 13.966
350 5.76564
355 5.14534
360 4.91431
365 7.24481
370 11.4644
375 12.063
380 11.0039
385 10.7846
390 12.8598
395 13.42
400 13.4119
405 13.8882
410 14.0373
415 14.9931
420 14.6733
425 13.428
430 13.0874
435 12.0082
440 12.1935
445 12.3777
450 10.432
455 9.56666
460 9.13087
465 8.34667
470 7.76828
475 7.50282
480 6.97213
485 6.50751
490 5.63008
495 5.25686
500 4.63099
505 4.23675
510 3.83009
515 3.56838
520 3.25585
525 2.87745
530 2.51632
535 2.25089
540 2.28704
545 2.15723
550 1.94044
555 1.62112
560 1.64839
565 1.45535
570 1.26289
575 1.22155
580 1.0514
585 0.959999
590 0.83818
595 0.923363
600 1.12142
Ex : 343
200 0.363845
205 0.448371
210 0.386679
215 0.398374
220 0.355318
225 0.303196
230 0.611107
235 0.354294
240 0.463997
245 0.431936
250 0.431759
255 0.37753
260 0.451072
265 0.354088
270 0.482504
275 0.449111
280 0.575141
285 0.490992
290 0.518103
295 0.354039
300 0.491118
305 0.504534
310 0.499557
315 0.537675
320 0.496902
325 0.892646
330 20.0984
335 301.158
340 422.59
345 100.639
350 14.5813
355 5.17173
360 3.69269
365 3.29119
370 4.38115
375 8.10335
380 9.91856
385 9.75722
390 10.3326
395 10.5936
400 10.0331
405 10.2422
410 11.3785
415 11.8807
420 11.5414
425 10.6
430 10.0296
435 10.0487
440 9.71484
445 9.65593
450 8.76807
455 7.915
460 7.89976
465 7.24174
470 6.64528
475 6.4671
480 5.68741
485 5.40923
490 5.25004
495 4.61307
500 4.24481
505 3.84977
510 3.45176
515 3.34456
520 2.88481
525 2.68591
530 2.41095
535 2.16555
540 1.88332
545 1.78437
550 1.53188
555 1.57629
560 1.4172
565 1.47777
570 1.4074
575 1.0637
580 0.977599
585 0.968523
590 0.781264
595 0.691858
600 0.376038
Ex : 348
200 0.340162
205 0.399111
210 0.405624
215 0.426396
220 0.552192
225 0.361116
230 0.367724
235 0.400287
240 0.330734
245 0.333844
250 0.30738
255 0.366053
260 0.327293
265 0.432712
270 0.466902
275 0.373514
280 0.368667
285 0.384827
290 0.42405
295 0.414144
300 0.406262
305 0.48857
310 0.451987
315 0.429429
320 0.484827
325 0.602694
330 0.862347
335 19.8411
340 298.627
345 431.514
350 108.396
355 15.0898
360 4.37743
365 3.16943
370 2.58807
375 3.51598
380 7.63929
385 11.9403
390 12.2124
395 11.8385
400 10.4113
405 10.5883
410 12.3786
415 13.4687
420 12.998
425 11.6852
430 11.051
435 10.733
440 10.7452
445 10.0361
450 9.66782
455 8.7332
460 8.07039
465 7.60758
470 7.05937
475 6.53853
480 6.21036
485 5.85567
490 5.37701
495 4.71579
500 4.39698
505 4.14544
510 3.58983
515 3.25313
520 2.86319
525 2.46126
530 2.28267
535 2.42875
540 2.07737
545 2.03818
550 1.78849
555 1.56914
560 1.42445
565 1.42038
570 1.09846
575 1.04543
580 0.974919
585 0.878293
590 0.77618
595 0.703437
600 0.641136
Ex : 353
200 0.337042
205 0.374496
210 0.381476
215 0.347
220 0.392006
225 0.328983
230 0.378348
235 0.327653
240 0.349625
245 0.361343
250 0.403426
255 0.44669
260 0.30452
265 0.416372
270 0.354271
275 0.347355
280 0.374129
285 0.42682
290 0.474238
295 0.388336
300 0.471944
305 0.399631
310 0.397857
315 0.505524
320 0.537024
325 0.568
330 0.661212
335 0.868933
340 20.2336
345 302.72
350 429.435
355 105.174
360 14.389
365 4.00349
370 3.17844
375 2.72662
380 3.56981
385 7.51273
390 13.6448
395 13.8972
400 11.8295
405 11.0666
410 12.8658
415 14.602
420 14.1236
425 12.6574
430 11.7665
435 11.5781
440 11.6336
445 11.3034
450 10.3748
455 9.295
460 8.49899
465 8.08319
470 7.86094
475 7.05683
480 6.63176
485 6.21878
490 5.46351
495 4.93967
500 4.63626
505 4.21245
510 3.82628
515 3.29459
520 3.14891
525 2.70199
530 2.47725
535 2.26151
540 2.12457
545 1.75383
550 1.83181
555 1.57806
560 1.40013
565 1.0865
570 1.10194
575 1.08264
580 0.949867
585 0.783753
590 0.689955
595 0.725025
600 0.725003
Ex : 358
200 0.284363
205 0.298832
210 0.376239
215 0.387801
220 0.356413
225 0.368391
230 0.373116
235 0.311836
240 0.319586
245 0.337036
250 0.319914
255 0.387274
260 0.497841
265 0.322841
270 0.290315
275 0.373227
280 0.323942
285 0.290142
290 0.3051
295 0.338498
300 0.319471
305 0.391667
310 0.390826
315 0.365341
320 0.402255
325 0.407618
330 0.493568
335 0.663811
340 0.994124
345 18.3344
350 287.307
355 426.068
360 105.292
365 14.275
370 3.96848
375 3.12513
380 3.30674
385 5.17365
390 9.00833
395 14.0806
400 12.6286
405 11.385
410 12.4522
415 13.6784
420 13.1044
425 11.7983
430 11.0676
435 10.7313
440 11.7487
445 10.5903
450 10.1017
455 9.22737
460 8.47415
465 8.07265
470 7.67272
475 7.23581
480 6.48562
485 6.19945
490 5.60551
495 4.99091
500 4.54435
505 4.04384
510 3.559
515 3.65133
520 3.15275
525 2.79501
530 2.51369
535 2.37806
540 2.11583
545 1.81113
550 1.62753
555 1.62868
560 1.37489
565 1.34864
570 1.284
575 1.24122
580 0.951224
585 0.806756
590 0.664301
595 0.55711
600 0.439919
Ex : 363
200 0.365719
205 0.310192
210 0.36187
215 0.349473
220 0.291226
225 0.236175
230 0.314541
235 0.262177
240 0.268345
245 0.288781
250 0.334931
255 0.355163
260 0.303452
265 0.317312
270 0.316044
275 0.357748
280 0.27782
285 0.25085
290 0.331047
295 0.289801
300 0.383618
305 0.257013
310 0.299153
315 0.440194
320 0.378217
325 0.382348
330 0.406519
335 0.465626
340 0.579639
345 0.707282
350 17.0208
355 275.139
360 420.726
365 108.014
370 14.4558
375 4.2432
380 4.27263
385 6.407
390 8.57451
395 10.2981
400 13.1001
405 14.9889
410 15.2167
415 15.8366
420 14.0435
425 12.7429
430 11.7219
435 12.2708
440 12.2199
445 12.157
450 10.8217
455 9.69549
460 9.37254
465 8.84038
470 8.34065
475 7.59464
480 6.68827
485 6.43985
490 5.8284
495 5.38258
500 4.92104
505 4.52703
510 3.91511
515 3.52287
520 3.30966
525 3.04957
530 2.71258
535 2.44481
540 2.1762
545 1.83873
550 1.67251
555 1.59704
560 1.32873
565 1.20136
570 1.19597
575 1.03733
580 0.824936
585 0.669135
590 0.612958
595 0.595799
600 0.297872
Ex : 368
200 0.256021
205 0.2847
210 0.299172
215 0.284466
220 0.314793
225 0.260075
230 0.322088
235 0.287514
240 0.30216
245 0.254615
250 0.368799
255 0.349798
260 0.25021
265 0.305839
270 0.224416
275 0.355297
280 0.278247
285 0.271771
290 0.293019
295 0.367999
300 0.33862
305 0.415754
310 0.415113
315 0.332042
320 0.363896
325 0.477637
330 0.387381
335 0.430391
340 0.565498
345 0.576494
350 0.772834
355 14.4381
360 263.46
365 425.123
370 111.388
375 14.9849
380 5.04689
385 7.49853
390 10.2102
395 11.4816
400 11.347
405 14.9163
410 18.9765
415 20.0506
420 17.9973
425 15.2602
430 13.9127
435 14.1366
440 14.2961
445 13.7053
450 12.4086
455 11.23
460 10.4031
465 9.49746
470 9.3416
475 8.66379
480 7.81691
485 7.16786
490 6.32618
495 5.93385
500 5.33015
505 4.95312
510 4.53776
515 3.82332
520 3.65666
525 3.14329
530 2.77215
535 2.55034
540 2.33608
545 1.99523
550 1.69322
555 1.85063
560 1.59152
565 1.34849
570 1.25612
575 0.993252
580 0.82705
585 0.712744
590 0.631769
595 0.521379
600 0.62219
Ex : 373
200 0.266809
205 0.30784
210 0.249661
215 0.182742
220 0.246391
225 0.207498
230 0.286742
235 0.248318
240 0.209273
245 0.28743
250 0.258973
255 0.294595
260 0.330187
265 0.335605
270 0.292056
275 0.356861
280 0.315416
285 0.333725
290 0.305052
295 0.308285
300 0.255523
305 0.266312
310 0.317797
315 0.289547
320 0.341732
325 0.385417
330 0.296208
335 0.428712
340 0.423318
345 0.433912
350 0.564202
355 0.888241
360 15.9683
365 264.308
370 416.692
375 108.808
380 15.2196
385 6.9668
390 10.1769
395 12.233
400 11.2694
405 11.231
410 15.6707
415 20.543
420 18.8614
425 15.8119
430 13.3707
435 12.7635
440 13.482
445 13.1957
450 11.985
455 10.8638
460 9.94401
465 9.0891
470 8.58159
475 8.28517
480 7.59546
485 6.98769
490 6.14001
495 5.55579
500 5.03697
505 4.67335
510 4.30034
515 3.76445
520 3.44263
525 2.96715
530 2.67266
535 2.36813
540 2.201
545 1.96346
550 1.75015
555 1.53547
560 1.42324
565 1.24403
570 1.20025
575 0.952317
580 0.849826
585 0.69926
590 0.6781
595 0.606295
600 0.498784
Ex : 378
200 0.291324
205 0.24867
210 0.275925
215 0.213753
220 0.236377
225 0.279409
230 0.204962
235 0.194642
240 0.293935
245 0.212555
250 0.238967
255 0.201351
260 0.215923
265 0.222575
270 0.222678
275 0.266812
280 0.284822
285 0.256693
290 0.247073
295 0.223041
300 0.333135
305 0.279311
310 0.230922
315 0.216296
320 0.299148
325 0.281336
330 0.279641
335 0.239145
340 0.344994
345 0.35631
350 0.468552
355 0.532081
360 0.703166
365 14.6062
370 262.616
375 419.813
380 110.768
385 16.9877
390 9.03273
395 9.41544
400 8.5992
405 8.46433
410 10.5263
415 13.6763
420 16.4993
425 14.3271
430 11.9306
435 11.3902
440 10.838
445 10.6496
450 9.78344
455 9.11546
460 8.48029
465 7.8909
470 7.7558
475 7.29558
480 6.82163
485 6.46641
490 5.70885
495 5.46005
500 4.87898
505 4.38652
510 3.93602
515 3.64062
520 3.40483
525 2.99271
530 2.75363
535 2.50587
540 2.16819
545 1.97894
550 1.83085
555 1.53224
560 1.48295
565 1.31862
570 1.12826
575 0.904253
580 0.845713
585 0.724054
590 0.68999
595 0.47361
600 0.393908
Ex : 383
200 0.275134
205 0.218259
210 0.239854
215 0.251519
220 0.242061
225 0.250114
230 0.23583
235 0.253986
240 0.22494
245 0.228378
250 0.249008
255 0.287196
260 0.212994
265 0.225535
270 0.231493
275 0.247562
280 0.230272
285 0.258772
290 0.299893
295 0.213987
300 0.25005
305 0.207302
310 0.337457
315 0.307174
320 0.305923
325 0.364902
330 0.321936
335 0.324736
340 0.367286
345 0.315068
350 0.374053
355 0.420383
360 0.624299
365 0.749684
370 14.3951
375 256.847
380 429.535
385 117.079
390 20.3294
395 9.19258
400 7.94416
405 9.09638
410 11.3154
415 12.5083
420 12.9901
425 14.2222
430 14.0002
435 12.482
440 12.5112
445 11.6676
450 10.0818
455 9.29503
460 8.55327
465 8.17743
470 7.96952
475 7.65614
480 7.14186
485 6.5659
490 6.11826
495 5.45772
500 5.06557
505 4.36206
510 4.19171
515 3.76021
520 3.37005
525 3.05766
530 2.71297
535 2.41325
540 2.33089
545 2.08878
550 1.76831
555 1.76621
560 1.43915
565 1.23724
570 1.10033
575 0.985638
580 0.81333
585 0.701483
590 0.491772
595 0.531751
600 0.276829
Ex : 388
200 0.249395
205 0.184417
210 0.223944
215 0.235111
220 0.285094
225 0.307979
230 0.333472
235 0.242463
240 0.218418
245 0.254104
250 0.269097
255 0.276595
260 0.225365
265 0.254458
270 0.302938
275 0.238136
280 0.269023
285 0.191618
290 0.189924
295 0.21669
300 0.227502
305 0.248296
310 0.318463
315 0.268448
320 0.229024
325 0.22769
330 0.272689
335 0.291128
340 0.339293
345 0.311806
350 0.351949
355 0.427939
360 0.461374
365 0.498252
370 0.750609
375 14.3197
380 262.917
385 429.26
390 118.523
395 22.3496
400 10.71
405 10.5914
410 13.3701
415 15.5938
420 14.6581
425 13.4137
430 14.5318
435 15.8974
440 15.2643
445 13.8511
450 12.3634
455 11.0141
460 9.72247
465 9.33712
470 9.29284
475 8.29342
480 7.55069
485 6.9985
490 6.25155
495 5.86176
500 5.32967
505 4.74055
510 4.38757
515 3.87315
520 3.40204
525 3.19057
530 2.92212
535 2.63914
540 2.29902
545 2.12987
550 1.97171
555 1.47708
560 1.42289
565 1.26561
570 1.17114
575 0.941937
580 0.861713
585 0.663579
590 0.576085
595 0.493121
600 0.722434
Ex : 393
200 0.228935
205 0.21227
210 0.237021
215 0.187356
220 0.239243
225 0.231908
230 0.250661
235 0.222386
240 0.234419
245 0.24103
250 0.222075
255 0.166074
260 0.214636
265 0.267678
270 0.252788
275 0.209261
280 0.209853
285 0.234907
290 0.210423
295 0.314764
300 0.256041
305 0.317897
310 0.221972
315 0.253086
320 0.281115
325 0.252612
330 0.211189
335 0.316482
340 0.268484
345 0.320247
350 0.273028
355 0.402425
360 0.377025
365 0.43254
370 0.602013
375 0.825909
380 13.4573
385 259.109
390 435.649
395 122.319
400 23.0622
405 10.975
410 12.3486
415 15.6268
420 15.5996
425 13.1397
430 11.546
435 13.1769
440 15.7713
445 14.8218
450 12.6322
455 10.8697
460 9.3808
465 8.53943
470 8.56981
475 7.49698
480 7.0318
485 6.67408
490 5.88398
495 5.28878
500 4.98677
505 4.73178
510 4.18778
515 3.54562
520 3.2937
525 3.08603
530 2.81497
535 2.37538
540 2.32103
545 2.07478
550 1.6929
555 1.62334
560 1.58055
565 1.19127
570 1.12172
575 0.957036
580 0.747716
585 0.723233
590 0.651041
595 0.533298
600 0.502212
Ex : 398
200 0.236853
205 0.222536
210 0.210003
215 0.215127
220 0.159613
225 0.209193
230 0.195457
235 0.262828
240 0.220322
245 0.221624
250 0.217034
255 0.285409
260 0.179905
265 0.183865
270 0.221295
275 0.213213
280 0.204606
285 0.193354
290 0.260547
295 0.225843
300 0.312225
305 0.262629
310 0.226582
315 0.25347
320 0.273532
325 0.214746
330 0.272069
335 0.263305
340 0.241323
345 0.283777
350 0.330538
355 0.272513
360 0.297479
365 0.355264
370 0.39547
375 0.437288
380 0.822522
385 14.3994
390 262.108
395 437.938
400 119.211
405 19.2446
410 9.16133
415 10.015
420 10.7529
425 9.28887
430 7.80988
435 8.02174
440 9.67243
445 11.9108
450 10.7591
455 8.4853
460 7.92875
465 6.73254
470 6.57542
475 6.26416
480 5.8828
485 5.40727
490 5.0264
495 4.85993
500 4.26761
505 4.01479
510 3.67709
515 3.40466
520 3.25541
525 2.86966
530 2.45417
535 2.2436
540 2.14331
545 1.97145
550 1.75135
555 1.48608
560 1.42342
565 1.14834
570 0.983736
575 0.876795
580 0.768138
585 0.646904
590 0.580865
595 0.435561
600 0.494159
Ex : 403
200 0.2257
205 0.17556
210 0.225412
215 0.249747
220 0.270329
225 0.236588
230 0.208023
235 0.283922
240 0.271317
245 0.228156
250 0.214075
255 0.275913
260 0.234006
265 0.18564
270 0.202975
275 0.233169
280 0.266418
285 0.210033
290 0.206224
295 0.21928
300 0.239845
305 0.218757
310 0.189849
315 0.24384
320 0.198036
325 0.247531
330 0.27991
335 0.261204
340 0.287811
345 0.23344
350 0.224601
355 0.270029
360 0.32012
365 0.297799
370 0.332792
375 0.387003
380 0.499566
385 0.891127
390 15.1394
395 262.791
400 427.858
405 115.582
410 17.5882
415 7.60426
420 6.89764
425 6.52792
430 6.01803
435 5.85263
440 6.35359
445 7.26982
450 9.26838
455 9.10085
460 7.27769
465 6.81595
470 6.06677
475 5.6545
480 5.5275
485 5.1046
490 4.59915
495 4.47283
500 4.16624
505 3.73635
510 3.34746
515 3.23089
520 3.06243
525 2.67065
530 2.34252
535 2.23069
540 2.09363
545 1.92242
550 1.58133
555 1.47726
560 1.28468
565 1.19688
570 1.02477
575 0.825621
580 0.631545
585 0.584373
590 0.504757
595 0.487742
600 0.189776
Ex : 408
200 0.260645
205 0.220237
210 0.196159
215 0.247201
220 0.201672
225 0.270463
230 0.222387
235 0.2775
240 0.215471
245 0.165601
250 0.191158
255 0.236855
260 0.217822
265 0.195702
270 0.226839
275 0.246447
280 0.208889
285 0.221279
290 0.215876
295 0.254659
300 0.229643
305 0.286645
310 0.283895
315 0.225832
320 0.218703
325 0.220071
330 0.29822
335 0.314566
340 0.291716
345 0.283935
350 0.248179
355 0.212661
360 0.260099
365 0.246584
370 0.312724
375 0.414145
380 0.479403
385 0.5615
390 0.966549
395 14.808
400 266.48
405 429.934
410 113.158
415 18.4645
420 7.68065
425 6.27541
430 6.19995
435 6.23554
440 6.53498
445 7.05275
450 6.92017
455 7.91976
460 8.4666
465 7.48367
470 6.73409
475 6.04247
480 5.74255
485 5.22411
490 4.75413
495 4.4858
500 4.35573
505 3.75137
510 3.43449
515 3.32272
520 2.7031
525 2.66641
530 2.4209
535 2.28763
540 1.9351
545 1.79701
550 1.65853
555 1.44581
560 1.37303
565 1.20143
570 0.945424
575 0.850469
580 0.652753
585 0.734709
590 0.484217
595 0.43361
600 0.221158
Ex : 413
200 0.243708
205 0.225711
210 0.165463
215 0.244148
220 0.211194
225 0.2207
230 0.227168
235 0.158951
240 0.259442
245 0.236148
250 0.21277
255 0.236114
260 0.208302
265 0.254958
270 0.196988
275 0.218008
280 0.218754
285 0.184378
290 0.256164
295 0.193708
300 0.16637
305 0.17831
310 0.219505
315 0.208467
320 0.253623
325 0.284972
330 0.227295
335 0.215049
340 0.237885
345 0.25606
350 0.212092
355 0.239062
360 0.355685
365 0.291839
370 0.29635
375 0.313213
380 0.362205
385 0.418593
390 0.608601
395 0.836506
400 15.8244
405 274.463
410 430.529
415 110.433
420 17.5486
425 6.72644
430 5.35045
435 5.52548
440 6.18607
445 6.0533
450 5.78967
455 5.39492
460 6.45699
465 8.12023
470 7.29935
475 6.08727
480 5.45851
485 4.94311
490 4.57878
495 4.06046
500 3.93911
505 3.6735
510 3.15962
515 3.05991
520 2.82577
525 2.57388
530 2.45352
535 2.1326
540 1.8786
545 1.72033
550 1.65875
555 1.50806
560 1.19324
565 1.25303
570 0.945986
575 0.813386
580 0.782235
585 0.634399
590 0.514697
595 0.508048
600 0.631068
Ex : 418
200 0.201761
205 0.2196
210 0.249776
215 0.211506
220 0.167675
225 0.192371
230 0.207835
235 0.212275
240 0.182643
245 0.16461
250 0.225397
255 0.215982
260 0.195332
265 0.185635
270 0.178159
275 0.19114
280 0.225684
285 0.170566
290 0.208523
295 0.22622
300 0.208685
305 0.22384
310 0.201553
315 0.228357
320 0.239143
325 0.232714
330 0.191708
335 0.213679
340 0.188759
345 0.346795
350 0.213708
355 0.243314
360 0.314422
365 0.24506
370 0.302513
375 0.234441
380 0.292824
385 0.364504
390 0.387997
395 0.596391
400 0.829515
405 15.1649
410 266.89
415 427.19
420 112.69
425 16.12
430 4.8273
435 3.86396
440 4.1011
445 4.13212
450 3.94012
455 3.59704
460 3.66566
465 4.20495
470 6.16549
475 6.23236
480 4.82388
485 4.40186
490 3.54411
495 3.39845
500 3.27721
505 3.12834
510 2.95345
515 2.61351
520 2.58169
525 2.15219
530 2.14893
535 1.94075
540 1.81025
545 1.71558
550 1.52794
555 1.42452
560 1.16008
565 1.05877
570 0.901986
575 0.808279
580 0.682619
585 0.545884
590 0.501902
595 0.576201
600 0.721477
Ex : 423
200 0.238251
205 0.198338
210 0.228287
215 0.221453
220 0.213257
225 0.177764
230 0.207898
235 0.229334
240 0.19739
245 0.209554
250 0.162871
255 0.196235
260 0.205272
265 0.182534
270 0.197999
275 0.178469
280 0.204349
285 0.209078
290 0.186313
295 0.217054
300 0.192997
305 0.260189
310 0.219415
315 0.212078
320 0.24408
325 0.199843
330 0.199715
335 0.219266
340 0.249553
345 0.172188
350 0.28303
355 0.248381
360 0.241928
365 0.272108
370 0.229223
375 0.287069
380 0.267091
385 0.31576
390 0.325949
395 0.420357
400 0.536247
405 0.813457
410 15.6517
415 273.332
420 420.036
425 104.528
430 13.9863
435 3.59744
440 2.51151
445 2.63023
450 2.66247
455 2.49869
460 2.35699
465 2.4635
470 2.90512
475 4.67273
480 5.52991
485 3.91918
490 3.56602
495 3.2873
500 2.73671
505 2.49668
510 2.40304
515 2.2575
520 2.19654
525 2.03792
530 1.8402
535 1.91021
540 1.60315
545 1.51275
550 1.55619
555 1.31237
560 1.11016
565 1.03342
570 0.843062
575 0.714
580 0.658731
585 0.522223
590 0.451893
595 0.48508
600 0.342853
Ex : 428
200 0.214763
205 0.218392
210 0.211215
215 0.200135
220 0.194298
225 0.223772
230 0.296522
235 0.217739
240 0.18547
245 0.193218
250 0.252585
255 0.267924
260 0.213967
265 0.170229
270 0.220885
275 0.201705
280 0.272556
285 0.221856
290 0.197598
295 0.260016
300 0.181361
305 0.195615
310 0.224312
315 0.22993
320 0.24923
325 0.208775
330 0.259503
335 0.278663
340 0.292591
345 0.199879
350 0.228906
355 0.202889
360 0.259882
365 0.345691
370 0.244929
375 0.280819
380 0.290498
385 0.307679
390 0.364407
395 0.420564
400 0.48734
405 0.560363
410 0.838475
415 16.8083
420 273.219
425 420.003
430 107.84
435 14.0069
440 3.14259
445 1.8056
450 2.23421
455 2.1102
460 1.92872
465 1.90698
470 2.1422
475 2.52633
480 3.60949
485 4.85283
490 3.94256
495 3.23056
500 3.03672
505 2.57331
510 2.33499
515 1.97748
520 2.11694
525 2.01445
530 1.75379
535 1.80301
540 1.62617
545 1.66059
550 1.3798
555 1.33862
560 1.18485
565 1.15743
570 0.925719
575 0.803027
580 0.734004
585 0.608951
590 0.538059
595 0.513235
600 0.329023
Ex : 433
200 0.190495
205 0.217928
210 0.212323
215 0.24754
220 0.190978
225 0.192315
230 0.204588
235 0.232405
240 0.168853
245 0.196427
250 0.258399
255 0.242383
260 0.242841
265 0.177135
270 0.212657
275 0.221302
280 0.248382
285 0.220621
290 0.307576
295 0.260072
300 0.304667
305 0.307548
310 0.210073
315 0.220446
320 0.24642
325 0.220283
330 0.224556
335 0.247881
340 0.246018
345 0.267778
350 0.241752
355 0.255545
360 0.271673
365 0.279663
370 0.222624
375 0.286496
380 0.317487
385 0.316506
390 0.327877
395 0.345985
400 0.342032
405 0.374567
410 0.499301
415 0.651419
420 18.2739
425 289.292
430 421.358
435 103.525
440 13.2362
445 2.80356
450 1.82186
455 1.97176
460 2.00042
465 1.93589
470 1.90296
475 1.92826
480 2.15949
485 3.03584
490 4.61258
495 4.1736
500 3.17191
505 2.71364
510 2.34121
515 2.09322
520 1.98937
525 1.75477
530 1.6282
535 1.69408
540 1.50113
545 1.38421
550 1.29191
555 1.38641
560 1.03612
565 1.0214
570 0.897313
575 0.789344
580 0.671233
585 0.55848
590 0.504915
595 0.434413
600 0.309907
Ex : 438
200 0.191825
205 0.194467
210 0.190294
215 0.176886
220 0.211268
225 0.219926
230 0.218183
235 0.234611
240 0.21356
245 0.249564
250 0.244728
255 0.298979
260 0.223316
265 0.204492
270 0.261394
275 0.253745
280 0.271328
285 0.18861
290 0.230764
295 0.211544
300 0.227838
305 0.236187
310 0.204695
315 0.210222
320 0.186266
325 0.201879
330 0.180812
335 0.219481
340 0.240633
345 0.199792
350 0.227705
355 0.263838
360 0.301948
365 0.33597
370 0.255296
375 0.249324
380 0.263549
385 0.311139
390 0.317242
395 0.318311
400 0.290522
405 0.448769
410 0.432747
415 0.537547
420 0.825067
425 16.9728
430 281.435
435 439.629
440 109.144
445 13.9459
450 2.9854
455 1.76493
460 1.80595
465 1.95873
470 1.79458
475 1.82564
480 1.75137
485 1.96225
490 2.34243
495 4.04361
500 4.26508
505 3.07315
510 2.4951
515 2.35193
520 2.05206
525 1.76961
530 1.65925
535 1.56341
540 1.5026
545 1.37598
550 1.44306
555 1.27851
560 1.15782
565 1.03753
570 1.0201
575 0.919629
580 0.675994
585 0.568967
590 0.466611
595 0.42193
600 0.150153
Ex : 443
200 0.187419
205 0.220085
210 0.190772
215 0.160194
220 0.171802
225 0.188424
230 0.23528
235 0.191534
240 0.214128
245 0.268909
250 0.220128
255 0.221297
260 0.188969
265 0.189323
270 0.282805
275 0.218046
280 0.295739
285 0.253515
290 0.156201
295 0.213951
300 0.22922
305 0.252481
310 0.19689
315 0.247747
320 0.245476
325 0.232621
330 0.220508
335 0.208054
340 0.208943
345 0.321046
350 0.19388
355 0.248258
360 0.263337
365 0.230357
370 0.321056
375 0.253854
380 0.228982
385 0.306743
390 0.264547
395 0.289246
400 0.31042
405 0.391072
410 0.375992
415 0.38878
420 0.613167
425 0.824394
430 18.8106
435 293.871
440 436.265
445 105.74
450 13.5497
455 3.11847
460 1.63035
465 1.73769
470 1.99934
475 1.9747
480 1.72279
485 1.5939
490 1.80996
495 2.06905
500 3.30048
505 4.03673
510 3.06082
515 2.42396
520 2.29221
525 1.90127
530 1.80823
535 1.79102
540 1.55551
545 1.41447
550 1.30122
555 1.2144
560 1.13061
565 1.05735
570 0.957784
575 0.794001
580 0.751227
585 0.604621
590 0.57413
595 0.552377
600 0.12335
Ex : 448
200 0.220441
205 0.189861
210 0.219871
215 0.238025
220 0.181404
225 0.231226
230 0.22619
235 0.210653
240 0.183761
245 0.282122
250 0.201286
255 0.178397
260 0.24743
265 0.168237
270 0.185072
275 0.219234
280 0.218721
285 0.214198
290 0.188659
295 0.273551
300 0.241982
305 0.246187
310 0.248714
315 0.259531
320 0.194192
325 0.255599
330 0.211581
335 0.264875
340 0.23837
345 0.218056
350 0.264031
355 0.270813
360 0.26514
365 0.25688
370 0.238805
375 0.25211
380 0.267322
385 0.232081
390 0.213727
395 0.274198
400 0.310884
405 0.334493
410 0.370771
415 0.307372
420 0.393008
425 0.582168
430 0.740669
435 18.2035
440 306.95
445 458.586
450 112.238
455 14.3254
460 3.05615
465 1.60311
470 1.64266
475 1.95456
480 1.92187
485 1.76537
490 1.72776
495 1.74277
500 1.99718
505 2.7368
510 4.03074
515 3.13084
520 2.41809
525 2.24503
530 1.99622
535 1.66494
540 1.46199
545 1.28933
550 1.30286
555 1.17534
560 1.05135
565 1.03257
570 0.932566
575 0.755144
580 0.722077
585 0.579915
590 0.565638
595 0.537802
600 0.544028
Ex : 453
200 0.217285
205 0.231093
210 0.281588
215 0.227125
220 0.193221
225 0.23222
230 0.219243
235 0.191937
240 0.286286
245 0.217671
250 0.23345
255 0.25173
260 0.180672
265 0.214524
270 0.247229
275 0.247612
280 0.241126
285 0.222261
290 0.290327
295 0.208209
300 0.198348
305 0.243045
310 0.208585
315 0.238857
320 0.224336
325 0.18749
330 0.259713
335 0.219504
340 0.236394
345 0.233493
350 0.234353
355 0.247326
360 0.199257
365 0.24872
370 0.218836
375 0.226812
380 0.242013
385 0.306866
390 0.258276
395 0.359249
400 0.257867
405 0.272025
410 0.335742
415 0.370405
420 0.370926
425 0.474098
430 0.534978
435 0.719531
440 19.6756
445 326.838
450 466.214
455 106.817
460 13.5784
465 3.14519
470 1.71892
475 1.55498
480 1.86863
485 1.64998
490 1.5172
495 1.50735
500 1.52297
505 1.56936
510 2.15957
515 3.48187
520 3.27592
525 2.26871
530 2.17248
535 2.06318
540 1.71426
545 1.42942
550 1.22318
555 1.19741
560 1.12933
565 1.11591
570 0.885849
575 0.766164
580 0.630397
585 0.582119
590 0.503033
595 0.383061
600 0.248099
Ex : 458
200 0.262289
205 0.187215
210 0.231206
215 0.225305
220 0.236386
225 0.172045
230 0.166635
235 0.223498
240 0.218846
245 0.201349
250 0.227634
255 0.189364
260 0.188848
265 0.229507
270 0.303568
275 0.227724
280 0.21582
285 0.220368
290 0.19859
295 0.221393
300 0.220547
305 0.187622
310 0.196091
315 0.231127
320 0.242442
325 0.262749
330 0.238427
335 0.247726
340 0.16559
345 0.241854
350 0.268245
355 0.2339
360 0.239104
365 0.265745
370 0.27144
375 0.270224
380 0.212232
385 0.198341
390 0.255573
395 0.25438
400 0.228226
405 0.245036
410 0.297392
415 0.322619
420 0.268531
425 0.370804
430 0.395388
435 0.530483
440 0.803639
445 21.3627
450 329.585
455 482.073
460 115.104
465 14.708
470 3.13078
475 1.63443
480 1.64727
485 1.92234
490 1.77883
495 1.57382
500 1.46844
505 1.44054
510 1.50094
515 1.77122
520 2.7489
525 3.4945
530 2.60275
535 2.07868
540 1.91787
545 1.6006
550 1.33769
555 1.20415
560 1.18099
565 1.04338
570 0.934117
575 0.804294
580 0.718877
585 0.529481
590 0.588297
595 0.485666
600 0.208365
Ex : 463
200 0.214136
205 0.223712
210 0.267465
215 0.206558
220 0.234256
225 0.222292
230 0.24978
235 0.202909
240 0.220388
245 0.28411
250 0.199438
255 0.203281
260 0.261131
265 0.238782
270 0.212731
275 0.199002
280 0.205364
285 0.257686
290 0.244357
295 0.216248
300 0.327325
305 0.198485
310 0.231121
315 0.214704
320 0.19304
325 0.182186
330 0.182123
335 0.188496
340 0.182128
345 0.170424
350 0.223912
355 0.227256
360 0.234868
365 0.247108
370 0.217631
375 0.248936
380 0.204081
385 0.21212
390 0.259718
395 0.2277
400 0.294673
405 0.258511
410 0.252984
415 0.289358
420 0.327347
425 0.30052
430 0.335685
435 0.406262
440 0.585204
445 0.753767
450 20.8609
455 349.985
460 514.908
465 121.443
470 15.3642
475 3.14822
480 1.68254
485 1.47477
490 1.77593
495 1.75274
500 1.47624
505 1.46747
510 1.45585
515 1.44508
520 1.69698
525 2.34721
530 3.4649
535 2.89473
540 2.11698
545 1.87689
550 1.64613
555 1.31082
560 1.19803
565 1.00826
570 0.964652
575 0.782052
580 0.711402
585 0.556874
590 0.534286
595 0.504434
600 0.290031
Ex : 468
200 0.16875
205 0.181749
210 0.21789
215 0.208619
220 0.189671
225 0.166478
230 0.169701
235 0.22162
240 0.205724
245 0.186668
250 0.189587
255 0.19117
260 0.156093
265 0.215294
270 0.150671
275 0.178716
280 0.223094
285 0.181639
290 0.214521
295 0.176703
300 0.164587
305 0.158238
310 0.165617
315 0.22541
320 0.181322
325 0.264368
330 0.194792
335 0.184236
340 0.189223
345 0.184014
350 0.195602
355 0.21283
360 0.19752
365 0.217511
370 0.228386
375 0.258705
380 0.206764
385 0.234887
390 0.319841
395 0.255708
400 0.28702
405 0.213138
410 0.235207
415 0.274053
420 0.285193
425 0.32077
430 0.307082
435 0.280019
440 0.370422
445 0.519454
450 0.722841
455 22.0107
460 347.538
465 533.226
470 125.515
475 15.7435
480 3.16531
485 1.40622
490 1.40867
495 1.59628
500 1.68238
505 1.59649
510 1.28375
515 1.32406
520 1.43515
525 1.54918
530 1.83022
535 3.01469
540 3.08665
545 2.02671
550 1.69166
555 1.59645
560 1.29315
565 1.08247
570 0.937759
575 0.900931
580 0.622953
585 0.598954
590 0.503695
595 0.434219
600 0.345644
Ex : 473
200 0.229784
205 0.192851
210 0.22885
215 0.179977
220 0.204635
225 0.254335
230 0.182477
235 0.200714
240 0.152697
245 0.216956
250 0.244193
255 0.2143
260 0.228679
265 0.23888
270 0.250399
275 0.239698
280 0.174829
285 0.176854
290 0.174806
295 0.192063
300 0.287781
305 0.27816
310 0.268735
315 0.215408
320 0.184666
325 0.170976
330 0.190878
335 0.202376
340 0.210157
345 0.253054
350 0.194904
355 0.306257
360 0.215944
365 0.314737
370 0.239797
375 0.205217
380 0.312726
385 0.235695
390 0.208082
395 0.198297
400 0.244228
405 0.221779
410 0.260471
415 0.265542
420 0.270525
425 0.285605
430 0.245504
435 0.315607
440 0.332825
445 0.38218
450 0.522845
455 0.882283
460 25.7556
465 373.992
470 513.205
475 116.399
480 14.6103
485 2.93134
490 1.56142
495 1.37247
500 1.52768
505 1.63832
510 1.4869
515 1.45784
520 1.42495
525 1.49822
530 1.58911
535 1.72866
540 2.43625
545 3.06752
550 2.11323
555 1.57007
560 1.52772
565 1.2658
570 1.05305
575 0.82626
580 0.697101
585 0.653511
590 0.509318
595 0.434409
600 0.528463
Ex : 478
200 0.219239
205 0.204902
210 0.2541
215 0.254042
220 0.265692
225 0.259963
230 0.290607
235 0.262047
240 0.257776
245 0.237912
250 0.252529
255 0.238106
260 0.225967
265 0.21781
270 0.249144
275 0.216784
280 0.24682
285 0.197776
290 0.240801
295 0.26192
300 0.238556
305 0.235761
310 0.189448
315 0.255707
320 0.271594
325 0.280525
330 0.242712
335 0.258904
340 0.228931
345 0.257931
350 0.262689
355 0.23951
360 0.33119
365 0.282932
370 0.270927
375 0.204551
380 0.229313
385 0.249811
390 0.357399
395 0.268246
400 0.310066
405 0.33166
410 0.265725
415 0.264529
420 0.245916
425 0.329192
430 0.367039
435 0.337324
440 0.399863
445 0.443126
450 0.520511
455 0.659911
460 0.893343
465 27.7906
470 385.435
475 520.896
480 124.064
485 15.5533
490 3.12618
495 1.59701
500 1.49505
505 1.47063
510 1.65907
515 1.59232
520 1.42671
525 1.51472
530 1.38787
535 1.45756
540 1.64302
545 1.86672
550 2.72096
555 2.48366
560 1.68723
565 1.36352
570 1.24374
575 0.952046
580 0.784832
585 0.653188
590 0.58898
595 0.544802
600 0.262827
Ex : 483
200 0.243273
205 0.256115
210 0.298456
215 0.228019
220 0.223121
225 0.232495
230 0.239401
235 0.203639
240 0.306915
245 0.232408
250 0.253442
255 0.26526
260 0.235773
265 0.227668
270 0.292038
275 0.275295
280 0.250827
285 0.230665
290 0.269985
295 0.275098
300 0.219202
305 0.247802
310 0.272743
315 0.287382
320 0.242082
325 0.227298
330 0.254719
335 0.243276
340 0.277497
345 0.261747
350 0.282469
355 0.232543
360 0.196217
365 0.329485
370 0.238855
375 0.301581
380 0.323136
385 0.303649
390 0.333004
395 0.272145
400 0.24124
405 0.287647
410 0.308889
415 0.326246
420 0.339057
425 0.311954
430 0.298432
435 0.358625
440 0.322498
445 0.365178
450 0.350155
455 0.468211
460 0.622857
465 1.01042
470 22.1044
475 375.87
480 556.81
485 130.224
490 16.264
495 3.0332
500 1.58647
505 1.23946
510 1.37156
515 1.60072
520 1.62104
525 1.50228
530 1.54722
535 1.58739
540 1.61076
545 1.46669
550 1.54518
555 2.34676
560 2.55838
565 1.57322
570 1.25805
575 1.11936
580 0.945331
585 0.686077
590 0.591693
595 0.512391
600 0.669373
Ex : 488
200 0.2376
205 0.310211
210 0.237884
215 0.306671
220 0.246094
225 0.238457
230 0.241864
235 0.233136
240 0.224505
245 0.210445
250 0.23923
255 0.190312
260 0.262705
265 0.329027
270 0.276496
275 0.25854
280 0.281828
285 0.295159
290 0.277726
295 0.326806
300 0.351964
305 0.345513
310 0.289475
315 0.249236
320 0.28296
325 0.307287
330 0.2992
335 0.22101
340 0.238767
345 0.246995
350 0.217299
355 0.295633
360 0.278715
365 0.291777
370 0.26796
375 0.350281
380 0.311362
385 0.330833
390 0.344239
395 0.323131
400 0.240971
405 0.275754
410 0.280566
415 0.297797
420 0.327408
425 0.360534
430 0.334594
435 0.298121
440 0.346304
445 0.459729
450 0.389057
455 0.556527
460 0.534933
465 0.775272
470 1.14753
475 26.942
480 405.66
485 547.531
490 125.784
495 15.6308
500 3.03896
505 1.49605
510 1.30744
515 1.56628
520 1.61783
525 1.6761
530 1.76631
535 1.47416
540 1.42052
545 1.32638
550 1.32455
555 1.46919
560 2.1576
565 2.41835
570 1.732
575 1.32728
580 1.0746
585 0.753455
590 0.721054
595 0.581647
600 0.148377
Ex : 493
200 0.302889
205 0.250389
210 0.303087
215 0.279369
220 0.184544
225 0.286606
230 0.248695
235 0.298156
240 0.264615
245 0.293631
250 0.33085
255 0.287518
260 0.257384
265 0.325341
270 0.279353
275 0.285207
280 0.28835
285 0.282509
290 0.218464
295 0.251381
300 0.288076
305 0.315399
310 0.290463
315 0.26858
320 0.294485
325 0.294552
330 0.312118
335 0.288343
340 0.264637
345 0.287422
350 0.275786
355 0.269248
360 0.356688
365 0.243114
370 0.400058
375 0.34053
380 0.283411
385 0.289931
390 0.271694
395 0.354573
400 0.328715
405 0.353308
410 0.373866
415 0.35026
420 0.303205
425 0.315265
430 0.434164
435 0.372622
440 0.425392
445 0.316934
450 0.368721
455 0.387139
460 0.433808
465 0.558958
470 0.725852
475 0.927622
480 24.9345
485 394.545
490 565.421
495 126.999
500 15.7773
505 3.11274
510 1.55518
515 1.32823
520 1.42646
525 2.00463
530 1.81547
535 1.7188
540 1.46539
545 1.40308
550 1.45228
555 1.27525
560 1.39666
565 1.46737
570 2.10699
575 1.7252
580 1.13717
585 0.938538
590 0.813278
595 0.668995
600 0.610665
Ex : 498
200 0.252937
205 0.320376
210 0.362934
215 0.269695
220 0.283865
225 0.310292
230 0.268032
235 0.242731
240 0.271741
245 0.283856
250 0.295949
255 0.302505
260 0.331145
265 0.310811
270 0.267037
275 0.288691
280 0.30927
285 0.289172
290 0.28518
295 0.262269
300 0.278328
305 0.248263
310 0.27179
315 0.307327
320 0.320093
325 0.388001
330 0.313557
335 0.261144
340 0.305125
345 0.263106
350 0.264763
355 0.28209
360 0.28467
365 0.274052
370 0.305686
375 0.375402
380 0.273312
385 0.348499
390 0.403053
395 0.322324
400 0.337558
405 0.375749
410 0.299073
415 0.4173
420 0.347895
425 0.347809
430 0.303415
435 0.335763
440 0.475675
445 0.395311
450 0.383216
455 0.425638
460 0.419227
465 0.502204
470 0.529608
475 0.670709
480 0.987342
485 28.7614
490 413.82
495 545.114
500 123.767
505 15.6036
510 3.13572
515 1.70819
520 1.33679
525 1.63308
530 1.79517
535 1.74343
540 1.60314
545 1.37205
550 1.21658
555 1.25237
560 1.28292
565 1.04326
570 1.10401
575 1.4443
580 1.62351
585 1.10299
590 0.787906
595 0.748766
600 0.630861
Ex : 503
200 0.2816
205 0.300257
210 0.262445
215 0.356314
220 0.390544
225 0.210806
230 0.316136
235 0.258696
240 0.334737
245 0.321485
250 0.316775
255 0.328856
260 0.321575
265 0.309388
270 0.287495
275 0.308459
280 0.305355
285 0.309173
290 0.332385
295 0.376313
300 0.306332
305 0.287946
310 0.301184
315 0.314406
320 0.363422
325 0.342163
330 0.241899
335 0.401398
340 0.327452
345 0.323365
350 0.38686
355 0.335514
360 0.315306
365 0.370629
370 0.298651
375 0.292824
380 0.301349
385 0.283141
390 0.348079
395 0.307284
400 0.325485
405 0.445593
410 0.473195
415 0.343954
420 0.389366
425 0.454475
430 0.298521
435 0.4335
440 0.404857
445 0.350591
450 0.4849
455 0.460404
460 0.435527
465 0.543226
470 0.608092
475 0.596347
480 0.793993
485 0.918776
490 25.6914
495 404.998
500 563.089
505 127.91
510 16.1234
515 3.12933
520 1.75234
525 1.70817
530 1.6809
535 1.73409
540 1.71546
545 1.37945
550 1.39562
555 1.21367
560 1.33323
565 1.20028
570 0.985466
575 1.01184
580 1.20689
585 1.54327
590 1.06432
595 0.773427
600 1.42142
Ex : 508
200 0.311031
205 0.255461
210 0.321077
215 0.29307
220 0.34672
225 0.317947
230 0.337774
235 0.301704
240 0.290835
245 0.336181
250 0.365576
255 0.400062
260 0.36781
265 0.316452
270 0.379832
275 0.361463
280 0.279037
285 0.252452
290 0.301454
295 0.351685
300 0.296234
305 0.330743
310 0.318692
315 0.329767
320 0.287764
325 0.268929
330 0.324187
335 0.431221
340 0.261152
345 0.323531
350 0.315593
355 0.413544
360 0.317844
365 0.360109
370 0.318502
375 0.261368
380 0.277788
385 0.310141
390 0.473017
395 0.321979
400 0.351277
405 0.337828
410 0.392967
415 0.321011
420 0.29085
425 0.304259
430 0.297604
435 0.341999
440 0.380388
445 0.403962
450 0.380674
455 0.424713
460 0.395268
465 0.519327
470 0.44657
475 0.511611
480 0.597625
485 0.855235
490 0.963355
495 27.9353
500 404.589
505 549.881
510 130.094
515 16.2566
520 3.30425
525 1.97334
530 1.60407
535 1.46867
540 1.54728
545 1.66605
550 1.46086
555 1.35258
560 1.09212
565 1.06983
570 1.05841
575 0.824713
580 0.844153
585 0.965167
590 1.23616
595 1.1394
600 0.258718
Ex : 513
200 0.338445
205 0.309277
210 0.419786
215 0.370978
220 0.333719
225 0.347254
230 0.337419
235 0.310345
240 0.377384
245 0.388001
250 0.296035
255 0.37877
260 0.368922
265 0.339446
270 0.34126
275 0.353401
280 0.293447
285 0.317762
290 0.359775
295 0.377499
300 0.2842
305 0.273478
310 0.279357
315 0.386293
320 0.364391
325 0.406191
330 0.318611
335 0.352926
340 0.409564
345 0.337685
350 0.416377
355 0.315239
360 0.384283
365 0.501916
370 0.333861
375 0.379333
380 0.33023
385 0.364222
390 0.394503
395 0.424542
400 0.488031
405 0.392826
410 0.362497
415 0.371759
420 0.386061
425 0.375552
430 0.40703
435 0.365588
440 0.387647
445 0.331709
450 0.347283
455 0.410818
460 0.437794
465 0.429499
470 0.475185
475 0.431929
480 0.563929
485 0.650801
490 0.91075
495 1.13092
500 26.0212
505 398.9
510 559.723
515 135.7
520 17.1238
525 3.47511
530 1.86122
535 1.52093
540 1.55935
545 1.64801
550 1.43451
555 1.45165
560 1.14563
565 1.147
570 0.953329
575 0.867262
580 0.883205
585 0.691628
590 0.722503
595 0.977198
600 1.6323
Ex : 518
200 0.181056
205 0.296634
210 0.26979
215 0.267705
220 0.311146
225 0.32659
230 0.381763
235 0.261216
240 0.351882
245 0.315064
250 0.25572
255 0.346985
260 0.333634
265 0.324728
270 0.341115
275 0.373207
280 0.383894
285 0.351633
290 0.343291
295 0.298313
300 0.247093
305 0.3362
310 0.387905
315 0.371112
320 0.320422
325 0.338198
330 0.414434
335 0.424862
340 0.348692
345 0.351402
350 0.315925
355 0.361235
360 0.408337
365 0.46011
370 0.415042
375 0.318571
380 0.368537
385 0.3569
390 0.428383
395 0.379337
400 0.354416
405 0.282345
410 0.356961
415 0.394241
420 0.348739
425 0.44578
430 0.377387
435 0.32626
440 0.409065
445 0.364825
450 0.482358
455 0.494801
460 0.406568
465 0.484749
470 0.577211
475 0.490057
480 0.564295
485 0.473028
490 0.65244
495 0.795587
500 1.1471
505 25.7484
510 380.924
515 551.396
520 134.773
525 16.7598
530 3.27795
535 1.85975
540 1.59871
545 1.22259
550 1.29644
555 1.3184
560 1.27709
565 1.06184
570 1.08136
575 0.988941
580 0.806683
585 0.830633
590 0.620779
595 0.708586
600 0.966838
Ex : 523
200 0.439129
205 0.339808
210 0.370485
215 0.413938
220 0.311614
225 0.383665
230 0.323159
235 0.349894
240 0.359554
245 0.334237
250 0.39835
255 0.344799
260 0.291918
265 0.337848
270 0.33328
275 0.350389
280 0.313821
285 0.329522
290 0.413169
295 0.415169
300 0.412038
305 0.379971
310 0.419887
315 0.404645
320 0.352291
325 0.35526
330 0.357895
335 0.388652
340 0.342967
345 0.395555
350 0.357478
355 0.387652
360 0.32907
365 0.318947
370 0.265984
375 0.366312
380 0.468283
385 0.385672
390 0.358109
395 0.321442
400 0.449039
405 0.404125
410 0.38983
415 0.366347
420 0.449097
425 0.371703
430 0.418745
435 0.414571
440 0.376514
445 0.47539
450 0.370607
455 0.347675
460 0.524333
465 0.547944
470 0.478195
475 0.413232
480 0.465557
485 0.439949
490 0.633054
495 0.689192
500 0.703575
505 1.06342
510 23.0634
515 364.484
520 542.788
525 135.956
530 17.0018
535 3.16483
540 1.66588
545 1.89155
550 1.32139
555 1.37032
560 1.28535
565 1.21495
570 1.06621
575 0.823207
580 0.727946
585 0.666628
590 0.587039
595 0.694878
600 0.610797
Ex : 528
200 0.29713
205 0.299191
210 0.324058
215 0.267876
220 0.440384
225 0.313051
230 0.305805
235 0.448306
240 0.424611
245 0.420964
250 0.403232
255 0.388641
260 0.342174
265 0.434659
270 0.425905
275 0.343907
280 0.354214
285 0.425619
290 0.470744
295 0.439498
300 0.447184
305 0.512795
310 0.331468
315 0.349181
320 0.309521
325 0.436261
330 0.35198
335 0.416638
340 0.32099
345 0.463253
350 0.410631
355 0.344044
360 0.305753
365 0.300217
370 0.310328
375 0.33848
380 0.391586
385 0.460821
390 0.41108
395 0.454143
400 0.388642
405 0.371075
410 0.402955
415 0.445363
420 0.339286
425 0.375737
430 0.449127
435 0.440653
440 0.403079
445 0.423495
450 0.355634
455 0.375065
460 0.417189
465 0.41999
470 0.511159
475 0.413729
480 0.44424
485 0.604123
490 0.618403
495 0.64335
500 0.698912
505 0.865064
510 1.10147
515 21.5093
520 358.738
525 533.43
530 133.489
535 16.838
540 3.3471
545 1.57557
550 1.29369
555 1.16053
560 1.09159
565 1.21317
570 0.962978
575 1.057
580 0.742899
585 0.763461
590 0.632136
595 0.578673
600 0.589739
Ex : 533
200 0.399186
205 0.372069
210 0.328533
215 0.38705
220 0.329488
225 0.303658
230 0.318981
235 0.383317
240 0.404089
245 0.383953
250 0.372169
255 0.385559
260 0.374252
265 0.348951
270 0.316473
275 0.308682
280 0.327443
285 0.376876
290 0.397102
295 0.335929
300 0.413653
305 0.288819
310 0.41428
315 0.330287
320 0.403474
325 0.43455
330 0.506076
335 0.463504
340 0.475676
345 0.392466
350 0.441252
355 0.404548
360 0.36795
365 0.426599
370 0.381279
375 0.333001
380 0.376012
385 0.398994
390 0.369958
395 0.420847
400 0.315161
405 0.373535
410 0.375503
415 0.484067
420 0.443809
425 0.295137
430 0.310715
435 0.482405
440 0.417081
445 0.485824
450 0.474503
455 0.442491
460 0.409174
465 0.50608
470 0.458081
475 0.470981
480 0.38524
485 0.413504
490 0.500264
495 0.566483
500 0.650529
505 0.575247
510 0.731874
515 1.02078
520 21.4596
525 340.18
530 519.684
535 132.248
540 16.653
545 3.24362
550 1.57918
555 1.29869
560 1.18689
565 0.957449
570 1.00377
575 0.894215
580 0.960625
585 0.803376
590 0.718095
595 0.644347
600 0.934208
Ex : 538
200 0.36227
205 0.454085
210 0.284496
215 0.388563
220 0.406993
225 0.273794
230 0.327404
235 0.461821
240 0.389832
245 0.371227
250 0.358108
255 0.355288
260 0.337259
265 0.407494
270 0.306201
275 0.330329
280 0.374988
285 0.42095
290 0.321923
295 0.358243
300 0.435949
305 0.397281
310 0.315538
315 0.30792
320 0.433208
325 0.462206
330 0.402468
335 0.380067
340 0.374434
345 0.395412
350 0.385931
355 0.344504
360 0.345458
365 0.365795
370 0.500815
375 0.388879
380 0.290171
385 0.414488
390 0.484498
395 0.378605
400 0.396342
405 0.396112
410 0.468026
415 0.441774
420 0.420641
425 0.414916
430 0.37844
435 0.489802
440 0.409767
445 0.45122
450 0.37597
455 0.539635
460 0.472082
465 0.473177
470 0.522201
475 0.522565
480 0.482948
485 0.465742
490 0.425722
495 0.471906
500 0.518589
505 0.597021
510 0.690285
515 0.728543
520 1.17263
525 18.1774
530 325.129
535 511.223
540 135.959
545 17.004
550 2.97212
555 1.56364
560 1.27582
565 0.937622
570 0.999253
575 0.912553
580 0.872367
585 0.730951
590 0.717903
595 0.714679
600 0.123278
Ex : 543
200 0.342452
205 0.337401
210 0.483239
215 0.375299
220 0.399827
225 0.349914
230 0.379928
235 0.406981
240 0.483615
245 0.470771
250 0.370826
255 0.274297
260 0.270936
265 0.393469
270 0.523011
275 0.418899
280 0.289896
285 0.419918
290 0.404873
295 0.459969
300 0.428571
305 0.411553
310 0.486701
315 0.421327
320 0.432875
325 0.344618
330 0.515459
335 0.307398
340 0.463785
345 0.362149
350 0.442131
355 0.405746
360 0.442117
365 0.350612
370 0.263095
375 0.394118
380 0.370557
385 0.400931
390 0.396317
395 0.337583
400 0.333988
405 0.347659
410 0.432859
415 0.49855
420 0.372044
425 0.450216
430 0.451718
435 0.469606
440 0.442661
445 0.443236
450 0.420473
455 0.43808
460 0.469572
465 0.575621
470 0.439905
475 0.50886
480 0.452417
485 0.437889
490 0.413609
495 0.45355
500 0.479452
505 0.640569
510 0.583963
515 0.631118
520 0.826125
525 1.05779
530 16.3698
535 310.838
540 509.187
545 138.319
550 17.1508
555 2.90848
560 1.2155
565 1.19147
570 0.844007
575 0.729414
580 0.731685
585 0.830361
590 0.589951
595 0.71557
600 0.0868
Ex : 548
200 0.560451
205 0.418206
210 0.452023
215 0.355367
220 0.377839
225 0.408378
230 0.415645
235 0.377458
240 0.417809
245 0.393939
250 0.340894
255 0.402892
260 0.381497
265 0.428205
270 0.375659
275 0.469691
280 0.34938
285 0.369108
290 0.440828
295 0.562775
300 0.403103
305 0.347812
310 0.380529
315 0.454131
320 0.479917
325 0.417532
330 0.383977
335 0.426703
340 0.425005
345 0.396658
350 0.529837
355 0.470921
360 0.456748
365 0.450503
370 0.442456
375 0.397443
380 0.418533
385 0.382269
390 0.366528
395 0.452806
400 0.399552
405 0.451166
410 0.388917
415 0.377575
420 0.376564
425 0.454616
430 0.437918
435 0.487553
440 0.396431
445 0.456663
450 0.364478
455 0.480351
460 0.551516
465 0.571111
470 0.478481
475 0.506491
480 0.432947
485 0.346607
490 0.508648
495 0.512149
500 0.489267
505 0.412577
510 0.541667
515 0.567738
520 0.626086
525 0.748666
530 0.911594
535 17.9255
540 306.523
545 490.303
550 135.513
555 16.8198
560 2.90078
565 1.09133
570 1.02037
575 0.947038
580 0.878583
585 0.709228
590 0.671598
595 0.610432
600 0.551338
Ex : 553
200 0.332925
205 0.40346
210 0.564513
215 0.412117
220 0.438055
225 0.430997
230 0.481811
235 0.410267
240 0.341084
245 0.428182
250 0.368759
255 0.350452
260 0.351334
265 0.444207
270 0.373352
275 0.396885
280 0.384975
285 0.474614
290 0.443252
295 0.425246
300 0.419386
305 0.401606
310 0.454275
315 0.410236
320 0.359952
325 0.521965
330 0.399876
335 0.439115
340 0.540219
345 0.487563
350 0.437964
355 0.469634
360 0.402677
365 0.393119
370 0.43461
375 0.465422
380 0.419051
385 0.383025
390 0.404582
395 0.383159
400 0.385029
405 0.454175
410 0.514905
415 0.406098
420 0.467193
425 0.514518
430 0.462364
435 0.486147
440 0.405577
445 0.376246
450 0.623607
455 0.367596
460 0.43456
465 0.436961
470 0.592855
475 0.356041
480 0.592241
485 0.456009
490 0.497119
495 0.476005
500 0.425872
505 0.472744
510 0.459733
515 0.391021
520 0.592923
525 0.832576
530 0.804647
535 1.10588
540 16.0369
545 292.103
550 478.458
555 133.461
560 16.6225
565 2.81399
570 1.04971
575 0.906217
580 0.819255
585 0.613445
590 0.726479
595 0.78112
600 0.218715
Ex : 558
200 0.454934
205 0.450831
210 0.420355
215 0.4128
220 0.542955
225 0.365539
230 0.406832
235 0.432829
240 0.333391
245 0.404293
250 0.385075
255 0.374769
260 0.379447
265 0.466083
270 0.486604
275 0.45316
280 0.383611
285 0.527741
290 0.42224
295 0.410562
300 0.510484
305 0.50699
310 0.515107
315 0.355901
320 0.464287
325 0.423626
330 0.355764
335 0.50427
340 0.478557
345 0.438413
350 0.344631
355 0.53226
360 0.451521
365 0.464708
370 0.392363
375 0.441139
380 0.566185
385 0.458046
390 0.470845
395 0.4312
400 0.560226
405 0.542505
410 0.496165
415 0.518532
420 0.369986
425 0.445321
430 0.457797
435 0.382638
440 0.498322
445 0.540258
450 0.443024
455 0.479095
460 0.438414
465 0.469101
470 0.46784
475 0.51661
480 0.636221
485 0.591708
490 0.441512
495 0.440596
500 0.593977
505 0.590593
510 0.49349
515 0.479624
520 0.490661
525 0.615967
530 0.789294
535 0.76981
540 1.0071
545 14.6007
550 278.507
555 471.658
560 130.931
565 16.3265
570 2.68644
575 1.1073
580 0.96862
585 0.769861
590 0.617009
595 0.707463
600 1.04887
Ex : 563
200 0.384302
205 0.453906
210 0.499558
215 0.490258
220 0.39877
225 0.368045
230 0.405035
235 0.424932
240 0.523175
245 0.48587
250 0.519861
255 0.39549
260 0.422209
265 0.423901
270 0.339324
275 0.440853
280 0.559974
285 0.446697
290 0.467921
295 0.429465
300 0.399045
305 0.466335
310 0.533911
315 0.414039
320 0.328427
325 0.440287
330 0.357465
335 0.468651
340 0.393032
345 0.51553
350 0.427953
355 0.452381
360 0.358411
365 0.404663
370 0.472134
375 0.524679
380 0.479449
385 0.537638
390 0.504429
395 0.480513
400 0.395304
405 0.55011
410 0.38895
415 0.568784
420 0.490501
425 0.427771
430 0.348534
435 0.656868
440 0.358183
445 0.400789
450 0.431748
455 0.496917
460 0.43489
465 0.424021
470 0.48262
475 0.564425
480 0.490227
485 0.469076
490 0.472876
495 0.44084
500 0.580507
505 0.51694
510 0.50273
515 0.482797
520 0.571589
525 0.700923
530 0.676537
535 0.762469
540 0.766602
545 1.03098
550 15.0735
555 269.573
560 442.945
565 126.18
570 15.6752
575 2.5524
580 0.924997
585 0.805157
590 0.716313
595 0.735273
600 0.0836713
Ex : 568
200 0.478942
205 0.477463
210 0.562283
215 0.483568
220 0.501518
225 0.355719
230 0.521661
235 0.37502
240 0.339228
245 0.352843
250 0.380411
255 0.380841
260 0.518424
265 0.440193
270 0.443561
275 0.470082
280 0.41207
285 0.445074
290 0.432759
295 0.411729
300 0.365568
305 0.453693
310 0.419626
315 0.506904
320 0.386884
325 0.438899
330 0.326456
335 0.398029
340 0.416836
345 0.503515
350 0.442617
355 0.475277
360 0.48417
365 0.39791
370 0.467103
375 0.411856
380 0.550011
385 0.487702
390 0.595999
395 0.517679
400 0.488826
405 0.412582
410 0.439561
415 0.488164
420 0.489101
425 0.546001
430 0.441825
435 0.492322
440 0.569509
445 0.532807
450 0.495356
455 0.437037
460 0.483964
465 0.474483
470 0.374638
475 0.480381
480 0.400209
485 0.522833
490 0.668451
495 0.558193
500 0.592986
505 0.453218
510 0.575213
515 0.545943
520 0.533572
525 0.496655
530 0.522988
535 0.628093
540 0.720308
545 0.920302
550 0.959189
555 11.5925
560 235.717
565 422.938
570 127.104
575 15.6875
580 2.46167
585 0.937722
590 0.789581
595 0.830386
600 0.464278
Ex : 573
200 0.404535
205 0.564678
210 0.472403
215 0.428559
220 0.514498
225 0.503514
230 0.512643
235 0.544596
240 0.493614
245 0.507299
250 0.486467
255 0.541592
260 0.540085
265 0.549678
270 0.442886
275 0.490705
280 0.463463
285 0.487063
290 0.372294
295 0.488339
300 0.505409
305 0.417204
310 0.436187
315 0.416932
320 0.496217
325 0.369318
330 0.40511
335 0.518794
340 0.386219
345 0.382046
350 0.523483
355 0.371065
360 0.50744
365 0.45742
370 0.490008
375 0.429718
380 0.589653
385 0.502862
390 0.516564
395 0.525622
400 0.426385
405 0.475964
410 0.46728
415 0.516875
420 0.361571
425 0.646899
430 0.493642
435 0.53693
440 0.541089
445 0.556951
450 0.556853
455 0.564705
460 0.452904
465 0.41549
470 0.506455
475 0.56277
480 0.70056
485 0.518177
490 0.437815
495 0.467333
500 0.54163
505 0.49013
510 0.569992
515 0.542549
520 0.641431
525 0.57091
530 0.587008
535 0.584499
540 0.644877
545 0.630622
550 0.697928
555 0.772199
560 9.6522
565 204.669
570 395.166
575 121.256
580 15.0372
585 2.3953
590 1.13503
595 0.855673
600 0.0973723
Ex : 578
200 0.418292
205 0.484856
210 0.524031
215 0.497695
220 0.444621
225 0.664627
230 0.379053
235 0.46716
240 0.362647
245 0.387835
250 0.407758
255 0.413339
260 0.52533
265 0.378967
270 0.509742
275 0.477544
280 0.431322
285 0.444232
290 0.424127
295 0.443868
300 0.514246
305 0.481623
310 0.462887
315 0.505609
320 0.513795
325 0.459419
330 0.532719
335 0.466431
340 0.378987
345 0.396363
350 0.511283
355 0.393585
360 0.5048
365 0.497681
370 0.680165
375 0.500602
380 0.541617
385 0.405761
390 0.525242
395 0.42383
400 0.563098
405 0.437183
410 0.399825
415 0.519656
420 0.537235
425 0.576575
430 0.514355
435 0.432099
440 0.429843
445 0.510522
450 0.528339
455 0.459868
460 0.532099
465 0.674932
470 0.48875
475 0.505613
480 0.524465
485 0.586808
490 0.741836
495 0.569198
500 0.468744
505 0.515562
510 0.50663
515 0.714968
520 0.495491
525 0.533312
530 0.510575
535 0.666146
540 0.546581
545 0.653001
550 0.587315
555 0.71358
560 0.954584
565 8.39766
570 184.239
575 344.604
580 104.069
585 12.9015
590 2.14631
595 0.895755
600 1.33053
Ex : 583
200 0.431238
205 0.465819
210 0.478973
215 0.565764
220 0.517773
225 0.47026
230 0.623476
235 0.477599
240 0.614518
245 0.487414
250 0.55802
255 0.550337
260 0.462868
265 0.401013
270 0.50097
275 0.414545
280 0.438978
285 0.414842
290 0.388207
295 0.519926
300 0.570246
305 0.535267
310 0.491042
315 0.367467
320 0.514216
325 0.463323
330 0.511356
335 0.477153
340 0.524758
345 0.527261
350 0.490179
355 0.426845
360 0.538713
365 0.612741
370 0.560706
375 0.48323
380 0.400664
385 0.448158
390 0.470241
395 0.53877
400 0.449921
405 0.561463
410 0.514736
415 0.552541
420 0.528936
425 0.462726
430 0.721249
435 0.428844
440 0.690398
445 0.581603
450 0.575466
455 0.616591
460 0.528394
465 0.585941
470 0.668936
475 0.517328
480 0.584285
485 0.537265
490 0.487548
495 0.472373
500 0.603914
505 0.635683
510 0.493005
515 0.456514
520 0.655788
525 0.561231
530 0.589661
535 0.489849
540 0.518833
545 0.605922
550 0.573325
555 0.617282
560 0.561904
565 0.756655
570 7.24258
575 163.24
580 298.091
585 85.4563
590 10.7886
595 1.99886
600 1.35599
Ex : 588
200 0.471529
205 0.479558
210 0.541362
215 0.527036
220 0.400026
225 0.585075
230 0.621181
235 0.515318
240 0.403609
245 0.335761
250 0.505856
255 0.436102
260 0.480831
265 0.514381
270 0.470473
275 0.490186
280 0.448895
285 0.539416
290 0.508143
295 0.481985
300 0.483553
305 0.426567
310 0.485328
315 0.424452
320 0.471864
325 0.61118
330 0.457543
335 0.518508
340 0.515575
345 0.563159
350 0.479615
355 0.490314
360 0.524753
365 0.594226
370 0.429215
375 0.51621
380 0.4495
385 0.395692
390 0.392665
395 0.619693
400 0.546819
405 0.58512
410 0.470725
415 0.427591
420 0.54515
425 0.5461
430 0.560176
435 0.507187
440 0.658916
445 0.596459
450 0.465975
455 0.542306
460 0.425322
465 0.587206
470 0.535859
475 0.516273
480 0.527099
485 0.579
490 0.566941
495 0.530966
500 0.40825
505 0.520497
510 0.523125
515 0.405498
520 0.538726
525 0.609551
530 0.580295
535 0.482555
540 0.438002
545 0.612753
550 0.716809
555 0.643532
560 0.601591
565 0.548968
570 0.827844
575 6.77231
580 138.437
585 257.517
590 75.3683
595 9.61886
600 1.35609
Ex : 593
200 0.717075
205 0.500066
210 0.575338
215 0.476251
220 0.553699
225 0.719456
230 0.504967
235 0.576386
240 0.512068
245 0.594037
250 0.589187
255 0.480894
260 0.513578
265 0.589314
270 0.495202
275 0.458867
280 0.44563
285 0.500482
290 0.369271
295 0.509681
300 0.482277
305 0.473174
310 0.441904
315 0.56112
320 0.468853
325 0.569906
330 0.474104
335 0.506292
340 0.367359
345 0.539852
350 0.713231
355 0.636132
360 0.570004
365 0.543014
370 0.567813
375 0.449751
380 0.720057
385 0.451503
390 0.459782
395 0.478525
400 0.52295
405 0.426025
410 0.574885
415 0.590571
420 0.628366
425 0.44943
430 0.475182
435 0.506468
440 0.583279
445 0.485829
450 0.478158
455 0.59815
460 0.685746
465 0.675279
470 0.601002
475 0.524578
480 0.583086
485 0.737148
490 0.714058
495 0.61806
500 0.612521
505 0.640204
510 0.471537
515 0.527721
520 0.543938
525 0.573067
530 0.692367
535 0.589642
540 0.555314
545 0.566269
550 0.583767
555 0.582373
560 0.659573
565 0.58663
570 0.654941
575 0.700773
580 5.9092
585 122.899
590 219.792
595 63.5174
600 9.54242
Ex : 598
200 0.571607
205 0.459538
210 0.590579
215 0.579595
220 0.394297
225 0.457811
230 0.72782
235 0.578642
240 0.643321
245 0.520678
250 0.555944
255 0.626872
260 0.666177
265 0.498676
270 0.508658
275 0.534941
280 0.458157
285 0.489286
290 0.552467
295 0.49692
300 0.484435
305 0.399762
310 0.55053
315 0.489905
320 0.522123
325 0.588809
330 0.576315
335 0.494776
340 0.643114
345 0.548581
350 0.568909
355 0.555734
360 0.541145
365 0.597533
370 0.375554
375 0.53055
380 0.513336
385 0.559394
390 0.562803
395 0.547429
400 0.631824
405 0.537393
410 0.613236
415 0.549717
420 0.716108
425 0.526369
430 0.547311
435 0.647869
440 0.712698
445 0.630096
450 0.663438
455 0.57437
460 0.494254
465 0.667863
470 0.516488
475 0.510612
480 0.511308
485 0.484018
490 0.530091
495 0.609085
500 0.632766
505 0.486028
510 0.552392
515 0.525349
520 0.505495
525 0.628458
530 0.634781
535 0.57076
540 0.547489
545 0.509893
550 0.602647
555 0.685272
560 0.61871
565 0.59659
570 0.644566
575 0.810728
580 0.777882
585 5.6505
590 110.373
595 192.748
600 110.919
Ex : 603
200 0.387728
205 0.536826
210 0.481653
215 0.480648
220 0.400198
225 0.515601
230 0.520606
235 0.696379
240 0.586569
245 0.466253
250 0.588807
255 0.522482
260 0.473709
265 0.498276
270 0.538457
275 0.542043
280 0.699107
285 0.654485
290 0.782935
295 0.552005
300 0.606809
305 0.442877
310 0.472427
315 0.542251
320 0.588995
325 0.436375
330 0.596213
335 0.758736
340 0.63934
345 0.475628
350 0.534168
355 0.537162
360 0.447211
365 0.474863
370 0.660121
375 0.574295
380 0.587946
385 0.634115
390 0.652837
395 0.496794
400 0.551199
405 0.585472
410 0.494534
415 0.494167
420 0.577096
425 0.480886
430 0.688875
435 0.619387
440 0.59215
445 0.738775
450 0.642877
455 0.522522
460 0.450853
465 0.41442
470 0.540991
475 0.511874
480 0.630402
485 0.61202
490 0.580133
495 0.517211
500 0.604153
505 0.742701
510 0.64404
515 0.599248
520 0.506313
525 0.493796
530 0.56933
535 0.545836
540 0.629222
545 0.532187
550 0.821557
555 0.571427
560 0.494984
565 0.651623
570 0.787699
575 0.766534
580 0.878308
585 0.650026
590 4.90485
595 91.4047
600 192.218
