File format V 1.0
ven. 9. déc. 16:00:51 2016
Operator : 
Comments : 

=============================================
SpectroFluorometer parameters
Mode : 3D measurement
Data : Fluorescence
Phospho. : Ordinary
Spectrum : Fluorescence

Scan speed : 2400 nm/mn
Response : 100 ms
PM Voltage : 700 V
Shutter : On

Lambda Ex. Start : 203
Lambda Ex. End : 603
Lambda Ex. Step : 5
Ex. Slit : 5 nm

Lambda Em. Start : 200
Lambda Em. End : 600
Lambda Em. Step : 5
Em. Slit : 5 nm

Repetition : 1
Decal lambda em : 10
=============================================
DATA
Ex : 203
200 94.331
205 108.158
210 108.872
215 90.9055
220 98.0039
225 97.0865
230 101.081
235 103.484
240 102.275
245 104.69
250 90.8809
255 86.5619
260 87.8566
265 100.432
270 96.9305
275 98.5094
280 90.7316
285 81.6291
290 69.3035
295 87.7395
300 88.3605
305 77.0855
310 57.6288
315 74.2259
320 82.4608
325 77.71
330 69.6367
335 54.9985
340 78.3775
345 83.7661
350 93.1886
355 88.4516
360 86.6869
365 92.3622
370 86.5549
375 76.373
380 86.2728
385 90.0525
390 78.8398
395 96.8089
400 80.8559
405 67.4189
410 89.1366
415 80.8019
420 96.1414
425 76.7273
430 85.7882
435 79.798
440 85.5484
445 86.5796
450 75.57
455 71.4809
460 64.8823
465 84.6319
470 82.2529
475 82.5321
480 97.0213
485 77.8194
490 77.8964
495 79.8197
500 59.9243
505 71.1712
510 81.1593
515 72.6455
520 65.5035
525 63.8898
530 51.7253
535 62.8676
540 75.8695
545 68.2258
550 64.2392
555 55.4474
560 61.5744
565 69.7867
570 77.2453
575 77.5137
580 71.6109
585 65.7123
590 65.6741
595 60.953
600 123.915
Ex : 208
200 65.4028
205 66.8044
210 62.8728
215 57.5059
220 70.7135
225 63.9157
230 60.234
235 51.9205
240 38.1408
245 59.4551
250 60.6169
255 61.6834
260 59.6832
265 61.2966
270 59.0543
275 51.2934
280 56.0686
285 57.3301
290 53.4281
295 69.8866
300 64.8979
305 64.5873
310 55.478
315 63.5685
320 63.6987
325 58.1621
330 68.8054
335 67.26
340 60.645
345 62.0372
350 53.8033
355 42.7392
360 54.8323
365 56.1776
370 43.683
375 49.5092
380 44.2002
385 68.2732
390 53.5968
395 62.5822
400 58.121
405 64.3876
410 63.0572
415 52.3654
420 59.0839
425 57.8438
430 39.9024
435 44.3571
440 52.1164
445 55.3677
450 38.692
455 39.6027
460 52.3616
465 45.6393
470 46.5357
475 52.6879
480 48.107
485 53.6593
490 40.9196
495 64.726
500 50.8775
505 39.1084
510 43.2383
515 41.6004
520 40.6107
525 41.223
530 44.7146
535 42.4275
540 37.7664
545 46.3394
550 43.1221
555 33.6864
560 44.2589
565 27.3261
570 46.1274
575 39.7246
580 43.2244
585 45.5783
590 48.1426
595 41.8601
600 50.8461
Ex : 213
200 44.194
205 39.4971
210 35.5591
215 40.2476
220 29.6654
225 40.2391
230 37.9193
235 49.9415
240 43.829
245 43.12
250 41.7582
255 50.096
260 44.0713
265 36.472
270 39.8005
275 48.3134
280 48.9707
285 47.0129
290 39.7744
295 34.6824
300 41.1817
305 34.0886
310 28.389
315 39.3745
320 31.0444
325 30.358
330 32.2664
335 38.54
340 39.7391
345 36.3996
350 53.5191
355 46.7413
360 42.533
365 41.2169
370 23.4506
375 24.8237
380 35.5945
385 30.1009
390 32.6904
395 39.3293
400 31.2815
405 32.7786
410 33.8335
415 36.9697
420 32.6484
425 34.3007
430 36.6062
435 32.3078
440 33.6967
445 27.6175
450 36.623
455 44.1566
460 31.1006
465 26.7004
470 41.1306
475 38.2676
480 43.2779
485 42.599
490 41.031
495 31.9466
500 36.2438
505 39.7673
510 33.9335
515 38.6094
520 31.6925
525 32.7846
530 39.532
535 29.7145
540 42.2488
545 49.7606
550 37.3118
555 30.8074
560 38.5046
565 33.3015
570 28.4473
575 25.7739
580 29.3611
585 33.8774
590 26.8692
595 37.8008
600 17.0038
Ex : 218
200 43.3615
205 37.1114
210 47.2985
215 29.997
220 39.1001
225 41.7106
230 37.8973
235 34.034
240 36.2836
245 28.975
250 31.4359
255 33.4963
260 30.8569
265 29.5465
270 41.8089
275 39.0499
280 39.148
285 29.679
290 32.3726
295 27.3411
300 24.9517
305 25.6342
310 28.2209
315 29.595
320 29.1086
325 28.1513
330 31.8999
335 27.7104
340 36.2879
345 28.2046
350 34.4599
355 32.6477
360 28.2455
365 39.0578
370 40.0962
375 28.1686
380 37.6035
385 28.1769
390 29.6617
395 30.9893
400 34.9381
405 35.6364
410 39.4539
415 43.364
420 40.7302
425 34.674
430 33.6851
435 59.5164
440 47.9228
445 39.0445
450 37.853
455 34.6392
460 31.1254
465 35.2094
470 33.8422
475 33.4919
480 34.5955
485 39.9847
490 46.3866
495 35.3414
500 40.7499
505 39.6726
510 32.8306
515 38.8362
520 41.4201
525 48.7192
530 38.5668
535 32.8739
540 44.8378
545 42.5351
550 37.8344
555 35.7119
560 35.5902
565 50.0174
570 51.5544
575 38.4001
580 34.9471
585 27.9855
590 24.326
595 41.9199
600 4.77032
Ex : 223
200 29.1469
205 27.7339
210 41.4269
215 36.6001
220 36.8622
225 43.4125
230 36.0565
235 33.0309
240 25.1785
245 27.2417
250 30.7605
255 25.2986
260 37.2754
265 31.3504
270 27.9546
275 28.4143
280 23.5975
285 24.5532
290 23.0185
295 16.7779
300 15.994
305 23.6691
310 22.2203
315 21.2165
320 23.5346
325 20.6891
330 23.6295
335 20.6086
340 28.9685
345 27.4809
350 17.9869
355 26.5631
360 24.7605
365 25.8299
370 26.804
375 33.2811
380 24.9438
385 24.2897
390 31.3134
395 35.9984
400 36.4796
405 26.7669
410 22.9918
415 23.9544
420 26.5801
425 32.6492
430 27.7721
435 37.2888
440 24.3753
445 31.2563
450 33.8997
455 30.3786
460 41.1527
465 36.0913
470 32.1076
475 24.4674
480 24.4239
485 26.06
490 37.9445
495 41.2144
500 29.341
505 33.2072
510 28.2172
515 30.998
520 32.8346
525 38.2104
530 32.0421
535 36.2236
540 35.9318
545 27.3825
550 25.4056
555 24.0499
560 30.0306
565 31.2295
570 27.1701
575 25.241
580 24.2536
585 21.9781
590 21.5577
595 27.7537
600 45.9176
Ex : 228
200 19.2988
205 24.5124
210 27.4223
215 26.0429
220 25.7396
225 21.6787
230 17.7423
235 27.3569
240 26.7807
245 28.5411
250 18.4165
255 24.0725
260 30.4886
265 30.8601
270 21.3975
275 25.7313
280 26.9895
285 28.8179
290 33.3713
295 27.0865
300 23.8417
305 23.1515
310 29.4668
315 27.6064
320 28.2961
325 30.9052
330 25.7842
335 27.0533
340 22.129
345 20.7176
350 19.8668
355 19.1456
360 22.6025
365 25.2506
370 20.9624
375 21.2277
380 24.2317
385 26.3355
390 22.3659
395 22.7338
400 30.9931
405 25.2082
410 17.5796
415 19.3075
420 28.9182
425 25.1812
430 24.1403
435 19.7472
440 24.9014
445 24.9206
450 26.2065
455 17.5589
460 22.3993
465 16.4221
470 16.2639
475 23.8113
480 18.9884
485 18.561
490 23.7421
495 18.671
500 19.9881
505 27.8278
510 23.8448
515 24.7896
520 17.5622
525 18.7499
530 17.5606
535 16.6583
540 21.853
545 19.7706
550 17.7098
555 19.1427
560 12.5155
565 12.1325
570 10.4985
575 11.1087
580 8.82259
585 9.58404
590 10.2325
595 7.31088
600 89.0092
Ex : 233
200 5.76923
205 4.16232
210 5.00713
215 3.81921
220 4.10389
225 5.27635
230 8.35335
235 9.83491
240 4.60425
245 5.98608
250 6.67545
255 4.70728
260 6.30667
265 4.35364
270 5.32157
275 4.91213
280 3.74295
285 5.52786
290 3.68821
295 6.25082
300 6.14256
305 4.82425
310 6.32644
315 3.47521
320 7.56475
325 5.37993
330 5.31226
335 4.9241
340 3.85266
345 4.47091
350 5.40865
355 5.20171
360 3.83958
365 5.61396
370 7.79332
375 10.4035
380 7.91168
385 4.55191
390 4.24497
395 4.61868
400 7.80289
405 5.68908
410 5.43843
415 4.26824
420 6.32973
425 8.57025
430 6.67149
435 5.33871
440 7.87977
445 5.53343
450 5.58371
455 7.318
460 7.44236
465 6.32293
470 5.61334
475 5.64686
480 4.41271
485 6.57211
490 3.92427
495 4.71646
500 5.39291
505 5.58852
510 8.42843
515 4.59063
520 5.07056
525 4.05284
530 3.51368
535 5.80822
540 5.62177
545 4.35863
550 8.23693
555 5.06777
560 6.12627
565 5.82974
570 8.05336
575 6.72906
580 6.48674
585 6.08477
590 4.74076
595 4.16686
600 31.4913
Ex : 238
200 3.64423
205 4.7149
210 4.64692
215 6.91741
220 5.11872
225 3.30927
230 5.28894
235 6.32347
240 4.06795
245 3.99971
250 4.56829
255 4.61637
260 5.80057
265 4.03736
270 4.1422
275 4.36812
280 4.40587
285 3.51532
290 5.56624
295 3.59371
300 4.73754
305 3.91423
310 7.23255
315 4.66179
320 5.74222
325 4.15024
330 7.13409
335 5.14287
340 3.42109
345 4.3605
350 5.19093
355 4.70118
360 5.39189
365 5.02266
370 3.65134
375 6.26713
380 9.41907
385 5.41556
390 5.27517
395 4.61659
400 5.25777
405 5.44585
410 3.47098
415 5.19302
420 4.91719
425 5.80894
430 5.14079
435 4.30795
440 5.31559
445 6.08163
450 8.11512
455 5.30623
460 3.28752
465 4.53927
470 4.44482
475 4.45218
480 2.78982
485 5.09487
490 3.64556
495 3.34425
500 1.97985
505 4.6814
510 2.69257
515 5.75367
520 5.31166
525 4.6351
530 4.67035
535 4.2308
540 6.19303
545 7.68191
550 5.23924
555 5.30525
560 9.20955
565 4.91378
570 3.91989
575 6.93481
580 5.52991
585 2.65373
590 5.07619
595 4.36338
600 38.6033
Ex : 243
200 3.16667
205 2.92846
210 1.90058
215 5.10505
220 3.90237
225 3.35747
230 4.90983
235 3.77166
240 3.382
245 3.46164
250 2.8887
255 2.63495
260 3.96754
265 4.00757
270 4.65487
275 4.17384
280 3.65776
285 4.03429
290 3.07143
295 2.76301
300 5.30805
305 3.50939
310 7.10648
315 3.4673
320 3.25096
325 3.92998
330 3.8822
335 3.95177
340 4.31207
345 5.07601
350 4.63268
355 4.9582
360 6.79427
365 6.20709
370 4.15104
375 3.57979
380 4.18875
385 4.40288
390 4.6081
395 3.69469
400 4.58485
405 5.23708
410 3.48575
415 4.83919
420 5.5663
425 5.26808
430 4.90119
435 4.95859
440 3.73301
445 3.84613
450 3.50141
455 3.49445
460 5.30586
465 3.63369
470 5.26596
475 6.02491
480 2.76594
485 4.16274
490 5.2293
495 2.62549
500 3.30617
505 3.96445
510 4.88967
515 4.11214
520 3.22067
525 4.66478
530 4.71445
535 3.41665
540 3.99745
545 3.57492
550 3.0581
555 3.42966
560 4.94587
565 3.32613
570 4.23077
575 6.30661
580 3.96585
585 2.92822
590 3.53028
595 3.79761
600 0.432153
Ex : 248
200 4.00334
205 2.84832
210 1.88878
215 2.91484
220 2.98722
225 2.78306
230 3.12409
235 3.77064
240 3.15416
245 3.72093
250 5.3197
255 2.68094
260 3.71379
265 3.33851
270 3.57822
275 2.91064
280 3.06984
285 2.94907
290 4.95352
295 3.3327
300 4.29255
305 4.98833
310 3.12641
315 4.43045
320 4.33715
325 3.91493
330 4.32421
335 3.60918
340 2.73129
345 4.79378
350 3.27253
355 3.06743
360 3.19424
365 4.30218
370 2.95566
375 3.78631
380 4.32479
385 4.05273
390 3.23817
395 3.46396
400 3.34407
405 3.72974
410 3.66215
415 6.30541
420 4.16388
425 3.53774
430 4.28322
435 3.61144
440 2.75605
445 2.78322
450 3.02746
455 4.60977
460 2.78864
465 1.3873
470 4.92354
475 3.52469
480 2.98197
485 3.809
490 2.95806
495 3.87528
500 3.93061
505 3.37643
510 2.89305
515 3.71887
520 2.89084
525 3.23237
530 3.23641
535 2.42478
540 3.01625
545 4.72502
550 4.08857
555 5.42554
560 3.97341
565 4.87078
570 2.67995
575 2.83434
580 3.65039
585 3.94764
590 3.00903
595 3.36287
600 0.382682
Ex : 253
200 2.23387
205 2.4438
210 2.408
215 1.72439
220 2.10607
225 2.37539
230 3.34264
235 2.68851
240 2.3005
245 3.26068
250 3.10171
255 2.89639
260 2.49422
265 2.55777
270 4.27652
275 3.23792
280 2.93943
285 3.36277
290 3.34084
295 2.10714
300 3.55191
305 2.71902
310 2.18521
315 2.06351
320 2.37067
325 2.46815
330 2.91513
335 2.56129
340 2.35675
345 2.96342
350 3.07353
355 3.65745
360 2.66616
365 4.10412
370 2.77216
375 5.41113
380 3.08955
385 3.52101
390 2.97605
395 2.8328
400 4.38474
405 3.83219
410 4.74992
415 2.49977
420 2.68845
425 3.68428
430 3.76443
435 2.72965
440 3.34764
445 3.88795
450 3.42446
455 2.91574
460 3.74533
465 3.07277
470 4.57674
475 3.50342
480 2.76439
485 2.37184
490 2.28423
495 3.33937
500 3.18172
505 3.40685
510 4.60462
515 3.16116
520 2.97328
525 2.03327
530 2.42675
535 1.54694
540 2.13643
545 2.38866
550 3.09599
555 1.74286
560 1.91688
565 2.62704
570 2.55272
575 4.487
580 4.01016
585 2.84117
590 2.08606
595 1.93755
600 0.220486
Ex : 258
200 1.82744
205 2.51821
210 1.74685
215 1.64825
220 1.7975
225 2.30689
230 2.93998
235 1.52498
240 2.02089
245 2.58942
250 2.27483
255 1.83413
260 3.10377
265 1.96922
270 1.50973
275 1.84325
280 2.32315
285 3.47336
290 2.98078
295 1.89279
300 3.19159
305 2.68456
310 1.48169
315 1.7135
320 1.74954
325 0.982897
330 1.33847
335 2.02319
340 2.15805
345 2.10661
350 2.59853
355 1.80971
360 1.66535
365 1.64857
370 1.54708
375 2.09995
380 2.25527
385 1.9516
390 2.15597
395 2.44054
400 1.56592
405 2.11842
410 2.06989
415 1.70539
420 2.49156
425 2.93668
430 1.67838
435 1.37556
440 2.13746
445 2.51109
450 2.09869
455 2.36385
460 2.34882
465 2.64164
470 2.52254
475 2.07564
480 2.5462
485 3.02772
490 2.07501
495 2.23511
500 2.67295
505 2.28431
510 2.48806
515 2.43666
520 1.67782
525 2.74794
530 2.68796
535 2.65404
540 1.95417
545 2.30551
550 3.27801
555 3.30559
560 2.28546
565 2.33271
570 1.35348
575 1.46604
580 2.13532
585 2.31389
590 2.64157
595 1.35986
600 0.154747
Ex : 263
200 1.15049
205 1.61029
210 1.07939
215 1.4557
220 1.00476
225 1.25824
230 1.37653
235 1.73338
240 1.20778
245 1.66749
250 1.98789
255 1.47808
260 2.10435
265 1.73887
270 1.81365
275 1.51555
280 1.166
285 1.39627
290 1.31238
295 1.78714
300 1.3802
305 1.47412
310 1.4259
315 1.93758
320 1.97867
325 1.20534
330 1.26017
335 1.56219
340 2.89499
345 1.41849
350 1.63122
355 2.1709
360 1.67457
365 1.58133
370 2.51897
375 1.8835
380 2.15684
385 1.59132
390 1.69394
395 2.05052
400 2.01847
405 1.62007
410 2.53896
415 2.39641
420 2.4451
425 2.98499
430 2.19032
435 2.17479
440 2.23783
445 1.6834
450 1.65264
455 1.64827
460 2.05513
465 1.3469
470 2.29007
475 1.80139
480 2.83957
485 2.16751
490 1.30895
495 1.5129
500 2.16396
505 2.925
510 2.33809
515 1.951
520 1.98582
525 2.78739
530 1.82315
535 2.4457
540 1.43311
545 1.2222
550 1.66479
555 1.37105
560 1.50766
565 1.64811
570 1.56254
575 1.71746
580 1.49625
585 1.63689
590 1.1429
595 1.29144
600 0.146961
Ex : 268
200 0.739927
205 1.09234
210 1.10035
215 1.20374
220 1.03314
225 0.956493
230 1.36002
235 1.34865
240 1.19548
245 0.757389
250 1.0095
255 0.88212
260 1.39321
265 1.08045
270 1.03486
275 0.937832
280 1.15597
285 1.59727
290 0.933229
295 0.721587
300 1.39766
305 0.835565
310 0.985643
315 0.860242
320 1.28391
325 1.6172
330 1.30299
335 1.20974
340 1.24874
345 1.2955
350 1.03917
355 1.71928
360 1.36407
365 1.5483
370 1.9908
375 2.6926
380 1.64178
385 1.1646
390 1.58318
395 1.9161
400 3.06672
405 1.38215
410 1.71216
415 2.0891
420 1.64785
425 1.88183
430 1.74104
435 1.87554
440 1.41318
445 1.75398
450 1.33884
455 1.45747
460 1.33679
465 1.24224
470 1.84389
475 1.90268
480 1.22132
485 1.67963
490 1.76723
495 1.42443
500 1.11374
505 1.4279
510 1.49851
515 1.0433
520 1.23408
525 1.03743
530 1.98712
535 1.97224
540 1.79604
545 1.32581
550 1.22459
555 1.39887
560 1.38904
565 1.82066
570 1.08131
575 1.22941
580 0.982577
585 0.982719
590 1.11367
595 1.07647
600 0.872363
Ex : 273
200 0.740451
205 0.780878
210 1.27253
215 1.28045
220 0.766494
225 1.20488
230 1.15883
235 0.976171
240 0.668379
245 0.895379
250 0.836877
255 1.16329
260 1.07325
265 1.35642
270 1.30002
275 1.22071
280 0.840673
285 1.30058
290 0.640734
295 1.29275
300 1.07332
305 0.949323
310 0.779957
315 1.03915
320 1.06788
325 1.08521
330 1.14995
335 1.05333
340 1.12027
345 0.895933
350 1.37675
355 1.53795
360 1.15756
365 1.89626
370 1.5002
375 1.71849
380 1.63149
385 1.49432
390 1.06428
395 1.03183
400 1.54647
405 1.52601
410 1.54221
415 1.67327
420 1.52326
425 1.28524
430 2.18638
435 1.77219
440 1.61504
445 1.25421
450 1.33954
455 1.13543
460 1.2705
465 1.48916
470 1.27656
475 1.09584
480 1.38442
485 1.09141
490 1.12162
495 1.11105
500 0.949337
505 0.640993
510 1.39745
515 1.04348
520 0.784482
525 0.764979
530 0.792434
535 1.2826
540 1.44043
545 1.38024
550 1.47803
555 0.990463
560 0.766264
565 1.23572
570 1.10154
575 0.819441
580 1.04136
585 0.938242
590 0.987681
595 1.04207
600 0.118583
Ex : 278
200 0.753981
205 0.82093
210 0.783402
215 0.862009
220 0.870427
225 1.00827
230 0.971184
235 0.482266
240 0.634822
245 0.573169
250 0.599817
255 0.676984
260 0.533785
265 1.00603
270 1.33842
275 0.870967
280 0.627688
285 0.950468
290 0.819731
295 0.771894
300 0.752132
305 0.752408
310 0.792577
315 1.03002
320 0.764795
325 0.904625
330 0.882514
335 0.800513
340 0.818071
345 0.8469
350 1.10949
355 0.794846
360 0.856878
365 0.768594
370 0.986066
375 1.25551
380 1.0896
385 1.3494
390 1.34179
395 1.65713
400 1.40719
405 1.5315
410 1.60237
415 1.68525
420 1.36553
425 1.41043
430 1.11947
435 1.14112
440 1.24118
445 1.38538
450 1.29971
455 1.89667
460 1.69403
465 1.14096
470 1.03762
475 0.771635
480 1.51763
485 1.03175
490 1.0094
495 1.18629
500 0.848543
505 0.671981
510 0.92834
515 0.783452
520 0.684053
525 0.576377
530 0.710891
535 0.838069
540 1.04151
545 1.09857
550 1.0019
555 0.972703
560 0.862129
565 0.948891
570 0.962249
575 1.0304
580 0.436375
585 0.877305
590 0.853071
595 0.746911
600 1.08936
Ex : 283
200 0.817211
205 0.660785
210 0.567797
215 0.597529
220 0.443386
225 0.612293
230 0.530815
235 0.645622
240 0.318349
245 0.580575
250 0.73637
255 0.489823
260 0.76755
265 0.596567
270 0.701145
275 0.721583
280 0.963572
285 0.781923
290 0.652493
295 0.74607
300 0.988587
305 0.829533
310 0.956811
315 0.917946
320 0.639937
325 1.17585
330 0.87669
335 0.622351
340 0.985651
345 1.01093
350 0.766189
355 0.721563
360 0.679937
365 0.922649
370 0.7671
375 0.972304
380 1.04891
385 1.17767
390 1.29354
395 1.05304
400 0.937958
405 0.876287
410 1.05639
415 1.25706
420 1.23422
425 1.20533
430 1.15879
435 1.05629
440 1.25721
445 0.985197
450 1.26876
455 1.04074
460 0.654881
465 0.883874
470 0.994559
475 1.19227
480 0.81659
485 1.00239
490 1.05666
495 0.696276
500 0.76419
505 0.779866
510 0.697524
515 1.12105
520 0.904501
525 0.70705
530 0.78727
535 0.781824
540 0.551233
545 0.68642
550 0.789588
555 0.819386
560 1.07956
565 0.873081
570 0.660755
575 0.60391
580 0.653952
585 0.496391
590 0.675046
595 0.541867
600 0.160129
Ex : 288
200 0.5
205 0.456111
210 0.500482
215 0.639472
220 0.775877
225 0.504977
230 0.688168
235 0.36945
240 0.426979
245 0.577349
250 0.59782
255 0.712496
260 0.695793
265 0.461453
270 0.507129
275 0.50479
280 0.540782
285 0.687934
290 0.756349
295 0.724534
300 0.801142
305 0.582388
310 0.84988
315 0.683355
320 0.533868
325 0.785145
330 0.40935
335 0.610892
340 0.585063
345 0.593889
350 1.1034
355 0.765875
360 1.05999
365 0.680382
370 0.819571
375 0.815152
380 0.918327
385 1.05933
390 1.2836
395 1.02881
400 1.03116
405 1.22695
410 1.21405
415 0.887291
420 1.31141
425 1.15624
430 1.02529
435 0.986485
440 0.92253
445 1.13897
450 1.12453
455 0.835835
460 1.20672
465 0.960718
470 0.801143
475 0.604734
480 1.05338
485 0.772757
490 0.8573
495 0.633333
500 0.707621
505 0.783204
510 0.664124
515 0.761053
520 0.691576
525 0.585101
530 0.774132
535 0.390699
540 0.762076
545 0.654508
550 0.5926
555 0.766601
560 0.513725
565 0.690819
570 1.06957
575 0.791977
580 0.479225
585 0.53203
590 0.552602
595 0.601537
600 1.90269
Ex : 293
200 0.413074
205 0.457975
210 0.427229
215 0.632256
220 0.570914
225 0.51568
230 0.923522
235 0.479617
240 0.510147
245 0.343238
250 0.35738
255 0.254682
260 0.534839
265 0.533533
270 0.408027
275 0.609308
280 0.398692
285 0.486766
290 0.657977
295 0.353786
300 0.732157
305 0.447776
310 0.32653
315 0.369268
320 0.352851
325 0.348028
330 0.450769
335 0.471874
340 0.432105
345 0.52512
350 0.67338
355 0.638756
360 0.919015
365 0.724838
370 0.712859
375 0.998367
380 1.13836
385 0.834543
390 1.0347
395 1.01873
400 1.09218
405 0.886051
410 0.884616
415 0.932551
420 0.953553
425 1.22905
430 0.924869
435 0.955037
440 0.860932
445 0.959332
450 0.669549
455 1.09808
460 0.938363
465 0.99256
470 0.736574
475 0.763101
480 0.678064
485 0.869607
490 0.819579
495 0.632913
500 0.79217
505 0.769526
510 0.542921
515 0.750767
520 0.757536
525 0.612507
530 0.392074
535 0.483068
540 0.572521
545 0.695123
550 0.432988
555 0.501712
560 0.414772
565 0.588839
570 0.483146
575 0.706563
580 0.867904
585 0.889208
590 0.544078
595 0.490085
600 0.0557698
Ex : 298
200 0.612161
205 0.469098
210 0.367362
215 0.534797
220 0.369956
225 0.322558
230 0.363744
235 0.330681
240 0.328079
245 0.282235
250 0.367946
255 0.405099
260 0.552815
265 0.453924
270 0.485305
275 0.410364
280 0.410174
285 0.470993
290 0.546138
295 0.649732
300 0.492709
305 0.321893
310 0.454868
315 0.28343
320 0.46592
325 0.437473
330 0.563583
335 0.351916
340 0.463176
345 0.694403
350 0.642498
355 0.79607
360 0.596992
365 0.961196
370 0.756807
375 0.758579
380 0.896862
385 1.16528
390 1.00354
395 1.24747
400 1.202
405 1.18378
410 1.17159
415 0.937981
420 0.922969
425 1.16921
430 0.915345
435 0.935561
440 0.892021
445 0.779842
450 0.910862
455 1.07807
460 0.931532
465 0.911239
470 0.504353
475 0.590794
480 0.575684
485 0.748541
490 0.545397
495 0.748073
500 0.41584
505 0.354622
510 0.640746
515 0.435166
520 0.457262
525 0.609426
530 0.552801
535 0.292622
540 0.321224
545 0.474478
550 0.585863
555 0.473384
560 0.396987
565 0.38276
570 0.272051
575 0.528412
580 0.624112
585 0.763738
590 0.927054
595 0.771073
600 0.448235
Ex : 303
200 0.522801
205 0.318387
210 0.431949
215 0.387884
220 0.376063
225 0.362188
230 0.277817
235 0.446119
240 0.348317
245 0.273002
250 0.331047
255 0.396935
260 0.449494
265 0.423711
270 0.438905
275 0.245634
280 0.55286
285 0.491025
290 0.418006
295 0.553139
300 0.430773
305 0.285234
310 0.388548
315 0.285528
320 0.33829
325 0.380432
330 0.508064
335 0.35985
340 0.504736
345 0.459905
350 0.490274
355 0.634241
360 0.509976
365 0.720919
370 0.692094
375 0.701034
380 0.787074
385 0.897132
390 0.888503
395 1.1417
400 1.172
405 1.12423
410 1.08489
415 0.834417
420 0.772449
425 0.834094
430 0.978831
435 0.928155
440 0.698032
445 0.761277
450 1.00584
455 0.803152
460 0.863893
465 0.674952
470 0.733602
475 0.727263
480 0.752628
485 0.595221
490 0.530962
495 0.537238
500 0.601646
505 0.572795
510 0.521915
515 0.491765
520 0.461949
525 0.400662
530 0.438561
535 0.437277
540 0.325838
545 0.301819
550 0.29969
555 0.456596
560 0.382227
565 0.403264
570 0.292844
575 0.425073
580 0.239507
585 0.29587
590 0.490743
595 0.460416
600 0.740194
Ex : 308
200 0.170832
205 0.461831
210 0.313336
215 0.314948
220 0.307753
225 0.379672
230 0.238519
235 0.23323
240 0.328131
245 0.414671
250 0.331613
255 0.325369
260 0.275597
265 0.315972
270 0.265776
275 0.236997
280 0.250227
285 0.442663
290 0.233403
295 0.325551
300 0.326871
305 0.552477
310 0.331451
315 0.302957
320 0.24333
325 0.231782
330 0.345626
335 0.480458
340 0.534254
345 0.469944
350 0.381681
355 0.604197
360 0.557285
365 0.602907
370 0.718304
375 0.765391
380 0.916338
385 0.879457
390 0.974744
395 1.10506
400 1.11904
405 0.997382
410 0.949363
415 1.01431
420 0.999362
425 1.16353
430 0.833841
435 0.728254
440 0.802842
445 0.854165
450 0.937269
455 0.727169
460 0.861457
465 0.82326
470 0.685149
475 0.623433
480 0.626336
485 0.713681
490 0.539615
495 0.579687
500 0.557515
505 0.426568
510 0.413333
515 0.60102
520 0.493169
525 0.36444
530 0.239765
535 0.45593
540 0.443699
545 0.380156
550 0.48339
555 0.4379
560 0.384638
565 0.324383
570 0.489787
575 0.318367
580 0.266682
585 0.254678
590 0.3069
595 0.245496
600 0.580375
Ex : 313
200 0.316732
205 0.403084
210 0.298787
215 0.325359
220 0.27725
225 0.279147
230 0.242647
235 0.240819
240 0.323639
245 0.344673
250 0.246674
255 0.306506
260 0.301613
265 0.327376
270 0.247328
275 0.295452
280 0.205419
285 0.188112
290 0.254038
295 0.21367
300 0.34562
305 0.587541
310 0.434127
315 0.268017
320 0.213563
325 0.373413
330 0.265486
335 0.540161
340 0.458948
345 0.343308
350 0.670618
355 0.526647
360 0.595565
365 0.563917
370 0.793021
375 0.871283
380 1.05222
385 0.946996
390 0.783027
395 1.18007
400 1.29012
405 1.20956
410 0.899604
415 1.18396
420 1.15403
425 1.15207
430 0.952881
435 0.869863
440 1.03836
445 1.00561
450 0.872224
455 0.774234
460 0.877971
465 0.724746
470 0.793285
475 0.712957
480 0.554106
485 0.742286
490 0.50055
495 0.404243
500 0.390761
505 0.527578
510 0.459554
515 0.432985
520 0.509999
525 0.336943
530 0.368216
535 0.394641
540 0.468778
545 0.333777
550 0.346032
555 0.257032
560 0.291506
565 0.429378
570 0.269916
575 0.291952
580 0.249187
585 0.304611
590 0.234629
595 0.395597
600 0.436596
Ex : 318
200 0.242213
205 0.173808
210 0.295576
215 0.350201
220 0.235033
225 0.186254
230 0.179622
235 0.302363
240 0.193619
245 0.214077
250 0.227982
255 0.290773
260 0.224841
265 0.328933
270 0.317144
275 0.283252
280 0.25255
285 0.298618
290 0.270482
295 0.213063
300 0.225047
305 0.198763
310 0.368224
315 0.621971
320 0.256796
325 0.297383
330 0.486477
335 0.709703
340 1.038
345 1.21879
350 1.4689
355 2.04883
360 2.39702
365 2.83641
370 3.10766
375 4.17256
380 4.68743
385 5.78589
390 5.72823
395 6.16205
400 6.45526
405 6.58621
410 6.61531
415 6.73713
420 6.21708
425 5.74729
430 6.05777
435 5.55452
440 5.36687
445 5.01202
450 4.90721
455 4.39089
460 3.90291
465 3.98828
470 3.62621
475 2.95897
480 2.67768
485 3.0185
490 2.33734
495 1.85881
500 1.58383
505 1.43133
510 1.29347
515 1.28115
520 1.06692
525 0.98423
530 0.891227
535 0.774726
540 0.686639
545 0.724388
550 0.541231
555 0.527966
560 0.471109
565 0.447155
570 0.549164
575 0.387882
580 0.418404
585 0.332208
590 0.225542
595 0.45259
600 0.162278
Ex : 323
200 0.281398
205 0.213296
210 0.206456
215 0.220137
220 0.164935
225 0.205508
230 0.220679
235 0.210153
240 0.258664
245 0.237953
250 0.327247
255 0.154433
260 0.293402
265 0.20995
270 0.245442
275 0.277865
280 0.347018
285 0.386265
290 0.28636
295 0.232362
300 0.325241
305 0.324429
310 0.234143
315 1.42691
320 6.00144
325 3.0821
330 1.68326
335 2.70002
340 3.74001
345 5.76378
350 8.2233
355 11.3454
360 13.6768
365 16.8391
370 19.0686
375 22.413
380 25.5602
385 29.0799
390 32.2149
395 33.5944
400 35.1696
405 36.5431
410 36.3315
415 35.3808
420 35.292
425 34.4036
430 33.4927
435 31.1158
440 30.173
445 28.5444
450 27.159
455 25.2753
460 22.9964
465 21.6713
470 19.1529
475 17.6843
480 16.2364
485 14.437
490 12.9461
495 11.7052
500 10.3384
505 8.99214
510 7.78005
515 6.83757
520 6.1292
525 4.85602
530 4.32991
535 3.64117
540 3.40268
545 2.74342
550 2.51398
555 1.79742
560 1.69287
565 1.58616
570 1.35643
575 1.25441
580 0.790388
585 0.658859
590 0.578232
595 0.375832
600 0.611276
Ex : 328
200 0.357623
205 0.269565
210 0.203727
215 0.222675
220 0.278826
225 0.26828
230 0.183564
235 0.240203
240 0.204502
245 0.167078
250 0.196107
255 0.213745
260 0.141728
265 0.232849
270 0.175138
275 0.260272
280 0.241061
285 0.309106
290 0.295492
295 0.230094
300 0.244637
305 0.214361
310 0.221854
315 0.609137
320 15.9174
325 42.2913
330 14.9558
335 5.24726
340 5.85013
345 8.35836
350 10.4389
355 14.9844
360 21.1483
365 23.5551
370 26.2774
375 30.358
380 33.8959
385 38.432
390 42.1489
395 44.4051
400 45.8842
405 46.3676
410 48.7186
415 47.0483
420 45.7816
425 44.799
430 42.5921
435 39.9601
440 38.4546
445 36.8624
450 36.0455
455 32.9834
460 30.4821
465 27.9878
470 25.0978
475 23.2495
480 21.3212
485 19.4819
490 16.8046
495 15.6961
500 14.208
505 11.8311
510 9.97436
515 9.30731
520 7.83712
525 7.45217
530 5.97587
535 5.27945
540 4.66726
545 4.12659
550 3.49966
555 3.18089
560 2.61881
565 2.07826
570 1.60647
575 1.36248
580 1.19777
585 0.980548
590 0.711926
595 0.626805
600 0.704331
Ex : 333
200 0.210117
205 0.199229
210 0.198845
215 0.186857
220 0.263899
225 0.230275
230 0.187637
235 0.306512
240 0.260986
245 0.223696
250 0.163636
255 0.177735
260 0.198965
265 0.19776
270 0.188513
275 0.203623
280 0.122659
285 0.259396
290 0.305671
295 0.193766
300 0.292871
305 0.306581
310 0.315212
315 0.274202
320 2.51818
325 56.3604
330 99.5116
335 28.6832
340 7.53261
345 5.81479
350 7.09874
355 8.2859
360 12.321
365 18.0638
370 18.9406
375 19.456
380 20.2866
385 21.6927
390 24.1646
395 24.9879
400 26.5229
405 27.5825
410 27.3483
415 26.7797
420 26.5689
425 26.4155
430 25.0403
435 23.6452
440 22.7133
445 21.3414
450 20.4205
455 18.7633
460 17.0265
465 16.1875
470 15.4219
475 13.397
480 12.8703
485 11.2463
490 10.483
495 9.5678
500 8.33982
505 7.24353
510 6.48864
515 6.00089
520 5.35234
525 4.55191
530 4.17206
535 3.51299
540 3.29604
545 2.66536
550 2.43775
555 2.26791
560 1.99594
565 1.76734
570 1.47909
575 1.11372
580 0.880567
585 0.761407
590 0.630893
595 0.6438
600 0.841767
Ex : 338
200 0.261591
205 0.185136
210 0.176494
215 0.147268
220 0.166673
225 0.263213
230 0.197493
235 0.230645
240 0.232383
245 0.185222
250 0.167265
255 0.190914
260 0.154641
265 0.121268
270 0.122512
275 0.192602
280 0.217423
285 0.183343
290 0.214149
295 0.232021
300 0.207005
305 0.194715
310 0.202667
315 0.280705
320 0.277437
325 6.16527
330 90.6005
335 138.083
340 35.6222
345 7.13693
350 5.14244
355 5.25217
360 5.13894
365 7.78118
370 12.583
375 12.6003
380 10.8666
385 10.7987
390 11.6357
395 12.033
400 12.3428
405 12.8055
410 12.9768
415 13.3196
420 12.8551
425 12.6591
430 12.3354
435 11.8247
440 11.7553
445 11.2065
450 10.469
455 9.36395
460 9.06545
465 8.45108
470 7.95726
475 7.3951
480 7.11779
485 6.48568
490 6.08013
495 5.58009
500 5.03443
505 4.5127
510 4.07285
515 3.82239
520 3.41011
525 3.12997
530 2.66445
535 2.43249
540 2.30867
545 2.00878
550 1.79687
555 1.57689
560 1.36337
565 1.301
570 1.07311
575 0.812107
580 0.680456
585 0.536648
590 0.532264
595 0.443228
600 0.287591
Ex : 343
200 0.189956
205 0.171938
210 0.243982
215 0.206687
220 0.123906
225 0.255881
230 0.262787
235 0.14651
240 0.23109
245 0.252176
250 0.195339
255 0.177891
260 0.199952
265 0.207972
270 0.206952
275 0.222647
280 0.185591
285 0.241558
290 0.162505
295 0.215226
300 0.229643
305 0.242365
310 0.208498
315 0.197574
320 0.25998
325 0.289744
330 7.34903
335 108.654
340 158.499
345 39.4936
350 7.05122
355 4.09783
360 3.37253
365 3.1043
370 4.70433
375 9.32218
380 10.4811
385 7.90377
390 7.26485
395 6.95209
400 7.32835
405 7.83454
410 7.7329
415 7.83079
420 7.70218
425 7.82886
430 7.4623
435 7.77545
440 7.54972
445 7.22144
450 7.29216
455 6.79378
460 6.44296
465 6.36061
470 6.15624
475 5.69874
480 5.21148
485 5.1417
490 4.64016
495 4.37662
500 3.99577
505 3.90958
510 3.33539
515 2.96437
520 2.85755
525 2.39493
530 2.39999
535 2.21128
540 2.21748
545 1.81279
550 1.57183
555 1.48922
560 1.25977
565 1.15181
570 0.927503
575 0.761948
580 0.800322
585 0.616216
590 0.463715
595 0.370242
600 0.0421321
Ex : 348
200 0.134028
205 0.141559
210 0.158668
215 0.205736
220 0.146353
225 0.157265
230 0.152216
235 0.152151
240 0.127672
245 0.169756
250 0.180189
255 0.20213
260 0.180281
265 0.118137
270 0.140815
275 0.160532
280 0.217887
285 0.180089
290 0.190501
295 0.0959902
300 0.125434
305 0.214488
310 0.177047
315 0.210277
320 0.227676
325 0.274072
330 0.426556
335 7.22092
340 111.133
345 166.347
350 43.4699
355 7.02505
360 3.48133
365 3.09043
370 2.55053
375 3.42443
380 7.11214
385 9.60827
390 7.27269
395 6.41491
400 5.85843
405 6.00969
410 5.99307
415 6.24126
420 6.62701
425 6.71156
430 6.79319
435 6.75389
440 6.48286
445 6.69045
450 6.80234
455 6.31824
460 6.07876
465 5.77296
470 5.78722
475 5.20169
480 4.99204
485 4.67213
490 4.43992
495 3.98958
500 3.81884
505 3.5967
510 3.3532
515 2.78251
520 2.75804
525 2.54964
530 2.21315
535 1.97451
540 1.98801
545 1.75687
550 1.4755
555 1.44894
560 1.27421
565 1.04512
570 0.948424
575 0.702787
580 0.657655
585 0.44795
590 0.430228
595 0.365405
600 0.0415817
Ex : 353
200 0.126936
205 0.10998
210 0.117956
215 0.1097
220 0.138018
225 0.110394
230 0.150269
235 0.138217
240 0.181109
245 0.123024
250 0.2007
255 0.0952718
260 0.181444
265 0.161992
270 0.16299
275 0.191541
280 0.146413
285 0.122512
290 0.150317
295 0.155204
300 0.179166
305 0.156563
310 0.179473
315 0.158648
320 0.181877
325 0.187156
330 0.254212
335 0.334914
340 7.98809
345 114.651
350 168.125
355 41.4022
360 6.45183
365 2.89946
370 2.88484
375 2.53376
380 2.72465
385 5.75873
390 9.64187
395 7.90555
400 6.39636
405 5.88986
410 5.47626
415 5.77179
420 5.78926
425 6.08734
430 6.08653
435 6.15921
440 6.11756
445 6.34904
450 6.27476
455 5.81994
460 5.77346
465 5.64665
470 5.3218
475 5.27582
480 5.19531
485 4.47115
490 4.30682
495 4.13016
500 3.90442
505 3.72589
510 3.32082
515 3.05139
520 2.57303
525 2.47334
530 2.26271
535 2.02196
540 1.95322
545 1.82602
550 1.46919
555 1.44652
560 1.19468
565 1.13859
570 0.954502
575 0.927583
580 0.700815
585 0.569413
590 0.413207
595 0.351285
600 0.28393
Ex : 358
200 0.149101
205 0.165904
210 0.100466
215 0.127428
220 0.171684
225 0.164681
230 0.161211
235 0.127074
240 0.138099
245 0.137271
250 0.14864
255 0.120415
260 0.147436
265 0.172379
270 0.198129
275 0.150807
280 0.141924
285 0.141305
290 0.131061
295 0.194421
300 0.148047
305 0.11412
310 0.15892
315 0.15022
320 0.201167
325 0.178919
330 0.212084
335 0.250242
340 0.383931
345 7.56676
350 113.334
355 171.044
360 42.9749
365 6.57562
370 3.07368
375 3.09534
380 2.39792
385 2.53159
390 4.43356
395 9.28969
400 8.41171
405 6.2618
410 5.73994
415 5.09754
420 5.39606
425 5.42759
430 5.87347
435 5.62558
440 5.87516
445 5.84951
450 6.15691
455 5.87233
460 5.89921
465 5.58242
470 5.58233
475 5.00069
480 4.82033
485 4.89389
490 4.65347
495 4.23994
500 3.97712
505 3.52379
510 3.48416
515 3.01251
520 2.79948
525 2.55176
530 2.47628
535 2.15122
540 1.93323
545 1.67766
550 1.51851
555 1.32628
560 1.32618
565 1.15571
570 1.08813
575 0.739464
580 0.639324
585 0.488154
590 0.441776
595 0.389359
600 0.428025
Ex : 363
200 0.179354
205 0.140503
210 0.137286
215 0.101558
220 0.123472
225 0.106368
230 0.099841
235 0.186984
240 0.108151
245 0.139526
250 0.118884
255 0.142052
260 0.214738
265 0.109555
270 0.140884
275 0.150258
280 0.112468
285 0.11186
290 0.157714
295 0.1444
300 0.118219
305 0.107167
310 0.116078
315 0.128797
320 0.172644
325 0.20609
330 0.18725
335 0.198136
340 0.254374
345 0.306569
350 6.94919
355 108.988
360 167.842
365 44.5795
370 6.76267
375 2.88887
380 3.03706
385 2.32367
390 2.34452
395 3.977
400 8.27598
405 9.14895
410 6.41673
415 5.38202
420 5.18226
425 5.55444
430 5.3912
435 5.61359
440 5.4081
445 5.51373
450 5.67986
455 5.69048
460 5.44514
465 5.56469
470 5.07287
475 4.97373
480 5.06363
485 4.68576
490 4.40738
495 4.22011
500 3.88198
505 3.61906
510 3.43592
515 3.14176
520 2.87854
525 2.42618
530 2.28031
535 1.98571
540 1.8798
545 1.66309
550 1.53652
555 1.45365
560 1.29032
565 1.17302
570 0.954885
575 0.727165
580 0.623622
585 0.544741
590 0.431103
595 0.3287
600 0.863381
Ex : 368
200 0.154869
205 0.105001
210 0.113798
215 0.178809
220 0.11258
225 0.125049
230 0.132571
235 0.118741
240 0.135122
245 0.145034
250 0.120188
255 0.088917
260 0.13654
265 0.100334
270 0.122458
275 0.0982299
280 0.127119
285 0.169882
290 0.0957038
295 0.153437
300 0.100276
305 0.121644
310 0.182309
315 0.166501
320 0.128577
325 0.155882
330 0.135796
335 0.148701
340 0.135719
345 0.236163
350 0.259822
355 5.64993
360 105.959
365 176.313
370 47.9045
375 7.02405
380 2.59591
385 2.89556
390 2.4077
395 2.37253
400 3.3688
405 6.68223
410 8.94791
415 6.66728
420 5.45347
425 4.89606
430 4.84644
435 4.83199
440 5.32002
445 5.09398
450 5.32185
455 5.12452
460 5.34679
465 4.82628
470 5.16997
475 4.94435
480 4.75887
485 4.74649
490 4.26782
495 3.9988
500 3.9816
505 3.64083
510 3.41132
515 2.99136
520 2.91391
525 2.78307
530 2.43782
535 1.90849
540 1.82542
545 1.84228
550 1.54456
555 1.33335
560 1.10097
565 1.18337
570 0.820909
575 0.761377
580 0.537786
585 0.50834
590 0.426737
595 0.344996
600 0.41791
Ex : 373
200 0.158808
205 0.165374
210 0.146384
215 0.121658
220 0.145672
225 0.112028
230 0.115429
235 0.138793
240 0.161183
245 0.130937
250 0.09927
255 0.119718
260 0.148928
265 0.0851592
270 0.161255
275 0.157796
280 0.148491
285 0.135746
290 0.163576
295 0.131079
300 0.140885
305 0.109105
310 0.148344
315 0.147334
320 0.151258
325 0.113555
330 0.142158
335 0.149466
340 0.146441
345 0.183614
350 0.240185
355 0.332199
360 6.95944
365 108.748
370 174.234
375 46.9893
380 6.96726
385 2.67634
390 2.70648
395 2.81672
400 2.69732
405 3.04317
410 5.64644
415 8.47604
420 6.801
425 5.43765
430 4.91414
435 4.71497
440 4.86425
445 4.85093
450 4.94132
455 5.03339
460 5.03406
465 4.96177
470 4.77508
475 4.63539
480 4.8481
485 4.56484
490 4.29756
495 4.11092
500 3.73923
505 3.56362
510 3.15071
515 2.99421
520 2.66427
525 2.6632
530 2.16696
535 2.29461
540 1.80921
545 1.63032
550 1.53379
555 1.34434
560 1.1992
565 1.20792
570 0.9039
575 0.791283
580 0.57195
585 0.480528
590 0.413423
595 0.321651
600 0.162386
Ex : 378
200 0.0901225
205 0.107329
210 0.112629
215 0.116039
220 0.0712764
225 0.0922426
230 0.122718
235 0.120456
240 0.0808017
245 0.135758
250 0.224059
255 0.119487
260 0.114928
265 0.0949525
270 0.147674
275 0.110557
280 0.146028
285 0.128577
290 0.1243
295 0.17825
300 0.135191
305 0.145121
310 0.126821
315 0.100555
320 0.114084
325 0.0959632
330 0.146794
335 0.170174
340 0.166687
345 0.160979
350 0.184792
355 0.201586
360 0.358048
365 6.32433
370 110.244
375 178.212
380 48.0004
385 7.16353
390 2.68374
395 2.83608
400 3.01197
405 2.76285
410 2.8198
415 4.66319
420 7.83916
425 7.03306
430 5.44775
435 4.40102
440 4.72893
445 4.43578
450 4.55661
455 4.58265
460 4.7226
465 4.74396
470 4.73645
475 4.76652
480 4.62777
485 4.50386
490 4.06772
495 3.9136
500 3.60201
505 3.45354
510 3.31086
515 3.03034
520 2.73969
525 2.51049
530 2.28634
535 1.94541
540 1.78287
545 1.60039
550 1.45361
555 1.4024
560 1.23995
565 1.03958
570 0.890223
575 0.746213
580 0.624174
585 0.535835
590 0.425378
595 0.295782
600 0.398352
Ex : 383
200 0.117283
205 0.0785316
210 0.0912756
215 0.114504
220 0.143244
225 0.081285
230 0.0827367
235 0.112821
240 0.090545
245 0.103936
250 0.0774013
255 0.105415
260 0.0794661
265 0.105308
270 0.127182
275 0.1378
280 0.114928
285 0.126049
290 0.116373
295 0.198754
300 0.126117
305 0.0888968
310 0.121689
315 0.142307
320 0.113305
325 0.108319
330 0.106425
335 0.126195
340 0.13904
345 0.130037
350 0.143105
355 0.179142
360 0.236023
365 0.343592
370 6.11946
375 109.605
380 185.238
385 50.8043
390 7.37507
395 2.68918
400 2.7522
405 2.8172
410 2.52562
415 2.55118
420 3.50573
425 7.0322
430 7.49165
435 5.36112
440 4.77369
445 4.3166
450 4.29626
455 4.52921
460 4.24457
465 4.41807
470 4.52561
475 4.58791
480 4.2742
485 4.36049
490 4.06814
495 3.86683
500 3.77598
505 3.42968
510 3.33011
515 3.10946
520 2.7879
525 2.57557
530 2.34234
535 2.03563
540 1.73465
545 1.63592
550 1.5699
555 1.41501
560 1.22573
565 1.0246
570 0.952769
575 0.823883
580 0.607018
585 0.417572
590 0.405102
595 0.393239
600 0.549679
Ex : 388
200 0.102719
205 0.0882468
210 0.10867
215 0.0792206
220 0.0940233
225 0.0981158
230 0.125976
235 0.0968012
240 0.116633
245 0.10651
250 0.0847879
255 0.0955757
260 0.104937
265 0.126157
270 0.109462
275 0.0921979
280 0.0687078
285 0.111542
290 0.128804
295 0.130288
300 0.116146
305 0.105012
310 0.103138
315 0.107025
320 0.117534
325 0.114934
330 0.126828
335 0.138846
340 0.120107
345 0.123053
350 0.210856
355 0.119977
360 0.195568
365 0.19754
370 0.33585
375 6.70285
380 115.195
385 186.81
390 50.0681
395 7.43112
400 2.71006
405 2.88081
410 2.70242
415 2.40334
420 2.25938
425 3.11305
430 5.80355
435 7.27151
440 5.39151
445 4.66846
450 4.30658
455 4.40887
460 4.30149
465 4.19291
470 4.46063
475 4.22539
480 4.10637
485 4.13966
490 3.83291
495 3.74858
500 3.72618
505 3.27254
510 3.11786
515 2.89956
520 2.63975
525 2.37422
530 2.24773
535 2.06079
540 1.72724
545 1.71036
550 1.49394
555 1.25923
560 1.16113
565 1.01906
570 0.899822
575 0.709657
580 0.651458
585 0.481537
590 0.351806
595 0.31883
600 0.123559
Ex : 393
200 0.114673
205 0.0989063
210 0.11498
215 0.150485
220 0.0854876
225 0.0690681
230 0.107869
235 0.128592
240 0.132779
245 0.0815426
250 0.0976339
255 0.141239
260 0.0994961
265 0.0681224
270 0.0998143
275 0.111062
280 0.115803
285 0.17037
290 0.111734
295 0.120173
300 0.102426
305 0.110335
310 0.12569
315 0.0977346
320 0.0928903
325 0.132255
330 0.127276
335 0.132959
340 0.124588
345 0.117604
350 0.17426
355 0.191984
360 0.12907
365 0.200876
370 0.200161
375 0.411323
380 6.07222
385 113.295
390 191.68
395 52.3435
400 7.64521
405 2.41595
410 2.38128
415 2.56313
420 2.30342
425 2.17079
430 2.63894
435 4.49077
440 6.97683
445 5.99183
450 4.46597
455 4.4755
460 4.0444
465 4.19019
470 4.19701
475 4.02699
480 3.9195
485 3.98765
490 3.91185
495 3.72738
500 3.54934
505 3.2664
510 3.01103
515 2.72281
520 2.66447
525 2.40763
530 2.05091
535 2.02584
540 1.93052
545 1.70926
550 1.5298
555 1.32372
560 1.27036
565 1.10767
570 0.808008
575 0.714172
580 0.659543
585 0.489903
590 0.374145
595 0.320801
600 0.0650932
Ex : 398
200 0.0663019
205 0.0949069
210 0.0938479
215 0.117105
220 0.0963223
225 0.0708948
230 0.114845
235 0.108084
240 0.105732
245 0.132422
250 0.097218
255 0.0862788
260 0.112003
265 0.0742473
270 0.15351
275 0.124555
280 0.125101
285 0.124913
290 0.0750685
295 0.102662
300 0.0999513
305 0.11579
310 0.102889
315 0.121584
320 0.138974
325 0.0885666
330 0.113585
335 0.114506
340 0.0896637
345 0.148553
350 0.120222
355 0.13338
360 0.110144
365 0.16389
370 0.120625
375 0.222716
380 0.382014
385 6.36674
390 118.662
395 197.51
400 53.6104
405 7.71108
410 2.42245
415 2.18779
420 2.41568
425 2.28406
430 2.22128
435 2.59297
440 3.61716
445 6.63261
450 6.29784
455 4.8342
460 4.37961
465 3.83751
470 3.7811
475 3.829
480 3.88425
485 3.87822
490 3.71141
495 3.48088
500 3.33594
505 3.14199
510 2.98158
515 2.74768
520 2.59767
525 2.36494
530 2.21402
535 1.98247
540 1.92446
545 1.44619
550 1.35212
555 1.31567
560 1.22208
565 1.13837
570 0.921736
575 0.78174
580 0.574129
585 0.448076
590 0.349856
595 0.32363
600 0.0931418
Ex : 403
200 0.0991275
205 0.118428
210 0.103234
215 0.113647
220 0.167596
225 0.133268
230 0.142425
235 0.106381
240 0.106311
245 0.101789
250 0.0796355
255 0.0869742
260 0.187629
265 0.114468
270 0.0927444
275 0.122097
280 0.130479
285 0.10442
290 0.114592
295 0.0978902
300 0.124932
305 0.122374
310 0.115378
315 0.112816
320 0.0670835
325 0.128137
330 0.0982008
335 0.102729
340 0.126508
345 0.109852
350 0.149749
355 0.139413
360 0.163072
365 0.129775
370 0.169899
375 0.159463
380 0.251377
385 0.331558
390 6.91698
395 121.887
400 196.592
405 54.1439
410 7.53607
415 2.20222
420 2.04547
425 2.41185
430 2.29869
435 1.97822
440 2.37519
445 2.99414
450 5.62316
455 6.41304
460 4.78053
465 4.30659
470 3.86803
475 3.51089
480 3.46952
485 3.48805
490 3.50372
495 3.34381
500 3.21486
505 3.04425
510 2.98261
515 2.66906
520 2.45035
525 2.30134
530 2.17971
535 1.93575
540 1.55162
545 1.54536
550 1.42435
555 1.3661
560 1.183
565 1.00351
570 0.905423
575 0.652512
580 0.557545
585 0.506296
590 0.362349
595 0.307683
600 0.318357
Ex : 408
200 0.0896207
205 0.113744
210 0.0972104
215 0.184267
220 0.121088
225 0.0850167
230 0.120596
235 0.106411
240 0.144708
245 0.128158
250 0.108382
255 0.126446
260 0.128346
265 0.111568
270 0.0923206
275 0.111399
280 0.0865688
285 0.0845023
290 0.112775
295 0.119299
300 0.130267
305 0.089765
310 0.0880024
315 0.114637
320 0.0894969
325 0.116408
330 0.075632
335 0.164317
340 0.128094
345 0.115096
350 0.0931735
355 0.0889269
360 0.102029
365 0.124509
370 0.130138
375 0.158204
380 0.195027
385 0.220659
390 0.324506
395 6.78009
400 126.583
405 202.132
410 53.561
415 7.46839
420 2.22782
425 1.90943
430 2.33553
435 2.31966
440 1.98189
445 2.28049
450 2.76613
455 4.88223
460 6.66822
465 4.87706
470 3.95098
475 3.68181
480 3.35696
485 3.35406
490 3.45793
495 3.34973
500 3.03383
505 2.91299
510 2.80264
515 2.616
520 2.36437
525 2.34659
530 2.10233
535 1.87082
540 1.70338
545 1.50107
550 1.37738
555 1.22948
560 1.09318
565 0.96201
570 0.818436
575 0.750483
580 0.641067
585 0.520966
590 0.376919
595 0.324447
600 0.163092
Ex : 413
200 0.109358
205 0.0930149
210 0.099932
215 0.0703721
220 0.161507
225 0.098718
230 0.130463
235 0.100649
240 0.110725
245 0.118288
250 0.0944628
255 0.105551
260 0.123699
265 0.0944084
270 0.0788527
275 0.0758993
280 0.122596
285 0.125591
290 0.0923611
295 0.11341
300 0.111664
305 0.0943997
310 0.117045
315 0.1255
320 0.121255
325 0.128746
330 0.112959
335 0.112205
340 0.104532
345 0.101207
350 0.0993262
355 0.137914
360 0.147558
365 0.125734
370 0.145587
375 0.126297
380 0.141648
385 0.224158
390 0.23123
395 0.420001
400 7.51327
405 128.87
410 202.711
415 51.5101
420 7.25704
425 2.25635
430 1.97556
435 2.35069
440 2.37879
445 1.99566
450 2.18618
455 2.30038
460 4.18749
465 6.19137
470 4.98775
475 3.92743
480 3.65035
485 3.31118
490 3.03158
495 3.04796
500 2.91627
505 2.78709
510 2.57556
515 2.48422
520 2.3761
525 2.18046
530 1.9284
535 1.97155
540 1.86593
545 1.43128
550 1.31334
555 1.17122
560 1.11881
565 1.02993
570 0.849716
575 0.595122
580 0.547961
585 0.409107
590 0.409662
595 0.312706
600 0.428468
Ex : 418
200 0.124066
205 0.14836
210 0.127702
215 0.133098
220 0.121912
225 0.111033
230 0.0975884
235 0.0805523
240 0.0846195
245 0.1501
250 0.108099
255 0.0785155
260 0.128108
265 0.0856989
270 0.136473
275 0.0889145
280 0.115113
285 0.141526
290 0.136395
295 0.0917606
300 0.120189
305 0.101812
310 0.120887
315 0.0927788
320 0.103139
325 0.0959206
330 0.113685
335 0.122154
340 0.100673
345 0.173056
350 0.160328
355 0.0892027
360 0.0939505
365 0.123147
370 0.168572
375 0.155576
380 0.172037
385 0.203488
390 0.189875
395 0.226649
400 0.417815
405 7.14296
410 127.901
415 204.458
420 54.7039
425 7.52043
430 2.18634
435 1.79867
440 2.18159
445 2.12888
450 1.93642
455 1.96065
460 2.3182
465 3.02692
470 5.48446
475 5.63962
480 4.16406
485 3.6496
490 3.05728
495 2.80416
500 2.72923
505 2.59896
510 2.62621
515 2.42483
520 2.24275
525 1.94192
530 1.79148
535 1.67647
540 1.61208
545 1.48994
550 1.39002
555 1.21357
560 1.19362
565 0.927424
570 0.841024
575 0.642795
580 0.609773
585 0.444539
590 0.329468
595 0.305897
600 0.263697
Ex : 423
200 0.0948728
205 0.108722
210 0.130198
215 0.10361
220 0.120693
225 0.111857
230 0.100478
235 0.100997
240 0.0811418
245 0.122391
250 0.0875385
255 0.149217
260 0.110357
265 0.114923
270 0.0971355
275 0.0852764
280 0.102823
285 0.123282
290 0.103445
295 0.0999677
300 0.111385
305 0.139765
310 0.126296
315 0.135641
320 0.164494
325 0.117987
330 0.125362
335 0.125442
340 0.145851
345 0.109801
350 0.110521
355 0.0816045
360 0.100585
365 0.153303
370 0.112398
375 0.131796
380 0.123457
385 0.123871
390 0.191615
395 0.214194
400 0.32038
405 0.307433
410 7.76356
415 131.718
420 202.873
425 51.1147
430 7.26548
435 2.11042
440 1.65266
445 1.93836
450 2.16677
455 2.00413
460 1.90493
465 2.07671
470 2.69211
475 4.92106
480 5.66494
485 4.06643
490 3.48832
495 3.20278
500 2.67824
505 2.36401
510 2.33733
515 2.25477
520 2.08528
525 1.94503
530 1.90116
535 1.74567
540 1.63676
545 1.43982
550 1.30871
555 1.25096
560 1.07326
565 0.974395
570 0.882857
575 0.686225
580 0.552453
585 0.480126
590 0.375671
595 0.305573
600 0.416657
Ex : 428
200 0.12035
205 0.133344
210 0.0703917
215 0.0837554
220 0.0659219
225 0.0991384
230 0.104388
235 0.147218
240 0.0897987
245 0.0871986
250 0.0942515
255 0.0846769
260 0.104413
265 0.0928054
270 0.0984625
275 0.115755
280 0.0856353
285 0.137406
290 0.141938
295 0.133734
300 0.103982
305 0.0965028
310 0.0974336
315 0.147675
320 0.0932552
325 0.0973387
330 0.105189
335 0.102793
340 0.126698
345 0.0935238
350 0.110131
355 0.110976
360 0.109505
365 0.125565
370 0.137321
375 0.123167
380 0.116885
385 0.128497
390 0.118785
395 0.152793
400 0.21738
405 0.255479
410 0.446232
415 8.23072
420 132.966
425 204.795
430 53.5353
435 7.42616
440 2.09858
445 1.51835
450 1.88762
455 2.19242
460 1.9597
465 1.88266
470 2.10115
475 2.26788
480 4.03965
485 5.57532
490 4.15999
495 3.27494
500 2.99504
505 2.47266
510 2.12733
515 2.13038
520 1.93568
525 1.91777
530 1.86599
535 1.71219
540 1.56752
545 1.531
550 1.38168
555 1.18193
560 0.913961
565 0.869392
570 0.879981
575 0.682
580 0.593532
585 0.442233
590 0.300612
595 0.338553
600 0.432394
Ex : 433
200 0.1
205 0.132212
210 0.125358
215 0.11429
220 0.12772
225 0.0967599
230 0.100658
235 0.108857
240 0.142083
245 0.104993
250 0.102978
255 0.121018
260 0.119559
265 0.106384
270 0.0813339
275 0.0499563
280 0.128163
285 0.102564
290 0.0971341
295 0.0909916
300 0.0780359
305 0.0953817
310 0.0957759
315 0.103944
320 0.118406
325 0.158761
330 0.0824016
335 0.113191
340 0.123266
345 0.11034
350 0.112836
355 0.137729
360 0.132708
365 0.0914026
370 0.118657
375 0.146677
380 0.153488
385 0.145996
390 0.106566
395 0.131984
400 0.153437
405 0.229346
410 0.224231
415 0.336866
420 8.77689
425 142.311
430 213.384
435 54.306
440 7.60119
445 2.18183
450 1.59998
455 1.9318
460 2.07742
465 1.81247
470 1.82731
475 1.8529
480 2.12465
485 3.19663
490 5.05801
495 4.51804
500 3.20506
505 2.81003
510 2.37693
515 2.06253
520 1.94553
525 1.82799
530 1.72605
535 1.67941
540 1.46555
545 1.35893
550 1.20053
555 1.09598
560 1.06412
565 0.967991
570 0.875876
575 0.660221
580 0.680416
585 0.413697
590 0.35638
595 0.326392
600 0.0371421
Ex : 438
200 0.120236
205 0.116156
210 0.0996295
215 0.108333
220 0.110191
225 0.105563
230 0.101148
235 0.125409
240 0.102357
245 0.118082
250 0.115459
255 0.102607
260 0.0884551
265 0.0646514
270 0.127333
275 0.111054
280 0.120785
285 0.140356
290 0.0921182
295 0.0887644
300 0.115517
305 0.123265
310 0.13849
315 0.0839236
320 0.109488
325 0.121635
330 0.115666
335 0.0933526
340 0.135652
345 0.139786
350 0.0963067
355 0.0869648
360 0.114448
365 0.130991
370 0.108597
375 0.11349
380 0.135369
385 0.129483
390 0.116747
395 0.143973
400 0.186755
405 0.180177
410 0.188739
415 0.337375
420 0.376175
425 9.00896
430 143.222
435 223.411
440 56.6737
445 7.80255
450 2.33643
455 1.53562
460 1.86185
465 2.17598
470 1.89675
475 1.63977
480 1.90626
485 1.91846
490 2.4958
495 4.45774
500 4.61168
505 3.07205
510 2.59562
515 2.32104
520 1.96434
525 1.83729
530 1.66403
535 1.66716
540 1.46543
545 1.39538
550 1.1534
555 1.07196
560 1.11533
565 0.925324
570 0.774839
575 0.738824
580 0.528328
585 0.432301
590 0.331162
595 0.314204
600 0.14464
Ex : 443
200 0.114698
205 0.10556
210 0.0884845
215 0.117432
220 0.093821
225 0.123908
230 0.128256
235 0.117033
240 0.0747003
245 0.101223
250 0.0942809
255 0.0750818
260 0.123977
265 0.103531
270 0.129719
275 0.108662
280 0.110751
285 0.106439
290 0.0929075
295 0.153816
300 0.137222
305 0.145724
310 0.113709
315 0.100458
320 0.12064
325 0.106169
330 0.0989514
335 0.132579
340 0.109547
345 0.124793
350 0.0769976
355 0.100781
360 0.166685
365 0.118611
370 0.12314
375 0.100977
380 0.116178
385 0.0924551
390 0.105991
395 0.164724
400 0.18383
405 0.175416
410 0.136334
415 0.196215
420 0.2862
425 0.432729
430 9.38308
435 148.849
440 221.583
445 54.9451
450 7.39967
455 2.21142
460 1.43275
465 1.82921
470 1.95877
475 1.90665
480 1.78462
485 1.76765
490 1.87733
495 2.17842
500 3.79658
505 4.67174
510 3.19191
515 2.45041
520 2.30588
525 1.96707
530 1.62371
535 1.69887
540 1.68779
545 1.39834
550 1.26541
555 1.17001
560 1.04379
565 0.943356
570 0.761104
575 0.681653
580 0.512035
585 0.476565
590 0.377424
595 0.298286
600 0.152307
Ex : 448
200 0.150777
205 0.102298
210 0.136835
215 0.10871
220 0.135365
225 0.132016
230 0.0964503
235 0.0973356
240 0.0927609
245 0.091427
250 0.085454
255 0.111053
260 0.137564
265 0.102183
270 0.091428
275 0.117528
280 0.169947
285 0.0980353
290 0.118648
295 0.111636
300 0.0975576
305 0.101832
310 0.138835
315 0.143385
320 0.109998
325 0.0956445
330 0.0896756
335 0.131592
340 0.137647
345 0.120219
350 0.156131
355 0.108801
360 0.124669
365 0.147099
370 0.100695
375 0.0929929
380 0.150846
385 0.156208
390 0.132553
395 0.176863
400 0.204585
405 0.171576
410 0.154079
415 0.187871
420 0.225031
425 0.244037
430 0.401044
435 9.39141
440 153.705
445 222.357
450 55.8978
455 7.59899
460 2.27176
465 1.56086
470 1.60198
475 2.01293
480 1.9791
485 1.71646
490 1.63257
495 1.67755
500 1.80646
505 2.90968
510 4.39343
515 3.56032
520 2.47245
525 2.20726
530 1.99409
535 1.6987
540 1.45003
545 1.39972
550 1.30131
555 1.30796
560 1.18454
565 1.00196
570 0.926166
575 0.661419
580 0.543615
585 0.459923
590 0.344996
595 0.28889
600 0.386751
Ex : 453
200 0.103018
205 0.122765
210 0.0916593
215 0.0885044
220 0.147331
225 0.123788
230 0.0907947
235 0.0741705
240 0.0962036
245 0.0730475
250 0.10261
255 0.10467
260 0.111276
265 0.12647
270 0.103808
275 0.112069
280 0.108445
285 0.0831737
290 0.104164
295 0.122355
300 0.112084
305 0.0935322
310 0.0930812
315 0.0997119
320 0.0801709
325 0.129969
330 0.120019
335 0.117174
340 0.136199
345 0.136376
350 0.109811
355 0.138236
360 0.141366
365 0.112491
370 0.133613
375 0.110623
380 0.157439
385 0.120628
390 0.14245
395 0.112739
400 0.111022
405 0.127229
410 0.159503
415 0.114926
420 0.167761
425 0.16236
430 0.261284
435 0.418852
440 10.2826
445 162.94
450 230.597
455 53.1713
460 7.15085
465 2.08899
470 1.49879
475 1.58099
480 1.99162
485 1.85313
490 1.62471
495 1.68464
500 1.60686
505 1.68016
510 2.25864
515 4.063
520 3.65784
525 2.55757
530 2.1324
535 1.8472
540 1.6736
545 1.44385
550 1.34167
555 1.14788
560 1.08345
565 0.942949
570 0.937081
575 0.731516
580 0.539561
585 0.455322
590 0.368892
595 0.320977
600 0.49678
Ex : 458
200 0.103418
205 0.0871431
210 0.126806
215 0.0790246
220 0.114382
225 0.108496
230 0.0914151
235 0.131291
240 0.212293
245 0.0988127
250 0.078811
255 0.125303
260 0.136437
265 0.119417
270 0.11491
275 0.0845007
280 0.120951
285 0.123935
290 0.155953
295 0.120554
300 0.107607
305 0.0945784
310 0.105235
315 0.0632539
320 0.135295
325 0.163347
330 0.139042
335 0.102389
340 0.122775
345 0.12044
350 0.0996706
355 0.122091
360 0.11856
365 0.119281
370 0.0981162
375 0.106885
380 0.102417
385 0.127333
390 0.137886
395 0.0920582
400 0.12887
405 0.147286
410 0.135011
415 0.132576
420 0.165516
425 0.1997
430 0.191475
435 0.308684
440 0.40851
445 10.7803
450 166.231
455 240.919
460 57.7858
465 7.92581
470 2.09061
475 1.37345
480 1.63306
485 1.92318
490 1.92715
495 1.6687
500 1.59168
505 1.65171
510 1.67036
515 1.96499
520 3.12669
525 3.98911
530 2.85587
535 2.26742
540 1.91158
545 1.72586
550 1.39402
555 1.20535
560 1.11356
565 0.98246
570 0.898439
575 0.73011
580 0.64129
585 0.474171
590 0.389905
595 0.310345
600 0.0886662
Ex : 463
200 0.0760976
205 0.0945767
210 0.0676304
215 0.0973452
220 0.101311
225 0.0923792
230 0.114911
235 0.154083
240 0.132494
245 0.131412
250 0.0903201
255 0.105587
260 0.0761073
265 0.0990869
270 0.0914449
275 0.0978055
280 0.118215
285 0.089081
290 0.103781
295 0.104069
300 0.0992158
305 0.123895
310 0.102129
315 0.103337
320 0.123309
325 0.10706
330 0.105763
335 0.120016
340 0.157876
345 0.115258
350 0.102942
355 0.100208
360 0.093571
365 0.109412
370 0.0939515
375 0.114345
380 0.132063
385 0.12704
390 0.107607
395 0.139323
400 0.138975
405 0.118038
410 0.150787
415 0.140308
420 0.178478
425 0.159324
430 0.191899
435 0.206815
440 0.278111
445 0.384899
450 10.6725
455 168.384
460 244.782
465 59.7769
470 8.00677
475 2.31747
480 1.52023
485 1.57943
490 1.73284
495 1.85175
500 1.59403
505 1.52362
510 1.49648
515 1.49836
520 1.78471
525 2.49742
530 3.84769
535 3.27659
540 2.08892
545 1.80929
550 1.64736
555 1.2777
560 1.11218
565 1.03015
570 0.936648
575 0.876116
580 0.686249
585 0.50507
590 0.410712
595 0.340824
600 0.083798
Ex : 468
200 0.0913603
205 0.10175
210 0.1702
215 0.109948
220 0.0973483
225 0.0998782
230 0.103855
235 0.103943
240 0.0981356
245 0.102459
250 0.105615
255 0.0965274
260 0.0862276
265 0.0833339
270 0.0852096
275 0.120749
280 0.117972
285 0.0994936
290 0.0802156
295 0.0967886
300 0.113462
305 0.0863677
310 0.0889783
315 0.106198
320 0.0973118
325 0.0872594
330 0.0983077
335 0.146154
340 0.118598
345 0.113942
350 0.098962
355 0.100262
360 0.0919405
365 0.10445
370 0.0931029
375 0.115431
380 0.0918812
385 0.104341
390 0.113653
395 0.117537
400 0.112515
405 0.126805
410 0.121757
415 0.107528
420 0.117408
425 0.130766
430 0.130293
435 0.122862
440 0.195013
445 0.219426
450 0.401342
455 11.0519
460 168.757
465 255.305
470 61.5057
475 8.0614
480 2.16499
485 1.40583
490 1.5205
495 1.65783
500 1.83047
505 1.58918
510 1.45414
515 1.50046
520 1.64911
525 1.64267
530 2.0736
535 3.33072
540 3.4153
545 2.20583
550 1.84279
555 1.64827
560 1.29345
565 1.06769
570 0.899789
575 0.750513
580 0.614569
585 0.530225
590 0.383755
595 0.32725
600 0.471604
Ex : 473
200 0.118149
205 0.106941
210 0.0998468
215 0.0764563
220 0.093652
225 0.0718519
230 0.093034
235 0.0770745
240 0.0788628
245 0.109822
250 0.104714
255 0.0803746
260 0.0982366
265 0.110472
270 0.115953
275 0.113102
280 0.146734
285 0.104009
290 0.109775
295 0.0942759
300 0.072209
305 0.079144
310 0.106012
315 0.0867663
320 0.11702
325 0.123749
330 0.098455
335 0.100914
340 0.122014
345 0.0985058
350 0.109953
355 0.106879
360 0.112203
365 0.0916461
370 0.105305
375 0.109027
380 0.0978333
385 0.107534
390 0.126921
395 0.110369
400 0.183982
405 0.131704
410 0.152025
415 0.134588
420 0.149146
425 0.155368
430 0.146042
435 0.163173
440 0.170547
445 0.232185
450 0.258735
455 0.509696
460 12.3549
465 182.008
470 250.424
475 57.6555
480 7.67212
485 2.09371
490 1.48323
495 1.40983
500 1.62287
505 1.7782
510 1.76663
515 1.5937
520 1.60118
525 1.54423
530 1.65983
535 1.90357
540 2.81107
545 3.35781
550 2.3807
555 1.67097
560 1.46857
565 1.31528
570 0.979485
575 0.724097
580 0.637449
585 0.597047
590 0.468406
595 0.422554
600 0.331141
Ex : 478
200 0.142574
205 0.0934634
210 0.137612
215 0.118139
220 0.11807
225 0.12311
230 0.122778
235 0.138882
240 0.108259
245 0.12465
250 0.148719
255 0.0866425
260 0.0781479
265 0.161732
270 0.191102
275 0.0809756
280 0.145536
285 0.131355
290 0.126535
295 0.13186
300 0.103633
305 0.172227
310 0.119743
315 0.104563
320 0.100481
325 0.131477
330 0.107624
335 0.148883
340 0.116248
345 0.136676
350 0.130399
355 0.126491
360 0.118608
365 0.0939704
370 0.114734
375 0.109917
380 0.0887119
385 0.133297
390 0.118207
395 0.113625
400 0.154769
405 0.156452
410 0.152284
415 0.150797
420 0.125979
425 0.182781
430 0.147027
435 0.156031
440 0.139532
445 0.203947
450 0.226408
455 0.339361
460 0.548359
465 13.4369
470 184.27
475 245.058
480 59.1596
485 7.82896
490 1.88965
495 1.25911
500 1.15126
505 1.47248
510 1.63282
515 1.73502
520 1.61098
525 1.72167
530 1.59504
535 1.51271
540 1.57717
545 2.31138
550 2.94566
555 2.44027
560 1.56659
565 1.33664
570 1.06234
575 0.84435
580 0.626754
585 0.470847
590 0.413199
595 0.374957
600 0.458379
Ex : 483
200 0.158778
205 0.0841179
210 0.166682
215 0.139469
220 0.0893814
225 0.109022
230 0.15386
235 0.128716
240 0.0884017
245 0.12897
250 0.111201
255 0.123019
260 0.12464
265 0.0898341
270 0.12944
275 0.130501
280 0.141089
285 0.0839404
290 0.125033
295 0.112169
300 0.119936
305 0.163626
310 0.156645
315 0.11267
320 0.13677
325 0.134893
330 0.125663
335 0.12351
340 0.131009
345 0.13239
350 0.117099
355 0.126373
360 0.100387
365 0.147557
370 0.17766
375 0.111609
380 0.156661
385 0.116226
390 0.176378
395 0.150839
400 0.13492
405 0.196993
410 0.166107
415 0.142575
420 0.119632
425 0.18425
430 0.19236
435 0.145021
440 0.14114
445 0.295947
450 0.244598
455 0.226478
460 0.368007
465 0.56401
470 10.3627
475 176.813
480 263.144
485 62.5883
490 8.34434
495 2.04737
500 1.35254
505 1.42845
510 1.51289
515 1.64137
520 1.74397
525 1.68801
530 1.56671
535 1.64708
540 1.66632
545 1.55582
550 1.81069
555 2.57005
560 2.72522
565 1.69689
570 1.14003
575 0.958105
580 0.789106
585 0.516291
590 0.365742
595 0.36123
600 0.0411065
Ex : 488
200 0.137247
205 0.150835
210 0.115195
215 0.135482
220 0.111281
225 0.129002
230 0.137215
235 0.157022
240 0.15106
245 0.129491
250 0.154469
255 0.124263
260 0.144336
265 0.145514
270 0.179106
275 0.151671
280 0.125591
285 0.119404
290 0.166838
295 0.181903
300 0.148187
305 0.152022
310 0.20077
315 0.153241
320 0.156678
325 0.150815
330 0.116049
335 0.160949
340 0.176121
345 0.140686
350 0.140482
355 0.144656
360 0.153787
365 0.12759
370 0.129281
375 0.159528
380 0.190656
385 0.131961
390 0.160754
395 0.168769
400 0.157
405 0.142486
410 0.149051
415 0.164335
420 0.198986
425 0.156786
430 0.24771
435 0.164632
440 0.165165
445 0.166695
450 0.214161
455 0.216347
460 0.355469
465 0.347862
470 0.464439
475 13.1626
480 196.767
485 263.735
490 61.5124
495 8.09488
500 2.01943
505 1.32641
510 1.22889
515 1.49388
520 1.87517
525 1.87099
530 1.68507
535 1.65441
540 1.45498
545 1.35918
550 1.36449
555 1.44785
560 2.00391
565 2.38292
570 1.75737
575 1.0343
580 0.798462
585 0.559018
590 0.49009
595 0.44061
600 0.0608169
Ex : 493
200 0.207944
205 0.200582
210 0.177121
215 0.223848
220 0.160506
225 0.111229
230 0.182624
235 0.130062
240 0.117714
245 0.0834634
250 0.0941524
255 0.124391
260 0.139052
265 0.155003
270 0.161928
275 0.135128
280 0.117215
285 0.102951
290 0.124748
295 0.198096
300 0.177737
305 0.107684
310 0.126273
315 0.106945
320 0.184695
325 0.125721
330 0.106163
335 0.143008
340 0.161593
345 0.16465
350 0.144863
355 0.143364
360 0.146533
365 0.137264
370 0.139721
375 0.119699
380 0.164848
385 0.15023
390 0.173554
395 0.176962
400 0.156979
405 0.156796
410 0.151514
415 0.137841
420 0.159376
425 0.133993
430 0.15283
435 0.154043
440 0.131626
445 0.202304
450 0.218171
455 0.173176
460 0.247273
465 0.252294
470 0.345756
475 0.469041
480 11.5487
485 189.495
490 267.549
495 61.757
500 8.16025
505 2.01889
510 1.35371
515 1.23734
520 1.33847
525 1.87474
530 1.85736
535 1.6276
540 1.55349
545 1.36675
550 1.39686
555 1.17894
560 1.20173
565 1.42634
570 2.04709
575 1.66522
580 0.912547
585 0.689782
590 0.530237
595 0.430077
600 0.470774
Ex : 498
200 0.129843
205 0.13621
210 0.203585
215 0.133262
220 0.116794
225 0.182647
230 0.182791
235 0.14724
240 0.115442
245 0.178843
250 0.139235
255 0.213685
260 0.142924
265 0.166377
270 0.141423
275 0.113131
280 0.126938
285 0.166514
290 0.101628
295 0.146434
300 0.164772
305 0.131756
310 0.142225
315 0.173188
320 0.14608
325 0.14784
330 0.201394
335 0.163068
340 0.132738
345 0.155037
350 0.160375
355 0.126392
360 0.157307
365 0.138202
370 0.149972
375 0.154307
380 0.156989
385 0.145763
390 0.117776
395 0.161857
400 0.200706
405 0.143912
410 0.171373
415 0.128841
420 0.13421
425 0.162566
430 0.155677
435 0.175388
440 0.16769
445 0.143238
450 0.148126
455 0.227459
460 0.172771
465 0.263839
470 0.323631
475 0.436791
480 0.577088
485 14.0974
490 197.984
495 261.965
500 59.9491
505 7.81115
510 1.98791
515 1.57968
520 1.45746
525 1.50115
530 1.65348
535 1.75729
540 1.53448
545 1.40015
550 1.1816
555 1.17154
560 1.09027
565 0.979629
570 1.15328
575 1.54302
580 1.42553
585 0.887509
590 0.525683
595 0.486857
600 0.291723
Ex : 503
200 0.146996
205 0.189373
210 0.167001
215 0.108064
220 0.130124
225 0.129011
230 0.203669
235 0.159731
240 0.129277
245 0.189641
250 0.152995
255 0.255754
260 0.189149
265 0.128081
270 0.14994
275 0.127801
280 0.150898
285 0.111303
290 0.0929488
295 0.131136
300 0.179777
305 0.180132
310 0.198296
315 0.136161
320 0.142869
325 0.143474
330 0.222706
335 0.161522
340 0.134474
345 0.176431
350 0.191872
355 0.175332
360 0.145894
365 0.196683
370 0.196436
375 0.159513
380 0.172734
385 0.172553
390 0.172381
395 0.180535
400 0.208487
405 0.135838
410 0.18899
415 0.180504
420 0.164988
425 0.150516
430 0.170601
435 0.202667
440 0.17761
445 0.16818
450 0.227199
455 0.212098
460 0.208224
465 0.327937
470 0.317715
475 0.285146
480 0.379956
485 0.506902
490 12.761
495 194.535
500 262.84
505 60.8007
510 7.94558
515 1.92113
520 1.71472
525 1.44309
530 1.52573
535 1.62618
540 1.64133
545 1.53588
550 1.24429
555 1.17653
560 1.06598
565 1.03857
570 0.817363
575 0.781104
580 1.02459
585 1.10145
590 0.862257
595 0.558559
600 0.47962
Ex : 508
200 0.16138
205 0.147546
210 0.195051
215 0.223402
220 0.181434
225 0.133649
230 0.15915
235 0.152573
240 0.11986
245 0.198986
250 0.19372
255 0.141065
260 0.199159
265 0.124089
270 0.158805
275 0.114321
280 0.147453
285 0.111063
290 0.126114
295 0.20652
300 0.195723
305 0.239957
310 0.183214
315 0.18458
320 0.219696
325 0.209674
330 0.1821
335 0.210741
340 0.181796
345 0.179777
350 0.182903
355 0.157057
360 0.148989
365 0.175862
370 0.217417
375 0.198653
380 0.16226
385 0.116144
390 0.200535
395 0.180183
400 0.14703
405 0.206558
410 0.171206
415 0.180686
420 0.212173
425 0.154279
430 0.208865
435 0.220021
440 0.139092
445 0.236705
450 0.200407
455 0.232342
460 0.271715
465 0.241941
470 0.242466
475 0.280276
480 0.256755
485 0.399542
490 0.543112
495 13.6755
500 194.804
505 269.892
510 65.062
515 8.71272
520 2.16267
525 1.59276
530 1.50993
535 1.39666
540 1.57454
545 1.60429
550 1.48467
555 1.29715
560 1.07556
565 1.03852
570 0.860691
575 0.80038
580 0.651451
585 0.756809
590 0.887296
595 0.913142
600 0.645008
Ex : 513
200 0.173226
205 0.155304
210 0.19188
215 0.204864
220 0.197354
225 0.212237
230 0.153614
235 0.139316
240 0.147412
245 0.156882
250 0.152385
255 0.185807
260 0.152076
265 0.203345
270 0.164297
275 0.169576
280 0.112666
285 0.284948
290 0.157218
295 0.203326
300 0.164115
305 0.157345
310 0.121988
315 0.152311
320 0.180695
325 0.174545
330 0.154028
335 0.177447
340 0.174898
345 0.137194
350 0.164291
355 0.16218
360 0.178537
365 0.157739
370 0.194161
375 0.147496
380 0.142942
385 0.180978
390 0.139604
395 0.198205
400 0.235205
405 0.137647
410 0.175732
415 0.197688
420 0.203578
425 0.208892
430 0.180666
435 0.204205
440 0.186994
445 0.220362
450 0.210658
455 0.285538
460 0.226593
465 0.249551
470 0.243865
475 0.27101
480 0.257729
485 0.293461
490 0.371882
495 0.428151
500 12.7724
505 196.526
510 274.995
515 66.1625
520 8.87821
525 2.26759
530 1.61463
535 1.4768
540 1.2646
545 1.4722
550 1.48379
555 1.316
560 1.07194
565 0.970626
570 0.801392
575 0.670292
580 0.626489
585 0.486168
590 0.462986
595 0.688957
600 0.431119
Ex : 518
200 0.142963
205 0.149331
210 0.189006
215 0.12805
220 0.1384
225 0.120533
230 0.151048
235 0.165822
240 0.124763
245 0.301089
250 0.211327
255 0.140004
260 0.17887
265 0.212469
270 0.206369
275 0.166868
280 0.232484
285 0.227721
290 0.192077
295 0.207265
300 0.172605
305 0.281601
310 0.195772
315 0.181867
320 0.162396
325 0.142014
330 0.189673
335 0.181328
340 0.168023
345 0.192843
350 0.169938
355 0.123824
360 0.196074
365 0.197175
370 0.185496
375 0.196201
380 0.147729
385 0.148309
390 0.178035
395 0.207946
400 0.199165
405 0.221495
410 0.198958
415 0.15755
420 0.200649
425 0.215832
430 0.196617
435 0.154075
440 0.26684
445 0.159512
450 0.174677
455 0.238139
460 0.230661
465 0.235445
470 0.244567
475 0.264372
480 0.306761
485 0.286726
490 0.363827
495 0.358769
500 0.5238
505 12.857
510 187.836
515 272.086
520 67.1189
525 8.83285
530 2.08694
535 1.5208
540 1.22719
545 1.08403
550 1.16624
555 1.27965
560 1.14673
565 0.965267
570 0.745289
575 0.678284
580 0.47237
585 0.411036
590 0.408767
595 0.415262
600 0.50882
Ex : 523
200 0.223207
205 0.135751
210 0.191824
215 0.107023
220 0.135307
225 0.197229
230 0.131869
235 0.147767
240 0.195329
245 0.221646
250 0.176495
255 0.151529
260 0.183456
265 0.183751
270 0.166829
275 0.189863
280 0.152474
285 0.191552
290 0.167874
295 0.184545
300 0.16968
305 0.188405
310 0.190861
315 0.21014
320 0.159187
325 0.255228
330 0.210328
335 0.182488
340 0.195549
345 0.193241
350 0.197392
355 0.226102
360 0.172792
365 0.142608
370 0.210228
375 0.160114
380 0.221118
385 0.17309
390 0.174175
395 0.202601
400 0.236611
405 0.171679
410 0.157312
415 0.274565
420 0.177886
425 0.238928
430 0.163731
435 0.181123
440 0.215612
445 0.182401
450 0.290253
455 0.20717
460 0.233424
465 0.269008
470 0.239897
475 0.226919
480 0.323756
485 0.318243
490 0.302201
495 0.278551
500 0.402691
505 0.539369
510 11.9222
515 181.749
520 263.545
525 66.6755
530 8.78911
535 2.05017
540 1.26246
545 1.06161
550 0.932465
555 1.0405
560 1.11361
565 1.0242
570 0.827251
575 0.654706
580 0.471154
585 0.422346
590 0.389416
595 0.29852
600 0.631195
Ex : 528
200 0.137688
205 0.168329
210 0.176151
215 0.145437
220 0.189128
225 0.128962
230 0.180203
235 0.161829
240 0.1807
245 0.182117
250 0.18721
255 0.18754
260 0.184732
265 0.174532
270 0.164798
275 0.214257
280 0.165781
285 0.156636
290 0.126961
295 0.144102
300 0.200708
305 0.230259
310 0.218718
315 0.191938
320 0.185587
325 0.189669
330 0.119959
335 0.18557
340 0.179431
345 0.194216
350 0.181331
355 0.190353
360 0.180721
365 0.211226
370 0.170956
375 0.223163
380 0.196084
385 0.181403
390 0.199634
395 0.207299
400 0.205141
405 0.201971
410 0.166254
415 0.124776
420 0.119167
425 0.167526
430 0.189034
435 0.214282
440 0.209128
445 0.190581
450 0.204505
455 0.161738
460 0.191609
465 0.185225
470 0.217699
475 0.292459
480 0.201792
485 0.202547
490 0.251067
495 0.256468
500 0.35226
505 0.389542
510 0.610113
515 10.8674
520 176.074
525 259.292
530 65.3344
535 8.54985
540 1.93918
545 1.19178
550 1.09917
555 0.929964
560 0.910264
565 0.947333
570 0.689948
575 0.649721
580 0.568539
585 0.44838
590 0.423849
595 0.388587
600 0.803123
Ex : 533
200 0.196732
205 0.212582
210 0.17318
215 0.203567
220 0.192243
225 0.190261
230 0.151236
235 0.111201
240 0.231127
245 0.239833
250 0.237218
255 0.1503
260 0.190242
265 0.20396
270 0.160718
275 0.176095
280 0.146223
285 0.140764
290 0.132434
295 0.199248
300 0.116015
305 0.17331
310 0.235026
315 0.228526
320 0.187397
325 0.187336
330 0.203162
335 0.206517
340 0.163932
345 0.153997
350 0.209567
355 0.14811
360 0.169435
365 0.239407
370 0.201378
375 0.199144
380 0.195245
385 0.213585
390 0.161638
395 0.192216
400 0.162847
405 0.212517
410 0.283178
415 0.177386
420 0.258802
425 0.205452
430 0.239719
435 0.275513
440 0.189755
445 0.191018
450 0.193904
455 0.186423
460 0.21234
465 0.238212
470 0.29037
475 0.249778
480 0.218351
485 0.217302
490 0.2535
495 0.189237
500 0.312853
505 0.39417
510 0.401164
515 0.469949
520 10.4466
525 166.449
530 260.534
535 67.5705
540 8.85369
545 1.90719
550 1.09255
555 0.963647
560 0.74761
565 0.645398
570 0.822035
575 0.761501
580 0.598575
585 0.427355
590 0.386014
595 0.341943
600 0.406912
Ex : 538
200 0.198657
205 0.252929
210 0.222875
215 0.202155
220 0.192902
225 0.234881
230 0.1864
235 0.230205
240 0.187846
245 0.12271
250 0.136009
255 0.193899
260 0.171994
265 0.177236
270 0.248754
275 0.201972
280 0.176221
285 0.263359
290 0.176694
295 0.247796
300 0.148205
305 0.177401
310 0.19327
315 0.176154
320 0.249181
325 0.195618
330 0.225417
335 0.187466
340 0.165424
345 0.171554
350 0.171762
355 0.19882
360 0.225989
365 0.149025
370 0.225726
375 0.151448
380 0.203738
385 0.274061
390 0.235648
395 0.219663
400 0.18768
405 0.159423
410 0.190185
415 0.149543
420 0.167352
425 0.18092
430 0.193478
435 0.17936
440 0.143866
445 0.168928
450 0.224468
455 0.149348
460 0.228562
465 0.257215
470 0.295868
475 0.23614
480 0.220157
485 0.23563
490 0.194264
495 0.244594
500 0.280092
505 0.203308
510 0.316618
515 0.385387
520 0.485027
525 8.7456
530 158.85
535 253.154
540 67.305
545 8.65184
550 1.67035
555 1.05906
560 0.786633
565 0.596545
570 0.643817
575 0.659493
580 0.582825
585 0.398852
590 0.4189
595 0.320174
600 0.161546
Ex : 543
200 0.165709
205 0.169471
210 0.257203
215 0.16671
220 0.159867
225 0.184933
230 0.149954
235 0.209455
240 0.192345
245 0.170145
250 0.277442
255 0.229002
260 0.20376
265 0.2086
270 0.250459
275 0.177358
280 0.211312
285 0.224482
290 0.236073
295 0.202579
300 0.147198
305 0.263061
310 0.259226
315 0.196976
320 0.193783
325 0.255203
330 0.23352
335 0.165111
340 0.216401
345 0.235286
350 0.195209
355 0.198066
360 0.183152
365 0.19627
370 0.250398
375 0.223249
380 0.214066
385 0.234274
390 0.196306
395 0.176943
400 0.145875
405 0.196406
410 0.226878
415 0.250091
420 0.238424
425 0.172307
430 0.248118
435 0.210816
440 0.208872
445 0.20249
450 0.231929
455 0.288153
460 0.229725
465 0.222735
470 0.213251
475 0.220012
480 0.190592
485 0.256045
490 0.22723
495 0.250194
500 0.209795
505 0.207001
510 0.306192
515 0.339665
520 0.368599
525 0.534792
530 8.74096
535 154.66
540 252.408
545 68.9796
550 8.79714
555 1.78747
560 0.81386
565 0.71529
570 0.565211
575 0.504669
580 0.497715
585 0.508953
590 0.489716
595 0.310999
600 0.368388
Ex : 548
200 0.22925
205 0.159654
210 0.17122
215 0.171537
220 0.205378
225 0.188169
230 0.156859
235 0.201911
240 0.240382
245 0.23904
250 0.245983
255 0.212327
260 0.177234
265 0.1651
270 0.196501
275 0.199312
280 0.227878
285 0.233117
290 0.174272
295 0.173782
300 0.265732
305 0.182284
310 0.223579
315 0.231806
320 0.219711
325 0.201874
330 0.189094
335 0.275884
340 0.326927
345 0.224377
350 0.165703
355 0.237716
360 0.27944
365 0.247195
370 0.218228
375 0.158605
380 0.175564
385 0.243146
390 0.180016
395 0.265369
400 0.17368
405 0.262932
410 0.208825
415 0.23404
420 0.268914
425 0.214339
430 0.282174
435 0.189743
440 0.190932
445 0.237076
450 0.2161
455 0.212522
460 0.206855
465 0.282218
470 0.19061
475 0.18883
480 0.206537
485 0.282259
490 0.281566
495 0.218722
500 0.262289
505 0.213513
510 0.252778
515 0.430723
520 0.31518
525 0.34799
530 0.652125
535 9.07434
540 155.466
545 250.618
550 68.8726
555 8.62418
560 1.62163
565 0.835091
570 0.700168
575 0.500297
580 0.387414
585 0.373496
590 0.374221
595 0.374994
600 0.141752
Ex : 553
200 0.33135
205 0.266506
210 0.260044
215 0.290096
220 0.203955
225 0.166084
230 0.209429
235 0.180936
240 0.18829
245 0.206725
250 0.146934
255 0.231603
260 0.191196
265 0.218117
270 0.212828
275 0.190476
280 0.257697
285 0.271141
290 0.219926
295 0.179114
300 0.235835
305 0.169536
310 0.274051
315 0.194963
320 0.213554
325 0.197651
330 0.178501
335 0.163474
340 0.238552
345 0.182194
350 0.188378
355 0.21342
360 0.241333
365 0.188118
370 0.196527
375 0.247108
380 0.235041
385 0.19926
390 0.276149
395 0.292313
400 0.231652
405 0.299575
410 0.216668
415 0.251965
420 0.217459
425 0.187149
430 0.260588
435 0.231107
440 0.209834
445 0.228671
450 0.268965
455 0.311127
460 0.268213
465 0.201066
470 0.234161
475 0.208498
480 0.199904
485 0.243173
490 0.220998
495 0.221325
500 0.293301
505 0.222598
510 0.305371
515 0.270944
520 0.252793
525 0.297749
530 0.401537
535 0.554021
540 8.11446
545 146.252
550 247.509
555 68.1748
560 8.51808
565 1.51641
570 0.714469
575 0.529593
580 0.456679
585 0.348505
590 0.414575
595 0.416858
600 0.144633
Ex : 558
200 0.139252
205 0.175577
210 0.27451
215 0.256364
220 0.204054
225 0.199869
230 0.195524
235 0.263149
240 0.210057
245 0.220682
250 0.260759
255 0.206603
260 0.176251
265 0.221735
270 0.208575
275 0.253069
280 0.25692
285 0.240981
290 0.219342
295 0.168437
300 0.152458
305 0.274357
310 0.288591
315 0.263717
320 0.24216
325 0.235041
330 0.195588
335 0.177902
340 0.244461
345 0.175659
350 0.293784
355 0.231224
360 0.199593
365 0.305978
370 0.165883
375 0.202891
380 0.211126
385 0.244491
390 0.211717
395 0.271058
400 0.219387
405 0.182186
410 0.175678
415 0.216659
420 0.190326
425 0.181472
430 0.211776
435 0.220315
440 0.26169
445 0.187118
450 0.208981
455 0.333861
460 0.34343
465 0.230322
470 0.186285
475 0.270633
480 0.229819
485 0.271012
490 0.297961
495 0.207408
500 0.251
505 0.262708
510 0.294041
515 0.306866
520 0.322258
525 0.260945
530 0.353586
535 0.381095
540 0.461633
545 7.58632
550 140.44
555 244.791
560 67.846
565 8.44549
570 1.56776
575 0.592353
580 0.542673
585 0.365351
590 0.398665
595 0.328081
600 0.0373344
Ex : 563
200 0.230882
205 0.214917
210 0.212417
215 0.223451
220 0.216038
225 0.197257
230 0.214678
235 0.24068
240 0.223853
245 0.247207
250 0.200049
255 0.198631
260 0.244628
265 0.280851
270 0.236368
275 0.242598
280 0.190301
285 0.205431
290 0.184757
295 0.236513
300 0.2382
305 0.281768
310 0.137276
315 0.151748
320 0.325152
325 0.251692
330 0.188422
335 0.221674
340 0.245683
345 0.261934
350 0.214821
355 0.236607
360 0.273399
365 0.261557
370 0.232925
375 0.192569
380 0.227736
385 0.351513
390 0.230472
395 0.243013
400 0.262109
405 0.409629
410 0.28056
415 0.284629
420 0.217239
425 0.308714
430 0.299702
435 0.207249
440 0.254603
445 0.255207
450 0.205092
455 0.246311
460 0.328897
465 0.27119
470 0.402278
475 0.24623
480 0.158798
485 0.269861
490 0.274705
495 0.272156
500 0.209406
505 0.234096
510 0.326297
515 0.212025
520 0.320545
525 0.349306
530 0.320413
535 0.404553
540 0.383238
545 0.476931
550 7.29623
555 140.602
560 238.698
565 67.5635
570 8.38884
575 1.42149
580 0.510514
585 0.441117
590 0.375703
595 0.363063
600 1.99582
Ex : 568
200 0.289128
205 0.223806
210 0.284349
215 0.238044
220 0.269595
225 0.216949
230 0.181823
235 0.222155
240 0.179547
245 0.24097
250 0.236625
255 0.176126
260 0.266285
265 0.230567
270 0.248536
275 0.245526
280 0.177214
285 0.280269
290 0.20827
295 0.215774
300 0.227076
305 0.20083
310 0.213919
315 0.2993
320 0.239203
325 0.186475
330 0.161909
335 0.193958
340 0.274629
345 0.24094
350 0.285751
355 0.224536
360 0.36109
365 0.32111
370 0.313732
375 0.28681
380 0.254863
385 0.27246
390 0.280278
395 0.277979
400 0.312209
405 0.214526
410 0.267655
415 0.197627
420 0.281793
425 0.289517
430 0.262792
435 0.215243
440 0.199944
445 0.262466
450 0.287708
455 0.286133
460 0.276907
465 0.230272
470 0.310138
475 0.313199
480 0.223355
485 0.247937
490 0.30828
495 0.237663
500 0.298146
505 0.247561
510 0.213604
515 0.199475
520 0.25073
525 0.384121
530 0.260389
535 0.316203
540 0.285728
545 0.398796
550 0.534497
555 5.60701
560 126.754
565 228.401
570 68.657
575 8.64429
580 1.38976
585 0.499434
590 0.548904
595 0.385494
600 0.081848
Ex : 573
200 0.238367
205 0.286683
210 0.15268
215 0.26941
220 0.194529
225 0.23164
230 0.25622
235 0.283923
240 0.295317
245 0.29587
250 0.251162
255 0.334573
260 0.241341
265 0.279546
270 0.240648
275 0.246237
280 0.197952
285 0.252472
290 0.282769
295 0.192927
300 0.428361
305 0.227215
310 0.197673
315 0.275034
320 0.224354
325 0.257433
330 0.2273
335 0.241366
340 0.222876
345 0.219007
350 0.281748
355 0.228137
360 0.167957
365 0.241434
370 0.271126
375 0.277972
380 0.198133
385 0.310782
390 0.241517
395 0.341418
400 0.276893
405 0.301459
410 0.308522
415 0.311845
420 0.32358
425 0.265893
430 0.227887
435 0.2813
440 0.233084
445 0.237069
450 0.267622
455 0.234358
460 0.280114
465 0.282741
470 0.314911
475 0.261682
480 0.295965
485 0.354938
490 0.348749
495 0.275545
500 0.229236
505 0.344191
510 0.274602
515 0.205591
520 0.295458
525 0.263287
530 0.299777
535 0.258207
540 0.293132
545 0.340298
550 0.343338
555 0.377895
560 5.07939
565 104.326
570 199.745
575 60.4844
580 7.60108
585 1.36229
590 0.608669
595 0.340143
600 0.523855
Ex : 578
200 0.280714
205 0.191556
210 0.226222
215 0.188174
220 0.275252
225 0.281972
230 0.227052
235 0.19672
240 0.226371
245 0.175627
250 0.262447
255 0.248825
260 0.267714
265 0.257974
270 0.25518
275 0.273712
280 0.233484
285 0.213834
290 0.218305
295 0.314823
300 0.255748
305 0.291394
310 0.150683
315 0.254549
320 0.285201
325 0.344792
330 0.190907
335 0.233695
340 0.222272
345 0.277257
350 0.209394
355 0.244347
360 0.255532
365 0.266973
370 0.234987
375 0.301537
380 0.224328
385 0.257189
390 0.346635
395 0.239464
400 0.28534
405 0.250638
410 0.248409
415 0.225291
420 0.274767
425 0.18226
430 0.264975
435 0.253895
440 0.204955
445 0.38878
450 0.30488
455 0.281477
460 0.188963
465 0.221377
470 0.294033
475 0.310081
480 0.299751
485 0.250402
490 0.208829
495 0.168441
500 0.234275
505 0.356048
510 0.285064
515 0.16626
520 0.232488
525 0.19249
530 0.330685
535 0.227656
540 0.287808
545 0.404663
550 0.289053
555 0.392829
560 0.417038
565 4.08197
570 93.5997
575 183.793
580 55.2374
585 7.01072
590 1.07745
595 0.373807
600 1.16862
Ex : 583
200 0.311709
205 0.241165
210 0.267474
215 0.185195
220 0.302286
225 0.26841
230 0.286982
235 0.272616
240 0.273149
245 0.245011
250 0.273795
255 0.362374
260 0.22666
265 0.228602
270 0.221943
275 0.277734
280 0.204136
285 0.27765
290 0.266203
295 0.188849
300 0.187776
305 0.210578
310 0.282377
315 0.235714
320 0.220896
325 0.259609
330 0.20956
335 0.311994
340 0.314737
345 0.170319
350 0.207694
355 0.217134
360 0.212084
365 0.205303
370 0.234215
375 0.204451
380 0.225239
385 0.211925
390 0.289356
395 0.268023
400 0.226795
405 0.325084
410 0.289448
415 0.31507
420 0.363178
425 0.29787
430 0.3317
435 0.272584
440 0.352138
445 0.374663
450 0.264514
455 0.356374
460 0.343768
465 0.285871
470 0.246459
475 0.362885
480 0.338927
485 0.27258
490 0.292978
495 0.217253
500 0.306786
505 0.334043
510 0.247852
515 0.304761
520 0.327462
525 0.204386
530 0.293975
535 0.307944
540 0.365409
545 0.286985
550 0.29181
555 0.313207
560 0.335771
565 0.403222
570 3.58578
575 82.1299
580 150.911
585 43.5465
590 5.54607
595 0.918671
600 0.104541
Ex : 588
200 0.296653
205 0.293698
210 0.273622
215 0.15453
220 0.104349
225 0.246751
230 0.229606
235 0.273319
240 0.35282
245 0.294271
250 0.280619
255 0.240899
260 0.270276
265 0.30666
270 0.22018
275 0.22937
280 0.347912
285 0.24301
290 0.235088
295 0.262068
300 0.262909
305 0.264332
310 0.286275
315 0.336957
320 0.264117
325 0.298576
330 0.262531
335 0.257828
340 0.379215
345 0.267794
350 0.243223
355 0.309782
360 0.202939
365 0.243035
370 0.212275
375 0.248368
380 0.278767
385 0.288251
390 0.179208
395 0.300942
400 0.395474
405 0.22484
410 0.267462
415 0.248341
420 0.193017
425 0.350792
430 0.318479
435 0.190137
440 0.356857
445 0.314789
450 0.233321
455 0.190512
460 0.260279
465 0.2437
470 0.398487
475 0.252082
480 0.243354
485 0.186733
490 0.304501
495 0.308031
500 0.233571
505 0.254552
510 0.282216
515 0.257438
520 0.257016
525 0.242031
530 0.345697
535 0.338851
540 0.347167
545 0.279364
550 0.30679
555 0.318224
560 0.391914
565 0.404481
570 0.468978
575 3.13786
580 67.7062
585 137.562
590 40.5302
595 5.11079
600 1.11612
Ex : 593
200 0.319304
205 0.275161
210 0.27638
215 0.292659
220 0.240961
225 0.237278
230 0.230451
235 0.22588
240 0.316526
245 0.146507
250 0.220456
255 0.24309
260 0.258677
265 0.298737
270 0.264607
275 0.244047
280 0.261877
285 0.241995
290 0.29181
295 0.284895
300 0.302057
305 0.232095
310 0.266046
315 0.317243
320 0.29036
325 0.258673
330 0.276349
335 0.253884
340 0.383793
345 0.278049
350 0.260156
355 0.224867
360 0.239867
365 0.296534
370 0.310628
375 0.338663
380 0.338719
385 0.243708
390 0.235003
395 0.45008
400 0.257921
405 0.273229
410 0.24248
415 0.316772
420 0.32469
425 0.326901
430 0.289305
435 0.246424
440 0.404966
445 0.268733
450 0.222264
455 0.251678
460 0.302066
465 0.325353
470 0.317587
475 0.296018
480 0.286225
485 0.316128
490 0.316528
495 0.279333
500 0.306693
505 0.236391
510 0.232078
515 0.273994
520 0.220563
525 0.28972
530 0.23014
535 0.225895
540 0.312497
545 0.259766
550 0.251244
555 0.323521
560 0.394801
565 0.343576
570 0.408334
575 0.410232
580 2.98136
585 63.7444
590 116.009
595 34.1346
600 4.3458
Ex : 598
200 0.401663
205 0.345406
210 0.289897
215 0.275054
220 0.306642
225 0.28321
230 0.305124
235 0.28633
240 0.321019
245 0.260633
250 0.317989
255 0.235168
260 0.263107
265 0.259697
270 0.241253
275 0.253294
280 0.294815
285 0.22638
290 0.305977
295 0.26635
300 0.263551
305 0.315851
310 0.315002
315 0.18457
320 0.334697
325 0.335162
330 0.318962
335 0.325579
340 0.307216
345 0.255074
350 0.300302
355 0.274953
360 0.278502
365 0.302053
370 0.362569
375 0.263414
380 0.324077
385 0.280056
390 0.319955
395 0.313987
400 0.286459
405 0.374986
410 0.350691
415 0.415061
420 0.222082
425 0.244495
430 0.301577
435 0.214595
440 0.356956
445 0.268363
450 0.232143
455 0.338041
460 0.295705
465 0.364537
470 0.358317
475 0.319318
480 0.305575
485 0.262596
490 0.229301
495 0.231991
500 0.271484
505 0.323375
510 0.27001
515 0.301665
520 0.231119
525 0.251471
530 0.316384
535 0.273865
540 0.244107
545 0.278199
550 0.322717
555 0.30147
560 0.315714
565 0.392516
570 0.314752
575 0.350487
580 0.33293
585 2.89961
590 55.5918
595 97.3954
600 59.2762
Ex : 603
200 0.25942
205 0.277418
210 0.324714
215 0.242608
220 0.26577
225 0.264776
230 0.178059
235 0.190387
240 0.230994
245 0.400069
250 0.232065
255 0.292482
260 0.275346
265 0.214465
270 0.249609
275 0.28216
280 0.2891
285 0.334952
290 0.269857
295 0.409014
300 0.275286
305 0.246869
310 0.221545
315 0.220657
320 0.20688
325 0.139463
330 0.330791
335 0.336673
340 0.259912
345 0.35737
350 0.187883
355 0.441547
360 0.295059
365 0.276133
370 0.321594
375 0.305344
380 0.236667
385 0.252522
390 0.506162
395 0.403742
400 0.312213
405 0.366158
410 0.376632
415 0.259396
420 0.272947
425 0.360177
430 0.257797
435 0.34538
440 0.387773
445 0.316925
450 0.288571
455 0.313953
460 0.364749
465 0.314648
470 0.298608
475 0.403523
480 0.26805
485 0.340259
490 0.388297
495 0.389554
500 0.327256
505 0.353867
510 0.285616
515 0.345223
520 0.217567
525 0.24694
530 0.22033
535 0.250454
540 0.418105
545 0.327351
550 0.261925
555 0.369294
560 0.303647
565 0.303311
570 0.421656
575 0.263377
580 0.397204
585 0.468456
590 2.60592
595 48.9839
600 89.8189
