File format V 1.0
ven. 9. déc. 21:00:00 2016
Operator : 
Comments : 

=============================================
SpectroFluorometer parameters
Mode : 3D measurement
Data : Fluorescence
Phospho. : Ordinary
Spectrum : Fluorescence

Scan speed : 2400 nm/mn
Response : 100 ms
PM Voltage : 700 V
Shutter : On

Lambda Ex. Start : 203
Lambda Ex. End : 603
Lambda Ex. Step : 5
Ex. Slit : 5 nm

Lambda Em. Start : 200
Lambda Em. End : 600
Lambda Em. Step : 5
Em. Slit : 5 nm

Repetition : 1
Decal lambda em : 10
=============================================
DATA
Ex : 203
200 14.8412
205 14.0016
210 13.361
215 12.4138
220 14.3226
225 14.2171
230 11.9219
235 14.6907
240 14.2069
245 15.1162
250 19.5482
255 15.3549
260 13.332
265 14.1942
270 14.273
275 15.7032
280 17.216
285 17.1249
290 15.8711
295 10.9206
300 10.7451
305 15.8227
310 15.653
315 18.5305
320 16.505
325 17.2631
330 13.2115
335 18.2748
340 12.917
345 15.7458
350 15.0899
355 22.5459
360 16.5514
365 14.7157
370 18.5508
375 21.1049
380 14.9676
385 12.6898
390 11.0204
395 12.1645
400 14.7147
405 16.3353
410 19.9763
415 15.4427
420 17.5982
425 13.9974
430 13.602
435 18.8481
440 14.8978
445 12.0871
450 13.8848
455 15.9532
460 17.8395
465 16.1278
470 15.7643
475 11.7061
480 15.2247
485 13.3274
490 13.7855
495 12.399
500 13.7245
505 18.9269
510 12.3135
515 15.5967
520 13.8251
525 17.5444
530 17.9424
535 12.4507
540 13.231
545 13.2453
550 15.3836
555 15.0974
560 16.112
565 28.787
570 20.3353
575 18.282
580 14.8646
585 15.1938
590 15.1001
595 15.6151
600 11.0821
Ex : 208
200 13.9886
205 13.5609
210 13.2946
215 20.667
220 13.7221
225 13.3552
230 15.6879
235 11.2764
240 14.0359
245 14.2047
250 18.0163
255 18.4095
260 13.3595
265 15.5721
270 15.0288
275 14.2763
280 13.0801
285 18.464
290 15.4108
295 18.0115
300 13.8192
305 14.1142
310 13.5375
315 11.3635
320 15.5078
325 15.1491
330 16.0407
335 18.8067
340 11.0278
345 12.2428
350 16.4586
355 13.0313
360 14.4603
365 14.1675
370 17.0256
375 17.4307
380 11.0289
385 11.03
390 16.7399
395 13.0795
400 13.0977
405 15.6057
410 19.4582
415 13.6288
420 14.6033
425 16.1154
430 17.4194
435 14.4234
440 13.8721
445 17.3305
450 19.0288
455 21.6452
460 12.8227
465 14.4226
470 20.211
475 17.6608
480 16.8251
485 12.3829
490 17.8255
495 12.3452
500 15.9327
505 17.4357
510 18.6676
515 19.3684
520 15.2215
525 18.9375
530 13.8845
535 16.6146
540 13.6901
545 19.3829
550 19.3274
555 20.5313
560 16.4114
565 12.5529
570 17.1925
575 17.2845
580 16.9613
585 15.1634
590 19.4837
595 11.8034
600 102.37
Ex : 213
200 14.8133
205 13.1796
210 10.5793
215 12.6959
220 16.198
225 16.3128
230 12.6394
235 11.7031
240 12.7219
245 16.0622
250 12.4928
255 12.2241
260 12.004
265 15.0314
270 12.2423
275 13.2593
280 14.7012
285 14.4054
290 12.2966
295 11.9166
300 18.7389
305 16.5796
310 12.915
315 18.5473
320 14.5175
325 14.7102
330 13.6651
335 19.5925
340 17.5372
345 16.0847
350 14.1915
355 13.4672
360 13.1278
365 12.33
370 15.6367
375 11.3285
380 16.9795
385 17.85
390 13.7552
395 13.8201
400 11.6949
405 15.8509
410 15.4943
415 15.9943
420 13.955
425 16.7928
430 11.0972
435 13.6123
440 12.8846
445 17.252
450 14.2545
455 14.8365
460 17.2926
465 15.5278
470 15.4145
475 15.471
480 17.0043
485 15.4805
490 15.479
495 13.1049
500 15.9537
505 15.0587
510 17.9899
515 16.9649
520 19.9044
525 13.6284
530 14.738
535 21.1889
540 13.0358
545 14.5444
550 14.2358
555 15.3188
560 14.2372
565 16.7296
570 13.1427
575 12.2502
580 12.2824
585 13.1228
590 13.5868
595 15.0003
600 17.8063
Ex : 218
200 15.25
205 11.4621
210 16.5109
215 13.2262
220 14.2129
225 14.7923
230 12.6743
235 13.6511
240 16.7356
245 15.5749
250 11.873
255 14.8375
260 16.8572
265 16.3634
270 11.7376
275 15.6549
280 14.1068
285 17.8575
290 13.4636
295 14.0528
300 14.0952
305 11.9253
310 14.535
315 12.6222
320 12.5589
325 18.7874
330 15.9648
335 14.7238
340 13.6248
345 16.0918
350 14.3435
355 16.1202
360 19.6038
365 20.2031
370 14.2628
375 14.8248
380 16.6423
385 19.5406
390 21.8688
395 17.5238
400 16.6652
405 17.3252
410 13.2397
415 15.9832
420 16.4123
425 17.148
430 18.6354
435 19.5844
440 13.9708
445 16.2374
450 15.3079
455 16.9592
460 14.7165
465 18.0009
470 18.7688
475 15.0046
480 12.1084
485 12.4752
490 11.5572
495 17.3763
500 17.9393
505 16.7674
510 13.3972
515 17.0199
520 16.9698
525 14.583
530 18.016
535 13.9681
540 21.4029
545 17.5577
550 20.1211
555 16.9445
560 12.4797
565 14.0687
570 16.3025
575 13.9174
580 12.6219
585 13.9945
590 16.252
595 15.2374
600 3.80177
Ex : 223
200 10.6378
205 17.1471
210 11.622
215 12.8233
220 12.4254
225 10.9551
230 12.419
235 13.9891
240 14.8094
245 13.754
250 17.2878
255 11.7952
260 13.8542
265 12.8757
270 12.3275
275 14.6435
280 17.432
285 13.0762
290 14.1822
295 20.6621
300 17.1621
305 12.0927
310 13.2315
315 13.5039
320 16.4466
325 15.085
330 15.0191
335 15.2225
340 18.8919
345 12.8939
350 13.0032
355 21.0488
360 15.9099
365 13.1987
370 15.4789
375 14.9532
380 18.6069
385 15.9928
390 16.321
395 16.6489
400 19.9207
405 14.4689
410 15.5753
415 11.2354
420 11.3813
425 15.4327
430 14.6595
435 14.7691
440 12.066
445 14.2456
450 17.6072
455 15.7373
460 17.8676
465 13.1606
470 17.3442
475 14.6403
480 12.8978
485 14.5062
490 14.5555
495 14.473
500 16.3508
505 13.9668
510 17.6141
515 13.5505
520 15.3627
525 18.0037
530 13.1393
535 13.9586
540 10.5807
545 10.1905
550 11.2652
555 12.435
560 14.7962
565 15.671
570 13.8444
575 15.2694
580 17.306
585 16.5619
590 12.4165
595 12.8097
600 5.88872
Ex : 228
200 9.23
205 11.6575
210 14.1341
215 14.9202
220 11.5989
225 11.9774
230 14.2849
235 14.5233
240 13.886
245 15.9039
250 17.7802
255 12.3624
260 13.9442
265 14.5812
270 10.8121
275 11.2989
280 11.5009
285 19.2868
290 11.7976
295 15.8007
300 12.4115
305 11.3847
310 9.09051
315 12.2807
320 9.54868
325 11.3627
330 12.4069
335 14.886
340 16.1995
345 17.1932
350 14.0079
355 14.6085
360 11.8307
365 11.4573
370 12.4516
375 11.3395
380 11.8539
385 15.4962
390 10.7501
395 10.148
400 12.3414
405 13.5673
410 11.5113
415 13.6841
420 13.9321
425 12.2547
430 17.5426
435 16.6921
440 12.5106
445 12.1214
450 11.9373
455 19.137
460 18.8686
465 16.1254
470 14.4209
475 12.3845
480 11.6786
485 15.92
490 15.6252
495 15.147
500 13.5163
505 14.9991
510 17.4632
515 10.7245
520 16.1717
525 15.218
530 12.0788
535 16.0317
540 13.6715
545 16.8709
550 10.6904
555 15.2913
560 16.1143
565 14.536
570 12.2304
575 11.8324
580 13.8606
585 14.8336
590 19.7567
595 15.5958
600 2.53435
Ex : 233
200 12.3839
205 13.9024
210 15.1029
215 9.26826
220 15.2721
225 10.8556
230 15.8304
235 11.7733
240 12.737
245 13.5104
250 14.6741
255 13.2325
260 12.5875
265 12.2237
270 11.9643
275 13.6784
280 10.0632
285 9.9074
290 13.3074
295 9.72268
300 13.5091
305 13.5828
310 8.86088
315 9.97598
320 14.1487
325 13.1439
330 12.6807
335 12.7662
340 11.9834
345 13.996
350 12.4963
355 12.7612
360 12.724
365 11.5831
370 10.9895
375 12.1076
380 11.4653
385 12.0565
390 14.7174
395 11.4149
400 10.2427
405 8.97068
410 10.4171
415 11.6976
420 11.65
425 13.2044
430 14.7785
435 13.92
440 11.8405
445 11.0452
450 11.5879
455 17.0404
460 15.4959
465 15.5018
470 14.1529
475 15.2107
480 15.4026
485 12.2108
490 9.00686
495 14.434
500 13.7797
505 11.9057
510 14.4169
515 15.7112
520 13.4993
525 13.8888
530 15.9506
535 11.7588
540 13.4352
545 12.6566
550 14.9337
555 13.8023
560 15.9574
565 13.6219
570 10.9542
575 12.6669
580 15.427
585 10.5674
590 12.5643
595 10.6333
600 15.921
Ex : 238
200 6.86222
205 12.7446
210 10.972
215 10.5296
220 8.86351
225 11.8597
230 10.3178
235 10.3463
240 12.1823
245 10.6051
250 9.17889
255 11.7309
260 11.3591
265 13.3489
270 9.44904
275 12.1643
280 10.4901
285 8.55324
290 10.1883
295 11.5295
300 11.9506
305 10.5477
310 10.9091
315 9.66227
320 9.84629
325 11.8
330 10.9485
335 11.4294
340 11.9273
345 8.88815
350 12.4669
355 9.85655
360 11.0396
365 8.05952
370 9.62364
375 14.752
380 11.7016
385 9.45574
390 9.99321
395 11.3322
400 10.948
405 10.3866
410 10.8133
415 11.7908
420 12.356
425 12.3038
430 13.2682
435 14.0318
440 10.7224
445 9.58562
450 13.8014
455 11.3594
460 12.06
465 11.8037
470 15.8025
475 14.0042
480 10.2681
485 10.6924
490 10.9804
495 9.86561
500 11.161
505 11.6635
510 13.7569
515 12.6866
520 13.7508
525 12.2516
530 10.4913
535 11.305
540 13.2332
545 13.0341
550 9.57923
555 11.8442
560 13.6524
565 12.0943
570 9.33678
575 9.90309
580 9.85754
585 8.65808
590 8.93289
595 11.1001
600 13.0792
Ex : 243
200 10.7351
205 9.51622
210 7.75224
215 9.15114
220 8.89252
225 8.105
230 7.12887
235 9.05552
240 10.5097
245 8.43274
250 10.3276
255 9.06401
260 10.8047
265 9.96498
270 11.8161
275 9.27036
280 8.33933
285 8.22923
290 11.8057
295 10.3218
300 9.5541
305 12.5186
310 8.58484
315 8.60425
320 7.92488
325 11.4566
330 13.3204
335 8.69141
340 11.7347
345 10.2236
350 10.5251
355 9.68997
360 10.5061
365 8.16551
370 8.33987
375 8.22881
380 10.3288
385 11.5319
390 10.555
395 8.64119
400 9.17482
405 12.1199
410 9.79977
415 9.0711
420 9.80101
425 10.1234
430 12.7969
435 9.74695
440 10.891
445 10.1596
450 10.3773
455 11.9815
460 7.67847
465 11.5594
470 9.35054
475 10.5933
480 7.4324
485 10.3309
490 7.8205
495 10.1846
500 9.82807
505 9.69382
510 10.2075
515 11.8784
520 9.67813
525 8.22106
530 8.37446
535 7.85949
540 8.78063
545 10.6747
550 10.9996
555 13.625
560 10.9298
565 10.6955
570 11.0661
575 10.7954
580 9.69738
585 9.38147
590 9.07374
595 10.819
600 1.23116
Ex : 248
200 7.16615
205 8.14381
210 7.55942
215 9.3903
220 9.92241
225 9.10767
230 8.13716
235 8.80927
240 8.65904
245 6.91436
250 8.90946
255 7.63049
260 7.87984
265 5.86381
270 7.81213
275 7.20427
280 7.16504
285 7.16057
290 5.99242
295 8.85652
300 7.24738
305 8.8546
310 8.38161
315 8.68225
320 7.91549
325 8.45213
330 7.6352
335 6.89836
340 7.35533
345 8.33097
350 7.71004
355 7.25535
360 7.55463
365 8.63766
370 7.8001
375 9.04559
380 7.48442
385 9.04422
390 5.7138
395 6.89879
400 7.41232
405 8.41437
410 8.55875
415 9.30713
420 8.89673
425 7.99591
430 7.84578
435 7.29592
440 9.15779
445 9.59961
450 9.21872
455 7.64419
460 7.7455
465 9.13858
470 6.9589
475 8.27908
480 7.96187
485 9.18927
490 8.07063
495 12.4115
500 8.94512
505 7.49258
510 9.03563
515 7.06774
520 6.50553
525 8.87204
530 8.06046
535 9.66246
540 7.13367
545 8.54871
550 8.54708
555 8.23724
560 8.00564
565 7.69754
570 9.79572
575 9.15035
580 8.96943
585 8.11852
590 10.4003
595 8.66638
600 4.19869
Ex : 253
200 7.32843
205 5.76168
210 6.37434
215 6.45421
220 5.47053
225 8.35708
230 8.78823
235 5.76508
240 8.07145
245 7.28909
250 5.9306
255 6.11807
260 6.11011
265 5.79809
270 6.92434
275 9.33132
280 6.44815
285 6.99287
290 6.07663
295 6.07637
300 7.69916
305 5.68339
310 6.98403
315 6.96894
320 7.34725
325 6.08906
330 7.39021
335 7.2155
340 5.36625
345 7.07115
350 6.96323
355 6.91729
360 5.63784
365 8.13422
370 6.6994
375 9.20802
380 4.95769
385 6.28747
390 8.06727
395 6.79696
400 8.08465
405 5.74806
410 6.75956
415 7.29195
420 8.00223
425 8.05888
430 7.81539
435 8.30371
440 5.5326
445 6.12721
450 6.74098
455 8.11344
460 6.41553
465 6.60735
470 5.94726
475 6.53068
480 7.10379
485 7.21018
490 7.18161
495 5.42999
500 6.34682
505 7.79406
510 7.80303
515 6.71126
520 6.85776
525 7.17829
530 5.54402
535 6.90629
540 8.19466
545 6.10168
550 5.3441
555 6.5095
560 6.85512
565 6.61131
570 6.22789
575 8.35305
580 6.00883
585 6.36291
590 7.22216
595 7.30478
600 7.42855
Ex : 258
200 5.512
205 4.85653
210 4.26031
215 5.25477
220 4.54972
225 5.09242
230 4.74181
235 5.843
240 4.68296
245 5.32118
250 6.31643
255 6.14612
260 5.19108
265 4.60215
270 4.47499
275 4.21868
280 3.48167
285 5.79732
290 5.00985
295 5.28293
300 5.23328
305 5.08681
310 4.5526
315 3.3308
320 5.10784
325 5.83718
330 5.80458
335 5.18036
340 5.56929
345 5.92121
350 6.08001
355 6.34342
360 5.7345
365 5.06926
370 4.79106
375 5.95814
380 4.7819
385 5.8874
390 4.83547
395 5.70697
400 7.73906
405 5.2415
410 5.22189
415 5.42162
420 6.072
425 5.6664
430 6.69404
435 5.7238
440 5.41556
445 5.99978
450 5.80687
455 5.04462
460 4.95642
465 5.1582
470 5.74519
475 4.25163
480 4.532
485 4.46875
490 4.25009
495 5.35689
500 5.93035
505 3.91028
510 4.78755
515 4.7256
520 4.66992
525 5.98579
530 3.19839
535 4.66461
540 4.53932
545 5.15447
550 5.9301
555 5.7163
560 4.87167
565 4.88422
570 6.8676
575 5.18361
580 4.70277
585 4.73765
590 6.13848
595 5.66305
600 10.5538
Ex : 263
200 3.97028
205 4.24465
210 4.38372
215 4.06266
220 2.91736
225 2.99864
230 3.38157
235 4.46538
240 3.47672
245 4.62425
250 3.77473
255 3.93094
260 4.12514
265 4.05495
270 3.71813
275 3.87139
280 3.60178
285 4.08966
290 4.82076
295 3.69045
300 3.04702
305 3.68911
310 3.92052
315 3.0454
320 4.51119
325 5.15983
330 4.14015
335 3.76993
340 4.37808
345 4.61282
350 5.09112
355 4.59654
360 4.35844
365 3.75431
370 4.49046
375 3.89727
380 3.57783
385 4.32622
390 3.78411
395 4.65358
400 3.89713
405 3.54113
410 4.19056
415 4.18462
420 5.36313
425 6.36264
430 3.85466
435 4.21924
440 4.0534
445 5.11652
450 4.46274
455 3.74726
460 5.03307
465 4.44498
470 3.09458
475 3.65309
480 4.64323
485 4.10837
490 4.15597
495 5.29124
500 4.03916
505 5.44705
510 3.42796
515 4.52837
520 4.46675
525 3.87119
530 4.08842
535 2.85547
540 3.51962
545 3.23179
550 4.07569
555 4.99987
560 4.47097
565 4.22819
570 3.48298
575 4.04598
580 4.60543
585 3.30076
590 4.02886
595 3.62851
600 2.12993
Ex : 268
200 2.54673
205 3.21777
210 4.16933
215 3.0024
220 3.72432
225 3.16863
230 2.59995
235 2.21858
240 3.84023
245 3.1756
250 3.68332
255 3.65979
260 3.14041
265 3.21797
270 2.77968
275 2.85115
280 2.42614
285 3.13929
290 3.9864
295 2.70275
300 3.18162
305 2.47956
310 2.32651
315 2.42754
320 3.71055
325 3.4623
330 2.86994
335 3.85541
340 3.17449
345 2.74701
350 2.84714
355 3.11894
360 2.80532
365 2.3591
370 3.71069
375 3.91585
380 3.61258
385 3.2372
390 3.81345
395 3.88089
400 4.12094
405 3.60852
410 2.9437
415 3.57308
420 3.02311
425 3.60657
430 4.22677
435 3.5559
440 3.61277
445 3.68764
450 3.78618
455 3.18957
460 3.23163
465 4.01208
470 3.49573
475 3.78374
480 3.19307
485 3.44025
490 3.89841
495 3.49321
500 3.57609
505 3.19996
510 3.55006
515 3.02222
520 3.81637
525 3.67004
530 4.10437
535 2.84775
540 3.04063
545 3.54492
550 2.92081
555 3.07558
560 3.94433
565 3.81963
570 2.82347
575 2.5321
580 3.09287
585 4.46394
590 3.52884
595 2.96773
600 3.36558
Ex : 273
200 2.57495
205 2.77456
210 2.61292
215 2.55627
220 2.38386
225 2.6216
230 1.91617
235 2.89086
240 2.31639
245 2.63301
250 3.27395
255 2.76966
260 2.79046
265 2.14625
270 2.84252
275 2.18196
280 2.30283
285 2.86783
290 2.78281
295 3.10817
300 2.87732
305 2.54465
310 2.45801
315 2.03871
320 2.94264
325 2.35372
330 2.41785
335 1.52537
340 2.31538
345 2.66756
350 2.09783
355 3.48898
360 2.81411
365 2.53574
370 2.7584
375 2.88338
380 2.96044
385 3.10564
390 3.1913
395 2.96755
400 2.42678
405 2.209
410 2.48512
415 3.27352
420 2.81917
425 2.36133
430 3.22892
435 3.69452
440 3.39673
445 2.65405
450 3.12032
455 2.50094
460 2.11372
465 2.61512
470 2.5462
475 2.81005
480 3.23679
485 3.34951
490 2.84293
495 2.71901
500 2.57154
505 2.53607
510 2.67915
515 2.74772
520 2.39648
525 2.94315
530 2.56014
535 2.0976
540 3.68035
545 2.47103
550 2.91359
555 2.27595
560 2.72285
565 3.0009
570 1.97091
575 2.65351
580 2.13779
585 2.04536
590 2.51083
595 2.49032
600 0.283389
Ex : 278
200 2.17937
205 2.41893
210 1.87015
215 1.60306
220 1.73207
225 1.82884
230 2.2517
235 1.93892
240 2.00347
245 2.05145
250 1.91946
255 1.9489
260 1.92475
265 1.78034
270 1.93872
275 2.2896
280 1.72756
285 1.8417
290 1.87764
295 2.14835
300 2.12243
305 1.60518
310 1.60545
315 1.87576
320 2.44292
325 2.27334
330 1.94724
335 1.89553
340 2.74882
345 2.62428
350 1.90644
355 2.67073
360 1.99846
365 2.43812
370 2.47176
375 2.02461
380 2.20073
385 2.29003
390 2.54733
395 2.39929
400 2.27445
405 2.13001
410 2.06823
415 2.28784
420 2.89388
425 2.76344
430 2.71492
435 2.19422
440 2.58958
445 2.37222
450 2.54776
455 2.19316
460 2.37577
465 2.02064
470 1.93652
475 1.91672
480 2.44714
485 2.3569
490 2.25327
495 2.39942
500 2.61455
505 2.18228
510 1.97079
515 2.05576
520 1.6754
525 1.78818
530 2.44324
535 2.35144
540 2.50429
545 2.02418
550 2.68375
555 3.00602
560 2.05522
565 1.88984
570 1.88562
575 2.45138
580 2.33227
585 2.27736
590 2.21119
595 2.27156
600 1.1447
Ex : 283
200 1.81258
205 1.89183
210 1.87015
215 1.29472
220 1.73083
225 1.2902
230 1.69133
235 1.76109
240 2.18279
245 1.76636
250 2.20049
255 2.08016
260 1.65232
265 1.39243
270 1.26838
275 1.84647
280 1.90321
285 1.55546
290 1.87202
295 1.60597
300 1.45485
305 1.8956
310 1.68118
315 1.46679
320 2.03017
325 1.89628
330 1.67977
335 2.0295
340 1.46803
345 1.73011
350 1.8126
355 1.79695
360 1.82126
365 1.81482
370 2.225
375 1.68936
380 2.62496
385 2.59016
390 1.95273
395 1.97953
400 1.94438
405 1.92045
410 1.75918
415 2.12637
420 2.18896
425 1.75646
430 2.37644
435 2.66715
440 1.92247
445 2.19997
450 2.20884
455 1.95865
460 2.10017
465 1.59962
470 1.88552
475 1.82495
480 1.87353
485 2.02113
490 1.82203
495 2.53391
500 1.74343
505 1.78514
510 2.2566
515 1.41979
520 1.85886
525 1.48364
530 1.4874
535 2.15354
540 1.90044
545 1.64182
550 1.39686
555 1.84269
560 2.31703
565 2.699
570 2.02488
575 2.25587
580 1.48016
585 1.52545
590 1.42875
595 1.39227
600 0.158435
Ex : 288
200 1.281
205 1.54019
210 1.7609
215 1.29833
220 1.502
225 1.48332
230 1.34735
235 1.57889
240 1.67063
245 1.58447
250 1.19733
255 1.53432
260 1.31902
265 1.30887
270 1.21326
275 1.32738
280 1.75397
285 1.25645
290 1.12835
295 1.26101
300 1.54269
305 1.26545
310 1.56057
315 1.28228
320 1.3832
325 1.47346
330 1.86938
335 1.36672
340 1.53272
345 1.59743
350 1.40524
355 1.36237
360 1.67672
365 1.69604
370 2.13732
375 1.57519
380 1.62675
385 1.66469
390 1.64678
395 2.33878
400 1.65233
405 1.52174
410 1.87912
415 1.90475
420 1.756
425 1.66112
430 1.53735
435 2.13939
440 1.71771
445 2.28265
450 2.12821
455 1.83862
460 1.7437
465 1.74095
470 1.21696
475 1.48873
480 1.71516
485 1.47
490 1.07136
495 1.21718
500 1.67961
505 1.91053
510 1.61405
515 1.33109
520 1.44436
525 1.25937
530 1.56636
535 1.91105
540 1.90772
545 1.74481
550 1.5133
555 1.45463
560 1.67179
565 1.54353
570 1.68676
575 1.43998
580 1.17224
585 1.35702
590 1.20375
595 1.60442
600 0.746525
Ex : 293
200 1.16163
205 1.27414
210 1.26752
215 1.08886
220 1.02548
225 1.14858
230 1.00701
235 1.3901
240 1.32159
245 1.15337
250 1.23444
255 1.07334
260 1.20184
265 1.21296
270 1.63001
275 1.30108
280 1.26815
285 1.2899
290 1.28078
295 1.0968
300 1.42919
305 1.22483
310 1.36471
315 1.16703
320 1.24889
325 1.49205
330 1.41662
335 1.49051
340 1.30896
345 1.23269
350 1.31593
355 1.64925
360 1.60885
365 1.75092
370 0.976553
375 1.5923
380 1.53764
385 1.52308
390 1.49249
395 1.23889
400 1.36581
405 1.59907
410 1.73906
415 1.75169
420 1.88408
425 1.57173
430 1.91948
435 1.62907
440 1.42556
445 1.34244
450 1.3757
455 1.54605
460 1.50049
465 1.27376
470 1.42618
475 1.12276
480 1.76367
485 1.50721
490 1.72926
495 1.45518
500 1.27377
505 1.26639
510 1.0436
515 1.00163
520 1.3963
525 1.47265
530 1.74019
535 1.07844
540 1.42002
545 1.2708
550 1.27708
555 1.37028
560 1.43926
565 1.26118
570 1.19505
575 1.23864
580 1.59867
585 1.61425
590 1.11737
595 1.17274
600 2.01012
Ex : 298
200 1.23783
205 0.861105
210 1.18425
215 0.98162
220 0.983126
225 1.08894
230 0.8936
235 1.20817
240 1.45329
245 1.28244
250 1.09559
255 0.923805
260 1.2213
265 1.07547
270 1.08595
275 1.13095
280 1.39856
285 1.34292
290 1.14399
295 1.14418
300 1.32434
305 0.788627
310 1.23823
315 1.48087
320 0.950846
325 1.00053
330 1.14363
335 0.971779
340 0.942219
345 1.33274
350 1.41597
355 1.04698
360 1.05773
365 1.0879
370 1.20794
375 1.17869
380 1.32732
385 1.53318
390 1.37119
395 1.53933
400 1.64761
405 1.47813
410 1.71494
415 1.63398
420 1.45122
425 1.30325
430 1.50017
435 1.31982
440 1.44738
445 1.51888
450 1.34667
455 1.50396
460 1.42156
465 1.67722
470 1.54685
475 1.10733
480 1.3933
485 0.959112
490 1.06896
495 1.12264
500 1.27516
505 1.20372
510 1.32123
515 1.45026
520 1.36177
525 1.40376
530 1.06494
535 1.21658
540 1.14912
545 1.1038
550 1.13569
555 1.27936
560 1.50848
565 1.18415
570 1.17652
575 1.29055
580 1.13849
585 1.23307
590 1.23153
595 1.29091
600 0.477349
Ex : 303
200 0.919167
205 1.16001
210 0.863549
215 0.939486
220 0.767706
225 0.674697
230 0.872333
235 0.907972
240 1.00522
245 1.01429
250 0.780706
255 0.932439
260 1.00302
265 1.19531
270 0.921948
275 1.05294
280 0.993332
285 1.12502
290 0.889286
295 1.01142
300 1.13392
305 1.29985
310 0.943855
315 0.824675
320 1.06795
325 1.19482
330 1.3897
335 0.843673
340 0.861962
345 1.09306
350 1.05036
355 1.23504
360 0.999921
365 1.20182
370 1.45065
375 1.47368
380 1.03157
385 1.45814
390 1.53338
395 1.25624
400 1.40183
405 1.37179
410 1.22571
415 1.26557
420 1.2488
425 1.35355
430 1.65779
435 1.35681
440 1.34649
445 1.24672
450 1.31238
455 1.47024
460 1.17897
465 1.41545
470 1.51046
475 1.20995
480 1.26721
485 1.15606
490 1.15646
495 1.01622
500 1.02777
505 1.02862
510 1.01335
515 1.01318
520 1.02198
525 1.31807
530 0.967903
535 1.10222
540 1.16802
545 1.03661
550 1.12901
555 1.14571
560 0.745947
565 1.15162
570 1.08732
575 0.94054
580 1.07787
585 0.744566
590 0.994552
595 1.25824
600 0.96225
Ex : 308
200 0.678404
205 0.972514
210 0.824885
215 0.759566
220 0.6928
225 0.914053
230 0.87906
235 0.724183
240 0.894693
245 0.835938
250 0.701476
255 0.730627
260 0.81268
265 0.868567
270 0.918343
275 0.823673
280 1.16968
285 0.949164
290 1.01089
295 0.822146
300 0.788157
305 0.909504
310 0.858823
315 0.834334
320 0.93734
325 0.848701
330 0.954295
335 1.09324
340 0.808697
345 0.988006
350 0.962651
355 0.852636
360 0.93971
365 0.968243
370 1.20531
375 1.24901
380 1.21122
385 1.36798
390 1.16753
395 1.40003
400 1.24752
405 1.13529
410 1.25978
415 1.11261
420 1.13427
425 1.24243
430 1.16339
435 1.27853
440 1.2282
445 1.26963
450 1.21165
455 1.28763
460 1.06092
465 1.02277
470 1.42171
475 1.34729
480 1.23039
485 0.991302
490 1.54223
495 1.17179
500 0.730126
505 1.02727
510 1.03285
515 1.0658
520 0.814124
525 0.683722
530 1.19756
535 0.824065
540 1.11309
545 0.912675
550 0.908691
555 0.726928
560 0.806063
565 0.798894
570 0.749408
575 0.820918
580 0.848454
585 1.00687
590 0.823763
595 0.820378
600 0.198301
Ex : 313
200 0.790185
205 0.705614
210 0.654487
215 0.821232
220 0.693563
225 0.697201
230 0.612688
235 1.03401
240 0.69076
245 0.726358
250 0.751911
255 0.741458
260 0.736607
265 0.777844
270 0.779887
275 0.717834
280 0.797006
285 0.754003
290 0.68778
295 0.807422
300 0.706523
305 0.785306
310 0.913564
315 0.697151
320 0.940476
325 0.88377
330 0.724093
335 1.00737
340 0.831652
345 0.826731
350 1.22954
355 0.989793
360 1.11878
365 1.17296
370 1.24345
375 1.35542
380 1.26428
385 1.39006
390 1.61048
395 1.60001
400 1.59716
405 1.45582
410 1.37527
415 1.51698
420 1.51692
425 1.48785
430 1.59816
435 1.53682
440 1.75669
445 1.4273
450 1.45472
455 1.29413
460 1.46848
465 1.16163
470 1.05844
475 1.06993
480 1.05535
485 1.154
490 1.33684
495 1.11596
500 0.879921
505 0.94347
510 1.18142
515 1.00808
520 0.947002
525 0.858573
530 0.868658
535 0.917282
540 0.911879
545 0.852178
550 0.740888
555 0.847369
560 0.721722
565 0.706331
570 0.698236
575 0.787831
580 0.816073
585 0.848178
590 0.893215
595 0.793081
600 0.623986
Ex : 318
200 0.783538
205 0.635571
210 0.620352
215 0.659852
220 0.505455
225 0.654282
230 0.692752
235 0.764643
240 0.550817
245 0.506333
250 0.765122
255 0.554885
260 0.564681
265 0.658485
270 0.987117
275 0.776318
280 0.695661
285 0.684982
290 0.548634
295 0.684299
300 0.714233
305 0.716998
310 0.783594
315 1.14259
320 0.909048
325 0.822991
330 1.33963
335 1.68812
340 1.704
345 2.45587
350 2.81782
355 3.94089
360 4.68088
365 5.1074
370 5.48031
375 6.54932
380 7.64041
385 8.14312
390 8.97713
395 9.29688
400 9.86778
405 10.1711
410 10.3327
415 10.0652
420 9.90778
425 9.11891
430 9.6896
435 9.73903
440 8.80347
445 8.75159
450 7.63451
455 7.60287
460 6.78399
465 6.52012
470 6.2471
475 5.68941
480 5.66837
485 4.95454
490 4.49173
495 3.81712
500 3.88499
505 3.49544
510 2.74118
515 2.45363
520 2.07154
525 1.64604
530 1.66804
535 1.74446
540 1.47235
545 1.3617
550 1.24035
555 1.13716
560 1.14483
565 1.09976
570 1.06999
575 0.795816
580 0.916511
585 0.800221
590 0.819118
595 0.744898
600 0.168723
Ex : 323
200 0.484929
205 0.636495
210 0.561947
215 0.553426
220 0.48684
225 0.574662
230 0.603418
235 0.713305
240 0.612219
245 0.67095
250 0.553599
255 0.682436
260 0.671608
265 0.555754
270 0.55115
275 0.60145
280 0.636977
285 0.633406
290 0.589015
295 0.579467
300 0.546601
305 0.628228
310 0.560069
315 3.16771
320 11.9653
325 5.74794
330 2.78241
335 3.58567
340 4.63954
345 6.59695
350 9.92869
355 12.9874
360 16.0327
365 18.4016
370 21.5917
375 25.2345
380 28.4359
385 31.7218
390 33.6179
395 36.4025
400 38.0463
405 39.7918
410 39.8598
415 39.2216
420 38.3253
425 37.239
430 35.9895
435 34.9327
440 33.9731
445 31.7785
450 30.7441
455 28.4569
460 25.9716
465 23.723
470 21.7863
475 20.9065
480 18.4993
485 16.8663
490 15.0715
495 14.2088
500 11.9881
505 10.2539
510 9.47025
515 8.24527
520 7.32119
525 6.9617
530 5.86603
535 5.38415
540 4.59972
545 3.9012
550 3.5313
555 3.29755
560 2.86423
565 2.4445
570 2.01473
575 1.66735
580 1.51094
585 1.20847
590 1.12096
595 1.15677
600 0.512621
Ex : 328
200 0.823069
205 0.614969
210 0.449297
215 0.566396
220 0.422683
225 0.524832
230 0.485555
235 0.491198
240 0.531657
245 0.511379
250 0.618315
255 0.694993
260 0.667387
265 0.582784
270 0.456078
275 0.624769
280 0.675694
285 0.504566
290 0.486623
295 0.498836
300 0.480594
305 0.610323
310 0.533049
315 0.993921
320 24.7734
325 55.5981
330 18.5325
335 5.70935
340 6.12443
345 7.85775
350 9.46504
355 13.7778
360 18.8612
365 21.6121
370 23.4714
375 27.5386
380 30.7527
385 34.6947
390 37.7694
395 40.1535
400 41.1584
405 43.2492
410 43.1713
415 42.826
420 42.253
425 39.7403
430 39.0156
435 37.5784
440 37.1144
445 33.7305
450 32.9515
455 30.3864
460 28.1799
465 26.2191
470 24.5165
475 22.4949
480 21.1906
485 18.5946
490 16.9071
495 15.2151
500 14.0987
505 12.5155
510 11.1922
515 9.55039
520 8.76615
525 7.64712
530 7.04038
535 6.04849
540 5.43856
545 4.85466
550 4.45228
555 3.80088
560 3.29264
565 2.9574
570 2.74164
575 2.25488
580 1.89549
585 1.63148
590 1.49991
595 1.29124
600 0.56353
Ex : 333
200 0.501747
205 0.647735
210 0.631292
215 0.471135
220 0.477029
225 0.658387
230 0.610038
235 0.451688
240 0.503194
245 0.563286
250 0.411867
255 0.503512
260 0.586677
265 0.591323
270 0.473911
275 0.568958
280 0.576964
285 0.653985
290 0.55094
295 0.479311
300 0.562013
305 0.591585
310 0.502967
315 0.618951
320 4.10715
325 66.6916
330 110.64
335 30.6535
340 7.49891
345 6.0159
350 6.90016
355 7.64767
360 10.7479
365 15.5721
370 17.0765
375 17.6476
380 18.8758
385 21.028
390 23.7417
395 25.2271
400 25.2753
405 25.7636
410 27.1161
415 27.3916
420 26.2577
425 25.4663
430 24.9216
435 23.5446
440 22.6738
445 21.2675
450 19.9621
455 19.0908
460 18.0029
465 16.6007
470 16.1019
475 15.32
480 13.5912
485 12.2982
490 11.5993
495 10.5928
500 9.68566
505 8.52185
510 7.76398
515 7.37338
520 6.47035
525 6.02603
530 5.54337
535 4.71416
540 4.81211
545 3.84139
550 3.5891
555 3.38006
560 2.90298
565 2.61872
570 2.48714
575 2.09131
580 1.78863
585 1.54629
590 1.23702
595 1.09942
600 1.64529
Ex : 338
200 0.515832
205 0.316852
210 0.501694
215 0.390833
220 0.346699
225 0.459912
230 0.37251
235 0.458406
240 0.482377
245 0.403433
250 0.447738
255 0.606136
260 0.455374
265 0.408823
270 0.477277
275 0.373429
280 0.46215
285 0.436802
290 0.471021
295 0.387506
300 0.453932
305 0.654102
310 0.541579
315 0.503076
320 0.536463
325 6.62029
330 96.2614
335 140.5
340 36.0574
345 7.3709
350 4.86409
355 4.76723
360 5.27699
365 6.99256
370 12.3085
375 12.3573
380 11.8726
385 13.0328
390 15.7198
395 16.4471
400 16.7883
405 16.7377
410 17.8138
415 18.5991
420 18.2133
425 16.9027
430 16.2228
435 15.7202
440 15.432
445 14.8629
450 13.8189
455 13.4278
460 12.4605
465 11.6787
470 10.6747
475 10.5199
480 9.89764
485 9.20235
490 8.82662
495 7.91912
500 7.41934
505 7.20881
510 6.30306
515 5.96946
520 5.3635
525 4.99585
530 4.57168
535 4.37308
540 4.16291
545 3.66349
550 3.355
555 2.99276
560 2.77393
565 2.38217
570 2.3007
575 1.98049
580 1.58022
585 1.30365
590 1.32345
595 1.15629
600 1.08742
Ex : 343
200 0.533784
205 0.440169
210 0.376878
215 0.322828
220 0.372422
225 0.378319
230 0.52724
235 0.397744
240 0.351828
245 0.489056
250 0.44043
255 0.513678
260 0.42427
265 0.340526
270 0.424189
275 0.465203
280 0.391149
285 0.350515
290 0.35718
295 0.365435
300 0.406623
305 0.441547
310 0.328905
315 0.419645
320 0.478861
325 0.69072
330 7.56104
335 108.302
340 156.14
345 38.2512
350 6.73188
355 4.00399
360 3.7926
365 3.82691
370 5.17605
375 9.30404
380 11.5256
385 11.9481
390 12.8582
395 14.4011
400 13.6394
405 14.2801
410 15.1585
415 16.2059
420 16.0025
425 14.6674
430 13.8414
435 13.5899
440 13.0542
445 12.1386
450 11.8598
455 11.223
460 10.5857
465 10.1523
470 10.0061
475 9.33051
480 8.97282
485 8.40432
490 8.31352
495 7.57803
500 6.99705
505 6.94265
510 6.00331
515 5.65791
520 5.19527
525 5.06005
530 4.34079
535 4.14041
540 3.69419
545 3.50132
550 3.25985
555 2.76643
560 2.90689
565 2.38009
570 2.22779
575 1.98622
580 1.66872
585 1.38371
590 1.11457
595 1.04089
600 1.02782
Ex : 348
200 0.389642
205 0.363607
210 0.407595
215 0.455575
220 0.414554
225 0.367978
230 0.367508
235 0.408508
240 0.517585
245 0.460338
250 0.545259
255 0.524471
260 0.341011
265 0.37246
270 0.471757
275 0.40434
280 0.37166
285 0.465702
290 0.432343
295 0.417571
300 0.353425
305 0.346043
310 0.422325
315 0.560356
320 0.520647
325 0.48407
330 0.588887
335 7.88767
340 111.162
345 164.976
350 41.9524
355 6.89177
360 3.7258
365 3.64106
370 3.34444
375 4.41603
380 9.06091
385 14.7049
390 15.8036
395 16.0926
400 14.6373
405 15.2573
410 16.3008
415 17.3601
420 16.6242
425 15.232
430 14.7125
435 14.4899
440 14.0549
445 13.265
450 12.339
455 11.7223
460 11.4103
465 10.7858
470 10.18
475 9.42279
480 9.3127
485 8.93031
490 8.55139
495 8.13929
500 7.47262
505 7.21953
510 6.34957
515 5.8389
520 5.39328
525 5.10534
530 4.79815
535 4.16159
540 3.88139
545 3.76989
550 3.50471
555 3.03422
560 2.83148
565 2.45361
570 2.22357
575 1.8821
580 1.59335
585 1.44787
590 1.11279
595 0.956526
600 3.10306
Ex : 353
200 0.471608
205 0.373695
210 0.423224
215 0.346977
220 0.354727
225 0.408482
230 0.481596
235 0.345254
240 0.457627
245 0.344372
250 0.321641
255 0.370949
260 0.369589
265 0.37705
270 0.359702
275 0.474267
280 0.351226
285 0.466672
290 0.341853
295 0.435852
300 0.376362
305 0.450672
310 0.414561
315 0.436529
320 0.384682
325 0.381061
330 0.491361
335 0.658241
340 7.77346
345 114.071
350 161.513
355 40.1114
360 6.71686
365 3.28401
370 3.2665
375 3.47308
380 5.19082
385 10.1144
390 17.7556
395 18.2233
400 16.8107
405 15.4868
410 16.5333
415 18.4929
420 18.1539
425 16.7001
430 15.1147
435 14.7196
440 14.7995
445 14.1893
450 12.9646
455 12.534
460 11.6409
465 10.8819
470 10.5724
475 9.7512
480 9.47251
485 9.066
490 9.05525
495 8.3708
500 7.52492
505 7.44374
510 6.79373
515 6.15924
520 5.59034
525 5.23436
530 5.05242
535 4.50675
540 3.9195
545 3.97003
550 3.4703
555 3.12028
560 2.95228
565 2.65444
570 2.30098
575 1.81305
580 1.47857
585 1.4323
590 1.09641
595 0.952136
600 0.751961
Ex : 358
200 0.316215
205 0.433293
210 0.299067
215 0.407505
220 0.312168
225 0.403268
230 0.360445
235 0.361524
240 0.347516
245 0.272069
250 0.350863
255 0.444185
260 0.370286
265 0.388936
270 0.295821
275 0.347124
280 0.312188
285 0.331331
290 0.27091
295 0.285137
300 0.304331
305 0.385313
310 0.38439
315 0.337207
320 0.315839
325 0.387618
330 0.46344
335 0.413263
340 0.624218
345 7.32288
350 108.378
355 162.521
360 41.3248
365 6.57405
370 2.9522
375 3.77605
380 4.48905
385 7.20266
390 12.8024
395 17.6749
400 17.3971
405 15.9201
410 16.399
415 16.9563
420 16.6984
425 14.9956
430 13.8721
435 13.8858
440 13.5473
445 13.0902
450 12.1108
455 11.9374
460 11.408
465 10.8001
470 10.5549
475 9.77356
480 9.55657
485 9.0617
490 8.8433
495 8.58152
500 7.9439
505 7.24652
510 6.90019
515 6.37393
520 5.79108
525 5.39908
530 5.05723
535 4.81699
540 4.36438
545 4.01883
550 3.54501
555 3.08686
560 3.05648
565 2.68775
570 2.41502
575 1.9706
580 1.48677
585 1.20193
590 1.31283
595 0.967471
600 0.991707
Ex : 363
200 0.339358
205 0.347397
210 0.352437
215 0.357889
220 0.376402
225 0.321587
230 0.302631
235 0.403313
240 0.376479
245 0.362166
250 0.324643
255 0.391281
260 0.372556
265 0.268643
270 0.278892
275 0.325833
280 0.40311
285 0.39239
290 0.285243
295 0.345873
300 0.389664
305 0.36742
310 0.428102
315 0.339785
320 0.317531
325 0.315933
330 0.384699
335 0.364168
340 0.402775
345 0.546487
350 7.33094
355 105.071
360 162.398
365 42.6865
370 6.92168
375 3.26335
380 4.77119
385 8.29669
390 11.5761
395 13.6989
400 17.0665
405 18.1136
410 18.0928
415 18.3935
420 16.6456
425 14.858
430 14.1028
435 14.2424
440 14.1919
445 13.6251
450 12.8263
455 12.28
460 11.333
465 11.5511
470 10.9264
475 10.5383
480 10.4542
485 9.472
490 9.43725
495 9.14522
500 8.2203
505 8.04112
510 7.43969
515 6.7548
520 6.04243
525 5.61137
530 5.14444
535 4.82721
540 4.69331
545 4.09094
550 3.70347
555 3.05967
560 2.98178
565 2.82826
570 2.34731
575 1.99457
580 1.71065
585 1.37127
590 1.20149
595 1.04624
600 1.76909
Ex : 368
200 0.342737
205 0.300909
210 0.277836
215 0.332511
220 0.2223
225 0.312411
230 0.320064
235 0.324621
240 0.317596
245 0.354142
250 0.247468
255 0.229337
260 0.308696
265 0.337329
270 0.27596
275 0.340277
280 0.289215
285 0.266825
290 0.322961
295 0.299445
300 0.310467
305 0.355404
310 0.262719
315 0.353608
320 0.30468
325 0.375867
330 0.259545
335 0.324295
340 0.367826
345 0.406511
350 0.46567
355 5.89009
360 102.027
365 165.722
370 44.0614
375 7.12338
380 5.13493
385 9.13516
390 13.4266
395 16.0123
400 15.8657
405 18.6313
410 22.7755
415 23.3077
420 20.9083
425 18.0803
430 16.4129
435 16.1779
440 15.5724
445 15.0123
450 14.0736
455 12.8701
460 12.807
465 11.8348
470 11.544
475 11.3053
480 10.6987
485 10.0452
490 9.30943
495 9.1797
500 9.00772
505 7.92825
510 7.61467
515 7.24494
520 6.58044
525 5.82107
530 5.62657
535 5.40409
540 4.83424
545 4.15273
550 3.99036
555 3.68051
560 3.11137
565 2.91383
570 2.5171
575 1.96141
580 1.6549
585 1.41232
590 1.15621
595 0.97866
600 1.32639
Ex : 373
200 0.255699
205 0.195655
210 0.222384
215 0.301885
220 0.194919
225 0.304494
230 0.281711
235 0.265495
240 0.264106
245 0.363674
250 0.355856
255 0.24023
260 0.188656
265 0.248712
270 0.278888
275 0.310112
280 0.24549
285 0.24147
290 0.239681
295 0.318789
300 0.382637
305 0.342201
310 0.36461
315 0.308956
320 0.23496
325 0.319493
330 0.297931
335 0.301684
340 0.317426
345 0.370398
350 0.487893
355 0.62465
360 6.86486
365 104.082
370 163.42
375 43.5356
380 7.93741
385 7.221
390 13.4525
395 16.4904
400 15.4862
405 14.7899
410 18.57
415 23.7487
420 22.67
425 18.3973
430 16.0285
435 15.292
440 15.2116
445 14.7279
450 13.2395
455 12.7111
460 11.7214
465 11.8166
470 11.4446
475 11.777
480 11.0986
485 10.7835
490 10.2749
495 9.64324
500 9.36597
505 8.85998
510 8.08732
515 7.3692
520 6.94742
525 6.38353
530 5.92909
535 5.43437
540 4.69283
545 4.63864
550 4.24368
555 3.83854
560 3.21085
565 2.85084
570 2.44573
575 2.06464
580 1.65988
585 1.439
590 1.14742
595 1.0919
600 0.805072
Ex : 378
200 0.376887
205 0.331853
210 0.320471
215 0.320202
220 0.333542
225 0.330037
230 0.227133
235 0.249648
240 0.23546
245 0.251289
250 0.250298
255 0.267659
260 0.306576
265 0.286868
270 0.322656
275 0.296035
280 0.266048
285 0.329557
290 0.314855
295 0.276339
300 0.37815
305 0.300808
310 0.30828
315 0.350283
320 0.315889
325 0.234908
330 0.235235
335 0.307951
340 0.28282
345 0.285261
350 0.340897
355 0.467104
360 0.491697
365 6.44128
370 105.628
375 166.379
380 46.4314
385 10.3519
390 9.71934
395 12.0452
400 11.2726
405 11.0124
410 12.2665
415 15.2499
420 18.054
425 15.7448
430 13.5369
435 12.7438
440 12.0337
445 11.9463
450 11.1129
455 10.9137
460 10.499
465 10.555
470 10.4593
475 10.5745
480 10.2394
485 10.0887
490 9.92297
495 9.6095
500 8.98191
505 8.80264
510 8.00818
515 7.80415
520 6.97515
525 6.42829
530 5.96728
535 5.30352
540 5.18493
545 4.90354
550 4.28366
555 3.78382
560 3.19574
565 3.01041
570 2.59276
575 2.14693
580 1.81784
585 1.51029
590 1.29494
595 1.10288
600 0.7611
Ex : 383
200 0.330514
205 0.230037
210 0.310514
215 0.309369
220 0.27041
225 0.257948
230 0.252392
235 0.261924
240 0.288334
245 0.278814
250 0.255534
255 0.36388
260 0.279531
265 0.277263
270 0.345837
275 0.267544
280 0.277833
285 0.301213
290 0.261128
295 0.242797
300 0.249991
305 0.299747
310 0.289188
315 0.215819
320 0.303565
325 0.267717
330 0.24715
335 0.294574
340 0.262986
345 0.243738
350 0.299454
355 0.366653
360 0.501693
365 0.556053
370 6.06671
375 105.807
380 175.093
385 52.0043
390 14.8636
395 11.1098
400 10.8903
405 11.4122
410 12.3322
415 13.3962
420 13.3707
425 14.5521
430 14.4003
435 13.2794
440 12.6853
445 11.2409
450 10.9485
455 10.2706
460 10.1112
465 10.1428
470 10.2446
475 10.2611
480 10.0321
485 10.1118
490 9.53277
495 9.52757
500 8.89456
505 8.41106
510 7.86174
515 7.37681
520 7.27818
525 6.60789
530 6.0062
535 5.53611
540 5.016
545 4.53103
550 4.07474
555 3.54906
560 3.27527
565 2.91262
570 2.55417
575 2.11614
580 1.74326
585 1.4132
590 1.24013
595 1.00884
600 1.07716
Ex : 388
200 0.298103
205 0.240749
210 0.233777
215 0.267675
220 0.231552
225 0.321245
230 0.306229
235 0.240248
240 0.263746
245 0.24268
250 0.201385
255 0.194139
260 0.252943
265 0.225282
270 0.272285
275 0.283912
280 0.214505
285 0.224946
290 0.206366
295 0.263621
300 0.290718
305 0.257347
310 0.247852
315 0.27595
320 0.243828
325 0.267484
330 0.250784
335 0.298584
340 0.279699
345 0.244781
350 0.263152
355 0.392287
360 0.390829
365 0.434849
370 0.559935
375 7.13695
380 109.38
385 180.611
390 56.5012
395 18.3139
400 12.7078
405 13.0306
410 15.3347
415 16.2738
420 15.5366
425 13.5661
430 14.6981
435 15.6908
440 14.5551
445 13.4235
450 12.0191
455 11.3344
460 10.6518
465 10.7577
470 10.7103
475 10.6991
480 10.4866
485 10.1366
490 9.88664
495 9.8089
500 9.23341
505 8.92929
510 7.99614
515 7.5322
520 7.13556
525 6.73686
530 5.98112
535 5.52666
540 5.05408
545 4.78007
550 4.32818
555 3.98881
560 3.47291
565 2.94501
570 2.58192
575 2.28949
580 1.63682
585 1.39109
590 1.08948
595 0.861909
600 1.10045
Ex : 393
200 0.231052
205 0.261976
210 0.239772
215 0.209461
220 0.244817
225 0.209317
230 0.223997
235 0.270082
240 0.293333
245 0.321031
250 0.225831
255 0.277713
260 0.341173
265 0.250089
270 0.255327
275 0.313961
280 0.260909
285 0.223243
290 0.271256
295 0.256519
300 0.256058
305 0.309527
310 0.364881
315 0.30642
320 0.303473
325 0.266673
330 0.286738
335 0.250183
340 0.277146
345 0.28448
350 0.309117
355 0.310788
360 0.302491
365 0.278806
370 0.404018
375 0.55241
380 6.64441
385 112.163
390 189.472
395 61.7541
400 18.363
405 12.3454
410 13.5293
415 16.6307
420 16.7079
425 13.9196
430 12.338
435 13.2876
440 15.5348
445 14.5556
450 13.0305
455 11.6399
460 10.5934
465 10.462
470 10.4753
475 10.3308
480 10.2768
485 10.2754
490 10.0439
495 9.61737
500 9.32046
505 8.68876
510 8.44108
515 7.6468
520 7.30774
525 6.88719
530 6.26184
535 5.88099
540 5.1731
545 4.60901
550 4.21202
555 3.84859
560 3.426
565 3.04055
570 2.68331
575 2.1184
580 1.72934
585 1.33343
590 1.22935
595 1.04802
600 0.595714
Ex : 398
200 0.283522
205 0.201906
210 0.286395
215 0.249163
220 0.198745
225 0.217319
230 0.235524
235 0.193495
240 0.284313
245 0.218927
250 0.243751
255 0.228048
260 0.175379
265 0.208164
270 0.247712
275 0.208009
280 0.230183
285 0.233059
290 0.262338
295 0.223919
300 0.258545
305 0.239775
310 0.256506
315 0.217922
320 0.233106
325 0.2059
330 0.260431
335 0.266895
340 0.23223
345 0.249215
350 0.231725
355 0.314844
360 0.236311
365 0.27776
370 0.358115
375 0.385403
380 0.855982
385 7.5411
390 115.92
395 193.253
400 56.1941
405 12.4865
410 8.43191
415 9.5987
420 10.3209
425 8.9638
430 7.64978
435 7.6502
440 8.91926
445 11.37
450 11.1204
455 9.6259
460 9.3393
465 8.78644
470 8.93212
475 9.35875
480 9.28538
485 9.1419
490 9.36685
495 9.14541
500 8.92801
505 8.48617
510 8.04357
515 7.751
520 6.72739
525 6.6499
530 5.92884
535 5.48621
540 5.13647
545 4.78505
550 4.18478
555 3.6973
560 3.43608
565 3.0146
570 2.57828
575 2.23398
580 1.73003
585 1.34778
590 1.20817
595 0.999444
600 0.809611
Ex : 403
200 0.193878
205 0.307046
210 0.208109
215 0.213557
220 0.196009
225 0.181444
230 0.252504
235 0.219574
240 0.317677
245 0.213654
250 0.319304
255 0.23029
260 0.22941
265 0.264571
270 0.194388
275 0.235048
280 0.190758
285 0.247305
290 0.280114
295 0.276463
300 0.261369
305 0.237071
310 0.236198
315 0.226548
320 0.254061
325 0.27877
330 0.254632
335 0.261774
340 0.19691
345 0.256659
350 0.263945
355 0.244668
360 0.301669
365 0.289347
370 0.286914
375 0.326243
380 0.384932
385 0.892768
390 7.8961
395 116.561
400 189.013
405 52.6423
410 9.24102
415 4.78941
420 4.74174
425 4.69958
430 4.25313
435 4.15761
440 4.67278
445 5.85194
450 8.30119
455 8.96029
460 8.2126
465 8.32659
470 8.16197
475 8.39744
480 8.45378
485 9.0646
490 8.94825
495 8.92023
500 8.65681
505 8.72706
510 7.85222
515 7.90344
520 7.08765
525 6.72135
530 6.01929
535 5.63616
540 5.31422
545 4.91677
550 4.17323
555 3.97737
560 3.35343
565 2.98743
570 2.609
575 2.1745
580 1.74237
585 1.49168
590 1.29742
595 1.08622
600 0.675968
Ex : 408
200 0.263453
205 0.278117
210 0.202153
215 0.25549
220 0.27795
225 0.23819
230 0.309395
235 0.239562
240 0.24445
245 0.213295
250 0.182232
255 0.157573
260 0.205775
265 0.165636
270 0.272346
275 0.287771
280 0.24266
285 0.239438
290 0.273718
295 0.19931
300 0.217082
305 0.190132
310 0.202142
315 0.250911
320 0.215973
325 0.337155
330 0.237704
335 0.262869
340 0.340235
345 0.247722
350 0.248196
355 0.266275
360 0.324005
365 0.252416
370 0.324365
375 0.283167
380 0.414549
385 0.484185
390 0.682868
395 7.04418
400 120.891
405 195.634
410 53.0492
415 8.43152
420 3.49035
425 3.15708
430 3.33397
435 3.49987
440 3.50512
445 3.9973
450 4.82198
455 6.90092
460 8.97111
465 8.54307
470 8.1928
475 8.37348
480 8.31054
485 8.53384
490 8.84944
495 8.72764
500 8.76434
505 8.40406
510 8.01974
515 7.7668
520 7.24453
525 6.60118
530 6.08598
535 5.74832
540 5.20407
545 4.85388
550 4.3342
555 3.92866
560 3.51662
565 3.12035
570 2.62626
575 2.34467
580 1.80537
585 1.44417
590 1.19082
595 0.994102
600 0.587557
Ex : 413
200 0.23254
205 0.223279
210 0.175528
215 0.223805
220 0.21929
225 0.195419
230 0.225796
235 0.19459
240 0.205748
245 0.231675
250 0.224974
255 0.222551
260 0.240405
265 0.189744
270 0.259016
275 0.229857
280 0.197525
285 0.225081
290 0.2243
295 0.253191
300 0.203514
305 0.24883
310 0.198386
315 0.284737
320 0.231808
325 0.23765
330 0.233114
335 0.248485
340 0.242649
345 0.223595
350 0.222097
355 0.214086
360 0.260631
365 0.228829
370 0.279735
375 0.292576
380 0.303149
385 0.324808
390 0.455042
395 0.621379
400 8.05877
405 124.978
410 196.238
415 51.6937
420 8.13519
425 3.03392
430 2.92552
435 3.11508
440 3.5383
445 3.43777
450 3.86256
455 4.75822
460 6.52857
465 9.01937
470 9.02758
475 8.7412
480 8.80667
485 8.56437
490 8.41904
495 8.92322
500 8.86365
505 8.31882
510 7.88667
515 7.66572
520 7.07911
525 6.46453
530 6.01067
535 5.65242
540 5.05323
545 4.73658
550 4.14199
555 4.03856
560 3.51339
565 2.9641
570 2.69648
575 2.22199
580 1.81484
585 1.41448
590 1.16114
595 0.970549
600 0.996649
Ex : 418
200 0.248419
205 0.199745
210 0.253552
215 0.244124
220 0.233941
225 0.233868
230 0.194999
235 0.225772
240 0.190359
245 0.203069
250 0.229873
255 0.214262
260 0.170765
265 0.202753
270 0.251721
275 0.293791
280 0.247035
285 0.24881
290 0.191079
295 0.260477
300 0.259924
305 0.201252
310 0.257401
315 0.259516
320 0.229182
325 0.220768
330 0.239813
335 0.184033
340 0.253237
345 0.242818
350 0.197739
355 0.258414
360 0.285794
365 0.228001
370 0.305836
375 0.25439
380 0.322291
385 0.35775
390 0.411577
395 0.406943
400 0.588831
405 7.28086
410 126.201
415 201.661
420 54.5431
425 8.00229
430 2.76463
435 2.56651
440 2.9788
445 3.42991
450 3.62397
455 3.97108
460 4.76494
465 6.20559
470 8.48776
475 9.35042
480 8.79697
485 8.84769
490 8.35173
495 8.20819
500 8.24145
505 7.62696
510 7.46279
515 7.41207
520 6.82287
525 6.43662
530 5.94853
535 5.41015
540 5.00986
545 4.45102
550 4.37812
555 3.87532
560 3.43349
565 2.93859
570 2.5532
575 2.20472
580 1.81883
585 1.40895
590 1.1575
595 0.975064
600 0.267521
Ex : 423
200 0.22064
205 0.285953
210 0.236286
215 0.207755
220 0.250775
225 0.245334
230 0.226727
235 0.219496
240 0.249908
245 0.224192
250 0.23321
255 0.226683
260 0.231661
265 0.240353
270 0.239823
275 0.213582
280 0.311705
285 0.287977
290 0.206454
295 0.243092
300 0.232493
305 0.188367
310 0.227271
315 0.233987
320 0.240151
325 0.244658
330 0.19911
335 0.217924
340 0.201244
345 0.295064
350 0.227852
355 0.284258
360 0.233266
365 0.231783
370 0.210856
375 0.305134
380 0.317102
385 0.25899
390 0.264989
395 0.33161
400 0.337117
405 0.592832
410 7.71792
415 137.047
420 206.606
425 52.8169
430 7.58396
435 2.8741
440 2.38128
445 3.03569
450 3.34514
455 3.56877
460 4.05092
465 5.01436
470 6.14293
475 8.18871
480 9.4699
485 8.80277
490 8.27854
495 8.40645
500 7.81284
505 7.37246
510 7.2246
515 6.64179
520 6.30921
525 6.09767
530 5.83766
535 5.1661
540 4.89968
545 4.55928
550 4.12513
555 3.76759
560 3.34449
565 2.94562
570 2.50457
575 2.03194
580 1.61178
585 1.43615
590 1.10531
595 0.978701
600 0.823811
Ex : 428
200 0.263007
205 0.247589
210 0.28445
215 0.231069
220 0.207808
225 0.230698
230 0.272751
235 0.313771
240 0.257275
245 0.182807
250 0.238761
255 0.229277
260 0.227586
265 0.264766
270 0.208232
275 0.233093
280 0.219571
285 0.246484
290 0.254075
295 0.205006
300 0.240764
305 0.230248
310 0.234569
315 0.235397
320 0.267554
325 0.307479
330 0.240249
335 0.286235
340 0.258933
345 0.232061
350 0.248457
355 0.236418
360 0.214841
365 0.251044
370 0.221548
375 0.266955
380 0.304138
385 0.304615
390 0.379009
395 0.304813
400 0.336628
405 0.477176
410 0.566234
415 8.49314
420 135.978
425 210.097
430 55.5077
435 7.81184
440 2.62679
445 2.30806
450 2.89586
455 3.58029
460 3.96502
465 4.2931
470 5.04013
475 5.74873
480 7.39743
485 9.38423
490 8.63088
495 7.94003
500 7.72395
505 7.32509
510 6.97563
515 6.44768
520 6.22073
525 5.81758
530 5.37778
535 5.23002
540 4.7038
545 4.244
550 3.93262
555 3.60218
560 3.09056
565 2.7868
570 2.44993
575 2.10966
580 1.71419
585 1.3311
590 1.14226
595 0.992016
600 1.76296
Ex : 433
200 0.284024
205 0.243956
210 0.246225
215 0.225527
220 0.208947
225 0.262654
230 0.267243
235 0.219923
240 0.241239
245 0.2321
250 0.228351
255 0.253562
260 0.237069
265 0.291243
270 0.318989
275 0.284871
280 0.24738
285 0.226753
290 0.227646
295 0.264881
300 0.242317
305 0.328261
310 0.233646
315 0.290577
320 0.274594
325 0.284067
330 0.276627
335 0.24733
340 0.206428
345 0.227038
350 0.256859
355 0.284808
360 0.312788
365 0.248493
370 0.29419
375 0.230557
380 0.268923
385 0.27492
390 0.292588
395 0.302662
400 0.323324
405 0.3911
410 0.474476
415 0.564873
420 9.74113
425 149.975
430 219.195
435 55.1656
440 7.96235
445 2.61521
450 2.37432
455 3.18272
460 3.58967
465 4.29434
470 4.70619
475 5.26965
480 5.85983
485 6.79134
490 8.99524
495 8.31378
500 7.58442
505 7.54118
510 6.55899
515 5.99844
520 5.64286
525 5.69179
530 4.96319
535 4.65
540 4.46233
545 4.06226
550 3.82342
555 3.33169
560 2.95949
565 2.5789
570 2.13667
575 1.89096
580 1.59096
585 1.42611
590 1.09262
595 0.980775
600 0.440167
Ex : 438
200 0.217114
205 0.252818
210 0.254023
215 0.294617
220 0.224817
225 0.315981
230 0.302714
235 0.232694
240 0.274979
245 0.249708
250 0.253381
255 0.216207
260 0.283963
265 0.250703
270 0.262044
275 0.270195
280 0.241724
285 0.231684
290 0.272625
295 0.200802
300 0.259306
305 0.221988
310 0.316109
315 0.22363
320 0.255015
325 0.245614
330 0.244823
335 0.251011
340 0.230359
345 0.229743
350 0.224956
355 0.266918
360 0.277199
365 0.286347
370 0.225019
375 0.267351
380 0.270666
385 0.289883
390 0.260014
395 0.30805
400 0.317274
405 0.331506
410 0.348934
415 0.441713
420 0.525904
425 9.16297
430 147.958
435 233.72
440 59.244
445 8.56164
450 2.99058
455 2.67915
460 3.29275
465 4.10649
470 4.26806
475 4.48865
480 5.09624
485 5.18306
490 6.04745
495 7.70785
500 8.29351
505 6.85615
510 6.4136
515 5.99968
520 5.44707
525 4.74289
530 4.72008
535 4.47542
540 4.11746
545 3.85385
550 3.4275
555 3.06827
560 2.85009
565 2.4167
570 2.18174
575 1.92168
580 1.53624
585 1.21857
590 1.06425
595 0.849082
600 0.599201
Ex : 443
200 0.219459
205 0.257365
210 0.240461
215 0.185827
220 0.256744
225 0.270744
230 0.227361
235 0.201662
240 0.1739
245 0.24609
250 0.299171
255 0.222156
260 0.208691
265 0.262445
270 0.261577
275 0.288567
280 0.230071
285 0.173918
290 0.270874
295 0.247904
300 0.180824
305 0.205212
310 0.227711
315 0.353336
320 0.265471
325 0.213193
330 0.234902
335 0.245935
340 0.214196
345 0.236484
350 0.33073
355 0.260764
360 0.286046
365 0.224035
370 0.273885
375 0.297779
380 0.270019
385 0.320958
390 0.303937
395 0.343748
400 0.278587
405 0.30772
410 0.302971
415 0.283571
420 0.44302
425 0.653765
430 10.4399
435 160.748
440 238.521
445 60.198
450 8.7551
455 3.24138
460 2.82943
465 3.35682
470 3.90407
475 4.25741
480 4.34679
485 4.74467
490 4.82768
495 5.09136
500 7.02536
505 7.39175
510 6.44483
515 5.72161
520 5.308
525 4.50531
530 4.35878
535 3.92411
540 3.82424
545 3.38239
550 3.3073
555 2.82432
560 2.59146
565 2.39224
570 2.12152
575 1.67069
580 1.37728
585 1.22632
590 1.0057
595 0.835463
600 0.579006
Ex : 448
200 0.229216
205 0.22505
210 0.2282
215 0.242918
220 0.28986
225 0.234009
230 0.293785
235 0.263077
240 0.271076
245 0.265079
250 0.256298
255 0.29426
260 0.269058
265 0.239523
270 0.269429
275 0.220426
280 0.234703
285 0.280275
290 0.242964
295 0.264003
300 0.274095
305 0.255214
310 0.294304
315 0.232525
320 0.258286
325 0.216275
330 0.282493
335 0.264218
340 0.299737
345 0.29296
350 0.256829
355 0.318092
360 0.238212
365 0.26783
370 0.26706
375 0.306441
380 0.233891
385 0.33701
390 0.251756
395 0.238686
400 0.303297
405 0.287311
410 0.322231
415 0.322176
420 0.354537
425 0.50485
430 0.624922
435 11.4465
440 174.575
445 254.361
450 63.7375
455 9.44771
460 3.3339
465 2.7534
470 3.30732
475 3.72094
480 4.21988
485 4.01669
490 4.31278
495 4.32367
500 4.41473
505 5.34981
510 6.56112
515 5.91298
520 4.8626
525 4.66145
530 4.15623
535 3.70832
540 3.42805
545 3.18779
550 3.08262
555 2.64895
560 2.58814
565 2.20858
570 1.93719
575 1.59365
580 1.31071
585 1.15449
590 0.990297
595 0.837397
600 0.606448
Ex : 453
200 0.238552
205 0.210428
210 0.268664
215 0.257079
220 0.198371
225 0.241998
230 0.230667
235 0.247099
240 0.243075
245 0.194468
250 0.236399
255 0.248694
260 0.217921
265 0.251036
270 0.212438
275 0.212736
280 0.235055
285 0.226967
290 0.222164
295 0.276482
300 0.245674
305 0.225855
310 0.268947
315 0.229489
320 0.250597
325 0.227338
330 0.25977
335 0.234869
340 0.262628
345 0.24091
350 0.249034
355 0.263937
360 0.224758
365 0.244756
370 0.269154
375 0.265073
380 0.322718
385 0.264019
390 0.25355
395 0.234002
400 0.313935
405 0.30881
410 0.301085
415 0.32122
420 0.329968
425 0.41609
430 0.42256
435 0.532841
440 11.4193
445 186.103
450 262.728
455 61.7659
460 8.93676
465 3.24517
470 2.87852
475 3.07826
480 3.5888
485 3.68375
490 3.80913
495 3.62513
500 3.82929
505 3.7701
510 4.39645
515 5.59512
520 5.64702
525 4.55346
530 4.17635
535 3.83955
540 3.29614
545 3.08594
550 2.5983
555 2.73504
560 2.44029
565 2.09626
570 1.68064
575 1.54365
580 1.19423
585 1.06474
590 0.874073
595 0.668253
600 0.684055
Ex : 458
200 0.28608
205 0.252037
210 0.234591
215 0.205499
220 0.212245
225 0.288154
230 0.205419
235 0.219324
240 0.258893
245 0.269781
250 0.284074
255 0.205532
260 0.251838
265 0.223925
270 0.228736
275 0.293521
280 0.187552
285 0.317932
290 0.237955
295 0.24063
300 0.255947
305 0.263055
310 0.240379
315 0.239271
320 0.188472
325 0.283109
330 0.248677
335 0.185202
340 0.219299
345 0.243846
350 0.251292
355 0.312005
360 0.221004
365 0.296737
370 0.218732
375 0.2422
380 0.255394
385 0.254541
390 0.297629
395 0.30825
400 0.35908
405 0.28618
410 0.323826
415 0.342046
420 0.296286
425 0.357419
430 0.438714
435 0.438715
440 0.679722
445 12.646
450 191.856
455 275.654
460 67.0151
465 9.75371
470 3.43437
475 2.58533
480 2.87582
485 3.38061
490 3.30739
495 3.23455
500 3.21314
505 3.22176
510 3.2126
515 3.3703
520 4.47392
525 5.15852
530 4.08769
535 3.40606
540 3.32496
545 3.04179
550 2.54732
555 2.44572
560 2.21103
565 1.89285
570 1.77515
575 1.51396
580 1.15417
585 1.04645
590 0.89418
595 0.683025
600 0.658548
Ex : 463
200 0.255181
205 0.227011
210 0.245361
215 0.2167
220 0.255481
225 0.236744
230 0.288699
235 0.322419
240 0.210146
245 0.214024
250 0.233198
255 0.287173
260 0.26594
265 0.215268
270 0.2179
275 0.267184
280 0.219008
285 0.232529
290 0.271681
295 0.300995
300 0.245367
305 0.242328
310 0.263035
315 0.190006
320 0.238593
325 0.182804
330 0.226476
335 0.23775
340 0.241704
345 0.23083
350 0.219751
355 0.299392
360 0.321851
365 0.287044
370 0.208248
375 0.254806
380 0.272647
385 0.231523
390 0.289214
395 0.318298
400 0.246701
405 0.289961
410 0.217255
415 0.352792
420 0.313261
425 0.345926
430 0.270921
435 0.418949
440 0.443936
445 0.653415
450 12.0884
455 196.06
460 295.232
465 71.4663
470 10.2171
475 3.15322
480 2.46432
485 2.58046
490 2.92297
495 3.17674
500 2.98855
505 2.80444
510 2.7998
515 2.78372
520 2.8579
525 3.62415
530 4.70807
535 4.0875
540 3.084
545 2.87868
550 2.62797
555 2.27803
560 2.08878
565 1.85509
570 1.39217
575 1.30133
580 1.15877
585 0.9666
590 0.816266
595 0.66507
600 0.332433
Ex : 468
200 0.197396
205 0.199668
210 0.210737
215 0.200287
220 0.19609
225 0.183176
230 0.215982
235 0.219808
240 0.297622
245 0.214414
250 0.214377
255 0.214731
260 0.243794
265 0.198644
270 0.232783
275 0.209772
280 0.228089
285 0.220824
290 0.173119
295 0.21195
300 0.18806
305 0.221833
310 0.229481
315 0.219045
320 0.256306
325 0.229482
330 0.26639
335 0.231261
340 0.184601
345 0.24166
350 0.256936
355 0.261595
360 0.267914
365 0.235726
370 0.192665
375 0.222004
380 0.214716
385 0.226174
390 0.262796
395 0.276377
400 0.261194
405 0.26211
410 0.258082
415 0.250188
420 0.280182
425 0.287697
430 0.278662
435 0.311615
440 0.340961
445 0.43109
450 0.621116
455 13.1273
460 195.17
465 299.971
470 72.498
475 10.0066
480 3.05482
485 2.22117
490 2.35206
495 2.65246
500 2.72554
505 2.76828
510 2.56482
515 2.48964
520 2.47759
525 2.52623
530 2.93762
535 3.96407
540 3.82358
545 2.94708
550 2.58446
555 2.39916
560 1.93658
565 1.6945
570 1.60527
575 1.3627
580 1.13537
585 1.01277
590 0.816239
595 0.790774
600 0.948731
Ex : 473
200 0.199602
205 0.215552
210 0.182666
215 0.248348
220 0.195426
225 0.194258
230 0.190376
235 0.207932
240 0.226791
245 0.220353
250 0.208075
255 0.240146
260 0.21365
265 0.252551
270 0.240043
275 0.227229
280 0.234613
285 0.213804
290 0.241629
295 0.265797
300 0.28321
305 0.250189
310 0.267649
315 0.208374
320 0.249074
325 0.259277
330 0.294642
335 0.261452
340 0.251319
345 0.223932
350 0.286927
355 0.274662
360 0.240992
365 0.263927
370 0.267064
375 0.281964
380 0.294123
385 0.230227
390 0.292688
395 0.248383
400 0.295359
405 0.331058
410 0.262301
415 0.253771
420 0.248882
425 0.305053
430 0.272257
435 0.256486
440 0.303578
445 0.322653
450 0.496225
455 0.648378
460 15.1237
465 217.885
470 299.104
475 69.0947
480 9.56662
485 2.80774
490 2.17491
495 2.03864
500 2.31658
505 2.66967
510 2.57542
515 2.27467
520 2.17503
525 2.48891
530 2.56756
535 2.55861
540 3.24294
545 3.88438
550 2.85094
555 2.29982
560 2.28773
565 1.96963
570 1.59285
575 1.27921
580 1.14138
585 0.93375
590 0.783335
595 0.710593
600 0.490498
Ex : 478
200 0.267592
205 0.261926
210 0.272619
215 0.232679
220 0.277868
225 0.282535
230 0.223032
235 0.238842
240 0.309963
245 0.295017
250 0.241986
255 0.263966
260 0.24488
265 0.276278
270 0.302778
275 0.282796
280 0.308913
285 0.298441
290 0.265159
295 0.297657
300 0.273629
305 0.271111
310 0.244533
315 0.269477
320 0.297432
325 0.208115
330 0.241981
335 0.236173
340 0.293
345 0.326313
350 0.284543
355 0.28693
360 0.276431
365 0.30637
370 0.278614
375 0.330847
380 0.307713
385 0.323737
390 0.247494
395 0.336934
400 0.319755
405 0.287726
410 0.316374
415 0.312921
420 0.326676
425 0.268493
430 0.310719
435 0.336722
440 0.337449
445 0.419035
450 0.402493
455 0.529727
460 0.828314
465 16.7577
470 223.954
475 302.442
480 73.2719
485 9.87506
490 2.86079
495 2.03748
500 1.79906
505 2.07551
510 2.31614
515 2.25617
520 2.27736
525 2.2207
530 2.34179
535 2.36313
540 2.49089
545 2.80933
550 3.60052
555 3.02417
560 2.30376
565 2.20898
570 1.86136
575 1.55739
580 1.18717
585 0.96342
590 0.843298
595 0.734807
600 1.43727
Ex : 483
200 0.335288
205 0.28356
210 0.233569
215 0.218483
220 0.276918
225 0.307297
230 0.303579
235 0.236953
240 0.278714
245 0.279869
250 0.270867
255 0.243098
260 0.254078
265 0.174371
270 0.359598
275 0.265527
280 0.276503
285 0.244959
290 0.301388
295 0.289265
300 0.272575
305 0.263885
310 0.30653
315 0.383753
320 0.297644
325 0.268895
330 0.265223
335 0.287953
340 0.24888
345 0.24259
350 0.285225
355 0.276102
360 0.272074
365 0.260811
370 0.330659
375 0.28182
380 0.285304
385 0.310069
390 0.384883
395 0.271182
400 0.233182
405 0.30331
410 0.343696
415 0.284998
420 0.280507
425 0.329279
430 0.312887
435 0.34792
440 0.330832
445 0.387852
450 0.412818
455 0.42634
460 0.594873
465 0.772317
470 12.5902
475 213.662
480 316.985
485 76.516
490 10.2716
495 2.68693
500 1.89569
505 1.76025
510 2.13315
515 2.32415
520 2.11868
525 2.09372
530 2.29065
535 2.13295
540 2.29337
545 2.07278
550 2.07335
555 2.9943
560 3.00203
565 2.31739
570 1.77867
575 1.59869
580 1.18193
585 0.968203
590 0.858564
595 0.693093
600 0.939388
Ex : 488
200 0.287092
205 0.314605
210 0.264394
215 0.291504
220 0.390599
225 0.286242
230 0.356142
235 0.314447
240 0.344862
245 0.312295
250 0.271614
255 0.260567
260 0.292483
265 0.299623
270 0.325151
275 0.320682
280 0.276882
285 0.226471
290 0.231505
295 0.30234
300 0.298153
305 0.29566
310 0.297397
315 0.283967
320 0.254785
325 0.255195
330 0.256828
335 0.295225
340 0.304968
345 0.316635
350 0.296238
355 0.340275
360 0.343663
365 0.263845
370 0.309064
375 0.219221
380 0.257319
385 0.301334
390 0.352637
395 0.327844
400 0.392181
405 0.296271
410 0.35915
415 0.357679
420 0.413513
425 0.362447
430 0.335734
435 0.337206
440 0.423764
445 0.403112
450 0.397693
455 0.43792
460 0.479746
465 0.653658
470 0.900692
475 15.7241
480 238.88
485 315.976
490 73.9056
495 9.95367
500 2.6423
505 1.92239
510 1.63972
515 2.02322
520 2.40805
525 2.32985
530 2.20778
535 2.09604
540 2.08089
545 2.03711
550 1.98031
555 2.04452
560 2.78295
565 2.87197
570 2.32762
575 1.80173
580 1.37695
585 1.22121
590 0.85901
595 0.765969
600 1.03705
Ex : 493
200 0.290608
205 0.263115
210 0.390316
215 0.25742
220 0.257694
225 0.29566
230 0.331494
235 0.312599
240 0.279304
245 0.276667
250 0.379611
255 0.338855
260 0.258133
265 0.290901
270 0.337617
275 0.286232
280 0.271172
285 0.309075
290 0.231577
295 0.28756
300 0.25868
305 0.405764
310 0.232565
315 0.385126
320 0.283896
325 0.337461
330 0.322093
335 0.392506
340 0.301238
345 0.312404
350 0.255845
355 0.254014
360 0.329146
365 0.352811
370 0.282095
375 0.306896
380 0.354069
385 0.325116
390 0.360572
395 0.272285
400 0.379273
405 0.31546
410 0.288086
415 0.298882
420 0.334041
425 0.338935
430 0.320407
435 0.322355
440 0.345023
445 0.352737
450 0.441361
455 0.415894
460 0.448573
465 0.464517
470 0.613779
475 0.803344
480 14.4141
485 229.394
490 328.153
495 75.0159
500 10.0809
505 2.70387
510 1.8933
515 1.65084
520 1.98746
525 2.2993
530 2.13734
535 2.24929
540 2.0242
545 1.83505
550 1.88301
555 1.82007
560 1.62906
565 2.00009
570 2.36713
575 2.19927
580 1.52371
585 1.20012
590 0.919569
595 0.777806
600 0.719488
Ex : 498
200 0.304541
205 0.226519
210 0.317435
215 0.298807
220 0.32217
225 0.373575
230 0.367304
235 0.3171
240 0.25839
245 0.274746
250 0.26724
255 0.294507
260 0.359512
265 0.331205
270 0.332057
275 0.323729
280 0.34662
285 0.337086
290 0.31132
295 0.304777
300 0.289284
305 0.267405
310 0.316937
315 0.311186
320 0.324794
325 0.26073
330 0.35744
335 0.344509
340 0.362674
345 0.336704
350 0.423964
355 0.325538
360 0.425135
365 0.318695
370 0.324932
375 0.333291
380 0.332888
385 0.351455
390 0.27119
395 0.358122
400 0.379306
405 0.338219
410 0.343165
415 0.333357
420 0.320746
425 0.353856
430 0.332145
435 0.372213
440 0.359673
445 0.381654
450 0.425949
455 0.348103
460 0.395875
465 0.480252
470 0.564296
475 0.573964
480 0.764452
485 17.0256
490 237.762
495 318.379
500 73.6956
505 9.8807
510 2.62594
515 1.77696
520 1.72152
525 1.98306
530 2.13693
535 2.24397
540 2.04914
545 1.98075
550 1.72084
555 1.69566
560 1.75729
565 1.63866
570 1.45547
575 2.07
580 1.98101
585 1.33307
590 0.946242
595 0.987878
600 0.703219
Ex : 503
200 0.30668
205 0.288272
210 0.33713
215 0.303524
220 0.282789
225 0.298481
230 0.424404
235 0.315007
240 0.332979
245 0.32529
250 0.381907
255 0.363447
260 0.446932
265 0.301349
270 0.348852
275 0.329708
280 0.340133
285 0.407932
290 0.357739
295 0.330256
300 0.384741
305 0.374017
310 0.315001
315 0.392592
320 0.348922
325 0.28927
330 0.303055
335 0.334707
340 0.359779
345 0.358847
350 0.292441
355 0.403751
360 0.356152
365 0.348322
370 0.369703
375 0.391375
380 0.357787
385 0.335482
390 0.430843
395 0.341583
400 0.319238
405 0.331729
410 0.353428
415 0.37674
420 0.480856
425 0.392565
430 0.389403
435 0.42578
440 0.369453
445 0.362373
450 0.355073
455 0.442073
460 0.475074
465 0.47094
470 0.585054
475 0.577082
480 0.733726
485 0.911392
490 15.8405
495 238.564
500 329.38
505 75.836
510 10.2706
515 2.86143
520 2.11949
525 1.91037
530 1.94211
535 2.29061
540 2.16786
545 1.85893
550 1.72041
555 1.71361
560 1.66626
565 1.62321
570 1.2849
575 1.34861
580 1.5457
585 1.70728
590 1.2976
595 0.889518
600 0.925019
Ex : 508
200 0.349663
205 0.412117
210 0.362939
215 0.391634
220 0.353904
225 0.328845
230 0.318205
235 0.310482
240 0.431118
245 0.448969
250 0.350129
255 0.341426
260 0.326833
265 0.452267
270 0.30864
275 0.418107
280 0.416258
285 0.332599
290 0.317566
295 0.316616
300 0.365492
305 0.431276
310 0.399152
315 0.383505
320 0.345425
325 0.422334
330 0.421864
335 0.463895
340 0.396568
345 0.335269
350 0.324122
355 0.293724
360 0.362684
365 0.432737
370 0.3903
375 0.311795
380 0.345725
385 0.327528
390 0.321488
395 0.438077
400 0.364351
405 0.465036
410 0.395465
415 0.408237
420 0.41099
425 0.366194
430 0.467346
435 0.363468
440 0.323401
445 0.370557
450 0.36033
455 0.36492
460 0.408163
465 0.457016
470 0.362059
475 0.455306
480 0.505437
485 0.721572
490 0.807528
495 16.9399
500 244.978
505 329.503
510 79.1568
515 10.572
520 2.82594
525 2.14769
530 1.89411
535 1.80167
540 1.80986
545 1.97264
550 1.88832
555 1.79754
560 1.54395
565 1.36515
570 1.30276
575 1.1141
580 1.0492
585 1.09301
590 1.45327
595 1.20595
600 1.22862
Ex : 513
200 0.494759
205 0.337168
210 0.386045
215 0.346756
220 0.404253
225 0.397829
230 0.405765
235 0.343355
240 0.30694
245 0.355628
250 0.345391
255 0.301638
260 0.31905
265 0.429629
270 0.325622
275 0.385994
280 0.415065
285 0.414971
290 0.394188
295 0.323903
300 0.330826
305 0.304286
310 0.413908
315 0.363465
320 0.355865
325 0.356099
330 0.312568
335 0.37953
340 0.337165
345 0.36073
350 0.348823
355 0.385781
360 0.415024
365 0.383138
370 0.40275
375 0.519028
380 0.301882
385 0.345298
390 0.356321
395 0.369964
400 0.44181
405 0.395078
410 0.413471
415 0.373205
420 0.404446
425 0.422784
430 0.420682
435 0.44525
440 0.432036
445 0.439205
450 0.452517
455 0.462881
460 0.366926
465 0.427451
470 0.465251
475 0.418021
480 0.550754
485 0.641715
490 0.80141
495 0.828188
500 15.3203
505 236.576
510 338.25
515 83.6331
520 11.2363
525 2.86092
530 1.95899
535 1.82004
540 1.59747
545 1.78525
550 1.87344
555 1.74345
560 1.60484
565 1.37832
570 1.33863
575 1.1421
580 1.02743
585 0.959798
590 0.944591
595 1.06988
600 0.461571
Ex : 518
200 0.474345
205 0.346536
210 0.493997
215 0.399638
220 0.409432
225 0.366344
230 0.361118
235 0.364224
240 0.333313
245 0.406119
250 0.37116
255 0.459579
260 0.348622
265 0.424378
270 0.37865
275 0.350034
280 0.417371
285 0.33753
290 0.390859
295 0.370986
300 0.315833
305 0.356764
310 0.44791
315 0.369436
320 0.431789
325 0.335719
330 0.46123
335 0.360394
340 0.396313
345 0.348352
350 0.405639
355 0.37351
360 0.373273
365 0.366206
370 0.332469
375 0.37379
380 0.50448
385 0.456056
390 0.430438
395 0.367602
400 0.433261
405 0.371077
410 0.39499
415 0.396355
420 0.407091
425 0.360127
430 0.343913
435 0.503617
440 0.535175
445 0.452272
450 0.394823
455 0.395122
460 0.474768
465 0.384479
470 0.407055
475 0.406766
480 0.541653
485 0.606707
490 0.631637
495 0.655621
500 0.943684
505 16.1956
510 232.638
515 334.047
520 82.1832
525 10.8969
530 2.67904
535 1.87852
540 1.74761
545 1.6081
550 1.70921
555 1.75464
560 1.55193
565 1.60247
570 1.21408
575 1.00433
580 1.04982
585 0.84824
590 0.864915
595 0.799814
600 0.363339
Ex : 523
200 0.498159
205 0.472318
210 0.352338
215 0.32538
220 0.376721
225 0.313133
230 0.366916
235 0.405429
240 0.406688
245 0.42819
250 0.364983
255 0.41393
260 0.510828
265 0.392655
270 0.398846
275 0.353024
280 0.40124
285 0.428253
290 0.347632
295 0.356758
300 0.453713
305 0.519602
310 0.379008
315 0.361178
320 0.401454
325 0.476009
330 0.469429
335 0.477418
340 0.515163
345 0.440234
350 0.330124
355 0.341187
360 0.394422
365 0.364971
370 0.407233
375 0.390756
380 0.435992
385 0.449228
390 0.383618
395 0.403442
400 0.388983
405 0.33709
410 0.445392
415 0.409285
420 0.352521
425 0.361469
430 0.436411
435 0.418507
440 0.433422
445 0.392391
450 0.426602
455 0.409074
460 0.415803
465 0.378935
470 0.536405
475 0.484263
480 0.474242
485 0.608983
490 0.581002
495 0.667197
500 0.895256
505 0.928871
510 14.3504
515 228.155
520 335.855
525 84.4716
530 11.0862
535 2.66691
540 1.78942
545 1.46661
550 1.40378
555 1.43552
560 1.45029
565 1.32866
570 1.29537
575 1.12883
580 1.12397
585 0.851405
590 0.904319
595 0.892244
600 0.379651
Ex : 528
200 0.38588
205 0.344663
210 0.372417
215 0.368027
220 0.372824
225 0.33912
230 0.299689
235 0.379483
240 0.368337
245 0.403179
250 0.380554
255 0.360776
260 0.369261
265 0.408717
270 0.370221
275 0.379596
280 0.340285
285 0.338097
290 0.360516
295 0.420558
300 0.469596
305 0.362101
310 0.357064
315 0.477325
320 0.346508
325 0.375801
330 0.548049
335 0.373461
340 0.467787
345 0.376696
350 0.538043
355 0.501756
360 0.624936
365 0.463431
370 0.485485
375 0.407587
380 0.340732
385 0.475399
390 0.501956
395 0.523958
400 0.456978
405 0.484753
410 0.537331
415 0.424648
420 0.382644
425 0.432231
430 0.351766
435 0.441836
440 0.489901
445 0.606896
450 0.417088
455 0.386478
460 0.446436
465 0.451168
470 0.449238
475 0.505214
480 0.429005
485 0.403394
490 0.502427
495 0.533981
500 0.584388
505 0.63436
510 0.991851
515 13.3625
520 220.974
525 326.895
530 83.0517
535 10.7694
540 2.58328
545 1.55012
550 1.47433
555 1.32103
560 1.31868
565 1.35384
570 1.39685
575 1.23142
580 1.0002
585 0.995086
590 0.844809
595 0.895623
600 0.54502
Ex : 533
200 0.450082
205 0.431349
210 0.383917
215 0.445096
220 0.398586
225 0.384012
230 0.463803
235 0.384147
240 0.458623
245 0.347066
250 0.331625
255 0.3956
260 0.40811
265 0.473501
270 0.440697
275 0.458039
280 0.341441
285 0.426904
290 0.291444
295 0.354076
300 0.429266
305 0.379493
310 0.452165
315 0.365207
320 0.464388
325 0.44371
330 0.537373
335 0.38407
340 0.419964
345 0.539586
350 0.544798
355 0.472566
360 0.405055
365 0.439962
370 0.594513
375 0.363989
380 0.497784
385 0.498167
390 0.456157
395 0.548663
400 0.463823
405 0.373974
410 0.572463
415 0.416895
420 0.550254
425 0.44825
430 0.457843
435 0.485724
440 0.336235
445 0.343155
450 0.324344
455 0.436392
460 0.486405
465 0.401379
470 0.448783
475 0.49686
480 0.482791
485 0.44647
490 0.467516
495 0.636971
500 0.70653
505 0.715769
510 0.609287
515 0.853684
520 14.0548
525 212.975
530 325.912
535 84.7871
540 11.0243
545 2.38508
550 1.43945
555 1.37492
560 1.2708
565 1.21358
570 1.12773
575 1.01732
580 1.04075
585 0.903045
590 0.7229
595 0.818701
600 1.38449
Ex : 538
200 0.353704
205 0.403278
210 0.392547
215 0.387064
220 0.514005
225 0.502032
230 0.454869
235 0.341816
240 0.427401
245 0.500383
250 0.378582
255 0.439782
260 0.469991
265 0.413621
270 0.336965
275 0.392249
280 0.473937
285 0.366577
290 0.379269
295 0.412966
300 0.353036
305 0.315394
310 0.425201
315 0.482517
320 0.459162
325 0.469792
330 0.459802
335 0.466536
340 0.427057
345 0.368933
350 0.585887
355 0.404207
360 0.436627
365 0.460449
370 0.507499
375 0.441175
380 0.472886
385 0.502098
390 0.46841
395 0.282945
400 0.398037
405 0.454409
410 0.408437
415 0.49275
420 0.432728
425 0.378527
430 0.56408
435 0.575818
440 0.357335
445 0.386459
450 0.438307
455 0.463356
460 0.603598
465 0.379627
470 0.468332
475 0.381036
480 0.530779
485 0.483587
490 0.436922
495 0.485663
500 0.567611
505 0.478279
510 0.624523
515 0.7085
520 0.772394
525 11.8726
530 207.162
535 326.439
540 87.8022
545 11.4947
550 2.33068
555 1.35204
560 1.2618
565 1.04513
570 1.02078
575 1.06403
580 1.10073
585 0.903157
590 0.847413
595 0.844986
600 0.617453
Ex : 543
200 0.429994
205 0.414187
210 0.447866
215 0.444
220 0.476654
225 0.375073
230 0.341806
235 0.466697
240 0.506183
245 0.454994
250 0.38228
255 0.456406
260 0.345443
265 0.393843
270 0.405467
275 0.446258
280 0.571312
285 0.479949
290 0.414334
295 0.44956
300 0.465267
305 0.628201
310 0.439129
315 0.500299
320 0.413984
325 0.375138
330 0.497637
335 0.457323
340 0.537151
345 0.488975
350 0.480315
355 0.472989
360 0.418815
365 0.487478
370 0.483766
375 0.47411
380 0.507116
385 0.464938
390 0.493635
395 0.546259
400 0.364734
405 0.474982
410 0.505465
415 0.399611
420 0.441771
425 0.485306
430 0.426843
435 0.419602
440 0.504722
445 0.505368
450 0.532048
455 0.488399
460 0.484712
465 0.550183
470 0.422581
475 0.524927
480 0.455905
485 0.531837
490 0.52601
495 0.454939
500 0.576274
505 0.487055
510 0.642749
515 0.635263
520 0.647912
525 0.863672
530 11.4768
535 193.53
540 322.155
545 89.9796
550 11.5674
555 2.21832
560 1.32578
565 1.14337
570 1.0185
575 0.9553
580 1.00275
585 1.03591
590 0.862303
595 0.785862
600 1.03436
Ex : 548
200 0.536273
205 0.554044
210 0.501378
215 0.486488
220 0.415909
225 0.403006
230 0.418957
235 0.464822
240 0.455146
245 0.455001
250 0.686826
255 0.499623
260 0.451876
265 0.36621
270 0.468181
275 0.418873
280 0.406745
285 0.473856
290 0.401994
295 0.45463
300 0.522814
305 0.579369
310 0.524686
315 0.470276
320 0.452188
325 0.464481
330 0.488271
335 0.54697
340 0.45698
345 0.454183
350 0.47694
355 0.346895
360 0.379405
365 0.486543
370 0.529562
375 0.46124
380 0.458318
385 0.545387
390 0.41031
395 0.422033
400 0.502945
405 0.508358
410 0.570915
415 0.480272
420 0.57789
425 0.546016
430 0.513127
435 0.505311
440 0.647557
445 0.498257
450 0.52464
455 0.466573
460 0.522867
465 0.533439
470 0.41944
475 0.461187
480 0.494658
485 0.40019
490 0.48831
495 0.502838
500 0.508411
505 0.545467
510 0.601251
515 0.581192
520 0.511882
525 0.659381
530 0.886232
535 11.6906
540 199.97
545 319.439
550 89.6993
555 11.4862
560 2.30618
565 1.1591
570 1.22534
575 0.977855
580 0.800958
585 0.79397
590 0.850201
595 0.64284
600 0.532666
Ex : 553
200 0.512043
205 0.384592
210 0.551522
215 0.426027
220 0.372994
225 0.408013
230 0.413544
235 0.389149
240 0.402092
245 0.594424
250 0.444745
255 0.345738
260 0.411221
265 0.3948
270 0.430251
275 0.431587
280 0.517533
285 0.465047
290 0.382884
295 0.51745
300 0.348623
305 0.416343
310 0.47624
315 0.566885
320 0.508777
325 0.525547
330 0.47072
335 0.423571
340 0.427924
345 0.464228
350 0.472026
355 0.671538
360 0.5645
365 0.52423
370 0.466186
375 0.662555
380 0.443918
385 0.470297
390 0.573488
395 0.501895
400 0.456125
405 0.432957
410 0.39823
415 0.575564
420 0.437078
425 0.495376
430 0.366688
435 0.579579
440 0.514122
445 0.455797
450 0.587063
455 0.521879
460 0.606757
465 0.488262
470 0.452386
475 0.481453
480 0.496255
485 0.623286
490 0.545606
495 0.602233
500 0.500104
505 0.553069
510 0.53074
515 0.590972
520 0.606738
525 0.633627
530 0.674254
535 0.878381
540 10.3594
545 192.104
550 319.148
555 87.7482
560 11.2364
565 2.17465
570 1.1895
575 0.938869
580 0.889962
585 0.871916
590 0.870549
595 0.841449
600 0.501692
Ex : 558
200 0.484757
205 0.577118
210 0.429681
215 0.396355
220 0.441378
225 0.480467
230 0.52837
235 0.369802
240 0.410162
245 0.381588
250 0.467737
255 0.415668
260 0.343221
265 0.403765
270 0.448021
275 0.558514
280 0.528306
285 0.487072
290 0.426003
295 0.470082
300 0.457529
305 0.425181
310 0.610929
315 0.39435
320 0.493706
325 0.578909
330 0.410465
335 0.422455
340 0.376606
345 0.603389
350 0.455621
355 0.460995
360 0.498805
365 0.580744
370 0.52235
375 0.600492
380 0.54747
385 0.438544
390 0.47293
395 0.568712
400 0.531245
405 0.448909
410 0.404944
415 0.459293
420 0.46444
425 0.532303
430 0.436681
435 0.637563
440 0.545887
445 0.542667
450 0.570359
455 0.430211
460 0.604759
465 0.556316
470 0.477474
475 0.451083
480 0.63575
485 0.464649
490 0.53997
495 0.562916
500 0.528495
505 0.487673
510 0.413015
515 0.481469
520 0.642005
525 0.524344
530 0.642697
535 0.875606
540 0.825359
545 10.1301
550 181.243
555 313.337
560 89.2466
565 11.3656
570 2.16243
575 1.12087
580 1.03681
585 0.774579
590 0.795947
595 0.713871
600 0.382545
Ex : 563
200 0.559805
205 0.498272
210 0.621757
215 0.498883
220 0.506071
225 0.470752
230 0.458892
235 0.463146
240 0.598836
245 0.483503
250 0.511488
255 0.511125
260 0.570977
265 0.441488
270 0.468277
275 0.412722
280 0.466908
285 0.46999
290 0.574376
295 0.559498
300 0.498946
305 0.60091
310 0.586204
315 0.566918
320 0.549202
325 0.658702
330 0.439735
335 0.514821
340 0.542793
345 0.593139
350 0.47449
355 0.413741
360 0.593538
365 0.582141
370 0.472349
375 0.540653
380 0.494458
385 0.65658
390 0.547485
395 0.451011
400 0.476515
405 0.533314
410 0.61601
415 0.560368
420 0.556249
425 0.515035
430 0.491864
435 0.531264
440 0.6136
445 0.40485
450 0.4194
455 0.508365
460 0.498534
465 0.565156
470 0.642748
475 0.463107
480 0.491696
485 0.65436
490 0.685593
495 0.676757
500 0.598352
505 0.495736
510 0.612628
515 0.798654
520 0.702832
525 0.548539
530 0.610925
535 0.655148
540 0.635165
545 0.907651
550 9.66892
555 174.079
560 300.355
565 86.3817
570 11.0233
575 2.00307
580 1.06878
585 0.891656
590 0.885585
595 0.778522
600 1.7344
Ex : 568
200 0.475722
205 0.419263
210 0.491415
215 0.383381
220 0.563996
225 0.456854
230 0.501937
235 0.571659
240 0.49644
245 0.456558
250 0.377975
255 0.476942
260 0.529059
265 0.53731
270 0.49492
275 0.482922
280 0.601362
285 0.509048
290 0.52294
295 0.45026
300 0.4059
305 0.534325
310 0.44554
315 0.486524
320 0.499523
325 0.486136
330 0.617168
335 0.529733
340 0.491171
345 0.605412
350 0.598663
355 0.554011
360 0.528189
365 0.392885
370 0.501861
375 0.599129
380 0.523038
385 0.577261
390 0.577544
395 0.513406
400 0.56199
405 0.648065
410 0.596226
415 0.423723
420 0.656825
425 0.593884
430 0.496837
435 0.383113
440 0.437265
445 0.632899
450 0.592198
455 0.527238
460 0.471874
465 0.584304
470 0.633836
475 0.496799
480 0.488658
485 0.503129
490 0.540065
495 0.493198
500 0.577624
505 0.502821
510 0.647871
515 0.593773
520 0.526381
525 0.613569
530 0.575598
535 0.732033
540 0.664883
545 0.709484
550 0.905719
555 7.57872
560 160.49
565 295.983
570 87.6425
575 11.2812
580 2.05455
585 0.911936
590 0.850972
595 0.773238
600 1.25703
Ex : 573
200 0.544537
205 0.53563
210 0.546851
215 0.525578
220 0.363942
225 0.490732
230 0.515264
235 0.559479
240 0.569738
245 0.542985
250 0.527306
255 0.642572
260 0.635166
265 0.510121
270 0.454631
275 0.473531
280 0.515881
285 0.499869
290 0.512751
295 0.571341
300 0.578949
305 0.58386
310 0.441565
315 0.46998
320 0.447541
325 0.567531
330 0.519123
335 0.520503
340 0.575411
345 0.537552
350 0.537064
355 0.553451
360 0.484453
365 0.355703
370 0.484669
375 0.610448
380 0.50061
385 0.550694
390 0.603352
395 0.488929
400 0.467667
405 0.48711
410 0.518397
415 0.687531
420 0.553315
425 0.480767
430 0.469242
435 0.593736
440 0.486711
445 0.524371
450 0.539479
455 0.514281
460 0.508278
465 0.584362
470 0.501845
475 0.502761
480 0.628827
485 0.516443
490 0.536194
495 0.483232
500 0.576541
505 0.60273
510 0.59716
515 0.665548
520 0.735054
525 0.579301
530 0.518954
535 0.603406
540 0.661378
545 0.726471
550 0.629532
555 0.731096
560 6.56017
565 139.199
570 268.783
575 82.8932
580 10.6404
585 2.05658
590 0.852862
595 0.727928
600 1.30137
Ex : 578
200 0.642857
205 0.496141
210 0.56601
215 0.442065
220 0.452966
225 0.452818
230 0.464983
235 0.493459
240 0.552779
245 0.492957
250 0.550595
255 0.467722
260 0.435506
265 0.579233
270 0.493149
275 0.571599
280 0.51575
285 0.634356
290 0.515691
295 0.542664
300 0.514293
305 0.529315
310 0.568147
315 0.49195
320 0.423222
325 0.629126
330 0.45283
335 0.544188
340 0.496393
345 0.528749
350 0.597526
355 0.576413
360 0.558515
365 0.642067
370 0.511125
375 0.542089
380 0.632854
385 0.575705
390 0.5513
395 0.647637
400 0.543952
405 0.598915
410 0.783516
415 0.573239
420 0.581505
425 0.550686
430 0.481138
435 0.600489
440 0.562602
445 0.477391
450 0.48853
455 0.590443
460 0.595495
465 0.536114
470 0.468338
475 0.582542
480 0.507949
485 0.597676
490 0.685864
495 0.60127
500 0.472439
505 0.39993
510 0.598789
515 0.611034
520 0.572884
525 0.454558
530 0.461204
535 0.51718
540 0.671122
545 0.544928
550 0.634818
555 0.691962
560 0.907341
565 6.29228
570 127.349
575 246.607
580 75.3796
585 9.46315
590 1.94544
595 0.826471
600 0.946685
Ex : 583
200 0.540601
205 0.622323
210 0.625333
215 0.494983
220 0.553393
225 0.579044
230 0.542787
235 0.60427
240 0.467827
245 0.560818
250 0.520664
255 0.58877
260 0.436579
265 0.493439
270 0.517057
275 0.619051
280 0.770444
285 0.579226
290 0.609393
295 0.482359
300 0.53511
305 0.548864
310 0.634809
315 0.551609
320 0.526675
325 0.5732
330 0.688205
335 0.553747
340 0.437485
345 0.554919
350 0.55239
355 0.602367
360 0.581491
365 0.58089
370 0.700263
375 0.567214
380 0.584
385 0.603996
390 0.514941
395 0.630619
400 0.698074
405 0.548159
410 0.51962
415 0.602013
420 0.564919
425 0.491336
430 0.637659
435 0.516077
440 0.437118
445 0.602983
450 0.615027
455 0.602006
460 0.673357
465 0.513885
470 0.604368
475 0.601681
480 0.597186
485 0.523475
490 0.646749
495 0.483277
500 0.590585
505 0.496078
510 0.487977
515 0.453377
520 0.534886
525 0.624636
530 0.572913
535 0.543607
540 0.519557
545 0.606626
550 0.660604
555 0.618305
560 0.657977
565 0.73747
570 5.07743
575 114.758
580 207.56
585 58.8933
590 7.80852
595 1.61523
600 0.592824
Ex : 588
200 0.460293
205 0.590742
210 0.515585
215 0.475209
220 0.620178
225 0.480718
230 0.567896
235 0.659965
240 0.552379
245 0.57683
250 0.520508
255 0.481891
260 0.509427
265 0.556343
270 0.642038
275 0.668474
280 0.607351
285 0.531155
290 0.648797
295 0.560374
300 0.450402
305 0.586616
310 0.493934
315 0.503656
320 0.494977
325 0.669391
330 0.54877
335 0.561756
340 0.514202
345 0.404886
350 0.504497
355 0.55192
360 0.449445
365 0.560248
370 0.453291
375 0.612641
380 0.602121
385 0.464374
390 0.488721
395 0.499479
400 0.560622
405 0.472042
410 0.49631
415 0.403823
420 0.457053
425 0.622921
430 0.657281
435 0.494514
440 0.47739
445 0.459355
450 0.491633
455 0.519776
460 0.47151
465 0.596091
470 0.568303
475 0.66863
480 0.609575
485 0.546895
490 0.674808
495 0.513279
500 0.481157
505 0.555003
510 0.580464
515 0.591263
520 0.6293
525 0.575318
530 0.515322
535 0.684267
540 0.499659
545 0.564621
550 0.62014
555 0.600665
560 0.812363
565 0.760667
570 0.873771
575 4.46746
580 95.0241
585 184.045
590 55.3922
595 7.26584
600 1.0055
Ex : 593
200 0.46102
205 0.485255
210 0.543725
215 0.40958
220 0.536021
225 0.51456
230 0.562328
235 0.614207
240 0.595013
245 0.665093
250 0.507919
255 0.499571
260 0.570805
265 0.620257
270 0.594087
275 0.609667
280 0.625284
285 0.485721
290 0.679273
295 0.519062
300 0.489784
305 0.453772
310 0.596055
315 0.545943
320 0.584051
325 0.633519
330 0.47947
335 0.437593
340 0.473494
345 0.669562
350 0.546279
355 0.653918
360 0.520452
365 0.568314
370 0.623257
375 0.56409
380 0.702486
385 0.784514
390 0.674376
395 0.638182
400 0.507421
405 0.57634
410 0.617737
415 0.825696
420 0.566163
425 0.700543
430 0.679037
435 0.539199
440 0.479859
445 0.674646
450 0.531108
455 0.570438
460 0.659858
465 0.705877
470 0.579771
475 0.524449
480 0.550632
485 0.608261
490 0.656237
495 0.530738
500 0.581578
505 0.706811
510 0.501859
515 0.505603
520 0.616488
525 0.635611
530 0.704229
535 0.749664
540 0.543525
545 0.632484
550 0.603093
555 0.527827
560 0.713019
565 0.800292
570 0.656404
575 0.793782
580 4.11255
585 82.9555
590 157.672
595 46.8582
600 6.60251
Ex : 598
200 0.673945
205 0.609828
210 0.548536
215 0.559555
220 0.611266
225 0.57575
230 0.607368
235 0.66852
240 0.503679
245 0.529102
250 0.538931
255 0.598709
260 0.573208
265 0.525541
270 0.519483
275 0.607059
280 0.526549
285 0.487735
290 0.502045
295 0.529922
300 0.466706
305 0.462399
310 0.460862
315 0.578808
320 0.564508
325 0.597385
330 0.519386
335 0.601943
340 0.543955
345 0.59857
350 0.695398
355 0.636795
360 0.664325
365 0.561646
370 0.56217
375 0.538891
380 0.620208
385 0.595457
390 0.633652
395 0.587251
400 0.55409
405 0.714184
410 0.686625
415 0.633986
420 0.480831
425 0.625947
430 0.535423
435 0.586792
440 0.44508
445 0.637093
450 0.583929
455 0.549205
460 0.585231
465 0.636995
470 0.572746
475 0.745911
480 0.694404
485 0.791229
490 0.542187
495 0.64154
500 0.670221
505 0.744
510 0.540895
515 0.561147
520 0.549305
525 0.56065
530 0.704139
535 0.604448
540 0.689257
545 0.573595
550 0.592351
555 0.579773
560 0.640665
565 0.615108
570 0.807784
575 0.646827
580 0.764428
585 4.34062
590 78.0032
595 143.655
600 90.4149
Ex : 603
200 0.618186
205 0.514812
210 0.637309
215 0.620079
220 0.598448
225 0.621954
230 0.554428
235 0.556358
240 0.46406
245 0.623969
250 0.591899
255 0.728204
260 0.632736
265 0.633756
270 0.725502
275 0.65703
280 0.512803
285 0.56133
290 0.767154
295 0.732839
300 0.714561
305 0.502037
310 0.652925
315 0.589931
320 0.533524
325 0.728144
330 0.704754
335 0.633563
340 0.52736
345 0.66521
350 0.740594
355 0.702428
360 0.606087
365 0.621131
370 0.647461
375 0.653456
380 0.604059
385 0.630984
390 0.664112
395 0.440907
400 0.518687
405 0.503204
410 0.623957
415 0.626977
420 0.583359
425 0.601142
430 0.4969
435 0.498287
440 0.554477
445 0.560967
450 0.747239
455 0.70481
460 0.727927
465 0.850762
470 0.604166
475 0.701671
480 0.635144
485 0.580183
490 0.581176
495 0.588412
500 0.629176
505 0.573553
510 0.606264
515 0.649789
520 0.732087
525 0.629866
530 0.778039
535 0.785244
540 0.653412
545 0.68405
550 0.689253
555 0.674079
560 0.603092
565 0.69007
570 0.745032
575 0.721863
580 0.68279
585 0.791477
590 3.67779
595 63.0545
600 125.666
