File format V 1.0
ven. 9. déc. 23:21:57 2016
Operator : 
Comments : 

=============================================
SpectroFluorometer parameters
Mode : 3D measurement
Data : Fluorescence
Phospho. : Ordinary
Spectrum : Fluorescence

Scan speed : 2400 nm/mn
Response : 100 ms
PM Voltage : 700 V
Shutter : On

Lambda Ex. Start : 203
Lambda Ex. End : 603
Lambda Ex. Step : 5
Ex. Slit : 5 nm

Lambda Em. Start : 200
Lambda Em. End : 600
Lambda Em. Step : 5
Em. Slit : 5 nm

Repetition : 1
Decal lambda em : 10
=============================================
DATA
Ex : 203
200 12.3636
205 19.4538
210 17.009
215 15.6193
220 16.2068
225 13.0061
230 12.2895
235 12.3738
240 12.2142
245 15.8387
250 19.0311
255 18.6994
260 15.5453
265 14.0132
270 17.194
275 14.9118
280 13.9734
285 22.6113
290 13.8496
295 13.1297
300 15.2463
305 15.9591
310 11.5531
315 14.8494
320 17.8988
325 14.2571
330 17.8303
335 16.885
340 15.3939
345 14.9771
350 14.0287
355 12.5734
360 14.6574
365 17.4108
370 14.4871
375 18.8273
380 14.6134
385 14.6896
390 17.1224
395 16.1749
400 12.546
405 15.0752
410 13.6067
415 14.5257
420 12.8914
425 12.4879
430 16.9864
435 16.9041
440 13.7792
445 12.3705
450 17.2426
455 17.3121
460 16.0016
465 18.2697
470 16.5682
475 20.3611
480 15.8179
485 16.3731
490 14.2862
495 13.5554
500 17.6799
505 13.1068
510 15.1745
515 15.1587
520 11.4732
525 16.022
530 14.7642
535 14.1457
540 17.2603
545 13.695
550 19.2398
555 14.0111
560 17.8602
565 15.9983
570 14.3595
575 14.8498
580 11.7215
585 14.3023
590 20.3117
595 20.0355
600 2.27996
Ex : 208
200 15.3491
205 10.0097
210 13.9111
215 12.5332
220 17.1459
225 16.73
230 10.8168
235 12.0988
240 16.0146
245 14.078
250 18.8696
255 21.8496
260 18.8454
265 18.9358
270 13.7845
275 16.0269
280 14.3908
285 16.876
290 17.6153
295 12.8096
300 14.6928
305 12.0214
310 14.3818
315 15.5771
320 17.8099
325 14.7339
330 20.3738
335 18.6796
340 16.7868
345 16.9651
350 13.0907
355 16.7601
360 12.2923
365 15.3882
370 14.4858
375 15.8699
380 17.1994
385 15.8787
390 15.6024
395 12.4802
400 10.9704
405 16.2802
410 15.2465
415 13.3094
420 20.1524
425 15.234
430 18.8542
435 16.4498
440 16.9216
445 18.1447
450 12.9524
455 12.8164
460 18.5135
465 15.4549
470 16.1553
475 14.7244
480 20.0387
485 15.0299
490 16.5689
495 13.3186
500 13.5205
505 13.9959
510 12.9638
515 15.4393
520 17.6745
525 9.96223
530 13.405
535 15.5242
540 13.3974
545 15.0449
550 15.6491
555 16.1121
560 12.9352
565 11.4951
570 11.6686
575 11.8726
580 17.0772
585 16.3884
590 15.5341
595 16.9334
600 12.8568
Ex : 213
200 16.2654
205 15.6939
210 15.4595
215 13.4656
220 14.0216
225 15.129
230 16.2182
235 13.6973
240 12.9451
245 15.6682
250 14.7484
255 11.8152
260 16.2737
265 12.4391
270 10.8786
275 16.7574
280 15.2217
285 12.1914
290 17.1069
295 17.4078
300 12.0816
305 17.0891
310 13.1473
315 13.4493
320 14.0034
325 14.6856
330 10.2325
335 12.3752
340 18.0233
345 17.324
350 16.167
355 16.6674
360 16.4817
365 15.408
370 18.6358
375 13.6571
380 14.2564
385 17.7162
390 16.7793
395 17.9184
400 15.9294
405 17.2994
410 19.6979
415 13.9448
420 19.4277
425 12.523
430 16.7825
435 12.4387
440 14.0983
445 14.5206
450 15.6759
455 16.0036
460 15.0464
465 14.3192
470 13.6939
475 18.097
480 12.7948
485 16.5979
490 18.5505
495 13.4101
500 17.0893
505 14.015
510 16.4388
515 15.7209
520 14.4666
525 13.5352
530 16.4239
535 16.0431
540 13.1289
545 13.9579
550 17.5709
555 15.1382
560 16.0218
565 15.9068
570 13.306
575 14.336
580 16.3605
585 18.0618
590 15.1527
595 13.2556
600 10.6659
Ex : 218
200 13.614
205 13.4193
210 13.1954
215 13.2292
220 15.3247
225 11.2085
230 16.2308
235 13.6127
240 15.858
245 10.3728
250 14.2864
255 12.318
260 15.3987
265 13.0841
270 17.6468
275 14.2027
280 15.2119
285 15.678
290 14.2998
295 16.6424
300 13.0241
305 15.6315
310 13.4381
315 14.3585
320 19.9734
325 15.517
330 14.3734
335 15.8959
340 15.2539
345 15.5586
350 17.4162
355 19.3103
360 20.5123
365 14.2695
370 13.3116
375 17.6216
380 17.0137
385 24.4209
390 15.654
395 14.7099
400 20.2302
405 16.9435
410 17.2772
415 13.7691
420 13.1969
425 18.008
430 14.0786
435 13.7119
440 16.4657
445 12.6934
450 16.2844
455 20.2505
460 17.1374
465 16.9126
470 16.1831
475 14.8036
480 14.5702
485 16.2471
490 15.953
495 18.5722
500 15.9362
505 13.6064
510 16.9936
515 11.9574
520 17.2734
525 15.7845
530 16.9338
535 17.5477
540 14.5338
545 18.896
550 14.6032
555 15.5222
560 14.9572
565 20.268
570 15.0788
575 12.6153
580 13.4238
585 12.3876
590 10.953
595 16.0091
600 13.4901
Ex : 223
200 11.5272
205 16.1606
210 14.5132
215 14.7371
220 15.0319
225 12.232
230 14.4484
235 14.4138
240 16.9835
245 13.3216
250 12.12
255 11.6813
260 11.7008
265 14.66
270 12.4087
275 14.645
280 12.2865
285 11.5283
290 14.14
295 10.2053
300 17.225
305 14.7837
310 14.4863
315 14.1012
320 16.6404
325 12.2694
330 12.0894
335 18.0974
340 18.4753
345 13.6182
350 18.1885
355 13.9419
360 10.8862
365 14.3176
370 14.9748
375 17.002
380 17.2365
385 19.768
390 18.9798
395 15.1976
400 10.7619
405 10.0283
410 14.8501
415 13.535
420 16.982
425 16.0444
430 14.3528
435 13.4381
440 17.4275
445 11.0149
450 18.4448
455 20.7585
460 15.5563
465 13.0743
470 14.9311
475 13.3344
480 15.6913
485 11.8343
490 13.3181
495 11.8813
500 15.306
505 13.6842
510 12.1868
515 17.3024
520 14.3426
525 15.0443
530 13.4119
535 11.1464
540 12.1811
545 13.0012
550 13.0859
555 15.5647
560 14.0056
565 11.2446
570 10.4648
575 14.175
580 16.649
585 11.4675
590 11.7779
595 11.5242
600 17.2631
Ex : 228
200 8.62842
205 12.6874
210 12.2075
215 10.8661
220 10.0835
225 13.7498
230 13.5354
235 11.3283
240 10.946
245 12.914
250 10.5759
255 9.65259
260 9.17669
265 11.432
270 11.3636
275 15.5499
280 13.67
285 14.5439
290 12.9231
295 14.5118
300 14.6384
305 12.1654
310 11.7571
315 13.5884
320 11.2157
325 9.63388
330 15.0069
335 14.5058
340 13.3644
345 18.316
350 15.5662
355 13.8725
360 17.4236
365 14.828
370 12.5091
375 15.3882
380 12.0398
385 15.9853
390 12.5466
395 13.7238
400 14.1411
405 11.3844
410 13.8548
415 15.7512
420 15.4256
425 12.8538
430 16.4563
435 13.3368
440 9.67359
445 14.645
450 13.4143
455 15.8457
460 18.3133
465 14.4862
470 18.034
475 12.5233
480 12.9896
485 13.3552
490 15.8132
495 12.2359
500 14.2513
505 12.6455
510 11.8301
515 13.518
520 17.0716
525 8.72033
530 11.7737
535 8.94818
540 14.8037
545 15.1807
550 16.8363
555 13.8544
560 13.2068
565 10.9333
570 16.3344
575 12.4093
580 11.5027
585 12.0754
590 13.2129
595 11.3451
600 1.29103
Ex : 233
200 13.4175
205 9.67248
210 9.7699
215 11.178
220 11.5903
225 11.0172
230 11.2313
235 8.83267
240 11.9865
245 8.97027
250 12.279
255 14.8594
260 9.64227
265 11.6309
270 6.56445
275 13.9351
280 9.19668
285 13.7143
290 11.2764
295 10.354
300 15.5748
305 12.5113
310 9.25541
315 13.4307
320 12.4014
325 10.0124
330 12.9539
335 13.7077
340 12.5993
345 12.2953
350 13.9284
355 15.9943
360 12.4755
365 14.5745
370 13.4049
375 17.3067
380 16.5304
385 12.7392
390 11.9606
395 16.3316
400 13.5372
405 11.5377
410 9.31861
415 11.1754
420 14.6864
425 13.9431
430 10.4694
435 13.6371
440 12.0278
445 9.64827
450 12.0169
455 9.19495
460 11.6686
465 14.0403
470 13.8922
475 10.1475
480 12.7919
485 8.80205
490 9.9775
495 13.8363
500 14.3157
505 13.3787
510 14.4226
515 10.7113
520 12.0697
525 13.4332
530 8.65021
535 11.3598
540 10.5874
545 12.5559
550 9.22996
555 11.4504
560 11.6561
565 11.7779
570 15.1298
575 15.3777
580 10.0327
585 13.8029
590 10.328
595 10.3545
600 14.0283
Ex : 238
200 7.62931
205 7.98972
210 9.7674
215 10.606
220 11.6384
225 8.81224
230 9.86484
235 11.7235
240 11.5707
245 9.06635
250 10.9166
255 10.2976
260 12.1742
265 7.82064
270 8.80947
275 7.70331
280 10.8873
285 8.05532
290 8.5423
295 12.3824
300 10.3728
305 8.87716
310 8.92023
315 11.1709
320 9.57431
325 11.4551
330 10.4761
335 11.6851
340 12.8281
345 11.3501
350 11.3415
355 12.6863
360 10.5793
365 9.65184
370 9.13074
375 10.9155
380 10.7623
385 12.1038
390 14.4735
395 13.5428
400 12.5884
405 11.4303
410 10.5212
415 10.1275
420 10.6764
425 10.7907
430 14.8076
435 9.90664
440 10.1029
445 11.8772
450 12.3562
455 12.7592
460 11.2965
465 12.5395
470 9.62241
475 12.9224
480 10.5873
485 9.44765
490 14.1336
495 13.459
500 10.4732
505 11.3128
510 16.0512
515 8.77607
520 9.52156
525 11.1336
530 8.65199
535 10.9168
540 11.1376
545 9.99518
550 12.9678
555 11.0042
560 13.5281
565 11.0266
570 8.40907
575 11.1614
580 11.1541
585 13.486
590 10.0158
595 10.1338
600 47.7422
Ex : 243
200 7.53008
205 9.78996
210 8.04256
215 11.5892
220 8.99816
225 11.0163
230 11.1423
235 12.4539
240 7.24279
245 7.98989
250 9.59529
255 7.85573
260 9.14694
265 6.95946
270 8.52946
275 7.85984
280 6.35666
285 7.76339
290 6.13097
295 9.88587
300 7.80327
305 8.57282
310 11.2587
315 10.1531
320 7.84066
325 9.33259
330 8.58181
335 6.61548
340 8.73876
345 12.4745
350 8.85525
355 10.4334
360 13.4447
365 9.5025
370 11.3301
375 10.1771
380 10.5736
385 8.93183
390 11.7729
395 9.02014
400 10.8366
405 8.67
410 7.72878
415 9.76153
420 10.3842
425 9.50883
430 9.31638
435 9.86536
440 7.55356
445 8.99199
450 9.52816
455 7.41383
460 8.16634
465 11.5605
470 9.06301
475 11.8774
480 14.1616
485 9.30453
490 10.2579
495 10.0328
500 9.84619
505 9.12265
510 9.83594
515 8.24249
520 7.76043
525 10.8965
530 11.2815
535 7.82961
540 9.66336
545 9.69054
550 9.56107
555 10.3616
560 10.5204
565 8.15628
570 9.74977
575 11.7943
580 9.88193
585 9.31785
590 9.90546
595 9.71375
600 1.10539
Ex : 248
200 8.66667
205 6.64182
210 7.46207
215 7.43278
220 6.64127
225 6.29107
230 7.85132
235 7.79963
240 6.9154
245 6.95704
250 8.08967
255 7.4596
260 10.1567
265 9.5856
270 7.97915
275 7.89916
280 7.52497
285 7.71144
290 8.80428
295 7.61979
300 6.09406
305 7.82932
310 9.91361
315 8.33961
320 7.10881
325 8.97078
330 7.47229
335 8.37619
340 8.28868
345 9.31103
350 9.53423
355 8.52683
360 9.22223
365 7.8428
370 8.51329
375 7.73374
380 8.99429
385 7.62613
390 7.56233
395 8.64421
400 9.39847
405 10.1417
410 6.73115
415 6.59949
420 7.23756
425 9.02168
430 8.60131
435 8.2152
440 7.29891
445 8.01748
450 6.2686
455 7.96535
460 8.92067
465 7.50322
470 7.39707
475 7.16985
480 7.50981
485 7.99015
490 8.48782
495 9.00424
500 5.7746
505 7.21503
510 7.74656
515 6.96067
520 7.01948
525 7.83133
530 8.65243
535 7.21221
540 6.03183
545 9.73237
550 5.89354
555 7.41716
560 6.51631
565 5.99545
570 7.63619
575 8.98516
580 6.04706
585 9.38678
590 6.65957
595 7.72698
600 0.879301
Ex : 253
200 6.12593
205 4.85746
210 6.73625
215 5.74462
220 4.07099
225 6.9167
230 5.06594
235 5.40846
240 5.1006
245 5.86434
250 5.06125
255 3.97718
260 5.71551
265 4.46023
270 5.73887
275 5.51823
280 5.07906
285 5.92554
290 5.56083
295 5.03975
300 5.59898
305 5.10309
310 6.77306
315 5.39423
320 4.79708
325 6.44127
330 6.05021
335 6.41217
340 5.36949
345 6.64953
350 5.45508
355 7.00957
360 6.24441
365 7.2998
370 6.13482
375 7.28453
380 6.93566
385 7.4302
390 6.90595
395 6.13583
400 6.63958
405 5.82022
410 8.31247
415 7.87048
420 10.2983
425 7.45307
430 5.82734
435 5.94278
440 5.38481
445 5.40551
450 7.97879
455 6.07748
460 6.78067
465 6.14018
470 4.75059
475 6.62094
480 6.77569
485 7.5237
490 7.24663
495 6.76287
500 7.71412
505 6.63148
510 4.79643
515 5.4177
520 5.17156
525 7.1727
530 7.20172
535 5.72092
540 7.61091
545 6.45532
550 6.5439
555 6.47269
560 5.77091
565 5.60286
570 4.95892
575 5.4771
580 5.61121
585 6.46184
590 6.5986
595 6.63734
600 4.18934
Ex : 258
200 5.72115
205 4.99021
210 4.46408
215 4.27005
220 4.66573
225 3.60357
230 5.15397
235 5.94576
240 4.60703
245 5.43288
250 4.44043
255 5.09494
260 5.11455
265 4.34537
270 5.60392
275 6.63361
280 4.0477
285 4.13303
290 4.97031
295 4.76076
300 3.79294
305 4.70344
310 5.51601
315 5.46202
320 4.79345
325 3.8683
330 5.13673
335 4.43003
340 4.35517
345 3.77337
350 5.33099
355 4.89728
360 4.93391
365 5.16438
370 5.49296
375 3.95783
380 5.79342
385 5.24841
390 5.18004
395 5.47655
400 6.48811
405 5.18489
410 6.18782
415 6.02311
420 5.02148
425 5.7949
430 4.56769
435 5.46833
440 6.28765
445 6.13729
450 5.54472
455 5.87058
460 5.37689
465 4.4588
470 4.88455
475 4.6665
480 5.69451
485 5.78731
490 5.28345
495 4.42428
500 6.34733
505 6.2324
510 6.83909
515 6.19181
520 5.42749
525 4.70068
530 4.39777
535 5.42458
540 5.76572
545 5.43782
550 6.31435
555 6.90294
560 4.70494
565 6.32261
570 5.41497
575 4.20831
580 3.98269
585 5.36397
590 6.59052
595 5.76493
600 0.928705
Ex : 263
200 3.16692
205 3.34627
210 3.51785
215 3.65961
220 3.81968
225 3.59948
230 3.26485
235 3.99176
240 3.57417
245 4.25805
250 4.28508
255 4.35153
260 4.07352
265 4.27749
270 4.43736
275 3.15682
280 3.53402
285 3.55843
290 4.14773
295 3.87427
300 3.4012
305 3.513
310 2.96819
315 4.12221
320 4.41975
325 4.38158
330 4.13044
335 4.6052
340 4.37233
345 4.07279
350 5.16089
355 4.81225
360 4.37895
365 3.53941
370 3.92356
375 4.64408
380 3.895
385 3.73504
390 4.42161
395 3.57498
400 5.0232
405 4.29097
410 4.95184
415 5.78002
420 4.1512
425 3.76305
430 3.59898
435 3.73008
440 3.84287
445 3.59063
450 4.80353
455 4.15493
460 4.62647
465 3.81923
470 4.97268
475 4.56591
480 4.27227
485 4.71299
490 3.54093
495 4.28736
500 4.78898
505 4.20625
510 3.36747
515 5.98049
520 4.48775
525 4.55693
530 4.19284
535 3.35429
540 3.18424
545 3.40958
550 3.4592
555 4.1853
560 3.33123
565 3.64168
570 4.2062
575 3.61578
580 4.47046
585 3.41013
590 2.90514
595 3.77367
600 3.97424
Ex : 268
200 3.26241
205 2.87836
210 2.59792
215 3.14817
220 3.04299
225 3.18193
230 2.82528
235 3.52458
240 3.7409
245 2.67434
250 2.4656
255 2.93609
260 3.68059
265 2.75951
270 2.73009
275 3.61657
280 2.23627
285 3.46579
290 2.56601
295 2.25794
300 2.53708
305 2.42646
310 2.4028
315 3.07518
320 3.32901
325 2.91837
330 2.42514
335 2.91786
340 2.7199
345 3.39296
350 3.08835
355 3.03381
360 3.40332
365 3.14425
370 3.26459
375 3.73612
380 3.21791
385 3.04921
390 3.29753
395 4.07159
400 3.17999
405 2.6683
410 4.16584
415 3.22463
420 3.42023
425 2.85214
430 3.98275
435 3.69985
440 3.26335
445 3.5244
450 3.13728
455 3.34535
460 4.0739
465 3.73621
470 3.45891
475 3.34383
480 3.2944
485 3.36556
490 3.09958
495 2.99988
500 3.33533
505 2.97096
510 3.3873
515 3.11437
520 3.26952
525 4.08682
530 4.12818
535 3.97028
540 3.69331
545 3.41004
550 2.10152
555 3.25286
560 2.76323
565 3.28193
570 2.55985
575 2.40053
580 3.49215
585 3.31479
590 2.55562
595 2.19744
600 2.6625
Ex : 273
200 2.7729
205 3.27126
210 2.29593
215 2.37998
220 2.36376
225 1.93471
230 3.0095
235 2.1972
240 2.18686
245 2.83614
250 2.32312
255 2.30945
260 2.27289
265 3.1059
270 2.89518
275 2.33059
280 2.01187
285 2.01639
290 2.11452
295 2.32201
300 2.78288
305 2.2875
310 1.93851
315 1.90694
320 2.20125
325 1.74265
330 2.65182
335 2.66692
340 2.48491
345 2.88945
350 3.12454
355 3.59883
360 2.82362
365 3.05504
370 2.19796
375 3.00645
380 3.24349
385 2.90667
390 3.23039
395 2.86617
400 3.15425
405 2.68523
410 2.8577
415 2.89933
420 3.22655
425 2.92938
430 2.76327
435 3.00911
440 2.86215
445 3.20019
450 2.72513
455 3.90152
460 3.07898
465 2.47455
470 3.0217
475 2.37512
480 2.17417
485 2.94076
490 2.4749
495 2.27855
500 1.90776
505 3.17224
510 2.47812
515 2.45245
520 2.49668
525 3.68291
530 2.68724
535 3.0187
540 3.68161
545 3.63049
550 3.31694
555 2.20674
560 2.43261
565 2.4456
570 3.43994
575 2.6124
580 2.59922
585 2.05549
590 2.36556
595 3.08449
600 0.424854
Ex : 278
200 1.64247
205 2.04582
210 1.18609
215 1.73208
220 1.85158
225 2.00501
230 1.94873
235 1.6634
240 1.67504
245 2.57276
250 2.03338
255 1.98654
260 1.71778
265 1.69146
270 1.83581
275 2.27094
280 2.0239
285 2.50332
290 1.83056
295 1.85953
300 1.88008
305 1.92478
310 1.61283
315 1.63419
320 1.71794
325 2.36022
330 2.11729
335 2.7043
340 1.893
345 1.89672
350 2.04099
355 2.58373
360 2.20093
365 2.26393
370 2.12223
375 2.49883
380 2.25126
385 3.5162
390 3.55031
395 2.63867
400 2.18424
405 1.86583
410 2.33495
415 2.19212
420 2.84
425 2.56165
430 3.00823
435 2.30935
440 3.04197
445 2.31039
450 2.1249
455 2.17004
460 1.93681
465 2.35141
470 2.37835
475 2.37487
480 2.29616
485 2.02674
490 2.02602
495 2.61499
500 2.51169
505 2.10819
510 1.95048
515 1.92926
520 2.26452
525 1.68493
530 2.34654
535 2.22765
540 2.10315
545 2.93635
550 3.37186
555 2.37126
560 2.70063
565 1.9605
570 1.63784
575 1.92189
580 2.15016
585 1.84664
590 1.9707
595 2.11684
600 6.5376
Ex : 283
200 1.31177
205 1.67862
210 1.62188
215 1.42525
220 1.52942
225 1.18177
230 1.47725
235 1.88679
240 1.50966
245 2.04407
250 1.55703
255 1.57268
260 1.31259
265 1.65404
270 1.28746
275 1.52789
280 1.72869
285 1.48418
290 2.08277
295 2.23913
300 1.74629
305 1.47546
310 1.33616
315 1.40978
320 1.4438
325 1.37866
330 1.86281
335 1.67185
340 1.84457
345 2.06093
350 1.92548
355 1.88616
360 2.19658
365 2.09258
370 2.43256
375 1.87893
380 2.06075
385 1.88394
390 1.73778
395 1.64038
400 2.05877
405 1.94569
410 2.2986
415 2.35106
420 2.27316
425 1.81846
430 2.25632
435 2.8578
440 2.47692
445 2.07908
450 1.68548
455 2.13193
460 2.2814
465 2.01606
470 2.06711
475 1.81206
480 1.43666
485 1.68866
490 1.70311
495 1.78462
500 1.71124
505 1.78387
510 1.56005
515 1.60811
520 1.7237
525 1.82915
530 2.24741
535 2.78369
540 1.4466
545 1.44109
550 1.97636
555 1.82169
560 2.27183
565 2.28242
570 2.26502
575 1.97759
580 2.40753
585 1.95822
590 1.55099
595 1.45215
600 2.24783
Ex : 288
200 1.10449
205 1.26121
210 1.06782
215 1.52483
220 1.13849
225 1.29633
230 1.48593
235 1.19057
240 1.11426
245 1.32265
250 1.47597
255 1.44357
260 1.69464
265 1.1123
270 1.16343
275 1.21236
280 1.756
285 1.67231
290 1.78201
295 1.43439
300 1.52348
305 1.3419
310 0.985811
315 1.23814
320 1.14997
325 1.38098
330 1.31832
335 1.39051
340 1.79464
345 1.66521
350 1.61211
355 1.7171
360 1.55136
365 2.1912
370 2.12713
375 1.79581
380 1.53702
385 1.64385
390 2.36299
395 1.89601
400 1.51139
405 2.03042
410 2.11532
415 2.20979
420 1.77334
425 1.85721
430 2.09744
435 1.55553
440 1.57085
445 2.04437
450 1.84701
455 1.71046
460 1.82559
465 1.52762
470 1.49979
475 2.09551
480 1.88064
485 1.38438
490 1.55333
495 1.58285
500 1.5224
505 1.61059
510 1.35445
515 1.1307
520 1.5248
525 1.18562
530 1.01581
535 1.14376
540 1.47991
545 1.31555
550 1.18312
555 1.53586
560 1.60885
565 1.69296
570 1.78811
575 1.96573
580 1.50259
585 1.08389
590 1.18256
595 0.796554
600 0.337958
Ex : 293
200 0.94854
205 1.30282
210 1.36482
215 1.12603
220 1.22491
225 0.816248
230 1.02159
235 1.23404
240 1.10135
245 1.16109
250 1.31373
255 1.22143
260 0.917816
265 0.955481
270 1.04112
275 1.10867
280 1.01113
285 1.49497
290 1.34539
295 0.924266
300 0.904044
305 1.16732
310 0.912777
315 0.896421
320 1.24354
325 1.28109
330 1.42956
335 1.3967
340 1.09696
345 1.44378
350 1.37351
355 1.00928
360 1.17648
365 1.7219
370 1.81369
375 1.57109
380 1.70142
385 2.23497
390 1.46991
395 1.75831
400 1.66648
405 1.94462
410 1.81993
415 1.82092
420 1.99726
425 1.58393
430 1.9376
435 1.89286
440 1.54471
445 1.48986
450 1.67035
455 1.60776
460 1.45802
465 1.39127
470 1.479
475 1.75295
480 1.40001
485 1.41342
490 1.47432
495 1.46347
500 1.21797
505 1.15925
510 1.29635
515 1.34978
520 1.10029
525 1.11584
530 1.31012
535 1.00486
540 1.31519
545 1.15669
550 0.990355
555 1.07358
560 1.39709
565 0.832066
570 1.02636
575 1.3273
580 2.14345
585 1.74627
590 1.22491
595 1.23477
600 2.44123
Ex : 298
200 0.963052
205 0.924698
210 0.851372
215 0.80743
220 1.0395
225 0.962568
230 0.982357
235 1.08023
240 1.05143
245 1.0879
250 0.77959
255 0.859434
260 0.94605
265 0.890091
270 0.811119
275 1.11953
280 0.812549
285 0.724851
290 1.13267
295 1.53933
300 1.11462
305 1.13908
310 1.36463
315 1.04728
320 1.15488
325 1.31858
330 1.25908
335 0.774281
340 0.970726
345 1.16634
350 1.16316
355 1.12189
360 1.37646
365 1.12802
370 1.34569
375 1.51028
380 1.62669
385 1.54185
390 1.42045
395 1.37108
400 1.74039
405 1.65742
410 1.77227
415 1.4703
420 1.6065
425 1.58387
430 1.42712
435 1.46606
440 1.32742
445 1.33638
450 1.39626
455 1.31672
460 1.88111
465 1.64457
470 1.36424
475 1.12478
480 1.36796
485 1.06429
490 1.15819
495 1.22503
500 1.51369
505 1.22353
510 1.1045
515 1.06214
520 1.09705
525 1.35369
530 1.28286
535 0.967127
540 0.785973
545 1.27414
550 1.04053
555 0.900628
560 1.07912
565 1.01869
570 0.848938
575 1.00075
580 0.929951
585 1.34833
590 1.57772
595 1.40673
600 1.22964
Ex : 303
200 0.968542
205 0.804902
210 1.03463
215 1.00833
220 0.844101
225 0.789579
230 1.02013
235 0.878883
240 0.825375
245 0.708695
250 0.87496
255 0.884652
260 0.741714
265 0.954856
270 1.10804
275 0.91064
280 0.87242
285 0.714195
290 0.951758
295 1.25833
300 1.23388
305 1.11992
310 1.0481
315 0.910937
320 1.04922
325 1.30625
330 1.13626
335 1.22689
340 1.07164
345 1.31806
350 1.11488
355 1.23509
360 1.18868
365 1.30118
370 1.69136
375 1.24456
380 1.57163
385 1.51049
390 1.31714
395 1.2376
400 1.20409
405 1.476
410 1.46969
415 1.50537
420 1.47282
425 1.32113
430 1.44563
435 1.47566
440 1.33735
445 1.20798
450 1.18026
455 1.28816
460 1.44164
465 1.38035
470 1.1556
475 1.07964
480 1.14876
485 1.07947
490 1.32694
495 1.05101
500 1.00799
505 0.924258
510 0.803
515 0.940106
520 1.2062
525 0.91048
530 1.0428
535 1.00861
540 0.930826
545 0.704239
550 0.632407
555 0.697153
560 1.08361
565 0.904641
570 0.846487
575 0.988445
580 0.916867
585 1.09955
590 1.08943
595 1.05745
600 1.00654
Ex : 308
200 0.624342
205 0.65193
210 0.65211
215 0.593726
220 1.00106
225 0.82388
230 0.839841
235 0.741962
240 0.797895
245 0.586683
250 0.7062
255 0.9707
260 0.736554
265 0.835815
270 0.676606
275 0.68724
280 0.680571
285 0.600591
290 0.729765
295 0.871273
300 0.924052
305 1.35878
310 1.06316
315 0.699051
320 0.745513
325 0.71541
330 1.0264
335 0.815097
340 1.02712
345 1.05342
350 0.935601
355 0.858373
360 1.23276
365 1.5266
370 0.972021
375 1.23881
380 1.28714
385 1.27238
390 1.49088
395 1.37472
400 1.42343
405 1.32554
410 1.53445
415 1.04899
420 1.25771
425 1.31165
430 1.24862
435 1.19999
440 1.13743
445 1.42419
450 1.12208
455 1.32114
460 1.07376
465 1.18978
470 0.995897
475 1.29153
480 1.0689
485 1.11331
490 1.48039
495 0.813126
500 1.05458
505 0.87784
510 1.01801
515 0.980293
520 0.883844
525 0.764125
530 0.779972
535 0.70324
540 0.796637
545 1.00638
550 0.790683
555 0.859633
560 0.86482
565 0.958341
570 0.818733
575 0.841445
580 0.854216
585 0.64145
590 0.756173
595 0.602472
600 0.229687
Ex : 313
200 0.587899
205 0.566371
210 0.59133
215 0.560389
220 0.60817
225 0.864292
230 0.70283
235 0.529812
240 0.629749
245 0.657234
250 0.750692
255 0.564185
260 0.778382
265 0.645048
270 0.727611
275 0.623907
280 0.764815
285 0.727315
290 0.630645
295 0.597636
300 0.584533
305 1.07299
310 0.921889
315 0.917929
320 0.659065
325 0.888028
330 0.875285
335 1.0546
340 0.934504
345 1.19102
350 1.1337
355 0.881365
360 1.01714
365 1.2471
370 1.37592
375 1.27085
380 1.31771
385 1.47211
390 1.46703
395 1.36643
400 1.45119
405 1.49323
410 1.39548
415 1.27193
420 1.79441
425 1.67381
430 1.3289
435 1.23082
440 1.23629
445 1.10853
450 1.05523
455 1.31327
460 1.26637
465 1.11618
470 1.07917
475 1.04808
480 0.974905
485 0.979018
490 0.983287
495 0.993434
500 0.819916
505 0.840572
510 0.84179
515 0.745708
520 0.983586
525 0.907239
530 0.607261
535 0.804987
540 0.756868
545 0.649209
550 0.685196
555 0.877926
560 0.706847
565 0.83355
570 0.579539
575 0.769146
580 0.892231
585 1.02869
590 0.658522
595 0.800769
600 0.0911244
Ex : 318
200 0.515069
205 0.525198
210 0.690934
215 0.620048
220 0.680222
225 0.677265
230 0.720099
235 0.662927
240 0.551779
245 0.628429
250 0.651047
255 0.48205
260 0.654931
265 0.809451
270 0.597635
275 0.588686
280 0.75513
285 0.565345
290 0.507436
295 0.556165
300 0.718243
305 0.714957
310 0.882228
315 1.26715
320 0.960512
325 0.851124
330 1.32617
335 1.2616
340 1.41269
345 1.92598
350 2.26243
355 2.79593
360 2.8977
365 3.78807
370 3.96233
375 4.57439
380 5.25579
385 5.63913
390 5.93366
395 6.66153
400 6.47966
405 6.61781
410 6.96815
415 7.39485
420 6.23662
425 6.02341
430 5.95796
435 5.66611
440 5.60787
445 5.31648
450 4.9008
455 4.95925
460 4.48463
465 4.29849
470 3.55621
475 3.59779
480 3.18997
485 3.06258
490 2.75204
495 2.68073
500 2.35569
505 2.09718
510 1.89756
515 1.76035
520 1.56821
525 1.24561
530 1.38811
535 1.29138
540 1.23638
545 1.04007
550 0.99433
555 0.836479
560 0.801824
565 0.898558
570 0.657253
575 0.810826
580 0.775338
585 0.700369
590 0.615487
595 0.519059
600 0.0590669
Ex : 323
200 0.637969
205 0.663203
210 0.691694
215 0.681984
220 0.579941
225 0.524274
230 0.666084
235 0.523429
240 0.518829
245 0.587847
250 0.464308
255 0.578866
260 0.717829
265 0.490612
270 0.451225
275 0.520398
280 0.682214
285 0.650257
290 0.4523
295 0.592864
300 0.49833
305 0.449741
310 0.647579
315 5.24164
320 24.3884
325 11.2047
330 3.52211
335 3.55989
340 4.58819
345 6.22066
350 8.18459
355 10.9327
360 13.694
365 16.3378
370 19.2329
375 21.9027
380 24.5061
385 27.1918
390 29.8758
395 31.514
400 32.8299
405 33.8081
410 34.7889
415 34.2761
420 33.1512
425 31.9036
430 30.7179
435 29.9647
440 28.7111
445 26.6764
450 24.6445
455 23.4508
460 21.7029
465 20.3847
470 18.9421
475 17.2587
480 15.2545
485 13.7955
490 12.6694
495 10.9218
500 10.7801
505 8.58477
510 7.9734
515 7.05858
520 5.83418
525 5.52564
530 4.74994
535 4.17587
540 3.553
545 3.02462
550 2.81461
555 2.39104
560 2.14488
565 1.84106
570 1.45722
575 1.37527
580 1.20993
585 0.994382
590 1.03518
595 0.906568
600 0.769849
Ex : 328
200 0.489093
205 0.634782
210 0.566159
215 0.364572
220 0.480108
225 0.61012
230 0.558388
235 0.508785
240 0.699276
245 0.593459
250 0.548738
255 0.319183
260 0.364466
265 0.455334
270 0.508992
275 0.564958
280 0.455099
285 0.561231
290 0.556161
295 0.677805
300 0.506021
305 0.593224
310 0.591327
315 1.95007
320 67.6718
325 175.292
330 53.2353
335 10.3305
340 7.29763
345 8.94519
350 10.687
355 14.8251
360 19.8838
365 22.9264
370 25.7929
375 28.4079
380 32.3949
385 36.6494
390 39.0204
395 41.8743
400 43.0743
405 44.0556
410 44.6703
415 44.1314
420 43.4881
425 42.584
430 41.4491
435 38.5634
440 36.5557
445 33.8513
450 32.8746
455 30.2881
460 28.677
465 26.8229
470 24.24
475 21.8994
480 20.6068
485 18.4105
490 16.7029
495 14.4146
500 13.2535
505 11.7987
510 10.3414
515 8.70538
520 7.73407
525 6.65807
530 5.95476
535 5.14302
540 4.88413
545 3.94049
550 3.63441
555 3.21407
560 2.70943
565 2.6239
570 2.34649
575 1.9155
580 1.66052
585 1.27667
590 1.05486
595 1.01122
600 0.671696
Ex : 333
200 0.609029
205 0.519318
210 0.538974
215 0.622122
220 0.495971
225 0.501007
230 0.644957
235 0.48579
240 0.492407
245 0.513298
250 0.588382
255 0.617684
260 0.513718
265 0.586066
270 0.472224
275 0.567849
280 0.514829
285 0.575797
290 0.696126
295 0.738505
300 0.624256
305 0.531747
310 0.717415
315 0.845326
320 11.3635
325 226.832
330 397.336
335 104.594
340 17.0638
345 7.79357
350 7.86737
355 8.83497
360 12.5322
365 17.1997
370 17.9911
375 18.0598
380 19.7491
385 22.3394
390 24.0937
395 25.7244
400 26.8886
405 27.5596
410 27.1429
415 26.7102
420 26.0638
425 25.2065
430 23.9142
435 23.9603
440 22.4998
445 21.2837
450 20.0319
455 18.0472
460 17.068
465 15.7646
470 14.2872
475 13.2217
480 12.1591
485 11.1223
490 10.2791
495 9.56584
500 7.95793
505 7.05183
510 6.05258
515 5.96793
520 5.29155
525 4.36206
530 3.78991
535 3.4883
540 2.81644
545 2.70781
550 2.42524
555 2.20567
560 2.07424
565 1.73736
570 1.57348
575 1.38656
580 1.17707
585 0.966753
590 0.941247
595 0.835723
600 1.90159
Ex : 338
200 0.419025
205 0.50669
210 0.529127
215 0.472751
220 0.413841
225 0.412812
230 0.428686
235 0.418084
240 0.445767
245 0.475723
250 0.354589
255 0.455179
260 0.699213
265 0.483566
270 0.485662
275 0.600565
280 0.507634
285 0.455267
290 0.518935
295 0.573227
300 0.632665
305 0.652802
310 0.673366
315 0.66147
320 0.766389
325 22.6137
330 365.855
335 535.731
340 130.197
345 18.3967
350 7.04096
355 5.59778
360 5.30064
365 7.47902
370 11.7923
375 12.1681
380 11.1494
385 11.8652
390 12.6022
395 13.1842
400 13.3703
405 14.1111
410 14.4844
415 15.1412
420 14.5977
425 13.2413
430 12.8001
435 12.675
440 12.5747
445 11.9801
450 10.1642
455 10.142
460 8.9003
465 8.66897
470 8.14197
475 7.42501
480 6.88645
485 6.12687
490 5.57608
495 5.0272
500 4.43589
505 4.20762
510 3.76883
515 3.45072
520 3.02054
525 2.80617
530 2.7081
535 2.1484
540 2.10076
545 1.91217
550 1.8022
555 1.7679
560 1.50431
565 1.25551
570 1.03178
575 1.02185
580 0.987637
585 0.798753
590 0.887954
595 0.70143
600 0.647739
Ex : 343
200 0.335434
205 0.395666
210 0.346326
215 0.377497
220 0.368499
225 0.504932
230 0.330786
235 0.446059
240 0.462562
245 0.416551
250 0.435202
255 0.317591
260 0.394554
265 0.491369
270 0.379175
275 0.505504
280 0.572449
285 0.433739
290 0.572741
295 0.583277
300 0.407042
305 0.518024
310 0.479675
315 0.541495
320 0.735822
325 0.881345
330 27.3735
335 425.644
340 614.705
345 144.449
350 19.6519
355 5.80812
360 4.31199
365 3.24153
370 4.57182
375 8.72603
380 10.3192
385 8.85135
390 9.1978
395 9.22799
400 9.10531
405 10.0341
410 10.7943
415 11.4826
420 10.495
425 10.2096
430 9.32489
435 9.5841
440 9.35838
445 8.56651
450 8.26567
455 7.37831
460 6.96526
465 6.51049
470 6.15861
475 5.96013
480 5.47249
485 4.99437
490 4.55004
495 4.16184
500 3.9461
505 3.35327
510 3.13884
515 2.99852
520 2.78114
525 2.55049
530 2.27334
535 2.00335
540 1.77466
545 1.48767
550 1.41133
555 1.43253
560 1.33641
565 1.22485
570 1.0271
575 1.20142
580 0.967904
585 0.786262
590 0.714781
595 0.788246
600 0.697878
Ex : 348
200 0.453085
205 0.349902
210 0.454388
215 0.4355
220 0.375738
225 0.35847
230 0.355893
235 0.428014
240 0.286726
245 0.396721
250 0.362314
255 0.389236
260 0.478397
265 0.359434
270 0.38074
275 0.395342
280 0.354123
285 0.414881
290 0.584359
295 0.444561
300 0.431713
305 0.419168
310 0.494299
315 0.669981
320 0.612404
325 0.767584
330 1.15657
335 28.0132
340 428.052
345 633.925
350 158.923
355 20.907
360 5.454
365 3.61208
370 2.82742
375 3.10935
380 7.75351
385 11.6713
390 10.7576
395 10.1861
400 9.00568
405 9.38493
410 11.1642
415 11.6717
420 11.26
425 10.643
430 9.98948
435 10.12
440 10.0852
445 9.69853
450 8.33262
455 7.8763
460 7.31589
465 6.75668
470 6.37473
475 6.44428
480 5.57388
485 4.71495
490 4.67533
495 4.22829
500 3.8548
505 3.55307
510 3.49668
515 2.80767
520 2.46577
525 2.19308
530 2.19025
535 1.76744
540 1.82243
545 1.68969
550 1.52914
555 1.45104
560 1.15071
565 1.23269
570 0.967467
575 0.905853
580 0.785687
585 0.844742
590 0.649303
595 0.695806
600 0.591683
Ex : 353
200 0.410896
205 0.41501
210 0.529488
215 0.392064
220 0.334513
225 0.310299
230 0.456389
235 0.388921
240 0.380034
245 0.26904
250 0.416009
255 0.359883
260 0.40263
265 0.353095
270 0.356025
275 0.333995
280 0.378719
285 0.289369
290 0.397118
295 0.353908
300 0.388757
305 0.408178
310 0.562495
315 0.506407
320 0.608536
325 0.640416
330 0.758406
335 1.23441
340 28.3631
345 439.615
350 620.799
355 150.02
360 19.5031
365 4.85944
370 3.20479
375 2.61238
380 3.39124
385 7.58364
390 13.2618
395 12.4421
400 10.327
405 9.50363
410 11.6617
415 13.1345
420 12.6072
425 11.3638
430 10.491
435 9.96617
440 10.6698
445 10.0253
450 9.51486
455 8.61601
460 7.57594
465 7.19626
470 6.80796
475 6.31136
480 5.82231
485 5.12845
490 4.63944
495 4.5427
500 4.05379
505 3.70476
510 3.26017
515 2.96563
520 2.6502
525 2.39086
530 2.27721
535 2.02777
540 1.65058
545 1.68936
550 1.3674
555 1.47796
560 1.32082
565 1.08649
570 0.987974
575 0.895697
580 0.882051
585 0.716334
590 0.604543
595 0.610003
600 0.53431
Ex : 358
200 0.340093
205 0.31409
210 0.333302
215 0.371183
220 0.324303
225 0.304534
230 0.228066
235 0.298774
240 0.359658
245 0.383215
250 0.363541
255 0.398959
260 0.457258
265 0.29941
270 0.293521
275 0.405269
280 0.502401
285 0.384587
290 0.274697
295 0.283138
300 0.414699
305 0.447518
310 0.367725
315 0.372757
320 0.508288
325 0.521097
330 0.693039
335 0.721313
340 1.18352
345 27.5162
350 415.587
355 622.438
360 153.298
365 20.0871
370 4.766
375 3.49037
380 3.37487
385 4.7827
390 8.92756
395 12.7092
400 11.9767
405 10.4624
410 11.1113
415 12.1764
420 11.9908
425 10.801
430 9.99455
435 10.2607
440 10.3003
445 9.5442
450 9.41347
455 8.23846
460 7.74434
465 7.18771
470 7.09651
475 6.23806
480 5.87992
485 5.19882
490 5.09723
495 4.3014
500 4.15579
505 3.84991
510 3.25866
515 2.7487
520 2.79842
525 2.65428
530 2.12089
535 1.76358
540 1.90172
545 1.69121
550 1.61166
555 1.41898
560 1.25008
565 1.20205
570 1.08203
575 0.931495
580 0.755862
585 0.754675
590 0.656099
595 0.545563
600 1.55584
Ex : 363
200 0.259542
205 0.387667
210 0.328053
215 0.380726
220 0.269785
225 0.233802
230 0.434069
235 0.309862
240 0.236442
245 0.338358
250 0.339587
255 0.289702
260 0.312231
265 0.40923
270 0.397896
275 0.409747
280 0.278418
285 0.317074
290 0.390359
295 0.327986
300 0.387176
305 0.405675
310 0.398134
315 0.359504
320 0.392639
325 0.430236
330 0.472001
335 0.740266
340 0.794209
345 1.14807
350 25.3755
355 400.89
360 613.754
365 155.134
370 20.1361
375 4.77491
380 4.42463
385 6.08557
390 7.8226
395 9.22326
400 12.2956
405 14.0529
410 13.8299
415 14.081
420 12.8425
425 11.9437
430 11.1509
435 11.3073
440 11.3912
445 11.1846
450 10.0979
455 9.07787
460 8.69973
465 8.05133
470 7.72358
475 7.00984
480 6.5541
485 5.84722
490 5.487
495 4.9178
500 4.522
505 4.10369
510 3.60169
515 3.28344
520 2.85771
525 2.51508
530 2.1725
535 2.05592
540 1.79206
545 1.73985
550 1.5458
555 1.41625
560 1.22957
565 1.11849
570 1.10821
575 0.829025
580 0.744876
585 0.612288
590 0.57863
595 0.602671
600 0.820899
Ex : 368
200 0.413911
205 0.320981
210 0.38452
215 0.364619
220 0.370469
225 0.431702
230 0.270774
235 0.275418
240 0.309489
245 0.356796
250 0.294767
255 0.278126
260 0.306149
265 0.317507
270 0.377459
275 0.319254
280 0.320042
285 0.385423
290 0.371828
295 0.265303
300 0.317608
305 0.333998
310 0.330901
315 0.322359
320 0.313061
325 0.445396
330 0.500068
335 0.431414
340 0.601863
345 0.776757
350 1.07973
355 20.1761
360 381.192
365 620.392
370 162.637
375 21.0791
380 5.98811
385 7.04394
390 9.61453
395 10.0678
400 10.0094
405 14.0724
410 17.6667
415 17.5836
420 16.2379
425 13.8262
430 12.5706
435 13.1295
440 13.4189
445 12.8775
450 11.5222
455 10.4839
460 9.2819
465 8.83883
470 8.39838
475 7.43937
480 7.19458
485 6.24952
490 5.71459
495 5.14482
500 4.58115
505 4.22317
510 3.77119
515 3.35954
520 2.88401
525 2.80795
530 2.41432
535 2.30536
540 1.89932
545 1.88116
550 1.59626
555 1.44192
560 1.35333
565 1.17975
570 0.919245
575 0.808614
580 0.794987
585 0.676651
590 0.605915
595 0.443077
600 0.423977
Ex : 373
200 0.383191
205 0.337922
210 0.281586
215 0.24221
220 0.253402
225 0.268617
230 0.297796
235 0.302653
240 0.301039
245 0.271572
250 0.305372
255 0.22441
260 0.319422
265 0.2807
270 0.374951
275 0.247387
280 0.288367
285 0.316082
290 0.29276
295 0.272773
300 0.290135
305 0.334069
310 0.442879
315 0.340811
320 0.31546
325 0.262534
330 0.358837
335 0.452468
340 0.441833
345 0.613288
350 0.724328
355 1.00609
360 23.8849
365 385.718
370 610.596
375 158.723
380 21.2081
385 7.48749
390 9.05397
395 10.4599
400 9.64474
405 9.84546
410 14.4509
415 18.8747
420 16.7492
425 13.967
430 11.9978
435 11.9233
440 11.8711
445 11.7486
450 10.557
455 9.69134
460 8.55676
465 8.25916
470 7.95149
475 7.67217
480 6.69678
485 5.97468
490 5.55693
495 4.76473
500 4.4231
505 4.31977
510 3.87169
515 3.31346
520 3.05236
525 2.6056
530 2.38802
535 2.10738
540 1.8657
545 1.67147
550 1.51746
555 1.3941
560 1.13657
565 1.13821
570 1.01837
575 0.842109
580 0.708143
585 0.528083
590 0.530654
595 0.475054
600 1.01253
Ex : 378
200 0.312282
205 0.258039
210 0.291975
215 0.276189
220 0.263085
225 0.298703
230 0.270824
235 0.330652
240 0.345387
245 0.231862
250 0.242094
255 0.331693
260 0.273743
265 0.290252
270 0.256727
275 0.285996
280 0.365143
285 0.304742
290 0.30601
295 0.258164
300 0.213907
305 0.27387
310 0.29257
315 0.356574
320 0.37988
325 0.382982
330 0.390715
335 0.377243
340 0.435062
345 0.407388
350 0.564161
355 0.597516
360 1.01116
365 21.5939
370 381.66
375 611.015
380 160.123
385 22.9318
390 8.99415
395 8.23565
400 7.75568
405 7.41437
410 9.72191
415 12.5278
420 15.3159
425 12.9857
430 10.5064
435 10.0533
440 9.91258
445 9.60793
450 8.84961
455 7.99369
460 7.1915
465 7.00093
470 6.91138
475 6.59875
480 5.82819
485 5.44067
490 4.98244
495 4.54255
500 4.20735
505 3.81457
510 3.55705
515 3.04705
520 2.961
525 2.64034
530 2.42707
535 2.08437
540 1.89313
545 1.68457
550 1.45569
555 1.3885
560 1.2163
565 1.1529
570 1.01913
575 0.783731
580 0.803158
585 0.611728
590 0.539968
595 0.522126
600 0.225129
Ex : 383
200 0.29237
205 0.308222
210 0.239876
215 0.256876
220 0.265658
225 0.27387
230 0.271806
235 0.299647
240 0.301521
245 0.266779
250 0.317147
255 0.239533
260 0.281547
265 0.403547
270 0.273096
275 0.222219
280 0.235137
285 0.299347
290 0.265309
295 0.235754
300 0.30329
305 0.247745
310 0.247189
315 0.360065
320 0.351651
325 0.342024
330 0.293785
335 0.353445
340 0.300951
345 0.403089
350 0.490174
355 0.609502
360 0.719486
365 0.970723
370 19.744
375 374.137
380 631.919
385 168.133
390 26.0363
395 9.60092
400 7.45534
405 8.64952
410 9.70028
415 11.1443
420 11.5183
425 12.9651
430 12.6283
435 11.3104
440 11.213
445 10.0993
450 9.41984
455 8.71488
460 7.92233
465 7.66621
470 7.36848
475 6.6546
480 6.43336
485 5.69473
490 5.32589
495 4.80205
500 4.38221
505 4.13586
510 3.71459
515 3.26819
520 2.99417
525 2.60109
530 2.55454
535 2.22897
540 1.93576
545 1.77877
550 1.73646
555 1.52865
560 1.40084
565 1.12387
570 0.89445
575 0.931218
580 0.759656
585 0.639949
590 0.589603
595 0.463118
600 1.11199
Ex : 388
200 0.245037
205 0.203192
210 0.250528
215 0.273234
220 0.319679
225 0.249759
230 0.30991
235 0.25171
240 0.232082
245 0.23303
250 0.309911
255 0.214829
260 0.297377
265 0.231641
270 0.237757
275 0.248706
280 0.260192
285 0.233234
290 0.252753
295 0.278693
300 0.29704
305 0.255453
310 0.258764
315 0.23449
320 0.245559
325 0.293965
330 0.307757
335 0.371924
340 0.33239
345 0.360772
350 0.409069
355 0.473596
360 0.54707
365 0.706136
370 1.08408
375 22.2363
380 382.871
385 623.2
390 168.63
395 27.6259
400 10.4517
405 10.0194
410 11.7286
415 13.5759
420 13.1376
425 11.6895
430 13.6364
435 14.7314
440 13.4447
445 11.8331
450 10.5151
455 9.26068
460 8.3791
465 8.13969
470 7.96367
475 7.25078
480 6.37299
485 6.18531
490 5.65416
495 5.03316
500 4.67798
505 4.30282
510 3.84615
515 3.50907
520 2.84267
525 2.72896
530 2.40597
535 2.24705
540 1.98098
545 1.88345
550 1.77478
555 1.33102
560 1.15203
565 1.08113
570 0.980194
575 0.765379
580 0.709729
585 0.492085
590 0.635973
595 0.508623
600 0.194475
Ex : 393
200 0.219897
205 0.243931
210 0.257319
215 0.24758
220 0.273347
225 0.330439
230 0.197544
235 0.238831
240 0.235849
245 0.233127
250 0.257676
255 0.204931
260 0.234071
265 0.235629
270 0.243964
275 0.276087
280 0.214357
285 0.218709
290 0.258176
295 0.240384
300 0.230861
305 0.245987
310 0.244206
315 0.236111
320 0.262779
325 0.250488
330 0.224222
335 0.291663
340 0.239505
345 0.315594
350 0.357375
355 0.430498
360 0.454608
365 0.542543
370 0.637061
375 1.01565
380 19.4038
385 375.903
390 628.66
395 173.155
400 27.727
405 10.7358
410 10.9475
415 13.1705
420 13.0362
425 10.9604
430 9.70191
435 11.3503
440 14.284
445 12.564
450 10.4314
455 8.60097
460 7.52203
465 7.21494
470 7.12744
475 6.54881
480 6.03237
485 5.51602
490 5.10057
495 4.64869
500 4.37721
505 3.90941
510 3.49998
515 3.12766
520 2.994
525 2.63703
530 2.38205
535 2.1031
540 1.82423
545 1.8775
550 1.61952
555 1.41919
560 1.31352
565 1.127
570 0.979485
575 0.839577
580 0.700961
585 0.584979
590 0.54838
595 0.499667
600 0.567289
Ex : 398
200 0.160276
205 0.192807
210 0.226599
215 0.243929
220 0.206863
225 0.191506
230 0.196587
235 0.228672
240 0.228661
245 0.205083
250 0.264632
255 0.241823
260 0.243704
265 0.264269
270 0.251606
275 0.194109
280 0.262902
285 0.203634
290 0.258306
295 0.334363
300 0.222597
305 0.31363
310 0.271689
315 0.252039
320 0.254753
325 0.265799
330 0.240192
335 0.239167
340 0.312106
345 0.308112
350 0.379156
355 0.43711
360 0.347285
365 0.455193
370 0.454938
375 0.627997
380 1.07155
385 20.0833
390 379.535
395 631.874
400 170.213
405 24.602
410 8.87975
415 8.70759
420 8.97701
425 7.88319
430 6.77427
435 6.89768
440 8.21559
445 10.7035
450 9.72793
455 7.63665
460 6.56401
465 6.12828
470 5.81682
475 5.34248
480 5.07688
485 4.75956
490 4.56202
495 4.27844
500 3.92817
505 3.73524
510 3.19152
515 2.99568
520 2.69149
525 2.52506
530 2.22129
535 1.91232
540 1.74785
545 1.69755
550 1.45707
555 1.24946
560 1.12071
565 1.03172
570 0.991914
575 0.819015
580 0.656118
585 0.632342
590 0.512973
595 0.425323
600 0.66515
Ex : 403
200 0.312193
205 0.164694
210 0.211838
215 0.20537
220 0.188442
225 0.293607
230 0.218716
235 0.2225
240 0.204814
245 0.219646
250 0.257084
255 0.194954
260 0.238251
265 0.318633
270 0.251779
275 0.254343
280 0.190975
285 0.231739
290 0.284341
295 0.214817
300 0.2102
305 0.212716
310 0.231378
315 0.238581
320 0.272373
325 0.275948
330 0.275027
335 0.31315
340 0.328648
345 0.235342
350 0.304486
355 0.31566
360 0.352974
365 0.366932
370 0.473561
375 0.55232
380 0.703541
385 1.24182
390 22.1588
395 383.283
400 622.501
405 166.551
410 23.641
415 8.02132
420 6.32965
425 6.00381
430 5.34115
435 5.50706
440 5.67158
445 6.42975
450 8.62145
455 8.55229
460 6.66922
465 5.96431
470 5.31127
475 5.15032
480 4.94526
485 4.7585
490 4.21417
495 4.14735
500 3.6864
505 3.39859
510 3.25467
515 2.70343
520 2.56794
525 2.27804
530 2.07926
535 2.07861
540 1.73743
545 1.64599
550 1.43678
555 1.31803
560 1.26236
565 0.992474
570 0.993393
575 0.770046
580 0.673996
585 0.581728
590 0.491016
595 0.534446
600 0.628589
Ex : 408
200 0.251248
205 0.185944
210 0.214943
215 0.186068
220 0.22454
225 0.249132
230 0.181626
235 0.193336
240 0.234285
245 0.258891
250 0.23274
255 0.260244
260 0.273875
265 0.22507
270 0.212227
275 0.252821
280 0.230778
285 0.252136
290 0.220539
295 0.262002
300 0.197709
305 0.211075
310 0.211622
315 0.279246
320 0.226553
325 0.262068
330 0.266621
335 0.224869
340 0.264478
345 0.226297
350 0.312344
355 0.279954
360 0.298402
365 0.391324
370 0.396703
375 0.412927
380 0.506864
385 0.705108
390 1.25844
395 20.4294
400 387.061
405 623.796
410 162.969
415 24.1634
420 8.12478
425 6.12302
430 5.91025
435 6.1531
440 6.20243
445 6.59048
450 6.32151
455 7.90218
460 8.66604
465 7.2966
470 6.16644
475 5.73832
480 4.91718
485 4.49613
490 4.32532
495 4.16236
500 3.73074
505 3.44213
510 3.15842
515 2.9949
520 2.76176
525 2.45988
530 2.07026
535 2.02934
540 1.75563
545 1.5273
550 1.45315
555 1.37201
560 1.28511
565 1.072
570 0.919158
575 0.860655
580 0.681672
585 0.627743
590 0.559287
595 0.413761
600 0.357405
Ex : 413
200 0.172224
205 0.19498
210 0.233928
215 0.188986
220 0.211905
225 0.182762
230 0.174295
235 0.233444
240 0.2408
245 0.226045
250 0.159569
255 0.239268
260 0.198532
265 0.24257
270 0.247053
275 0.247385
280 0.206662
285 0.226763
290 0.255244
295 0.220822
300 0.204874
305 0.263532
310 0.241384
315 0.232681
320 0.24391
325 0.243898
330 0.241313
335 0.331316
340 0.250262
345 0.249977
350 0.248524
355 0.311256
360 0.35175
365 0.353593
370 0.348888
375 0.446474
380 0.476773
385 0.532278
390 0.665748
395 1.06212
400 23.055
405 396.767
410 619.709
415 157.085
420 22.7145
425 6.85376
430 5.2254
435 5.87715
440 5.89801
445 5.85219
450 5.51512
455 5.24444
460 6.4326
465 8.26548
470 6.95953
475 5.7514
480 5.26108
485 4.4391
490 3.80255
495 3.86006
500 3.52968
505 3.30843
510 3.08808
515 2.75769
520 2.52872
525 2.32495
530 2.07981
535 2.0135
540 1.77834
545 1.59523
550 1.52349
555 1.34233
560 1.2396
565 1.1509
570 0.93878
575 0.759407
580 0.65934
585 0.506871
590 0.432447
595 0.348235
600 0.560236
Ex : 418
200 0.272078
205 0.201847
210 0.201737
215 0.190118
220 0.23098
225 0.181417
230 0.278449
235 0.207231
240 0.221262
245 0.205724
250 0.206326
255 0.200149
260 0.225513
265 0.224124
270 0.206106
275 0.187437
280 0.237521
285 0.198767
290 0.250374
295 0.28629
300 0.213589
305 0.271131
310 0.221931
315 0.241829
320 0.207403
325 0.195199
330 0.270806
335 0.256034
340 0.23982
345 0.325696
350 0.311508
355 0.246259
360 0.289008
365 0.252387
370 0.300451
375 0.388448
380 0.385482
385 0.413805
390 0.528822
395 0.794748
400 1.00858
405 21.9187
410 384.511
415 614.111
420 161.94
425 21.7214
430 5.29541
435 3.73972
440 3.88764
445 4.17534
450 3.49715
455 3.48455
460 3.52006
465 4.10291
470 6.2157
475 5.90344
480 4.44819
485 3.98077
490 3.36192
495 2.90068
500 2.92176
505 2.78114
510 2.62503
515 2.38169
520 2.16241
525 2.09483
530 1.74239
535 1.64959
540 1.68124
545 1.51381
550 1.27032
555 1.22512
560 1.03232
565 0.948469
570 0.865614
575 0.810936
580 0.630166
585 0.520935
590 0.462893
595 0.361008
600 0.905457
Ex : 423
200 0.311336
205 0.229425
210 0.276498
215 0.328495
220 0.269917
225 0.229481
230 0.180735
235 0.214746
240 0.256444
245 0.245379
250 0.238894
255 0.238684
260 0.186537
265 0.214816
270 0.275012
275 0.21149
280 0.195944
285 0.245574
290 0.227519
295 0.219957
300 0.28437
305 0.19942
310 0.216767
315 0.275112
320 0.24645
325 0.227229
330 0.252925
335 0.239547
340 0.286216
345 0.250167
350 0.292816
355 0.260405
360 0.282005
365 0.324191
370 0.315258
375 0.297273
380 0.292128
385 0.312487
390 0.461267
395 0.592261
400 0.717553
405 1.22719
410 22.0035
415 393.125
420 605.951
425 148.642
430 19.0506
435 4.36001
440 2.54092
445 2.68619
450 2.60654
455 2.16693
460 2.17102
465 2.30738
470 2.89145
475 4.92078
480 5.43955
485 3.9607
490 3.35403
495 2.8526
500 2.5616
505 2.38524
510 2.28161
515 2.03818
520 2.01084
525 1.90951
530 1.73587
535 1.5197
540 1.46967
545 1.39704
550 1.25373
555 1.1718
560 0.932201
565 0.946522
570 0.872257
575 0.813929
580 0.587317
585 0.516707
590 0.4293
595 0.46279
600 0.277823
Ex : 428
200 0.21991
205 0.179035
210 0.233296
215 0.297961
220 0.225399
225 0.223252
230 0.277805
235 0.169483
240 0.265239
245 0.24798
250 0.191174
255 0.276208
260 0.239853
265 0.206921
270 0.221729
275 0.28369
280 0.212191
285 0.19691
290 0.184958
295 0.203671
300 0.191669
305 0.265053
310 0.246327
315 0.259124
320 0.238199
325 0.214822
330 0.27776
335 0.284942
340 0.23841
345 0.26219
350 0.296455
355 0.249549
360 0.24499
365 0.319535
370 0.293349
375 0.366443
380 0.323752
385 0.30603
390 0.343203
395 0.539345
400 0.568688
405 0.726548
410 1.11454
415 23.2757
420 391.689
425 599.331
430 152.987
435 19.3358
440 3.88997
445 2.04611
450 2.01931
455 2.21183
460 1.81951
465 1.86462
470 1.97192
475 2.21864
480 3.64455
485 4.81183
490 3.64743
495 3.01323
500 2.61332
505 2.26978
510 2.08293
515 1.91547
520 1.94752
525 1.91501
530 1.61439
535 1.53651
540 1.42548
545 1.41937
550 1.29684
555 1.10876
560 1.01935
565 0.900803
570 0.861324
575 0.785096
580 0.532693
585 0.547255
590 0.462009
595 0.436432
600 0.448159
Ex : 433
200 0.278133
205 0.219237
210 0.225795
215 0.229469
220 0.249414
225 0.1975
230 0.212957
235 0.249823
240 0.296736
245 0.229334
250 0.227969
255 0.233449
260 0.236907
265 0.259541
270 0.214474
275 0.262919
280 0.198489
285 0.259812
290 0.1944
295 0.185208
300 0.264777
305 0.253319
310 0.252608
315 0.211783
320 0.292695
325 0.226752
330 0.317021
335 0.241409
340 0.248152
345 0.247727
350 0.213423
355 0.290863
360 0.278973
365 0.311806
370 0.284818
375 0.29695
380 0.303872
385 0.313749
390 0.376908
395 0.402633
400 0.418484
405 0.543653
410 0.686872
415 1.04118
420 25.3297
425 412.12
430 603.783
435 147.648
440 18.581
445 3.69862
450 1.95843
455 1.87773
460 2.06427
465 1.89083
470 1.85833
475 1.83219
480 2.02553
485 2.99042
490 4.63909
495 3.98819
500 2.95446
505 2.54704
510 2.1221
515 1.95084
520 1.74927
525 1.65875
530 1.76816
535 1.50265
540 1.34482
545 1.27162
550 1.24191
555 1.12839
560 1.0411
565 0.900609
570 0.814081
575 0.647817
580 0.583413
585 0.487185
590 0.5157
595 0.454861
600 0.475203
Ex : 438
200 0.219796
205 0.229582
210 0.224357
215 0.256082
220 0.23785
225 0.308585
230 0.188665
235 0.180872
240 0.256184
245 0.238355
250 0.281206
255 0.302121
260 0.252
265 0.278475
270 0.23033
275 0.227146
280 0.307995
285 0.257928
290 0.250143
295 0.223524
300 0.17847
305 0.206867
310 0.227518
315 0.221701
320 0.300295
325 0.255705
330 0.251101
335 0.306735
340 0.208676
345 0.223668
350 0.273011
355 0.250668
360 0.280283
365 0.257362
370 0.244128
375 0.242623
380 0.257456
385 0.380794
390 0.357848
395 0.28783
400 0.41742
405 0.533152
410 0.609211
415 0.682267
420 0.95064
425 24.6351
430 400.126
435 625.85
440 153.177
445 19.3093
450 3.8239
455 1.84121
460 1.94972
465 2.08891
470 1.8327
475 1.76758
480 1.57394
485 1.93608
490 2.32226
495 4.06095
500 4.24478
505 2.83682
510 2.46807
515 2.12124
520 1.89226
525 1.67249
530 1.54741
535 1.58684
540 1.42368
545 1.26892
550 1.24979
555 1.05771
560 1.00267
565 0.931604
570 0.779591
575 0.70954
580 0.652007
585 0.520698
590 0.482855
595 0.473692
600 0.269467
Ex : 443
200 0.198018
205 0.187579
210 0.175613
215 0.216934
220 0.28252
225 0.242757
230 0.249541
235 0.298341
240 0.255934
245 0.255875
250 0.260197
255 0.224435
260 0.167899
265 0.220823
270 0.249899
275 0.16467
280 0.231296
285 0.253433
290 0.245979
295 0.219715
300 0.217998
305 0.254266
310 0.254404
315 0.232419
320 0.219073
325 0.209449
330 0.226731
335 0.24151
340 0.294655
345 0.2748
350 0.278196
355 0.242992
360 0.258642
365 0.238076
370 0.240305
375 0.256041
380 0.29855
385 0.315131
390 0.310829
395 0.38157
400 0.387768
405 0.397648
410 0.573151
415 0.566304
420 0.616331
425 0.943587
430 26.2697
435 422.607
440 618.993
445 150.256
450 18.8422
455 3.81364
460 1.89177
465 1.95461
470 2.01927
475 1.8973
480 1.55583
485 1.73384
490 1.7569
495 1.90169
500 3.2523
505 4.20354
510 2.87692
515 2.28807
520 2.03525
525 1.76361
530 1.61808
535 1.47971
540 1.29221
545 1.36265
550 1.22727
555 1.18271
560 0.922616
565 0.859352
570 0.787993
575 0.714154
580 0.597152
585 0.512328
590 0.432079
595 0.488448
600 0.359162
Ex : 448
200 0.197541
205 0.170483
210 0.256679
215 0.189844
220 0.222109
225 0.229296
230 0.208879
235 0.191542
240 0.242155
245 0.189823
250 0.237339
255 0.324686
260 0.265906
265 0.236345
270 0.167054
275 0.255714
280 0.224703
285 0.224924
290 0.194213
295 0.193853
300 0.292193
305 0.256276
310 0.210014
315 0.315632
320 0.220332
325 0.225494
330 0.237927
335 0.257855
340 0.239798
345 0.267001
350 0.305886
355 0.289529
360 0.309136
365 0.313278
370 0.226136
375 0.221232
380 0.343111
385 0.300977
390 0.353057
395 0.356104
400 0.336431
405 0.368479
410 0.37878
415 0.554562
420 0.625815
425 0.653536
430 1.013
435 26.5206
440 438.035
445 641.778
450 154.851
455 19.5479
460 3.89501
465 1.89647
470 1.89637
475 2.04571
480 1.78569
485 1.64562
490 1.5796
495 1.58315
500 1.78261
505 2.49999
510 3.94245
515 3.24728
520 2.24075
525 2.03466
530 1.91617
535 1.61315
540 1.34193
545 1.29846
550 1.11171
555 1.1213
560 1.05485
565 0.76183
570 0.791162
575 0.813242
580 0.584083
585 0.539074
590 0.434575
595 0.409414
600 0.323719
Ex : 453
200 0.162503
205 0.246679
210 0.23163
215 0.155171
220 0.2224
225 0.222189
230 0.228676
235 0.20902
240 0.240661
245 0.217958
250 0.194761
255 0.188753
260 0.227768
265 0.251219
270 0.213552
275 0.177906
280 0.236046
285 0.206203
290 0.213332
295 0.293094
300 0.206204
305 0.176899
310 0.266993
315 0.245143
320 0.177415
325 0.261402
330 0.221784
335 0.254979
340 0.187136
345 0.270238
350 0.236945
355 0.246402
360 0.267899
365 0.278307
370 0.268821
375 0.264905
380 0.303473
385 0.260696
390 0.295035
395 0.286068
400 0.308398
405 0.327974
410 0.320981
415 0.39828
420 0.447943
425 0.430874
430 0.618199
435 0.943995
440 27.5039
445 460.648
450 650.874
455 149.488
460 18.7609
465 3.69367
470 1.84384
475 1.7441
480 1.79571
485 1.68824
490 1.43988
495 1.35062
500 1.40121
505 1.58495
510 2.02936
515 3.55053
520 3.49854
525 2.37737
530 1.96491
535 1.5937
540 1.43682
545 1.3277
550 1.31534
555 1.14451
560 0.971949
565 0.925126
570 0.777971
575 0.76401
580 0.571111
585 0.554276
590 0.436657
595 0.418272
600 0.25764
Ex : 458
200 0.186024
205 0.217583
210 0.223393
215 0.193193
220 0.233485
225 0.249699
230 0.253186
235 0.24928
240 0.251337
245 0.172844
250 0.173779
255 0.208109
260 0.250974
265 0.287411
270 0.181139
275 0.222232
280 0.25698
285 0.259087
290 0.221144
295 0.190485
300 0.189452
305 0.240906
310 0.249409
315 0.240372
320 0.252628
325 0.282489
330 0.22311
335 0.260188
340 0.26877
345 0.285331
350 0.245791
355 0.255436
360 0.270656
365 0.240657
370 0.273479
375 0.291694
380 0.29493
385 0.3067
390 0.309847
395 0.29444
400 0.328146
405 0.350455
410 0.301071
415 0.338641
420 0.405638
425 0.452782
430 0.502566
435 0.612299
440 0.973267
445 30.1376
450 465.834
455 675.433
460 158.659
465 19.935
470 3.90588
475 1.80063
480 1.74495
485 1.85112
490 1.77339
495 1.58721
500 1.44974
505 1.45372
510 1.47852
515 1.76241
520 2.78175
525 3.59263
530 2.62916
535 2.00596
540 1.81502
545 1.51565
550 1.25811
555 1.16397
560 1.13755
565 0.991085
570 0.78738
575 0.677387
580 0.643386
585 0.53272
590 0.442567
595 0.488434
600 0.243565
Ex : 463
200 0.23288
205 0.196402
210 0.256563
215 0.201402
220 0.205927
225 0.226019
230 0.212388
235 0.192744
240 0.217403
245 0.234355
250 0.195012
255 0.305416
260 0.229473
265 0.229876
270 0.218287
275 0.285933
280 0.2007
285 0.221094
290 0.205648
295 0.225829
300 0.216499
305 0.230899
310 0.190296
315 0.258548
320 0.24078
325 0.265248
330 0.2045
335 0.201617
340 0.198469
345 0.269173
350 0.207872
355 0.177033
360 0.243242
365 0.246635
370 0.289905
375 0.288243
380 0.277259
385 0.287628
390 0.287474
395 0.288698
400 0.292802
405 0.338751
410 0.331577
415 0.325455
420 0.359103
425 0.348834
430 0.448078
435 0.4781
440 0.639651
445 1.00338
450 28.3725
455 477.599
460 707.104
465 167.313
470 20.8067
475 4.05132
480 1.88771
485 1.72012
490 1.78391
495 1.7287
500 1.50743
505 1.3301
510 1.24572
515 1.38504
520 1.5716
525 2.24271
530 3.43504
535 2.91239
540 1.96943
545 1.60255
550 1.51887
555 1.20405
560 1.0553
565 0.887629
570 0.817114
575 0.744122
580 0.687581
585 0.563858
590 0.48262
595 0.489339
600 0.600826
Ex : 468
200 0.193717
205 0.214262
210 0.202591
215 0.232459
220 0.215265
225 0.243859
230 0.146043
235 0.205702
240 0.202102
245 0.199901
250 0.218012
255 0.183132
260 0.217821
265 0.204329
270 0.206773
275 0.16827
280 0.197383
285 0.225517
290 0.178039
295 0.179044
300 0.213292
305 0.262183
310 0.204395
315 0.226574
320 0.195045
325 0.211653
330 0.233159
335 0.203833
340 0.255362
345 0.239736
350 0.189936
355 0.232343
360 0.225095
365 0.209959
370 0.201946
375 0.267387
380 0.247111
385 0.247887
390 0.275449
395 0.233844
400 0.24843
405 0.256271
410 0.319517
415 0.322419
420 0.340348
425 0.318897
430 0.367899
435 0.377456
440 0.460519
445 0.596968
450 1.02008
455 30.659
460 476.393
465 733.36
470 172.293
475 21.1755
480 3.85816
485 1.7402
490 1.51134
495 1.51979
500 1.59791
505 1.5645
510 1.23914
515 1.42084
520 1.47199
525 1.53503
530 2.03883
535 2.93092
540 3.08224
545 2.04499
550 1.57784
555 1.45299
560 1.17221
565 1.02997
570 0.85562
575 0.718619
580 0.63478
585 0.617357
590 0.498767
595 0.39404
600 0.184636
Ex : 473
200 0.19483
205 0.211335
210 0.204847
215 0.168721
220 0.232812
225 0.240711
230 0.21806
235 0.224213
240 0.197209
245 0.213504
250 0.254807
255 0.175744
260 0.187714
265 0.221336
270 0.228676
275 0.203759
280 0.228454
285 0.216204
290 0.246776
295 0.211674
300 0.196031
305 0.268087
310 0.217486
315 0.22706
320 0.196965
325 0.185121
330 0.205705
335 0.236816
340 0.233551
345 0.233145
350 0.179644
355 0.202204
360 0.196474
365 0.239498
370 0.234173
375 0.271338
380 0.263578
385 0.302853
390 0.332004
395 0.248757
400 0.230464
405 0.25153
410 0.255236
415 0.34451
420 0.285573
425 0.329282
430 0.297681
435 0.32221
440 0.362277
445 0.522564
450 0.646406
455 1.00032
460 35.5814
465 519.965
470 703.934
475 158.216
480 19.6693
485 3.65972
490 1.68776
495 1.2777
500 1.50059
505 1.60131
510 1.51896
515 1.3201
520 1.3702
525 1.54396
530 1.43899
535 1.69952
540 2.7969
545 3.04345
550 2.08777
555 1.60541
560 1.41595
565 1.08991
570 0.91692
575 0.744969
580 0.602868
585 0.554284
590 0.512876
595 0.525329
600 0.694494
Ex : 478
200 0.281858
205 0.231843
210 0.3729
215 0.303818
220 0.27197
225 0.226935
230 0.222611
235 0.183375
240 0.19444
245 0.278083
250 0.270429
255 0.249535
260 0.256909
265 0.227061
270 0.254449
275 0.256679
280 0.288788
285 0.258382
290 0.283861
295 0.237848
300 0.242471
305 0.241737
310 0.197209
315 0.284451
320 0.246096
325 0.222254
330 0.234541
335 0.302705
340 0.303632
345 0.27542
350 0.235177
355 0.231462
360 0.22238
365 0.196675
370 0.266417
375 0.350915
380 0.293001
385 0.308639
390 0.294574
395 0.288728
400 0.346372
405 0.355531
410 0.301882
415 0.240476
420 0.273908
425 0.338039
430 0.324978
435 0.395966
440 0.448999
445 0.51032
450 0.693481
455 0.755539
460 1.17914
465 37.692
470 528.462
475 714.436
480 167.838
485 20.7966
490 3.81504
495 1.72154
500 1.31808
505 1.54447
510 1.52874
515 1.45283
520 1.46596
525 1.35738
530 1.48052
535 1.5636
540 1.41522
545 2.09238
550 2.89517
555 2.40376
560 1.49713
565 1.28314
570 1.17968
575 0.907448
580 0.70613
585 0.709124
590 0.631761
595 0.494601
600 0.719343
Ex : 483
200 0.215147
205 0.233375
210 0.262372
215 0.17806
220 0.18594
225 0.261388
230 0.301955
235 0.240183
240 0.244757
245 0.190604
250 0.290011
255 0.27115
260 0.251232
265 0.229416
270 0.290223
275 0.26681
280 0.290888
285 0.264239
290 0.275012
295 0.273892
300 0.205624
305 0.286824
310 0.250079
315 0.236318
320 0.32273
325 0.249359
330 0.244322
335 0.237297
340 0.258947
345 0.294403
350 0.273362
355 0.300995
360 0.279519
365 0.313132
370 0.263455
375 0.245558
380 0.233376
385 0.287833
390 0.302849
395 0.31179
400 0.298976
405 0.282458
410 0.350657
415 0.392082
420 0.424881
425 0.349881
430 0.287778
435 0.41523
440 0.368712
445 0.361659
450 0.49682
455 0.717748
460 0.89527
465 1.26683
470 30.4802
475 517.017
480 786.741
485 187.179
490 22.8295
495 3.89377
500 1.69527
505 1.34789
510 1.34236
515 1.6274
520 1.55709
525 1.61598
530 1.35714
535 1.44047
540 1.44972
545 1.44313
550 1.47164
555 2.41578
560 2.34617
565 1.62517
570 1.14641
575 1.09581
580 0.83732
585 0.622011
590 0.62238
595 0.560244
600 0.453683
Ex : 488
200 0.249976
205 0.307579
210 0.309889
215 0.236185
220 0.335073
225 0.287669
230 0.247724
235 0.251595
240 0.282246
245 0.277151
250 0.273543
255 0.242446
260 0.327814
265 0.24655
270 0.299623
275 0.294926
280 0.243794
285 0.413548
290 0.24103
295 0.270162
300 0.272326
305 0.303924
310 0.303801
315 0.285039
320 0.33137
325 0.283287
330 0.32939
335 0.277935
340 0.280076
345 0.248791
350 0.332319
355 0.292254
360 0.311615
365 0.302884
370 0.343745
375 0.310073
380 0.358264
385 0.371912
390 0.34239
395 0.238301
400 0.331657
405 0.308831
410 0.307921
415 0.299659
420 0.413401
425 0.381635
430 0.343457
435 0.413297
440 0.424912
445 0.403535
450 0.464541
455 0.462247
460 0.65355
465 0.93171
470 1.26572
475 36.6343
480 548.268
485 741.634
490 169.606
495 21.0057
500 3.66804
505 1.77312
510 1.37649
515 1.52227
520 1.81108
525 1.7253
530 1.69833
535 1.51666
540 1.53705
545 1.4856
550 1.34114
555 1.30951
560 2.07436
565 2.58305
570 1.58358
575 1.04504
580 0.905115
585 0.755982
590 0.649485
595 0.545376
600 1.01945
Ex : 493
200 0.302771
205 0.266873
210 0.285202
215 0.279509
220 0.287573
225 0.259837
230 0.258181
235 0.276836
240 0.293589
245 0.202311
250 0.259406
255 0.352562
260 0.338948
265 0.302685
270 0.288949
275 0.283777
280 0.229397
285 0.312048
290 0.241358
295 0.28516
300 0.349335
305 0.299123
310 0.317638
315 0.380267
320 0.301685
325 0.27413
330 0.237066
335 0.366039
340 0.290677
345 0.286231
350 0.277024
355 0.232139
360 0.368929
365 0.32107
370 0.304881
375 0.334282
380 0.285821
385 0.338022
390 0.280926
395 0.34893
400 0.303052
405 0.320563
410 0.329411
415 0.307204
420 0.287175
425 0.311314
430 0.315038
435 0.457872
440 0.398357
445 0.422787
450 0.458245
455 0.520934
460 0.516558
465 0.657175
470 0.881127
475 1.20006
480 32.9296
485 546.108
490 783.71
495 175.987
500 21.7025
505 3.73182
510 1.75734
515 1.37318
520 1.53032
525 1.83005
530 1.65152
535 1.60323
540 1.35358
545 1.34599
550 1.15267
555 1.19592
560 1.25773
565 1.40995
570 2.14898
575 1.70273
580 1.0406
585 0.76502
590 0.678793
595 0.559771
600 0.162955
Ex : 498
200 0.325569
205 0.285654
210 0.331882
215 0.307213
220 0.26244
225 0.255945
230 0.25424
235 0.306464
240 0.250619
245 0.266986
250 0.290952
255 0.299623
260 0.298089
265 0.387931
270 0.221424
275 0.272384
280 0.315598
285 0.396064
290 0.306422
295 0.325726
300 0.399467
305 0.27819
310 0.373053
315 0.25448
320 0.276698
325 0.316808
330 0.316346
335 0.355701
340 0.262028
345 0.243062
350 0.261849
355 0.315027
360 0.323103
365 0.29606
370 0.377328
375 0.445613
380 0.337486
385 0.375728
390 0.385473
395 0.317783
400 0.32637
405 0.33802
410 0.360575
415 0.375778
420 0.35651
425 0.426438
430 0.462019
435 0.31293
440 0.431971
445 0.441186
450 0.547277
455 0.504057
460 0.504667
465 0.682184
470 0.701741
475 1.03928
480 1.33011
485 40.3703
490 568.366
495 751.152
500 169.54
505 20.8797
510 3.90499
515 1.892
520 1.564
525 1.43625
530 1.70412
535 1.77172
540 1.48859
545 1.52151
550 1.29668
555 1.21851
560 0.981393
565 1.00403
570 1.06683
575 1.61826
580 1.48463
585 0.999539
590 0.684482
595 0.633713
600 0.806063
Ex : 503
200 0.309946
205 0.23521
210 0.274283
215 0.346919
220 0.359032
225 0.36201
230 0.267934
235 0.307673
240 0.303774
245 0.347829
250 0.271032
255 0.374128
260 0.284429
265 0.342649
270 0.303754
275 0.39299
280 0.263264
285 0.334772
290 0.322644
295 0.319572
300 0.272521
305 0.292464
310 0.299823
315 0.296494
320 0.378191
325 0.352264
330 0.350419
335 0.458137
340 0.38536
345 0.296096
350 0.293966
355 0.321869
360 0.362391
365 0.370982
370 0.377718
375 0.339615
380 0.325572
385 0.418966
390 0.313297
395 0.315204
400 0.374597
405 0.39695
410 0.383312
415 0.367694
420 0.497893
425 0.515623
430 0.427684
435 0.419957
440 0.411209
445 0.394792
450 0.430518
455 0.504328
460 0.497587
465 0.539208
470 0.619949
475 0.827039
480 0.938528
485 1.36393
490 36.6956
495 561
500 761.199
505 172.422
510 21.381
515 3.95741
520 1.969
525 1.5975
530 1.55457
535 1.68585
540 1.76724
545 1.58978
550 1.31223
555 1.19908
560 1.06799
565 0.897711
570 0.866532
575 0.887854
580 1.11828
585 1.48703
590 0.900726
595 0.706875
600 0.837665
Ex : 508
200 0.346329
205 0.350687
210 0.221985
215 0.395588
220 0.356696
225 0.369374
230 0.321261
235 0.308789
240 0.345389
245 0.301763
250 0.322314
255 0.357918
260 0.303196
265 0.378152
270 0.32016
275 0.363916
280 0.34253
285 0.266922
290 0.275158
295 0.27905
300 0.261461
305 0.315971
310 0.297208
315 0.429535
320 0.355702
325 0.319064
330 0.416394
335 0.380336
340 0.3625
345 0.444948
350 0.455356
355 0.37011
360 0.325365
365 0.37853
370 0.4607
375 0.383311
380 0.331102
385 0.316657
390 0.290294
395 0.432096
400 0.400818
405 0.379241
410 0.352984
415 0.395996
420 0.388438
425 0.458166
430 0.414155
435 0.383408
440 0.42714
445 0.437801
450 0.443769
455 0.383513
460 0.539409
465 0.470872
470 0.554332
475 0.576179
480 0.709853
485 1.00587
490 1.54052
495 38.262
500 557.818
505 756.189
510 178.74
515 22.0911
520 4.20435
525 2.0628
530 1.55041
535 1.5508
540 1.57007
545 1.75282
550 1.27286
555 1.22579
560 1.11021
565 1.01772
570 0.865941
575 0.873839
580 0.673439
585 0.918961
590 1.17294
595 1.14405
600 0.168906
Ex : 513
200 0.354916
205 0.297177
210 0.347119
215 0.370913
220 0.357415
225 0.313868
230 0.360648
235 0.399676
240 0.292787
245 0.281154
250 0.272535
255 0.347484
260 0.261253
265 0.243611
270 0.326875
275 0.300495
280 0.364859
285 0.305709
290 0.340158
295 0.281365
300 0.337476
305 0.333983
310 0.401626
315 0.398598
320 0.284544
325 0.367051
330 0.445495
335 0.343689
340 0.313026
345 0.424448
350 0.361508
355 0.309964
360 0.383955
365 0.40134
370 0.366242
375 0.463623
380 0.284337
385 0.326257
390 0.407832
395 0.470794
400 0.44768
405 0.322409
410 0.358906
415 0.405126
420 0.389854
425 0.60315
430 0.474437
435 0.44539
440 0.505956
445 0.497377
450 0.443425
455 0.454367
460 0.598426
465 0.540626
470 0.548291
475 0.616391
480 0.65157
485 0.756483
490 0.971752
495 1.18466
500 35.3585
505 542.771
510 769.814
515 184.947
520 22.9549
525 4.02503
530 2.1442
535 1.60103
540 1.45371
545 1.49452
550 1.4241
555 1.35088
560 1.16327
565 0.997615
570 1.03807
575 0.727133
580 0.72376
585 0.560637
590 0.59851
595 0.902883
600 0.570588
Ex : 518
200 0.386104
205 0.437854
210 0.34563
215 0.371713
220 0.278952
225 0.305202
230 0.254539
235 0.314467
240 0.377031
245 0.290672
250 0.302575
255 0.267498
260 0.335194
265 0.428188
270 0.339565
275 0.39843
280 0.362597
285 0.320104
290 0.434201
295 0.29575
300 0.307609
305 0.416071
310 0.371652
315 0.358384
320 0.339241
325 0.333273
330 0.309466
335 0.270336
340 0.340995
345 0.391162
350 0.386872
355 0.334491
360 0.430128
365 0.383239
370 0.385893
375 0.386928
380 0.378124
385 0.402805
390 0.448299
395 0.421715
400 0.465508
405 0.422499
410 0.391054
415 0.411937
420 0.377255
425 0.441019
430 0.34644
435 0.385313
440 0.493837
445 0.405634
450 0.484335
455 0.415878
460 0.486463
465 0.5119
470 0.391556
475 0.539695
480 0.551529
485 0.611212
490 0.847579
495 0.883416
500 1.22669
505 35.2956
510 525.974
515 754.461
520 183.234
525 22.6608
530 4.05893
535 1.84932
540 1.53027
545 1.17178
550 1.41248
555 1.51097
560 1.23462
565 1.0756
570 0.845457
575 0.679703
580 0.705878
585 0.630631
590 0.612399
595 0.618118
600 0.310353
Ex : 523
200 0.292273
205 0.355298
210 0.387118
215 0.355168
220 0.338727
225 0.35863
230 0.244516
235 0.411748
240 0.325311
245 0.3961
250 0.33143
255 0.350173
260 0.395996
265 0.409394
270 0.313846
275 0.401519
280 0.359588
285 0.450586
290 0.379558
295 0.312434
300 0.385123
305 0.364571
310 0.369563
315 0.395018
320 0.273225
325 0.365305
330 0.429787
335 0.350852
340 0.321404
345 0.40319
350 0.416895
355 0.380209
360 0.350003
365 0.428204
370 0.381381
375 0.409803
380 0.429876
385 0.400118
390 0.415314
395 0.47593
400 0.405969
405 0.423531
410 0.435449
415 0.490784
420 0.458036
425 0.36417
430 0.412215
435 0.42508
440 0.420098
445 0.406995
450 0.436477
455 0.521322
460 0.454014
465 0.486903
470 0.552374
475 0.48908
480 0.561052
485 0.453707
490 0.672464
495 0.83233
500 0.917034
505 1.20709
510 32.5461
515 504.379
520 746.79
525 186.591
530 23.0102
535 4.04223
540 1.92638
545 1.46171
550 1.18328
555 1.15141
560 1.25637
565 1.2586
570 0.903947
575 0.825597
580 0.726205
585 0.576404
590 0.576145
595 0.640235
600 0.366678
Ex : 528
200 0.440383
205 0.414065
210 0.451547
215 0.380206
220 0.359399
225 0.45965
230 0.318893
235 0.404833
240 0.372111
245 0.416967
250 0.311704
255 0.440245
260 0.406545
265 0.438361
270 0.313987
275 0.336188
280 0.38741
285 0.346276
290 0.381927
295 0.384039
300 0.338362
305 0.360654
310 0.368696
315 0.29119
320 0.361518
325 0.524899
330 0.333701
335 0.460065
340 0.446261
345 0.371715
350 0.428942
355 0.44083
360 0.404033
365 0.366437
370 0.336748
375 0.365685
380 0.35749
385 0.580865
390 0.371229
395 0.433276
400 0.373199
405 0.410042
410 0.393293
415 0.352974
420 0.471938
425 0.275607
430 0.432177
435 0.392048
440 0.340524
445 0.417172
450 0.380929
455 0.517476
460 0.47591
465 0.55098
470 0.594422
475 0.451339
480 0.637814
485 0.57401
490 0.682508
495 0.642784
500 0.704878
505 0.889176
510 1.29992
515 30.2524
520 495.701
525 740.738
530 183.965
535 22.622
540 4.08525
545 1.61794
550 1.24071
555 1.17052
560 1.04261
565 1.08201
570 0.967289
575 0.864806
580 0.754673
585 0.642349
590 0.501684
595 0.464793
600 0.0528916
Ex : 533
200 0.495998
205 0.321549
210 0.329767
215 0.381433
220 0.453068
225 0.461675
230 0.47896
235 0.416579
240 0.469338
245 0.355139
250 0.414629
255 0.393262
260 0.376515
265 0.313182
270 0.385412
275 0.322763
280 0.329572
285 0.332174
290 0.399434
295 0.315774
300 0.367197
305 0.304982
310 0.28588
315 0.433115
320 0.393018
325 0.493528
330 0.452737
335 0.337907
340 0.404393
345 0.342026
350 0.35813
355 0.417624
360 0.406871
365 0.356435
370 0.44748
375 0.446978
380 0.553585
385 0.338297
390 0.364789
395 0.271134
400 0.394368
405 0.464273
410 0.385523
415 0.408113
420 0.292177
425 0.390054
430 0.43252
435 0.431153
440 0.451895
445 0.343747
450 0.413397
455 0.434696
460 0.494329
465 0.572464
470 0.568049
475 0.470121
480 0.609208
485 0.504915
490 0.599047
495 0.718798
500 0.683861
505 0.807123
510 1.05018
515 1.3576
520 29.7035
525 471.255
530 712.625
535 181.803
540 22.3017
545 3.93599
550 1.54729
555 1.07715
560 0.96799
565 0.789141
570 0.994369
575 0.806844
580 0.76348
585 0.655959
590 0.610266
595 0.573359
600 0.48081
Ex : 538
200 0.387949
205 0.345522
210 0.285368
215 0.403697
220 0.296593
225 0.331573
230 0.361296
235 0.433812
240 0.420194
245 0.345567
250 0.370398
255 0.438821
260 0.386901
265 0.380843
270 0.387728
275 0.322117
280 0.330467
285 0.393042
290 0.362332
295 0.385944
300 0.384389
305 0.3657
310 0.431565
315 0.299843
320 0.418821
325 0.4031
330 0.388979
335 0.328117
340 0.415689
345 0.441172
350 0.432611
355 0.514502
360 0.40172
365 0.422238
370 0.519597
375 0.378403
380 0.489937
385 0.402117
390 0.382895
395 0.345038
400 0.385204
405 0.381239
410 0.491737
415 0.418365
420 0.401813
425 0.433001
430 0.507345
435 0.473543
440 0.461191
445 0.432732
450 0.498393
455 0.520046
460 0.426126
465 0.476767
470 0.40668
475 0.500832
480 0.524575
485 0.477285
490 0.567603
495 0.52153
500 0.664126
505 0.52206
510 0.780258
515 0.987336
520 1.17084
525 25.7285
530 450.913
535 711.728
540 187.977
545 23.1044
550 3.80733
555 1.43425
560 1.03358
565 0.923852
570 0.786488
575 0.873357
580 0.952775
585 0.882781
590 0.591769
595 0.59618
600 0.452035
Ex : 543
200 0.349451
205 0.334143
210 0.330425
215 0.394378
220 0.396865
225 0.409902
230 0.508967
235 0.329707
240 0.498047
245 0.330145
250 0.364431
255 0.441263
260 0.401866
265 0.257385
270 0.345414
275 0.423492
280 0.504819
285 0.329859
290 0.448279
295 0.477191
300 0.466187
305 0.361502
310 0.374651
315 0.385776
320 0.301057
325 0.344765
330 0.499522
335 0.363903
340 0.39782
345 0.513449
350 0.573361
355 0.53763
360 0.354736
365 0.502281
370 0.422556
375 0.429756
380 0.439744
385 0.506598
390 0.429138
395 0.484788
400 0.734292
405 0.475168
410 0.352356
415 0.548081
420 0.480962
425 0.477239
430 0.541074
435 0.467663
440 0.513562
445 0.457958
450 0.46865
455 0.425002
460 0.472082
465 0.47721
470 0.630414
475 0.498324
480 0.588558
485 0.617508
490 0.560771
495 0.511737
500 0.604172
505 0.682318
510 0.619565
515 0.709545
520 0.898057
525 1.16448
530 23.5097
535 427.256
540 703.301
545 192.736
550 23.6037
555 3.6669
560 1.34148
565 0.951496
570 0.705118
575 0.801614
580 0.727516
585 0.751539
590 0.747309
595 0.636276
600 0.664988
Ex : 548
200 0.471104
205 0.401096
210 0.611092
215 0.343397
220 0.365274
225 0.331537
230 0.436673
235 0.399429
240 0.365464
245 0.468461
250 0.472031
255 0.494033
260 0.366974
265 0.322199
270 0.403164
275 0.420316
280 0.324802
285 0.360953
290 0.382166
295 0.383035
300 0.346262
305 0.365955
310 0.405716
315 0.382892
320 0.509123
325 0.429162
330 0.390509
335 0.430936
340 0.377509
345 0.472577
350 0.405703
355 0.476891
360 0.481343
365 0.352788
370 0.386404
375 0.433266
380 0.491407
385 0.481096
390 0.470031
395 0.445264
400 0.447063
405 0.386646
410 0.526424
415 0.374424
420 0.381159
425 0.565616
430 0.500348
435 0.426611
440 0.350173
445 0.431698
450 0.502748
455 0.436671
460 0.459571
465 0.536851
470 0.441723
475 0.433633
480 0.506124
485 0.500232
490 0.503361
495 0.515648
500 0.52074
505 0.518717
510 0.61558
515 0.69749
520 0.662595
525 0.788526
530 1.18599
535 25.1378
540 427.244
545 683.835
550 185.161
555 22.4975
560 3.64323
565 1.08616
570 0.943656
575 0.70592
580 0.715727
585 0.609562
590 0.695537
595 0.625512
600 0.661983
Ex : 553
200 0.373288
205 0.406377
210 0.490236
215 0.418238
220 0.370535
225 0.405462
230 0.380154
235 0.501075
240 0.378728
245 0.464963
250 0.470932
255 0.466074
260 0.457422
265 0.377054
270 0.450829
275 0.397172
280 0.384309
285 0.521971
290 0.372798
295 0.396029
300 0.317007
305 0.473243
310 0.406915
315 0.418028
320 0.33459
325 0.406446
330 0.34968
335 0.349637
340 0.404428
345 0.46675
350 0.418448
355 0.423165
360 0.425
365 0.442778
370 0.45261
375 0.453615
380 0.483664
385 0.458516
390 0.403134
395 0.430723
400 0.29635
405 0.470308
410 0.451052
415 0.509846
420 0.527667
425 0.447598
430 0.403369
435 0.486202
440 0.549607
445 0.601716
450 0.488218
455 0.506218
460 0.594915
465 0.513328
470 0.448892
475 0.636275
480 0.428057
485 0.580979
490 0.512433
495 0.507821
500 0.584672
505 0.645549
510 0.700949
515 0.529271
520 0.654069
525 0.709018
530 0.97796
535 1.27029
540 20.8234
545 398.819
550 665.132
555 184.125
560 22.5744
565 3.51923
570 1.17638
575 0.978964
580 0.717148
585 0.626336
590 0.618378
595 0.563238
600 0.274284
Ex : 558
200 0.424901
205 0.437556
210 0.478272
215 0.40902
220 0.373086
225 0.509843
230 0.450905
235 0.495332
240 0.556491
245 0.486213
250 0.537861
255 0.332545
260 0.491032
265 0.549767
270 0.44933
275 0.412052
280 0.396696
285 0.445568
290 0.429841
295 0.462965
300 0.434512
305 0.477957
310 0.439505
315 0.446946
320 0.441418
325 0.355195
330 0.426414
335 0.52545
340 0.413714
345 0.476252
350 0.482601
355 0.450449
360 0.461136
365 0.456976
370 0.450787
375 0.443074
380 0.478228
385 0.487359
390 0.430251
395 0.376294
400 0.405481
405 0.372393
410 0.478043
415 0.477657
420 0.467437
425 0.444463
430 0.51455
435 0.553602
440 0.472623
445 0.488495
450 0.476172
455 0.474801
460 0.559013
465 0.605997
470 0.504549
475 0.538373
480 0.499501
485 0.473853
490 0.481882
495 0.563643
500 0.59524
505 0.578495
510 0.598771
515 0.668767
520 0.713329
525 0.760503
530 0.758317
535 0.814115
540 1.1971
545 20.689
550 378.07
555 646.134
560 180.84
565 22.1385
570 3.52251
575 1.09641
580 0.686699
585 0.584566
590 0.593102
595 0.569
600 0.124227
Ex : 563
200 0.36964
205 0.657908
210 0.553053
215 0.525557
220 0.528136
225 0.482951
230 0.449267
235 0.380366
240 0.480047
245 0.415366
250 0.420259
255 0.439827
260 0.467397
265 0.492363
270 0.581014
275 0.464103
280 0.479929
285 0.561307
290 0.495966
295 0.320881
300 0.38359
305 0.516986
310 0.451757
315 0.506724
320 0.416765
325 0.429776
330 0.534098
335 0.511797
340 0.431556
345 0.44301
350 0.435477
355 0.496166
360 0.648089
365 0.523295
370 0.469376
375 0.45634
380 0.392462
385 0.48908
390 0.376756
395 0.473533
400 0.543708
405 0.512084
410 0.463841
415 0.490916
420 0.598223
425 0.45154
430 0.474035
435 0.493069
440 0.345197
445 0.504217
450 0.512934
455 0.456031
460 0.590442
465 0.495448
470 0.528278
475 0.563077
480 0.71583
485 0.593702
490 0.525258
495 0.52675
500 0.481811
505 0.463576
510 0.629238
515 0.491179
520 0.614839
525 0.667238
530 0.699787
535 0.702271
540 0.735063
545 1.06653
550 19.7221
555 365.831
560 610.324
565 173.556
570 21.2486
575 3.22947
580 1.12206
585 0.877574
590 0.668329
595 0.529761
600 0.518458
Ex : 568
200 0.471152
205 0.370149
210 0.419377
215 0.446258
220 0.456474
225 0.504259
230 0.447531
235 0.412197
240 0.40952
245 0.476859
250 0.464996
255 0.496092
260 0.440913
265 0.356862
270 0.420732
275 0.471669
280 0.560745
285 0.590759
290 0.525353
295 0.385186
300 0.518628
305 0.570053
310 0.547692
315 0.52133
320 0.477614
325 0.497828
330 0.441536
335 0.417597
340 0.453829
345 0.466958
350 0.426348
355 0.679754
360 0.443909
365 0.45884
370 0.42893
375 0.477024
380 0.485707
385 0.539134
390 0.458373
395 0.436956
400 0.469394
405 0.538336
410 0.704661
415 0.512261
420 0.476157
425 0.427974
430 0.489527
435 0.467083
440 0.515441
445 0.631086
450 0.535082
455 0.614203
460 0.429834
465 0.492015
470 0.451859
475 0.552745
480 0.549072
485 0.567956
490 0.592541
495 0.588947
500 0.468468
505 0.505602
510 0.652756
515 0.593868
520 0.756217
525 0.582143
530 0.691402
535 0.722643
540 0.868212
545 0.816729
550 1.05432
555 14.9031
560 323.552
565 580.736
570 173.285
575 21.312
580 3.26885
585 1.01798
590 0.707597
595 0.614148
600 1.33765
Ex : 573
200 0.433085
205 0.442618
210 0.484506
215 0.627179
220 0.522596
225 0.595623
230 0.53154
235 0.496782
240 0.394332
245 0.443719
250 0.441347
255 0.468523
260 0.503383
265 0.482272
270 0.510974
275 0.46832
280 0.495773
285 0.466473
290 0.531032
295 0.382389
300 0.475223
305 0.489607
310 0.446454
315 0.499417
320 0.515117
325 0.523763
330 0.500829
335 0.502037
340 0.423029
345 0.40709
350 0.599295
355 0.546173
360 0.393723
365 0.518366
370 0.459628
375 0.428635
380 0.44979
385 0.42853
390 0.387962
395 0.539074
400 0.460283
405 0.512639
410 0.475035
415 0.475
420 0.580106
425 0.488567
430 0.44376
435 0.438164
440 0.524547
445 0.509918
450 0.544049
455 0.635191
460 0.493921
465 0.55322
470 0.546815
475 0.701272
480 0.525852
485 0.567909
490 0.450573
495 0.538153
500 0.506047
505 0.535226
510 0.638169
515 0.574266
520 0.551799
525 0.576698
530 0.547054
535 0.784688
540 0.721035
545 0.73598
550 0.923289
555 1.04029
560 13.6723
565 283.222
570 538.81
575 165.918
580 20.3834
585 3.14609
590 1.1165
595 0.751909
600 1.47632
Ex : 578
200 0.384203
205 0.444672
210 0.409169
215 0.614284
220 0.39123
225 0.453833
230 0.56582
235 0.444442
240 0.557092
245 0.530019
250 0.495982
255 0.51728
260 0.42573
265 0.445732
270 0.503245
275 0.357268
280 0.577754
285 0.493072
290 0.452807
295 0.475204
300 0.416069
305 0.508514
310 0.376817
315 0.426801
320 0.470293
325 0.475075
330 0.563247
335 0.454051
340 0.512122
345 0.557946
350 0.451608
355 0.504247
360 0.484778
365 0.477183
370 0.536958
375 0.449792
380 0.417656
385 0.503445
390 0.466905
395 0.480355
400 0.594693
405 0.637616
410 0.749205
415 0.521788
420 0.539757
425 0.60473
430 0.402176
435 0.422602
440 0.611414
445 0.581891
450 0.649452
455 0.647659
460 0.564421
465 0.556778
470 0.638485
475 0.522868
480 0.567208
485 0.529422
490 0.658322
495 0.455175
500 0.492896
505 0.541396
510 0.638846
515 0.584098
520 0.541123
525 0.605586
530 0.549406
535 0.660061
540 0.744152
545 0.784645
550 0.810551
555 0.958752
560 1.03286
565 11.7267
570 253.065
575 467.81
580 142.903
585 17.5741
590 2.70064
595 1.09834
600 2.24388
Ex : 583
200 0.414589
205 0.435254
210 0.410881
215 0.599565
220 0.411673
225 0.480802
230 0.610644
235 0.541966
240 0.635138
245 0.670901
250 0.520353
255 0.419861
260 0.501281
265 0.528626
270 0.662177
275 0.442615
280 0.517348
285 0.487127
290 0.47764
295 0.477048
300 0.452164
305 0.468966
310 0.393669
315 0.575825
320 0.457346
325 0.416701
330 0.545032
335 0.530675
340 0.525778
345 0.532684
350 0.417897
355 0.446643
360 0.500925
365 0.57529
370 0.567218
375 0.460437
380 0.550773
385 0.576954
390 0.425696
395 0.544295
400 0.531833
405 0.476057
410 0.695817
415 0.556457
420 0.513946
425 0.501012
430 0.521552
435 0.468342
440 0.511745
445 0.568761
450 0.474271
455 0.415746
460 0.522462
465 0.626782
470 0.519794
475 0.555703
480 0.564428
485 0.41345
490 0.600555
495 0.567976
500 0.597744
505 0.558518
510 0.624737
515 0.656043
520 0.537708
525 0.584629
530 0.499218
535 0.604024
540 0.646357
545 0.611268
550 0.674427
555 0.669546
560 0.754274
565 0.99026
570 9.73585
575 223.114
580 402.388
585 116.903
590 14.4492
595 2.38605
600 1.21311
Ex : 588
200 0.531634
205 0.412535
210 0.497389
215 0.589182
220 0.478851
225 0.436582
230 0.438722
235 0.501105
240 0.534747
245 0.45766
250 0.608226
255 0.426924
260 0.386815
265 0.424866
270 0.584833
275 0.486735
280 0.605259
285 0.526983
290 0.529585
295 0.417569
300 0.451742
305 0.403716
310 0.523128
315 0.432866
320 0.418695
325 0.457932
330 0.547617
335 0.722205
340 0.51265
345 0.549841
350 0.512877
355 0.512923
360 0.628205
365 0.436235
370 0.388434
375 0.557025
380 0.650398
385 0.43869
390 0.491998
395 0.444903
400 0.502161
405 0.486431
410 0.552985
415 0.657324
420 0.558806
425 0.460601
430 0.478936
435 0.548877
440 0.547425
445 0.587629
450 0.528853
455 0.67915
460 0.574931
465 0.635931
470 0.556584
475 0.606264
480 0.579943
485 0.555
490 0.706957
495 0.509246
500 0.615577
505 0.605504
510 0.59037
515 0.759507
520 0.443261
525 0.494307
530 0.556112
535 0.572361
540 0.502017
545 0.606721
550 0.657422
555 0.552339
560 0.718505
565 0.77158
570 0.934879
575 8.63509
580 190.81
585 348.868
590 102.374
595 12.6978
600 1.64783
Ex : 593
200 0.583483
205 0.550428
210 0.549319
215 0.477132
220 0.48053
225 0.563525
230 0.468464
235 0.46447
240 0.498094
245 0.600456
250 0.609031
255 0.468512
260 0.478217
265 0.597095
270 0.483383
275 0.530882
280 0.451624
285 0.460519
290 0.510322
295 0.400316
300 0.469755
305 0.629694
310 0.498946
315 0.592949
320 0.592514
325 0.47794
330 0.424
335 0.41978
340 0.649084
345 0.858995
350 0.553431
355 0.572532
360 0.491632
365 0.49422
370 0.591711
375 0.60432
380 0.608981
385 0.606684
390 0.559165
395 0.589775
400 0.459319
405 0.589583
410 0.545313
415 0.56866
420 0.527048
425 0.571487
430 0.407344
435 0.5143
440 0.448881
445 0.576554
450 0.613814
455 0.508242
460 0.592989
465 0.526131
470 0.672547
475 0.633961
480 0.615494
485 0.514216
490 0.570833
495 0.727741
500 0.533236
505 0.582774
510 0.542011
515 0.471985
520 0.724331
525 0.724031
530 0.516469
535 0.491257
540 0.447112
545 0.528313
550 0.761654
555 0.709037
560 0.767002
565 0.928748
570 0.751499
575 0.797255
580 7.92792
585 168.301
590 295.996
595 89.2553
600 14.0123
Ex : 598
200 0.471604
205 0.48055
210 0.422659
215 0.471568
220 0.701648
225 0.496389
230 0.494974
235 0.546726
240 0.425447
245 0.555296
250 0.582196
255 0.572654
260 0.570522
265 0.683297
270 0.597956
275 0.629121
280 0.44775
285 0.515101
290 0.413098
295 0.528123
300 0.518601
305 0.531682
310 0.451085
315 0.530396
320 0.510534
325 0.537403
330 0.600746
335 0.560199
340 0.76425
345 0.662423
350 0.739708
355 0.561306
360 0.553908
365 0.550165
370 0.591761
375 0.50625
380 0.580261
385 0.535538
390 0.531703
395 0.642788
400 0.777997
405 0.55865
410 0.591659
415 0.620855
420 0.542337
425 0.629705
430 0.544775
435 0.620651
440 0.617462
445 0.626102
450 0.864256
455 0.677303
460 0.628552
465 0.610072
470 0.599327
475 0.768474
480 0.638122
485 0.675709
490 0.622896
495 0.535156
500 0.78567
505 0.638035
510 0.721869
515 0.526932
520 0.562525
525 0.609671
530 0.694067
535 0.574785
540 0.595977
545 0.574222
550 0.62757
555 0.593775
560 0.602829
565 0.64838
570 0.969921
575 0.692389
580 0.783786
585 7.33717
590 150.138
595 264.225
600 163.399
Ex : 603
200 0.618285
205 0.58977
210 0.637358
215 0.6515
220 0.509631
225 0.528992
230 0.669967
235 0.50842
240 0.550105
245 0.60052
250 0.472419
255 0.560329
260 0.597703
265 0.487386
270 0.515618
275 0.618074
280 0.496909
285 0.37037
290 0.462605
295 0.429597
300 0.593988
305 0.569717
310 0.57693
315 0.550307
320 0.495696
325 0.720768
330 0.776778
335 0.695156
340 0.55954
345 0.457758
350 0.671636
355 0.561708
360 0.503412
365 0.63047
370 0.64817
375 0.80268
380 0.626611
385 0.535184
390 0.60828
395 0.555909
400 0.622322
405 0.566382
410 0.772947
415 0.570275
420 0.742304
425 0.534892
430 0.471329
435 0.644179
440 0.672704
445 0.595529
450 0.721102
455 0.55334
460 0.824379
465 0.686757
470 0.584468
475 0.467342
480 0.590316
485 0.702233
490 0.567617
495 0.757111
500 0.625551
505 0.712376
510 0.694201
515 0.606787
520 0.615777
525 0.478206
530 0.501252
535 0.525014
540 0.757795
545 0.566755
550 0.605457
555 0.694879
560 0.620523
565 0.770278
570 0.655928
575 0.764193
580 0.880711
585 0.813852
590 6.4502
595 130.968
600 257.482
