File format V 1.0
ven. 9. déc. 19:40:36 2016
Operator : 
Comments : 

=============================================
SpectroFluorometer parameters
Mode : 3D measurement
Data : Fluorescence
Phospho. : Ordinary
Spectrum : Fluorescence

Scan speed : 2400 nm/mn
Response : 100 ms
PM Voltage : 700 V
Shutter : On

Lambda Ex. Start : 203
Lambda Ex. End : 603
Lambda Ex. Step : 5
Ex. Slit : 5 nm

Lambda Em. Start : 200
Lambda Em. End : 600
Lambda Em. Step : 5
Em. Slit : 5 nm

Repetition : 1
Decal lambda em : 10
=============================================
DATA
Ex : 203
200 10.2874
205 14.8115
210 9.8501
215 15.8485
220 13.0215
225 15.1234
230 15.5572
235 15.0306
240 14.4694
245 18.9246
250 13.1261
255 15.4581
260 12.6757
265 15.3945
270 13.833
275 21.076
280 14.063
285 11.3433
290 13.8292
295 18.547
300 10.7457
305 14.5699
310 17.2079
315 15.3497
320 16.6526
325 19.2114
330 17.3285
335 15.9296
340 20.999
345 16.2046
350 14.6616
355 14.4523
360 16.426
365 19.9237
370 16.3911
375 17.9863
380 15.8535
385 17.6483
390 20.4391
395 14.8133
400 16.4138
405 20.8337
410 18.9969
415 16.0174
420 17.9121
425 15.1098
430 19.6842
435 20.424
440 16.5439
445 21.0759
450 16.0481
455 11.8354
460 17.8248
465 18.7569
470 20.4056
475 15.7009
480 18.2042
485 17.8226
490 16.4614
495 17.1324
500 16.5234
505 22.4998
510 15.7984
515 13.3545
520 17.6141
525 17.6741
530 14.0164
535 16.2005
540 15.06
545 17.3648
550 17.2715
555 16.5501
560 16.6628
565 13.6299
570 14.8135
575 17.1152
580 17.7765
585 17.5669
590 16.1623
595 15.4941
600 25.0999
Ex : 208
200 17.8743
205 18.4439
210 17.1961
215 15.4015
220 17.2724
225 17.5849
230 14.5443
235 15.5389
240 19.6465
245 22.0695
250 18.2443
255 14.1318
260 18.7951
265 16.2365
270 16.6902
275 14.4538
280 16.6595
285 12.502
290 19.3287
295 13.6674
300 13.2132
305 15.0631
310 15.0015
315 15.3427
320 15.0014
325 16.8724
330 17.219
335 16.427
340 20.4123
345 15.3903
350 17.3338
355 16.036
360 11.9254
365 19.8026
370 20.8688
375 22.715
380 14.8495
385 18.6336
390 19.983
395 19.0604
400 13.2037
405 18.1485
410 17.3288
415 14.2149
420 15.5899
425 18.2076
430 12.9999
435 19.9465
440 19.6762
445 13.0418
450 18.6753
455 21.2436
460 13.3122
465 17.8262
470 19.8128
475 14.2731
480 17.1032
485 20.5628
490 18.2376
495 16.4062
500 21.313
505 17.5915
510 19.3539
515 13.995
520 15.4923
525 16.3119
530 21.6775
535 19.1375
540 18.2244
545 14.5985
550 17.3194
555 14.8916
560 21.3864
565 20.0557
570 17.3582
575 15.6
580 13.2682
585 15.0903
590 11.7194
595 16.4725
600 40.2767
Ex : 213
200 15.7727
205 14.7549
210 17.8564
215 16.0869
220 15.9723
225 18.9527
230 17.5346
235 20.3249
240 13.5084
245 13.2931
250 16.51
255 17.0501
260 22.0221
265 16.7076
270 15.9184
275 16.4712
280 14.2654
285 14.9911
290 20.3848
295 17.348
300 18.0279
305 18.0199
310 19.2755
315 16.0281
320 14.9078
325 13.6602
330 14.203
335 17.7183
340 15.4208
345 13.6123
350 19.9865
355 14.7613
360 20.5548
365 22.7217
370 20.8519
375 22.4078
380 17.7856
385 17.1444
390 17.383
395 17.1856
400 16.2245
405 12.2619
410 25.2619
415 18.8764
420 13.5709
425 21.4814
430 20.3504
435 18.8778
440 21.776
445 17.4421
450 17.2409
455 15.0767
460 17.2765
465 20.5437
470 19.4621
475 17.4484
480 19.7037
485 18.8017
490 12.8258
495 15.4454
500 18.7479
505 13.0705
510 16.7784
515 14.7799
520 13.5831
525 12.1384
530 21.622
535 17.0234
540 15.1769
545 17.3997
550 16.1212
555 14.0047
560 18.0703
565 14.8881
570 12.301
575 16.1309
580 14.0907
585 20.2193
590 20.1351
595 17.1828
600 9.63577
Ex : 218
200 16.3252
205 16.3166
210 13.4517
215 15.5276
220 16.6618
225 16.4089
230 15.7162
235 19.6253
240 14.4795
245 15.0851
250 16.0796
255 16.6858
260 15.1974
265 12.1814
270 17.8309
275 18.0355
280 15.1214
285 13.5384
290 16.0188
295 12.8977
300 16.9572
305 17.9233
310 19.3501
315 15.0242
320 12.7159
325 17.0829
330 14.0179
335 14.6343
340 14.3562
345 16.6517
350 25.1088
355 21.4247
360 17.1045
365 24.2144
370 14.8502
375 16.5014
380 17.4031
385 19.9442
390 19.7666
395 24.5076
400 20.2683
405 25.11
410 17.2929
415 17.2398
420 17.8727
425 16.182
430 15.5029
435 13.6184
440 19.127
445 14.6844
450 19.3672
455 23.2276
460 14.7945
465 15.4071
470 17.8064
475 17.6603
480 18.8698
485 15.6871
490 13.159
495 19.3658
500 13.3608
505 15.2067
510 19.6041
515 17.2136
520 15.0141
525 20.1225
530 15.2543
535 15.9312
540 16.8343
545 13.4466
550 17.5592
555 18.0437
560 16.046
565 14.301
570 17.1816
575 20.0471
580 19.0498
585 13.1557
590 19.7508
595 18.0532
600 138.087
Ex : 223
200 14.5574
205 16.2106
210 15.4367
215 14.3742
220 18.3201
225 18.6716
230 14.3222
235 12.9761
240 14.7272
245 17.1329
250 17.5786
255 12.5701
260 17.4066
265 17.4997
270 12.5362
275 12.8304
280 13.769
285 13.5647
290 12.717
295 19.0044
300 17.4044
305 16.0235
310 16.5918
315 14.9932
320 13.5414
325 14.9775
330 15.2165
335 18.265
340 14.8308
345 19.4784
350 15.4529
355 17.9472
360 21.4628
365 15.3705
370 19.0759
375 12.7196
380 12.7269
385 13.6209
390 15.5053
395 17.4959
400 18.0856
405 17.4369
410 12.1568
415 17.542
420 15.7918
425 16.0367
430 15.1846
435 19.6793
440 17.8326
445 17.2458
450 16.3885
455 13.8409
460 14.6162
465 11.1092
470 14.7547
475 16.0365
480 18.5191
485 14.785
490 15.667
495 12.8308
500 13.6145
505 15.358
510 17.945
515 14.0286
520 19.5307
525 16.1587
530 12.0044
535 13.2453
540 13.9467
545 16.6525
550 15.6601
555 16.2809
560 15.9141
565 13.0757
570 16.5993
575 14.3459
580 18.9212
585 14.688
590 16.9952
595 13.7064
600 8.20626
Ex : 228
200 13.4479
205 15.6769
210 17.2925
215 16.2006
220 9.69607
225 13.7294
230 13.2602
235 10.9932
240 13.4225
245 14.0518
250 11.3743
255 15.5068
260 12.1646
265 14.1134
270 15.1148
275 12.3635
280 13.0133
285 15.2696
290 12.5027
295 14.2289
300 13.4269
305 14.0793
310 8.31133
315 14.1399
320 16.3577
325 15.6644
330 12.6099
335 12.8396
340 15.4108
345 16.9576
350 19.882
355 14.4719
360 20.1739
365 15.5235
370 15.8557
375 12.6283
380 13.7003
385 14.5431
390 11.3803
395 21.4252
400 14.8128
405 12.9484
410 17.5348
415 12.4957
420 14.8809
425 15.1231
430 15.0048
435 14.0517
440 16.7249
445 17.9559
450 15.1847
455 14.7039
460 12.156
465 18.0645
470 16.9129
475 12.6511
480 12.9603
485 13.1886
490 15.9312
495 14.2711
500 16.2327
505 12.7647
510 10.9354
515 15.4558
520 13.1997
525 16.1416
530 14.0233
535 12.324
540 11.5938
545 17.3042
550 14.2229
555 13.6118
560 17.7357
565 15.6732
570 15.3191
575 13.476
580 13.1371
585 9.71696
590 12.456
595 15.1202
600 9.34198
Ex : 233
200 12.206
205 13.4206
210 16.6182
215 12.5475
220 9.81143
225 9.15504
230 9.32474
235 9.37183
240 10.0671
245 12.5466
250 18.2309
255 12.7133
260 11.2115
265 14.8215
270 12.8022
275 12.5755
280 14.9936
285 13.7345
290 10.529
295 11.8578
300 11.6542
305 14.0622
310 12.8109
315 12.8281
320 13.3278
325 16.9272
330 12.7475
335 13.5985
340 13.7807
345 13.9086
350 12.2087
355 14.3732
360 8.75627
365 12.3135
370 13.6317
375 14.3885
380 14.676
385 12.6806
390 15.9449
395 14.7051
400 15.1946
405 15.4609
410 13.7569
415 16.4501
420 15.6146
425 12.4155
430 11.7087
435 14.7425
440 13.8271
445 14.4429
450 14.3916
455 13.6336
460 14.9165
465 12.7563
470 15.3079
475 13.6716
480 13.4744
485 17.1837
490 12.0433
495 12.3568
500 11.2275
505 13.4203
510 16.4058
515 10.5187
520 10.2182
525 12.4912
530 15.7305
535 15.9999
540 13.7549
545 14.4259
550 14.5423
555 14.3679
560 13.1985
565 15.2359
570 11.9099
575 12.4283
580 11.0905
585 15.137
590 12.2121
595 11.83
600 1.78931
Ex : 238
200 11.4261
205 9.74897
210 13.2234
215 10.7939
220 12.3953
225 11.2619
230 13.9599
235 12.6119
240 11.6303
245 11.5472
250 15.3107
255 8.98673
260 9.43042
265 10.1665
270 10.6525
275 10.3979
280 12.0413
285 14.9413
290 12.104
295 10.5147
300 9.36681
305 11.9958
310 11.9624
315 12.0487
320 12.7378
325 11.8471
330 12.884
335 14.0869
340 9.84473
345 8.67976
350 12.2275
355 9.20821
360 12.6913
365 13.8979
370 13.3354
375 14.4171
380 11.4081
385 11.1848
390 9.70077
395 13.4672
400 11.6792
405 12.3346
410 9.88482
415 11.7326
420 12.7949
425 12.8606
430 11.7133
435 10.9055
440 11.2435
445 11.435
450 10.8204
455 10.1125
460 10.6024
465 15.7723
470 12.583
475 10.5532
480 11.6467
485 8.35913
490 13.7142
495 11.7481
500 11.3462
505 16.5306
510 10.6782
515 11.5925
520 11.6147
525 15.8121
530 13.6206
535 11.975
540 11.2977
545 11.3453
550 10.088
555 13.2192
560 10.8348
565 9.17412
570 11.2335
575 8.85901
580 10.262
585 13.5551
590 12.352
595 13.0614
600 55.2494
Ex : 243
200 11.7363
205 11.1571
210 8.92019
215 13.1639
220 10.7384
225 8.32536
230 11.9987
235 8.515
240 8.58571
245 12.2793
250 9.47052
255 9.55118
260 8.32252
265 11.5172
270 10.6286
275 9.36652
280 10.7626
285 9.77925
290 8.35345
295 10.0085
300 10.2321
305 10.2607
310 9.59328
315 11.2457
320 8.68212
325 10.6618
330 11.5766
335 9.28318
340 7.18597
345 8.31859
350 10.0278
355 9.34814
360 11.564
365 11.3995
370 9.70273
375 10.9795
380 11.5818
385 12.0776
390 12.3253
395 10.8292
400 11.2681
405 10.1997
410 13.4386
415 10.3717
420 10.0261
425 10.3832
430 9.88036
435 10.7018
440 9.30693
445 9.81201
450 11.9487
455 9.24422
460 9.38295
465 11.4475
470 11.1981
475 14.2906
480 11.5116
485 9.07418
490 8.33558
495 11.1719
500 11.8556
505 8.99521
510 9.73683
515 12.0641
520 12.0371
525 10.8648
530 11.2129
535 8.67075
540 11.6514
545 12.6839
550 10.2036
555 10.4102
560 10.9969
565 12.1632
570 10.0534
575 10.6188
580 10.9398
585 9.34286
590 9.98705
595 10.8145
600 9.05878
Ex : 248
200 7.96997
205 9.4634
210 9.08132
215 6.82549
220 7.94995
225 6.75589
230 8.63772
235 5.71991
240 8.76876
245 8.68192
250 8.94625
255 9.50827
260 10.7925
265 8.75393
270 6.37863
275 5.2629
280 7.04029
285 7.44628
290 7.72495
295 9.59569
300 9.40145
305 6.58835
310 9.6201
315 7.86028
320 10.7268
325 7.33096
330 9.8914
335 8.27795
340 9.60187
345 9.33491
350 11.9778
355 8.38364
360 10.202
365 7.72321
370 8.52339
375 10.1542
380 7.84081
385 8.63488
390 9.61614
395 10.2963
400 10.5718
405 10.2496
410 9.73205
415 8.22938
420 7.08503
425 9.15417
430 10.8666
435 10.0818
440 6.87352
445 7.43696
450 8.66558
455 10.5997
460 10.4655
465 10.128
470 10.2419
475 9.80815
480 6.44662
485 8.69572
490 7.37748
495 8.67924
500 8.77097
505 6.84594
510 7.76256
515 9.72778
520 7.91464
525 9.30469
530 10.2481
535 8.20433
540 8.54582
545 9.95083
550 9.92731
555 11.5166
560 9.67897
565 8.29417
570 6.83056
575 10.6058
580 8.12622
585 9.85847
590 8.79481
595 8.52064
600 0.969617
Ex : 253
200 6.87338
205 6.88535
210 6.88541
215 6.7432
220 6.27545
225 7.20697
230 8.29565
235 6.0997
240 7.64845
245 6.4227
250 5.87605
255 5.96128
260 6.52185
265 5.49672
270 8.23682
275 7.77179
280 6.8001
285 6.57032
290 5.78528
295 7.98718
300 5.5637
305 6.69815
310 7.30667
315 6.29156
320 8.36642
325 8.02607
330 8.8084
335 6.73743
340 6.33712
345 4.82766
350 7.09743
355 7.76592
360 7.12492
365 7.11044
370 7.28993
375 7.05583
380 7.58095
385 9.00989
390 7.14346
395 6.95814
400 7.65932
405 6.15009
410 7.43016
415 6.48664
420 7.66771
425 6.7396
430 6.71366
435 6.88291
440 5.94823
445 6.20195
450 7.87274
455 7.44334
460 8.56261
465 9.42272
470 7.10527
475 7.21958
480 6.9082
485 8.5031
490 7.43691
495 7.80769
500 6.72192
505 6.89809
510 6.09763
515 7.64109
520 6.46231
525 7.19267
530 7.28191
535 7.18164
540 7.46263
545 6.48214
550 5.53698
555 8.26885
560 8.0054
565 7.02959
570 5.89561
575 10.6264
580 8.61488
585 6.10413
590 6.38775
595 5.50132
600 2.2212
Ex : 258
200 4.4672
205 6.14799
210 4.70695
215 5.17402
220 4.92348
225 5.67112
230 6.41454
235 4.35405
240 4.94553
245 4.74734
250 5.73234
255 4.3313
260 4.39975
265 4.95478
270 5.39513
275 4.91328
280 5.8816
285 6.19076
290 5.4634
295 5.8136
300 5.6947
305 4.6057
310 7.47672
315 5.39107
320 5.93766
325 4.59018
330 6.53258
335 6.85605
340 4.55657
345 5.78612
350 6.40948
355 5.66384
360 4.89689
365 5.98351
370 4.44104
375 5.99106
380 5.82246
385 4.6603
390 6.54285
395 6.85918
400 6.42225
405 4.74179
410 5.49048
415 8.17374
420 6.59685
425 5.92374
430 5.81801
435 6.287
440 6.50303
445 7.1439
450 5.96213
455 6.03508
460 7.20657
465 6.54414
470 5.90697
475 6.37757
480 7.30304
485 5.0958
490 6.22877
495 5.69963
500 5.51476
505 6.20207
510 6.5336
515 5.71257
520 4.92811
525 4.23021
530 5.56805
535 4.8458
540 6.83462
545 5.84475
550 6.23553
555 5.95666
560 5.20356
565 5.38506
570 6.50137
575 7.1374
580 5.1584
585 4.53464
590 4.0732
595 5.78426
600 7.74786
Ex : 263
200 3.93192
205 3.68929
210 3.86752
215 5.12903
220 5.39122
225 3.9942
230 4.16866
235 4.47515
240 4.74064
245 4.38458
250 4.24902
255 4.24346
260 4.40887
265 4.73132
270 4.45959
275 5.08319
280 4.17098
285 3.5377
290 3.55054
295 3.764
300 4.40116
305 4.18859
310 3.7834
315 3.86541
320 3.7118
325 4.07916
330 4.51621
335 4.85346
340 3.76984
345 4.04281
350 4.84429
355 3.95714
360 4.05852
365 4.28673
370 3.79069
375 3.92784
380 4.70294
385 4.29614
390 4.84492
395 3.84623
400 3.95664
405 3.81061
410 3.92168
415 3.9777
420 4.92535
425 5.60854
430 4.59051
435 5.03029
440 4.22581
445 4.70362
450 5.15341
455 3.79293
460 4.64315
465 3.90083
470 5.30715
475 4.81172
480 5.75838
485 4.09105
490 3.083
495 4.65797
500 4.19822
505 6.4333
510 5.07462
515 4.92998
520 6.67051
525 5.85908
530 6.0577
535 4.05369
540 5.23347
545 4.20521
550 4.29028
555 3.83505
560 4.43597
565 4.05639
570 4.37679
575 3.96948
580 4.17431
585 4.20554
590 3.41571
595 3.79315
600 0.431646
Ex : 268
200 3.01399
205 2.65071
210 3.02891
215 2.27526
220 2.93583
225 3.39234
230 3.18074
235 3.54573
240 2.53101
245 4.01029
250 4.30149
255 3.88416
260 2.80278
265 3.52507
270 3.64639
275 3.50976
280 4.28251
285 3.70762
290 2.97401
295 3.28437
300 3.60977
305 3.4008
310 2.39256
315 3.00051
320 3.52667
325 3.37998
330 3.19237
335 2.98075
340 3.52511
345 3.2136
350 2.21503
355 2.7188
360 3.27089
365 3.28917
370 4.00846
375 3.36214
380 2.89086
385 3.75348
390 3.38361
395 4.37243
400 3.18544
405 3.48439
410 3.70105
415 3.51655
420 3.42882
425 2.99477
430 3.0643
435 3.75381
440 4.53028
445 3.74615
450 3.34733
455 3.84048
460 3.50907
465 4.60773
470 4.4855
475 3.25104
480 3.85794
485 3.28655
490 3.6805
495 3.01129
500 3.31605
505 3.21599
510 2.54274
515 3.29201
520 4.45809
525 3.79383
530 3.78997
535 4.35197
540 3.10473
545 2.91958
550 3.11715
555 2.55331
560 3.68907
565 3.34154
570 3.79017
575 4.38019
580 4.39269
585 3.16165
590 2.67576
595 2.86733
600 2.3519
Ex : 273
200 2.36576
205 2.86367
210 2.27985
215 2.47746
220 2.65848
225 2.63161
230 2.09493
235 3.05453
240 3.33769
245 2.16936
250 1.90711
255 1.82969
260 2.73913
265 1.93584
270 2.65628
275 2.06622
280 3.07786
285 2.92822
290 2.37268
295 2.00747
300 3.16267
305 2.65648
310 2.46446
315 3.01084
320 2.51886
325 2.92814
330 3.05028
335 2.63263
340 2.85302
345 2.68367
350 3.24913
355 2.57532
360 3.25973
365 2.46639
370 2.74618
375 3.17589
380 3.16407
385 2.78488
390 2.95227
395 3.11511
400 2.84187
405 2.90329
410 3.23376
415 4.07827
420 2.82475
425 3.4975
430 4.22941
435 2.82114
440 2.77474
445 3.63459
450 3.5292
455 3.80313
460 3.23695
465 3.0013
470 2.67797
475 4.04845
480 2.68683
485 2.15137
490 2.31376
495 2.95267
500 2.39305
505 3.26495
510 2.32465
515 3.45384
520 2.93366
525 3.83273
530 2.91701
535 2.74042
540 3.73393
545 3.87837
550 3.02701
555 2.79626
560 2.60272
565 2.17395
570 2.30352
575 2.21877
580 2.10743
585 2.85904
590 2.47312
595 2.50635
600 3.66387
Ex : 278
200 2.52184
205 2.51187
210 2.51042
215 1.83863
220 2.04841
225 1.67633
230 1.82269
235 2.18723
240 1.9541
245 2.17481
250 1.96931
255 2.20928
260 2.35632
265 1.93334
270 1.74001
275 2.61303
280 2.39703
285 1.8477
290 2.28039
295 2.67067
300 2.18275
305 1.80153
310 2.39668
315 1.89569
320 1.6932
325 2.34901
330 2.56172
335 2.76239
340 2.4169
345 2.44146
350 2.36297
355 2.02875
360 2.57927
365 2.35482
370 2.44891
375 2.4837
380 2.63475
385 3.31474
390 2.60907
395 2.45759
400 2.15932
405 2.26387
410 2.70825
415 2.36122
420 2.20217
425 2.20221
430 2.06323
435 2.54173
440 2.80375
445 2.77188
450 1.83303
455 2.3156
460 2.55853
465 2.82914
470 2.24101
475 2.35284
480 2.45885
485 2.92303
490 2.78264
495 2.20388
500 1.91747
505 1.49796
510 1.80718
515 2.32673
520 1.78588
525 2.4608
530 2.15231
535 2.06285
540 2.60192
545 2.69561
550 3.50531
555 2.49965
560 2.45706
565 2.1734
570 2.27691
575 1.88009
580 2.02214
585 2.02155
590 2.1567
595 1.81434
600 2.65116
Ex : 283
200 1.73155
205 1.42566
210 1.56389
215 1.61277
220 1.73409
225 1.77744
230 1.34953
235 1.73085
240 1.71909
245 1.66199
250 1.62681
255 1.52377
260 1.6905
265 1.63575
270 1.69129
275 1.92908
280 2.09707
285 1.9226
290 1.69366
295 1.98656
300 1.6352
305 1.40729
310 1.40677
315 2.14283
320 1.91047
325 1.62521
330 1.54031
335 1.85483
340 1.34464
345 1.84956
350 2.38966
355 2.19859
360 1.90347
365 2.07063
370 2.47149
375 2.85705
380 2.03822
385 2.27369
390 2.35514
395 3.00096
400 2.65112
405 2.52622
410 2.07329
415 1.82265
420 2.02686
425 2.36618
430 2.80219
435 2.4367
440 1.99104
445 2.45258
450 2.01573
455 1.77865
460 2.71995
465 2.59619
470 2.28822
475 2.09647
480 2.14701
485 1.83704
490 1.39824
495 2.03221
500 1.69106
505 1.64635
510 1.8248
515 1.73518
520 1.79074
525 1.669
530 1.66282
535 1.46787
540 2.15006
545 2.07963
550 2.33271
555 2.16172
560 2.373
565 2.37374
570 1.94647
575 2.22853
580 2.09961
585 1.38196
590 1.70431
595 1.31345
600 0.22132
Ex : 288
200 1.79394
205 1.7048
210 1.68036
215 1.76989
220 1.86213
225 1.81473
230 1.83796
235 1.61893
240 1.48305
245 1.38566
250 1.7512
255 1.62761
260 1.45232
265 1.47979
270 1.70558
275 1.36238
280 1.73639
285 1.86929
290 1.89254
295 1.69677
300 1.44895
305 1.54595
310 1.39367
315 1.64212
320 1.00998
325 1.70483
330 1.79838
335 1.39657
340 1.76889
345 1.60681
350 1.78133
355 2.04119
360 1.43149
365 2.06016
370 1.61075
375 1.83181
380 2.238
385 2.12501
390 1.9932
395 1.77658
400 2.21037
405 1.8103
410 1.90796
415 1.86202
420 1.93466
425 1.83359
430 1.67681
435 1.8972
440 1.62439
445 1.48866
450 1.93501
455 1.91046
460 1.69715
465 1.58981
470 1.53969
475 1.31928
480 1.39804
485 1.72355
490 1.86915
495 1.76002
500 1.49714
505 1.55518
510 1.4973
515 1.8841
520 1.1455
525 1.68085
530 1.49692
535 1.4889
540 1.13611
545 1.59692
550 1.59761
555 1.12246
560 1.78406
565 2.09537
570 1.99138
575 1.61375
580 1.48937
585 1.34254
590 1.4625
595 1.19584
600 0.31735
Ex : 293
200 1.31991
205 1.25733
210 1.54028
215 1.09916
220 1.43541
225 1.0649
230 0.976083
235 1.56282
240 1.06861
245 1.1967
250 0.897643
255 1.40376
260 1.82315
265 1.08867
270 1.2627
275 1.30805
280 1.45101
285 1.41677
290 1.52461
295 1.18351
300 0.995527
305 1.11576
310 1.0973
315 1.2074
320 1.00344
325 1.34429
330 1.1209
335 1.12957
340 1.47095
345 1.87131
350 1.47026
355 1.24728
360 1.55702
365 1.48028
370 1.40235
375 1.5215
380 1.89946
385 1.55631
390 1.84562
395 1.89931
400 2.11053
405 1.99497
410 1.63878
415 1.96014
420 1.48983
425 1.61814
430 1.64073
435 1.63394
440 1.78244
445 1.6132
450 1.61105
455 1.69724
460 1.51111
465 1.47087
470 1.91073
475 1.26803
480 1.16316
485 1.2723
490 1.47347
495 1.12598
500 1.15074
505 1.44283
510 1.36285
515 1.10596
520 1.61551
525 1.42552
530 1.53307
535 1.25547
540 1.78186
545 1.58025
550 1.50289
555 1.55733
560 1.43936
565 0.996351
570 1.27806
575 1.99236
580 1.78701
585 1.97912
590 1.41258
595 1.26508
600 7.71362
Ex : 298
200 1.25908
205 1.29185
210 1.17289
215 1.08207
220 0.89392
225 0.945625
230 1.13768
235 1.2636
240 1.05933
245 1.06912
250 0.724583
255 1.05724
260 1.17152
265 1.19268
270 1.44671
275 1.20503
280 1.02837
285 0.887968
290 1.41775
295 1.50891
300 1.22689
305 0.976162
310 0.95285
315 1.10577
320 0.927842
325 1.07275
330 0.951681
335 1.09212
340 1.19734
345 0.953537
350 1.43019
355 1.1754
360 1.37807
365 1.34951
370 1.31989
375 1.43308
380 1.34916
385 1.93275
390 1.51438
395 1.57792
400 1.77964
405 1.44306
410 1.74579
415 1.68158
420 1.51867
425 1.80883
430 1.56419
435 1.51239
440 1.40062
445 1.68116
450 1.6851
455 1.20337
460 1.53573
465 1.63413
470 1.49573
475 1.47757
480 1.32397
485 1.77143
490 1.34854
495 1.22352
500 1.53225
505 1.16328
510 1.40705
515 1.14004
520 1.35634
525 1.66482
530 1.19534
535 1.33115
540 1.14769
545 1.08791
550 1.01037
555 1.2738
560 0.926556
565 1.02191
570 1.09064
575 1.42101
580 1.2146
585 1.40474
590 2.116
595 1.88608
600 1.55921
Ex : 303
200 0.78495
205 0.781798
210 0.971043
215 0.996705
220 0.936211
225 0.834807
230 1.14897
235 1.26911
240 1.1534
245 1.01144
250 0.924665
255 1.25786
260 1.31096
265 1.19003
270 0.859085
275 1.04159
280 0.802235
285 0.932664
290 0.930787
295 1.1324
300 1.52061
305 1.23141
310 0.867777
315 1.09273
320 0.991541
325 0.808957
330 1.14116
335 0.973019
340 0.998851
345 0.910579
350 0.992337
355 0.999758
360 1.31215
365 1.13004
370 1.12704
375 1.43467
380 1.27125
385 1.65256
390 1.61648
395 1.47404
400 1.54125
405 1.80558
410 1.46801
415 1.35108
420 1.73705
425 1.47145
430 1.26041
435 1.26537
440 1.42261
445 1.34814
450 1.48618
455 1.31259
460 1.59663
465 1.13565
470 0.857186
475 1.02918
480 1.33489
485 1.09784
490 1.15128
495 1.04414
500 0.890438
505 1.14852
510 1.05383
515 1.27788
520 1.10819
525 1.17812
530 0.924282
535 0.941132
540 1.05876
545 1.1584
550 1.18189
555 1.02576
560 1.02313
565 1.1205
570 1.1621
575 1.1852
580 0.93573
585 0.753767
590 0.829208
595 1.20764
600 1.85612
Ex : 308
200 0.852904
205 0.830343
210 0.705222
215 0.690488
220 0.976811
225 1.01637
230 0.828329
235 0.908723
240 1.02076
245 0.843372
250 0.628701
255 0.82874
260 1.06377
265 0.901499
270 1.01187
275 0.85421
280 1.01282
285 1.00981
290 0.803223
295 0.676559
300 1.04958
305 1.31915
310 1.00144
315 0.828819
320 1.05824
325 0.893353
330 1.0347
335 0.914856
340 0.884704
345 0.860159
350 1.03003
355 1.01426
360 1.24734
365 1.0598
370 1.15907
375 1.38859
380 1.37765
385 1.28288
390 1.37594
395 1.5715
400 1.34693
405 1.49049
410 1.54673
415 1.4492
420 1.39614
425 1.2398
430 1.37658
435 1.35351
440 1.16449
445 1.45427
450 1.0035
455 0.902796
460 0.983097
465 1.20047
470 0.900626
475 1.05177
480 1.41604
485 1.19041
490 1.19591
495 1.29596
500 1.23049
505 1.05843
510 1.00304
515 0.910751
520 1.1889
525 0.737095
530 0.806458
535 0.896932
540 0.716854
545 0.953611
550 0.96801
555 1.04427
560 1.13815
565 0.858105
570 0.920254
575 0.879488
580 1.03648
585 0.866958
590 0.916477
595 0.69933
600 0.988508
Ex : 313
200 0.900742
205 0.825702
210 0.735119
215 0.814747
220 0.803151
225 0.659116
230 0.808807
235 0.615065
240 0.730944
245 0.601777
250 0.595718
255 0.822195
260 0.741474
265 0.765883
270 0.606468
275 0.8303
280 0.729918
285 0.674923
290 0.658899
295 0.693831
300 0.659061
305 1.0465
310 1.03101
315 0.791273
320 0.811326
325 1.12853
330 0.904531
335 0.972046
340 1.00372
345 0.938853
350 1.02851
355 1.07313
360 1.32184
365 1.10655
370 1.38637
375 1.3099
380 1.30458
385 1.32727
390 1.67366
395 1.64112
400 1.47475
405 1.55623
410 1.39153
415 1.59622
420 1.53006
425 1.54938
430 1.29057
435 1.48205
440 1.44622
445 1.35175
450 1.19524
455 1.41002
460 1.15361
465 1.196
470 1.22602
475 1.01642
480 0.959142
485 1.12921
490 1.00284
495 1.03629
500 1.15265
505 0.976775
510 0.773843
515 1.0102
520 1.05801
525 0.892095
530 0.727539
535 0.838874
540 0.838427
545 0.886566
550 0.853817
555 0.811459
560 0.62054
565 0.732193
570 0.704971
575 1.01569
580 0.787782
585 0.805654
590 0.712666
595 0.719391
600 0.805088
Ex : 318
200 0.708415
205 0.541441
210 0.789742
215 0.668682
220 0.66719
225 0.62311
230 0.726131
235 0.672469
240 0.589508
245 0.608567
250 0.586371
255 0.643985
260 0.726557
265 0.802442
270 0.669072
275 0.652193
280 0.729113
285 0.729642
290 0.617144
295 0.82749
300 0.691131
305 0.518748
310 1.03529
315 1.52196
320 1.07136
325 0.95211
330 1.28286
335 1.22323
340 1.68149
345 1.85905
350 2.52064
355 2.88871
360 3.52394
365 4.04084
370 4.63945
375 5.7956
380 5.77332
385 6.67314
390 7.16792
395 7.62169
400 7.7481
405 7.82631
410 7.8325
415 8.08419
420 7.62688
425 7.46864
430 7.36253
435 6.98375
440 7.36092
445 6.27146
450 6.11311
455 5.89818
460 5.83464
465 5.02419
470 4.64471
475 4.02935
480 3.78854
485 3.3576
490 3.57224
495 2.85111
500 2.50136
505 2.53867
510 2.32063
515 2.06391
520 1.90509
525 1.52322
530 1.31598
535 1.31731
540 1.27586
545 1.10829
550 1.16982
555 1.1713
560 0.918453
565 0.992934
570 0.760979
575 1.01983
580 0.876735
585 0.784462
590 0.725269
595 0.637241
600 1.45608
Ex : 323
200 0.824905
205 0.604272
210 0.52786
215 0.575948
220 0.653712
225 0.612111
230 0.59975
235 0.632396
240 0.711437
245 0.517394
250 0.777144
255 0.694515
260 0.733155
265 0.566724
270 0.42221
275 0.69905
280 0.725218
285 0.740252
290 0.659378
295 0.584716
300 0.636609
305 0.762089
310 0.612676
315 4.30051
320 19.2924
325 8.53378
330 3.20342
335 3.61203
340 4.79155
345 6.17823
350 8.49607
355 11.539
360 13.62
365 16.5655
370 19.3919
375 22.7574
380 25.547
385 28.2138
390 30.8499
395 33.3223
400 35.043
405 34.8446
410 35.5569
415 34.7264
420 33.2625
425 32.5124
430 31.5326
435 29.6444
440 29.1997
445 27.5609
450 25.6151
455 23.969
460 21.4423
465 20.296
470 19.1966
475 17.1788
480 16.0846
485 14.528
490 13.3654
495 12.0138
500 10.9483
505 9.64539
510 8.12429
515 7.18629
520 6.13973
525 5.69032
530 5.12722
535 4.51755
540 3.95146
545 3.45282
550 3.12359
555 2.75786
560 2.56344
565 2.33876
570 2.06056
575 1.53676
580 1.39254
585 1.15522
590 1.06762
595 1.01856
600 0.919289
Ex : 328
200 0.497588
205 0.658008
210 0.519961
215 0.580023
220 0.574485
225 0.747194
230 0.618474
235 0.706745
240 0.58002
245 0.630246
250 0.488062
255 0.557662
260 0.584735
265 0.513242
270 0.425488
275 0.60509
280 0.646355
285 0.482736
290 0.46286
295 0.643118
300 0.559685
305 0.516862
310 0.606268
315 1.56025
320 42.6766
325 105.617
330 33.5597
335 8.32806
340 6.86923
345 7.86382
350 10.2919
355 14.276
360 19.051
365 21.1387
370 24.1704
375 26.5241
380 30.6415
385 33.8453
390 36.8283
395 39.6094
400 40.6306
405 41.2718
410 42.6784
415 42.3177
420 40.6422
425 38.7646
430 37.1442
435 35.2075
440 33.6645
445 31.7484
450 31.1196
455 27.4543
460 26.3903
465 23.8683
470 22.1531
475 19.975
480 18.9378
485 16.9496
490 16.0669
495 14.4314
500 12.2922
505 10.744
510 9.63347
515 8.72671
520 7.49255
525 6.90491
530 6.15517
535 5.4708
540 4.70259
545 4.27818
550 3.70996
555 3.15963
560 3.02015
565 2.38234
570 2.01038
575 1.74703
580 1.58749
585 1.22441
590 1.13356
595 1.04501
600 1.17339
Ex : 333
200 0.525862
205 0.486245
210 0.44993
215 0.541923
220 0.544784
225 0.605352
230 0.48569
235 0.588926
240 0.559792
245 0.483552
250 0.479146
255 0.31527
260 0.578133
265 0.574173
270 0.475727
275 0.545651
280 0.580842
285 0.625632
290 0.633129
295 0.563276
300 0.597494
305 0.561878
310 0.56387
315 0.564871
320 7.29289
325 136.288
330 229.254
335 58.982
340 10.9241
345 6.60527
350 6.92592
355 7.9289
360 10.9086
365 16.1306
370 17.1465
375 16.7012
380 17.8846
385 19.9474
390 22.6775
395 23.7926
400 24.3209
405 24.678
410 25.2591
415 24.9858
420 24.4225
425 23.2226
430 22.1671
435 20.7322
440 19.8593
445 19.0621
450 17.6832
455 16.451
460 15.1399
465 14.8771
470 13.0957
475 11.5482
480 10.9021
485 10.263
490 9.45459
495 8.6729
500 7.69631
505 7.18866
510 6.07421
515 5.33418
520 4.77402
525 4.41482
530 4.03503
535 3.50929
540 3.47916
545 2.91964
550 2.46028
555 2.30346
560 1.95476
565 1.78289
570 1.56678
575 1.3721
580 1.27032
585 1.06748
590 0.959183
595 0.890073
600 1.21245
Ex : 338
200 0.48856
205 0.506038
210 0.531261
215 0.420705
220 0.575036
225 0.422051
230 0.446623
235 0.517058
240 0.488926
245 0.598331
250 0.449925
255 0.451668
260 0.517361
265 0.512621
270 0.498737
275 0.502101
280 0.484758
285 0.503599
290 0.429238
295 0.60321
300 0.46531
305 0.547271
310 0.520948
315 0.712235
320 0.72205
325 13.6164
330 209.206
335 300.657
340 73.6756
345 12.057
350 5.60982
355 4.93868
360 4.89464
365 6.72087
370 12.0089
375 12.0521
380 10.7188
385 11.1366
390 11.8199
395 12.9844
400 13.0551
405 13.5306
410 14.254
415 15.1241
420 14.1802
425 13.565
430 12.6178
435 11.9818
440 12.0059
445 11.3565
450 10.2662
455 9.4055
460 8.83657
465 8.73532
470 8.33869
475 7.17186
480 6.78032
485 6.10386
490 5.62911
495 5.68034
500 4.87007
505 4.61208
510 4.04071
515 3.62225
520 3.46052
525 3.10162
530 2.71222
535 2.34888
540 2.15908
545 2.13436
550 1.81119
555 1.70944
560 1.53744
565 1.58462
570 1.37204
575 1.08743
580 1.2032
585 0.908298
590 0.715217
595 0.833852
600 0.894332
Ex : 343
200 0.440234
205 0.344628
210 0.410089
215 0.462903
220 0.445615
225 0.336943
230 0.393383
235 0.450359
240 0.438608
245 0.544805
250 0.447975
255 0.590768
260 0.481829
265 0.540555
270 0.446408
275 0.488177
280 0.408015
285 0.425975
290 0.421497
295 0.415459
300 0.482466
305 0.48561
310 0.50458
315 0.547952
320 0.483031
325 0.722849
330 15.5884
335 234.122
340 330.428
345 79.2524
350 12.1423
355 4.88753
360 3.8175
365 3.11518
370 4.34853
375 8.6256
380 9.91508
385 9.22336
390 9.32242
395 9.41888
400 9.1378
405 10.058
410 10.5102
415 11.1249
420 11.2675
425 10.5258
430 9.8521
435 9.91847
440 9.71532
445 9.15769
450 8.34535
455 7.69366
460 7.23153
465 6.60192
470 6.61952
475 6.3832
480 6.03962
485 5.26548
490 4.94244
495 4.20914
500 4.17527
505 3.82832
510 3.4762
515 3.22744
520 2.92101
525 2.52657
530 2.42952
535 2.1613
540 2.11233
545 1.76883
550 1.90445
555 1.68116
560 1.42986
565 1.26991
570 1.15529
575 1.02772
580 0.842667
585 0.907992
590 0.785298
595 0.742682
600 0.475825
Ex : 348
200 0.429501
205 0.389753
210 0.369341
215 0.357263
220 0.421898
225 0.477313
230 0.456344
235 0.273258
240 0.354058
245 0.587235
250 0.415173
255 0.414516
260 0.40178
265 0.400715
270 0.435448
275 0.298025
280 0.343049
285 0.349913
290 0.440241
295 0.444364
300 0.330421
305 0.424934
310 0.486678
315 0.527931
320 0.467452
325 0.643699
330 0.878252
335 16.41
340 236.821
345 349.472
350 89.6784
355 12.669
360 4.23205
365 3.21034
370 2.54789
375 3.1772
380 7.48552
385 11.4338
390 11.4364
395 10.5905
400 9.59832
405 9.85892
410 11.3514
415 12.5401
420 11.7802
425 10.8864
430 10.5034
435 10.4521
440 10.3332
445 9.48126
450 8.90728
455 8.29224
460 7.75857
465 7.00633
470 6.99932
475 6.6666
480 6.0145
485 5.67789
490 4.99082
495 4.57962
500 4.44515
505 4.06655
510 3.43801
515 3.04562
520 2.83652
525 2.65662
530 2.65361
535 2.28442
540 2.07254
545 1.85382
550 1.62782
555 1.43584
560 1.56522
565 1.30115
570 1.22
575 1.03983
580 0.911864
585 0.821741
590 0.838702
595 0.62622
600 0.325979
Ex : 353
200 0.484536
205 0.421576
210 0.433511
215 0.410395
220 0.281626
225 0.429559
230 0.393663
235 0.398099
240 0.40475
245 0.424398
250 0.350445
255 0.322979
260 0.403166
265 0.283208
270 0.355812
275 0.388148
280 0.362225
285 0.370499
290 0.453048
295 0.26942
300 0.341558
305 0.340165
310 0.39213
315 0.578589
320 0.434906
325 0.575033
330 0.592964
335 0.920002
340 17.4454
345 249.585
350 348.373
355 84.6882
360 11.8618
365 3.81123
370 2.86743
375 2.50897
380 3.51407
385 7.79041
390 13.4357
395 12.7449
400 10.7733
405 10.102
410 11.5916
415 13.1689
420 13.1239
425 11.7038
430 10.7025
435 10.7495
440 10.9
445 10.4592
450 9.83092
455 8.53319
460 8.03513
465 7.54409
470 7.09366
475 6.61667
480 6.073
485 5.83
490 5.57811
495 5.03768
500 4.44209
505 3.99022
510 3.52322
515 3.39151
520 2.87734
525 2.73067
530 2.51229
535 2.22714
540 2.00504
545 2.05037
550 1.83026
555 1.48755
560 1.25269
565 1.18003
570 1.11151
575 1.00303
580 0.792301
585 0.713615
590 0.661392
595 0.630444
600 1.25335
Ex : 358
200 0.371591
205 0.352786
210 0.366341
215 0.449513
220 0.395617
225 0.473002
230 0.392642
235 0.353993
240 0.497061
245 0.342877
250 0.246453
255 0.310433
260 0.375727
265 0.524513
270 0.467642
275 0.340174
280 0.392485
285 0.422905
290 0.301404
295 0.422975
300 0.392584
305 0.444563
310 0.482022
315 0.415862
320 0.388434
325 0.462752
330 0.508174
335 0.657723
340 0.812561
345 16.0987
350 245.7
355 358.03
360 88.5721
365 12.0527
370 3.64247
375 3.06917
380 2.95262
385 4.92058
390 8.82331
395 12.9389
400 12.3075
405 10.7007
410 11.2805
415 12.3805
420 12.3943
425 11.0596
430 10.3837
435 10.1863
440 10.605
445 10.4137
450 9.36948
455 8.54101
460 7.88308
465 7.62429
470 7.44152
475 6.97126
480 6.29458
485 5.66679
490 5.25138
495 4.78008
500 4.30809
505 4.13483
510 3.70225
515 3.37623
520 3.02255
525 2.5149
530 2.4321
535 2.3617
540 2.11686
545 1.80135
550 1.77664
555 1.62335
560 1.37818
565 1.30021
570 1.21392
575 1.09005
580 0.779083
585 0.731814
590 0.654064
595 0.689475
600 0.57181
Ex : 363
200 0.301095
205 0.355473
210 0.350798
215 0.362212
220 0.398484
225 0.356099
230 0.326251
235 0.354905
240 0.32913
245 0.420291
250 0.398132
255 0.241922
260 0.403024
265 0.390537
270 0.327078
275 0.273748
280 0.368709
285 0.298679
290 0.341813
295 0.289964
300 0.446654
305 0.384829
310 0.391353
315 0.423386
320 0.388632
325 0.393121
330 0.375756
335 0.584968
340 0.629083
345 0.81277
350 14.8867
355 244.724
360 360.223
365 92.6425
370 12.6666
375 3.66614
380 4.03357
385 6.09072
390 7.58401
395 9.03413
400 12.2098
405 13.7153
410 14.0563
415 13.8054
420 13.7254
425 11.7119
430 10.9303
435 11.4357
440 11.5669
445 11.3025
450 10.3793
455 9.61744
460 8.40024
465 8.19333
470 7.50729
475 7.17578
480 6.76842
485 6.13649
490 5.52515
495 5.22592
500 4.68881
505 4.36017
510 3.7915
515 3.38299
520 3.07406
525 2.81343
530 2.46753
535 2.22277
540 2.08262
545 1.8699
550 1.65319
555 1.5236
560 1.47456
565 1.27347
570 1.11037
575 0.9967
580 0.825782
585 0.685458
590 0.661317
595 0.476824
600 0.695253
Ex : 368
200 0.248472
205 0.322585
210 0.344134
215 0.285361
220 0.260822
225 0.300243
230 0.308964
235 0.335889
240 0.323348
245 0.274729
250 0.375023
255 0.322155
260 0.288075
265 0.279569
270 0.441052
275 0.440407
280 0.280449
285 0.261852
290 0.365941
295 0.335955
300 0.355485
305 0.348534
310 0.376811
315 0.370538
320 0.279083
325 0.405185
330 0.369364
335 0.444756
340 0.529801
345 0.533657
350 0.752027
355 12.301
360 227.684
365 368.107
370 96.6616
375 13.2544
380 4.72893
385 6.78652
390 9.48983
395 10.3043
400 10.2752
405 13.7444
410 18.1077
415 18.5024
420 16.7235
425 14.3573
430 13.4048
435 13.0102
440 13.5437
445 13.1468
450 11.8689
455 10.86
460 9.72126
465 9.56248
470 8.7626
475 8.01817
480 7.31195
485 6.70998
490 5.90005
495 5.59312
500 5.01229
505 4.39473
510 3.89453
515 3.62995
520 3.2465
525 2.96465
530 2.72532
535 2.34653
540 1.96815
545 1.97338
550 1.78302
555 1.66212
560 1.37123
565 1.25916
570 1.13235
575 0.864742
580 0.866703
585 0.663498
590 0.646261
595 0.510866
600 0.460585
Ex : 373
200 0.329402
205 0.279667
210 0.334518
215 0.319983
220 0.405466
225 0.314929
230 0.257251
235 0.375254
240 0.277016
245 0.283886
250 0.354902
255 0.335089
260 0.448277
265 0.348955
270 0.242945
275 0.238318
280 0.25245
285 0.419105
290 0.347603
295 0.307031
300 0.267226
305 0.303536
310 0.28696
315 0.285388
320 0.318953
325 0.344438
330 0.307139
335 0.429516
340 0.464921
345 0.476088
350 0.667906
355 0.814934
360 14.5063
365 232.312
370 381.259
375 99.2957
380 13.9951
385 6.13195
390 9.39547
395 10.9297
400 10.1642
405 9.9857
410 14.552
415 19.1409
420 18.4915
425 15.486
430 13.102
435 12.2588
440 12.3516
445 12.8838
450 11.4219
455 10.6818
460 9.32965
465 8.88722
470 8.3558
475 7.74228
480 7.31802
485 6.4948
490 6.07892
495 5.27629
500 4.58224
505 4.33402
510 3.89846
515 3.4735
520 3.13114
525 2.82178
530 2.75508
535 2.43489
540 2.14297
545 1.8705
550 1.77836
555 1.46396
560 1.37012
565 1.20607
570 1.14024
575 0.931801
580 0.795598
585 0.671691
590 0.647732
595 0.547317
600 0.198622
Ex : 378
200 0.227712
205 0.243601
210 0.251801
215 0.292305
220 0.297904
225 0.372958
230 0.302442
235 0.308347
240 0.313245
245 0.309077
250 0.290389
255 0.341642
260 0.325813
265 0.344286
270 0.30029
275 0.269855
280 0.289345
285 0.296406
290 0.345327
295 0.332073
300 0.317357
305 0.261223
310 0.339433
315 0.265084
320 0.447518
325 0.323477
330 0.260294
335 0.336447
340 0.349508
345 0.388952
350 0.387439
355 0.59424
360 0.784307
365 13.5238
370 236.734
375 377.24
380 107.227
385 16.6576
390 7.94349
395 8.64792
400 7.7825
405 7.70599
410 9.70431
415 13.0623
420 15.7976
425 13.8689
430 11.7139
435 10.9108
440 10.8314
445 10.3598
450 9.67803
455 8.82721
460 8.09335
465 7.77871
470 7.45382
475 7.16855
480 6.60034
485 6.07964
490 5.52813
495 5.00032
500 4.82979
505 4.08585
510 3.71602
515 3.52245
520 3.22862
525 2.71779
530 2.54525
535 2.20506
540 2.06443
545 2.06405
550 1.69306
555 1.58552
560 1.35044
565 1.24492
570 1.0682
575 0.814724
580 0.813082
585 0.69443
590 0.636968
595 0.503869
600 0.652983
Ex : 383
200 0.237551
205 0.325575
210 0.324606
215 0.283158
220 0.246356
225 0.402887
230 0.354857
235 0.297087
240 0.299727
245 0.346744
250 0.333448
255 0.255761
260 0.250883
265 0.270279
270 0.242838
275 0.247697
280 0.308002
285 0.270408
290 0.319861
295 0.317798
300 0.284946
305 0.282244
310 0.292601
315 0.242436
320 0.275725
325 0.32447
330 0.346916
335 0.330085
340 0.386358
345 0.323454
350 0.383381
355 0.384879
360 0.487191
365 0.793668
370 13.3717
375 238.682
380 396.517
385 107.37
390 18.5198
395 8.33142
400 7.37366
405 8.33594
410 10.1082
415 12.1411
420 12.2667
425 13.7747
430 13.7875
435 12.5121
440 11.8176
445 10.6566
450 10.086
455 8.94844
460 8.25769
465 8.0588
470 7.93981
475 7.37499
480 6.71622
485 6.32585
490 5.64897
495 5.22858
500 4.97869
505 4.26589
510 3.95682
515 3.64094
520 3.09617
525 2.82681
530 2.57867
535 2.25967
540 2.05343
545 1.85803
550 1.72041
555 1.48678
560 1.33794
565 1.06682
570 1.12302
575 0.865194
580 0.701247
585 0.72847
590 0.614322
595 0.527367
600 0.308771
Ex : 388
200 0.278042
205 0.257583
210 0.317302
215 0.256961
220 0.324107
225 0.280935
230 0.247526
235 0.282339
240 0.286936
245 0.29857
250 0.273209
255 0.272315
260 0.314069
265 0.353883
270 0.300792
275 0.266855
280 0.198623
285 0.320375
290 0.269005
295 0.236107
300 0.282021
305 0.202233
310 0.243562
315 0.208947
320 0.313293
325 0.285761
330 0.355957
335 0.329635
340 0.295103
345 0.374215
350 0.400008
355 0.464559
360 0.482639
365 0.553792
370 0.704286
375 15.041
380 248.993
385 408.365
390 113.247
395 20.9178
400 9.87207
405 9.7357
410 12.407
415 14.4026
420 13.5145
425 12.8628
430 13.997
435 15.694
440 14.397
445 13.4809
450 11.652
455 10.3162
460 9.19853
465 8.53833
470 8.91804
475 7.95657
480 7.48163
485 6.6344
490 5.82529
495 5.59005
500 4.97851
505 4.59837
510 4.07408
515 3.65635
520 3.27379
525 2.88765
530 2.67556
535 2.28714
540 2.14623
545 2.00913
550 1.79013
555 1.46852
560 1.45867
565 1.29558
570 1.07589
575 0.806162
580 0.886871
585 0.665191
590 0.502265
595 0.538984
600 0.154971
Ex : 393
200 0.245376
205 0.236793
210 0.261703
215 0.221397
220 0.1951
225 0.291236
230 0.215189
235 0.243169
240 0.345127
245 0.298378
250 0.310917
255 0.35223
260 0.335534
265 0.313052
270 0.313091
275 0.252759
280 0.300206
285 0.268391
290 0.293651
295 0.324088
300 0.261518
305 0.355158
310 0.244058
315 0.263268
320 0.303409
325 0.300426
330 0.277809
335 0.333459
340 0.34814
345 0.332445
350 0.342623
355 0.333275
360 0.484052
365 0.468746
370 0.591505
375 0.830739
380 13.2603
385 248.226
390 416.116
395 116.994
400 21.3669
405 9.869
410 11.3428
415 14.157
420 14.1342
425 12.043
430 11.0728
435 12.1083
440 15.2936
445 13.8467
450 11.5902
455 9.87422
460 8.59722
465 8.07591
470 7.59182
475 7.42702
480 6.72192
485 6.08215
490 5.69376
495 5.09761
500 4.78846
505 4.51033
510 4.04552
515 3.6053
520 3.07823
525 2.87056
530 2.63149
535 2.23034
540 2.12178
545 1.93742
550 1.75415
555 1.66547
560 1.53455
565 1.15487
570 1.10022
575 0.966644
580 0.692883
585 0.668337
590 0.58584
595 0.447284
600 0.11125
Ex : 398
200 0.215578
205 0.247214
210 0.251154
215 0.197553
220 0.222895
225 0.226386
230 0.252584
235 0.287115
240 0.232704
245 0.21964
250 0.237718
255 0.208135
260 0.278257
265 0.236994
270 0.289692
275 0.245661
280 0.271001
285 0.252336
290 0.28038
295 0.264917
300 0.240334
305 0.223
310 0.272181
315 0.274931
320 0.266511
325 0.271054
330 0.233829
335 0.244079
340 0.299167
345 0.292196
350 0.362655
355 0.380232
360 0.332423
365 0.357862
370 0.401516
375 0.556407
380 1.00438
385 14.3389
390 261.683
395 432.748
400 116.763
405 18.3204
410 8.8476
415 9.34296
420 10.0584
425 8.2949
430 7.53855
435 7.68544
440 8.80862
445 11.2438
450 10.4292
455 8.51826
460 7.33762
465 6.50519
470 6.38711
475 5.86846
480 5.61508
485 5.15104
490 4.799
495 4.48745
500 4.07623
505 3.73266
510 3.40822
515 3.14231
520 2.87542
525 2.76515
530 2.35046
535 2.19883
540 1.93788
545 1.75365
550 1.63571
555 1.43482
560 1.19553
565 1.17581
570 0.958077
575 0.896064
580 0.662044
585 0.561351
590 0.496545
595 0.441892
600 0.668844
Ex : 403
200 0.261684
205 0.264206
210 0.236269
215 0.228792
220 0.272328
225 0.221751
230 0.276223
235 0.25058
240 0.270921
245 0.210302
250 0.21794
255 0.227343
260 0.267412
265 0.24318
270 0.280638
275 0.269963
280 0.255911
285 0.210201
290 0.238782
295 0.256672
300 0.298112
305 0.212991
310 0.305241
315 0.30605
320 0.22228
325 0.24526
330 0.227176
335 0.279022
340 0.2834
345 0.330366
350 0.328507
355 0.382335
360 0.405918
365 0.320429
370 0.384734
375 0.373602
380 0.51785
385 0.903456
390 16.4253
395 269.288
400 438.245
405 117.445
410 17.843
415 7.36562
420 6.69999
425 6.50003
430 5.70187
435 5.82368
440 6.30035
445 7.126
450 9.02657
455 8.79368
460 7.22318
465 6.52297
470 5.95818
475 5.54849
480 5.10726
485 4.91104
490 4.59406
495 4.34814
500 3.79531
505 3.59431
510 3.46438
515 3.14346
520 2.92101
525 2.71868
530 2.33731
535 2.07548
540 1.95041
545 1.65616
550 1.54169
555 1.42492
560 1.21957
565 1.09937
570 1.0727
575 0.816448
580 0.707464
585 0.647844
590 0.552934
595 0.462247
600 0.23901
Ex : 408
200 0.283217
205 0.27432
210 0.237493
215 0.245283
220 0.261597
225 0.309274
230 0.275756
235 0.211147
240 0.191375
245 0.244937
250 0.187053
255 0.218922
260 0.23522
265 0.267905
270 0.213351
275 0.271218
280 0.235554
285 0.278829
290 0.271038
295 0.236118
300 0.252311
305 0.278
310 0.258574
315 0.293988
320 0.282453
325 0.284809
330 0.31136
335 0.277065
340 0.348889
345 0.3061
350 0.310218
355 0.348875
360 0.303564
365 0.306305
370 0.338951
375 0.443545
380 0.43871
385 0.599596
390 0.945514
395 14.67
400 269.259
405 491.525
410 127.998
415 20.2892
420 8.14445
425 6.40443
430 6.09802
435 6.34806
440 6.74069
445 7.12675
450 6.77068
455 7.86984
460 9.09246
465 7.69339
470 6.68136
475 6.13024
480 5.36283
485 4.8744
490 4.79922
495 4.33089
500 4.09195
505 3.65729
510 3.33616
515 3.13636
520 2.85775
525 2.63948
530 2.4153
535 2.17955
540 1.87307
545 1.7405
550 1.60161
555 1.44516
560 1.16161
565 1.07099
570 1.01796
575 0.791448
580 0.687773
585 0.642031
590 0.557771
595 0.424166
600 0.542267
Ex : 413
200 0.198921
205 0.229279
210 0.190794
215 0.242981
220 0.256635
225 0.279642
230 0.273856
235 0.200166
240 0.242179
245 0.244246
250 0.258743
255 0.246775
260 0.27341
265 0.301765
270 0.257978
275 0.234235
280 0.317278
285 0.265849
290 0.203657
295 0.244638
300 0.197003
305 0.22785
310 0.259321
315 0.307375
320 0.313031
325 0.331211
330 0.271898
335 0.295491
340 0.304644
345 0.359653
350 0.347834
355 0.310578
360 0.345891
365 0.271961
370 0.265994
375 0.362508
380 0.453734
385 0.488501
390 0.6043
395 0.899649
400 16.9823
405 297.105
410 494.9
415 121.69
420 18.8794
425 6.90474
430 5.60016
435 6.01623
440 6.37852
445 6.19276
450 5.97092
455 5.62444
460 6.54186
465 8.29491
470 7.35787
475 6.06206
480 5.42535
485 4.92581
490 4.32499
495 3.89764
500 3.73716
505 3.2977
510 3.20728
515 3.04799
520 2.83892
525 2.3823
530 2.22912
535 2.03568
540 1.81447
545 1.71163
550 1.55324
555 1.33332
560 1.24592
565 1.17816
570 1.06429
575 0.805391
580 0.735905
585 0.58854
590 0.530542
595 0.476951
600 0.261933
Ex : 418
200 0.267375
205 0.235735
210 0.272591
215 0.255631
220 0.252114
225 0.256772
230 0.233389
235 0.235631
240 0.25227
245 0.248386
250 0.245039
255 0.248612
260 0.229255
265 0.255622
270 0.261813
275 0.248849
280 0.283306
285 0.255718
290 0.253511
295 0.188898
300 0.242837
305 0.266462
310 0.246468
315 0.226188
320 0.227398
325 0.215292
330 0.266647
335 0.263758
340 0.287277
345 0.232276
350 0.277864
355 0.275456
360 0.248437
365 0.311255
370 0.340767
375 0.332685
380 0.302609
385 0.333522
390 0.45044
395 0.581
400 0.836958
405 15.7506
410 284.127
415 473.431
420 122.124
425 17.3084
430 5.09975
435 3.85966
440 4.27964
445 4.42336
450 3.98028
455 3.67839
460 3.78313
465 4.22876
470 6.47816
475 6.1615
480 4.5466
485 4.2155
490 3.62858
495 3.28379
500 3.17284
505 2.92559
510 2.63318
515 2.53714
520 2.34906
525 2.28781
530 1.98284
535 1.90939
540 1.77537
545 1.63782
550 1.44059
555 1.36231
560 1.13337
565 1.04905
570 0.920265
575 0.823668
580 0.637211
585 0.648738
590 0.557112
595 0.40944
600 0.134626
Ex : 423
200 0.246683
205 0.222546
210 0.218141
215 0.207038
220 0.265524
225 0.246105
230 0.228939
235 0.238094
240 0.244234
245 0.218241
250 0.264374
255 0.280325
260 0.278814
265 0.229292
270 0.240636
275 0.309079
280 0.279575
285 0.285533
290 0.234948
295 0.251563
300 0.264365
305 0.218311
310 0.202808
315 0.239216
320 0.293285
325 0.254036
330 0.256801
335 0.35202
340 0.234951
345 0.216777
350 0.288891
355 0.293243
360 0.267245
365 0.342059
370 0.26135
375 0.266262
380 0.306993
385 0.349895
390 0.386206
395 0.428896
400 0.572726
405 0.966094
410 16.5046
415 301.216
420 454.951
425 112.717
430 15.1966
435 3.77829
440 2.59722
445 2.64114
450 2.84065
455 2.45085
460 2.29408
465 2.2336
470 3.05201
475 4.75662
480 5.27056
485 3.83472
490 3.52002
495 3.08043
500 2.73999
505 2.54461
510 2.39042
515 2.18525
520 2.09538
525 1.99571
530 2.0127
535 1.8491
540 1.70224
545 1.47443
550 1.30187
555 1.2052
560 1.15778
565 1.10918
570 0.822136
575 0.825513
580 0.663563
585 0.598219
590 0.588847
595 0.465636
600 0.219151
Ex : 428
200 0.234592
205 0.239313
210 0.260833
215 0.258442
220 0.273497
225 0.26364
230 0.249428
235 0.250815
240 0.226681
245 0.256064
250 0.245161
255 0.250058
260 0.289432
265 0.208632
270 0.304479
275 0.255291
280 0.216163
285 0.212285
290 0.302586
295 0.238075
300 0.275275
305 0.255482
310 0.241559
315 0.201367
320 0.208531
325 0.261616
330 0.197286
335 0.227394
340 0.327369
345 0.306559
350 0.268931
355 0.270172
360 0.231447
365 0.24425
370 0.263489
375 0.342892
380 0.275155
385 0.294062
390 0.409738
395 0.415465
400 0.459318
405 0.56439
410 0.97807
415 18.5775
420 299.321
425 459.265
430 118.872
435 15.2967
440 3.32575
445 2.04398
450 2.09375
455 2.11439
460 1.79713
465 1.69374
470 2.04969
475 2.3217
480 3.589
485 4.99464
490 4.00049
495 3.1642
500 2.86613
505 2.59954
510 2.26054
515 2.10061
520 1.89865
525 1.9554
530 1.82415
535 1.6744
540 1.56152
545 1.39564
550 1.3821
555 1.24359
560 1.14806
565 1.02667
570 0.820485
575 0.844961
580 0.69137
585 0.537388
590 0.530467
595 0.475226
600 0.211692
Ex : 433
200 0.216566
205 0.173081
210 0.214315
215 0.286696
220 0.279578
225 0.270113
230 0.307278
235 0.263658
240 0.246821
245 0.244983
250 0.231308
255 0.257411
260 0.233037
265 0.32105
270 0.222157
275 0.224366
280 0.238227
285 0.252376
290 0.187771
295 0.232362
300 0.225814
305 0.247697
310 0.241558
315 0.219155
320 0.263844
325 0.252207
330 0.304461
335 0.278853
340 0.276763
345 0.347817
350 0.252516
355 0.252387
360 0.277378
365 0.317516
370 0.248488
375 0.352478
380 0.29356
385 0.314436
390 0.322729
395 0.385703
400 0.421126
405 0.545455
410 0.719673
415 0.914329
420 24.8882
425 357.372
430 471.674
435 113.768
440 14.6337
445 3.19006
450 1.95917
455 1.91358
460 2.12422
465 1.8749
470 1.782
475 1.90373
480 1.84865
485 2.90741
490 4.59898
495 3.96868
500 3.03742
505 2.66647
510 2.28609
515 1.92896
520 1.91186
525 1.90631
530 1.75844
535 1.49454
540 1.55483
545 1.49405
550 1.25141
555 1.128
560 0.997201
565 0.977203
570 0.830667
575 0.819649
580 0.666673
585 0.566233
590 0.505753
595 0.504877
600 0.480895
Ex : 438
200 0.24998
205 0.306199
210 0.219858
215 0.215116
220 0.277102
225 0.220702
230 0.239832
235 0.229259
240 0.236453
245 0.265731
250 0.262294
255 0.244513
260 0.302443
265 0.254549
270 0.27845
275 0.306656
280 0.235643
285 0.268422
290 0.222112
295 0.250094
300 0.251524
305 0.230151
310 0.255501
315 0.245445
320 0.256714
325 0.293567
330 0.320514
335 0.271656
340 0.307888
345 0.251354
350 0.262657
355 0.283503
360 0.266557
365 0.32211
370 0.301426
375 0.36036
380 0.295685
385 0.336419
390 0.301355
395 0.375501
400 0.410469
405 0.580293
410 0.476836
415 0.65403
420 0.847364
425 18.1385
430 308.736
435 481.282
440 118.365
445 15.0816
450 3.2771
455 1.65795
460 1.9273
465 2.13038
470 1.94001
475 1.67453
480 1.74703
485 1.83716
490 2.31487
495 3.96451
500 4.16086
505 3.22934
510 2.70459
515 2.35024
520 1.91332
525 1.73109
530 1.62578
535 1.60894
540 1.50847
545 1.57689
550 1.19153
555 1.2079
560 1.1251
565 1.06942
570 0.849925
575 0.728694
580 0.679377
585 0.576315
590 0.484012
595 0.397649
600 0.321059
Ex : 443
200 0.243051
205 0.232268
210 0.260405
215 0.173712
220 0.255122
225 0.331475
230 0.253505
235 0.300498
240 0.216459
245 0.2107
250 0.216611
255 0.280495
260 0.240694
265 0.276422
270 0.321979
275 0.261245
280 0.263151
285 0.253272
290 0.292424
295 0.265693
300 0.226538
305 0.211486
310 0.269614
315 0.214632
320 0.226771
325 0.286471
330 0.249431
335 0.301169
340 0.254082
345 0.296859
350 0.234986
355 0.241449
360 0.263428
365 0.351497
370 0.330723
375 0.277112
380 0.334832
385 0.33791
390 0.327629
395 0.314931
400 0.306991
405 0.349744
410 0.478403
415 0.492516
420 0.58581
425 0.920967
430 21.1697
435 346.691
440 514.024
445 123.068
450 15.7131
455 3.44892
460 1.83824
465 1.90075
470 2.07211
475 1.76967
480 1.76529
485 1.6664
490 1.71214
495 2.06358
500 3.267
505 4.12844
510 3.00606
515 2.40326
520 2.217
525 1.92423
530 1.67535
535 1.60176
540 1.40547
545 1.32538
550 1.33923
555 1.13574
560 1.09181
565 0.992485
570 0.932133
575 0.909921
580 0.61232
585 0.567207
590 0.526294
595 0.449174
600 0.0875336
Ex : 448
200 0.260205
205 0.288787
210 0.249286
215 0.21816
220 0.249652
225 0.21923
230 0.177691
235 0.227254
240 0.187259
245 0.235409
250 0.21656
255 0.21294
260 0.312199
265 0.259977
270 0.262659
275 0.291155
280 0.285574
285 0.263378
290 0.327341
295 0.32545
300 0.250911
305 0.283956
310 0.307362
315 0.245438
320 0.284194
325 0.312351
330 0.276052
335 0.380282
340 0.287714
345 0.292903
350 0.301236
355 0.27193
360 0.284166
365 0.320557
370 0.356664
375 0.346901
380 0.250505
385 0.350723
390 0.356542
395 0.262069
400 0.33058
405 0.352497
410 0.399729
415 0.465459
420 0.483747
425 0.671905
430 0.903418
435 20.9998
440 347.532
445 513.885
450 126.733
455 16.1417
460 3.41697
465 1.84955
470 1.76319
475 2.12669
480 1.91644
485 1.89274
490 1.74925
495 1.73729
500 1.95712
505 2.86485
510 3.8258
515 3.15878
520 2.29926
525 2.23507
530 2.02404
535 1.63624
540 1.52242
545 1.26871
550 1.40242
555 1.28757
560 1.1182
565 0.985067
570 0.991406
575 0.860184
580 0.690369
585 0.667686
590 0.429752
595 0.410894
600 0.372613
Ex : 453
200 0.27047
205 0.22407
210 0.352176
215 0.232622
220 0.272924
225 0.223265
230 0.249526
235 0.204715
240 0.231613
245 0.226099
250 0.265242
255 0.249266
260 0.214389
265 0.265328
270 0.250597
275 0.255903
280 0.236548
285 0.307349
290 0.234027
295 0.274523
300 0.227914
305 0.266156
310 0.219697
315 0.233568
320 0.31009
325 0.265981
330 0.291926
335 0.277458
340 0.295417
345 0.255168
350 0.334572
355 0.244693
360 0.249963
365 0.351007
370 0.285282
375 0.234212
380 0.262882
385 0.310933
390 0.29223
395 0.338781
400 0.30231
405 0.34939
410 0.400896
415 0.443281
420 0.421773
425 0.4699
430 0.560813
435 0.821423
440 22.722
445 388.625
450 558.154
455 130.138
460 16.5596
465 3.38356
470 1.84321
475 1.75567
480 1.91656
485 1.79823
490 1.66508
495 1.67988
500 1.60136
505 1.59167
510 2.06917
515 3.53177
520 3.28849
525 2.35857
530 2.13148
535 1.91253
540 1.6839
545 1.47153
550 1.46049
555 1.27455
560 1.13339
565 0.990133
570 0.982128
575 0.842436
580 0.6468
585 0.587866
590 0.602022
595 0.473671
600 0.153635
Ex : 458
200 0.246046
205 0.237962
210 0.270916
215 0.257318
220 0.253809
225 0.223723
230 0.266273
235 0.311505
240 0.27764
245 0.300176
250 0.268925
255 0.283509
260 0.248667
265 0.325529
270 0.240847
275 0.232408
280 0.283961
285 0.255022
290 0.318535
295 0.254816
300 0.223112
305 0.309796
310 0.316822
315 0.265094
320 0.272806
325 0.264188
330 0.240062
335 0.285021
340 0.278382
345 0.334191
350 0.296738
355 0.207587
360 0.221325
365 0.28212
370 0.334961
375 0.260329
380 0.228064
385 0.248357
390 0.270393
395 0.281169
400 0.286105
405 0.329958
410 0.296331
415 0.359783
420 0.373775
425 0.50016
430 0.542955
435 0.719822
440 0.972172
445 27.5372
450 424.712
455 580.474
460 134.096
465 17.04
470 3.42904
475 1.69573
480 1.69773
485 1.87969
490 1.75299
495 1.79856
500 1.51892
505 1.58883
510 1.67144
515 1.83162
520 2.93523
525 3.53022
530 2.68476
535 2.04469
540 2.03291
545 1.76041
550 1.46227
555 1.38478
560 1.13073
565 1.13413
570 0.98468
575 0.844029
580 0.801219
585 0.599632
590 0.550053
595 0.472155
600 0.0685986
Ex : 463
200 0.267625
205 0.243644
210 0.19182
215 0.264328
220 0.239933
225 0.248454
230 0.217963
235 0.291883
240 0.297497
245 0.276157
250 0.265753
255 0.244028
260 0.270247
265 0.199764
270 0.238367
275 0.251171
280 0.258715
285 0.26544
290 0.165985
295 0.316749
300 0.274772
305 0.267803
310 0.234566
315 0.245795
320 0.220965
325 0.278898
330 0.244225
335 0.268651
340 0.236698
345 0.259106
350 0.303296
355 0.291745
360 0.268019
365 0.270648
370 0.254216
375 0.314322
380 0.279031
385 0.266096
390 0.307495
395 0.304526
400 0.279992
405 0.317205
410 0.301516
415 0.381759
420 0.377791
425 0.41314
430 0.404281
435 0.494794
440 0.638197
445 0.838752
450 23.7675
455 406.916
460 604.672
465 144.628
470 18.1835
475 3.59326
480 1.77692
485 1.65244
490 1.831
495 1.73
500 1.59855
505 1.41912
510 1.59763
515 1.63855
520 1.71046
525 2.36882
530 3.34887
535 3.05887
540 2.08644
545 1.85661
550 1.66098
555 1.38769
560 1.23766
565 1.22774
570 0.978489
575 0.828398
580 0.690947
585 0.584571
590 0.464948
595 0.439419
600 0.519664
Ex : 468
200 0.260603
205 0.197807
210 0.274303
215 0.186094
220 0.227078
225 0.219078
230 0.29188
235 0.197717
240 0.198371
245 0.241596
250 0.242063
255 0.213793
260 0.240527
265 0.175161
270 0.214341
275 0.254016
280 0.238331
285 0.189457
290 0.181945
295 0.303634
300 0.195806
305 0.273968
310 0.231514
315 0.213599
320 0.241984
325 0.235591
330 0.225976
335 0.196773
340 0.229546
345 0.179486
350 0.212294
355 0.262161
360 0.265662
365 0.315587
370 0.266024
375 0.240919
380 0.266263
385 0.288808
390 0.324963
395 0.253051
400 0.193415
405 0.257262
410 0.274055
415 0.367448
420 0.321835
425 0.361032
430 0.34835
435 0.451247
440 0.431298
445 0.591417
450 0.860361
455 25.7849
460 409.85
465 628.152
470 148.463
475 18.4218
480 3.72226
485 1.76914
490 1.59868
495 1.80295
500 1.81341
505 1.57036
510 1.50217
515 1.48403
520 1.6191
525 1.61656
530 2.09447
535 3.10408
540 3.1368
545 2.17438
550 1.77917
555 1.76045
560 1.46335
565 1.17947
570 0.956384
575 0.906981
580 0.703886
585 0.71678
590 0.471463
595 0.50461
600 0.310982
Ex : 473
200 0.239107
205 0.239029
210 0.235017
215 0.246265
220 0.287042
225 0.263468
230 0.198675
235 0.180577
240 0.240128
245 0.226712
250 0.203959
255 0.255045
260 0.265094
265 0.217834
270 0.250732
275 0.274114
280 0.242915
285 0.247664
290 0.196944
295 0.207165
300 0.217157
305 0.232369
310 0.264222
315 0.297315
320 0.321309
325 0.25894
330 0.26657
335 0.297626
340 0.22756
345 0.269923
350 0.20341
355 0.253758
360 0.234797
365 0.275163
370 0.258859
375 0.317308
380 0.252153
385 0.245412
390 0.28682
395 0.301833
400 0.287083
405 0.310198
410 0.301287
415 0.285428
420 0.32918
425 0.294256
430 0.309007
435 0.378962
440 0.444721
445 0.523177
450 0.697015
455 1.005
460 31.2726
465 486.529
470 671.177
475 149.7
480 18.7149
485 3.49373
490 1.71506
495 1.35862
500 1.69799
505 1.77476
510 1.63884
515 1.43242
520 1.52958
525 1.5875
530 1.57938
535 1.79821
540 2.69271
545 3.25042
550 2.26432
555 1.59208
560 1.55892
565 1.36074
570 1.04821
575 0.925062
580 0.71517
585 0.61706
590 0.565208
595 0.487967
600 0.248642
Ex : 478
200 0.206986
205 0.347771
210 0.260059
215 0.338552
220 0.308827
225 0.242002
230 0.239722
235 0.264098
240 0.223663
245 0.282324
250 0.262771
255 0.325304
260 0.233435
265 0.269509
270 0.312548
275 0.281094
280 0.276169
285 0.244966
290 0.274044
295 0.260508
300 0.258505
305 0.287974
310 0.290844
315 0.313594
320 0.373317
325 0.267311
330 0.330132
335 0.257853
340 0.299713
345 0.299534
350 0.252813
355 0.317035
360 0.337368
365 0.339195
370 0.302734
375 0.310427
380 0.288283
385 0.342732
390 0.378612
395 0.310635
400 0.282057
405 0.377075
410 0.293886
415 0.378542
420 0.344401
425 0.354738
430 0.346511
435 0.362711
440 0.426551
445 0.454348
450 0.587269
455 0.762457
460 1.13249
465 33.1641
470 459.188
475 634.595
480 150.147
485 18.6918
490 3.54427
495 1.67837
500 1.43081
505 1.59562
510 1.68492
515 1.82883
520 1.70371
525 1.61707
530 1.67868
535 1.65439
540 1.66816
545 2.17298
550 2.82203
555 2.5509
560 1.6326
565 1.37066
570 1.16116
575 0.985364
580 0.840806
585 0.60935
590 0.555746
595 0.488977
600 0.389999
Ex : 483
200 0.339261
205 0.316036
210 0.280819
215 0.312147
220 0.251455
225 0.257536
230 0.261947
235 0.281216
240 0.240393
245 0.303941
250 0.295585
255 0.23464
260 0.293925
265 0.352231
270 0.344327
275 0.28419
280 0.275508
285 0.237254
290 0.325896
295 0.298968
300 0.289911
305 0.290498
310 0.316698
315 0.283244
320 0.201044
325 0.273635
330 0.244838
335 0.308243
340 0.322295
345 0.279265
350 0.268726
355 0.286475
360 0.280032
365 0.294898
370 0.368302
375 0.331323
380 0.342319
385 0.338378
390 0.279905
395 0.365147
400 0.318111
405 0.330347
410 0.339037
415 0.322756
420 0.393202
425 0.376685
430 0.356981
435 0.421972
440 0.365985
445 0.484365
450 0.561895
455 0.630097
460 0.778145
465 1.13722
470 26.8956
475 472.777
480 692.389
485 160.179
490 19.6975
495 3.62053
500 1.75845
505 1.38471
510 1.54793
515 1.71007
520 1.65625
525 1.66558
530 1.58221
535 1.62161
540 1.60154
545 1.46674
550 1.63864
555 2.54026
560 2.57143
565 1.77387
570 1.24688
575 1.1255
580 0.919499
585 0.685368
590 0.585286
595 0.495843
600 0.298697
Ex : 488
200 0.335384
205 0.329497
210 0.320721
215 0.294113
220 0.3089
225 0.256874
230 0.28656
235 0.265902
240 0.313809
245 0.300388
250 0.293067
255 0.302841
260 0.325776
265 0.300658
270 0.290735
275 0.304937
280 0.288971
285 0.310888
290 0.295951
295 0.277213
300 0.277619
305 0.265849
310 0.329962
315 0.321247
320 0.34378
325 0.334607
330 0.325045
335 0.290398
340 0.308322
345 0.374569
350 0.304308
355 0.319621
360 0.268557
365 0.280726
370 0.29695
375 0.342033
380 0.306072
385 0.262542
390 0.376943
395 0.420912
400 0.390068
405 0.418073
410 0.393515
415 0.389228
420 0.371541
425 0.32645
430 0.451847
435 0.43888
440 0.494456
445 0.484193
450 0.546362
455 0.536395
460 0.637442
465 0.950279
470 1.25864
475 33.0782
480 501.773
485 678.376
490 156.82
495 19.5419
500 3.58516
505 1.62401
510 1.3524
515 1.57251
520 1.89191
525 1.70217
530 1.76981
535 1.48923
540 1.595
545 1.4131
550 1.48485
555 1.28554
560 1.96715
565 2.35517
570 1.83183
575 1.24573
580 1.06226
585 0.759764
590 0.631313
595 0.510222
600 0.476697
Ex : 493
200 0.277277
205 0.239982
210 0.266584
215 0.470018
220 0.284978
225 0.357884
230 0.245405
235 0.344785
240 0.343149
245 0.297253
250 0.320584
255 0.297613
260 0.238343
265 0.40879
270 0.303993
275 0.270097
280 0.263024
285 0.340726
290 0.358497
295 0.324357
300 0.278425
305 0.346407
310 0.413018
315 0.339046
320 0.366392
325 0.363811
330 0.317133
335 0.307012
340 0.325748
345 0.373478
350 0.278124
355 0.355378
360 0.436335
365 0.366203
370 0.340143
375 0.334222
380 0.316101
385 0.320041
390 0.351656
395 0.3748
400 0.337429
405 0.309331
410 0.327301
415 0.413614
420 0.405625
425 0.43924
430 0.37448
435 0.414927
440 0.359151
445 0.412326
450 0.42061
455 0.392503
460 0.512471
465 0.532585
470 0.716002
475 1.14299
480 29.501
485 494.519
490 721.339
495 165.503
500 20.3823
505 3.73051
510 1.7396
515 1.35564
520 1.4927
525 1.85505
530 1.77764
535 1.78455
540 1.51881
545 1.42684
550 1.2918
555 1.33081
560 1.33528
565 1.50664
570 2.06316
575 1.68906
580 1.0637
585 0.893176
590 0.740433
595 0.677139
600 0.325193
Ex : 498
200 0.282781
205 0.352818
210 0.294717
215 0.287506
220 0.347594
225 0.341104
230 0.319315
235 0.338858
240 0.323915
245 0.323898
250 0.451048
255 0.342975
260 0.364417
265 0.342545
270 0.301395
275 0.279396
280 0.303354
285 0.326994
290 0.306822
295 0.316696
300 0.307399
305 0.337397
310 0.463617
315 0.380245
320 0.382005
325 0.307338
330 0.349138
335 0.367055
340 0.35418
345 0.381371
350 0.381242
355 0.418327
360 0.36713
365 0.30449
370 0.35498
375 0.453241
380 0.326521
385 0.411813
390 0.358846
395 0.389444
400 0.38696
405 0.409037
410 0.37885
415 0.371548
420 0.408119
425 0.41375
430 0.407763
435 0.39209
440 0.369336
445 0.433503
450 0.595433
455 0.551219
460 0.518993
465 0.586132
470 0.755695
475 0.956996
480 1.34399
485 36.8465
490 551.168
495 745.615
500 165.562
505 20.4171
510 3.88163
515 1.97416
520 1.72046
525 1.73603
530 1.84761
535 1.76836
540 1.67714
545 1.55903
550 1.3149
555 1.30273
560 1.2578
565 1.22116
570 1.22307
575 1.72025
580 1.64427
585 0.974564
590 0.832569
595 0.641311
600 0.5844
Ex : 503
200 0.388592
205 0.292349
210 0.34847
215 0.418026
220 0.362991
225 0.314209
230 0.437858
235 0.375884
240 0.306294
245 0.438075
250 0.337013
255 0.392713
260 0.31141
265 0.387214
270 0.354305
275 0.447914
280 0.422327
285 0.331016
290 0.339595
295 0.356509
300 0.378089
305 0.393066
310 0.354316
315 0.435938
320 0.397595
325 0.367008
330 0.42093
335 0.35634
340 0.329079
345 0.318014
350 0.280142
355 0.342854
360 0.329623
365 0.367544
370 0.300679
375 0.398357
380 0.369381
385 0.321589
390 0.429522
395 0.403239
400 0.405335
405 0.446376
410 0.432162
415 0.397451
420 0.426961
425 0.371905
430 0.409593
435 0.359229
440 0.476523
445 0.42408
450 0.441625
455 0.452319
460 0.589446
465 0.645643
470 0.596883
475 0.766953
480 0.968582
485 1.20565
490 34.0162
495 533.154
500 740.62
505 167.062
510 20.9349
515 3.93617
520 1.99486
525 1.48541
530 1.6951
535 1.68946
540 1.59411
545 1.77843
550 1.35034
555 1.43219
560 1.22138
565 1.0899
570 1.1243
575 1.04293
580 1.14872
585 1.50695
590 1.10211
595 0.709163
600 0.679824
Ex : 508
200 0.348049
205 0.480199
210 0.312209
215 0.372134
220 0.312243
225 0.339228
230 0.367885
235 0.357107
240 0.37121
245 0.425491
250 0.360972
255 0.378991
260 0.420249
265 0.459207
270 0.369628
275 0.350036
280 0.333224
285 0.347269
290 0.375413
295 0.30807
300 0.382602
305 0.339356
310 0.341593
315 0.481768
320 0.359495
325 0.44869
330 0.31691
335 0.480771
340 0.405544
345 0.313761
350 0.366286
355 0.319253
360 0.276991
365 0.37055
370 0.361812
375 0.327341
380 0.352682
385 0.444351
390 0.498284
395 0.405436
400 0.441691
405 0.441576
410 0.528084
415 0.467493
420 0.506189
425 0.482964
430 0.439731
435 0.367346
440 0.421663
445 0.433281
450 0.506893
455 0.439654
460 0.5106
465 0.619599
470 0.474614
475 0.656157
480 0.674939
485 0.967684
490 1.41455
495 38.3802
500 532.834
505 734.382
510 174.774
515 21.6356
520 4.04387
525 1.93134
530 1.74777
535 1.72162
540 1.6868
545 1.69516
550 1.49785
555 1.38985
560 1.18186
565 1.09073
570 1.15626
575 0.894672
580 0.910196
585 0.832945
590 1.1985
595 1.07532
600 1.46248
Ex : 513
200 0.267936
205 0.274523
210 0.355119
215 0.33235
220 0.393622
225 0.410602
230 0.453491
235 0.443167
240 0.433321
245 0.375699
250 0.428396
255 0.484464
260 0.488999
265 0.45439
270 0.399664
275 0.508243
280 0.445417
285 0.440261
290 0.466323
295 0.347324
300 0.339409
305 0.40857
310 0.389609
315 0.340452
320 0.361106
325 0.349048
330 0.407501
335 0.419364
340 0.363835
345 0.326018
350 0.484395
355 0.424722
360 0.393216
365 0.412928
370 0.376399
375 0.444746
380 0.371537
385 0.438838
390 0.378038
395 0.402407
400 0.404711
405 0.439195
410 0.323986
415 0.456542
420 0.408517
425 0.394255
430 0.521144
435 0.377528
440 0.425333
445 0.368831
450 0.544671
455 0.461278
460 0.503744
465 0.56113
470 0.558397
475 0.63673
480 0.691013
485 0.902249
490 1.03335
495 1.16923
500 33.8448
505 530.826
510 756.62
515 188.466
520 23.3496
525 4.40556
530 2.15223
535 1.57245
540 1.66255
545 1.52166
550 1.56635
555 1.52283
560 1.39604
565 1.18715
570 0.996132
575 0.961193
580 0.800711
585 0.771292
590 0.627964
595 0.826644
600 0.632916
Ex : 518
200 0.305166
205 0.449115
210 0.422345
215 0.378927
220 0.315019
225 0.403899
230 0.376789
235 0.481113
240 0.451667
245 0.447127
250 0.507825
255 0.448119
260 0.413191
265 0.357743
270 0.392898
275 0.46614
280 0.370845
285 0.438652
290 0.391198
295 0.39966
300 0.344179
305 0.282834
310 0.357138
315 0.264351
320 0.289879
325 0.341145
330 0.436955
335 0.41558
340 0.385299
345 0.375661
350 0.424916
355 0.38155
360 0.394592
365 0.454481
370 0.402624
375 0.396698
380 0.384018
385 0.415298
390 0.426998
395 0.365791
400 0.362342
405 0.517452
410 0.386238
415 0.445323
420 0.416064
425 0.502022
430 0.474778
435 0.479428
440 0.438013
445 0.517382
450 0.471046
455 0.492287
460 0.527838
465 0.542479
470 0.622184
475 0.600098
480 0.639851
485 0.655128
490 0.668891
495 0.973822
500 1.33836
505 34.1986
510 511.588
515 741.782
520 179.322
525 22.32
530 4.21089
535 1.92972
540 1.4877
545 1.43666
550 1.42855
555 1.43303
560 1.26363
565 1.04168
570 0.940573
575 0.859827
580 0.708561
585 0.701799
590 0.74794
595 0.551705
600 0.664468
Ex : 523
200 0.474067
205 0.391635
210 0.4013
215 0.295957
220 0.433551
225 0.385137
230 0.424943
235 0.426469
240 0.401507
245 0.411165
250 0.391563
255 0.364643
260 0.451216
265 0.489902
270 0.376262
275 0.266019
280 0.460985
285 0.357762
290 0.305469
295 0.558324
300 0.496526
305 0.377972
310 0.380153
315 0.335019
320 0.411832
325 0.429643
330 0.37167
335 0.496787
340 0.436837
345 0.582617
350 0.420278
355 0.481279
360 0.512898
365 0.332884
370 0.432732
375 0.476334
380 0.434463
385 0.510088
390 0.439958
395 0.537159
400 0.4111
405 0.469245
410 0.426823
415 0.571524
420 0.338791
425 0.404975
430 0.423837
435 0.424502
440 0.516325
445 0.545029
450 0.448982
455 0.485649
460 0.420672
465 0.597231
470 0.571205
475 0.54593
480 0.575813
485 0.653075
490 0.652914
495 0.744431
500 0.927294
505 1.31491
510 31.3176
515 512.384
520 758.917
525 192.146
530 23.7736
535 4.17266
540 1.92886
545 1.53532
550 1.33534
555 1.42145
560 1.20869
565 1.2723
570 1.08501
575 0.902882
580 0.72178
585 0.634255
590 0.53397
595 0.470376
600 1.18883
Ex : 528
200 0.405038
205 0.406476
210 0.345539
215 0.388428
220 0.433514
225 0.486499
230 0.406789
235 0.407685
240 0.394195
245 0.343328
250 0.374939
255 0.380678
260 0.341448
265 0.363695
270 0.31616
275 0.365785
280 0.433958
285 0.404757
290 0.517013
295 0.496738
300 0.404817
305 0.304813
310 0.308788
315 0.411406
320 0.412328
325 0.446375
330 0.398052
335 0.427182
340 0.381778
345 0.389716
350 0.468287
355 0.382117
360 0.325687
365 0.316299
370 0.361128
375 0.450194
380 0.378311
385 0.419916
390 0.452723
395 0.492438
400 0.399461
405 0.429781
410 0.433455
415 0.491491
420 0.445925
425 0.495559
430 0.526988
435 0.421821
440 0.380987
445 0.488753
450 0.480572
455 0.441859
460 0.535969
465 0.582067
470 0.504937
475 0.651177
480 0.558684
485 0.426504
490 0.640433
495 0.668301
500 0.836391
505 0.924196
510 1.24346
515 29.7303
520 507.745
525 770.799
530 187.857
535 23.134
540 4.10992
545 1.78347
550 1.40849
555 1.18903
560 1.2818
565 1.2358
570 1.0234
575 0.86007
580 0.792023
585 0.759758
590 0.587658
595 0.666277
600 0.437233
Ex : 533
200 0.38768
205 0.572665
210 0.351623
215 0.487774
220 0.422738
225 0.535567
230 0.384254
235 0.416244
240 0.452607
245 0.373905
250 0.350667
255 0.389364
260 0.455501
265 0.458102
270 0.388628
275 0.362768
280 0.400537
285 0.400907
290 0.404969
295 0.457186
300 0.415631
305 0.386635
310 0.481059
315 0.434337
320 0.37472
325 0.443208
330 0.369065
335 0.426826
340 0.477701
345 0.35164
350 0.421067
355 0.451365
360 0.407639
365 0.343079
370 0.4473
375 0.497173
380 0.378195
385 0.492686
390 0.493633
395 0.464014
400 0.467386
405 0.479125
410 0.517353
415 0.459251
420 0.45067
425 0.427441
430 0.490588
435 0.397826
440 0.601736
445 0.455563
450 0.485048
455 0.58865
460 0.59641
465 0.544089
470 0.528614
475 0.608949
480 0.570173
485 0.631435
490 0.61415
495 0.616256
500 0.739419
505 0.924635
510 1.05836
515 1.36494
520 32.436
525 521.336
530 802.727
535 192.408
540 23.6272
545 3.81588
550 1.72559
555 1.25594
560 1.06065
565 0.832822
570 0.95305
575 0.908751
580 0.808364
585 0.595379
590 0.689457
595 0.507371
600 0.437539
Ex : 538
200 0.574198
205 0.415698
210 0.45074
215 0.3731
220 0.395632
225 0.456818
230 0.550183
235 0.373168
240 0.407867
245 0.554918
250 0.444542
255 0.496873
260 0.513546
265 0.51062
270 0.416664
275 0.480522
280 0.471001
285 0.36099
290 0.374488
295 0.436316
300 0.573471
305 0.517142
310 0.500195
315 0.480444
320 0.420473
325 0.475692
330 0.427799
335 0.46453
340 0.485031
345 0.480759
350 0.53149
355 0.479992
360 0.46453
365 0.524916
370 0.527504
375 0.471848
380 0.465128
385 0.386213
390 0.459794
395 0.502145
400 0.416809
405 0.423936
410 0.486402
415 0.595907
420 0.556761
425 0.573066
430 0.53
435 0.504416
440 0.367315
445 0.491942
450 0.511862
455 0.529606
460 0.595711
465 0.566138
470 0.545216
475 0.555514
480 0.467378
485 0.529755
490 0.650252
495 0.610146
500 0.58109
505 0.670613
510 0.806328
515 0.972021
520 1.258
525 24.4019
530 454.249
535 729.347
540 191.844
545 23.6278
550 3.91046
555 1.62824
560 1.09057
565 0.969236
570 0.939928
575 0.851578
580 0.850349
585 0.705027
590 0.812854
595 0.721431
600 0.0820961
Ex : 543
200 0.421182
205 0.47378
210 0.516439
215 0.423024
220 0.394053
225 0.385333
230 0.436622
235 0.400013
240 0.357165
245 0.426964
250 0.548582
255 0.415212
260 0.333496
265 0.494218
270 0.448359
275 0.499468
280 0.49155
285 0.451373
290 0.458825
295 0.45982
300 0.391176
305 0.421074
310 0.434854
315 0.478514
320 0.496394
325 0.408786
330 0.441896
335 0.505256
340 0.491187
345 0.449031
350 0.462564
355 0.490443
360 0.577688
365 0.439962
370 0.41536
375 0.44265
380 0.430762
385 0.44039
390 0.408491
395 0.458234
400 0.571538
405 0.515806
410 0.453911
415 0.666081
420 0.449631
425 0.457735
430 0.502778
435 0.533184
440 0.528307
445 0.488819
450 0.625796
455 0.562065
460 0.565166
465 0.515766
470 0.417341
475 0.583933
480 0.526752
485 0.6006
490 0.703772
495 0.664117
500 0.540928
505 0.772163
510 0.707671
515 0.825149
520 1.11854
525 1.36815
530 22.8824
535 458.247
540 773.856
545 206.594
550 25.149
555 4.04696
560 1.63908
565 1.17786
570 0.92468
575 0.878134
580 0.802593
585 0.782353
590 0.705126
595 0.653075
600 0.176987
Ex : 548
200 0.496076
205 0.420811
210 0.472388
215 0.631037
220 0.514647
225 0.451591
230 0.367334
235 0.372131
240 0.35862
245 0.424029
250 0.429986
255 0.44352
260 0.43713
265 0.532715
270 0.535883
275 0.503223
280 0.474592
285 0.499043
290 0.503086
295 0.437845
300 0.494978
305 0.435748
310 0.464791
315 0.518607
320 0.45019
325 0.413215
330 0.3995
335 0.435125
340 0.575196
345 0.492038
350 0.435171
355 0.599244
360 0.494892
365 0.428581
370 0.445464
375 0.488553
380 0.460869
385 0.69158
390 0.497661
395 0.440583
400 0.417382
405 0.404353
410 0.479515
415 0.483074
420 0.51266
425 0.404641
430 0.517135
435 0.52179
440 0.542774
445 0.668529
450 0.499127
455 0.619545
460 0.57814
465 0.579749
470 0.524589
475 0.571363
480 0.604303
485 0.489406
490 0.572911
495 0.716979
500 0.555475
505 0.654147
510 0.605024
515 0.717223
520 0.866662
525 1.02032
530 1.19304
535 25.0229
540 446.889
545 720.048
550 194.749
555 23.5539
560 3.95472
565 1.42004
570 1.05218
575 0.783358
580 0.70361
585 0.639213
590 0.750037
595 0.571694
600 0.817494
Ex : 553
200 0.460281
205 0.478784
210 0.497105
215 0.468221
220 0.446286
225 0.484713
230 0.474562
235 0.426876
240 0.474807
245 0.432214
250 0.473003
255 0.399404
260 0.492674
265 0.518925
270 0.462021
275 0.408916
280 0.406416
285 0.414664
290 0.514602
295 0.403665
300 0.487874
305 0.36638
310 0.49696
315 0.540247
320 0.451484
325 0.488593
330 0.439456
335 0.57893
340 0.671856
345 0.508447
350 0.480083
355 0.461736
360 0.509401
365 0.440094
370 0.412427
375 0.572257
380 0.490056
385 0.489789
390 0.476875
395 0.378414
400 0.441744
405 0.457129
410 0.369335
415 0.480749
420 0.52744
425 0.426967
430 0.495002
435 0.449621
440 0.492619
445 0.579712
450 0.493957
455 0.54241
460 0.658421
465 0.543577
470 0.538518
475 0.513229
480 0.534906
485 0.473259
490 0.607269
495 0.518511
500 0.575786
505 0.687504
510 0.596905
515 0.760933
520 0.767644
525 0.875639
530 1.00835
535 1.27207
540 21.263
545 418.241
550 701.136
555 196.451
560 24.1178
565 3.85485
570 1.33213
575 1.06122
580 0.767105
585 0.622629
590 0.616135
595 0.794194
600 0.191979
Ex : 558
200 0.420368
205 0.544972
210 0.480905
215 0.363173
220 0.377782
225 0.595682
230 0.444566
235 0.383569
240 0.451525
245 0.473162
250 0.48324
255 0.51668
260 0.461681
265 0.416696
270 0.436483
275 0.451719
280 0.431769
285 0.619079
290 0.519438
295 0.518088
300 0.531457
305 0.555784
310 0.529736
315 0.418069
320 0.407462
325 0.45187
330 0.424703
335 0.543598
340 0.526323
345 0.532177
350 0.50352
355 0.629964
360 0.581492
365 0.478043
370 0.484323
375 0.463653
380 0.494659
385 0.63507
390 0.517569
395 0.627746
400 0.518217
405 0.461983
410 0.510154
415 0.737906
420 0.622291
425 0.546956
430 0.601757
435 0.58158
440 0.601125
445 0.586735
450 0.571039
455 0.526086
460 0.503887
465 0.656627
470 0.655941
475 0.499116
480 0.649479
485 0.590801
490 0.52876
495 0.586518
500 0.741576
505 0.592219
510 0.681725
515 0.714718
520 0.725511
525 0.696086
530 0.781586
535 1.00558
540 1.2427
545 20.4433
550 395.627
555 683.842
560 193.284
565 23.5245
570 3.6982
575 1.24822
580 1.00076
585 0.887209
590 0.712268
595 0.654346
600 0.369863
Ex : 563
200 0.649068
205 0.571673
210 0.636078
215 0.509046
220 0.582901
225 0.504326
230 0.443768
235 0.572388
240 0.601684
245 0.46418
250 0.533165
255 0.338431
260 0.514143
265 0.463592
270 0.419626
275 0.371256
280 0.545462
285 0.404205
290 0.567027
295 0.441209
300 0.572613
305 0.493105
310 0.355857
315 0.450737
320 0.483754
325 0.448251
330 0.424372
335 0.587872
340 0.461963
345 0.485601
350 0.553658
355 0.515546
360 0.668737
365 0.656716
370 0.525893
375 0.476537
380 0.454877
385 0.515944
390 0.470907
395 0.520504
400 0.637286
405 0.511536
410 0.521737
415 0.655815
420 0.50171
425 0.55294
430 0.522929
435 0.443749
440 0.503494
445 0.482148
450 0.465625
455 0.490474
460 0.540523
465 0.667929
470 0.495296
475 0.63161
480 0.604563
485 0.548836
490 0.629016
495 0.664823
500 0.62267
505 0.582691
510 0.702519
515 0.646036
520 0.59489
525 0.642658
530 0.692176
535 0.849954
540 0.949789
545 1.17333
550 20.385
555 407.483
560 679.491
565 192.743
570 23.6311
575 3.64387
580 1.19058
585 0.788391
590 0.682599
595 0.687381
600 1.75895
Ex : 568
200 0.647712
205 0.58218
210 0.455636
215 0.576534
220 0.429035
225 0.452737
230 0.474187
235 0.5852
240 0.459725
245 0.553692
250 0.488543
255 0.435784
260 0.511583
265 0.508555
270 0.484846
275 0.486883
280 0.543919
285 0.590363
290 0.540624
295 0.604746
300 0.511318
305 0.505814
310 0.467783
315 0.425871
320 0.423718
325 0.509391
330 0.541697
335 0.445866
340 0.455842
345 0.649304
350 0.507053
355 0.55587
360 0.456385
365 0.652218
370 0.523501
375 0.534281
380 0.586298
385 0.498544
390 0.687309
395 0.638971
400 0.637675
405 0.653244
410 0.626661
415 0.529874
420 0.654153
425 0.571366
430 0.534774
435 0.528115
440 0.605396
445 0.557733
450 0.698914
455 0.606727
460 0.523044
465 0.578796
470 0.678044
475 0.650558
480 0.609581
485 0.825146
490 0.735091
495 0.490078
500 0.49804
505 0.669887
510 0.586692
515 0.569211
520 0.692716
525 0.733175
530 0.58393
535 0.781929
540 0.817031
545 0.981437
550 1.13276
555 15.4461
560 348.93
565 641.94
570 192.789
575 23.78
580 3.57584
585 1.11733
590 0.811027
595 0.652869
600 0.696522
Ex : 573
200 0.54234
205 0.454894
210 0.519454
215 0.490571
220 0.374548
225 0.406981
230 0.560888
235 0.523288
240 0.49816
245 0.524282
250 0.525058
255 0.437849
260 0.499754
265 0.468167
270 0.470833
275 0.643553
280 0.419752
285 0.500064
290 0.652457
295 0.546289
300 0.493938
305 0.528301
310 0.492963
315 0.679854
320 0.606636
325 0.447328
330 0.550128
335 0.482326
340 0.427698
345 0.577514
350 0.507112
355 0.495848
360 0.50432
365 0.634647
370 0.515167
375 0.540976
380 0.515029
385 0.613783
390 0.738269
395 0.545638
400 0.473472
405 0.497523
410 0.60864
415 0.450349
420 0.626759
425 0.518216
430 0.567538
435 0.716889
440 0.510457
445 0.644489
450 0.483491
455 0.518704
460 0.64332
465 0.536429
470 0.592673
475 0.528983
480 0.717132
485 0.642568
490 0.713958
495 0.735902
500 0.747497
505 0.664629
510 0.612203
515 0.629791
520 0.658917
525 0.650797
530 0.639913
535 0.669556
540 0.578756
545 0.814774
550 1.05618
555 1.15717
560 13.9024
565 309.096
570 601.404
575 182.346
580 22.431
585 3.49607
590 1.1864
595 0.680078
600 1.37459
Ex : 578
200 0.488777
205 0.591944
210 0.489995
215 0.515237
220 0.430883
225 0.540387
230 0.689517
235 0.63792
240 0.500575
245 0.466943
250 0.473786
255 0.68211
260 0.666987
265 0.507747
270 0.718217
275 0.581315
280 0.586509
285 0.565533
290 0.500546
295 0.470543
300 0.387683
305 0.568592
310 0.501125
315 0.430711
320 0.448164
325 0.595036
330 0.498813
335 0.574182
340 0.630743
345 0.50643
350 0.584449
355 0.479431
360 0.519206
365 0.583114
370 0.689358
375 0.469649
380 0.729119
385 0.550355
390 0.491473
395 0.489065
400 0.44534
405 0.648925
410 0.497467
415 0.648372
420 0.585054
425 0.469091
430 0.559205
435 0.615736
440 0.597727
445 0.532061
450 0.526683
455 0.568144
460 0.688591
465 0.719606
470 0.609781
475 0.582194
480 0.635862
485 0.60779
490 0.543518
495 0.550452
500 0.596776
505 0.725697
510 0.550451
515 0.597874
520 0.593414
525 0.682805
530 0.726488
535 0.66583
540 0.8416
545 0.726324
550 0.732738
555 0.795131
560 1.16337
565 12.5323
570 277.72
575 521.267
580 160.441
585 19.7561
590 3.09182
595 0.961572
600 1.85518
Ex : 583
200 0.431604
205 0.557023
210 0.596327
215 0.464545
220 0.522728
225 0.545637
230 0.540625
235 0.511133
240 0.492743
245 0.502706
250 0.41258
255 0.44947
260 0.631514
265 0.472074
270 0.520413
275 0.472683
280 0.45728
285 0.463099
290 0.556535
295 0.547539
300 0.599411
305 0.599207
310 0.562694
315 0.412154
320 0.396112
325 0.568645
330 0.632254
335 0.559551
340 0.496584
345 0.520955
350 0.525169
355 0.558139
360 0.494782
365 0.539238
370 0.594406
375 0.534837
380 0.411651
385 0.587763
390 0.552207
395 0.503706
400 0.48051
405 0.645209
410 0.577097
415 0.686229
420 0.438193
425 0.394162
430 0.529128
435 0.652674
440 0.536883
445 0.677492
450 0.691559
455 0.618504
460 0.667733
465 0.562464
470 0.562238
475 0.52812
480 0.631119
485 0.6245
490 0.600741
495 0.641662
500 0.680578
505 0.486072
510 0.605814
515 0.678659
520 0.656574
525 0.672866
530 0.6132
535 0.70967
540 0.651264
545 0.669338
550 0.657488
555 0.72535
560 1.00653
565 1.02475
570 10.4045
575 252.424
580 448.027
585 129.141
590 16.0155
595 2.52878
600 0.287766
Ex : 588
200 0.584111
205 0.550116
210 0.412499
215 0.466695
220 0.554125
225 0.55277
230 0.523067
235 0.734889
240 0.693848
245 0.621441
250 0.513309
255 0.667039
260 0.513342
265 0.635087
270 0.623648
275 0.615069
280 0.543102
285 0.489345
290 0.57767
295 0.548467
300 0.613986
305 0.566605
310 0.551693
315 0.449284
320 0.650673
325 0.507095
330 0.689675
335 0.60775
340 0.59684
345 0.712755
350 0.601124
355 0.738578
360 0.642243
365 0.529919
370 0.501444
375 0.638735
380 0.537824
385 0.611929
390 0.639692
395 0.647022
400 0.594103
405 0.587041
410 0.701604
415 0.695691
420 0.523978
425 0.545099
430 0.549451
435 0.540329
440 0.71465
445 0.616658
450 0.579783
455 0.681509
460 0.710434
465 0.680989
470 0.798479
475 0.5615
480 0.551104
485 0.461488
490 0.496641
495 0.667114
500 0.75429
505 0.617116
510 0.618051
515 0.684462
520 0.624193
525 0.742712
530 0.757545
535 0.685711
540 0.740652
545 0.67143
550 0.715082
555 0.65243
560 0.807695
565 1.22722
570 1.03503
575 9.48642
580 216.464
585 394.236
590 114.606
595 14.3424
600 2.34108
Ex : 593
200 0.589795
205 0.562663
210 0.53033
215 0.522282
220 0.480265
225 0.554768
230 0.682215
235 0.635001
240 0.700426
245 0.668846
250 0.622259
255 0.604056
260 0.603447
265 0.403253
270 0.715331
275 0.536048
280 0.498847
285 0.572089
290 0.675306
295 0.577112
300 0.633698
305 0.555804
310 0.52734
315 0.540473
320 0.489955
325 0.522703
330 0.582772
335 0.664998
340 0.484295
345 0.656444
350 0.601263
355 0.56359
360 0.575481
365 0.59831
370 0.423814
375 0.596028
380 0.472725
385 0.630247
390 0.834375
395 0.502157
400 0.586986
405 0.57648
410 0.621856
415 0.606465
420 0.641938
425 0.554056
430 0.573549
435 0.679643
440 0.700251
445 0.576508
450 0.66786
455 0.518391
460 0.605507
465 0.586523
470 0.510558
475 0.73818
480 0.614128
485 0.76937
490 0.851148
495 0.585159
500 0.656501
505 0.581974
510 0.525449
515 0.694625
520 0.705463
525 0.674931
530 0.782827
535 0.565004
540 0.832315
545 0.699292
550 0.926563
555 1.0138
560 0.791656
565 0.885979
570 0.855867
575 1.26992
580 9.02999
585 187.148
590 342.427
595 99.3504
600 13.1004
Ex : 598
200 0.700543
205 0.608338
210 0.556881
215 0.655106
220 0.642151
225 0.497643
230 0.579335
235 0.707378
240 0.721176
245 0.608852
250 0.445574
255 0.52637
260 0.708182
265 0.49869
270 0.569982
275 0.638717
280 0.656217
285 0.588535
290 0.486754
295 0.603416
300 0.638422
305 0.77967
310 0.672499
315 0.572862
320 0.559876
325 0.550387
330 0.484482
335 0.554426
340 0.414282
345 0.576739
350 0.631765
355 0.590573
360 0.785703
365 0.671565
370 0.626043
375 0.620598
380 0.558445
385 0.464535
390 0.511089
395 0.610987
400 0.690937
405 0.647215
410 0.716586
415 0.755753
420 0.569626
425 0.498711
430 0.566756
435 0.536599
440 0.675743
445 0.729781
450 0.674657
455 0.932348
460 0.716203
465 0.672241
470 0.862427
475 0.536939
480 0.664534
485 0.640401
490 0.570478
495 0.803888
500 0.588449
505 0.621775
510 0.609454
515 0.882455
520 0.692283
525 0.65781
530 0.587507
535 0.656538
540 0.560797
545 0.693271
550 0.573171
555 0.610437
560 0.962933
565 0.914963
570 0.912815
575 0.916291
580 1.17259
585 8.38302
590 173.774
595 305.558
600 202.513
Ex : 603
200 0.65801
205 0.828819
210 0.708641
215 0.731098
220 0.605493
225 0.606085
230 0.704712
235 0.657889
240 0.827062
245 0.722728
250 0.6231
255 0.584846
260 0.50946
265 0.60004
270 0.665869
275 0.610105
280 0.781594
285 0.665426
290 0.494429
295 0.709021
300 0.669142
305 0.647429
310 0.5687
315 0.725305
320 0.646592
325 0.906639
330 0.655401
335 0.558055
340 0.442861
345 0.878025
350 0.727807
355 0.631517
360 0.538123
365 0.752138
370 0.534158
375 0.597207
380 0.909912
385 0.719483
390 0.578588
395 0.462964
400 0.645897
405 0.568231
410 0.803166
415 0.823648
420 0.677621
425 0.561634
430 0.530283
435 0.84769
440 0.703132
445 0.923453
450 0.643492
455 0.606194
460 0.611225
465 0.759979
470 0.720744
475 0.660317
480 0.683507
485 0.628764
490 0.667423
495 0.642071
500 0.676417
505 0.724225
510 0.666694
515 0.686753
520 0.774745
525 0.659377
530 0.688379
535 0.694681
540 0.645005
545 0.794696
550 0.675744
555 0.746326
560 0.86514
565 0.807061
570 0.817557
575 0.831147
580 1.01015
585 0.974106
590 7.54901
595 141.692
600 269.183
