File format V 1.0
ven. 9. déc. 23:06:42 2016
Operator : 
Comments : 

=============================================
SpectroFluorometer parameters
Mode : 3D measurement
Data : Fluorescence
Phospho. : Ordinary
Spectrum : Fluorescence

Scan speed : 2400 nm/mn
Response : 100 ms
PM Voltage : 700 V
Shutter : On

Lambda Ex. Start : 203
Lambda Ex. End : 603
Lambda Ex. Step : 5
Ex. Slit : 5 nm

Lambda Em. Start : 200
Lambda Em. End : 600
Lambda Em. Step : 5
Em. Slit : 5 nm

Repetition : 1
Decal lambda em : 10
=============================================
DATA
Ex : 203
200 13.3497
205 15.4325
210 15.3781
215 13.9433
220 10.5343
225 10.6015
230 10.231
235 12.3985
240 17.716
245 14.1169
250 14.5834
255 15.1128
260 16.4743
265 19.2467
270 13.4613
275 15.7163
280 11.4272
285 15.6282
290 16.1406
295 11.5751
300 11.0036
305 15.3831
310 16.1924
315 15.1679
320 10.1475
325 13.7232
330 16.1231
335 17.2305
340 15.6428
345 11.8274
350 16.1516
355 14.0738
360 22.4572
365 14.0234
370 19.7854
375 23.5258
380 14.8638
385 19.7472
390 13.5886
395 14.845
400 12.5427
405 12.5075
410 16.692
415 18.6919
420 14.6682
425 13.9457
430 15.7108
435 15.895
440 16.7775
445 17.7455
450 23.5112
455 14.8569
460 14.8723
465 20.5434
470 16.0872
475 10.3144
480 13.3487
485 17.5951
490 16.7335
495 16.7935
500 13.6321
505 17.1132
510 13.0868
515 13.1792
520 18.3046
525 15.5185
530 15.1568
535 11.5188
540 15.1385
545 15.749
550 16.5052
555 17.5744
560 12.7322
565 12.0624
570 16.712
575 15.4828
580 12.0693
585 13.3542
590 14.4874
595 13.2136
600 3.71916
Ex : 208
200 14.5906
205 14.5364
210 19.7506
215 11.6986
220 13.6833
225 15.5204
230 11.1285
235 19.207
240 13.7493
245 13.4797
250 14.2275
255 12.7852
260 20.8109
265 14.9829
270 16.7653
275 14.769
280 15.6806
285 17.0753
290 20.2598
295 15.0734
300 16.4663
305 18.9826
310 17.4915
315 21.2709
320 19.521
325 17.6802
330 14.0189
335 16.2833
340 12.5294
345 18.1229
350 15.9443
355 13.1293
360 11.7199
365 15.0029
370 11.3958
375 17.1409
380 10.9031
385 14.9533
390 14.3916
395 15.0726
400 11.5386
405 16.8998
410 16.1767
415 14.4108
420 16.2701
425 20.3633
430 15.7082
435 16.9411
440 18.1873
445 21.1894
450 13.8032
455 11.7369
460 15.9002
465 17.5055
470 13.7808
475 20.533
480 12.6319
485 15.1656
490 16.4145
495 19.5177
500 13.7364
505 23.0409
510 13.0635
515 15.1907
520 14.9887
525 14.2777
530 21.9904
535 16.312
540 14.5975
545 15.3606
550 17.8876
555 12.1876
560 17.2292
565 12.4033
570 11.9964
575 14.8312
580 12.6103
585 18.6408
590 14.2816
595 13.5889
600 10.4084
Ex : 213
200 17.3468
205 17.8687
210 21.4508
215 13.1896
220 16.599
225 17.0158
230 22.9615
235 13.8347
240 14.4552
245 14.3835
250 17.5707
255 16.2233
260 11.7573
265 14.013
270 16.133
275 13.6625
280 14.6782
285 14.1687
290 13.0967
295 17.0853
300 15.2268
305 13.5236
310 10.0145
315 16.3317
320 18.1167
325 19.6614
330 20.8074
335 10.6235
340 14.6168
345 19.4317
350 15.2437
355 15.2184
360 15.4327
365 16.3203
370 18.0186
375 17.171
380 16.6186
385 12.9088
390 22.8742
395 20.485
400 21.5699
405 13.4587
410 14.1923
415 13.2055
420 15.037
425 12.7613
430 15.9503
435 21.1673
440 17.4155
445 15.3682
450 15.4497
455 16.4052
460 21.1945
465 16.7056
470 12.0667
475 15.9394
480 11.4144
485 16.9966
490 17.8107
495 14.338
500 15.426
505 13.1405
510 18.6071
515 14.6667
520 12.4156
525 15.5337
530 15.2084
535 16.7151
540 11.101
545 11.3868
550 13.3318
555 11.774
560 14.4164
565 15.0695
570 14.7653
575 14.6231
580 13.6411
585 13.073
590 14.871
595 13.1156
600 1.49251
Ex : 218
200 14.6453
205 12.1737
210 14.4827
215 11.8759
220 16.7179
225 14.3879
230 12.0054
235 15.4145
240 13.0996
245 12.9102
250 14.2534
255 12.511
260 12.9337
265 23.4825
270 17.9261
275 16.9852
280 13.5563
285 12.6408
290 12.8629
295 13.4003
300 13.8074
305 14.3391
310 14.8352
315 13.0297
320 15.461
325 13.1962
330 13.9992
335 14.7099
340 13.3017
345 12.5414
350 17.9663
355 14.9679
360 15.5261
365 17.5538
370 14.5641
375 13.4571
380 13.1118
385 13.6787
390 14.7215
395 15.0992
400 16.4144
405 19.4261
410 18.5701
415 13.2045
420 13.7037
425 15.0218
430 12.8958
435 12.1681
440 15.9314
445 18.1721
450 17.9833
455 17.2959
460 14.9514
465 17.1739
470 15.7157
475 12.8271
480 20.7504
485 17.6547
490 15.3581
495 12.61
500 16.6481
505 13.3438
510 13.9147
515 18.5951
520 16.7951
525 15.7302
530 18.9784
535 11.5046
540 14.7065
545 10.3704
550 14.7959
555 12.8801
560 12.587
565 13.3655
570 16.8054
575 15.4713
580 13.424
585 9.1151
590 12.9744
595 14.2233
600 1.84011
Ex : 223
200 17.8289
205 13.5741
210 17.1202
215 13.4217
220 15.1769
225 11.6346
230 13.7152
235 14.3516
240 14.6505
245 14.1537
250 15.0604
255 10.2441
260 12.7906
265 17.1844
270 13.0791
275 12.2228
280 12.2647
285 8.87656
290 13.9022
295 15.7454
300 12.4262
305 12.2921
310 12.9144
315 13.2972
320 15.0074
325 13.3753
330 15.1073
335 15.4951
340 17.459
345 13.7487
350 11.006
355 10.9292
360 14.0259
365 17.7895
370 14.7139
375 17.8169
380 11.2118
385 10.8919
390 13.4121
395 16.1337
400 12.5997
405 16.4894
410 12.5257
415 16.9555
420 12.4856
425 15.4327
430 14.7312
435 16.8979
440 14.7491
445 11.815
450 14.2956
455 13.1996
460 11.2884
465 11.266
470 13.5876
475 10.5729
480 11.6362
485 14.955
490 20.4345
495 16.3513
500 14.4721
505 13.5651
510 12.4669
515 12.1302
520 14.6369
525 17.9728
530 15.7288
535 13.0602
540 12.0031
545 15.2225
550 11.7915
555 14.7629
560 16.8743
565 16.7346
570 17.6914
575 13.7519
580 13.0241
585 13.9443
590 12.9991
595 12.1414
600 1.38164
Ex : 228
200 10.64
205 11.4268
210 10.1124
215 12.1985
220 11.5136
225 11.5335
230 12.0341
235 13.7375
240 14.3629
245 9.84548
250 13.2795
255 13.4387
260 11.6209
265 13.5298
270 14.501
275 12.2384
280 13.2999
285 9.69909
290 11.4666
295 13.3023
300 11.7755
305 10.5298
310 13.8267
315 10.5121
320 13.8224
325 14.0724
330 12.9609
335 13.6476
340 9.99083
345 11.8256
350 13.031
355 18.9387
360 14.2592
365 13.7996
370 12.0666
375 12.2315
380 14.2634
385 14.509
390 14.2955
395 12.4597
400 10.1474
405 12.4583
410 10.7623
415 11.7332
420 14.8749
425 15.6433
430 14.0333
435 16.1938
440 18.2208
445 15.214
450 11.8811
455 15.0269
460 14.1591
465 13.2819
470 10.0135
475 14.4562
480 16.1263
485 14.2466
490 13.4388
495 13.1345
500 13.3367
505 15.9828
510 13.8458
515 14.336
520 16.5135
525 11.3579
530 14.0224
535 11.6209
540 13.1008
545 12.7624
550 11.2157
555 14.3788
560 12.3239
565 16.2069
570 14.2828
575 10.6873
580 11.0326
585 16.835
590 12.9499
595 12.1831
600 12.7593
Ex : 233
200 18.966
205 11.7843
210 11.7001
215 11.4825
220 12.963
225 17.2645
230 9.68491
235 12.9966
240 11.028
245 9.36911
250 12.2279
255 15.7831
260 9.7638
265 14.9949
270 13.0044
275 10.4171
280 10.8021
285 12.4709
290 10.1189
295 16.9842
300 10.2555
305 9.54126
310 16.451
315 14.7265
320 12.1673
325 12.0533
330 11.1784
335 12.0616
340 10.6654
345 9.01311
350 12.5094
355 9.99016
360 17.4347
365 15.1776
370 11.0302
375 11.07
380 10.5261
385 15.1378
390 13.6507
395 12.4176
400 11.629
405 11.5909
410 10.706
415 11.8486
420 10.9309
425 15.9708
430 13.987
435 13.2766
440 12.8678
445 11.6941
450 12.3771
455 14.8658
460 11.9674
465 11.8528
470 13.0136
475 13.8273
480 14.2228
485 14.3532
490 9.46904
495 8.6824
500 12.446
505 16.0657
510 15.0628
515 13.5762
520 13.6748
525 11.7688
530 11.1596
535 9.22424
540 11.931
545 10.0747
550 11.1503
555 10.5845
560 13.0742
565 10.1717
570 12.9156
575 14.2669
580 14.5153
585 13.1478
590 10.537
595 10.0085
600 6.75155
Ex : 238
200 10.3719
205 7.84012
210 7.01087
215 9.64191
220 11.7015
225 7.68084
230 10.6259
235 10.2278
240 7.81654
245 10.7628
250 12.3079
255 9.83405
260 12.5899
265 11.7396
270 13.9615
275 12.0872
280 9.73006
285 11.5946
290 8.60642
295 11.2237
300 11.4961
305 10.4797
310 13.1435
315 11.5969
320 12.6016
325 9.96955
330 11.4786
335 11.9885
340 11.9036
345 11.5315
350 10.3755
355 9.93934
360 9.92871
365 14.8757
370 8.85808
375 12.2218
380 10.2316
385 11.4314
390 11.8436
395 9.36525
400 13.7756
405 13.2404
410 10.5971
415 9.7925
420 12.155
425 9.13747
430 12.2152
435 8.15337
440 13.0951
445 13.0068
450 13.1039
455 9.59679
460 11.372
465 12.7469
470 11.9785
475 11.1367
480 11.6179
485 11.3127
490 10.8452
495 11.2829
500 11.9652
505 12.5747
510 10.226
515 8.2682
520 10.153
525 7.73965
530 8.54951
535 9.58834
540 9.40363
545 10.0454
550 10.9852
555 8.40645
560 10.5809
565 12.3613
570 8.63523
575 10.0957
580 8.64749
585 9.00457
590 10.62
595 12.1663
600 1.82758
Ex : 243
200 9.67279
205 8.43836
210 9.47637
215 12.4591
220 7.92449
225 8.87761
230 8.91092
235 6.78531
240 9.95429
245 9.2607
250 11.9048
255 9.49255
260 9.03366
265 8.95531
270 9.50333
275 11.0726
280 9.49047
285 8.26918
290 7.99909
295 7.36876
300 12.599
305 8.73324
310 9.24443
315 9.14895
320 6.77302
325 9.11339
330 7.60242
335 9.32348
340 12.441
345 8.311
350 9.49696
355 10.3067
360 8.09045
365 8.71597
370 9.09712
375 10.1797
380 9.96025
385 12.5008
390 7.90066
395 10.3589
400 9.39546
405 9.1225
410 8.49754
415 9.64033
420 8.98296
425 11.3744
430 9.12813
435 8.2197
440 11.9222
445 10.916
450 11.5604
455 11.5528
460 10.6133
465 8.79149
470 8.18815
475 10.6131
480 10.9974
485 7.99899
490 10.431
495 11.2396
500 11.3691
505 9.97856
510 11.1939
515 9.07307
520 10.0764
525 12.2493
530 9.14736
535 10.0125
540 9.17474
545 12.183
550 10.7451
555 8.28631
560 10.2267
565 11.4964
570 10.5491
575 11.0549
580 8.47424
585 9.62187
590 10.3003
595 9.24126
600 1.05162
Ex : 248
200 7.50453
205 7.2381
210 8.28802
215 8.23061
220 7.60131
225 6.98691
230 7.03206
235 8.48527
240 7.59844
245 6.57973
250 6.72159
255 6.06273
260 6.41507
265 7.55514
270 8.66942
275 6.26821
280 7.99838
285 5.53873
290 6.86726
295 7.15158
300 6.57278
305 7.63245
310 7.86033
315 8.53981
320 8.62012
325 9.76066
330 8.68625
335 7.5116
340 8.4917
345 9.53757
350 10.2943
355 8.47377
360 8.25883
365 9.66087
370 8.74532
375 7.60191
380 5.29041
385 6.34859
390 7.53695
395 10.8288
400 7.11295
405 9.64938
410 10.8515
415 8.6226
420 8.68769
425 7.66862
430 9.21822
435 9.66366
440 8.79581
445 11.4715
450 10.0609
455 7.79696
460 8.55485
465 7.51308
470 9.58407
475 7.19978
480 8.73402
485 8.82022
490 6.78901
495 9.73366
500 9.31385
505 7.90857
510 7.92764
515 8.4887
520 8.04202
525 6.56402
530 5.65206
535 7.19785
540 10.1351
545 9.95776
550 9.73594
555 8.40701
560 7.33296
565 7.45295
570 6.08899
575 7.0747
580 7.42471
585 7.15177
590 7.16264
595 9.7526
600 4.65462
Ex : 253
200 6.06965
205 4.55737
210 4.33257
215 5.15965
220 5.70194
225 5.65231
230 6.54971
235 7.50847
240 6.50645
245 6.90975
250 7.96522
255 6.37097
260 5.37078
265 5.47326
270 4.99419
275 5.53723
280 4.96414
285 7.56659
290 6.62355
295 6.8121
300 5.88955
305 6.18854
310 6.31536
315 5.57168
320 6.59878
325 5.95653
330 9.6233
335 6.65401
340 6.68744
345 5.73599
350 4.92963
355 7.24313
360 6.78312
365 5.85093
370 7.78498
375 7.42358
380 5.92799
385 6.6388
390 6.57538
395 7.00226
400 5.75202
405 6.57581
410 5.35656
415 8.04685
420 7.80865
425 7.01873
430 7.12267
435 8.3746
440 6.7357
445 7.69218
450 5.75874
455 6.35553
460 8.449
465 8.17644
470 7.32643
475 7.25129
480 6.29586
485 6.49495
490 6.43394
495 6.64459
500 6.25554
505 7.22102
510 6.50345
515 7.37058
520 5.91326
525 6.95729
530 5.05629
535 6.00282
540 5.34627
545 5.97959
550 6.50736
555 6.78033
560 5.62078
565 4.54377
570 5.96307
575 7.0462
580 5.30519
585 4.33172
590 7.07551
595 5.37203
600 5.33774
Ex : 258
200 4.31528
205 4.59151
210 6.44418
215 5.36599
220 4.46913
225 4.81955
230 4.57942
235 4.98
240 6.13762
245 4.62793
250 4.72308
255 5.2971
260 3.30814
265 5.05554
270 3.47903
275 5.37133
280 4.73944
285 4.42133
290 5.68875
295 4.83858
300 5.0699
305 4.34637
310 4.88694
315 4.64561
320 4.82613
325 4.631
330 5.0232
335 6.0514
340 7.21173
345 4.75019
350 6.66984
355 6.04301
360 5.04065
365 6.16592
370 6.7458
375 6.46239
380 4.62553
385 5.32087
390 5.25984
395 6.46273
400 6.42544
405 7.30586
410 5.35238
415 4.96906
420 3.94648
425 5.54698
430 5.08999
435 5.02245
440 6.20834
445 4.5161
450 4.5774
455 5.09485
460 4.61848
465 5.88466
470 4.99056
475 5.44887
480 5.12464
485 5.59983
490 5.54909
495 5.91716
500 4.28764
505 5.58705
510 6.29453
515 5.26664
520 5.56623
525 5.12988
530 3.97177
535 4.17021
540 4.57389
545 4.90642
550 5.21816
555 5.18753
560 4.19504
565 5.67551
570 3.50452
575 4.7781
580 4.28932
585 6.11533
590 4.60778
595 4.63797
600 10.4124
Ex : 263
200 4.81085
205 3.52667
210 2.64646
215 2.6427
220 4.32631
225 4.29628
230 3.16237
235 3.29401
240 4.34186
245 4.59847
250 4.21446
255 3.94999
260 3.69039
265 4.05827
270 3.62127
275 3.20693
280 3.38983
285 3.22295
290 3.47383
295 2.71773
300 3.53884
305 4.69791
310 3.5964
315 4.57574
320 3.63649
325 3.75891
330 3.12536
335 4.06522
340 4.06065
345 5.27214
350 3.41556
355 4.03298
360 4.6816
365 3.37073
370 4.68455
375 3.43704
380 4.6258
385 3.88053
390 4.64503
395 5.56488
400 4.35349
405 4.13489
410 3.81754
415 3.88732
420 3.94562
425 3.95983
430 4.44122
435 4.97367
440 4.92718
445 4.64647
450 3.80006
455 5.21369
460 3.6088
465 4.92127
470 4.68981
475 4.12206
480 4.5391
485 3.34156
490 5.23855
495 3.93148
500 4.74628
505 3.98364
510 3.71174
515 3.16732
520 5.14485
525 5.06909
530 3.9615
535 4.1927
540 4.3551
545 3.64236
550 3.68834
555 4.04352
560 3.3244
565 3.76126
570 4.6087
575 3.65615
580 3.69514
585 3.45544
590 3.28104
595 4.23652
600 4.41463
Ex : 268
200 2.80235
205 2.83033
210 3.27784
215 2.61011
220 2.66717
225 2.7855
230 2.89251
235 2.75604
240 3.60329
245 3.26512
250 2.57509
255 2.75425
260 3.19618
265 3.0244
270 2.81049
275 3.10001
280 2.91222
285 2.78075
290 2.65959
295 2.78278
300 2.93979
305 2.92955
310 2.15264
315 2.63962
320 2.50176
325 3.6926
330 2.87486
335 3.2246
340 2.96544
345 3.22231
350 3.28521
355 3.70256
360 2.60173
365 3.30331
370 3.08044
375 3.70868
380 3.78284
385 3.04804
390 3.7396
395 3.40007
400 3.74637
405 4.37405
410 5.10063
415 3.88817
420 3.82461
425 3.49436
430 3.28505
435 3.18306
440 3.72172
445 3.64336
450 3.2488
455 3.33528
460 3.53697
465 3.58804
470 3.50372
475 3.16697
480 3.14123
485 3.19181
490 3.66883
495 2.99384
500 2.60403
505 3.6156
510 3.38934
515 2.92026
520 3.48221
525 3.20904
530 4.05769
535 3.77502
540 3.30398
545 3.48023
550 3.13821
555 2.55833
560 3.19614
565 2.95367
570 2.07212
575 2.66387
580 2.78597
585 3.5437
590 3.34018
595 3.58057
600 0.407455
Ex : 273
200 1.88569
205 2.82016
210 2.28821
215 1.79041
220 1.94591
225 2.50888
230 1.99989
235 2.57078
240 2.01923
245 2.56683
250 2.27988
255 2.55694
260 2.49676
265 2.09154
270 2.31563
275 2.67459
280 2.30743
285 2.1532
290 2.208
295 2.73466
300 2.34854
305 2.25951
310 2.4633
315 2.36575
320 1.78004
325 2.2289
330 2.46619
335 3.4795
340 2.41538
345 3.29548
350 2.88437
355 2.69116
360 2.89386
365 2.55361
370 2.5385
375 2.73936
380 3.01939
385 3.1247
390 3.10713
395 2.70678
400 2.74017
405 3.03247
410 2.63834
415 2.83548
420 2.44769
425 2.46524
430 2.21286
435 3.06667
440 2.95183
445 2.88753
450 2.79845
455 2.70162
460 3.50942
465 3.36315
470 3.2612
475 2.88703
480 2.39266
485 2.83891
490 2.96731
495 1.79902
500 2.36521
505 2.8594
510 3.1695
515 2.85184
520 2.2403
525 2.58878
530 2.6195
535 3.91533
540 2.79484
545 2.95162
550 2.43673
555 2.18649
560 2.80332
565 2.41329
570 2.49852
575 2.23058
580 1.93947
585 2.44977
590 2.3751
595 2.24944
600 1.75145
Ex : 278
200 2.11431
205 2.13873
210 2.00761
215 2.47779
220 1.91302
225 1.88968
230 1.79098
235 2.24509
240 2.34385
245 1.88993
250 1.3493
255 2.38441
260 2.16946
265 1.98667
270 2.05924
275 1.68512
280 2.1883
285 2.04151
290 2.08643
295 1.37385
300 1.94812
305 1.49115
310 1.7361
315 1.47256
320 2.50854
325 1.97078
330 2.17602
335 2.07192
340 2.61736
345 2.78887
350 2.36705
355 1.82525
360 2.72533
365 2.59886
370 2.80158
375 2.39877
380 3.13957
385 2.61313
390 2.28366
395 2.2061
400 2.20785
405 2.94123
410 2.79291
415 2.52572
420 2.32589
425 2.16201
430 2.63505
435 2.52712
440 2.17579
445 2.55889
450 2.14529
455 2.40502
460 2.58337
465 2.5422
470 1.83928
475 2.67183
480 2.54449
485 2.12576
490 2.20485
495 1.78124
500 2.49983
505 2.80583
510 2.38572
515 2.03225
520 1.71425
525 1.52198
530 1.90271
535 2.73836
540 2.76983
545 3.06654
550 2.3731
555 2.18993
560 2.10975
565 1.58041
570 2.26642
575 1.47359
580 1.41195
585 1.6684
590 2.21001
595 2.56535
600 1.23531
Ex : 283
200 1.47758
205 1.47979
210 1.06032
215 1.23562
220 1.47916
225 2.12964
230 1.72341
235 1.45109
240 1.49357
245 1.62765
250 1.67471
255 1.74797
260 1.80667
265 1.67991
270 1.3865
275 1.41156
280 2.06428
285 1.58957
290 1.41326
295 1.54091
300 2.13833
305 1.46906
310 1.58117
315 2.13187
320 1.94541
325 1.50307
330 1.93638
335 1.78461
340 1.86811
345 1.8564
350 1.95131
355 1.73978
360 1.92559
365 2.22635
370 1.84053
375 2.06136
380 1.88751
385 2.08936
390 1.81932
395 2.16455
400 2.40572
405 2.0929
410 1.93762
415 1.91318
420 2.33813
425 1.97609
430 2.12157
435 2.26408
440 2.22303
445 1.93849
450 2.20491
455 1.58251
460 1.93259
465 2.1091
470 2.01587
475 1.82204
480 1.94879
485 1.68313
490 2.02502
495 1.51359
500 1.96136
505 1.17726
510 1.30614
515 1.56852
520 1.73134
525 1.39827
530 1.07101
535 1.61033
540 1.72477
545 1.61716
550 1.4849
555 1.99728
560 2.38525
565 2.59714
570 1.91524
575 1.70938
580 1.56725
585 1.2687
590 1.29055
595 1.44798
600 10.8447
Ex : 288
200 1.48434
205 0.962363
210 1.70478
215 1.41259
220 1.32041
225 1.41509
230 1.21056
235 1.32032
240 1.51132
245 1.38137
250 1.14978
255 1.27278
260 1.48169
265 1.35979
270 1.46212
275 1.64468
280 1.55788
285 1.72485
290 1.51858
295 1.26234
300 1.14505
305 1.39135
310 1.58012
315 1.76003
320 1.29412
325 1.22251
330 1.23799
335 1.72099
340 1.97841
345 1.81586
350 1.59704
355 1.47807
360 1.6604
365 1.81639
370 1.72639
375 1.55753
380 1.71838
385 1.88484
390 1.99566
395 2.04909
400 1.78476
405 1.94551
410 2.16525
415 1.84379
420 1.93312
425 1.79642
430 2.41579
435 1.61652
440 1.84395
445 1.72794
450 1.78079
455 1.73183
460 1.50487
465 1.80419
470 1.76834
475 2.29807
480 1.50287
485 1.56838
490 1.73537
495 1.17789
500 1.72548
505 1.5505
510 1.58734
515 1.81392
520 1.25981
525 1.4813
530 1.54056
535 1.16884
540 1.30581
545 1.0247
550 1.32991
555 1.32764
560 1.6895
565 1.47127
570 1.85983
575 2.11972
580 1.47757
585 1.38275
590 1.38388
595 1.60535
600 0.675018
Ex : 293
200 1.10982
205 1.12865
210 1.03637
215 1.11112
220 0.902542
225 1.17213
230 1.17244
235 1.17866
240 0.99462
245 1.3119
250 1.20628
255 1.3685
260 1.09285
265 1.18847
270 1.40493
275 1.30796
280 1.33017
285 1.28929
290 1.61324
295 1.19354
300 1.17613
305 1.10531
310 1.11227
315 1.02314
320 1.01632
325 1.34527
330 1.25671
335 1.19075
340 1.43843
345 1.36693
350 1.3516
355 1.49794
360 1.48487
365 1.51197
370 1.52789
375 1.61364
380 1.61439
385 1.77255
390 1.75514
395 1.81139
400 1.6823
405 1.68523
410 1.9379
415 1.87295
420 1.56484
425 1.61676
430 1.71845
435 1.53394
440 1.58727
445 1.45326
450 1.45932
455 1.50094
460 1.5532
465 1.48304
470 1.38049
475 1.31458
480 1.39218
485 1.29125
490 1.0829
495 1.4842
500 1.3042
505 1.73157
510 1.30996
515 1.32902
520 1.36742
525 1.23571
530 1.28274
535 1.03176
540 1.32346
545 1.0849
550 0.921371
555 1.05118
560 0.983111
565 1.14833
570 1.07684
575 1.46141
580 1.83124
585 1.71741
590 1.52063
595 1.13947
600 0.14671
Ex : 298
200 0.841226
205 1.2157
210 1.27513
215 1.22909
220 0.886631
225 0.659737
230 0.965608
235 0.821645
240 1.01894
245 0.885341
250 0.97445
255 1.01288
260 1.28572
265 1.0846
270 0.773954
275 1.19104
280 1.3018
285 0.979204
290 1.13528
295 1.38017
300 0.785204
305 0.979149
310 0.708407
315 1.02513
320 0.978053
325 1.13612
330 1.11816
335 1.3593
340 1.26101
345 1.3844
350 1.27554
355 1.55051
360 1.26054
365 1.63499
370 1.36466
375 1.35113
380 1.51119
385 1.60882
390 1.68331
395 1.58732
400 1.55893
405 1.78709
410 1.88479
415 1.43446
420 1.4584
425 1.5905
430 1.66885
435 1.23607
440 1.35404
445 1.50015
450 1.36447
455 1.03788
460 1.38694
465 1.16087
470 1.36479
475 1.31333
480 1.21225
485 1.10106
490 1.13764
495 1.32964
500 1.15205
505 1.4162
510 1.19242
515 1.27587
520 1.0763
525 1.39723
530 1.30918
535 0.95068
540 1.07436
545 1.23361
550 1.13727
555 1.24995
560 0.935026
565 0.960009
570 0.775607
575 1.0815
580 0.816496
585 1.3405
590 1.95335
595 1.61742
600 1.84569
Ex : 303
200 0.694056
205 0.760315
210 0.937911
215 0.971976
220 0.84507
225 0.694188
230 0.894971
235 0.936692
240 0.961101
245 0.848187
250 0.855854
255 0.662363
260 1.04983
265 1.07179
270 1.14851
275 0.742965
280 1.02606
285 0.961478
290 0.973445
295 0.913445
300 1.43918
305 1.10902
310 1.06466
315 0.828165
320 0.716024
325 0.894953
330 0.872909
335 1.0905
340 1.15122
345 1.09926
350 0.990591
355 0.943207
360 1.23792
365 1.59228
370 1.28918
375 1.35871
380 1.14095
385 1.33781
390 1.42388
395 1.47658
400 1.50047
405 1.39305
410 1.34107
415 1.33651
420 1.29557
425 1.40854
430 1.58494
435 1.39708
440 1.16638
445 1.20926
450 1.01507
455 1.48091
460 1.33501
465 1.14925
470 1.2052
475 1.1476
480 0.973331
485 0.989737
490 0.960865
495 1.05211
500 0.829001
505 0.763346
510 0.942273
515 0.9564
520 1.09758
525 1.03209
530 0.769152
535 0.890805
540 0.930602
545 0.800899
550 0.918555
555 0.862917
560 1.05674
565 1.13798
570 1.02733
575 0.812424
580 0.804871
585 0.697319
590 0.951162
595 0.995071
600 3.55379
Ex : 308
200 0.77688
205 0.887874
210 0.71712
215 0.989087
220 0.713047
225 0.654064
230 0.718866
235 0.735058
240 0.749132
245 0.724217
250 0.706551
255 0.714828
260 0.688228
265 0.610428
270 0.852608
275 0.871102
280 0.953996
285 0.781242
290 0.649483
295 0.670339
300 1.10205
305 1.04867
310 0.756983
315 0.725175
320 0.69153
325 0.914154
330 1.10633
335 1.09686
340 0.987549
345 1.10567
350 1.38401
355 0.965195
360 1.23758
365 1.10275
370 1.1782
375 1.3368
380 1.33144
385 1.30762
390 1.48004
395 1.52404
400 1.52202
405 1.47025
410 1.47513
415 1.18209
420 1.18102
425 1.26694
430 1.31821
435 1.61935
440 1.34358
445 1.41729
450 1.60219
455 1.23681
460 0.956847
465 1.30813
470 0.998035
475 0.853184
480 0.904562
485 1.09696
490 1.11067
495 1.02529
500 1.09428
505 0.896729
510 0.884913
515 1.15107
520 0.893953
525 0.83036
530 0.80652
535 0.84914
540 0.956938
545 0.965587
550 0.695358
555 0.868241
560 0.765448
565 0.976064
570 0.722409
575 0.865339
580 0.873035
585 0.966275
590 0.567027
595 0.622332
600 0.350673
Ex : 313
200 0.512764
205 0.667478
210 0.546539
215 0.707661
220 0.576539
225 0.776632
230 0.6283
235 0.582695
240 0.587133
245 0.679401
250 0.597567
255 0.548782
260 0.779171
265 0.542073
270 0.725847
275 0.836347
280 0.739685
285 0.910696
290 0.836153
295 0.585339
300 0.778737
305 1.06381
310 1.0324
315 0.669589
320 0.691979
325 0.792132
330 0.955187
335 0.922869
340 1.04286
345 1.06447
350 1.16474
355 1.25827
360 1.00432
365 1.21948
370 1.24873
375 1.31304
380 1.25463
385 1.32438
390 1.46599
395 1.6622
400 1.35193
405 1.25562
410 1.40549
415 1.46294
420 1.67491
425 1.32756
430 1.11443
435 1.31726
440 1.19118
445 1.45638
450 1.27183
455 1.1288
460 1.19792
465 0.893214
470 1.04493
475 1.13893
480 1.15296
485 0.861682
490 1.06336
495 0.818568
500 0.789891
505 1.11496
510 0.903768
515 0.817793
520 1.04743
525 0.805745
530 0.885571
535 0.881595
540 0.715775
545 0.805296
550 0.730274
555 0.713656
560 0.631695
565 0.591165
570 0.767048
575 0.797132
580 0.790332
585 0.712335
590 0.87611
595 0.55465
600 0.0631171
Ex : 318
200 0.495933
205 0.608965
210 0.52817
215 0.529089
220 0.573483
225 0.61405
230 0.715706
235 0.466818
240 0.634355
245 0.749368
250 0.536509
255 0.689448
260 0.626538
265 0.45226
270 0.551816
275 0.566038
280 0.743039
285 0.591083
290 0.628994
295 0.69006
300 0.756432
305 0.694301
310 0.944997
315 1.56571
320 0.94051
325 1.12349
330 1.2376
335 1.30403
340 1.62195
345 1.77034
350 2.09201
355 2.68215
360 3.00706
365 3.68622
370 3.97793
375 4.40473
380 5.08457
385 5.85414
390 5.82521
395 6.08183
400 6.7873
405 6.88068
410 6.20017
415 6.76271
420 6.28742
425 6.07253
430 5.72845
435 5.67421
440 5.53764
445 5.05396
450 4.83108
455 4.98798
460 4.50086
465 3.75053
470 4.1907
475 3.55453
480 3.5073
485 2.64753
490 3.03266
495 2.51374
500 2.50277
505 2.19188
510 1.89725
515 1.81956
520 1.78138
525 1.3148
530 1.26634
535 1.01597
540 1.17181
545 0.853196
550 1.09388
555 0.931479
560 0.837381
565 0.890698
570 0.924309
575 0.771658
580 0.873566
585 0.63856
590 0.618699
595 0.657082
600 0.45724
Ex : 323
200 0.46232
205 0.472214
210 0.487599
215 0.667784
220 0.57642
225 0.623655
230 0.595551
235 0.739847
240 0.508114
245 0.685434
250 0.616974
255 0.675316
260 0.562324
265 0.432072
270 0.61692
275 0.52681
280 0.531683
285 0.577521
290 0.464393
295 0.370037
300 0.49939
305 0.46239
310 0.637127
315 5.46794
320 25.7733
325 12.0486
330 3.35261
335 3.30344
340 4.39348
345 6.15357
350 8.27876
355 11.4089
360 13.7166
365 16.4488
370 18.5832
375 22.7146
380 25.905
385 27.7846
390 30.3094
395 32.3629
400 33.2119
405 33.8767
410 35.1841
415 34.0491
420 33.7017
425 32.1213
430 29.8124
435 28.9115
440 28.7612
445 27.0311
450 24.5054
455 23.8757
460 22.195
465 20.4187
470 18.7787
475 16.7062
480 15.6448
485 14.5814
490 12.9949
495 11.1504
500 10.1863
505 8.80938
510 7.93655
515 7.02246
520 6.14673
525 4.92884
530 4.53857
535 4.23821
540 3.5964
545 3.04833
550 2.74771
555 2.34141
560 2.20246
565 2.06818
570 1.83525
575 1.69384
580 1.11166
585 1.0957
590 0.969093
595 0.869064
600 0.976894
Ex : 328
200 0.39799
205 0.546568
210 0.393185
215 0.632507
220 0.558805
225 0.533094
230 0.57408
235 0.462064
240 0.481861
245 0.478632
250 0.471703
255 0.443464
260 0.517347
265 0.404079
270 0.539333
275 0.603301
280 0.750197
285 0.560154
290 0.482848
295 0.566073
300 0.539718
305 0.631726
310 0.652256
315 1.94488
320 69.4023
325 181.428
330 56.6087
335 10.9745
340 7.28544
345 8.4425
350 11.0602
355 15.4466
360 20.2006
365 22.5765
370 25.7009
375 28.8281
380 33.1717
385 36.2775
390 40.0973
395 41.8471
400 43.6141
405 44.6082
410 45.1315
415 44.8521
420 43.8519
425 41.6391
430 40.7573
435 38.8318
440 37.8417
445 35.3422
450 34.093
455 31.0177
460 28.1961
465 25.9291
470 24.1033
475 22.5515
480 20.7275
485 18.8456
490 16.4872
495 14.8334
500 13.1123
505 11.3644
510 10.4684
515 8.86039
520 7.71342
525 7.10177
530 5.88387
535 5.22634
540 4.80653
545 4.20724
550 3.4531
555 3.16088
560 2.76754
565 2.32421
570 2.02523
575 1.71789
580 1.66013
585 1.33585
590 1.18095
595 0.816536
600 0.979123
Ex : 333
200 0.532605
205 0.66253
210 0.449714
215 0.581947
220 0.551968
225 0.585373
230 0.418416
235 0.432119
240 0.498203
245 0.545889
250 0.588617
255 0.561318
260 0.490872
265 0.500677
270 0.606421
275 0.461566
280 0.480656
285 0.61377
290 0.578609
295 0.66459
300 0.634307
305 0.56308
310 0.618728
315 0.693962
320 11.6167
325 237.164
330 408.354
335 106.443
340 16.8555
345 7.88994
350 8.04922
355 9.21635
360 12.3921
365 17.523
370 18.2427
375 18.3033
380 20.0617
385 22.2253
390 24.2273
395 25.1376
400 25.9325
405 26.9063
410 27.6394
415 27.6158
420 26.9796
425 25.1217
430 24.4384
435 23.1454
440 21.7214
445 20.7543
450 19.5705
455 18.2416
460 16.6011
465 15.5016
470 14.132
475 13.3785
480 11.9677
485 10.5468
490 9.6404
495 9.22361
500 8.02596
505 7.23726
510 6.26294
515 5.52529
520 4.95731
525 4.06103
530 3.99094
535 3.82863
540 3.08205
545 2.89169
550 2.27445
555 2.41092
560 1.94234
565 1.7576
570 1.58139
575 1.23146
580 1.03348
585 1.17513
590 0.875319
595 1.01908
600 1.36627
Ex : 338
200 0.438608
205 0.522932
210 0.518607
215 0.452388
220 0.417191
225 0.495288
230 0.345371
235 0.528803
240 0.391359
245 0.527687
250 0.401035
255 0.464403
260 0.667005
265 0.497107
270 0.509972
275 0.443175
280 0.402909
285 0.39774
290 0.566163
295 0.529457
300 0.521417
305 0.476011
310 0.675079
315 0.718996
320 0.870911
325 23.8174
330 380.168
335 555.244
340 134.763
345 19.4309
350 7.10248
355 5.653
360 5.26497
365 7.37211
370 12.2672
375 12.1533
380 11.2695
385 11.2649
390 12.5726
395 13.2769
400 13.0274
405 13.5985
410 15.3233
415 14.6348
420 14.1226
425 13.2313
430 12.0827
435 12.191
440 11.7033
445 11.0117
450 10.3892
455 9.27311
460 8.79266
465 8.67921
470 7.55939
475 7.25695
480 6.71113
485 6.0237
490 5.56746
495 5.13189
500 4.65406
505 4.04592
510 3.85658
515 3.25874
520 2.6977
525 2.69686
530 2.73781
535 2.36513
540 1.9373
545 1.81304
550 1.64233
555 1.59093
560 1.25934
565 1.27345
570 1.30234
575 0.982979
580 0.93565
585 0.958633
590 0.834192
595 0.768189
600 0.176675
Ex : 343
200 0.36799
205 0.391508
210 0.504946
215 0.645241
220 0.446143
225 0.505973
230 0.449787
235 0.389685
240 0.419829
245 0.335898
250 0.399071
255 0.329224
260 0.416657
265 0.487002
270 0.422586
275 0.48365
280 0.435249
285 0.406679
290 0.413121
295 0.501511
300 0.417228
305 0.550155
310 0.5607
315 0.651911
320 0.62284
325 1.0881
330 28.9582
335 441.616
340 628.802
345 148.875
350 20.2344
355 6.01186
360 4.30669
365 3.31722
370 4.33806
375 8.29238
380 9.66448
385 8.70793
390 8.97503
395 9.4065
400 8.93359
405 9.68408
410 10.2323
415 10.7025
420 10.1451
425 9.29768
430 8.67271
435 8.80612
440 8.62069
445 7.93588
450 7.52337
455 7.24939
460 6.58624
465 6.32034
470 5.82367
475 5.30799
480 5.22586
485 4.69097
490 4.306
495 3.97732
500 3.59243
505 3.36646
510 2.82971
515 2.86344
520 2.42485
525 2.22054
530 2.22277
535 1.78549
540 1.85775
545 1.68662
550 1.49122
555 1.29878
560 1.29041
565 1.12624
570 0.999822
575 0.955276
580 0.949291
585 0.88918
590 0.847751
595 0.634758
600 0.424442
Ex : 348
200 0.390937
205 0.349112
210 0.371411
215 0.428667
220 0.345879
225 0.4526
230 0.350639
235 0.468726
240 0.431653
245 0.352624
250 0.476703
255 0.460112
260 0.379263
265 0.392922
270 0.515146
275 0.432607
280 0.407126
285 0.426349
290 0.489322
295 0.417355
300 0.487673
305 0.432357
310 0.521792
315 0.462919
320 0.642038
325 0.687086
330 1.16249
335 29.5478
340 444.085
345 650.204
350 162.134
355 21.3091
360 5.24486
365 3.29765
370 2.69662
375 3.52863
380 7.3532
385 11.3807
390 10.8689
395 9.65242
400 8.99382
405 9.48012
410 10.8974
415 11.365
420 10.5993
425 10.0086
430 9.44136
435 9.02494
440 8.81503
445 8.54356
450 7.87777
455 7.17703
460 6.90994
465 6.05946
470 5.83268
475 5.53957
480 5.05976
485 4.63952
490 4.28027
495 3.63889
500 3.51593
505 3.40159
510 2.91597
515 2.72835
520 2.54526
525 2.23428
530 2.13988
535 2.01125
540 1.97179
545 1.46954
550 1.39726
555 1.47626
560 1.32561
565 1.23467
570 1.01496
575 0.874792
580 0.774962
585 0.692032
590 0.647997
595 0.635292
600 0.483746
Ex : 353
200 0.295455
205 0.423768
210 0.318794
215 0.320483
220 0.322208
225 0.370141
230 0.320744
235 0.427891
240 0.386255
245 0.349489
250 0.538563
255 0.380847
260 0.466583
265 0.335166
270 0.397736
275 0.373747
280 0.41575
285 0.485656
290 0.498604
295 0.430263
300 0.47161
305 0.439582
310 0.387411
315 0.608077
320 0.570757
325 0.670489
330 0.675069
335 1.23036
340 29.605
345 454.147
350 641.92
355 155.235
360 20.5489
365 5.04683
370 3.1362
375 2.71955
380 3.35081
385 7.7532
390 12.9215
395 12.5229
400 9.85345
405 9.56775
410 10.9258
415 11.9849
420 11.7375
425 10.4393
430 9.50511
435 9.09523
440 9.68625
445 8.80113
450 8.28746
455 7.55159
460 7.15141
465 6.67138
470 6.31201
475 5.68316
480 5.48708
485 4.66666
490 4.419
495 4.04378
500 3.88695
505 3.45455
510 3.07831
515 2.95528
520 2.59884
525 2.26911
530 2.03205
535 1.91473
540 1.67523
545 1.87886
550 1.56413
555 1.34746
560 1.13958
565 1.11866
570 0.977752
575 0.955981
580 0.864805
585 0.712019
590 0.625964
595 0.664822
600 0.444906
Ex : 358
200 0.403315
205 0.307684
210 0.308671
215 0.41775
220 0.30504
225 0.32751
230 0.397083
235 0.297465
240 0.278486
245 0.390609
250 0.354759
255 0.407113
260 0.327731
265 0.430761
270 0.449035
275 0.359114
280 0.501942
285 0.446041
290 0.363465
295 0.374301
300 0.364359
305 0.361019
310 0.409969
315 0.473311
320 0.520215
325 0.535004
330 0.635864
335 0.868082
340 1.18708
345 28.1391
350 426.403
355 641.173
360 156.194
365 20.372
370 4.66626
375 3.44833
380 3.355
385 4.98114
390 8.33502
395 12.6254
400 11.8454
405 10.2372
410 10.2364
415 11.1244
420 10.3773
425 9.34267
430 9.33293
435 8.91465
440 8.76472
445 8.70208
450 8.35833
455 7.55348
460 6.83565
465 6.34396
470 6.00719
475 5.79731
480 5.24539
485 4.84415
490 4.45266
495 4.37808
500 3.82158
505 3.45089
510 3.22012
515 2.92189
520 2.56716
525 2.44095
530 2.29343
535 1.80873
540 1.92427
545 1.68588
550 1.5279
555 1.38249
560 1.19929
565 1.05057
570 0.962118
575 0.951632
580 0.93513
585 0.653312
590 0.597508
595 0.553375
600 0.35076
Ex : 363
200 0.338409
205 0.336156
210 0.344585
215 0.349471
220 0.346211
225 0.305781
230 0.284334
235 0.317856
240 0.34857
245 0.260298
250 0.337478
255 0.284794
260 0.331101
265 0.306048
270 0.351946
275 0.375929
280 0.300005
285 0.373847
290 0.314253
295 0.305541
300 0.448277
305 0.31531
310 0.355352
315 0.424092
320 0.393598
325 0.474642
330 0.513307
335 0.630295
340 0.833531
345 1.22284
350 25.6485
355 412.998
360 631.249
365 159.212
370 20.6844
375 4.96593
380 4.65394
385 5.9934
390 7.51337
395 8.94294
400 12.1972
405 13.5969
410 12.6877
415 12.667
420 11.7305
425 10.141
430 9.60948
435 9.70628
440 9.49115
445 9.28872
450 8.42121
455 7.75587
460 7.55682
465 6.88737
470 6.60804
475 6.27634
480 5.72977
485 5.2176
490 4.81239
495 4.50522
500 4.12714
505 3.71502
510 3.48031
515 3.20841
520 2.57894
525 2.55078
530 2.13905
535 2.02755
540 1.90712
545 1.63831
550 1.43421
555 1.39632
560 1.20997
565 1.11047
570 0.912666
575 0.80812
580 0.753371
585 0.656228
590 0.663945
595 0.601314
600 0.69776
Ex : 368
200 0.323409
205 0.308076
210 0.328925
215 0.396314
220 0.364957
225 0.38577
230 0.313411
235 0.247274
240 0.252031
245 0.217617
250 0.275075
255 0.291551
260 0.33958
265 0.305159
270 0.276776
275 0.292771
280 0.31539
285 0.300528
290 0.30081
295 0.363903
300 0.343087
305 0.420463
310 0.408523
315 0.341537
320 0.319894
325 0.321891
330 0.391092
335 0.507221
340 0.661299
345 0.824646
350 1.06873
355 21.2914
360 394.637
365 642.619
370 165.886
375 21.5373
380 6.19252
385 7.01087
390 9.16905
395 9.8686
400 9.57505
405 13.0901
410 16.4359
415 16.5614
420 14.1501
425 12.163
430 11.2235
435 10.9809
440 10.8949
445 10.6004
450 9.51272
455 8.48273
460 8.07419
465 7.63064
470 7.06681
475 6.84043
480 5.9458
485 5.3579
490 4.97377
495 4.42255
500 4.15139
505 3.82895
510 3.4177
515 3.14208
520 2.6802
525 2.50763
530 2.13262
535 1.97203
540 1.82332
545 1.64617
550 1.51168
555 1.42172
560 1.21314
565 1.17781
570 1.02694
575 0.8711
580 0.666526
585 0.636855
590 0.521657
595 0.485701
600 0.498373
Ex : 373
200 0.282986
205 0.316764
210 0.310888
215 0.325428
220 0.294756
225 0.29737
230 0.302433
235 0.266961
240 0.319315
245 0.237495
250 0.316315
255 0.334008
260 0.280318
265 0.276529
270 0.234874
275 0.321582
280 0.279836
285 0.293764
290 0.305556
295 0.300043
300 0.26416
305 0.333925
310 0.293452
315 0.270029
320 0.299048
325 0.37158
330 0.277152
335 0.327878
340 0.474933
345 0.597687
350 0.743761
355 1.06526
360 24.8821
365 399.81
370 625.267
375 161.988
380 21.5467
385 7.49841
390 9.08531
395 10.6479
400 9.85785
405 9.04216
410 13.0897
415 17.2821
420 15.2853
425 12.0192
430 10.4677
435 9.84106
440 10.4393
445 9.88977
450 8.95825
455 8.12925
460 7.04763
465 6.69798
470 6.70559
475 6.1713
480 5.79166
485 5.11243
490 4.91131
495 4.50909
500 4.25667
505 3.75769
510 3.45666
515 3.1072
520 2.72469
525 2.56469
530 2.33198
535 2.09213
540 1.94687
545 1.69694
550 1.43294
555 1.32614
560 1.17262
565 1.13325
570 0.842007
575 0.817399
580 0.691894
585 0.639026
590 0.576082
595 0.475271
600 0.757722
Ex : 378
200 0.261997
205 0.324148
210 0.381363
215 0.294823
220 0.286119
225 0.273235
230 0.232986
235 0.33722
240 0.280375
245 0.292319
250 0.300191
255 0.323605
260 0.273511
265 0.297168
270 0.31096
275 0.279554
280 0.3055
285 0.295495
290 0.268084
295 0.241756
300 0.218006
305 0.267721
310 0.301248
315 0.256352
320 0.364699
325 0.348997
330 0.315747
335 0.437107
340 0.467359
345 0.500141
350 0.544619
355 0.754951
360 1.09712
365 22.6316
370 396.345
375 632.505
380 163.94
385 23.33
390 8.9844
395 8.0546
400 7.32367
405 7.26687
410 8.17698
415 10.8697
420 13.5273
425 11.8391
430 9.41221
435 8.57436
440 8.23795
445 7.85199
450 7.1633
455 6.69358
460 6.24844
465 6.21296
470 6.13411
475 5.73107
480 5.04895
485 4.81137
490 4.38972
495 4.20549
500 3.90372
505 3.58233
510 3.11857
515 2.91852
520 2.63423
525 2.29762
530 2.08753
535 1.98338
540 1.81947
545 1.62662
550 1.44179
555 1.46247
560 1.29571
565 0.987832
570 1.03693
575 0.859828
580 0.691912
585 0.59265
590 0.53152
595 0.50251
600 0.885748
Ex : 383
200 0.37049
205 0.313102
210 0.263882
215 0.297758
220 0.276811
225 0.273824
230 0.253088
235 0.290491
240 0.296098
245 0.260155
250 0.289004
255 0.345193
260 0.279846
265 0.295527
270 0.252513
275 0.262789
280 0.283224
285 0.246854
290 0.25535
295 0.253735
300 0.299762
305 0.308973
310 0.263463
315 0.271733
320 0.278185
325 0.35072
330 0.394309
335 0.400013
340 0.366115
345 0.40857
350 0.522219
355 0.588745
360 0.697729
365 0.98463
370 21.0227
375 387.392
380 645.536
385 172.678
390 26.545
395 9.2723
400 7.35486
405 7.95791
410 8.85005
415 9.85516
420 9.53292
425 11.589
430 11.5273
435 9.53796
440 9.1973
445 8.27113
450 7.45742
455 6.68198
460 6.69754
465 6.32801
470 6.19391
475 5.77666
480 5.20193
485 4.87794
490 4.50312
495 4.31768
500 3.84444
505 3.61217
510 3.35132
515 2.87014
520 2.73609
525 2.47612
530 2.32374
535 1.87316
540 1.72278
545 1.54988
550 1.43167
555 1.29331
560 1.15386
565 1.11392
570 0.971266
575 0.943038
580 0.81816
585 0.597492
590 0.57359
595 0.463279
600 0.721683
Ex : 388
200 0.253793
205 0.303241
210 0.329803
215 0.23702
220 0.236348
225 0.320254
230 0.257612
235 0.222785
240 0.22317
245 0.240693
250 0.233213
255 0.298811
260 0.224413
265 0.269239
270 0.211426
275 0.273589
280 0.352086
285 0.216892
290 0.223601
295 0.267736
300 0.274959
305 0.228073
310 0.285096
315 0.333981
320 0.309586
325 0.318033
330 0.351784
335 0.328294
340 0.357492
345 0.366702
350 0.506253
355 0.515491
360 0.487045
365 0.715047
370 1.13997
375 23.0233
380 395.476
385 640.458
390 172.819
395 27.748
400 10.3317
405 9.18263
410 10.8681
415 11.7161
420 10.703
425 10.1888
430 11.6276
435 13.1125
440 11.3175
445 9.95078
450 8.4772
455 7.71582
460 7.27974
465 6.88842
470 6.5323
475 5.91823
480 5.59843
485 5.23967
490 4.84449
495 4.3797
500 4.21123
505 3.83319
510 3.41133
515 3.19197
520 2.86001
525 2.52545
530 2.27171
535 2.07901
540 2.00418
545 1.76549
550 1.39413
555 1.37744
560 1.23339
565 1.01617
570 1.03006
575 0.728958
580 0.67818
585 0.656143
590 0.498802
595 0.499943
600 0.506657
Ex : 393
200 0.23086
205 0.266402
210 0.236041
215 0.235638
220 0.242311
225 0.229714
230 0.268066
235 0.224681
240 0.243811
245 0.196065
250 0.275923
255 0.250247
260 0.255449
265 0.216461
270 0.223104
275 0.30192
280 0.280618
285 0.266402
290 0.204364
295 0.228566
300 0.297162
305 0.309615
310 0.273791
315 0.2357
320 0.29203
325 0.319614
330 0.290437
335 0.284149
340 0.301456
345 0.31632
350 0.366389
355 0.396842
360 0.483608
365 0.586649
370 0.623134
375 0.989068
380 19.6501
385 385.792
390 645.67
395 176.706
400 27.8669
405 10.5089
410 10.2443
415 12.2694
420 11.6642
425 9.99467
430 8.62974
435 10.0716
440 13.056
445 11.5505
450 9.46476
455 7.77676
460 6.83382
465 6.6293
470 6.01682
475 5.83008
480 5.38913
485 5.10194
490 4.7432
495 4.37222
500 3.91738
505 3.70645
510 3.43537
515 3.11651
520 2.84223
525 2.54647
530 2.20927
535 1.98862
540 1.88006
545 1.67878
550 1.5739
555 1.52935
560 1.30661
565 1.2158
570 1.00961
575 0.915467
580 0.667766
585 0.657203
590 0.589431
595 0.560575
600 0.722925
Ex : 398
200 0.251972
205 0.273561
210 0.21966
215 0.240437
220 0.232783
225 0.210384
230 0.200231
235 0.259618
240 0.23829
245 0.24041
250 0.195178
255 0.2448
260 0.234617
265 0.224567
270 0.24673
275 0.195619
280 0.253204
285 0.239715
290 0.262441
295 0.232573
300 0.245736
305 0.285459
310 0.292816
315 0.242744
320 0.296584
325 0.289069
330 0.251442
335 0.321855
340 0.299791
345 0.344193
350 0.313186
355 0.352971
360 0.394064
365 0.392156
370 0.566749
375 0.675436
380 1.04397
385 21.2055
390 392.269
395 654.267
400 173.046
405 24.6054
410 8.38496
415 8.09097
420 8.37797
425 6.72621
430 5.96191
435 6.12899
440 7.38827
445 9.73633
450 8.58548
455 6.65804
460 6.06646
465 5.09449
470 5.14801
475 4.92621
480 4.85851
485 4.43111
490 4.17667
495 3.88496
500 3.5865
505 3.37783
510 2.97393
515 2.80738
520 2.58523
525 2.13489
530 2.11423
535 1.94059
540 1.73962
545 1.53404
550 1.49903
555 1.25942
560 1.19143
565 1.09886
570 0.932575
575 0.759435
580 0.668028
585 0.571229
590 0.519273
595 0.448368
600 0.199473
Ex : 403
200 0.192008
205 0.278571
210 0.302521
215 0.311937
220 0.251546
225 0.238551
230 0.234718
235 0.213104
240 0.260663
245 0.255953
250 0.169046
255 0.271611
260 0.238382
265 0.243939
270 0.227998
275 0.227088
280 0.265368
285 0.211649
290 0.252205
295 0.281302
300 0.230965
305 0.304101
310 0.285452
315 0.208266
320 0.254501
325 0.323519
330 0.280621
335 0.28139
340 0.227739
345 0.309297
350 0.31024
355 0.366507
360 0.330212
365 0.366466
370 0.393627
375 0.505196
380 0.614789
385 1.20708
390 22.4463
395 397.674
400 639.593
405 170.176
410 23.4689
415 6.93716
420 5.09155
425 4.8852
430 4.32855
435 4.29105
440 4.56132
445 5.45458
450 7.28281
455 7.56668
460 5.76735
465 5.13261
470 4.77706
475 4.55733
480 4.32657
485 4.07567
490 3.74142
495 3.56062
500 3.37627
505 3.18962
510 2.89684
515 2.8835
520 2.53598
525 2.19375
530 2.18992
535 1.94134
540 1.77606
545 1.49029
550 1.4049
555 1.37228
560 1.19034
565 0.946631
570 0.913928
575 0.753611
580 0.615209
585 0.597334
590 0.535164
595 0.460194
600 0.847524
Ex : 408
200 0.26866
205 0.255261
210 0.193793
215 0.240255
220 0.255716
225 0.196781
230 0.29591
235 0.266348
240 0.2634
245 0.201165
250 0.239265
255 0.205283
260 0.18688
265 0.228849
270 0.21192
275 0.233834
280 0.227823
285 0.27416
290 0.233899
295 0.220537
300 0.267414
305 0.287117
310 0.232892
315 0.26436
320 0.23522
325 0.208965
330 0.292486
335 0.270798
340 0.274321
345 0.328917
350 0.271657
355 0.327985
360 0.370046
365 0.358375
370 0.379407
375 0.449536
380 0.520647
385 0.739783
390 1.00798
395 21.2942
400 397.9
405 643.016
410 165.313
415 22.8826
420 6.26846
425 4.32889
430 4.4024
435 4.4186
440 4.41573
445 4.36562
450 4.58565
455 6.2431
460 7.50455
465 5.82015
470 5.09663
475 4.50238
480 4.26044
485 3.80324
490 3.7534
495 3.29834
500 3.19049
505 2.98697
510 2.78642
515 2.67138
520 2.46599
525 2.19033
530 2.10184
535 1.79709
540 1.7122
545 1.61349
550 1.34956
555 1.23498
560 1.13429
565 0.953706
570 0.859263
575 0.759304
580 0.588784
585 0.595311
590 0.503503
595 0.489763
600 0.2467
Ex : 413
200 0.280076
205 0.243119
210 0.225486
215 0.245342
220 0.217729
225 0.230645
230 0.227727
235 0.230026
240 0.233068
245 0.226662
250 0.197151
255 0.182089
260 0.161843
265 0.246554
270 0.33596
275 0.216119
280 0.170816
285 0.254282
290 0.278186
295 0.319237
300 0.299348
305 0.253977
310 0.229395
315 0.237856
320 0.281064
325 0.287873
330 0.248351
335 0.256905
340 0.349257
345 0.350095
350 0.266829
355 0.262645
360 0.289426
365 0.433884
370 0.388629
375 0.430589
380 0.400744
385 0.519027
390 0.715974
395 1.07867
400 23.6187
405 403.798
410 634.003
415 159.795
420 21.7055
425 5.58141
430 3.81051
435 3.71522
440 3.99805
445 3.81637
450 3.65101
455 3.83368
460 4.81605
465 6.63669
470 5.57693
475 4.36089
480 4.1975
485 3.77164
490 3.67309
495 3.24252
500 3.00462
505 2.71238
510 2.6813
515 2.35735
520 2.31817
525 2.13396
530 2.01146
535 1.71318
540 1.60039
545 1.48597
550 1.30072
555 1.22806
560 1.21659
565 1.00837
570 0.835867
575 0.775748
580 0.595985
585 0.650076
590 0.478414
595 0.467474
600 0.352511
Ex : 418
200 0.207652
205 0.21738
210 0.226804
215 0.235165
220 0.236565
225 0.223026
230 0.256905
235 0.269612
240 0.216298
245 0.223657
250 0.230368
255 0.216969
260 0.19975
265 0.232673
270 0.279529
275 0.221715
280 0.256195
285 0.177646
290 0.177188
295 0.270059
300 0.208767
305 0.278624
310 0.22004
315 0.22775
320 0.174491
325 0.207116
330 0.316412
335 0.246299
340 0.293588
345 0.278401
350 0.275881
355 0.30191
360 0.292124
365 0.409886
370 0.358477
375 0.379128
380 0.317418
385 0.51021
390 0.487754
395 0.762856
400 1.14259
405 22.227
410 395.363
415 631.157
420 164.152
425 21.3101
430 4.78588
435 2.79996
440 3.04456
445 2.90558
450 2.6137
455 2.63884
460 2.52429
465 3.34737
470 5.23529
475 5.34808
480 3.89455
485 3.52038
490 2.97026
495 2.93618
500 2.69462
505 2.56373
510 2.47974
515 2.3803
520 2.04982
525 2.02058
530 1.78831
535 1.63573
540 1.48188
545 1.49714
550 1.31178
555 1.13522
560 1.10313
565 0.937401
570 0.740444
575 0.758193
580 0.64088
585 0.588349
590 0.449494
595 0.481115
600 0.346263
Ex : 423
200 0.297203
205 0.231133
210 0.214041
215 0.253662
220 0.191459
225 0.304716
230 0.224662
235 0.267258
240 0.221048
245 0.283831
250 0.213345
255 0.236989
260 0.226669
265 0.228023
270 0.177195
275 0.197168
280 0.219502
285 0.219128
290 0.235298
295 0.295546
300 0.208606
305 0.232106
310 0.218905
315 0.299505
320 0.241795
325 0.231338
330 0.231434
335 0.28689
340 0.296246
345 0.26974
350 0.250917
355 0.228726
360 0.242863
365 0.300283
370 0.32328
375 0.289651
380 0.318326
385 0.365575
390 0.448212
395 0.550523
400 0.761267
405 1.01129
410 22.4447
415 404.391
420 617.047
425 152.177
430 19.3673
435 3.97035
440 2.10004
445 2.19064
450 2.35774
455 1.85694
460 2.06773
465 2.1289
470 2.691
475 4.46028
480 5.16032
485 3.8552
490 3.1681
495 2.88031
500 2.49314
505 2.323
510 2.28997
515 2.10692
520 1.98045
525 1.85776
530 1.71722
535 1.60924
540 1.5471
545 1.39936
550 1.24442
555 1.12385
560 1.12986
565 1.02176
570 0.870228
575 0.692189
580 0.638498
585 0.564816
590 0.407417
595 0.48306
600 0.263489
Ex : 428
200 0.243183
205 0.197701
210 0.264261
215 0.194625
220 0.263162
225 0.230336
230 0.228844
235 0.181694
240 0.201896
245 0.263911
250 0.27314
255 0.29114
260 0.223682
265 0.217832
270 0.235375
275 0.225988
280 0.256975
285 0.267094
290 0.291451
295 0.244436
300 0.311023
305 0.232756
310 0.205544
315 0.287622
320 0.262603
325 0.227847
330 0.274175
335 0.242669
340 0.243759
345 0.291147
350 0.266328
355 0.248691
360 0.241623
365 0.296876
370 0.33959
375 0.296983
380 0.37493
385 0.418507
390 0.508331
395 0.405148
400 0.602788
405 0.74037
410 1.06749
415 24.0449
420 400.839
425 615.642
430 155.991
435 19.6093
440 3.84476
445 1.98702
450 2.03061
455 2.11558
460 1.9824
465 1.87214
470 1.8733
475 2.03706
480 3.51257
485 5.016
490 3.798
495 3.12202
500 2.83471
505 2.29123
510 2.10071
515 2.05495
520 1.9428
525 1.83367
530 1.72177
535 1.47305
540 1.4108
545 1.28252
550 1.26474
555 1.11988
560 1.07333
565 0.964017
570 0.795921
575 0.69257
580 0.6157
585 0.541723
590 0.453691
595 0.408201
600 0.167566
Ex : 433
200 0.268121
205 0.252207
210 0.191588
215 0.176734
220 0.207511
225 0.202718
230 0.230561
235 0.228085
240 0.215577
245 0.259388
250 0.297649
255 0.258886
260 0.304541
265 0.272048
270 0.285139
275 0.27176
280 0.271214
285 0.242251
290 0.189781
295 0.209529
300 0.284692
305 0.232933
310 0.188577
315 0.252592
320 0.321882
325 0.230466
330 0.229919
335 0.290461
340 0.347095
345 0.222714
350 0.267754
355 0.273748
360 0.293471
365 0.319525
370 0.308213
375 0.31208
380 0.315611
385 0.316762
390 0.389659
395 0.439515
400 0.449881
405 0.464011
410 0.657928
415 1.18007
420 26.4137
425 422.531
430 617.041
435 150.262
440 19.0722
445 3.65312
450 1.96099
455 1.94662
460 2.11877
465 1.8024
470 1.79759
475 1.85553
480 1.93604
485 2.96546
490 4.69822
495 4.01196
500 2.81181
505 2.54748
510 2.18793
515 1.84465
520 1.75201
525 1.7456
530 1.63852
535 1.57336
540 1.40889
545 1.27703
550 1.19549
555 1.21198
560 1.03279
565 0.936313
570 0.824983
575 0.70775
580 0.545092
585 0.576162
590 0.509066
595 0.409241
600 0.0677421
Ex : 438
200 0.308764
205 0.244049
210 0.236959
215 0.219973
220 0.249398
225 0.208337
230 0.194051
235 0.238713
240 0.241908
245 0.32002
250 0.255057
255 0.240111
260 0.245678
265 0.237605
270 0.311897
275 0.218351
280 0.218723
285 0.187017
290 0.281824
295 0.242951
300 0.265661
305 0.236888
310 0.22852
315 0.323781
320 0.222242
325 0.365861
330 0.29326
335 0.237671
340 0.310327
345 0.256399
350 0.312308
355 0.241363
360 0.321764
365 0.260228
370 0.326733
375 0.258153
380 0.292816
385 0.363319
390 0.367233
395 0.427014
400 0.40689
405 0.479477
410 0.539574
415 0.771238
420 0.976767
425 24.9588
430 410.367
435 638.912
440 157.101
445 19.7723
450 3.7964
455 1.90068
460 1.88325
465 2.08235
470 1.64751
475 1.64111
480 1.60654
485 1.8338
490 2.33488
495 4.1277
500 4.16837
505 2.74812
510 2.42652
515 2.06665
520 1.8132
525 1.73288
530 1.56568
535 1.54409
540 1.34265
545 1.37712
550 1.22456
555 1.1225
560 1.0969
565 0.958821
570 0.893732
575 0.641881
580 0.575611
585 0.550318
590 0.527854
595 0.411344
600 0.412069
Ex : 443
200 0.251693
205 0.316336
210 0.261369
215 0.250333
220 0.235814
225 0.278685
230 0.263952
235 0.20324
240 0.217972
245 0.239004
250 0.210847
255 0.257763
260 0.260736
265 0.274083
270 0.248593
275 0.250113
280 0.224869
285 0.223983
290 0.203965
295 0.315295
300 0.196782
305 0.206655
310 0.239854
315 0.202108
320 0.271648
325 0.217962
330 0.227536
335 0.234803
340 0.298026
345 0.279705
350 0.307882
355 0.270018
360 0.347503
365 0.323515
370 0.282829
375 0.326395
380 0.278617
385 0.311353
390 0.373198
395 0.269641
400 0.362438
405 0.367863
410 0.486676
415 0.574365
420 0.77727
425 1.01712
430 26.7891
435 429.153
440 633.864
445 154.228
450 19.4131
455 3.78125
460 1.81272
465 1.76577
470 2.00224
475 1.90604
480 1.74259
485 1.64504
490 1.65084
495 2.10016
500 3.45181
505 4.02727
510 2.95038
515 2.19314
520 2.00997
525 1.80935
530 1.58686
535 1.42029
540 1.3485
545 1.39916
550 1.22496
555 1.08955
560 1.02125
565 0.962285
570 0.762527
575 0.723655
580 0.67685
585 0.553958
590 0.481592
595 0.416916
600 0.0985128
Ex : 448
200 0.156017
205 0.253328
210 0.190062
215 0.189609
220 0.281528
225 0.233883
230 0.227942
235 0.237827
240 0.230095
245 0.240863
250 0.226375
255 0.23593
260 0.254
265 0.214578
270 0.155864
275 0.262838
280 0.297971
285 0.232803
290 0.211291
295 0.205297
300 0.186144
305 0.219193
310 0.296866
315 0.259496
320 0.204827
325 0.271042
330 0.324579
335 0.228498
340 0.291013
345 0.291653
350 0.232715
355 0.255659
360 0.317974
365 0.280409
370 0.30672
375 0.232235
380 0.288774
385 0.33015
390 0.311968
395 0.328421
400 0.355725
405 0.332388
410 0.381281
415 0.443401
420 0.530872
425 0.744939
430 1.02973
435 27.5658
440 444.197
445 655.228
450 159.228
455 19.8734
460 3.8734
465 1.97021
470 1.77734
475 1.80274
480 1.97443
485 1.69502
490 1.55958
495 1.55886
500 1.73574
505 2.52224
510 3.83741
515 3.21332
520 2.19075
525 2.06247
530 1.79839
535 1.58189
540 1.40424
545 1.35373
550 1.11872
555 1.13179
560 0.999166
565 0.798109
570 0.85232
575 0.708861
580 0.562849
585 0.512719
590 0.460679
595 0.461151
600 0.171247
Ex : 453
200 0.225881
205 0.173805
210 0.258884
215 0.221352
220 0.203374
225 0.242488
230 0.220091
235 0.283642
240 0.225311
245 0.227816
250 0.185441
255 0.182435
260 0.270724
265 0.254726
270 0.238227
275 0.259106
280 0.205975
285 0.249101
290 0.278265
295 0.17565
300 0.201178
305 0.219331
310 0.261066
315 0.2501
320 0.249192
325 0.208498
330 0.206598
335 0.330994
340 0.331224
345 0.250414
350 0.262676
355 0.246981
360 0.245395
365 0.269118
370 0.352862
375 0.257539
380 0.285297
385 0.281989
390 0.337179
395 0.329119
400 0.244005
405 0.298369
410 0.302646
415 0.368834
420 0.45441
425 0.467689
430 0.732954
435 1.04123
440 27.9234
445 470.505
450 665.396
455 152.393
460 19.1327
465 3.8543
470 1.85023
475 1.82381
480 1.89194
485 1.74747
490 1.63887
495 1.36026
500 1.52749
505 1.49043
510 2.01126
515 3.5326
520 3.48835
525 2.23416
530 2.05211
535 1.76818
540 1.39431
545 1.34391
550 1.21487
555 1.07041
560 1.05138
565 0.919286
570 0.800963
575 0.763203
580 0.678952
585 0.494662
590 0.39868
595 0.444167
600 0.304971
Ex : 458
200 0.252871
205 0.206116
210 0.192195
215 0.233221
220 0.194841
225 0.259118
230 0.204208
235 0.206882
240 0.199399
245 0.239761
250 0.261389
255 0.247686
260 0.256906
265 0.25731
270 0.267206
275 0.215154
280 0.190946
285 0.300507
290 0.22952
295 0.273863
300 0.185039
305 0.239017
310 0.241575
315 0.21425
320 0.171643
325 0.286239
330 0.217127
335 0.242674
340 0.241995
345 0.282393
350 0.363272
355 0.254789
360 0.21444
365 0.267682
370 0.303738
375 0.272933
380 0.273253
385 0.275479
390 0.258075
395 0.280172
400 0.41001
405 0.449264
410 0.400005
415 0.338763
420 0.413898
425 0.424614
430 0.500393
435 0.73642
440 1.08412
445 30.4426
450 479.34
455 694.705
460 165.285
465 20.7209
470 4.06815
475 1.89621
480 1.65101
485 1.96727
490 1.80668
495 1.59134
500 1.48214
505 1.36585
510 1.37802
515 1.53198
520 2.88533
525 3.67249
530 2.49941
535 1.89971
540 1.75747
545 1.51097
550 1.36169
555 1.22751
560 1.16542
565 0.906205
570 0.770032
575 0.749643
580 0.585828
585 0.613027
590 0.48725
595 0.435861
600 0.480806
Ex : 463
200 0.215568
205 0.24034
210 0.193852
215 0.20419
220 0.232558
225 0.202673
230 0.205656
235 0.255432
240 0.241852
245 0.195142
250 0.220843
255 0.24466
260 0.317531
265 0.197577
270 0.244865
275 0.258775
280 0.254606
285 0.249725
290 0.277135
295 0.251031
300 0.225803
305 0.201869
310 0.22378
315 0.276535
320 0.217855
325 0.260231
330 0.244994
335 0.230696
340 0.205098
345 0.249522
350 0.241305
355 0.284153
360 0.226868
365 0.281784
370 0.270853
375 0.24638
380 0.243875
385 0.253698
390 0.29567
395 0.299161
400 0.329356
405 0.30923
410 0.334599
415 0.376792
420 0.333648
425 0.343281
430 0.41389
435 0.493076
440 0.690444
445 1.01695
450 29.5677
455 487.727
460 720.275
465 169.351
470 21.068
475 3.87924
480 1.75099
485 1.59963
490 1.76545
495 1.7164
500 1.39156
505 1.31462
510 1.34689
515 1.42708
520 1.44867
525 2.28053
530 3.40909
535 2.85375
540 1.97913
545 1.61063
550 1.50118
555 1.24198
560 1.01345
565 0.93465
570 0.835929
575 0.806069
580 0.670274
585 0.57112
590 0.472098
595 0.390354
600 0.437983
Ex : 468
200 0.192058
205 0.194996
210 0.271312
215 0.198385
220 0.172798
225 0.210928
230 0.209127
235 0.199203
240 0.226173
245 0.204319
250 0.204926
255 0.179617
260 0.231175
265 0.217284
270 0.259555
275 0.185953
280 0.191221
285 0.210973
290 0.188772
295 0.257323
300 0.219537
305 0.227673
310 0.212771
315 0.171893
320 0.182967
325 0.233452
330 0.172452
335 0.226966
340 0.219713
345 0.238694
350 0.217059
355 0.253572
360 0.254575
365 0.225391
370 0.219547
375 0.27959
380 0.232293
385 0.280586
390 0.301885
395 0.265388
400 0.271242
405 0.258917
410 0.291732
415 0.248164
420 0.316016
425 0.334376
430 0.403702
435 0.396704
440 0.50278
445 0.760095
450 0.905128
455 31.3091
460 487.192
465 747.878
470 175.052
475 21.5266
480 3.87927
485 1.66645
490 1.54187
495 1.69383
500 1.65508
505 1.38449
510 1.3788
515 1.40332
520 1.41454
525 1.58868
530 1.9762
535 3.06978
540 3.08349
545 1.89097
550 1.60617
555 1.51875
560 1.23172
565 1.00839
570 0.875056
575 0.734928
580 0.631255
585 0.557128
590 0.52374
595 0.504167
600 0.568739
Ex : 473
200 0.205227
205 0.193933
210 0.201015
215 0.21064
220 0.18915
225 0.206097
230 0.167158
235 0.237285
240 0.191477
245 0.17754
250 0.215571
255 0.223427
260 0.197624
265 0.20118
270 0.243382
275 0.21312
280 0.210418
285 0.222881
290 0.25363
295 0.218649
300 0.18148
305 0.268702
310 0.220261
315 0.196586
320 0.210245
325 0.187936
330 0.194542
335 0.259477
340 0.259484
345 0.259571
350 0.195949
355 0.224146
360 0.227304
365 0.317775
370 0.241384
375 0.278448
380 0.259228
385 0.297727
390 0.244602
395 0.251154
400 0.228796
405 0.2588
410 0.260122
415 0.301772
420 0.293745
425 0.333341
430 0.371022
435 0.373595
440 0.459569
445 0.543506
450 0.651245
455 0.99219
460 36.3896
465 531.464
470 723.859
475 163.543
480 20.464
485 3.86103
490 1.62749
495 1.40923
500 1.4747
505 1.60505
510 1.44424
515 1.39141
520 1.39219
525 1.51803
530 1.48548
535 1.69701
540 2.54416
545 3.10875
550 2.24177
555 1.56217
560 1.35433
565 1.13934
570 0.974709
575 0.804522
580 0.717055
585 0.636041
590 0.495939
595 0.493078
600 0.181567
Ex : 478
200 0.259888
205 0.223036
210 0.287138
215 0.263361
220 0.229442
225 0.377866
230 0.255692
235 0.280358
240 0.184836
245 0.181538
250 0.218861
255 0.25544
260 0.241372
265 0.286114
270 0.274398
275 0.259292
280 0.21708
285 0.260616
290 0.276267
295 0.250554
300 0.347959
305 0.26541
310 0.264155
315 0.247452
320 0.287562
325 0.288225
330 0.26752
335 0.214878
340 0.269124
345 0.322553
350 0.266088
355 0.273705
360 0.276168
365 0.273471
370 0.291586
375 0.26238
380 0.270345
385 0.268602
390 0.308988
395 0.270034
400 0.300988
405 0.270391
410 0.255299
415 0.284922
420 0.359334
425 0.312727
430 0.343951
435 0.33813
440 0.465926
445 0.482445
450 0.595549
455 0.781164
460 1.29276
465 39.6192
470 548.493
475 740.197
480 173.542
485 21.363
490 3.92333
495 1.7986
500 1.39503
505 1.50997
510 1.60486
515 1.49952
520 1.35392
525 1.39677
530 1.58983
535 1.39875
540 1.5573
545 2.17464
550 2.76114
555 2.24596
560 1.64426
565 1.43323
570 1.19009
575 0.969806
580 0.75925
585 0.681871
590 0.619365
595 0.522488
600 0.329171
Ex : 483
200 0.304014
205 0.251145
210 0.194651
215 0.230101
220 0.207952
225 0.262773
230 0.199514
235 0.243563
240 0.265632
245 0.271203
250 0.249069
255 0.315784
260 0.29938
265 0.349553
270 0.268588
275 0.273735
280 0.275224
285 0.223645
290 0.246789
295 0.194974
300 0.226862
305 0.21475
310 0.248044
315 0.205912
320 0.251232
325 0.253418
330 0.246096
335 0.24024
340 0.272308
345 0.272854
350 0.32107
355 0.304378
360 0.268558
365 0.250399
370 0.285603
375 0.281587
380 0.290989
385 0.282229
390 0.305802
395 0.324284
400 0.29088
405 0.343272
410 0.284136
415 0.36571
420 0.312185
425 0.334256
430 0.330886
435 0.383612
440 0.415878
445 0.500665
450 0.437313
455 0.603355
460 0.885387
465 1.36235
470 30.5491
475 525.229
480 773.774
485 181.431
490 22.311
495 3.99188
500 1.64703
505 1.21399
510 1.42266
515 1.67303
520 1.6084
525 1.59105
530 1.53742
535 1.56532
540 1.5229
545 1.41967
550 1.64267
555 2.40604
560 2.60259
565 1.66786
570 1.18695
575 1.05067
580 0.849922
585 0.639206
590 0.601054
595 0.542929
600 0.501674
Ex : 488
200 0.360733
205 0.254351
210 0.270737
215 0.229796
220 0.27918
225 0.230549
230 0.212728
235 0.274454
240 0.288993
245 0.284617
250 0.270403
255 0.329844
260 0.297205
265 0.325497
270 0.302747
275 0.3498
280 0.332729
285 0.269624
290 0.244909
295 0.262298
300 0.251593
305 0.259158
310 0.284522
315 0.271641
320 0.315508
325 0.326145
330 0.301251
335 0.315264
340 0.334657
345 0.30912
350 0.375788
355 0.341555
360 0.277211
365 0.296535
370 0.347977
375 0.314748
380 0.278285
385 0.421414
390 0.33942
395 0.30464
400 0.271181
405 0.317251
410 0.371415
415 0.314694
420 0.31422
425 0.410088
430 0.466642
435 0.38349
440 0.465333
445 0.523049
450 0.410324
455 0.512205
460 0.772542
465 0.952305
470 1.29366
475 36.9278
480 560.796
485 760.303
490 173.407
495 21.4121
500 3.74651
505 1.71113
510 1.4136
515 1.45713
520 1.77931
525 1.7023
530 1.56286
535 1.4384
540 1.42449
545 1.28596
550 1.25946
555 1.40106
560 2.03248
565 2.40959
570 1.81081
575 1.13428
580 0.842528
585 0.774117
590 0.633909
595 0.558827
600 0.566956
Ex : 493
200 0.263741
205 0.285961
210 0.314269
215 0.237415
220 0.27912
225 0.3241
230 0.251545
235 0.280273
240 0.297204
245 0.255372
250 0.315724
255 0.280325
260 0.2692
265 0.348663
270 0.348146
275 0.335216
280 0.244421
285 0.297658
290 0.244719
295 0.332404
300 0.261805
305 0.263169
310 0.29694
315 0.25162
320 0.306808
325 0.250131
330 0.254893
335 0.2789
340 0.30484
345 0.285834
350 0.315309
355 0.345882
360 0.269465
365 0.36078
370 0.41052
375 0.343641
380 0.288943
385 0.264688
390 0.332342
395 0.325414
400 0.280252
405 0.294703
410 0.360005
415 0.426512
420 0.425051
425 0.337992
430 0.440683
435 0.407032
440 0.388401
445 0.399375
450 0.397553
455 0.401915
460 0.601844
465 0.806171
470 0.85905
475 1.19067
480 33.598
485 551.055
490 795.105
495 178.193
500 21.8501
505 3.79616
510 1.65197
515 1.3462
520 1.61328
525 1.76695
530 1.71594
535 1.69516
540 1.47605
545 1.34757
550 1.3309
555 1.16324
560 1.10448
565 1.50556
570 2.05888
575 1.83052
580 1.07027
585 0.753948
590 0.688879
595 0.580752
600 0.498639
Ex : 498
200 0.352451
205 0.310279
210 0.342686
215 0.288734
220 0.358372
225 0.321979
230 0.291371
235 0.291731
240 0.312918
245 0.310171
250 0.24282
255 0.312883
260 0.310096
265 0.36679
270 0.394384
275 0.31705
280 0.251754
285 0.29936
290 0.303119
295 0.290401
300 0.260903
305 0.368862
310 0.283015
315 0.343819
320 0.303339
325 0.286207
330 0.312582
335 0.324479
340 0.437094
345 0.32672
350 0.354362
355 0.343948
360 0.324918
365 0.257679
370 0.313965
375 0.335378
380 0.312495
385 0.286767
390 0.345455
395 0.321483
400 0.36793
405 0.376083
410 0.399498
415 0.37318
420 0.362584
425 0.324244
430 0.37571
435 0.385323
440 0.378783
445 0.425744
450 0.412345
455 0.466481
460 0.533405
465 0.608321
470 0.717041
475 0.924149
480 1.32718
485 40.922
490 586.092
495 768.947
500 173.735
505 21.4205
510 3.77471
515 1.81229
520 1.51949
525 1.58223
530 1.81712
535 1.80813
540 1.57017
545 1.30926
550 1.37309
555 1.19239
560 1.17494
565 1.10243
570 1.1527
575 1.58555
580 1.55579
585 0.994073
590 0.68605
595 0.609943
600 1.02287
Ex : 503
200 0.338735
205 0.290491
210 0.232323
215 0.328854
220 0.281444
225 0.277645
230 0.315116
235 0.359031
240 0.299008
245 0.290198
250 0.30531
255 0.347304
260 0.334054
265 0.26905
270 0.360161
275 0.364432
280 0.332604
285 0.289717
290 0.38442
295 0.325227
300 0.341017
305 0.393508
310 0.451383
315 0.370516
320 0.341018
325 0.313932
330 0.353997
335 0.348137
340 0.315329
345 0.289384
350 0.329738
355 0.349025
360 0.330578
365 0.361287
370 0.409599
375 0.373002
380 0.307167
385 0.345773
390 0.312856
395 0.401747
400 0.322175
405 0.343444
410 0.397254
415 0.408023
420 0.366927
425 0.48761
430 0.366129
435 0.428456
440 0.387779
445 0.511744
450 0.523349
455 0.510626
460 0.489047
465 0.594424
470 0.634295
475 0.632936
480 0.93077
485 1.2521
490 36.7924
495 568.89
500 780.712
505 175.98
510 21.77
515 4.02015
520 1.78992
525 1.55349
530 1.62002
535 1.73513
540 1.5636
545 1.62125
550 1.35462
555 1.16142
560 1.12015
565 1.07479
570 1.00249
575 0.863814
580 1.2086
585 1.27627
590 1.05651
595 0.740229
600 0.352593
Ex : 508
200 0.29971
205 0.290641
210 0.348843
215 0.34942
220 0.275543
225 0.308638
230 0.39755
235 0.360584
240 0.317178
245 0.294583
250 0.294585
255 0.27359
260 0.32127
265 0.38224
270 0.298306
275 0.370261
280 0.298907
285 0.371102
290 0.410606
295 0.309462
300 0.330997
305 0.339306
310 0.328809
315 0.450125
320 0.366538
325 0.321592
330 0.368101
335 0.301182
340 0.360731
345 0.375278
350 0.391664
355 0.372566
360 0.420761
365 0.470293
370 0.332715
375 0.471723
380 0.362047
385 0.318857
390 0.34875
395 0.432541
400 0.459785
405 0.348242
410 0.320007
415 0.36891
420 0.37048
425 0.276952
430 0.357919
435 0.367259
440 0.368218
445 0.445418
450 0.462722
455 0.370205
460 0.496379
465 0.535437
470 0.588121
475 0.501287
480 0.717317
485 0.79144
490 1.15012
495 38.7682
500 567.329
505 775.676
510 182.459
515 22.4797
520 4.23697
525 2.00344
530 1.57419
535 1.54666
540 1.59599
545 1.46611
550 1.40207
555 1.19587
560 0.97614
565 0.948369
570 0.875805
575 0.788085
580 0.911362
585 0.808592
590 1.10341
595 0.966587
600 1.72167
Ex : 513
200 0.297074
205 0.364149
210 0.322778
215 0.333596
220 0.337747
225 0.337143
230 0.247361
235 0.316553
240 0.299442
245 0.353996
250 0.364849
255 0.399192
260 0.350169
265 0.274658
270 0.38145
275 0.329443
280 0.391799
285 0.533259
290 0.414415
295 0.340034
300 0.314631
305 0.33873
310 0.355697
315 0.401209
320 0.38943
325 0.313741
330 0.349948
335 0.371881
340 0.3147
345 0.393909
350 0.410759
355 0.360109
360 0.341634
365 0.359602
370 0.30981
375 0.342435
380 0.315544
385 0.387368
390 0.342217
395 0.326519
400 0.363918
405 0.452181
410 0.423087
415 0.382279
420 0.422391
425 0.321272
430 0.356295
435 0.515653
440 0.45947
445 0.432776
450 0.427193
455 0.488382
460 0.542699
465 0.516797
470 0.68039
475 0.628185
480 0.562571
485 0.720715
490 1.00293
495 1.20437
500 35.5924
505 557.044
510 784.999
515 187.654
520 23.2892
525 4.30766
530 2.09992
535 1.4718
540 1.48963
545 1.54108
550 1.42741
555 1.22756
560 1.22942
565 0.987894
570 0.845762
575 0.946833
580 0.856753
585 0.65267
590 0.76453
595 0.954507
600 0.766558
Ex : 518
200 0.352513
205 0.243932
210 0.389074
215 0.316409
220 0.338841
225 0.331554
230 0.332687
235 0.397289
240 0.286118
245 0.264594
250 0.357837
255 0.313559
260 0.338516
265 0.340504
270 0.297541
275 0.322057
280 0.395005
285 0.36575
290 0.29178
295 0.291246
300 0.363743
305 0.380038
310 0.315276
315 0.285404
320 0.381199
325 0.344071
330 0.430812
335 0.332566
340 0.338672
345 0.336762
350 0.289688
355 0.318291
360 0.326924
365 0.480802
370 0.275906
375 0.365679
380 0.363296
385 0.443587
390 0.312389
395 0.407172
400 0.432594
405 0.474283
410 0.424614
415 0.341215
420 0.366939
425 0.419984
430 0.399092
435 0.419514
440 0.349547
445 0.38407
450 0.415183
455 0.54489
460 0.509993
465 0.444666
470 0.472257
475 0.549958
480 0.545293
485 0.706903
490 0.743054
495 0.839729
500 1.28866
505 36.0074
510 537.949
515 778.026
520 187.379
525 23.2681
530 4.10957
535 2.01248
540 1.53899
545 1.39383
550 1.43085
555 1.40303
560 1.24458
565 1.09306
570 1.04515
575 0.787476
580 0.699437
585 0.625418
590 0.625488
595 0.657712
600 0.589119
Ex : 523
200 0.291667
205 0.334541
210 0.337443
215 0.299856
220 0.372597
225 0.448434
230 0.343176
235 0.291963
240 0.358041
245 0.377549
250 0.369663
255 0.316403
260 0.330802
265 0.357624
270 0.358864
275 0.410136
280 0.362367
285 0.373051
290 0.369031
295 0.334375
300 0.281841
305 0.34618
310 0.36666
315 0.358582
320 0.356948
325 0.329616
330 0.313219
335 0.340318
340 0.393277
345 0.380346
350 0.316274
355 0.348522
360 0.419188
365 0.350685
370 0.444384
375 0.460033
380 0.339344
385 0.335938
390 0.355266
395 0.41456
400 0.450924
405 0.379339
410 0.452682
415 0.484219
420 0.437206
425 0.353769
430 0.404199
435 0.406764
440 0.398476
445 0.477736
450 0.421901
455 0.475377
460 0.516572
465 0.580349
470 0.504579
475 0.570018
480 0.505641
485 0.501383
490 0.717434
495 0.74618
500 0.993177
505 1.2148
510 32.7665
515 511.955
520 763.612
525 190.371
530 23.5684
535 4.1083
540 1.85012
545 1.44597
550 1.2594
555 1.10501
560 1.14413
565 1.08792
570 1.0042
575 0.814333
580 0.672766
585 0.648953
590 0.622256
595 0.424836
600 0.443283
Ex : 528
200 0.41494
205 0.287667
210 0.432174
215 0.325839
220 0.378181
225 0.37821
230 0.379674
235 0.396722
240 0.392889
245 0.371273
250 0.394016
255 0.396209
260 0.384845
265 0.381988
270 0.358501
275 0.309766
280 0.335837
285 0.370456
290 0.476556
295 0.32568
300 0.400801
305 0.472348
310 0.45018
315 0.448844
320 0.342952
325 0.404806
330 0.296215
335 0.360804
340 0.352996
345 0.353646
350 0.463674
355 0.343993
360 0.401613
365 0.399503
370 0.369526
375 0.340961
380 0.406585
385 0.423679
390 0.469565
395 0.371604
400 0.355744
405 0.40629
410 0.365814
415 0.417997
420 0.388006
425 0.453595
430 0.507989
435 0.474519
440 0.55383
445 0.419049
450 0.514078
455 0.499015
460 0.412301
465 0.500676
470 0.525278
475 0.446518
480 0.577667
485 0.536754
490 0.582646
495 0.662777
500 0.721369
505 1.07094
510 1.3471
515 30.9257
520 511.086
525 759.517
530 186.383
535 22.9837
540 4.12164
545 1.68146
550 1.22221
555 0.926376
560 0.873697
565 1.13897
570 0.999248
575 0.893678
580 0.700417
585 0.652383
590 0.713124
595 0.526546
600 0.103742
Ex : 533
200 0.476733
205 0.343351
210 0.525687
215 0.386414
220 0.356151
225 0.527602
230 0.308762
235 0.498332
240 0.351503
245 0.351552
250 0.321963
255 0.339823
260 0.410207
265 0.463438
270 0.341136
275 0.313899
280 0.447302
285 0.40616
290 0.333683
295 0.313038
300 0.352558
305 0.401071
310 0.39954
315 0.463379
320 0.383337
325 0.457442
330 0.34183
335 0.4242
340 0.358237
345 0.421988
350 0.302884
355 0.443726
360 0.372717
365 0.373713
370 0.299456
375 0.413239
380 0.357403
385 0.408394
390 0.427365
395 0.46101
400 0.451095
405 0.478511
410 0.46029
415 0.334314
420 0.475638
425 0.414974
430 0.442123
435 0.522064
440 0.433608
445 0.390555
450 0.429085
455 0.500217
460 0.489209
465 0.527336
470 0.456187
475 0.420728
480 0.521563
485 0.55665
490 0.5245
495 0.615579
500 0.595637
505 0.839323
510 0.938649
515 1.3216
520 29.7395
525 478.782
530 730.095
535 185.192
540 22.7694
545 3.82709
550 1.52714
555 1.28059
560 1.00508
565 1.03626
570 0.899104
575 0.975626
580 0.867351
585 0.66701
590 0.563619
595 0.47148
600 0.35243
Ex : 538
200 0.376643
205 0.402536
210 0.397874
215 0.385806
220 0.440099
225 0.359068
230 0.381037
235 0.338049
240 0.364185
245 0.378979
250 0.402803
255 0.334389
260 0.447089
265 0.41719
270 0.392768
275 0.45328
280 0.310477
285 0.362694
290 0.368251
295 0.408248
300 0.447689
305 0.462873
310 0.343858
315 0.396532
320 0.383724
325 0.384754
330 0.439519
335 0.455012
340 0.345972
345 0.385736
350 0.298203
355 0.474087
360 0.438313
365 0.415497
370 0.533228
375 0.479238
380 0.389285
385 0.393444
390 0.39868
395 0.348553
400 0.449715
405 0.364241
410 0.43318
415 0.36542
420 0.401326
425 0.390165
430 0.357609
435 0.510178
440 0.36354
445 0.483844
450 0.389742
455 0.415475
460 0.474867
465 0.488462
470 0.582971
475 0.526636
480 0.47201
485 0.591716
490 0.584926
495 0.575637
500 0.642827
505 0.748544
510 0.866714
515 1.03567
520 1.32496
525 24.8559
530 455.771
535 721.466
540 189.722
545 23.1716
550 3.75992
555 1.59574
560 1.15367
565 0.905681
570 0.946441
575 0.860754
580 0.795928
585 0.73553
590 0.643053
595 0.596712
600 0.212045
Ex : 543
200 0.411148
205 0.406634
210 0.406459
215 0.365769
220 0.480439
225 0.464381
230 0.412573
235 0.454444
240 0.399559
245 0.372909
250 0.326845
255 0.395733
260 0.484739
265 0.386201
270 0.285032
275 0.30159
280 0.416849
285 0.451988
290 0.479981
295 0.480943
300 0.441573
305 0.341236
310 0.430595
315 0.366154
320 0.444053
325 0.37031
330 0.381339
335 0.391267
340 0.402679
345 0.471799
350 0.462815
355 0.469235
360 0.386142
365 0.349369
370 0.380674
375 0.399543
380 0.421879
385 0.473165
390 0.360677
395 0.445437
400 0.381648
405 0.421055
410 0.422169
415 0.458799
420 0.357
425 0.376221
430 0.462491
435 0.435394
440 0.467924
445 0.4426
450 0.578312
455 0.473564
460 0.470055
465 0.45269
470 0.48909
475 0.567491
480 0.477451
485 0.444169
490 0.501115
495 0.468624
500 0.468872
505 0.575153
510 0.63786
515 0.798779
520 0.870026
525 1.25833
530 23.8875
535 440.269
540 721.444
545 194.512
550 23.8822
555 3.70052
560 1.43159
565 1.0004
570 0.766733
575 0.608495
580 0.661118
585 0.655305
590 0.613383
595 0.483482
600 0.345049
Ex : 548
200 0.410089
205 0.445896
210 0.304434
215 0.479867
220 0.433322
225 0.464282
230 0.361626
235 0.379429
240 0.41867
245 0.471242
250 0.393479
255 0.409981
260 0.407998
265 0.30608
270 0.37998
275 0.368182
280 0.357771
285 0.426983
290 0.382203
295 0.374893
300 0.397938
305 0.445591
310 0.414749
315 0.493991
320 0.433283
325 0.393446
330 0.441468
335 0.432405
340 0.455741
345 0.406317
350 0.517811
355 0.514934
360 0.450481
365 0.368312
370 0.499458
375 0.453393
380 0.424859
385 0.568548
390 0.56137
395 0.458948
400 0.43683
405 0.44184
410 0.393429
415 0.435774
420 0.389979
425 0.456052
430 0.452574
435 0.521667
440 0.560609
445 0.514852
450 0.445245
455 0.370108
460 0.510592
465 0.464536
470 0.476038
475 0.597978
480 0.655022
485 0.572333
490 0.538117
495 0.594894
500 0.48985
505 0.64783
510 0.614959
515 0.794382
520 0.713431
525 0.892886
530 1.25523
535 25.5687
540 432.859
545 690.231
550 187.921
555 22.9395
560 3.64385
565 1.24684
570 1.08122
575 0.679335
580 0.546932
585 0.611772
590 0.752023
595 0.65287
600 0.73198
Ex : 553
200 0.370472
205 0.434081
210 0.420344
215 0.381285
220 0.440888
225 0.363198
230 0.571398
235 0.435047
240 0.366272
245 0.320691
250 0.510678
255 0.447661
260 0.395033
265 0.373359
270 0.365462
275 0.505485
280 0.424289
285 0.521974
290 0.371744
295 0.412858
300 0.466396
305 0.496244
310 0.346357
315 0.407226
320 0.473642
325 0.430498
330 0.376712
335 0.633717
340 0.50946
345 0.483632
350 0.563305
355 0.460436
360 0.517926
365 0.407845
370 0.357514
375 0.434613
380 0.411461
385 0.424237
390 0.459738
395 0.408387
400 0.52387
405 0.360352
410 0.431842
415 0.473234
420 0.455503
425 0.484102
430 0.549567
435 0.444438
440 0.583618
445 0.481839
450 0.554126
455 0.462672
460 0.522476
465 0.495134
470 0.489676
475 0.446305
480 0.528915
485 0.578526
490 0.644463
495 0.585992
500 0.565857
505 0.655605
510 0.61994
515 0.586611
520 0.606793
525 0.760396
530 0.890558
535 1.21392
540 21.8503
545 406.717
550 680.121
555 188.217
560 23.0122
565 3.61613
570 1.37585
575 0.967448
580 0.780189
585 0.682042
590 0.529544
595 0.595102
600 0.365027
Ex : 558
200 0.407941
205 0.446341
210 0.420866
215 0.451806
220 0.392673
225 0.51203
230 0.379146
235 0.40298
240 0.440134
245 0.419784
250 0.401206
255 0.398381
260 0.46092
265 0.467264
270 0.54686
275 0.433942
280 0.520319
285 0.526949
290 0.537575
295 0.461173
300 0.451876
305 0.436648
310 0.490247
315 0.400986
320 0.407404
325 0.466866
330 0.485457
335 0.47871
340 0.549052
345 0.438904
350 0.426618
355 0.425637
360 0.49175
365 0.447567
370 0.458221
375 0.543771
380 0.408249
385 0.468836
390 0.514053
395 0.522107
400 0.462311
405 0.481035
410 0.48909
415 0.633079
420 0.488096
425 0.568319
430 0.499097
435 0.416392
440 0.503539
445 0.460159
450 0.40226
455 0.405495
460 0.442092
465 0.646214
470 0.653595
475 0.611755
480 0.577672
485 0.624041
490 0.565458
495 0.581323
500 0.763958
505 0.563328
510 0.545504
515 0.737232
520 0.582766
525 0.679625
530 0.843505
535 0.928538
540 1.11233
545 20.3895
550 386.115
555 662.84
560 186.437
565 22.6565
570 3.56977
575 1.15607
580 0.900325
585 0.681666
590 0.665261
595 0.650263
600 0.413015
Ex : 563
200 0.404875
205 0.403118
210 0.48934
215 0.346749
220 0.491249
225 0.408057
230 0.421181
235 0.494323
240 0.361638
245 0.531223
250 0.394224
255 0.321408
260 0.426295
265 0.443289
270 0.475775
275 0.527553
280 0.391797
285 0.303507
290 0.447101
295 0.400011
300 0.376642
305 0.489472
310 0.449229
315 0.480305
320 0.444207
325 0.46696
330 0.515883
335 0.468329
340 0.31549
345 0.596118
350 0.500834
355 0.603551
360 0.533258
365 0.490516
370 0.455875
375 0.50991
380 0.500688
385 0.45887
390 0.618836
395 0.491126
400 0.48068
405 0.517539
410 0.50302
415 0.494581
420 0.460149
425 0.42142
430 0.496958
435 0.502353
440 0.480901
445 0.496653
450 0.446874
455 0.454269
460 0.61028
465 0.671196
470 0.722182
475 0.502733
480 0.637941
485 0.392418
490 0.528425
495 0.484627
500 0.59187
505 0.534626
510 0.61601
515 0.557555
520 0.561251
525 0.656622
530 0.664637
535 0.705041
540 0.803925
545 1.15283
550 19.5061
555 363.691
560 618.35
565 177.265
570 21.7318
575 3.15345
580 1.01472
585 0.827354
590 0.636869
595 0.527575
600 0.392362
Ex : 568
200 0.537696
205 0.309579
210 0.348016
215 0.436608
220 0.480526
225 0.503761
230 0.49359
235 0.404694
240 0.496069
245 0.482412
250 0.350046
255 0.640297
260 0.545174
265 0.573651
270 0.639528
275 0.722267
280 0.544224
285 0.478111
290 0.454599
295 0.517124
300 0.515203
305 0.534097
310 0.428004
315 0.476689
320 0.48138
325 0.333176
330 0.365097
335 0.454908
340 0.497423
345 0.470688
350 0.393317
355 0.487635
360 0.530891
365 0.538169
370 0.440096
375 0.558981
380 0.463268
385 0.588499
390 0.508561
395 0.552035
400 0.433708
405 0.437583
410 0.480693
415 0.452333
420 0.480627
425 0.62672
430 0.49501
435 0.405117
440 0.624177
445 0.73109
450 0.648313
455 0.563695
460 0.497622
465 0.646332
470 0.538298
475 0.463624
480 0.605144
485 0.648721
490 0.538785
495 0.587131
500 0.567092
505 0.455726
510 0.53889
515 0.546273
520 0.632343
525 0.568858
530 0.607448
535 0.725305
540 0.785342
545 0.853447
550 1.14208
555 15.4216
560 331.074
565 608.959
570 179.929
575 22.1097
580 3.26671
585 0.99809
590 0.748724
595 0.682116
600 0.437241
Ex : 573
200 0.438128
205 0.5628
210 0.358622
215 0.465738
220 0.388734
225 0.420625
230 0.424147
235 0.473323
240 0.491695
245 0.563818
250 0.565396
255 0.442575
260 0.633727
265 0.536244
270 0.422229
275 0.37219
280 0.473543
285 0.534705
290 0.392173
295 0.511026
300 0.482441
305 0.51133
310 0.577729
315 0.536002
320 0.543012
325 0.481361
330 0.456218
335 0.5405
340 0.510094
345 0.570374
350 0.444286
355 0.505372
360 0.456108
365 0.709889
370 0.554712
375 0.599756
380 0.553828
385 0.4737
390 0.565254
395 0.535405
400 0.436176
405 0.66065
410 0.654114
415 0.53955
420 0.466965
425 0.594225
430 0.556023
435 0.523062
440 0.52158
445 0.433591
450 0.496303
455 0.574589
460 0.430714
465 0.431685
470 0.518609
475 0.467307
480 0.652737
485 0.407616
490 0.431151
495 0.574628
500 0.554042
505 0.450549
510 0.464481
515 0.547735
520 0.680883
525 0.587923
530 0.67012
535 0.648688
540 0.8199
545 0.653099
550 0.84225
555 1.15858
560 12.9013
565 285.3
570 549.122
575 168.309
580 20.8968
585 3.18243
590 0.968368
595 0.790288
600 0.422258
Ex : 578
200 0.471755
205 0.397438
210 0.457977
215 0.47282
220 0.414268
225 0.552561
230 0.424889
235 0.581955
240 0.377117
245 0.360589
250 0.550944
255 0.353236
260 0.506183
265 0.449518
270 0.397679
275 0.618115
280 0.439444
285 0.455216
290 0.488116
295 0.554815
300 0.413136
305 0.428602
310 0.60755
315 0.383638
320 0.374648
325 0.491825
330 0.433787
335 0.407109
340 0.450864
345 0.533392
350 0.520839
355 0.447073
360 0.513298
365 0.457003
370 0.404914
375 0.430399
380 0.492
385 0.470391
390 0.472334
395 0.551142
400 0.484636
405 0.50843
410 0.478852
415 0.471246
420 0.467325
425 0.50259
430 0.472039
435 0.587514
440 0.553956
445 0.578075
450 0.582482
455 0.551149
460 0.599266
465 0.545639
470 0.64304
475 0.39931
480 0.523042
485 0.462602
490 0.443868
495 0.457659
500 0.496628
505 0.503478
510 0.576345
515 0.669401
520 0.534513
525 0.413845
530 0.531052
535 0.654501
540 0.543939
545 0.556717
550 0.681106
555 0.86569
560 0.933414
565 11.9776
570 255.941
575 476.643
580 144.962
585 17.8064
590 2.71667
595 0.970715
600 0.665187
Ex : 583
200 0.573178
205 0.533818
210 0.45229
215 0.472267
220 0.42413
225 0.505139
230 0.544437
235 0.540735
240 0.531929
245 0.486165
250 0.485403
255 0.477474
260 0.524653
265 0.606881
270 0.416521
275 0.485981
280 0.382164
285 0.655171
290 0.511301
295 0.533837
300 0.465173
305 0.373329
310 0.526994
315 0.496505
320 0.464718
325 0.467972
330 0.457003
335 0.472376
340 0.753277
345 0.394208
350 0.404684
355 0.50018
360 0.622241
365 0.460692
370 0.465321
375 0.607426
380 0.69243
385 0.553835
390 0.509427
395 0.518106
400 0.516327
405 0.602424
410 0.575426
415 0.528293
420 0.561216
425 0.576739
430 0.506488
435 0.481883
440 0.553923
445 0.532849
450 0.483399
455 0.593439
460 0.573035
465 0.432995
470 0.58271
475 0.511217
480 0.58321
485 0.544785
490 0.664811
495 0.648729
500 0.529101
505 0.619327
510 0.576033
515 0.57805
520 0.602702
525 0.610541
530 0.474689
535 0.5196
540 0.654487
545 0.529698
550 0.69874
555 0.688615
560 0.877114
565 1.0715
570 10.5624
575 227.228
580 413.07
585 119.723
590 14.9363
595 2.49811
600 2.27998
Ex : 588
200 0.488474
205 0.498518
210 0.528328
215 0.520607
220 0.511954
225 0.370846
230 0.4034
235 0.475632
240 0.418631
245 0.547714
250 0.494539
255 0.490674
260 0.520485
265 0.48587
270 0.422674
275 0.379849
280 0.607359
285 0.472323
290 0.467877
295 0.593286
300 0.52345
305 0.368269
310 0.548888
315 0.481715
320 0.414694
325 0.447092
330 0.544108
335 0.629013
340 0.610232
345 0.512886
350 0.518206
355 0.632845
360 0.410029
365 0.448492
370 0.518348
375 0.583596
380 0.519201
385 0.511971
390 0.581486
395 0.575267
400 0.531841
405 0.572244
410 0.497277
415 0.585635
420 0.450031
425 0.42093
430 0.519894
435 0.488282
440 0.541525
445 0.72415
450 0.622524
455 0.584049
460 0.539997
465 0.482481
470 0.490141
475 0.564018
480 0.601714
485 0.623333
490 0.572712
495 0.534589
500 0.553583
505 0.439649
510 0.543407
515 0.599762
520 0.639836
525 0.611165
530 0.562053
535 0.589859
540 0.531269
545 0.706816
550 0.631555
555 0.651146
560 0.720897
565 0.728679
570 0.920269
575 8.95645
580 189.645
585 353.608
590 106.347
595 13.1761
600 2.44186
Ex : 593
200 0.387468
205 0.447218
210 0.53739
215 0.5989
220 0.425765
225 0.604962
230 0.542892
235 0.640293
240 0.466376
245 0.510168
250 0.546879
255 0.575148
260 0.512193
265 0.4718
270 0.595011
275 0.413251
280 0.459247
285 0.429176
290 0.448705
295 0.545711
300 0.572144
305 0.401666
310 0.412781
315 0.5075
320 0.53554
325 0.506622
330 0.571263
335 0.57141
340 0.527972
345 0.439603
350 0.465049
355 0.504121
360 0.485435
365 0.645687
370 0.468604
375 0.547979
380 0.65417
385 0.598974
390 0.636985
395 0.449737
400 0.453644
405 0.547634
410 0.58819
415 0.689633
420 0.50805
425 0.672597
430 0.632279
435 0.588205
440 0.506483
445 0.661182
450 0.591572
455 0.801785
460 0.632177
465 0.546558
470 0.794433
475 0.733513
480 0.590178
485 0.686578
490 0.653566
495 0.623813
500 0.513647
505 0.519503
510 0.564076
515 0.410021
520 0.50656
525 0.593262
530 0.688658
535 0.596059
540 0.760254
545 0.775902
550 0.6571
555 0.565106
560 0.612502
565 0.816109
570 0.92684
575 1.08791
580 7.67126
585 172.545
590 311.955
595 91.5946
600 12.4318
Ex : 598
200 0.507622
205 0.576446
210 0.597357
215 0.501842
220 0.496114
225 0.511447
230 0.568136
235 0.620066
240 0.522972
245 0.743048
250 0.506753
255 0.577558
260 0.443529
265 0.65532
270 0.49458
275 0.525393
280 0.507927
285 0.643823
290 0.511084
295 0.487653
300 0.501851
305 0.507847
310 0.444147
315 0.550285
320 0.544253
325 0.568442
330 0.494673
335 0.539539
340 0.526948
345 0.580451
350 0.59882
355 0.536267
360 0.50553
365 0.642831
370 0.570686
375 0.519042
380 0.811347
385 0.562333
390 0.485506
395 0.734225
400 0.533988
405 0.605186
410 0.514488
415 0.554753
420 0.7519
425 0.463479
430 0.623822
435 0.607646
440 0.680882
445 0.626111
450 0.560008
455 0.658394
460 0.55634
465 0.54889
470 0.83013
475 0.542336
480 0.551662
485 0.574952
490 0.579522
495 0.478863
500 0.546245
505 0.668628
510 0.65628
515 0.661748
520 0.590122
525 0.788322
530 0.676408
535 0.607122
540 0.757136
545 0.80908
550 0.800659
555 0.718801
560 0.72121
565 0.708916
570 0.715617
575 0.790695
580 0.986823
585 7.43816
590 150.81
595 267.678
600 173.44
Ex : 603
200 0.489329
205 0.626489
210 0.571066
215 0.544109
220 0.608224
225 0.459642
230 0.482942
235 0.531706
240 0.559106
245 0.5569
250 0.613209
255 0.541454
260 0.503167
265 0.601498
270 0.672456
275 0.695443
280 0.482295
285 0.55926
290 0.564181
295 0.639922
300 0.611039
305 0.581294
310 0.45362
315 0.644635
320 0.707228
325 0.53979
330 0.692587
335 0.496149
340 0.635014
345 0.757244
350 0.592963
355 0.469317
360 0.628315
365 0.584206
370 0.548708
375 0.642445
380 0.513563
385 0.468707
390 0.579697
395 0.583163
400 0.672927
405 0.557335
410 0.609788
415 0.478815
420 0.586832
425 0.61681
430 0.541763
435 0.627055
440 0.657489
445 0.565152
450 0.686395
455 0.615078
460 0.539275
465 0.578775
470 0.65424
475 0.706952
480 0.533701
485 0.531327
490 0.645817
495 0.622307
500 0.616022
505 0.670238
510 0.574578
515 0.512747
520 0.628301
525 0.537174
530 0.558143
535 0.498613
540 0.548817
545 0.531909
550 0.656075
555 0.607627
560 0.582765
565 0.691219
570 0.696303
575 0.795467
580 0.821244
585 0.92523
590 6.96511
595 127.003
600 259.19
