File format V 1.0
ven. 9. déc. 16:48:10 2016
Operator : 
Comments : 

=============================================
SpectroFluorometer parameters
Mode : 3D measurement
Data : Fluorescence
Phospho. : Ordinary
Spectrum : Fluorescence

Scan speed : 2400 nm/mn
Response : 100 ms
PM Voltage : 700 V
Shutter : On

Lambda Ex. Start : 203
Lambda Ex. End : 603
Lambda Ex. Step : 5
Ex. Slit : 5 nm

Lambda Em. Start : 200
Lambda Em. End : 600
Lambda Em. Step : 5
Em. Slit : 5 nm

Repetition : 1
Decal lambda em : 10
=============================================
DATA
Ex : 203
200 7.65
205 14.7355
210 12.6067
215 8.36898
220 10.5832
225 11.1036
230 12.3099
235 13.61
240 10.0239
245 13.8839
250 18.7425
255 13.2395
260 13.5692
265 13.7278
270 8.43328
275 15.2901
280 10.9687
285 16.5318
290 11.7515
295 11.5385
300 11.6478
305 11.4748
310 15.8126
315 11.4785
320 12.5757
325 12.0534
330 11.2687
335 13.2165
340 11.767
345 11.6841
350 9.78019
355 14.6244
360 13.9525
365 14.4073
370 12.0433
375 12.3443
380 12.3814
385 15.8721
390 13.725
395 12.3116
400 11.2026
405 17.4716
410 16.2673
415 12.9638
420 10.4173
425 12.2064
430 13.0382
435 13.2437
440 13.0906
445 9.85936
450 10.7717
455 11.8721
460 12.6563
465 9.23495
470 11.7404
475 11.9131
480 15.6193
485 13.6699
490 9.44404
495 14.3537
500 14.432
505 12.2024
510 14.6068
515 14.3275
520 13.3813
525 14.4112
530 12.3477
535 20.4519
540 21.4535
545 14.2943
550 15.1924
555 11.6428
560 12.5109
565 12.7774
570 10.3955
575 12.9611
580 12.9628
585 12.9256
590 14.1559
595 14.0425
600 16.368
Ex : 208
200 16.6596
205 12.4856
210 12.2853
215 14.6278
220 11.0089
225 10.3179
230 13.6492
235 13.588
240 12.3047
245 13.7728
250 13.1536
255 10.6079
260 12.8849
265 14.8139
270 16.182
275 10.8894
280 8.49993
285 10.9724
290 9.93467
295 17.365
300 12.5568
305 12.5669
310 10.4583
315 17.5549
320 7.95884
325 12.2765
330 14.4057
335 11.9742
340 10.5351
345 11.0283
350 11.5571
355 12.6043
360 13.1931
365 11.6063
370 14.713
375 15.1622
380 13.9479
385 13.8568
390 15.4776
395 12.6426
400 14.257
405 14.4786
410 14.1509
415 16.369
420 12.2226
425 11.8952
430 15.5843
435 10.6294
440 12.9376
445 11.5218
450 12.404
455 15.2954
460 13.1504
465 15.5563
470 13.4857
475 15.0492
480 13.2205
485 12.5757
490 10.0249
495 9.42434
500 8.88295
505 10.1811
510 12.5518
515 11.2146
520 17.3929
525 15.9799
530 15.2231
535 16.0863
540 17.0807
545 17.029
550 11.8443
555 12.9871
560 12.6506
565 18.7999
570 15.1476
575 17.3561
580 15.7866
585 13.3817
590 12.1758
595 11.9248
600 1.357
Ex : 213
200 9.85906
205 9.76241
210 13.115
215 9.90194
220 9.17548
225 17.6373
230 15.8431
235 15.3592
240 13.0865
245 11.4906
250 9.43414
255 12.9774
260 13.0683
265 13.9826
270 12.8143
275 11.2648
280 11.0741
285 8.30487
290 11.9194
295 11.758
300 10.7598
305 11.3672
310 12.4844
315 12.4413
320 11.5566
325 10.9393
330 11.3153
335 15.1697
340 12.7213
345 12.2349
350 13.2768
355 12.8876
360 13.2317
365 10.2469
370 9.21103
375 10.9221
380 15.8988
385 11.3572
390 9.22328
395 11.6275
400 11.94
405 8.24241
410 11.6492
415 10.7282
420 14.8826
425 16.1982
430 15.4022
435 14.1931
440 14.2101
445 14.3599
450 11.4557
455 11.3125
460 13.8868
465 14.5935
470 12.0656
475 16.4782
480 12.5808
485 12.8303
490 13.8155
495 11.2764
500 9.29025
505 12.5499
510 11.3137
515 15.03
520 13.8114
525 13.3794
530 12.8043
535 13.1164
540 17.2943
545 10.2644
550 10.2672
555 13.2941
560 13.5389
565 10.9513
570 13.2503
575 13.3536
580 12.755
585 16.1074
590 14.1694
595 14.4903
600 26.1672
Ex : 218
200 12.526
205 8.43613
210 11.7638
215 14.4862
220 13.6649
225 12.4015
230 10.3268
235 10.1022
240 11.7363
245 13.3309
250 15.9444
255 10.7543
260 10.5117
265 8.44907
270 12.0118
275 10.6159
280 13.4772
285 8.81455
290 9.83276
295 11.411
300 15.9766
305 11.4794
310 12.3839
315 9.91315
320 14.1934
325 11.1934
330 10.866
335 10.1824
340 11.5418
345 13.6329
350 11.785
355 12.337
360 14.7501
365 15.3791
370 15.4257
375 10.0188
380 13.7373
385 13.2688
390 9.95564
395 12.775
400 14.3618
405 13.4524
410 14.4293
415 13.5586
420 11.9115
425 13.1857
430 11.7254
435 12.9111
440 13.6726
445 18.2903
450 10.5003
455 7.5214
460 8.80297
465 10.0567
470 13.244
475 12.6401
480 14.9695
485 9.56001
490 14.0453
495 14.7015
500 9.66103
505 10.5227
510 11.7486
515 9.80713
520 11.2755
525 12.3031
530 15.5975
535 13.5781
540 11.3182
545 9.95369
550 10.9855
555 11.9174
560 11.296
565 8.91146
570 12.4553
575 13.7189
580 11.4791
585 11.4553
590 10.6901
595 11.2941
600 14.8737
Ex : 223
200 10.2901
205 14.9012
210 10.4242
215 13.0459
220 10.4811
225 11.3661
230 9.42166
235 10.8809
240 9.37367
245 9.06554
250 11.8862
255 11.7772
260 8.41234
265 15.9157
270 14.9329
275 12.662
280 10.8455
285 9.47319
290 8.65872
295 12.7008
300 9.68878
305 10.262
310 10.2011
315 8.17112
320 12.4153
325 10.9348
330 11.9904
335 13.082
340 11.3975
345 9.35982
350 12.1984
355 9.02034
360 14.2272
365 13.2436
370 9.0398
375 12.9685
380 15.3669
385 11.3579
390 12.0727
395 9.31137
400 12.2529
405 10.1645
410 12.2975
415 10.6274
420 8.8284
425 17.7133
430 13.3783
435 13.9535
440 9.60885
445 9.87696
450 14.6417
455 12.8509
460 16.959
465 12.0349
470 9.41647
475 13.4958
480 13.4659
485 12.9579
490 15.0976
495 11.8958
500 12.7829
505 10.9576
510 10.0632
515 10.6718
520 13.301
525 13.4664
530 9.81159
535 12.6312
540 10.8687
545 9.319
550 11.756
555 13.917
560 10.2524
565 12.5477
570 11.9658
575 13.0032
580 11.3502
585 10.2165
590 7.40011
595 10.1558
600 1.15569
Ex : 228
200 9
205 10.9913
210 10.3189
215 9.2355
220 8.91733
225 9.78869
230 7.93247
235 8.49724
240 7.75581
245 9.093
250 14.4573
255 11.2597
260 8.72872
265 10.9761
270 7.53402
275 12.7992
280 10.1402
285 9.35971
290 7.58716
295 11.0872
300 10.6178
305 9.68388
310 10.1413
315 11.7069
320 10.831
325 11.3463
330 11.1063
335 13.52
340 13.3686
345 13.9224
350 10.3742
355 11.4187
360 12.6689
365 10.5493
370 9.37871
375 11.2418
380 8.71741
385 13.1017
390 15.0459
395 8.41376
400 9.05111
405 10.7009
410 9.76729
415 10.1664
420 8.79513
425 10.2903
430 13.2095
435 10.1619
440 9.21713
445 8.0828
450 12.6291
455 11.191
460 12.915
465 11.86
470 11.3608
475 10.8221
480 9.61762
485 7.81389
490 11.6337
495 9.0627
500 10.8469
505 11.1268
510 11.9113
515 11.2616
520 10.2
525 11.9183
530 9.47798
535 12.1403
540 11.0814
545 9.84064
550 14.7382
555 10.8148
560 10.3969
565 12.5708
570 12.6777
575 9.06072
580 9.89858
585 8.47824
590 11.0995
595 7.9479
600 26.0135
Ex : 233
200 12.5642
205 7.6711
210 11.0984
215 10.356
220 10.0913
225 9.5351
230 10.2184
235 8.58477
240 8.69092
245 9.47048
250 9.14505
255 9.08357
260 7.52249
265 10.3089
270 12.5651
275 8.74576
280 10.8311
285 8.29404
290 7.68267
295 9.42214
300 8.42334
305 8.05312
310 8.62454
315 11.7432
320 9.01526
325 7.67932
330 9.00814
335 10.3914
340 12.3377
345 9.63302
350 8.0068
355 7.29091
360 11.3172
365 7.40266
370 7.08651
375 10.2703
380 9.46681
385 9.87869
390 9.78031
395 11.7126
400 12.4831
405 10.0436
410 10.7168
415 7.00689
420 8.54805
425 10.437
430 9.5377
435 9.36135
440 11.7232
445 11.4924
450 7.90781
455 9.26489
460 8.75674
465 9.84062
470 7.21637
475 8.90554
480 7.03051
485 9.21187
490 11.283
495 9.26438
500 10.895
505 9.32456
510 7.80004
515 11.9963
520 10.8465
525 8.85279
530 10.3505
535 12.2763
540 7.07675
545 10.3296
550 10.3863
555 8.90047
560 8.76827
565 8.73064
570 9.42469
575 9.20128
580 10.882
585 10.6379
590 8.09749
595 9.1927
600 1.04609
Ex : 238
200 7.5
205 6.82714
210 7.45752
215 8.8567
220 6.7176
225 8.98158
230 8.31056
235 6.42858
240 7.71536
245 10.1573
250 6.97343
255 5.92291
260 8.77705
265 7.48207
270 7.39209
275 9.12379
280 9.2149
285 9.01665
290 7.3977
295 6.48358
300 7.69795
305 5.79796
310 7.11759
315 9.48038
320 9.78277
325 5.28289
330 12.3393
335 9.5354
340 9.88326
345 8.95817
350 7.84488
355 8.03448
360 10.262
365 8.02909
370 10.2029
375 9.8545
380 8.15139
385 8.48754
390 8.99477
395 11.4393
400 8.56612
405 9.48554
410 9.40326
415 7.44422
420 8.76952
425 7.28497
430 9.51555
435 9.3633
440 7.62256
445 7.90388
450 8.96063
455 8.00506
460 8.13787
465 7.87198
470 9.82601
475 7.43183
480 9.54288
485 9.30909
490 5.70519
495 8.55786
500 7.72664
505 8.50147
510 8.70775
515 7.38572
520 6.96107
525 7.76417
530 9.3303
535 8.15552
540 6.51384
545 9.04991
550 7.1944
555 5.9164
560 7.53059
565 7.08108
570 6.81904
575 9.44696
580 8.0043
585 9.9745
590 8.15526
595 10.3493
600 7.08574
Ex : 243
200 6.74206
205 7.41023
210 7.32654
215 5.84868
220 6.75417
225 6.09269
230 7.98573
235 7.90394
240 6.20628
245 6.35672
250 7.50524
255 6.20059
260 7.84113
265 6.80415
270 6.81267
275 5.17437
280 5.43833
285 7.17031
290 9.84171
295 6.49435
300 7.83979
305 6.99174
310 7.78408
315 7.73441
320 5.84289
325 9.46715
330 8.32458
335 5.13597
340 7.65273
345 7.87367
350 6.94155
355 8.26406
360 7.87053
365 8.91597
370 7.1678
375 7.26932
380 7.7389
385 8.65683
390 7.84525
395 7.05719
400 6.96464
405 6.76635
410 8.17303
415 7.35073
420 7.39794
425 7.03819
430 6.64132
435 9.3883
440 6.75604
445 6.83001
450 9.57571
455 10.5975
460 6.97533
465 7.37185
470 8.95606
475 6.45133
480 6.20427
485 6.28516
490 9.94175
495 7.44554
500 6.91983
505 6.13696
510 5.40942
515 8.39922
520 6.60359
525 6.56761
530 8.58084
535 6.44198
540 7.97805
545 7.0935
550 6.467
555 6.40974
560 5.28161
565 8.32577
570 6.13543
575 7.58164
580 6.96978
585 4.33795
590 8.08616
595 7.97853
600 0.907926
Ex : 248
200 6.21649
205 6.17903
210 6.23209
215 6.95343
220 7.58348
225 5.1429
230 4.10945
235 6.93632
240 5.69823
245 6.81294
250 5.43684
255 5.91848
260 7.04442
265 7.75863
270 6.28903
275 5.06502
280 3.82579
285 5.6079
290 7.5055
295 5.54702
300 6.72388
305 6.24431
310 5.92661
315 5.80947
320 5.92347
325 9.18221
330 5.60778
335 7.99723
340 6.81095
345 6.78155
350 5.78123
355 6.01702
360 6.16465
365 5.30406
370 5.70597
375 4.59775
380 6.19256
385 7.43924
390 6.50673
395 9.30328
400 5.75206
405 6.26517
410 5.37463
415 6.84842
420 8.73624
425 6.19301
430 6.78157
435 7.68167
440 5.8487
445 6.85376
450 4.70619
455 5.85882
460 7.52669
465 7.34151
470 7.78232
475 8.7586
480 7.49245
485 6.22301
490 8.07251
495 7.99939
500 5.93721
505 6.55809
510 5.05379
515 4.89107
520 5.74546
525 5.01417
530 5.34408
535 5.39248
540 4.6693
545 5.35624
550 6.66223
555 6.22498
560 4.95792
565 6.97431
570 6.26262
575 5.53533
580 6.46199
585 5.75817
590 6.74092
595 4.93608
600 12.0824
Ex : 253
200 3.46194
205 4.19511
210 4.14812
215 3.77174
220 5.4574
225 4.9459
230 5.80896
235 5.88619
240 3.76102
245 6.49149
250 3.92025
255 4.94383
260 4.6034
265 6.62
270 4.07073
275 3.97034
280 4.83556
285 4.3658
290 4.11568
295 4.79935
300 5.12241
305 4.13951
310 4.40211
315 4.16533
320 3.4744
325 4.45654
330 5.66713
335 4.08586
340 4.18122
345 4.19492
350 5.01206
355 5.04176
360 4.1971
365 5.7621
370 4.84308
375 5.34634
380 6.03792
385 4.71873
390 6.1695
395 7.81314
400 4.03536
405 6.1914
410 4.41782
415 4.72906
420 4.41321
425 5.2356
430 4.51582
435 4.56233
440 5.19973
445 4.59507
450 3.58103
455 4.34097
460 6.65442
465 5.33319
470 6.6738
475 6.97236
480 4.93377
485 6.10263
490 5.45185
495 4.571
500 5.23796
505 5.59146
510 6.09755
515 5.05241
520 4.7755
525 5.20841
530 3.36117
535 3.0871
540 5.29617
545 5.08683
550 5.92689
555 6.43124
560 3.96935
565 5.52871
570 4.31767
575 4.1106
580 5.47553
585 4.66971
590 3.62956
595 3.82491
600 1.67595
Ex : 258
200 3.29512
205 3.86873
210 3.5447
215 3.17467
220 2.85073
225 3.70944
230 4.10183
235 2.89004
240 3.51994
245 3.18629
250 3.15385
255 3.18736
260 3.82444
265 3.28933
270 3.82489
275 3.74021
280 3.91001
285 2.58418
290 2.94358
295 3.78766
300 3.41481
305 2.92855
310 3.66346
315 3.54926
320 2.90302
325 3.03393
330 3.65809
335 5.23513
340 4.6183
345 3.45111
350 4.27728
355 2.98025
360 2.92117
365 4.22951
370 3.73072
375 3.4486
380 4.30942
385 3.23886
390 3.13353
395 3.9014
400 3.39798
405 4.33213
410 3.93771
415 3.89701
420 4.66209
425 4.66615
430 4.58838
435 3.58408
440 4.00077
445 4.72533
450 3.48431
455 3.80469
460 3.25762
465 4.43084
470 3.19441
475 5.07516
480 4.06605
485 4.58428
490 3.33067
495 3.25965
500 4.63237
505 4.76551
510 4.97888
515 4.91082
520 4.22768
525 3.80016
530 5.32204
535 3.68469
540 3.56964
545 3.84942
550 3.83703
555 4.65882
560 4.05304
565 3.07866
570 2.97845
575 4.25515
580 3.21294
585 3.33051
590 3.82958
595 3.83447
600 3.82003
Ex : 263
200 2.63199
205 2.5534
210 2.17599
215 2.97125
220 3.36482
225 3.72904
230 3.10969
235 2.92579
240 3.5064
245 2.28342
250 3.10146
255 2.96759
260 2.88536
265 2.53898
270 2.71925
275 2.98491
280 2.53306
285 2.98865
290 2.68798
295 3.01303
300 3.33188
305 3.02212
310 2.70618
315 2.96656
320 2.66751
325 2.44857
330 2.99662
335 2.99097
340 2.10991
345 3.04068
350 2.54369
355 2.6857
360 2.61117
365 3.16058
370 3.23912
375 3.49881
380 2.99326
385 3.37903
390 3.41671
395 3.76067
400 3.77155
405 3.7766
410 3.49119
415 3.26763
420 2.86333
425 3.48479
430 4.39668
435 2.9574
440 4.17164
445 2.77138
450 3.30788
455 2.73917
460 3.22867
465 4.08574
470 3.03788
475 2.90743
480 3.31935
485 3.30847
490 2.87256
495 3.26111
500 3.59303
505 2.92096
510 3.35205
515 3.79419
520 3.84634
525 3.30516
530 3.60628
535 4.04382
540 2.84264
545 3.21721
550 3.27008
555 3.08924
560 3.01295
565 2.48149
570 2.36707
575 3.61482
580 2.68076
585 2.80165
590 2.38663
595 2.53447
600 2.63052
Ex : 268
200 2.43521
205 3.25593
210 1.73348
215 1.54492
220 2.05195
225 2.33879
230 2.31157
235 1.88129
240 2.10495
245 2.0903
250 1.77786
255 1.99528
260 1.39509
265 2.62091
270 2.16069
275 1.48176
280 1.9064
285 1.80657
290 1.93662
295 2.83117
300 2.40454
305 2.75127
310 2.61613
315 2.11687
320 2.47048
325 2.88923
330 2.71405
335 2.06211
340 2.3511
345 3.02111
350 2.51736
355 2.30757
360 2.02395
365 2.0413
370 2.10765
375 2.1341
380 1.95582
385 2.26901
390 2.64686
395 2.73909
400 2.93846
405 2.3838
410 2.36711
415 2.90306
420 2.83309
425 2.61009
430 2.89523
435 2.12474
440 3.20274
445 2.5967
450 2.92257
455 3.05703
460 2.46654
465 2.7083
470 2.47543
475 2.38521
480 3.07319
485 2.83482
490 2.11362
495 2.29123
500 1.98006
505 2.25679
510 2.36915
515 1.85066
520 2.04427
525 2.8288
530 3.98414
535 3.76852
540 2.81106
545 2.90694
550 2.03359
555 2.71015
560 2.37765
565 2.25982
570 1.99598
575 2.84496
580 2.32363
585 2.12405
590 2.33909
595 2.07976
600 0.609807
Ex : 273
200 2.09913
205 1.82125
210 1.50174
215 1.9459
220 2.86427
225 2.7396
230 1.7591
235 1.63067
240 1.25897
245 1.16944
250 0.931437
255 1.77849
260 1.48606
265 1.93887
270 1.88786
275 2.20814
280 1.53447
285 1.96731
290 1.83587
295 1.62562
300 1.92318
305 1.93702
310 2.07678
315 1.88264
320 1.75614
325 1.76576
330 1.67295
335 1.80039
340 2.31434
345 2.46118
350 2.04806
355 2.0548
360 2.37773
365 1.82913
370 2.21159
375 2.01349
380 2.73289
385 2.08428
390 2.34159
395 2.5315
400 2.28137
405 2.36706
410 2.76082
415 2.27504
420 1.93322
425 2.26246
430 1.79914
435 1.78331
440 2.53523
445 2.18987
450 1.87946
455 1.7586
460 2.21791
465 2.17338
470 1.72257
475 2.60552
480 2.22611
485 1.97355
490 2.01701
495 1.95898
500 2.18791
505 1.41775
510 2.06347
515 1.92578
520 1.84443
525 1.92403
530 2.3239
535 2.51124
540 3.06701
545 2.69715
550 1.8591
555 1.40582
560 1.26817
565 1.43772
570 1.94297
575 2.26111
580 1.36484
585 1.70551
590 1.90909
595 1.77648
600 4.70703
Ex : 278
200 1.7528
205 1.63322
210 1.64967
215 1.38691
220 1.14883
225 1.69852
230 1.46747
235 1.57822
240 1.2886
245 1.60158
250 1.58433
255 1.25461
260 1.36389
265 1.54975
270 1.35094
275 1.91688
280 1.73031
285 1.65478
290 1.50042
295 1.54723
300 1.75665
305 1.65878
310 1.36073
315 1.74634
320 1.22007
325 1.08025
330 1.60656
335 1.40135
340 1.43828
345 1.56033
350 1.86335
355 1.8413
360 1.61357
365 1.44107
370 1.44596
375 1.7222
380 1.45731
385 1.92095
390 1.90499
395 1.89199
400 1.64143
405 2.08123
410 1.77872
415 2.42076
420 1.97206
425 1.92209
430 1.73763
435 2.02927
440 1.79158
445 1.62691
450 1.48846
455 1.68245
460 1.85344
465 1.47641
470 1.56818
475 1.37012
480 1.53972
485 1.73621
490 1.4952
495 1.94256
500 1.60038
505 1.53996
510 1.52093
515 1.45521
520 1.79601
525 2.13435
530 1.37963
535 1.51462
540 1.65953
545 2.20911
550 2.27435
555 2.39617
560 1.83833
565 1.70431
570 1.49247
575 1.48701
580 1.58643
585 1.43473
590 1.47222
595 1.28026
600 0.145689
Ex : 283
200 1.37965
205 0.917194
210 1.29193
215 1.18791
220 1.37539
225 1.03917
230 1.39546
235 1.25977
240 1.0827
245 1.09874
250 1.07798
255 1.26174
260 1.36546
265 1.20833
270 1.14838
275 1.34528
280 1.51698
285 1.0469
290 1.48275
295 1.18
300 1.16294
305 1.14785
310 1.20202
315 1.41126
320 1.3301
325 1.65814
330 1.16999
335 1.33441
340 0.920876
345 1.17374
350 1.05633
355 1.35388
360 1.24382
365 1.20735
370 1.55235
375 1.39607
380 1.69273
385 1.66924
390 1.52343
395 1.67626
400 1.45989
405 2.07492
410 1.92162
415 1.64436
420 1.82615
425 1.98966
430 1.72633
435 1.55021
440 1.18768
445 1.71936
450 2.10327
455 1.92154
460 1.31419
465 1.68113
470 1.62682
475 1.69876
480 1.3154
485 1.179
490 1.48144
495 1.52727
500 1.0529
505 1.15861
510 1.00858
515 0.871763
520 1.40004
525 1.28464
530 1.25334
535 1.30451
540 1.14638
545 1.10985
550 1.22873
555 1.36103
560 2.39677
565 2.11895
570 1.76405
575 1.54152
580 1.4549
585 1.01592
590 1.45203
595 1.16422
600 0.284404
Ex : 288
200 0.901928
205 0.841139
210 0.807758
215 1.02271
220 1.08243
225 0.990857
230 1.00495
235 0.947284
240 0.953137
245 0.827114
250 1.1548
255 0.922346
260 1.08293
265 0.991722
270 0.941165
275 1.00508
280 1.16785
285 1.46146
290 1.09848
295 1.09884
300 0.855351
305 1.04861
310 0.709143
315 0.869096
320 1.02737
325 1.02777
330 1.00116
335 0.797599
340 1.25501
345 1.06328
350 1.28274
355 1.16357
360 1.15179
365 1.24913
370 1.09254
375 1.09969
380 1.46508
385 1.53987
390 1.20157
395 1.44027
400 1.58655
405 1.22698
410 1.40957
415 2.06666
420 1.72358
425 1.56284
430 1.51513
435 1.37308
440 1.32993
445 1.42504
450 1.29908
455 1.36141
460 1.15853
465 1.37857
470 1.2977
475 1.04573
480 1.31001
485 1.25473
490 1.04834
495 1.25307
500 1.1448
505 0.842721
510 0.878429
515 0.96159
520 1.22884
525 0.798076
530 1.08337
535 1.06385
540 0.890762
545 1.14141
550 0.936975
555 0.858959
560 1.03958
565 1.57752
570 1.96082
575 2.11223
580 1.10156
585 1.14072
590 1.29999
595 1.15924
600 0.131917
Ex : 293
200 0.769013
205 0.844635
210 0.703991
215 0.938188
220 0.760395
225 0.923195
230 0.818789
235 0.873958
240 0.905861
245 0.987194
250 0.768863
255 0.772345
260 1.19839
265 0.718577
270 0.688651
275 1.094
280 0.802302
285 1.13155
290 0.985935
295 0.860219
300 0.842453
305 1.03215
310 0.798632
315 0.899691
320 0.98054
325 0.982564
330 1.06238
335 1.06773
340 1.04624
345 1.03375
350 0.916273
355 1.26736
360 1.16807
365 1.23099
370 1.22871
375 1.11918
380 1.23129
385 1.34604
390 1.31144
395 1.29052
400 1.35888
405 1.2589
410 1.6772
415 1.28147
420 1.16934
425 1.56126
430 1.33563
435 1.03149
440 1.05181
445 1.1337
450 1.00469
455 1.03515
460 1.33036
465 1.04138
470 1.14452
475 0.959422
480 0.960629
485 1.24482
490 0.982675
495 0.984645
500 1.21308
505 1.00854
510 0.905132
515 0.971006
520 0.914943
525 1.13648
530 1.14134
535 0.983419
540 0.830351
545 0.86318
550 0.975539
555 0.981841
560 0.754439
565 0.803656
570 1.04641
575 1.40384
580 1.52915
585 1.38175
590 1.22414
595 0.835756
600 1.18983
Ex : 298
200 0.73215
205 0.855052
210 0.637875
215 0.636435
220 0.837416
225 0.648345
230 0.65009
235 0.879917
240 0.766147
245 0.772994
250 0.706842
255 0.88089
260 0.998591
265 0.846982
270 0.627812
275 0.645793
280 0.799897
285 0.798063
290 1.16471
295 0.832155
300 0.868518
305 0.754126
310 0.672125
315 0.860421
320 0.684425
325 0.523933
330 0.72446
335 0.925157
340 1.01068
345 0.825305
350 0.669081
355 0.973292
360 0.954397
365 1.04292
370 0.853689
375 1.12291
380 1.14206
385 1.29887
390 1.11107
395 1.61982
400 1.33863
405 1.42342
410 1.33785
415 1.4688
420 1.22425
425 1.05648
430 1.24292
435 1.18161
440 0.992126
445 0.955291
450 1.08229
455 1.09787
460 1.16023
465 1.32645
470 1.02098
475 1.03383
480 1.03125
485 0.836564
490 0.697343
495 0.92066
500 0.804708
505 0.902223
510 0.817302
515 0.783938
520 0.822201
525 0.916022
530 0.798144
535 0.850853
540 0.695352
545 0.664038
550 0.754951
555 0.688192
560 0.695669
565 0.677841
570 0.532898
575 0.71179
580 0.902377
585 1.20238
590 1.87452
595 1.30559
600 1.4701
Ex : 303
200 0.439068
205 0.538451
210 0.667049
215 0.649127
220 0.666048
225 0.711125
230 0.540412
235 0.631813
240 0.69461
245 0.701618
250 0.591665
255 0.687608
260 0.8357
265 0.699097
270 0.626164
275 0.515326
280 0.518332
285 0.636025
290 0.536716
295 0.815258
300 0.844859
305 0.759748
310 0.623927
315 0.55918
320 0.674697
325 0.742871
330 0.901546
335 0.83427
340 0.790945
345 0.732304
350 0.750157
355 0.765519
360 0.792681
365 0.935952
370 0.889866
375 1.00998
380 0.838495
385 0.88259
390 1.07197
395 0.931226
400 1.06254
405 1.10209
410 0.996927
415 0.933687
420 1.14107
425 1.34516
430 1.14346
435 1.26315
440 1.0293
445 1.03928
450 0.928307
455 1.09635
460 1.05938
465 0.990944
470 1.48311
475 1.10206
480 1.14746
485 1.03225
490 0.953417
495 0.833571
500 0.70782
505 0.786169
510 1.07994
515 0.897324
520 0.571581
525 0.635596
530 0.735857
535 0.52684
540 0.736579
545 0.661961
550 0.672082
555 0.828682
560 0.680069
565 0.897439
570 0.802217
575 0.562387
580 0.766284
585 0.634267
590 0.575739
595 1.11874
600 1.54523
Ex : 308
200 0.512157
205 0.496579
210 0.752711
215 0.684957
220 0.629111
225 0.664542
230 0.693383
235 0.646651
240 0.506653
245 0.544869
250 0.366417
255 0.529559
260 0.755703
265 0.788906
270 0.657228
275 0.670598
280 0.545545
285 0.757358
290 0.498786
295 0.709367
300 0.760343
305 0.864798
310 0.808047
315 0.677561
320 0.487083
325 0.593682
330 0.677106
335 0.713613
340 0.691892
345 0.650734
350 0.880822
355 0.75523
360 0.855116
365 0.979831
370 0.861734
375 0.922751
380 0.975969
385 1.09325
390 1.12033
395 1.14836
400 1.03751
405 1.10684
410 1.39276
415 1.24534
420 0.898464
425 0.797254
430 1.12091
435 1.04685
440 1.05548
445 0.930017
450 0.95821
455 0.70238
460 0.861624
465 1.09029
470 0.86792
475 0.952022
480 0.927194
485 0.834914
490 0.710422
495 0.770521
500 0.748451
505 0.693168
510 0.654169
515 0.807399
520 0.91932
525 0.689102
530 0.645553
535 0.585292
540 0.84938
545 0.704564
550 0.583631
555 0.521081
560 0.743108
565 0.611115
570 0.596604
575 0.538185
580 0.591054
585 0.543168
590 0.604476
595 0.589176
600 0.469866
Ex : 313
200 0.39208
205 0.482888
210 0.457161
215 0.758692
220 0.500798
225 0.495743
230 0.479925
235 0.591406
240 0.660261
245 0.544624
250 0.722966
255 0.524129
260 0.462262
265 0.40376
270 0.45777
275 0.480725
280 0.360888
285 0.443327
290 0.529785
295 0.393794
300 0.419601
305 0.905366
310 0.932866
315 0.760413
320 0.61741
325 0.525563
330 0.543123
335 0.938589
340 1.01176
345 0.594069
350 0.74092
355 0.963783
360 0.745969
365 0.805687
370 0.978635
375 1.03033
380 1.01743
385 1.47133
390 1.26594
395 1.22268
400 1.41419
405 1.24559
410 1.48632
415 1.35439
420 1.04482
425 1.29637
430 1.20921
435 1.12839
440 1.11931
445 1.10075
450 1.12991
455 1.4474
460 1.06036
465 0.931712
470 0.887396
475 0.928906
480 0.881041
485 0.828533
490 0.943708
495 0.835903
500 0.717361
505 0.6408
510 0.551606
515 0.718795
520 0.611513
525 0.591224
530 0.815263
535 0.630373
540 0.631047
545 0.723607
550 0.6521
555 0.514065
560 0.68379
565 0.732087
570 0.482237
575 0.542916
580 0.384744
585 0.515285
590 0.507471
595 0.575605
600 0.190613
Ex : 318
200 0.537291
205 0.377563
210 0.469821
215 0.428148
220 0.418679
225 0.558898
230 0.484118
235 0.488426
240 0.524497
245 0.454636
250 0.484134
255 0.482317
260 0.627403
265 0.466628
270 0.427581
275 0.394482
280 0.476729
285 0.492537
290 0.392624
295 0.37202
300 0.45731
305 0.469777
310 0.864198
315 1.1065
320 0.806992
325 0.589808
330 0.693688
335 0.943842
340 1.15733
345 1.86018
350 1.83962
355 2.62725
360 3.07241
365 3.72247
370 3.88885
375 4.73278
380 5.57196
385 5.50442
390 6.46151
395 6.61746
400 6.74981
405 7.41719
410 7.1238
415 7.43069
420 6.93164
425 6.84793
430 6.46776
435 6.63381
440 6.11966
445 5.47156
450 5.60094
455 5.176
460 5.21711
465 4.63759
470 4.20845
475 3.78427
480 3.27864
485 3.19727
490 2.77341
495 2.53859
500 2.61514
505 2.0747
510 1.97692
515 1.69202
520 1.35839
525 1.461
530 1.21881
535 1.23779
540 1.01373
545 1.00713
550 0.808372
555 0.912102
560 0.906735
565 0.722814
570 0.704496
575 0.849018
580 0.609563
585 0.586429
590 0.525122
595 0.753124
600 0.869293
Ex : 323
200 0.45605
205 0.390038
210 0.353223
215 0.31465
220 0.532192
225 0.363163
230 0.405454
235 0.475114
240 0.562524
245 0.530184
250 0.496848
255 0.485386
260 0.411866
265 0.388422
270 0.551719
275 0.492013
280 0.372178
285 0.380943
290 0.350342
295 0.366976
300 0.386017
305 0.442331
310 0.575457
315 2.19548
320 9.24772
325 4.59617
330 2.35699
335 3.10817
340 3.97233
345 5.74758
350 7.98559
355 11.1204
360 13.3113
365 16.136
370 18.7798
375 21.766
380 25.658
385 28.1915
390 30.3641
395 32.4601
400 33.758
405 34.7862
410 35.167
415 35.7444
420 33.9202
425 33.199
430 32.6181
435 31.3435
440 29.1359
445 28.7854
450 27.1431
455 25.2934
460 23.1651
465 21.5957
470 19.9919
475 18.4051
480 15.9457
485 15.2926
490 13.7057
495 12.3716
500 10.8612
505 9.5695
510 8.85159
515 7.53827
520 6.33393
525 5.64939
530 4.74523
535 4.29079
540 3.94076
545 3.48151
550 2.81144
555 2.61006
560 2.27185
565 1.95888
570 1.53159
575 1.2004
580 1.1067
585 0.974843
590 0.765447
595 0.686631
600 0.301838
Ex : 328
200 0.42623
205 0.370061
210 0.314986
215 0.367607
220 0.573845
225 0.451091
230 0.427375
235 0.322965
240 0.482575
245 0.339448
250 0.313015
255 0.530883
260 0.424977
265 0.527439
270 0.426738
275 0.317152
280 0.421977
285 0.387128
290 0.430157
295 0.416068
300 0.374656
305 0.408335
310 0.411891
315 0.854546
320 23.5442
325 58.4972
330 20.2148
335 6.07692
340 6.16364
345 8.02766
350 10.3305
355 14.3724
360 19.3454
365 22.0487
370 24.8401
375 27.955
380 31.3984
385 35.0407
390 38.6289
395 39.752
400 40.7556
405 44.0585
410 44.1312
415 44.5445
420 42.6822
425 41.8854
430 39.8815
435 38.8661
440 37.1776
445 35.0441
450 32.806
455 30.8633
460 28.8006
465 26.784
470 25.0218
475 23.1995
480 20.389
485 18.4534
490 16.7787
495 15.4916
500 13.2075
505 11.8894
510 10.8171
515 8.66369
520 7.98973
525 6.63573
530 6.31469
535 4.81751
540 4.70569
545 4.27228
550 3.77176
555 3.34319
560 2.81501
565 2.46094
570 2.1826
575 1.92646
580 1.47965
585 1.2668
590 0.942884
595 0.960247
600 0.707748
Ex : 333
200 0.298444
205 0.385888
210 0.29514
215 0.330754
220 0.304045
225 0.391423
230 0.344337
235 0.478571
240 0.350522
245 0.309789
250 0.358903
255 0.447157
260 0.414994
265 0.361429
270 0.382206
275 0.412786
280 0.394592
285 0.373677
290 0.51511
295 0.39053
300 0.4146
305 0.387244
310 0.444363
315 0.482579
320 4.27218
325 76.4467
330 140.063
335 38.9687
340 8.27916
345 6.39511
350 6.84013
355 7.6322
360 11.3817
365 16.697
370 16.7298
375 17.0358
380 18.675
385 21.2158
390 23.4672
395 25.0094
400 25.4739
405 26.5385
410 27.1187
415 26.8858
420 25.8598
425 25.6451
430 24.5158
435 23.7299
440 22.8448
445 21.6132
450 20.043
455 19.0702
460 17.7433
465 16.1407
470 15.1699
475 13.793
480 12.9796
485 11.2216
490 10.2957
495 9.76508
500 8.46864
505 7.6446
510 6.78995
515 6.43468
520 5.55686
525 4.96109
530 4.50414
535 4.1975
540 3.50273
545 2.97494
550 2.76614
555 2.57334
560 2.50645
565 2.21798
570 1.77257
575 1.4498
580 1.24087
585 1.04472
590 0.839506
595 0.930992
600 0.861621
Ex : 338
200 0.290492
205 0.361241
210 0.323317
215 0.351594
220 0.273684
225 0.354407
230 0.312716
235 0.258531
240 0.358353
245 0.381418
250 0.316998
255 0.316309
260 0.324958
265 0.385233
270 0.29106
275 0.327369
280 0.285917
285 0.34088
290 0.399725
295 0.331219
300 0.472603
305 0.36441
310 0.337577
315 0.420285
320 0.481748
325 7.84416
330 123.651
335 183.343
340 46.4062
345 8.17082
350 4.80256
355 4.77927
360 4.66846
365 6.46188
370 11.9591
375 11.5904
380 10.8236
385 11.2971
390 12.7226
395 14.5013
400 14.9228
405 15.515
410 15.4531
415 15.9765
420 16.0035
425 14.709
430 14.2289
435 13.723
440 13.7565
445 13.1086
450 11.7442
455 11.3921
460 10.6067
465 10.0974
470 9.29133
475 8.51101
480 7.83936
485 7.23714
490 6.95273
495 6.00279
500 5.55221
505 4.80373
510 4.18372
515 4.04426
520 3.73298
525 3.57566
530 2.73288
535 2.81221
540 2.45007
545 2.39066
550 2.14496
555 1.91754
560 1.57301
565 1.56399
570 1.31395
575 1.21112
580 1.10387
585 0.962687
590 0.902111
595 0.663378
600 1.01197
Ex : 343
200 0.291699
205 0.314027
210 0.323862
215 0.322131
220 0.341507
225 0.38672
230 0.329735
235 0.27801
240 0.332675
245 0.389113
250 0.288287
255 0.337947
260 0.269914
265 0.351838
270 0.353279
275 0.422301
280 0.295508
285 0.294514
290 0.318594
295 0.319862
300 0.349617
305 0.404888
310 0.330054
315 0.416005
320 0.475707
325 0.586466
330 9.59454
335 142.517
340 207.339
345 50.0753
350 8.11385
355 4.09589
360 3.56802
365 3.15612
370 4.48788
375 8.65028
380 10.137
385 9.82385
390 10.044
395 10.8884
400 10.7965
405 11.5571
410 12.2773
415 12.7519
420 12.4399
425 11.8227
430 11.7102
435 11.3801
440 11.1697
445 10.2427
450 9.69559
455 8.88857
460 8.66876
465 8.31705
470 7.84803
475 7.22732
480 6.80411
485 5.98629
490 5.64707
495 5.08001
500 4.53845
505 4.08423
510 3.75285
515 3.68465
520 3.237
525 3.08673
530 2.67171
535 2.46591
540 2.11524
545 2.18107
550 1.94313
555 1.79164
560 1.78656
565 1.33343
570 1.15763
575 1.05646
580 1.00462
585 0.942658
590 0.77043
595 0.766092
600 0.266736
Ex : 348
200 0.22336
205 0.296209
210 0.315165
215 0.229686
220 0.250373
225 0.313028
230 0.288211
235 0.280852
240 0.272708
245 0.259129
250 0.232669
255 0.258245
260 0.318146
265 0.273865
270 0.391161
275 0.283582
280 0.337401
285 0.325032
290 0.327799
295 0.310727
300 0.301771
305 0.291827
310 0.318413
315 0.268938
320 0.350145
325 0.574943
330 0.60252
335 9.88628
340 146.138
345 218.18
350 55.7814
355 8.50841
360 3.56401
365 3.0095
370 2.51446
375 3.31449
380 7.60833
385 11.8333
390 11.8774
395 11.6546
400 11.1579
405 11.647
410 12.6401
415 13.3213
420 12.7105
425 12.0782
430 11.6906
435 11.5595
440 11.2001
445 10.7751
450 9.86537
455 9.50861
460 8.80887
465 8.20056
470 7.6697
475 7.15675
480 6.76047
485 5.98535
490 5.88466
495 5.10488
500 4.95672
505 4.461
510 4.1769
515 3.59742
520 3.34129
525 2.8244
530 2.77474
535 2.41663
540 2.12302
545 2.14493
550 1.905
555 1.58088
560 1.51305
565 1.39631
570 1.23695
575 0.985611
580 0.893207
585 0.854553
590 0.588397
595 0.686297
600 0.556111
Ex : 353
200 0.244495
205 0.300894
210 0.222256
215 0.267285
220 0.356557
225 0.374374
230 0.271146
235 0.329584
240 0.316892
245 0.297462
250 0.264065
255 0.310078
260 0.349937
265 0.315877
270 0.330673
275 0.28949
280 0.327119
285 0.316266
290 0.237179
295 0.382972
300 0.38637
305 0.319344
310 0.312069
315 0.270708
320 0.392653
325 0.380183
330 0.430771
335 0.627237
340 10.463
345 152.227
350 220.357
355 54.4467
360 8.35915
365 3.27742
370 2.87571
375 2.63335
380 3.6357
385 8.39644
390 14.1998
395 13.8351
400 12.5538
405 11.6723
410 12.8285
415 13.8701
420 14.1069
425 12.4306
430 11.5793
435 11.2527
440 10.9865
445 11.4341
450 9.89431
455 9.83026
460 8.48299
465 8.05745
470 7.70405
475 7.27478
480 6.54951
485 6.40767
490 6.05848
495 5.07547
500 4.74341
505 4.43839
510 3.93535
515 3.68529
520 3.37386
525 3.05858
530 2.67054
535 2.39642
540 2.27348
545 1.98422
550 1.81225
555 1.6715
560 1.6
565 1.37455
570 1.16133
575 0.878632
580 0.93026
585 0.801705
590 0.73571
595 0.685963
600 0.65731
Ex : 358
200 0.341145
205 0.258908
210 0.228497
215 0.244969
220 0.282108
225 0.249987
230 0.277799
235 0.241115
240 0.323209
245 0.283673
250 0.226437
255 0.333984
260 0.230403
265 0.212399
270 0.269584
275 0.259586
280 0.265854
285 0.217119
290 0.294658
295 0.248836
300 0.226711
305 0.296326
310 0.360362
315 0.261499
320 0.266954
325 0.355011
330 0.314218
335 0.464763
340 0.510968
345 10.0148
350 146.263
355 220.696
360 55.0819
365 8.12588
370 3.02643
375 2.9801
380 3.34658
385 5.52997
390 9.36734
395 14.453
400 13.5207
405 11.9652
410 11.873
415 12.7926
420 12.6052
425 11.5811
430 11.0855
435 10.6438
440 10.4736
445 10.6617
450 9.52624
455 8.89485
460 8.26043
465 7.7972
470 7.61964
475 7.24272
480 6.631
485 6.41038
490 5.82474
495 5.29885
500 4.76606
505 4.41154
510 4.06856
515 3.44013
520 3.19844
525 2.9964
530 2.64343
535 2.39881
540 2.18388
545 2.14827
550 1.84242
555 1.57643
560 1.65128
565 1.46024
570 1.2931
575 1.0402
580 0.924614
585 0.772663
590 0.69039
595 0.651717
600 1.2489
Ex : 363
200 0.284348
205 0.242952
210 0.257994
215 0.226431
220 0.223685
225 0.199254
230 0.260742
235 0.153769
240 0.213837
245 0.239025
250 0.19053
255 0.271014
260 0.238575
265 0.286914
270 0.28479
275 0.224976
280 0.21976
285 0.292271
290 0.257738
295 0.270128
300 0.227742
305 0.295496
310 0.256601
315 0.237755
320 0.236595
325 0.247806
330 0.383581
335 0.366612
340 0.399462
345 0.506464
350 8.87341
355 143.26
360 220.908
365 57.4514
370 8.2694
375 3.18576
380 4.31592
385 6.2951
390 8.26458
395 10.3671
400 13.4202
405 14.9165
410 14.1813
415 13.9433
420 12.9283
425 11.8881
430 11.2836
435 11.0296
440 10.5958
445 10.4476
450 10.2418
455 9.33327
460 8.49667
465 8.12558
470 8.01521
475 7.2201
480 6.90219
485 6.29943
490 5.89656
495 5.47639
500 4.82447
505 4.51465
510 4.11105
515 3.61408
520 3.41145
525 3.09518
530 3.01709
535 2.48335
540 2.30381
545 2.0427
550 1.80866
555 1.64746
560 1.41488
565 1.33658
570 1.18182
575 1.02214
580 0.878106
585 0.698739
590 0.590646
595 0.527598
600 0.41452
Ex : 368
200 0.242206
205 0.252405
210 0.227861
215 0.27641
220 0.235859
225 0.22037
230 0.28161
235 0.291399
240 0.271895
245 0.218573
250 0.230688
255 0.205877
260 0.269949
265 0.28374
270 0.263502
275 0.246338
280 0.331614
285 0.266874
290 0.17222
295 0.249194
300 0.22323
305 0.271866
310 0.221854
315 0.295753
320 0.251162
325 0.253572
330 0.275603
335 0.296578
340 0.268193
345 0.28072
350 0.488404
355 7.03067
360 137.167
365 227.083
370 60.4583
375 9.01153
380 4.25269
385 6.67136
390 9.95907
395 11.1427
400 11.1848
405 14.465
410 17.8778
415 17.301
420 15.766
425 13.5931
430 12.2373
435 12.0414
440 12.2713
445 11.688
450 10.6304
455 9.70144
460 9.44622
465 8.49474
470 8.30476
475 7.31724
480 6.78513
485 6.26778
490 5.94334
495 5.41865
500 4.99715
505 4.68427
510 4.06579
515 3.88601
520 3.54591
525 2.98436
530 2.65723
535 2.5052
540 2.18718
545 2.05372
550 1.80996
555 1.74326
560 1.5525
565 1.38856
570 0.990138
575 1.07019
580 0.924276
585 0.681351
590 0.620322
595 0.534838
600 0.259146
Ex : 373
200 0.188995
205 0.179111
210 0.242346
215 0.240436
220 0.215004
225 0.190693
230 0.22465
235 0.217341
240 0.255688
245 0.20514
250 0.182131
255 0.166693
260 0.213338
265 0.290828
270 0.238072
275 0.251249
280 0.266582
285 0.179922
290 0.270619
295 0.263741
300 0.2643
305 0.182955
310 0.241662
315 0.229112
320 0.251546
325 0.205261
330 0.32076
335 0.286165
340 0.370332
345 0.377644
350 0.392021
355 0.493393
360 8.99065
365 139.97
370 222.148
375 59.8076
380 9.63858
385 5.92748
390 9.67188
395 11.8123
400 10.912
405 10.6069
410 14.044
415 18.5092
420 16.4196
425 14.0858
430 12.2819
435 11.2508
440 11.1481
445 11.0889
450 10.4269
455 9.1548
460 8.48861
465 8.02635
470 7.79746
475 7.42837
480 6.88045
485 6.23547
490 5.99096
495 5.27379
500 4.65475
505 4.24907
510 4.07935
515 3.80685
520 3.46047
525 3.06415
530 2.81405
535 2.46503
540 2.12769
545 2.07802
550 1.84611
555 1.63838
560 1.52041
565 1.32812
570 1.30335
575 0.927437
580 0.797261
585 0.72475
590 0.626519
595 0.458584
600 0.567864
Ex : 378
200 0.178592
205 0.16731
210 0.159278
215 0.213723
220 0.247353
225 0.230542
230 0.194349
235 0.23161
240 0.251853
245 0.195574
250 0.21059
255 0.174233
260 0.191269
265 0.254582
270 0.245801
275 0.183231
280 0.207726
285 0.22066
290 0.209871
295 0.212031
300 0.18823
305 0.219079
310 0.2259
315 0.175157
320 0.230281
325 0.253769
330 0.208265
335 0.214508
340 0.255787
345 0.2524
350 0.275561
355 0.346763
360 0.467435
365 8.21818
370 141.484
375 229.808
380 62.5772
385 11.3745
390 7.56959
395 8.88371
400 8.71372
405 7.99909
410 9.21146
415 11.9525
420 14.5302
425 12.7706
430 10.1347
435 9.5796
440 9.53333
445 8.92837
450 8.22235
455 7.65431
460 7.51447
465 7.06853
470 6.8542
475 6.48526
480 5.82671
485 5.62737
490 5.15425
495 5.02487
500 4.71032
505 4.34193
510 4.04776
515 3.52778
520 3.05857
525 2.86658
530 2.69488
535 2.41411
540 2.09775
545 1.85089
550 1.63501
555 1.6815
560 1.49935
565 1.38534
570 1.07433
575 0.933087
580 0.778851
585 0.697421
590 0.555123
595 0.53782
600 1.14997
Ex : 383
200 0.239707
205 0.195057
210 0.174397
215 0.185184
220 0.190069
225 0.2205
230 0.196882
235 0.165505
240 0.22663
245 0.200119
250 0.190374
255 0.222728
260 0.220466
265 0.202096
270 0.177022
275 0.228128
280 0.216546
285 0.204493
290 0.164316
295 0.196156
300 0.250069
305 0.163669
310 0.172617
315 0.233354
320 0.231325
325 0.254691
330 0.224998
335 0.221564
340 0.226634
345 0.266991
350 0.273559
355 0.329556
360 0.357314
365 0.551305
370 7.63545
375 142.563
380 243.141
385 68.6998
390 14.2176
395 8.247
400 7.80751
405 8.50843
410 9.04478
415 9.80338
420 9.84662
425 11.5883
430 11.7583
435 9.72137
440 8.91755
445 8.33106
450 7.57583
455 7.48883
460 6.883
465 6.47913
470 6.30429
475 5.99494
480 5.84199
485 5.35896
490 5.00371
495 4.63543
500 4.43739
505 4.11324
510 3.70667
515 3.27775
520 3.02223
525 2.88674
530 2.61157
535 2.46055
540 2.13668
545 2.11317
550 1.79315
555 1.68818
560 1.54361
565 1.29754
570 1.03436
575 0.95285
580 0.816692
585 0.737138
590 0.554199
595 0.566222
600 0.0644339
Ex : 388
200 0.146468
205 0.20682
210 0.180593
215 0.256872
220 0.218339
225 0.145732
230 0.177387
235 0.230785
240 0.221578
245 0.223378
250 0.195174
255 0.150531
260 0.168843
265 0.233481
270 0.264251
275 0.175774
280 0.155758
285 0.201033
290 0.143411
295 0.23634
300 0.175144
305 0.217721
310 0.211907
315 0.204209
320 0.188004
325 0.169591
330 0.266247
335 0.255586
340 0.230016
345 0.254948
350 0.254377
355 0.275964
360 0.26526
365 0.34566
370 0.576055
375 8.73808
380 146.182
385 241.725
390 69.2424
395 15.9138
400 9.15513
405 9.26012
410 10.5929
415 11.6169
420 10.3655
425 9.56922
430 11.1255
435 12.2561
440 10.6422
445 9.42165
450 8.00079
455 7.40654
460 6.904
465 6.91378
470 6.56612
475 6.22887
480 5.8764
485 5.49937
490 5.08721
495 4.9003
500 4.53769
505 4.33663
510 3.89362
515 3.48642
520 3.19802
525 2.775
530 2.47985
535 2.44744
540 1.99349
545 2.00263
550 1.82854
555 1.49562
560 1.32392
565 1.2981
570 1.06552
575 0.922285
580 0.776141
585 0.667883
590 0.517692
595 0.471086
600 0.321141
Ex : 393
200 0.193353
205 0.19744
210 0.146302
215 0.198829
220 0.243377
225 0.168701
230 0.169034
235 0.192328
240 0.201684
245 0.178873
250 0.217882
255 0.22269
260 0.16456
265 0.193746
270 0.17269
275 0.225964
280 0.185899
285 0.160554
290 0.193444
295 0.199864
300 0.171993
305 0.202731
310 0.248602
315 0.21055
320 0.200271
325 0.177899
330 0.284563
335 0.214353
340 0.26462
345 0.247495
350 0.219042
355 0.218267
360 0.255029
365 0.349847
370 0.358236
375 0.534585
380 7.6976
385 146.444
390 253.642
395 74.7204
400 16.4338
405 8.80049
410 9.47999
415 11.5717
420 11.33
425 9.28735
430 8.2554
435 9.324
440 11.9523
445 10.706
450 8.74354
455 7.3832
460 6.5882
465 6.31097
470 6.07061
475 5.8314
480 5.58066
485 5.22306
490 4.72759
495 4.56968
500 4.33417
505 4.01112
510 3.5753
515 3.22754
520 2.91968
525 2.7466
530 2.70352
535 2.43446
540 2.08837
545 1.91546
550 1.69455
555 1.58527
560 1.46629
565 1.20482
570 1.02369
575 0.908333
580 0.745435
585 0.690443
590 0.540954
595 0.470487
600 0.242982
Ex : 398
200 0.169584
205 0.193261
210 0.221518
215 0.160828
220 0.233838
225 0.215869
230 0.217542
235 0.147839
240 0.193201
245 0.172847
250 0.176186
255 0.211542
260 0.161229
265 0.161796
270 0.160455
275 0.161188
280 0.260599
285 0.211899
290 0.143335
295 0.224035
300 0.197504
305 0.1669
310 0.236717
315 0.182666
320 0.193797
325 0.195488
330 0.222382
335 0.194024
340 0.195106
345 0.26306
350 0.205122
355 0.212701
360 0.197486
365 0.209327
370 0.290312
375 0.401122
380 0.656378
385 8.54289
390 151.595
395 254.927
400 71.4446
405 12.5598
410 6.17684
415 6.99278
420 7.09683
425 6.16166
430 5.32502
435 5.19522
440 6.60134
445 8.79631
450 8.62417
455 6.61607
460 5.56198
465 5.026
470 5.06907
475 5.00757
480 4.69833
485 4.44097
490 4.31953
495 4.01474
500 3.93073
505 3.57081
510 3.35643
515 2.88221
520 2.94302
525 2.61118
530 2.38153
535 2.2614
540 2.03104
545 1.90892
550 1.75218
555 1.44299
560 1.45449
565 1.16255
570 1.0979
575 0.861263
580 0.713536
585 0.586848
590 0.518064
595 0.538394
600 0.269254
Ex : 403
200 0.143715
205 0.174891
210 0.162292
215 0.160707
220 0.208807
225 0.162966
230 0.161339
235 0.185545
240 0.206035
245 0.189438
250 0.219983
255 0.160059
260 0.166554
265 0.144286
270 0.216185
275 0.191186
280 0.189779
285 0.184764
290 0.162537
295 0.199719
300 0.194487
305 0.215457
310 0.226665
315 0.15387
320 0.191504
325 0.223598
330 0.214996
335 0.246415
340 0.197423
345 0.222158
350 0.221258
355 0.203841
360 0.239026
365 0.224247
370 0.246488
375 0.278877
380 0.406184
385 0.599837
390 9.18625
395 154.035
400 250.621
405 68.0561
410 10.3575
415 3.93991
420 3.65556
425 3.61043
430 3.38102
435 3.15644
440 3.24816
445 4.109
450 6.29398
455 6.7145
460 5.21307
465 4.74431
470 4.24901
475 4.19864
480 4.02745
485 3.88535
490 3.7099
495 3.62797
500 3.53648
505 3.3371
510 3.0113
515 3.00788
520 2.8956
525 2.60434
530 2.32863
535 2.09562
540 1.79176
545 1.83071
550 1.74537
555 1.63566
560 1.36185
565 1.26373
570 0.963581
575 0.904187
580 0.77773
585 0.611534
590 0.544636
595 0.459371
600 0.307621
Ex : 408
200 0.194768
205 0.201458
210 0.182411
215 0.158807
220 0.205936
225 0.210129
230 0.191781
235 0.230377
240 0.189557
245 0.161654
250 0.205344
255 0.163188
260 0.234937
265 0.230057
270 0.193976
275 0.162168
280 0.178717
285 0.203605
290 0.179806
295 0.154715
300 0.19086
305 0.162078
310 0.199076
315 0.168425
320 0.225978
325 0.17534
330 0.16341
335 0.172828
340 0.192897
345 0.177385
350 0.198859
355 0.157603
360 0.143643
365 0.194451
370 0.194056
375 0.258721
380 0.286286
385 0.348708
390 0.703955
395 8.40058
400 156.177
405 252.583
410 66.3689
415 9.67733
420 3.26217
425 2.56212
430 2.9772
435 2.95276
440 2.88206
445 2.957
450 3.3973
455 5.12877
460 6.6187
465 5.10201
470 4.59091
475 4.26561
480 3.81733
485 3.71597
490 3.56857
495 3.56949
500 3.41403
505 3.31573
510 2.92444
515 2.7148
520 2.57393
525 2.39424
530 2.42728
535 2.04386
540 1.73407
545 1.63855
550 1.58827
555 1.42129
560 1.31088
565 1.05087
570 0.950781
575 0.867272
580 0.71807
585 0.555792
590 0.537842
595 0.513606
600 0.272462
Ex : 413
200 0.158891
205 0.188726
210 0.197514
215 0.177316
220 0.208203
225 0.211027
230 0.194867
235 0.120328
240 0.210658
245 0.162817
250 0.210691
255 0.182875
260 0.174334
265 0.122271
270 0.188568
275 0.167158
280 0.191067
285 0.155674
290 0.212836
295 0.172393
300 0.188324
305 0.190231
310 0.148441
315 0.144808
320 0.219716
325 0.167359
330 0.156496
335 0.202343
340 0.292833
345 0.27029
350 0.246486
355 0.213956
360 0.237218
365 0.206918
370 0.181385
375 0.235124
380 0.23547
385 0.310911
390 0.424271
395 0.508357
400 9.54322
405 163.748
410 260.471
415 67.2942
420 9.76693
425 3.06035
430 2.59946
435 2.89605
440 2.81203
445 2.58205
450 2.79955
455 3.01129
460 4.26909
465 6.23319
470 5.38903
475 4.54456
480 4.00724
485 3.57288
490 3.53748
495 3.27261
500 3.14917
505 2.92634
510 2.69754
515 2.53814
520 2.63549
525 2.17196
530 1.9887
535 1.9043
540 1.72938
545 1.5786
550 1.53156
555 1.39525
560 1.3901
565 1.25881
570 1.01278
575 0.896643
580 0.698503
585 0.549466
590 0.50032
595 0.447519
600 0.320004
Ex : 418
200 0.233516
205 0.157222
210 0.156957
215 0.183821
220 0.155508
225 0.190237
230 0.180797
235 0.203817
240 0.14644
245 0.209975
250 0.163094
255 0.211562
260 0.184881
265 0.21513
270 0.187609
275 0.151882
280 0.179892
285 0.176345
290 0.158671
295 0.163716
300 0.152378
305 0.181129
310 0.1663
315 0.186981
320 0.159197
325 0.191222
330 0.188249
335 0.1845
340 0.186789
345 0.174944
350 0.207047
355 0.203703
360 0.17733
365 0.232083
370 0.241548
375 0.244512
380 0.209052
385 0.216347
390 0.343605
395 0.397633
400 0.518601
405 9.17133
410 162.411
415 265.16
420 71.4794
425 9.89562
430 2.85643
435 2.18577
440 2.42715
445 2.72025
450 2.34612
455 2.41466
460 2.39739
465 3.42134
470 5.67469
475 5.417
480 3.96916
485 3.78608
490 3.30363
495 3.02629
500 2.97785
505 2.82677
510 2.60422
515 2.36506
520 2.32113
525 2.13503
530 2.03385
535 1.85974
540 1.77058
545 1.74183
550 1.44982
555 1.31304
560 1.20342
565 1.08
570 0.868492
575 0.757461
580 0.734525
585 0.592649
590 0.452434
595 0.372078
600 0.17461
Ex : 423
200 0.19054
205 0.147982
210 0.170296
215 0.192577
220 0.188651
225 0.165254
230 0.143637
235 0.168226
240 0.206599
245 0.126817
250 0.22889
255 0.217564
260 0.196438
265 0.187115
270 0.21415
275 0.155519
280 0.186211
285 0.166228
290 0.196801
295 0.152353
300 0.205039
305 0.160392
310 0.226146
315 0.205705
320 0.142662
325 0.146052
330 0.168073
335 0.214445
340 0.196812
345 0.196752
350 0.203593
355 0.231287
360 0.181854
365 0.174887
370 0.195377
375 0.181426
380 0.222306
385 0.231976
390 0.277278
395 0.329494
400 0.324562
405 0.551919
410 9.37603
415 170.924
420 265.911
425 67.1693
430 9.12191
435 2.47328
440 1.85522
445 2.22032
450 2.19605
455 2.10796
460 2.1207
465 2.19523
470 2.6683
475 4.73452
480 5.41849
485 4.06851
490 3.4094
495 3.05841
500 2.70716
505 2.61212
510 2.52608
515 2.46481
520 2.20917
525 2.02844
530 2.02495
535 1.84949
540 1.74782
545 1.55238
550 1.40981
555 1.29414
560 1.22975
565 1.06015
570 0.90233
575 0.810298
580 0.652265
585 0.523481
590 0.485437
595 0.447008
600 0.451561
Ex : 428
200 0.194272
205 0.176068
210 0.204358
215 0.196646
220 0.193431
225 0.170134
230 0.194949
235 0.217535
240 0.184794
245 0.231024
250 0.159069
255 0.224755
260 0.266635
265 0.156635
270 0.148345
275 0.188428
280 0.182655
285 0.193765
290 0.173962
295 0.205212
300 0.204554
305 0.143473
310 0.197512
315 0.148616
320 0.188807
325 0.229851
330 0.175897
335 0.166644
340 0.154819
345 0.197583
350 0.227924
355 0.202878
360 0.242635
365 0.205444
370 0.231944
375 0.214175
380 0.226991
385 0.1975
390 0.232469
395 0.298739
400 0.360382
405 0.384951
410 0.559396
415 10.9414
420 178.258
425 276.133
430 71.1719
435 9.48976
440 2.47824
445 1.82618
450 1.99154
455 2.1974
460 2.02146
465 1.88237
470 2.00223
475 2.43153
480 3.73222
485 5.3883
490 4.26073
495 3.276
500 3.08398
505 2.59524
510 2.11859
515 2.21933
520 2.08722
525 1.97744
530 1.91019
535 1.78459
540 1.57395
545 1.49412
550 1.39697
555 1.29307
560 1.19066
565 1.09443
570 0.909346
575 0.850362
580 0.673896
585 0.596193
590 0.528413
595 0.448613
600 0.471622
Ex : 433
200 0.172492
205 0.209815
210 0.205072
215 0.186412
220 0.169715
225 0.181355
230 0.169825
235 0.180128
240 0.174341
245 0.194399
250 0.226653
255 0.18157
260 0.137087
265 0.170383
270 0.206119
275 0.228705
280 0.188694
285 0.164458
290 0.14819
295 0.205062
300 0.114893
305 0.157394
310 0.184476
315 0.173275
320 0.172026
325 0.23486
330 0.212613
335 0.189482
340 0.172178
345 0.21656
350 0.161958
355 0.20621
360 0.207295
365 0.198848
370 0.221176
375 0.240418
380 0.214769
385 0.206164
390 0.214944
395 0.237631
400 0.231746
405 0.309838
410 0.351734
415 0.612133
420 11.8393
425 196.613
430 284.681
435 70.3548
440 9.38188
445 2.50657
450 1.59767
455 1.96927
460 2.14262
465 2.13944
470 1.88481
475 2.03914
480 2.12684
485 3.03878
490 4.73751
495 4.20119
500 3.28941
505 2.85667
510 2.41474
515 2.00332
520 2.03703
525 1.87292
530 1.88229
535 1.84166
540 1.53612
545 1.43985
550 1.44093
555 1.35678
560 1.1936
565 1.10393
570 1.00607
575 0.784039
580 0.679317
585 0.563006
590 0.487511
595 0.373469
600 0.383581
Ex : 438
200 0.203666
205 0.191296
210 0.201287
215 0.177847
220 0.221124
225 0.16172
230 0.209555
235 0.177705
240 0.225081
245 0.260867
250 0.136415
255 0.189856
260 0.195387
265 0.152098
270 0.212464
275 0.19181
280 0.231902
285 0.166591
290 0.214567
295 0.198391
300 0.205742
305 0.181932
310 0.1395
315 0.166755
320 0.143926
325 0.15787
330 0.156285
335 0.184024
340 0.215986
345 0.234082
350 0.229513
355 0.18703
360 0.182123
365 0.21183
370 0.220604
375 0.201407
380 0.257079
385 0.235345
390 0.251602
395 0.264623
400 0.245271
405 0.245567
410 0.269525
415 0.428888
420 0.567352
425 10.9709
430 193.463
435 301.821
440 75.5179
445 10.0151
450 2.58645
455 1.61594
460 1.99871
465 2.25865
470 2.12354
475 1.83181
480 1.96357
485 1.96251
490 2.53713
495 4.36174
500 4.62814
505 2.97564
510 2.57874
515 2.40059
520 2.06327
525 2.00098
530 1.86644
535 1.6301
540 1.63117
545 1.53871
550 1.41903
555 1.22101
560 1.21009
565 1.14122
570 0.899215
575 0.72246
580 0.683832
585 0.529283
590 0.47043
595 0.451199
600 0.226174
Ex : 443
200 0.19539
205 0.213775
210 0.186813
215 0.186334
220 0.162384
225 0.180073
230 0.193456
235 0.163967
240 0.181942
245 0.200412
250 0.228883
255 0.20228
260 0.248603
265 0.215711
270 0.164377
275 0.146803
280 0.178496
285 0.222476
290 0.239068
295 0.22517
300 0.211003
305 0.207815
310 0.226353
315 0.159847
320 0.211373
325 0.194494
330 0.197982
335 0.195849
340 0.231399
345 0.189569
350 0.196563
355 0.138872
360 0.224542
365 0.149682
370 0.256512
375 0.211659
380 0.28218
385 0.239696
390 0.254617
395 0.225754
400 0.252718
405 0.273824
410 0.295866
415 0.27193
420 0.514634
425 0.514083
430 12.5719
435 204.958
440 305.439
445 75.0806
450 10.0275
455 2.52367
460 1.73736
465 1.87047
470 2.13009
475 1.9951
480 1.88494
485 1.93087
490 2.07908
495 2.18135
500 3.54654
505 4.40006
510 3.31189
515 2.69043
520 2.40509
525 2.10738
530 1.98149
535 1.8278
540 1.64776
545 1.5642
550 1.38991
555 1.26002
560 1.17405
565 1.16512
570 0.945921
575 0.811379
580 0.724498
585 0.619395
590 0.475147
595 0.450327
600 0.418584
Ex : 448
200 0.238757
205 0.205654
210 0.142647
215 0.16335
220 0.226748
225 0.205235
230 0.175082
235 0.16223
240 0.20339
245 0.215275
250 0.190044
255 0.214273
260 0.16892
265 0.198156
270 0.171743
275 0.193331
280 0.204742
285 0.153266
290 0.202982
295 0.167861
300 0.157179
305 0.185018
310 0.209236
315 0.177818
320 0.199273
325 0.190152
330 0.190373
335 0.180032
340 0.193287
345 0.194238
350 0.185745
355 0.247416
360 0.217024
365 0.258351
370 0.20287
375 0.216614
380 0.251728
385 0.231138
390 0.219063
395 0.288395
400 0.230768
405 0.254677
410 0.219546
415 0.316314
420 0.378211
425 0.441864
430 0.609118
435 13.3012
440 212.57
445 322.396
450 80.3259
455 10.598
460 2.69421
465 1.6157
470 1.84192
475 2.09713
480 1.9425
485 1.74706
490 1.80423
495 1.71936
500 1.87823
505 2.79318
510 4.26195
515 3.49034
520 2.57303
525 2.37032
530 2.10147
535 1.72588
540 1.74981
545 1.55562
550 1.36092
555 1.21532
560 1.17395
565 1.08726
570 0.844862
575 0.865543
580 0.624761
585 0.666531
590 0.4954
595 0.46207
600 0.4016
Ex : 453
200 0.180314
205 0.203483
210 0.18638
215 0.167559
220 0.170898
225 0.162856
230 0.165653
235 0.15804
240 0.186578
245 0.176036
250 0.216463
255 0.177519
260 0.216351
265 0.200687
270 0.178457
275 0.207823
280 0.240945
285 0.220907
290 0.18213
295 0.1791
300 0.180996
305 0.205705
310 0.196031
315 0.203187
320 0.247051
325 0.208643
330 0.249384
335 0.205867
340 0.205927
345 0.194014
350 0.196172
355 0.185017
360 0.179679
365 0.210436
370 0.204589
375 0.197462
380 0.186258
385 0.218884
390 0.220147
395 0.247705
400 0.224254
405 0.237263
410 0.21397
415 0.267617
420 0.295044
425 0.353633
430 0.386725
435 0.585321
440 13.9228
445 234.179
450 335.86
455 78.3618
460 10.351
465 2.66907
470 1.68295
475 1.65358
480 2.00093
485 1.91276
490 1.73697
495 1.67739
500 1.78844
505 1.66734
510 2.34294
515 3.70794
520 3.87479
525 2.51444
530 2.32107
535 1.90124
540 1.83235
545 1.58962
550 1.42194
555 1.40214
560 1.26656
565 1.20129
570 0.939552
575 0.89675
580 0.749123
585 0.582564
590 0.434193
595 0.405505
600 0.246903
Ex : 458
200 0.220112
205 0.233964
210 0.208243
215 0.166913
220 0.198641
225 0.216413
230 0.28495
235 0.193178
240 0.211214
245 0.216887
250 0.201283
255 0.177055
260 0.185654
265 0.212427
270 0.168304
275 0.269471
280 0.219858
285 0.199592
290 0.188451
295 0.154079
300 0.195658
305 0.212197
310 0.227118
315 0.181566
320 0.232361
325 0.249939
330 0.233493
335 0.223973
340 0.213049
345 0.198756
350 0.184122
355 0.210472
360 0.204694
365 0.214014
370 0.211669
375 0.221734
380 0.231115
385 0.257229
390 0.240609
395 0.197225
400 0.300416
405 0.242443
410 0.259381
415 0.267364
420 0.264591
425 0.328305
430 0.355151
435 0.484663
440 0.584773
445 15.3277
450 241.588
455 349.787
460 84.5941
465 11.0741
470 2.71368
475 1.74145
480 1.66427
485 2.05263
490 1.88304
495 1.8175
500 1.63565
505 1.60864
510 1.85664
515 1.92959
520 3.08333
525 4.06739
530 2.88985
535 2.07081
540 2.05505
545 1.76177
550 1.47294
555 1.33423
560 1.28531
565 1.17439
570 1.10207
575 0.878004
580 0.777704
585 0.6437
590 0.496733
595 0.523412
600 0.646413
Ex : 463
200 0.16359
205 0.177251
210 0.191026
215 0.200569
220 0.184429
225 0.189386
230 0.214623
235 0.160191
240 0.225597
245 0.21063
250 0.211535
255 0.18948
260 0.187872
265 0.215395
270 0.203494
275 0.209296
280 0.237492
285 0.184331
290 0.188662
295 0.167805
300 0.166167
305 0.237101
310 0.214931
315 0.194059
320 0.171151
325 0.169639
330 0.180481
335 0.152661
340 0.207818
345 0.209166
350 0.191448
355 0.238326
360 0.204402
365 0.264703
370 0.253393
375 0.17282
380 0.213456
385 0.257978
390 0.204393
395 0.216862
400 0.205859
405 0.257619
410 0.235507
415 0.202394
420 0.31338
425 0.233304
430 0.327371
435 0.371963
440 0.387654
445 0.626869
450 14.7943
455 250.957
460 374.494
465 89.4768
470 11.6436
475 2.86995
480 1.73303
485 1.57378
490 1.86289
495 1.96011
500 1.69618
505 1.54506
510 1.59509
515 1.6625
520 1.7647
525 2.70342
530 3.8611
535 3.13389
540 2.14983
545 1.93266
550 1.79627
555 1.48309
560 1.1966
565 1.23858
570 1.08279
575 0.887589
580 0.716327
585 0.579614
590 0.461032
595 0.438593
600 0.345311
Ex : 468
200 0.193066
205 0.192362
210 0.203503
215 0.165585
220 0.209663
225 0.176495
230 0.153954
235 0.153932
240 0.189711
245 0.196915
250 0.191988
255 0.197039
260 0.176039
265 0.174194
270 0.218815
275 0.185848
280 0.201535
285 0.250746
290 0.191165
295 0.200194
300 0.19368
305 0.220325
310 0.158177
315 0.192061
320 0.214716
325 0.196888
330 0.176788
335 0.17797
340 0.168564
345 0.188134
350 0.20512
355 0.210978
360 0.198379
365 0.169396
370 0.176952
375 0.192008
380 0.180739
385 0.200308
390 0.249219
395 0.209537
400 0.207091
405 0.232559
410 0.219765
415 0.213197
420 0.259333
425 0.277976
430 0.264154
435 0.252017
440 0.322193
445 0.374326
450 0.640406
455 16.8338
460 261.839
465 394.52
470 92.9262
475 11.9425
480 2.79156
485 1.5818
490 1.68741
495 1.76759
500 1.83612
505 1.83399
510 1.6931
515 1.58452
520 1.69441
525 1.82497
530 2.21823
535 3.30779
540 3.32283
545 2.21871
550 1.73783
555 1.70828
560 1.34182
565 1.17142
570 1.11852
575 0.909958
580 0.717818
585 0.576987
590 0.551984
595 0.505523
600 0.508139
Ex : 473
200 0.194054
205 0.232898
210 0.178749
215 0.19317
220 0.151366
225 0.144235
230 0.184011
235 0.232531
240 0.210927
245 0.24178
250 0.183997
255 0.152254
260 0.192489
265 0.185126
270 0.219792
275 0.212286
280 0.261891
285 0.245367
290 0.212707
295 0.203041
300 0.206427
305 0.208869
310 0.192398
315 0.193498
320 0.205811
325 0.202483
330 0.181172
335 0.197781
340 0.23652
345 0.165775
350 0.176069
355 0.187075
360 0.17706
365 0.217246
370 0.225328
375 0.238856
380 0.226408
385 0.257301
390 0.206075
395 0.226046
400 0.230104
405 0.222878
410 0.167931
415 0.210675
420 0.253624
425 0.26552
430 0.294251
435 0.297654
440 0.308806
445 0.350752
450 0.432335
455 0.602021
460 18.3302
465 282.843
470 390.798
475 88.1655
480 11.4009
485 2.65137
490 1.58649
495 1.3543
500 1.70117
505 1.76366
510 1.58701
515 1.62289
520 1.6081
525 1.75244
530 1.70345
535 1.96792
540 2.9165
545 3.36616
550 2.40038
555 1.7073
560 1.64363
565 1.36724
570 1.10079
575 0.893365
580 0.8212
585 0.702137
590 0.548191
595 0.574439
600 0.288916
Ex : 478
200 0.188637
205 0.218521
210 0.183297
215 0.234732
220 0.205786
225 0.24338
230 0.192771
235 0.221972
240 0.232227
245 0.184397
250 0.227262
255 0.226824
260 0.210447
265 0.22515
270 0.212186
275 0.245813
280 0.196475
285 0.211841
290 0.195109
295 0.257147
300 0.256975
305 0.225258
310 0.231611
315 0.206084
320 0.243806
325 0.201772
330 0.201876
335 0.252234
340 0.217633
345 0.218532
350 0.306975
355 0.254536
360 0.277345
365 0.302946
370 0.242319
375 0.291217
380 0.258748
385 0.178064
390 0.179969
395 0.239092
400 0.237455
405 0.252512
410 0.228168
415 0.306292
420 0.264334
425 0.262109
430 0.308488
435 0.321781
440 0.310256
445 0.337876
450 0.410701
455 0.536866
460 0.789831
465 20.0068
470 288.253
475 394.868
480 94.2398
485 12.2482
490 2.75668
495 1.60887
500 1.43843
505 1.72238
510 1.8217
515 1.67442
520 1.6233
525 1.55213
530 1.75655
535 1.62235
540 1.77133
545 2.4267
550 2.99434
555 2.51627
560 1.74791
565 1.4988
570 1.35397
575 0.935525
580 0.850873
585 0.690416
590 0.612705
595 0.502003
600 0.388235
Ex : 483
200 0.295513
205 0.20777
210 0.254271
215 0.219962
220 0.20553
225 0.213563
230 0.27108
235 0.26132
240 0.256035
245 0.231754
250 0.206743
255 0.232896
260 0.226826
265 0.233998
270 0.199774
275 0.260584
280 0.280014
285 0.230031
290 0.226359
295 0.18619
300 0.241813
305 0.265358
310 0.238112
315 0.21214
320 0.254656
325 0.291078
330 0.257285
335 0.254955
340 0.237861
345 0.227131
350 0.226789
355 0.252072
360 0.280811
365 0.232198
370 0.201177
375 0.240412
380 0.202097
385 0.243585
390 0.23196
395 0.257784
400 0.239347
405 0.259439
410 0.279628
415 0.244596
420 0.276437
425 0.251949
430 0.251189
435 0.327909
440 0.28937
445 0.3235
450 0.348423
455 0.491352
460 0.562261
465 0.790159
470 16.4021
475 282.473
480 414.069
485 97.8047
490 12.5293
495 2.74785
500 1.54738
505 1.26045
510 1.61492
515 1.79822
520 1.7977
525 1.74085
530 1.60335
535 1.60365
540 1.5729
545 1.57687
550 1.8033
555 2.66409
560 2.59779
565 1.76604
570 1.29116
575 1.1401
580 0.943815
585 0.714556
590 0.572734
595 0.498026
600 0.127313
Ex : 488
200 0.229165
205 0.21553
210 0.201853
215 0.255535
220 0.272315
225 0.26786
230 0.276909
235 0.216194
240 0.232979
245 0.225477
250 0.199511
255 0.19852
260 0.300315
265 0.242001
270 0.266954
275 0.322293
280 0.211831
285 0.209821
290 0.233604
295 0.210992
300 0.21292
305 0.294755
310 0.297958
315 0.314462
320 0.362844
325 0.265716
330 0.254485
335 0.232272
340 0.255718
345 0.270044
350 0.230474
355 0.251728
360 0.247827
365 0.263351
370 0.24875
375 0.260569
380 0.272629
385 0.243346
390 0.281993
395 0.285708
400 0.21937
405 0.285263
410 0.254357
415 0.345507
420 0.286179
425 0.265031
430 0.292876
435 0.314642
440 0.275854
445 0.284262
450 0.40099
455 0.379612
460 0.507302
465 0.632506
470 0.820561
475 19.4817
480 302.468
485 410.949
490 95.405
495 12.1355
500 2.6104
505 1.5467
510 1.33118
515 1.63597
520 1.97105
525 1.84975
530 1.76273
535 1.65864
540 1.59467
545 1.44123
550 1.39193
555 1.49406
560 2.11599
565 2.78152
570 1.94248
575 1.21449
580 1.03454
585 0.90141
590 0.681387
595 0.591814
600 0.896375
Ex : 493
200 0.264102
205 0.238143
210 0.266258
215 0.241911
220 0.225886
225 0.230043
230 0.227647
235 0.212693
240 0.185951
245 0.180299
250 0.218236
255 0.206661
260 0.269562
265 0.247065
270 0.227294
275 0.240849
280 0.23008
285 0.206348
290 0.25082
295 0.229732
300 0.225812
305 0.261299
310 0.228663
315 0.265299
320 0.27893
325 0.312403
330 0.29525
335 0.272649
340 0.31565
345 0.287585
350 0.302122
355 0.223037
360 0.201228
365 0.235934
370 0.326555
375 0.253527
380 0.27989
385 0.258639
390 0.236695
395 0.231529
400 0.309622
405 0.255043
410 0.29215
415 0.250629
420 0.315938
425 0.304247
430 0.262818
435 0.253865
440 0.337411
445 0.37405
450 0.31359
455 0.437476
460 0.381713
465 0.486497
470 0.544791
475 0.821247
480 18.6847
485 310.512
490 457.491
495 102.251
500 12.8965
505 2.74088
510 1.64462
515 1.46443
520 1.63399
525 1.78262
530 1.78973
535 1.76495
540 1.62332
545 1.46261
550 1.34696
555 1.30138
560 1.22491
565 1.60331
570 2.20266
575 1.86537
580 1.23606
585 0.914083
590 0.699358
595 0.588201
600 0.45332
Ex : 498
200 0.310239
205 0.279813
210 0.290758
215 0.268385
220 0.348786
225 0.301778
230 0.292889
235 0.272291
240 0.265006
245 0.239816
250 0.297653
255 0.336432
260 0.343898
265 0.315162
270 0.246712
275 0.326053
280 0.289467
285 0.246707
290 0.227806
295 0.265775
300 0.227326
305 0.317375
310 0.29434
315 0.279509
320 0.333892
325 0.28257
330 0.232845
335 0.301173
340 0.286171
345 0.32598
350 0.312392
355 0.275089
360 0.238514
365 0.265706
370 0.325512
375 0.323813
380 0.316678
385 0.361846
390 0.290407
395 0.277468
400 0.312481
405 0.336507
410 0.288127
415 0.327527
420 0.247119
425 0.320428
430 0.342337
435 0.240628
440 0.358251
445 0.306307
450 0.461101
455 0.397364
460 0.376873
465 0.470492
470 0.511967
475 0.597606
480 0.909105
485 21.9624
490 316.326
495 423.176
500 96.0274
505 12.3053
510 2.76046
515 1.83501
520 1.67154
525 1.6903
530 1.93751
535 1.88792
540 1.69847
545 1.47328
550 1.45158
555 1.46626
560 1.25385
565 1.21409
570 1.44352
575 1.85858
580 1.93423
585 1.10537
590 0.768772
595 0.70825
600 0.336611
Ex : 503
200 0.217606
205 0.284139
210 0.284439
215 0.315332
220 0.3105
225 0.257913
230 0.237252
235 0.251715
240 0.277682
245 0.267571
250 0.288437
255 0.338532
260 0.273707
265 0.303709
270 0.256187
275 0.28274
280 0.269572
285 0.343578
290 0.263427
295 0.317689
300 0.254048
305 0.327967
310 0.317707
315 0.320079
320 0.249213
325 0.306315
330 0.281115
335 0.374875
340 0.231035
345 0.207698
350 0.288584
355 0.344483
360 0.284032
365 0.280979
370 0.28755
375 0.25084
380 0.302316
385 0.239382
390 0.268978
395 0.348579
400 0.295403
405 0.369918
410 0.277901
415 0.307109
420 0.290755
425 0.314117
430 0.286101
435 0.310533
440 0.335177
445 0.383132
450 0.381516
455 0.357075
460 0.446176
465 0.360749
470 0.396715
475 0.515956
480 0.613648
485 0.853327
490 19.5641
495 316.902
500 435.51
505 99.5992
510 12.8679
515 2.96846
520 1.80375
525 1.64892
530 1.66687
535 1.69901
540 1.66385
545 1.56935
550 1.42938
555 1.44506
560 1.12368
565 1.29341
570 1.206
575 1.04761
580 1.10873
585 1.6336
590 1.11047
595 0.727272
600 0.805937
Ex : 508
200 0.352618
205 0.325871
210 0.357234
215 0.300021
220 0.264404
225 0.355889
230 0.275333
235 0.264938
240 0.273149
245 0.353377
250 0.308235
255 0.312335
260 0.278475
265 0.315963
270 0.268648
275 0.326251
280 0.301566
285 0.25248
290 0.265772
295 0.175399
300 0.370082
305 0.318544
310 0.364612
315 0.297061
320 0.310307
325 0.331719
330 0.28087
335 0.383443
340 0.371661
345 0.358609
350 0.285915
355 0.309403
360 0.278975
365 0.313157
370 0.368836
375 0.285459
380 0.267414
385 0.331677
390 0.355876
395 0.294959
400 0.306629
405 0.292299
410 0.298122
415 0.274158
420 0.361599
425 0.320991
430 0.400015
435 0.340887
440 0.341515
445 0.392139
450 0.369402
455 0.282639
460 0.356796
465 0.432687
470 0.438359
475 0.485694
480 0.48138
485 0.621654
490 0.877589
495 21.8901
500 327.245
505 458.978
510 108.649
515 13.9263
520 3.08903
525 1.80105
530 1.63058
535 1.57601
540 1.69803
545 1.62594
550 1.54524
555 1.44509
560 1.18356
565 1.09662
570 1.07639
575 0.888097
580 0.828064
585 0.859456
590 1.09845
595 1.06906
600 0.894355
Ex : 513
200 0.313513
205 0.281241
210 0.346961
215 0.319866
220 0.249234
225 0.327505
230 0.278114
235 0.210426
240 0.256545
245 0.282288
250 0.320441
255 0.260435
260 0.255668
265 0.31304
270 0.296466
275 0.258354
280 0.303225
285 0.31973
290 0.284825
295 0.388885
300 0.327642
305 0.287165
310 0.337696
315 0.350763
320 0.288306
325 0.334986
330 0.298291
335 0.278841
340 0.324604
345 0.362932
350 0.291308
355 0.350134
360 0.348945
365 0.303294
370 0.301387
375 0.309854
380 0.284297
385 0.326431
390 0.291462
395 0.329319
400 0.29794
405 0.31733
410 0.409779
415 0.418577
420 0.322643
425 0.336617
430 0.366987
435 0.384024
440 0.335523
445 0.401281
450 0.437053
455 0.387438
460 0.378056
465 0.432685
470 0.452517
475 0.35209
480 0.514042
485 0.445242
490 0.569906
495 0.962788
500 20.1501
505 309.976
510 438.258
515 107.753
520 13.6561
525 2.90764
530 1.84859
535 1.44064
540 1.4466
545 1.44783
550 1.58766
555 1.39534
560 1.35229
565 1.06535
570 1.08899
575 0.952459
580 0.814853
585 0.883215
590 0.749296
595 1.06391
600 1.43247
Ex : 518
200 0.29875
205 0.260322
210 0.26163
215 0.219926
220 0.370359
225 0.347327
230 0.328965
235 0.32998
240 0.249495
245 0.292875
250 0.388452
255 0.399832
260 0.359402
265 0.373501
270 0.348049
275 0.279721
280 0.278441
285 0.355766
290 0.305342
295 0.262684
300 0.36255
305 0.380785
310 0.285164
315 0.237233
320 0.26482
325 0.282263
330 0.281143
335 0.266518
340 0.319349
345 0.344614
350 0.277228
355 0.332427
360 0.316205
365 0.337129
370 0.404113
375 0.270438
380 0.268906
385 0.323132
390 0.304737
395 0.289151
400 0.326875
405 0.394215
410 0.316362
415 0.296844
420 0.34972
425 0.302901
430 0.324117
435 0.367558
440 0.266973
445 0.285225
450 0.372396
455 0.321794
460 0.398881
465 0.438464
470 0.352308
475 0.406911
480 0.368018
485 0.423276
490 0.488564
495 0.789611
500 0.842183
505 20.6927
510 309.321
515 448.061
520 108.706
525 14.0155
530 2.8969
535 1.84212
540 1.41078
545 1.22734
550 1.36489
555 1.54302
560 1.31044
565 1.17235
570 1.00378
575 1.06005
580 0.83304
585 0.831876
590 0.664747
595 0.742036
600 1.03096
Ex : 523
200 0.305314
205 0.323005
210 0.336526
215 0.26124
220 0.400777
225 0.312301
230 0.378136
235 0.297595
240 0.279189
245 0.258938
250 0.308098
255 0.223081
260 0.29915
265 0.323208
270 0.357285
275 0.342718
280 0.271529
285 0.30047
290 0.313728
295 0.319672
300 0.362387
305 0.31208
310 0.298973
315 0.270487
320 0.351366
325 0.318827
330 0.319834
335 0.357491
340 0.301015
345 0.333327
350 0.378936
355 0.341476
360 0.318059
365 0.340323
370 0.325031
375 0.421888
380 0.416032
385 0.338746
390 0.351339
395 0.38995
400 0.378318
405 0.315991
410 0.391079
415 0.37978
420 0.402188
425 0.340676
430 0.379052
435 0.335501
440 0.255726
445 0.328875
450 0.4212
455 0.377929
460 0.32749
465 0.467624
470 0.402096
475 0.471876
480 0.422911
485 0.458675
490 0.459172
495 0.556485
500 0.604584
505 0.883702
510 19.4122
515 295.726
520 440.881
525 111.552
530 14.1554
535 2.83525
540 1.67799
545 1.47673
550 1.17965
555 1.01263
560 1.35587
565 1.15112
570 1.09252
575 0.902621
580 0.70798
585 0.718878
590 0.474707
595 0.630081
600 0.604366
Ex : 528
200 0.275903
205 0.319972
210 0.358463
215 0.313134
220 0.358241
225 0.255205
230 0.337783
235 0.302861
240 0.383417
245 0.381475
250 0.3723
255 0.300784
260 0.351975
265 0.30162
270 0.258704
275 0.296127
280 0.33515
285 0.292606
290 0.387402
295 0.419737
300 0.330568
305 0.354694
310 0.247624
315 0.26986
320 0.237415
325 0.317709
330 0.277857
335 0.352843
340 0.289002
345 0.278354
350 0.401397
355 0.394589
360 0.313973
365 0.370304
370 0.3671
375 0.350295
380 0.303258
385 0.370493
390 0.315694
395 0.32664
400 0.331633
405 0.312472
410 0.392424
415 0.395219
420 0.336693
425 0.318218
430 0.299723
435 0.343344
440 0.395818
445 0.428884
450 0.543472
455 0.339143
460 0.303098
465 0.402274
470 0.379475
475 0.451086
480 0.363066
485 0.423712
490 0.458033
495 0.456847
500 0.551735
505 0.624412
510 0.876192
515 16.9638
520 287.256
525 423.081
530 106.525
535 13.5429
540 2.7135
545 1.52322
550 1.27877
555 1.05214
560 1.06638
565 1.22047
570 0.961426
575 0.975384
580 0.736669
585 0.66805
590 0.561239
595 0.533763
600 0.31534
Ex : 533
200 0.30655
205 0.361004
210 0.349791
215 0.356724
220 0.362927
225 0.380422
230 0.309238
235 0.311033
240 0.327224
245 0.301473
250 0.284895
255 0.392018
260 0.328586
265 0.303751
270 0.397441
275 0.301131
280 0.314937
285 0.329458
290 0.403318
295 0.328771
300 0.277072
305 0.29098
310 0.315667
315 0.297575
320 0.314869
325 0.395004
330 0.335436
335 0.335282
340 0.332865
345 0.343755
350 0.365621
355 0.309531
360 0.349557
365 0.38086
370 0.429026
375 0.302926
380 0.366175
385 0.302189
390 0.373624
395 0.341864
400 0.3695
405 0.397259
410 0.344634
415 0.365535
420 0.362935
425 0.418848
430 0.385148
435 0.336257
440 0.282248
445 0.264359
450 0.299987
455 0.35363
460 0.400578
465 0.395118
470 0.392752
475 0.327798
480 0.438648
485 0.487715
490 0.445338
495 0.493901
500 0.533531
505 0.482182
510 0.586641
515 0.845649
520 17.5023
525 283.97
530 436.462
535 111.512
540 14.0324
545 2.58772
550 1.21657
555 1.0639
560 1.07357
565 0.892859
570 1.00454
575 0.992374
580 0.814699
585 0.74181
590 0.539909
595 0.565255
600 0.479574
Ex : 538
200 0.431039
205 0.395377
210 0.36602
215 0.367764
220 0.293439
225 0.354283
230 0.244271
235 0.423008
240 0.381452
245 0.36108
250 0.370233
255 0.367323
260 0.343969
265 0.33252
270 0.24541
275 0.323996
280 0.355818
285 0.325113
290 0.277015
295 0.298332
300 0.435436
305 0.415
310 0.332658
315 0.348071
320 0.3846
325 0.276944
330 0.374115
335 0.430428
340 0.368422
345 0.36247
350 0.395178
355 0.369522
360 0.517473
365 0.315442
370 0.404438
375 0.43012
380 0.400344
385 0.321754
390 0.28858
395 0.395804
400 0.428207
405 0.365722
410 0.362029
415 0.372601
420 0.326162
425 0.508939
430 0.406701
435 0.442691
440 0.527022
445 0.403305
450 0.397415
455 0.339199
460 0.379167
465 0.468812
470 0.368377
475 0.509457
480 0.32086
485 0.405176
490 0.531487
495 0.524701
500 0.408519
505 0.52994
510 0.561006
515 0.76426
520 0.865931
525 15.3982
530 265.729
535 418.457
540 112.831
545 14.1011
550 2.56412
555 1.18577
560 0.911177
565 0.816243
570 0.849139
575 0.892137
580 0.867394
585 0.901441
590 0.766046
595 0.734169
600 0.890624
Ex : 543
200 0.46219
205 0.339384
210 0.3985
215 0.524664
220 0.328122
225 0.332697
230 0.317488
235 0.327623
240 0.292603
245 0.34228
250 0.344178
255 0.436612
260 0.415409
265 0.387872
270 0.415224
275 0.372937
280 0.343131
285 0.440664
290 0.401738
295 0.399811
300 0.351558
305 0.315349
310 0.354115
315 0.359778
320 0.309378
325 0.41556
330 0.40063
335 0.420101
340 0.402571
345 0.34977
350 0.370838
355 0.45534
360 0.416146
365 0.335121
370 0.364312
375 0.36749
380 0.428582
385 0.446532
390 0.346775
395 0.480823
400 0.336813
405 0.3155
410 0.344153
415 0.360623
420 0.470907
425 0.405487
430 0.481384
435 0.318925
440 0.44532
445 0.369941
450 0.369544
455 0.36398
460 0.399609
465 0.36524
470 0.353748
475 0.327823
480 0.479057
485 0.420869
490 0.41792
495 0.479679
500 0.489164
505 0.443557
510 0.450143
515 0.6586
520 0.740917
525 0.779671
530 14.425
535 261.508
540 425.636
545 115.222
550 14.5234
555 2.55921
560 1.12621
565 0.86552
570 0.802813
575 0.914895
580 0.760991
585 0.780446
590 0.704489
595 0.663417
600 0.561826
Ex : 548
200 0.288556
205 0.384758
210 0.342056
215 0.330641
220 0.351453
225 0.363333
230 0.41651
235 0.356248
240 0.287495
245 0.377143
250 0.37298
255 0.397058
260 0.420336
265 0.399456
270 0.302087
275 0.463309
280 0.326099
285 0.339002
290 0.349214
295 0.469301
300 0.345718
305 0.327879
310 0.325348
315 0.382296
320 0.27286
325 0.334184
330 0.304463
335 0.36684
340 0.4689
345 0.39972
350 0.369475
355 0.389233
360 0.366259
365 0.370619
370 0.430691
375 0.313385
380 0.319984
385 0.350208
390 0.413856
395 0.369267
400 0.544194
405 0.422624
410 0.404407
415 0.381574
420 0.469379
425 0.341847
430 0.343721
435 0.355026
440 0.300499
445 0.351964
450 0.436181
455 0.418161
460 0.412313
465 0.397007
470 0.47123
475 0.44699
480 0.392151
485 0.352002
490 0.40842
495 0.438344
500 0.436444
505 0.390738
510 0.56284
515 0.529416
520 0.518471
525 0.730081
530 0.860922
535 14.8913
540 258.534
545 405.166
550 110.448
555 13.7998
560 2.44597
565 1.13941
570 0.937384
575 0.684261
580 0.702437
585 0.684802
590 0.670188
595 0.617247
600 1.01775
Ex : 553
200 0.361145
205 0.330807
210 0.402335
215 0.389773
220 0.329645
225 0.336736
230 0.323131
235 0.417333
240 0.436088
245 0.351014
250 0.378014
255 0.419177
260 0.340002
265 0.387274
270 0.423266
275 0.350234
280 0.433602
285 0.393263
290 0.293655
295 0.308281
300 0.387264
305 0.34148
310 0.451273
315 0.361171
320 0.396349
325 0.460537
330 0.473572
335 0.319137
340 0.421473
345 0.490514
350 0.438927
355 0.436081
360 0.391754
365 0.345384
370 0.371098
375 0.509441
380 0.372878
385 0.387971
390 0.397888
395 0.403033
400 0.352119
405 0.30892
410 0.438608
415 0.43798
420 0.475136
425 0.400212
430 0.389706
435 0.402452
440 0.448941
445 0.385748
450 0.404245
455 0.424766
460 0.372839
465 0.340564
470 0.4028
475 0.378507
480 0.381871
485 0.400566
490 0.388837
495 0.384265
500 0.360504
505 0.385284
510 0.464289
515 0.505209
520 0.454372
525 0.664714
530 0.875149
535 0.925207
540 13.8175
545 242.928
550 399.688
555 112.041
560 14.1924
565 2.49467
570 1.16436
575 0.978017
580 0.853073
585 0.728234
590 0.695922
595 0.593671
600 0.291259
Ex : 558
200 0.401584
205 0.348184
210 0.358926
215 0.309421
220 0.334305
225 0.437075
230 0.377568
235 0.38931
240 0.365776
245 0.341122
250 0.354208
255 0.317975
260 0.362948
265 0.412689
270 0.490845
275 0.397228
280 0.40139
285 0.36234
290 0.335501
295 0.413437
300 0.342543
305 0.312542
310 0.430594
315 0.327449
320 0.437252
325 0.287336
330 0.400583
335 0.461898
340 0.523705
345 0.416735
350 0.386675
355 0.384216
360 0.309668
365 0.376672
370 0.339439
375 0.411765
380 0.360485
385 0.379076
390 0.423991
395 0.483366
400 0.489119
405 0.375843
410 0.40878
415 0.505984
420 0.372362
425 0.419433
430 0.430961
435 0.446782
440 0.477376
445 0.488732
450 0.393048
455 0.396971
460 0.34766
465 0.427603
470 0.435359
475 0.407601
480 0.432073
485 0.470753
490 0.415444
495 0.515515
500 0.353451
505 0.387752
510 0.390999
515 0.371206
520 0.545523
525 0.606117
530 0.609618
535 0.625655
540 0.890091
545 12.7818
550 235.077
555 399.929
560 113.723
565 14.221
570 2.40907
575 1.12489
580 0.792838
585 0.765729
590 0.698429
595 0.499475
600 0.28422
Ex : 563
200 0.31695
205 0.375288
210 0.356136
215 0.466763
220 0.432938
225 0.434871
230 0.359034
235 0.450522
240 0.470979
245 0.414202
250 0.357978
255 0.373793
260 0.332099
265 0.311738
270 0.538906
275 0.497755
280 0.497249
285 0.423702
290 0.475725
295 0.444666
300 0.458566
305 0.364393
310 0.43527
315 0.347313
320 0.404121
325 0.319878
330 0.429092
335 0.460945
340 0.481257
345 0.491827
350 0.357546
355 0.368409
360 0.436703
365 0.525703
370 0.420723
375 0.449171
380 0.370602
385 0.383213
390 0.415738
395 0.393895
400 0.396355
405 0.336031
410 0.329968
415 0.362031
420 0.425989
425 0.486149
430 0.427131
435 0.484508
440 0.373975
445 0.47462
450 0.472887
455 0.385189
460 0.42096
465 0.488087
470 0.408915
475 0.384253
480 0.543726
485 0.400113
490 0.533904
495 0.434323
500 0.523163
505 0.468192
510 0.382669
515 0.466271
520 0.519406
525 0.555738
530 0.587484
535 0.559026
540 0.663372
545 0.721139
550 11.7207
555 224.569
560 385.898
565 110.925
570 13.7563
575 2.32767
580 1.04921
585 0.833048
590 0.74142
595 0.591272
600 0.710693
Ex : 568
200 0.461837
205 0.428333
210 0.328454
215 0.385717
220 0.339496
225 0.437884
230 0.388556
235 0.432412
240 0.468181
245 0.432003
250 0.541865
255 0.41253
260 0.412242
265 0.316619
270 0.272351
275 0.340224
280 0.331752
285 0.48289
290 0.328218
295 0.322689
300 0.481185
305 0.463496
310 0.429215
315 0.386056
320 0.385163
325 0.308481
330 0.474256
335 0.354032
340 0.389645
345 0.336222
350 0.448496
355 0.325553
360 0.394421
365 0.373804
370 0.451856
375 0.49173
380 0.393781
385 0.435849
390 0.492474
395 0.487245
400 0.449115
405 0.364221
410 0.497572
415 0.547058
420 0.492837
425 0.390664
430 0.507032
435 0.443648
440 0.405421
445 0.399623
450 0.530431
455 0.501508
460 0.386442
465 0.518248
470 0.445764
475 0.590279
480 0.455488
485 0.457294
490 0.505679
495 0.499519
500 0.500321
505 0.483898
510 0.520487
515 0.415455
520 0.542211
525 0.371858
530 0.445619
535 0.527007
540 0.614618
545 0.700274
550 0.851524
555 9.43342
560 204.898
565 374.286
570 113.672
575 13.971
580 2.18185
585 0.946343
590 0.894776
595 0.552329
600 0.6348
Ex : 573
200 0.483328
205 0.372843
210 0.54721
215 0.351627
220 0.413975
225 0.480677
230 0.294306
235 0.432267
240 0.358021
245 0.369997
250 0.440276
255 0.300803
260 0.514745
265 0.525326
270 0.530137
275 0.392053
280 0.342549
285 0.431783
290 0.448884
295 0.326057
300 0.44511
305 0.450923
310 0.41812
315 0.389417
320 0.414172
325 0.427374
330 0.313765
335 0.421658
340 0.472903
345 0.533359
350 0.507525
355 0.421922
360 0.4511
365 0.418171
370 0.464194
375 0.456476
380 0.472159
385 0.387011
390 0.460813
395 0.559349
400 0.378785
405 0.345604
410 0.398822
415 0.381793
420 0.492136
425 0.551089
430 0.448819
435 0.482045
440 0.471974
445 0.450419
450 0.436501
455 0.48604
460 0.372099
465 0.472431
470 0.427609
475 0.468587
480 0.457059
485 0.413052
490 0.541989
495 0.548615
500 0.371402
505 0.431612
510 0.449527
515 0.477949
520 0.57585
525 0.51637
530 0.387007
535 0.554471
540 0.514255
545 0.590991
550 0.65207
555 0.822315
560 8.07421
565 180.467
570 348.558
575 108.473
580 13.5886
585 2.16875
590 0.731433
595 0.630445
600 0.46347
Ex : 578
200 0.399929
205 0.392596
210 0.42839
215 0.57843
220 0.470835
225 0.436054
230 0.34219
235 0.484598
240 0.480145
245 0.442815
250 0.418113
255 0.451059
260 0.581421
265 0.534033
270 0.331622
275 0.439306
280 0.470389
285 0.431499
290 0.498121
295 0.456361
300 0.487339
305 0.346648
310 0.433316
315 0.459443
320 0.416445
325 0.398192
330 0.442654
335 0.448384
340 0.454631
345 0.393261
350 0.413883
355 0.527765
360 0.453535
365 0.424389
370 0.44894
375 0.378444
380 0.450085
385 0.387137
390 0.423559
395 0.42053
400 0.428898
405 0.48459
410 0.45534
415 0.429354
420 0.449516
425 0.430909
430 0.565908
435 0.41251
440 0.415285
445 0.479812
450 0.457508
455 0.445895
460 0.416318
465 0.556766
470 0.442953
475 0.391685
480 0.33693
485 0.484322
490 0.394532
495 0.387761
500 0.468478
505 0.478836
510 0.546736
515 0.483879
520 0.514964
525 0.429998
530 0.465368
535 0.478924
540 0.473791
545 0.42842
550 0.580862
555 0.655833
560 0.87257
565 7.3837
570 162.474
575 305.382
580 92.1751
585 11.649
590 1.8267
595 0.879398
600 0.583456
Ex : 583
200 0.432288
205 0.460662
210 0.35481
215 0.390324
220 0.382867
225 0.491118
230 0.361469
235 0.356632
240 0.463758
245 0.498773
250 0.464654
255 0.409037
260 0.595267
265 0.391287
270 0.448429
275 0.546242
280 0.515201
285 0.435981
290 0.453565
295 0.326922
300 0.432853
305 0.435789
310 0.441461
315 0.473995
320 0.508864
325 0.54604
330 0.457002
335 0.428917
340 0.520218
345 0.496533
350 0.426363
355 0.426104
360 0.371045
365 0.458863
370 0.455981
375 0.430766
380 0.592134
385 0.435114
390 0.475083
395 0.434713
400 0.475051
405 0.413661
410 0.468172
415 0.361406
420 0.40316
425 0.524961
430 0.45933
435 0.288503
440 0.421912
445 0.405562
450 0.498755
455 0.561795
460 0.516365
465 0.481654
470 0.381255
475 0.463951
480 0.381331
485 0.41688
490 0.634514
495 0.448784
500 0.490868
505 0.406383
510 0.504348
515 0.352849
520 0.474512
525 0.510426
530 0.513694
535 0.532055
540 0.539477
545 0.544071
550 0.569775
555 0.593745
560 0.532403
565 0.818003
570 6.21401
575 147.063
580 265.616
585 76.9827
590 9.78027
595 1.7398
600 0.376597
Ex : 588
200 0.323563
205 0.409941
210 0.536955
215 0.380205
220 0.447413
225 0.364313
230 0.364259
235 0.33476
240 0.488892
245 0.588447
250 0.507773
255 0.483649
260 0.418055
265 0.418494
270 0.387437
275 0.408616
280 0.597635
285 0.383603
290 0.399293
295 0.452673
300 0.374447
305 0.482383
310 0.472071
315 0.410167
320 0.43698
325 0.35977
330 0.481893
335 0.463171
340 0.486964
345 0.345321
350 0.457601
355 0.492773
360 0.495765
365 0.429456
370 0.338028
375 0.554683
380 0.601479
385 0.58046
390 0.498097
395 0.384306
400 0.417576
405 0.608588
410 0.535194
415 0.459601
420 0.40641
425 0.436579
430 0.489002
435 0.554667
440 0.439038
445 0.427993
450 0.438613
455 0.496341
460 0.471783
465 0.575814
470 0.559467
475 0.549151
480 0.545424
485 0.430159
490 0.407059
495 0.400872
500 0.461319
505 0.420769
510 0.44687
515 0.354664
520 0.472309
525 0.471996
530 0.605027
535 0.490316
540 0.502293
545 0.520015
550 0.606124
555 0.476002
560 0.557102
565 0.666294
570 0.767977
575 5.8185
580 121.929
585 231.082
590 68.273
595 8.60111
600 1.78882
Ex : 593
200 0.513364
205 0.453194
210 0.521386
215 0.387806
220 0.449288
225 0.501857
230 0.424067
235 0.436428
240 0.454455
245 0.439474
250 0.557175
255 0.453228
260 0.454961
265 0.52844
270 0.41547
275 0.406416
280 0.419293
285 0.464594
290 0.527956
295 0.493757
300 0.41195
305 0.512131
310 0.394131
315 0.396151
320 0.553289
325 0.403166
330 0.422857
335 0.365829
340 0.504942
345 0.40755
350 0.530926
355 0.49545
360 0.50037
365 0.622859
370 0.413276
375 0.365664
380 0.332152
385 0.442388
390 0.479952
395 0.543348
400 0.480608
405 0.384516
410 0.563469
415 0.543409
420 0.578598
425 0.471804
430 0.518353
435 0.479588
440 0.390237
445 0.496839
450 0.53562
455 0.509649
460 0.48577
465 0.441737
470 0.547914
475 0.476031
480 0.544665
485 0.518591
490 0.486297
495 0.458094
500 0.487039
505 0.423621
510 0.525284
515 0.448767
520 0.421374
525 0.467938
530 0.535425
535 0.453711
540 0.439057
545 0.425869
550 0.459155
555 0.509991
560 0.461324
565 0.440012
570 0.573867
575 0.643178
580 4.87166
585 107.209
590 198.522
595 59.8298
600 9.68298
Ex : 598
200 0.568101
205 0.47035
210 0.428074
215 0.370952
220 0.501816
225 0.442981
230 0.575993
235 0.418536
240 0.472497
245 0.394271
250 0.40782
255 0.429763
260 0.549348
265 0.452839
270 0.514931
275 0.408395
280 0.432792
285 0.41557
290 0.515696
295 0.542306
300 0.541174
305 0.52677
310 0.567957
315 0.589294
320 0.543324
325 0.690292
330 0.610802
335 0.415014
340 0.493509
345 0.573906
350 0.552543
355 0.412045
360 0.435013
365 0.508032
370 0.403028
375 0.497096
380 0.518074
385 0.567169
390 0.54435
395 0.422485
400 0.678599
405 0.433894
410 0.474821
415 0.385183
420 0.439509
425 0.656039
430 0.417047
435 0.482055
440 0.491482
445 0.501454
450 0.446425
455 0.53383
460 0.476652
465 0.562866
470 0.419018
475 0.403849
480 0.658447
485 0.469148
490 0.499016
495 0.429865
500 0.419142
505 0.472594
510 0.46294
515 0.488607
520 0.446183
525 0.413278
530 0.421723
535 0.472078
540 0.63324
545 0.526219
550 0.550126
555 0.488918
560 0.656288
565 0.546829
570 0.603577
575 0.708866
580 0.847153
585 4.62454
590 96.2643
595 176.523
600 103.11
Ex : 603
200 0.439024
205 0.487514
210 0.444723
215 0.512273
220 0.494171
225 0.459993
230 0.381935
235 0.442245
240 0.484858
245 0.457216
250 0.542648
255 0.528628
260 0.47286
265 0.396082
270 0.370248
275 0.410182
280 0.50102
285 0.453874
290 0.593142
295 0.537261
300 0.426149
305 0.38604
310 0.490642
315 0.507222
320 0.413914
325 0.459357
330 0.451741
335 0.373272
340 0.429946
345 0.56777
350 0.545703
355 0.54776
360 0.553998
365 0.424219
370 0.510523
375 0.425723
380 0.480512
385 0.532631
390 0.555214
395 0.656273
400 0.596277
405 0.463913
410 0.464195
415 0.558273
420 0.572621
425 0.708857
430 0.507611
435 0.377647
440 0.485487
445 0.540413
450 0.545094
455 0.501588
460 0.479099
465 0.56528
470 0.419938
475 0.614425
480 0.47499
485 0.48324
490 0.327174
495 0.63942
500 0.709552
505 0.474504
510 0.389571
515 0.439546
520 0.382078
525 0.512715
530 0.517244
535 0.497976
540 0.543885
545 0.451379
550 0.442635
555 0.480445
560 0.498655
565 0.613185
570 0.614505
575 0.710084
580 0.666874
585 0.749621
590 4.32878
595 84.4774
600 168.92
