File format V 1.0
ven. 9. déc. 16:31:19 2016
Operator : 
Comments : 

=============================================
SpectroFluorometer parameters
Mode : 3D measurement
Data : Fluorescence
Phospho. : Ordinary
Spectrum : Fluorescence

Scan speed : 2400 nm/mn
Response : 100 ms
PM Voltage : 700 V
Shutter : On

Lambda Ex. Start : 203
Lambda Ex. End : 603
Lambda Ex. Step : 5
Ex. Slit : 5 nm

Lambda Em. Start : 200
Lambda Em. End : 600
Lambda Em. Step : 5
Em. Slit : 5 nm

Repetition : 1
Decal lambda em : 10
=============================================
DATA
Ex : 203
200 8.55414
205 10.2383
210 10.0271
215 9.33351
220 12.1521
225 7.3249
230 11.2576
235 8.44612
240 12.3454
245 9.76917
250 10.4781
255 11.5922
260 12.1024
265 14.8368
270 9.57887
275 10.4852
280 8.31802
285 9.56279
290 7.88244
295 9.00812
300 9.5853
305 13.8708
310 14.2874
315 12.4662
320 8.91969
325 10.7042
330 9.804
335 12.4833
340 12.7012
345 7.2746
350 10.7495
355 11.5373
360 12.6708
365 11.7231
370 8.32735
375 10.1094
380 8.7218
385 7.53956
390 8.571
395 9.74268
400 10.8633
405 8.60533
410 12.6885
415 13.4554
420 9.71513
425 13.5822
430 10.341
435 10.5351
440 13.514
445 12.819
450 8.48703
455 13.6468
460 12.4982
465 12.9231
470 8.53561
475 10.3543
480 10.3314
485 10.2723
490 15.5958
495 12.5648
500 8.42617
505 8.10802
510 9.52072
515 12.5413
520 11.9872
525 7.60605
530 12.5528
535 8.9355
540 15.6921
545 9.97005
550 10.2688
555 15.4149
560 10.792
565 10.6432
570 10.4692
575 11.3629
580 12.612
585 11.9312
590 9.44134
595 11.0972
600 1.26282
Ex : 208
200 12.7464
205 12.8525
210 11.5325
215 8.74766
220 7.77268
225 10.1864
230 9.16014
235 14.2454
240 9.08589
245 11.2693
250 10.4775
255 10.0197
260 13.2496
265 8.39061
270 11.5191
275 9.40957
280 12.2172
285 14.3338
290 11.4104
295 10.8598
300 8.54387
305 13.591
310 9.15369
315 11.7746
320 10.5958
325 8.54948
330 13.6633
335 8.37278
340 9.93864
345 11.0719
350 9.04107
355 9.19646
360 10.0352
365 10.3597
370 11.5795
375 12.8139
380 12.9657
385 10.8599
390 10.6517
395 12.2447
400 12.7459
405 13.2686
410 9.41989
415 10.3463
420 12.8034
425 9.7076
430 9.92111
435 9.77454
440 12.7987
445 9.07913
450 9.34936
455 9.58605
460 9.83876
465 12.2821
470 13.5367
475 13.4913
480 8.27276
485 10.7074
490 12.6791
495 12.1672
500 11.9333
505 7.81641
510 11.4058
515 12.5253
520 9.1016
525 8.5747
530 15.1927
535 10.2859
540 7.84931
545 12.4883
550 10.9584
555 13.2434
560 10.5039
565 10.6863
570 13.9657
575 11.4692
580 10.4754
585 15.0422
590 12.326
595 9.2446
600 3.41521
Ex : 213
200 10.7482
205 11.2039
210 10.4214
215 14.6971
220 12.2436
225 10.2553
230 7.96975
235 7.24033
240 7.48311
245 10.3536
250 11.1688
255 11.4145
260 10.7643
265 10.087
270 11.9964
275 11.788
280 10.9385
285 9.82514
290 12.7131
295 13.6438
300 13.3825
305 10.2089
310 11.3364
315 8.31939
320 13.0689
325 9.81382
330 12.4516
335 10.772
340 9.13789
345 8.36757
350 12.319
355 8.09126
360 10.8762
365 9.76086
370 10.4994
375 10.5252
380 13.5046
385 9.45644
390 16.4349
395 11.5791
400 13.9494
405 11.6847
410 12.4072
415 11.8883
420 14.8809
425 10.6007
430 13.441
435 12.2089
440 9.87072
445 7.64054
450 10.0247
455 9.67938
460 10.4989
465 13.6627
470 12.5215
475 13.7512
480 10.5687
485 15.4382
490 10.3167
495 9.94109
500 8.52455
505 9.20729
510 10.1712
515 10.8858
520 10.8437
525 9.0601
530 10.1098
535 8.65956
540 6.34063
545 9.52969
550 17.049
555 9.44496
560 11.7501
565 11.8942
570 9.39649
575 11.5106
580 8.41862
585 10.8462
590 7.74117
595 9.59525
600 1.0919
Ex : 218
200 12.7671
205 12.0145
210 13.2831
215 8.79884
220 10.1224
225 7.70645
230 9.1397
235 9.00978
240 10.7207
245 13.5525
250 11.0234
255 12.8286
260 8.59347
265 11.6557
270 11.1766
275 7.74172
280 14.1866
285 13.4325
290 12.157
295 7.39694
300 8.81758
305 14.4112
310 12.9807
315 6.30696
320 8.53296
325 9.96149
330 11.7249
335 7.86835
340 14.0703
345 10.6432
350 9.97674
355 9.88739
360 14.6647
365 12.573
370 11.3074
375 11.711
380 12.148
385 14.468
390 12.1332
395 9.49064
400 9.94204
405 9.7117
410 11.4023
415 11.5087
420 10.8529
425 12.7683
430 11.6684
435 10.6055
440 9.18872
445 13.0648
450 11.248
455 12.0778
460 10.3459
465 9.50884
470 8.89789
475 13.5317
480 10.5614
485 8.25531
490 11.998
495 12.2637
500 9.26063
505 11.7867
510 12.153
515 8.13033
520 7.25619
525 11.4602
530 10.5876
535 13.4184
540 10.1991
545 8.19233
550 9.57714
555 9.21537
560 13.5207
565 9.42706
570 10.9816
575 10.1928
580 11.1401
585 9.58054
590 8.27347
595 8.78469
600 0.999665
Ex : 223
200 10.9752
205 12.3794
210 9.06764
215 8.57043
220 9.21348
225 8.64281
230 7.63934
235 10.1774
240 9.06153
245 6.97564
250 9.97107
255 13.2917
260 11.0991
265 11.8975
270 11.1637
275 11.1863
280 10.3849
285 7.33407
290 7.28451
295 6.77663
300 13.235
305 9.13439
310 9.9015
315 8.19464
320 10.2002
325 7.63363
330 9.48283
335 8.12625
340 10.5694
345 8.56706
350 9.4199
355 11.3608
360 12.7317
365 10.9162
370 9.20057
375 7.05476
380 9.8016
385 8.89656
390 9.81332
395 10.3577
400 9.30026
405 9.1616
410 11.1108
415 10.3751
420 8.53128
425 10.0572
430 7.75979
435 12.37
440 13.2939
445 8.53872
450 10.6485
455 9.95775
460 11.7008
465 8.72463
470 11.0128
475 11.3009
480 8.90735
485 9.42058
490 12.1136
495 9.70269
500 12.0907
505 12.7699
510 9.30576
515 14.8191
520 10.2936
525 11.4208
530 8.4502
535 11.6391
540 12.2959
545 11.2171
550 10.3509
555 9.10845
560 11.3042
565 8.65295
570 8.40456
575 9.22975
580 9.15077
585 9.43564
590 8.49494
595 11.0656
600 1.25922
Ex : 228
200 8.19876
205 9.19505
210 7.79016
215 10.6631
220 10.6544
225 7.78019
230 7.33495
235 10.9668
240 11.6695
245 6.86016
250 10.8958
255 11.5808
260 11.586
265 8.6108
270 9.73318
275 7.51375
280 7.26971
285 5.90673
290 7.25852
295 8.06974
300 7.82194
305 10.0649
310 9.84369
315 10.3485
320 8.81347
325 8.68337
330 7.03631
335 12.9731
340 11.6704
345 10.2787
350 9.68798
355 10.0195
360 7.34915
365 9.87677
370 8.50897
375 8.8578
380 8.49838
385 10.196
390 8.4848
395 10.029
400 9.22657
405 9.5947
410 6.04384
415 9.06642
420 6.72949
425 9.47924
430 7.63661
435 11.1438
440 7.94914
445 10.6963
450 9.72832
455 10.3481
460 10.288
465 8.38696
470 9.15582
475 12.9105
480 11.24
485 9.698
490 10.8752
495 9.04864
500 8.69417
505 6.7713
510 8.16613
515 8.96459
520 9.24503
525 12.148
530 9.92116
535 9.43985
540 10.3794
545 9.81608
550 11.7034
555 9.99054
560 9.99892
565 8.66542
570 9.30567
575 9.64872
580 8.8719
585 8.20796
590 12.4835
595 9.04516
600 23.4798
Ex : 233
200 7.94886
205 6.75255
210 9.4395
215 8.36244
220 10.079
225 8.69895
230 7.51365
235 6.76305
240 9.01325
245 6.66115
250 6.47546
255 7.31448
260 9.30638
265 7.86488
270 6.75646
275 6.13192
280 10.0915
285 7.29968
290 7.12888
295 8.90523
300 10.7825
305 7.38685
310 6.98104
315 8.66628
320 6.3082
325 7.69062
330 7.86254
335 8.63197
340 4.59182
345 8.47305
350 8.78546
355 9.27448
360 7.01362
365 7.31124
370 8.23608
375 6.12852
380 6.94325
385 8.07938
390 8.49368
395 6.57253
400 7.45704
405 7.95835
410 7.87741
415 6.51075
420 8.0937
425 8.78267
430 9.39584
435 8.96994
440 9.58246
445 7.55314
450 9.23557
455 8.9652
460 8.4503
465 8.14653
470 10.777
475 7.65974
480 7.19699
485 7.4051
490 8.86539
495 10.3422
500 7.79853
505 9.12117
510 6.26609
515 8.33637
520 6.81541
525 9.17436
530 8.80311
535 9.36146
540 8.61498
545 8.57918
550 6.86664
555 6.51156
560 8.04979
565 7.62287
570 6.01119
575 6.60279
580 8.51927
585 7.23037
590 8.44027
595 11.809
600 7.54725
Ex : 238
200 6.98649
205 6.71747
210 5.61764
215 5.74725
220 7.44267
225 6.22215
230 6.37061
235 5.41635
240 7.27787
245 9.59129
250 7.06798
255 4.1051
260 8.1648
265 8.40723
270 10.2579
275 7.55688
280 5.39778
285 5.74991
290 6.66545
295 5.53536
300 6.80365
305 5.12311
310 6.84402
315 3.96834
320 8.41929
325 7.82716
330 7.21148
335 7.58726
340 5.77065
345 7.62083
350 6.37999
355 8.89468
360 8.35881
365 7.58937
370 8.72212
375 6.49699
380 8.1867
385 6.86268
390 4.70789
395 10.7185
400 6.85731
405 7.91108
410 6.06496
415 6.39985
420 6.31662
425 9.08158
430 8.77296
435 8.12238
440 5.27551
445 7.82946
450 8.44057
455 7.20906
460 8.1423
465 6.62964
470 7.21979
475 7.5516
480 7.35956
485 6.32783
490 8.00021
495 8.52083
500 6.51398
505 8.2761
510 7.45328
515 9.86413
520 7.56171
525 7.2865
530 7.00692
535 5.57737
540 7.31286
545 6.25002
550 7.4362
555 8.60799
560 10.1593
565 9.1278
570 5.68617
575 8.12086
580 8.05192
585 5.83187
590 7.51008
595 7.23361
600 22.9783
Ex : 243
200 6.13253
205 7.08543
210 7.41081
215 5.82733
220 6.0964
225 4.17154
230 5.78099
235 5.76308
240 5.97304
245 7.65167
250 7.04437
255 5.89916
260 6.24896
265 6.10368
270 5.05956
275 5.95253
280 5.91986
285 5.72321
290 6.23217
295 5.8963
300 6.78397
305 5.88391
310 4.5978
315 6.22839
320 5.5973
325 7.63451
330 8.46023
335 6.1815
340 7.40603
345 4.26099
350 3.76237
355 5.71308
360 6.67993
365 6.23182
370 7.41951
375 7.38886
380 4.2518
385 4.69688
390 6.10601
395 5.96523
400 6.22738
405 8.90045
410 6.63294
415 5.09254
420 5.29186
425 6.1472
430 7.8066
435 5.67598
440 8.17497
445 6.57983
450 6.57087
455 6.89556
460 8.22259
465 8.36223
470 6.3621
475 6.17396
480 4.48813
485 6.35537
490 5.87497
495 5.30683
500 4.93804
505 5.15733
510 7.07734
515 7.54871
520 7.37678
525 7.44831
530 5.20685
535 6.27869
540 5.42614
545 7.29475
550 6.17266
555 5.75814
560 8.22597
565 6.57263
570 5.80408
575 6.88913
580 7.00462
585 6.30698
590 7.3552
595 7.78768
600 0.886209
Ex : 248
200 5.29139
205 6.58172
210 5.49866
215 3.74578
220 5.45005
225 6.05799
230 4.83282
235 4.76377
240 5.66442
245 4.3262
250 4.44278
255 5.53035
260 4.82092
265 3.80584
270 4.45014
275 4.75317
280 5.07705
285 3.95361
290 5.11158
295 4.23579
300 4.15218
305 3.61533
310 6.29557
315 4.85005
320 5.95251
325 4.88077
330 4.6484
335 4.63852
340 4.96481
345 5.02806
350 4.66685
355 4.40633
360 6.30067
365 6.30153
370 4.59965
375 7.6507
380 4.48596
385 5.46368
390 6.38661
395 5.79411
400 5.50999
405 4.40815
410 3.31714
415 4.14618
420 4.72316
425 4.68813
430 5.91579
435 5.94489
440 7.83313
445 5.40981
450 7.90479
455 5.32181
460 3.92055
465 8.82288
470 5.5916
475 4.61088
480 5.97424
485 4.19105
490 6.09868
495 7.72076
500 6.20187
505 4.80444
510 5.76954
515 4.89613
520 6.95474
525 5.05236
530 5.74592
535 5.88552
540 6.6158
545 3.98968
550 5.1254
555 5.8853
560 5.18996
565 5.3767
570 3.8682
575 3.89818
580 5.36994
585 3.96469
590 4.9086
595 4.58104
600 0.521305
Ex : 253
200 4.8
205 3.71335
210 3.54619
215 4.60084
220 5.01629
225 3.35977
230 3.36455
235 3.46279
240 3.00932
245 3.75687
250 4.44497
255 4.66702
260 4.39771
265 4.32398
270 3.36514
275 3.30645
280 3.50559
285 3.7559
290 3.55767
295 4.96318
300 3.75033
305 2.96465
310 3.84576
315 2.97529
320 3.18427
325 3.57366
330 3.20987
335 4.02262
340 3.64422
345 3.54319
350 4.38511
355 3.91995
360 4.80127
365 4.59304
370 4.62883
375 5.89523
380 5.01782
385 4.40491
390 5.56151
395 4.70652
400 3.95935
405 3.83469
410 5.29198
415 5.04084
420 4.76424
425 4.26612
430 4.41383
435 5.42563
440 6.16287
445 4.79908
450 4.95782
455 5.83931
460 5.11718
465 5.1658
470 3.79586
475 4.87947
480 3.87853
485 4.95516
490 4.02371
495 4.43976
500 3.91224
505 5.89931
510 3.85923
515 5.31208
520 5.69317
525 3.96008
530 3.78694
535 4.78205
540 4.68678
545 4.60013
550 3.51969
555 3.70255
560 3.30553
565 4.82412
570 4.82533
575 5.25722
580 4.6905
585 3.12805
590 3.053
595 4.2848
600 7.67569
Ex : 258
200 3.42455
205 2.80972
210 2.66482
215 2.83159
220 3.2467
225 2.83388
230 2.80311
235 2.64504
240 2.4305
245 2.34314
250 3.10096
255 3.50094
260 3.92119
265 3.44091
270 2.9942
275 2.6835
280 2.34508
285 2.51839
290 1.71405
295 2.57604
300 2.82067
305 2.80641
310 2.98163
315 3.46882
320 3.17942
325 3.50278
330 2.80034
335 4.32505
340 2.9728
345 3.99991
350 2.67433
355 4.8436
360 3.69861
365 4.12716
370 3.45806
375 3.78972
380 3.3503
385 2.27664
390 3.61228
395 4.57083
400 3.84341
405 3.90695
410 3.57061
415 3.33264
420 4.09391
425 3.36972
430 3.71276
435 3.59761
440 3.25105
445 3.38377
450 3.96418
455 2.90949
460 3.33734
465 3.73073
470 3.94505
475 3.4971
480 4.01345
485 4.60864
490 4.23006
495 3.05907
500 3.64316
505 2.95791
510 3.78153
515 3.34764
520 4.86377
525 2.71349
530 2.92381
535 3.53443
540 3.20883
545 3.74983
550 3.31895
555 3.70003
560 2.91555
565 2.6402
570 3.2392
575 3.6399
580 2.5227
585 3.26321
590 2.80468
595 2.41215
600 0.274494
Ex : 263
200 2.39137
205 3.02425
210 2.43217
215 1.85798
220 2.51038
225 2.60789
230 1.92313
235 2.0861
240 1.56528
245 2.23636
250 1.8491
255 2.0875
260 2.26151
265 2.62851
270 2.63297
275 2.24652
280 2.07484
285 2.86377
290 2.85372
295 1.70935
300 2.48149
305 1.67931
310 2.45396
315 2.34851
320 2.48276
325 2.89555
330 2.26576
335 2.75713
340 3.45639
345 2.9745
350 3.30854
355 2.32927
360 2.91087
365 3.20431
370 2.92034
375 3.38805
380 3.43124
385 2.62878
390 2.49429
395 2.84175
400 2.02988
405 3.44223
410 2.8523
415 2.93236
420 3.40934
425 4.36302
430 3.84485
435 2.86039
440 3.56688
445 2.91729
450 2.86936
455 2.25582
460 2.26965
465 3.84769
470 2.54117
475 2.44439
480 3.16938
485 1.81082
490 2.8818
495 2.27617
500 3.20971
505 2.28096
510 2.22355
515 2.9712
520 2.86892
525 2.66747
530 3.76131
535 2.36507
540 2.34214
545 2.09234
550 2.87637
555 2.36038
560 2.66379
565 2.6255
570 2.30224
575 2.5179
580 1.64384
585 2.78813
590 1.81327
595 1.93316
600 0.219986
Ex : 268
200 1.8782
205 2.32263
210 2.11847
215 1.7299
220 1.63885
225 1.84639
230 2.48876
235 2.45605
240 1.83334
245 2.13944
250 1.8012
255 2.0675
260 1.42259
265 1.6612
270 2.15065
275 2.1167
280 2.04407
285 1.6354
290 2.32935
295 1.49126
300 1.25587
305 1.37527
310 2.30779
315 1.96045
320 1.71174
325 2.80745
330 2.52772
335 1.79596
340 2.33501
345 2.10324
350 1.71525
355 1.55317
360 2.09431
365 1.92721
370 2.09414
375 2.51727
380 2.02294
385 2.58613
390 2.64361
395 2.38659
400 1.88543
405 1.86685
410 2.16296
415 1.97321
420 2.5128
425 2.48786
430 2.24859
435 2.30978
440 2.87737
445 2.6004
450 2.31633
455 2.35766
460 2.2496
465 1.67085
470 3.01807
475 2.41234
480 1.91394
485 2.20554
490 1.61945
495 2.05928
500 2.13748
505 1.67454
510 1.36299
515 2.09079
520 2.00046
525 1.63565
530 2.17437
535 2.54828
540 2.45215
545 1.64218
550 2.31551
555 2.07967
560 1.0896
565 1.90843
570 2.67897
575 2.21519
580 1.90329
585 1.83914
590 1.78271
595 1.35048
600 0.15368
Ex : 273
200 1.62366
205 1.33847
210 1.07709
215 1.60718
220 1.42323
225 1.4124
230 1.42381
235 1.53968
240 1.37045
245 1.53316
250 1.50912
255 1.40874
260 1.47812
265 1.74329
270 1.73734
275 1.61191
280 1.70812
285 1.4415
290 1.50334
295 1.55146
300 1.21863
305 1.16034
310 1.66714
315 1.26514
320 1.53235
325 1.36297
330 1.30894
335 1.36374
340 1.49899
345 1.59928
350 2.01044
355 1.51868
360 1.45201
365 1.47589
370 1.202
375 1.71574
380 2.11014
385 2.03995
390 1.96903
395 2.24656
400 1.77017
405 1.88628
410 1.84736
415 1.65725
420 2.06664
425 2.27979
430 2.05212
435 2.271
440 2.35198
445 2.73809
450 1.90764
455 1.92132
460 1.64476
465 1.29104
470 1.77636
475 1.78248
480 1.7537
485 1.77581
490 1.43852
495 1.60378
500 2.01347
505 1.78738
510 1.82825
515 1.7332
520 1.46436
525 1.70881
530 1.33437
535 1.67282
540 1.94085
545 2.0066
550 1.50455
555 1.6395
560 1.50743
565 1.57127
570 1.86744
575 2.53318
580 2.08422
585 1.82529
590 1.56982
595 1.9094
600 0.323626
Ex : 278
200 1.50443
205 0.864036
210 1.08236
215 1.17187
220 1.22915
225 1.30949
230 1.01797
235 1.25138
240 1.08864
245 1.24473
250 1.09313
255 1.30647
260 1.5178
265 1.46103
270 1.51272
275 1.20569
280 1.1243
285 0.972993
290 1.50272
295 1.26183
300 1.02909
305 1.01187
310 1.17931
315 1.31133
320 1.26429
325 1.08622
330 1.16253
335 0.960699
340 1.07744
345 1.03163
350 1.68891
355 1.30175
360 1.20157
365 1.2205
370 1.49845
375 1.78981
380 1.41503
385 1.79972
390 1.59234
395 1.69074
400 2.23223
405 1.75724
410 2.18584
415 2.05534
420 2.2595
425 1.23273
430 1.77007
435 2.26735
440 2.29162
445 1.76824
450 1.995
455 1.94002
460 1.76153
465 1.80379
470 1.64937
475 1.50422
480 2.23636
485 1.3626
490 1.41158
495 1.43039
500 1.41983
505 1.36081
510 1.14277
515 0.929505
520 0.937398
525 1.01986
530 1.18226
535 1.04928
540 1.46523
545 1.42124
550 1.93766
555 1.34321
560 1.10267
565 1.39159
570 1.06089
575 1.24875
580 1.01559
585 1.35812
590 0.875491
595 1.26956
600 0.887739
Ex : 283
200 1.16678
205 1.49226
210 1.11709
215 0.997244
220 1.17263
225 1.20425
230 0.901111
235 1.0485
240 0.994962
245 0.990499
250 1.09652
255 1.17039
260 0.759927
265 1.18337
270 1.03444
275 1.22173
280 1.10943
285 1.04882
290 1.00615
295 0.723538
300 0.914633
305 0.972431
310 0.827328
315 0.907827
320 0.867934
325 1.01471
330 0.931397
335 1.0546
340 1.16588
345 1.11345
350 1.27549
355 1.41591
360 0.991463
365 1.26825
370 1.21548
375 1.24148
380 2.03542
385 1.657
390 1.59329
395 1.75274
400 1.67368
405 1.63953
410 1.76522
415 2.00899
420 1.50111
425 1.88534
430 1.54021
435 1.56417
440 1.1665
445 1.43973
450 1.78864
455 1.28781
460 1.68528
465 1.27551
470 1.7084
475 1.21893
480 1.01834
485 1.55782
490 1.26462
495 1.20099
500 1.34971
505 1.02265
510 0.948691
515 1.37059
520 0.890098
525 1.09916
530 0.755256
535 0.89641
540 0.995954
545 0.973246
550 0.920022
555 1.39031
560 1.27609
565 1.31445
570 1.07812
575 1.56232
580 0.964269
585 0.664648
590 0.839911
595 1.04059
600 0.118415
Ex : 288
200 1.01788
205 0.686488
210 0.836944
215 0.626663
220 0.643828
225 0.799425
230 0.735665
235 0.966951
240 0.975469
245 0.935071
250 0.973303
255 0.820613
260 0.893043
265 0.718502
270 0.897964
275 0.901369
280 0.790395
285 0.81692
290 1.05578
295 0.896071
300 0.74299
305 0.653048
310 0.801736
315 1.01713
320 1.00392
325 1.05848
330 0.871513
335 0.866351
340 1.06388
345 0.766572
350 1.02449
355 1.14834
360 1.25587
365 1.02117
370 1.37403
375 1.23524
380 1.81253
385 1.41948
390 1.27655
395 1.25993
400 1.5976
405 1.23171
410 1.73992
415 1.29108
420 1.45623
425 1.26989
430 1.26593
435 1.44733
440 1.26407
445 1.30067
450 1.26408
455 1.34541
460 1.06515
465 1.37749
470 1.49004
475 1.40128
480 1.13478
485 0.946976
490 1.11788
495 1.08224
500 0.972537
505 1.02307
510 1.1898
515 0.865832
520 1.07603
525 1.0052
530 1.34745
535 0.966964
540 0.9719
545 0.973376
550 0.905619
555 0.819738
560 0.908274
565 1.37435
570 1.4887
575 1.14223
580 0.99132
585 1.06475
590 0.821479
595 0.883197
600 0.986708
Ex : 293
200 0.697951
205 0.593626
210 0.545066
215 1.06187
220 0.593479
225 0.600444
230 0.624386
235 0.582882
240 0.977198
245 0.934979
250 0.526558
255 0.706013
260 0.873774
265 0.629205
270 0.576497
275 0.668341
280 0.647023
285 0.684397
290 0.937809
295 0.886982
300 0.618731
305 0.835441
310 0.560486
315 0.61305
320 0.725911
325 0.747679
330 0.80317
335 0.890628
340 1.13201
345 0.833117
350 0.97511
355 0.810353
360 0.876002
365 1.1302
370 0.901774
375 1.18087
380 1.21954
385 1.24738
390 1.69238
395 1.2117
400 1.29716
405 1.21375
410 1.38278
415 1.26099
420 1.59027
425 1.27382
430 0.973945
435 1.1472
440 1.30328
445 1.28108
450 1.08342
455 1.24866
460 1.35586
465 1.00463
470 1.18333
475 1.12232
480 0.987026
485 1.469
490 1.11673
495 0.811529
500 0.701323
505 0.916067
510 0.779166
515 0.858431
520 0.799755
525 0.981873
530 0.999222
535 0.891744
540 0.877379
545 0.656167
550 0.788368
555 0.533241
560 0.92344
565 0.724195
570 0.866821
575 0.835946
580 1.23496
585 1.14501
590 0.981665
595 0.771558
600 0.0878004
Ex : 298
200 0.521109
205 0.680789
210 0.68125
215 0.672609
220 0.546733
225 0.614568
230 0.663692
235 0.53113
240 0.583758
245 0.490672
250 0.459235
255 0.755047
260 0.581477
265 0.467352
270 0.488912
275 0.529979
280 0.842254
285 0.725536
290 0.642387
295 0.78243
300 0.853975
305 0.58584
310 0.625304
315 0.617194
320 0.863464
325 0.64282
330 0.566584
335 0.809575
340 0.758359
345 0.757415
350 0.708969
355 0.77188
360 0.835965
365 0.950129
370 0.991764
375 0.924314
380 0.963937
385 0.998478
390 1.41107
395 1.16862
400 1.13457
405 1.61416
410 1.53269
415 1.3795
420 1.0645
425 1.46987
430 1.40222
435 1.11703
440 1.2505
445 1.49789
450 1.26843
455 1.14759
460 0.971292
465 0.958763
470 1.05874
475 0.75385
480 0.795408
485 1.04407
490 0.689543
495 0.668652
500 0.829715
505 0.688383
510 0.794918
515 0.775051
520 0.815463
525 0.828646
530 0.788471
535 0.763682
540 0.919455
545 0.842269
550 0.730163
555 0.661081
560 0.586029
565 0.797463
570 0.569638
575 0.608405
580 0.757189
585 0.810767
590 1.09156
595 0.946041
600 1.5592
Ex : 303
200 0.547832
205 0.537779
210 0.606825
215 0.579195
220 0.740335
225 0.488791
230 0.517061
235 0.388635
240 0.420151
245 0.393161
250 0.605649
255 0.519349
260 0.623106
265 0.599921
270 0.490578
275 0.533753
280 0.508326
285 0.599522
290 0.639613
295 0.65163
300 0.647388
305 0.422199
310 0.607954
315 0.530292
320 0.613375
325 0.656319
330 0.570489
335 0.562827
340 0.692353
345 0.66068
350 0.492595
355 0.679419
360 0.853505
365 0.72528
370 0.958192
375 1.25634
380 1.30445
385 1.0691
390 1.08657
395 1.17903
400 1.21233
405 1.21175
410 1.14563
415 1.31711
420 1.19425
425 1.31003
430 1.27411
435 1.28837
440 1.11633
445 1.21394
450 1.25985
455 0.882347
460 0.837151
465 0.887143
470 0.733082
475 0.792257
480 0.76976
485 0.916563
490 0.679058
495 0.717328
500 0.840405
505 0.619491
510 0.784435
515 0.673523
520 0.791428
525 0.855303
530 0.468634
535 0.64831
540 0.605562
545 0.591328
550 0.720603
555 0.712404
560 0.640928
565 0.62007
570 0.609322
575 0.879828
580 0.607668
585 0.359036
590 0.493133
595 0.930449
600 1.4661
Ex : 308
200 0.416875
205 0.467517
210 0.656967
215 0.460054
220 0.511497
225 0.538433
230 0.522948
235 0.578785
240 0.474685
245 0.430619
250 0.490692
255 0.465138
260 0.539014
265 0.426262
270 0.420441
275 0.367501
280 0.369086
285 0.555364
290 0.467697
295 0.522455
300 0.820876
305 0.633329
310 0.469178
315 0.663893
320 0.485305
325 0.467533
330 0.69119
335 0.511828
340 0.555404
345 0.701551
350 0.612626
355 0.919312
360 0.846919
365 0.748198
370 0.885512
375 1.14184
380 1.12155
385 1.10363
390 1.16227
395 1.03003
400 1.15084
405 1.26361
410 1.313
415 1.30886
420 1.21108
425 1.12249
430 1.10242
435 1.13217
440 1.37106
445 0.966677
450 0.983853
455 0.93642
460 0.758091
465 0.952942
470 0.809366
475 0.805629
480 0.845273
485 0.89704
490 0.681248
495 0.660268
500 0.697904
505 0.667689
510 0.714081
515 0.638633
520 0.359204
525 0.610497
530 0.548729
535 0.627907
540 0.537772
545 0.608949
550 0.492591
555 0.427102
560 0.529661
565 0.645502
570 0.477278
575 0.55477
580 0.384825
585 0.451812
590 0.607907
595 0.553075
600 0.0629378
Ex : 313
200 0.463946
205 0.473367
210 0.451475
215 0.457594
220 0.491052
225 0.464552
230 0.493467
235 0.403515
240 0.392607
245 0.371003
250 0.404158
255 0.514939
260 0.374547
265 0.524439
270 0.322442
275 0.409022
280 0.45016
285 0.399815
290 0.357143
295 0.522651
300 0.449326
305 0.587631
310 0.672775
315 0.396293
320 0.470645
325 0.471747
330 0.638888
335 0.636946
340 0.572238
345 0.526044
350 0.811528
355 0.901199
360 0.941645
365 0.842702
370 1.0208
375 0.886668
380 1.05726
385 1.23388
390 1.43096
395 1.3681
400 1.40353
405 1.26063
410 1.33236
415 1.29888
420 1.31221
425 1.33509
430 1.29674
435 1.2318
440 1.12702
445 1.10733
450 1.15325
455 1.11335
460 0.95114
465 1.0387
470 0.738518
475 0.700323
480 0.634535
485 0.772274
490 0.666617
495 0.5887
500 0.732644
505 0.591382
510 0.567762
515 0.926748
520 0.5986
525 0.545536
530 0.577139
535 0.518636
540 0.522188
545 0.446354
550 0.643004
555 0.39074
560 0.470261
565 0.613525
570 0.506148
575 0.454733
580 0.406228
585 0.479664
590 0.396487
595 0.435497
600 0.589429
Ex : 318
200 0.326889
205 0.449753
210 0.406285
215 0.386169
220 0.38906
225 0.396962
230 0.473741
235 0.453728
240 0.480031
245 0.301152
250 0.334974
255 0.316832
260 0.348361
265 0.336387
270 0.400109
275 0.359911
280 0.31105
285 0.357915
290 0.377733
295 0.306794
300 0.401686
305 0.484332
310 0.611965
315 0.591668
320 0.539109
325 0.58292
330 0.977324
335 0.842055
340 1.17605
345 1.40806
350 1.81694
355 2.21837
360 2.66449
365 3.02117
370 3.99377
375 4.616
380 4.81962
385 5.77544
390 5.67254
395 6.21909
400 6.2814
405 6.6983
410 6.55893
415 6.753
420 6.97369
425 6.48762
430 6.22234
435 5.91561
440 5.07038
445 5.15244
450 4.63931
455 4.51574
460 4.55627
465 3.75512
470 3.4752
475 3.23701
480 3.03278
485 2.65554
490 2.27042
495 2.14208
500 2.0427
505 1.8614
510 1.73096
515 1.31512
520 1.30876
525 1.13106
530 0.93474
535 1.16268
540 0.912364
545 0.802999
550 1.02852
555 0.621331
560 0.731827
565 0.504372
570 0.561399
575 0.507549
580 0.536231
585 0.472236
590 0.502452
595 0.377114
600 0.154856
Ex : 323
200 0.405546
205 0.435742
210 0.304302
215 0.46299
220 0.463269
225 0.299775
230 0.402842
235 0.372065
240 0.332352
245 0.327103
250 0.429263
255 0.332458
260 0.376212
265 0.292119
270 0.271213
275 0.373942
280 0.346309
285 0.365746
290 0.336423
295 0.381837
300 0.399099
305 0.351948
310 0.318314
315 1.47025
320 5.73705
325 3.20064
330 1.88432
335 2.79981
340 3.87298
345 5.9639
350 8.4819
355 11.4195
360 13.5158
365 16.3968
370 20.2256
375 23.1156
380 25.944
385 28.5634
390 31.4209
395 34.4505
400 35.2494
405 36.7652
410 37.0664
415 36.6103
420 35.5651
425 34.1121
430 33.1861
435 31.766
440 30.2427
445 29.214
450 26.4348
455 25.6754
460 23.019
465 20.6679
470 20.0613
475 18.2665
480 16.3015
485 14.2693
490 12.737
495 11.8136
500 10.077
505 8.99414
510 8.00026
515 6.75123
520 6.06722
525 5.37596
530 4.82855
535 4.05893
540 3.26911
545 2.94962
550 2.67567
555 2.47232
560 2.09967
565 1.64032
570 1.57709
575 1.12491
580 0.965427
585 0.818466
590 0.667429
595 0.584862
600 0.952759
Ex : 328
200 0.377922
205 0.358109
210 0.298497
215 0.393566
220 0.391705
225 0.376764
230 0.213587
235 0.3423
240 0.304687
245 0.379388
250 0.371282
255 0.385203
260 0.355778
265 0.405692
270 0.333285
275 0.341269
280 0.362794
285 0.347487
290 0.418796
295 0.332353
300 0.365154
305 0.437625
310 0.430935
315 0.764861
320 15.8889
325 41.9608
330 14.6695
335 5.83002
340 6.65179
345 8.17802
350 11.0172
355 15.3798
360 20.8687
365 23.5985
370 27.0488
375 31.3241
380 34.8135
385 38.0031
390 41.073
395 44.4117
400 46.7221
405 47.5728
410 48.4556
415 47.5518
420 45.7759
425 43.9635
430 43.1721
435 41.7278
440 40.0209
445 37.9496
450 35.1564
455 33.02
460 30.8582
465 27.6424
470 25.0237
475 23.3145
480 21.9526
485 19.3708
490 17.7219
495 15.7742
500 14.0874
505 12.5462
510 10.1202
515 9.61416
520 7.79781
525 7.25454
530 5.9107
535 5.63739
540 4.79174
545 4.40983
550 3.73157
555 3.33818
560 2.75748
565 2.41268
570 1.99613
575 1.66234
580 1.27148
585 1.03634
590 1.08722
595 0.87597
600 1.00091
Ex : 333
200 0.363168
205 0.30837
210 0.320792
215 0.320243
220 0.327174
225 0.315304
230 0.40067
235 0.357582
240 0.371352
245 0.4249
250 0.333958
255 0.283637
260 0.272401
265 0.27867
270 0.30638
275 0.358843
280 0.318145
285 0.284559
290 0.324405
295 0.325612
300 0.366788
305 0.39589
310 0.384815
315 0.430135
320 2.64447
325 56.1289
330 99.4885
335 29.5739
340 7.60931
345 6.79894
350 7.73797
355 9.17331
360 12.7808
365 17.7577
370 19.2486
375 19.19
380 21.0233
385 21.9652
390 25.2147
395 26.5468
400 26.968
405 27.8486
410 27.3335
415 26.7588
420 27.2377
425 25.9825
430 24.6122
435 24.2512
440 22.7145
445 21.5994
450 20.4881
455 19.3363
460 17.6593
465 16.7094
470 15.0169
475 14.411
480 12.53
485 11.5433
490 10.813
495 9.48232
500 8.47634
505 7.91177
510 7.13838
515 6.14152
520 5.21761
525 4.75296
530 4.27142
535 3.84354
540 3.396
545 2.85452
550 2.69369
555 2.29142
560 2.0532
565 1.83344
570 1.76775
575 1.22964
580 1.22639
585 0.849714
590 0.824972
595 0.619245
600 0.894843
Ex : 338
200 0.358373
205 0.283274
210 0.255602
215 0.291643
220 0.254588
225 0.292992
230 0.270808
235 0.227195
240 0.236416
245 0.368076
250 0.307988
255 0.269805
260 0.349177
265 0.262488
270 0.283932
275 0.251216
280 0.298038
285 0.287661
290 0.244268
295 0.283151
300 0.291591
305 0.350858
310 0.353639
315 0.30833
320 0.352084
325 5.92002
330 92.7964
335 140.814
340 35.9934
345 7.39608
350 4.84266
355 4.94785
360 5.50561
365 7.80357
370 13.5829
375 13.5797
380 10.9832
385 11.289
390 11.7873
395 12.4423
400 13.311
405 13.1774
410 13.2726
415 13.2555
420 12.8371
425 12.3335
430 11.9275
435 12.0298
440 11.0276
445 10.7025
450 10.5549
455 9.39461
460 9.771
465 8.88336
470 8.33098
475 7.83254
480 6.98515
485 6.56834
490 6.38659
495 5.75885
500 5.19587
505 4.73856
510 4.02749
515 3.3971
520 3.54926
525 3.13917
530 2.73907
535 2.61516
540 2.29883
545 2.12977
550 2.05997
555 1.8166
560 1.68192
565 1.46265
570 1.21772
575 1.00773
580 0.826505
585 0.800242
590 0.527042
595 0.474275
600 0.23624
Ex : 343
200 0.204735
205 0.264902
210 0.241252
215 0.271424
220 0.222495
225 0.336295
230 0.222185
235 0.292107
240 0.235822
245 0.227575
250 0.277331
255 0.230321
260 0.246474
265 0.230716
270 0.292352
275 0.263779
280 0.304421
285 0.242956
290 0.259612
295 0.222942
300 0.174022
305 0.234336
310 0.285668
315 0.305154
320 0.40086
325 0.430946
330 7.25104
335 110.127
340 160.48
345 39.7672
350 7.0393
355 4.08283
360 3.6504
365 3.56775
370 4.97476
375 9.41509
380 10.4991
385 8.22207
390 6.90664
395 7.45189
400 7.36562
405 7.76253
410 7.86133
415 8.12344
420 8.03951
425 8.0692
430 7.98986
435 7.82635
440 7.7538
445 7.65203
450 7.28162
455 6.90697
460 6.90223
465 6.53663
470 6.09716
475 5.63326
480 5.63825
485 5.27842
490 4.79702
495 4.32077
500 4.07202
505 3.80462
510 3.42541
515 3.1968
520 3.01318
525 2.69061
530 2.49348
535 2.20388
540 2.08427
545 1.92601
550 1.73911
555 1.49097
560 1.48074
565 1.182
570 1.25574
575 0.853584
580 0.749354
585 0.618994
590 0.698109
595 0.484461
600 0.235869
Ex : 348
200 0.204644
205 0.176965
210 0.261713
215 0.253882
220 0.26181
225 0.245871
230 0.242663
235 0.184109
240 0.242308
245 0.320166
250 0.2362
255 0.244682
260 0.322602
265 0.220494
270 0.198963
275 0.228195
280 0.267194
285 0.227568
290 0.220889
295 0.307627
300 0.221137
305 0.248389
310 0.273435
315 0.332226
320 0.23216
325 0.328628
330 0.487481
335 7.57085
340 111.85
345 168.474
350 43.9944
355 7.06556
360 3.6102
365 3.22231
370 2.51549
375 3.16827
380 7.29346
385 9.83731
390 7.29
395 6.17821
400 5.70864
405 6.06657
410 6.17033
415 6.3876
420 6.58072
425 6.83263
430 6.53798
435 6.73521
440 6.63563
445 6.65769
450 6.41244
455 6.48875
460 5.91516
465 5.88395
470 5.67164
475 5.6452
480 5.35561
485 4.83802
490 4.43482
495 4.34975
500 3.9478
505 3.90679
510 3.24958
515 3.24761
520 2.7308
525 2.62622
530 2.44827
535 2.16659
540 1.99903
545 1.65086
550 1.64529
555 1.48089
560 1.49666
565 1.36734
570 1.08727
575 0.960132
580 0.802412
585 0.637649
590 0.513486
595 0.557212
600 0.444745
Ex : 353
200 0.242548
205 0.222647
210 0.267852
215 0.233279
220 0.2751
225 0.215837
230 0.187456
235 0.2569
240 0.242727
245 0.213031
250 0.230177
255 0.350524
260 0.253722
265 0.216412
270 0.317769
275 0.262233
280 0.226312
285 0.234321
290 0.218008
295 0.264909
300 0.241338
305 0.267616
310 0.240996
315 0.229191
320 0.198322
325 0.2661
330 0.315545
335 0.401291
340 7.97405
345 117.663
350 169.311
355 42.2922
360 6.80535
365 3.1514
370 2.87048
375 2.45108
380 2.84216
385 5.73819
390 9.30875
395 7.97813
400 6.25593
405 5.38386
410 5.47552
415 5.87777
420 5.76362
425 5.96382
430 5.77454
435 6.2614
440 6.20409
445 6.0615
450 6.06681
455 5.64066
460 5.85717
465 5.65738
470 5.62897
475 5.27834
480 5.07048
485 4.98084
490 4.48376
495 4.15065
500 3.92757
505 3.69544
510 3.58832
515 3.06849
520 2.82235
525 2.63871
530 2.4768
535 2.31151
540 1.91333
545 1.914
550 1.66384
555 1.45248
560 1.4369
565 1.2137
570 0.994854
575 0.905058
580 0.630789
585 0.541887
590 0.582224
595 0.452325
600 0.997421
Ex : 358
200 0.161203
205 0.243809
210 0.277484
215 0.204486
220 0.180037
225 0.2343
230 0.202177
235 0.197351
240 0.21526
245 0.231851
250 0.193978
255 0.190648
260 0.208833
265 0.166129
270 0.24181
275 0.225014
280 0.235426
285 0.202817
290 0.210213
295 0.24983
300 0.183174
305 0.24102
310 0.254187
315 0.159834
320 0.236242
325 0.282345
330 0.308025
335 0.40359
340 0.36314
345 7.43651
350 111.737
355 169.474
360 43.3881
365 6.90908
370 2.84846
375 3.12907
380 2.62086
385 2.60729
390 4.79983
395 9.34345
400 8.69357
405 6.52481
410 5.42023
415 5.41663
420 5.62126
425 5.9327
430 5.9101
435 5.99242
440 5.97016
445 6.22707
450 5.93832
455 6.01982
460 5.93018
465 5.56252
470 5.42835
475 5.25621
480 5.04919
485 5.04393
490 4.55189
495 4.41808
500 3.79909
505 3.7651
510 3.53438
515 2.99507
520 3.0819
525 2.85037
530 2.27287
535 2.34323
540 1.9889
545 1.79272
550 1.62752
555 1.45036
560 1.32948
565 1.13404
570 0.956736
575 0.880266
580 0.750326
585 0.585807
590 0.519936
595 0.486597
600 0.451833
Ex : 363
200 0.143582
205 0.218427
210 0.202014
215 0.199981
220 0.167294
225 0.21359
230 0.176463
235 0.192413
240 0.230378
245 0.259226
250 0.197622
255 0.233915
260 0.217321
265 0.215884
270 0.162079
275 0.271423
280 0.214654
285 0.164294
290 0.207718
295 0.155603
300 0.226207
305 0.208067
310 0.191713
315 0.225271
320 0.204236
325 0.186107
330 0.217081
335 0.333865
340 0.340392
345 0.40544
350 6.9069
355 107.139
360 170.827
365 44.4943
370 6.64148
375 2.78479
380 2.9413
385 2.67223
390 2.36519
395 4.25991
400 8.44752
405 9.19649
410 6.83038
415 5.56758
420 4.9865
425 5.43285
430 5.3145
435 5.33944
440 5.65126
445 5.77451
450 5.56227
455 5.75687
460 6.09648
465 5.574
470 5.4876
475 5.21483
480 5.05859
485 4.88177
490 4.57686
495 4.33337
500 3.87459
505 3.85677
510 3.27406
515 3.01874
520 2.63195
525 2.69973
530 2.52419
535 2.20266
540 2.00437
545 1.77998
550 1.63445
555 1.50826
560 1.26353
565 1.24683
570 0.996549
575 0.899271
580 0.781106
585 0.601691
590 0.470951
595 0.414623
600 0.124244
Ex : 368
200 0.231296
205 0.115513
210 0.201583
215 0.147297
220 0.129088
225 0.163591
230 0.224247
235 0.188068
240 0.191361
245 0.21135
250 0.156404
255 0.192191
260 0.31227
265 0.202947
270 0.215512
275 0.163964
280 0.214553
285 0.225535
290 0.197073
295 0.182406
300 0.183257
305 0.136881
310 0.234785
315 0.175869
320 0.202416
325 0.229229
330 0.303244
335 0.268323
340 0.267884
345 0.34428
350 0.386359
355 5.72312
360 106.748
365 175.7
370 47.0475
375 6.93182
380 2.72077
385 2.71364
390 2.55954
395 2.5327
400 3.62161
405 7.09725
410 8.85256
415 6.81587
420 5.42059
425 5.03477
430 4.88584
435 4.71057
440 4.93883
445 5.02977
450 5.2176
455 5.37654
460 5.54898
465 5.34165
470 5.12587
475 5.18996
480 4.96126
485 4.66254
490 4.3412
495 4.17715
500 3.97631
505 3.60652
510 3.20286
515 2.9749
520 2.63215
525 2.60707
530 2.275
535 2.09912
540 1.85612
545 1.7111
550 1.61293
555 1.4361
560 1.19688
565 1.16747
570 0.983563
575 0.805716
580 0.689308
585 0.556768
590 0.513668
595 0.395899
600 0.258546
Ex : 373
200 0.22468
205 0.24767
210 0.206881
215 0.19273
220 0.203889
225 0.259939
230 0.167654
235 0.196983
240 0.226394
245 0.172064
250 0.162735
255 0.220297
260 0.204319
265 0.173466
270 0.207268
275 0.157325
280 0.202287
285 0.19945
290 0.196521
295 0.195209
300 0.217227
305 0.187994
310 0.195971
315 0.225334
320 0.157397
325 0.148799
330 0.173753
335 0.22881
340 0.247817
345 0.2896
350 0.294305
355 0.443094
360 6.79197
365 109.522
370 174.293
375 46.9248
380 7.02788
385 2.58915
390 2.87826
395 2.69414
400 2.81106
405 3.2348
410 5.64769
415 8.84442
420 6.98383
425 5.38563
430 5.01944
435 4.71227
440 4.69052
445 4.78583
450 4.90832
455 5.1658
460 5.2632
465 5.09152
470 4.98914
475 4.69418
480 4.66407
485 4.39163
490 4.16572
495 3.95335
500 3.81508
505 3.6408
510 3.27558
515 2.99712
520 2.79481
525 2.61176
530 2.23356
535 2.01316
540 1.92861
545 1.69586
550 1.63248
555 1.33747
560 1.32462
565 1.21001
570 0.900081
575 0.866595
580 0.694099
585 0.554546
590 0.377724
595 0.352122
600 0.343144
Ex : 378
200 0.230859
205 0.164746
210 0.193669
215 0.146552
220 0.15545
225 0.184324
230 0.135236
235 0.163993
240 0.165341
245 0.149969
250 0.177195
255 0.134344
260 0.190198
265 0.182222
270 0.182007
275 0.21338
280 0.179209
285 0.162043
290 0.162773
295 0.177664
300 0.130405
305 0.185719
310 0.202268
315 0.136671
320 0.15746
325 0.188802
330 0.160872
335 0.152709
340 0.209565
345 0.261714
350 0.277091
355 0.41198
360 0.434497
365 6.67563
370 112.778
375 182.349
380 49.8438
385 7.3541
390 2.95287
395 2.90416
400 3.20456
405 2.71221
410 2.63037
415 4.45213
420 7.97736
425 7.59904
430 5.52594
435 4.88888
440 4.24803
445 4.56746
450 4.7063
455 4.7511
460 4.76325
465 4.76381
470 4.69241
475 4.69491
480 4.70928
485 4.47909
490 4.07267
495 3.75943
500 3.86363
505 3.57169
510 3.20768
515 2.97062
520 2.87917
525 2.55453
530 2.43734
535 1.99592
540 1.97358
545 1.70948
550 1.62594
555 1.51512
560 1.29943
565 0.99521
570 1.01011
575 0.849227
580 0.611509
585 0.610152
590 0.593209
595 0.383115
600 0.948187
Ex : 383
200 0.218785
205 0.174274
210 0.152315
215 0.201906
220 0.178509
225 0.146214
230 0.152341
235 0.181504
240 0.156417
245 0.235323
250 0.172692
255 0.190384
260 0.211518
265 0.162279
270 0.173377
275 0.178387
280 0.178045
285 0.193268
290 0.162132
295 0.126743
300 0.15789
305 0.163309
310 0.159314
315 0.163898
320 0.179111
325 0.169789
330 0.184718
335 0.196247
340 0.199158
345 0.173402
350 0.249696
355 0.27882
360 0.245887
365 0.373559
370 6.20359
375 111.512
380 185.511
385 50.4528
390 7.49633
395 2.66593
400 2.90406
405 3.05545
410 2.62534
415 2.73983
420 3.52772
425 6.975
430 7.5474
435 5.48599
440 4.87258
445 4.36009
450 4.5291
455 4.51882
460 4.48969
465 4.53203
470 4.4596
475 4.61561
480 4.38588
485 4.47424
490 4.07314
495 4.08685
500 3.87046
505 3.59235
510 3.26184
515 3.0293
520 2.81775
525 2.66238
530 2.30696
535 2.09519
540 1.88219
545 1.72292
550 1.44456
555 1.40195
560 1.24628
565 1.13608
570 1.03607
575 0.823544
580 0.588945
585 0.558527
590 0.431719
595 0.388917
600 0.411201
Ex : 388
200 0.173396
205 0.149689
210 0.130347
215 0.168842
220 0.186717
225 0.129408
230 0.17873
235 0.162719
240 0.124094
245 0.131939
250 0.152804
255 0.149067
260 0.117106
265 0.139524
270 0.184284
275 0.182223
280 0.132166
285 0.222086
290 0.150169
295 0.130142
300 0.161905
305 0.125595
310 0.150249
315 0.202433
320 0.194295
325 0.150626
330 0.151602
335 0.176287
340 0.166424
345 0.203463
350 0.173933
355 0.195121
360 0.257112
365 0.268911
370 0.393891
375 6.68375
380 115.951
385 187.677
390 50.1671
395 7.60697
400 2.89012
405 2.78227
410 2.72508
415 2.37334
420 2.51364
425 3.06116
430 5.72132
435 7.41093
440 5.45773
445 4.80373
450 4.42301
455 4.18896
460 4.35586
465 4.49956
470 4.48829
475 4.02401
480 4.33662
485 4.17898
490 3.93634
495 3.69274
500 3.47285
505 3.46279
510 2.95408
515 2.96622
520 2.74641
525 2.47021
530 2.15239
535 2.073
540 1.77558
545 1.75581
550 1.48071
555 1.42505
560 1.28508
565 1.24359
570 0.992049
575 0.877715
580 0.631683
585 0.570665
590 0.448317
595 0.380366
600 0.330293
Ex : 393
200 0.160017
205 0.195221
210 0.160776
215 0.155885
220 0.15304
225 0.148654
230 0.15663
235 0.167593
240 0.13396
245 0.126039
250 0.145564
255 0.156893
260 0.138105
265 0.142708
270 0.142698
275 0.175927
280 0.116383
285 0.136704
290 0.153106
295 0.120988
300 0.144533
305 0.162173
310 0.175154
315 0.180383
320 0.16322
325 0.151893
330 0.154275
335 0.198256
340 0.224012
345 0.155964
350 0.195508
355 0.195707
360 0.250961
365 0.282544
370 0.299849
375 0.312665
380 6.07803
385 114.299
390 192.049
395 53.3893
400 7.86676
405 2.76079
410 2.45545
415 2.57605
420 2.30846
425 2.52258
430 2.74237
435 4.59515
440 7.34111
445 5.9776
450 4.45479
455 4.12732
460 4.05914
465 3.94318
470 4.11504
475 3.98636
480 3.90643
485 4.06247
490 3.87323
495 3.67372
500 3.60581
505 3.24422
510 3.0849
515 2.98048
520 2.84513
525 2.6172
530 2.40983
535 2.07661
540 1.96408
545 1.64925
550 1.64828
555 1.45907
560 1.17663
565 1.0258
570 0.972724
575 0.844816
580 0.644645
585 0.582672
590 0.429591
595 0.40186
600 0.421026
Ex : 398
200 0.174173
205 0.156275
210 0.123164
215 0.15002
220 0.141834
225 0.180255
230 0.163338
235 0.137325
240 0.161286
245 0.157712
250 0.140132
255 0.123541
260 0.132287
265 0.134374
270 0.155412
275 0.116529
280 0.189279
285 0.112821
290 0.142202
295 0.138464
300 0.161824
305 0.149053
310 0.155163
315 0.15879
320 0.169801
325 0.150277
330 0.151079
335 0.159811
340 0.167859
345 0.158439
350 0.191945
355 0.156322
360 0.196901
365 0.181622
370 0.238859
375 0.280176
380 0.408168
385 6.12252
390 119.618
395 197.95
400 53.4244
405 7.69887
410 2.45393
415 2.46072
420 2.46348
425 2.42997
430 2.25657
435 2.49939
440 3.86438
445 6.65109
450 6.31842
455 4.85667
460 4.29842
465 3.94158
470 3.58718
475 3.92931
480 3.71015
485 3.82055
490 3.70579
495 3.63271
500 3.31934
505 3.12461
510 2.93341
515 2.93994
520 2.69024
525 2.36052
530 1.98798
535 1.83913
540 1.85897
545 1.67883
550 1.47988
555 1.34128
560 1.13016
565 1.0202
570 0.877485
575 0.759992
580 0.619043
585 0.459325
590 0.419266
595 0.423832
600 0.0817296
Ex : 403
200 0.166275
205 0.112428
210 0.137308
215 0.119226
220 0.152657
225 0.136675
230 0.14345
235 0.138231
240 0.149457
245 0.172351
250 0.166561
255 0.140417
260 0.181352
265 0.128697
270 0.171969
275 0.122846
280 0.10631
285 0.150972
290 0.143044
295 0.11718
300 0.137606
305 0.176767
310 0.171185
315 0.160447
320 0.106857
325 0.12871
330 0.130505
335 0.117033
340 0.167719
345 0.156739
350 0.203886
355 0.16306
360 0.164066
365 0.200897
370 0.182765
375 0.200321
380 0.294575
385 0.420492
390 7.1745
395 121.582
400 198.237
405 53.9254
410 7.73028
415 2.34347
420 2.12199
425 2.48075
430 2.26039
435 1.99254
440 2.34548
445 3.16977
450 5.87579
455 6.24443
460 4.67801
465 4.16629
470 3.78744
475 3.71396
480 3.76142
485 3.42592
490 3.44954
495 3.26934
500 3.17723
505 3.06993
510 2.91867
515 2.75081
520 2.49873
525 2.224
530 2.26788
535 2.19017
540 1.91757
545 1.57556
550 1.38384
555 1.34761
560 1.20014
565 1.09539
570 0.856533
575 0.749746
580 0.556999
585 0.461189
590 0.461493
595 0.345982
600 0.578931
Ex : 408
200 0.137114
205 0.203981
210 0.194973
215 0.150668
220 0.156101
225 0.160023
230 0.192144
235 0.191314
240 0.146037
245 0.138725
250 0.205347
255 0.172796
260 0.140177
265 0.177231
270 0.130637
275 0.17047
280 0.125481
285 0.172934
290 0.1589
295 0.221923
300 0.136066
305 0.150718
310 0.169236
315 0.129616
320 0.205369
325 0.172354
330 0.149105
335 0.161277
340 0.169274
345 0.187648
350 0.157693
355 0.205494
360 0.187839
365 0.176604
370 0.22637
375 0.173437
380 0.249314
385 0.314603
390 0.398483
395 6.54901
400 123.887
405 202.471
410 53.4598
415 7.46743
420 2.29874
425 1.95539
430 2.45949
435 2.3043
440 2.10506
445 2.25774
450 2.71798
455 5.23819
460 6.5591
465 4.97374
470 4.27289
475 3.82489
480 3.45686
485 3.42808
490 3.35754
495 3.11143
500 3.03848
505 2.91156
510 2.77083
515 2.55807
520 2.44547
525 2.2681
530 2.21094
535 1.96991
540 1.67744
545 1.65361
550 1.39473
555 1.44132
560 1.23349
565 0.999189
570 0.919146
575 0.738678
580 0.560307
585 0.476872
590 0.414105
595 0.423664
600 0.360811
Ex : 413
200 0.140347
205 0.163991
210 0.120656
215 0.134335
220 0.152911
225 0.182565
230 0.133685
235 0.174417
240 0.157582
245 0.180373
250 0.11619
255 0.151565
260 0.156001
265 0.167633
270 0.178967
275 0.131274
280 0.154657
285 0.13383
290 0.134115
295 0.121817
300 0.132846
305 0.144837
310 0.182928
315 0.139781
320 0.1645
325 0.136458
330 0.150471
335 0.145896
340 0.142438
345 0.139627
350 0.127534
355 0.144305
360 0.163778
365 0.175303
370 0.166425
375 0.171446
380 0.209106
385 0.255473
390 0.276287
395 0.398508
400 7.86383
405 128.532
410 202.541
415 52.3929
420 7.37463
425 2.25526
430 1.78327
435 2.45059
440 2.29778
445 2.0414
450 2.09051
455 2.51036
460 3.99205
465 6.47834
470 5.18824
475 4.15521
480 3.70043
485 3.23931
490 3.0738
495 3.02084
500 2.93612
505 3.00139
510 2.67226
515 2.49759
520 2.3923
525 2.32331
530 2.01212
535 1.78495
540 1.75694
545 1.56957
550 1.34061
555 1.34784
560 1.1523
565 1.04978
570 0.894703
575 0.741046
580 0.643489
585 0.54317
590 0.392775
595 0.379082
600 0.558855
Ex : 418
200 0.197402
205 0.150842
210 0.166775
215 0.126113
220 0.139721
225 0.143697
230 0.159295
235 0.139204
240 0.168797
245 0.146079
250 0.150903
255 0.192815
260 0.16586
265 0.134109
270 0.15621
275 0.166962
280 0.116208
285 0.120181
290 0.143901
295 0.131873
300 0.1558
305 0.192194
310 0.113464
315 0.14988
320 0.127901
325 0.171675
330 0.127083
335 0.140459
340 0.157345
345 0.148878
350 0.141605
355 0.150009
360 0.180554
365 0.194711
370 0.197004
375 0.161962
380 0.188616
385 0.184997
390 0.252165
395 0.288831
400 0.432114
405 7.41571
410 127.429
415 206.665
420 55.6293
425 7.62322
430 2.19159
435 1.74126
440 2.23421
445 2.12428
450 1.8785
455 2.20156
460 2.28944
465 3.28476
470 5.64007
475 5.53623
480 4.10054
485 3.64568
490 3.28564
495 3.01175
500 2.73293
505 2.53325
510 2.69255
515 2.41814
520 2.27645
525 2.14797
530 1.8774
535 1.88628
540 1.67277
545 1.5696
550 1.35944
555 1.26941
560 1.2375
565 1.00997
570 0.886577
575 0.692701
580 0.589451
585 0.505162
590 0.391644
595 0.347348
600 0.351014
Ex : 423
200 0.167773
205 0.152103
210 0.19028
215 0.163769
220 0.154803
225 0.155004
230 0.114559
235 0.185293
240 0.159643
245 0.139511
250 0.134008
255 0.17474
260 0.156364
265 0.137144
270 0.127722
275 0.180654
280 0.122717
285 0.132794
290 0.137298
295 0.139447
300 0.134267
305 0.12908
310 0.154242
315 0.164842
320 0.139566
325 0.172874
330 0.166173
335 0.133297
340 0.154948
345 0.198318
350 0.156341
355 0.175265
360 0.158995
365 0.168856
370 0.1976
375 0.185926
380 0.164982
385 0.241095
390 0.216993
395 0.241851
400 0.303921
405 0.404722
410 7.56985
415 132.612
420 202.802
425 51.9006
430 7.3386
435 2.13103
440 1.67292
445 2.094
450 2.34798
455 2.08923
460 1.91345
465 2.1285
470 2.69103
475 4.74651
480 5.56883
485 3.89782
490 3.35475
495 2.92383
500 2.71614
505 2.41196
510 2.35016
515 2.31179
520 2.18158
525 2.06996
530 1.83294
535 1.76023
540 1.59755
545 1.52478
550 1.37405
555 1.34256
560 1.24318
565 1.00005
570 0.857606
575 0.801311
580 0.681009
585 0.578388
590 0.439507
595 0.343896
600 0.257053
Ex : 428
200 0.110428
205 0.118483
210 0.12688
215 0.148147
220 0.17798
225 0.153454
230 0.138219
235 0.164374
240 0.159001
245 0.115547
250 0.150288
255 0.184658
260 0.113477
265 0.145319
270 0.125357
275 0.133225
280 0.183636
285 0.105703
290 0.123584
295 0.151825
300 0.169803
305 0.147622
310 0.180701
315 0.218668
320 0.182569
325 0.170079
330 0.144201
335 0.164206
340 0.136546
345 0.17141
350 0.20165
355 0.144751
360 0.178475
365 0.176248
370 0.15877
375 0.173576
380 0.171689
385 0.166709
390 0.260017
395 0.259904
400 0.24036
405 0.298688
410 0.455168
415 8.55875
420 134.83
425 205.497
430 54.0867
435 7.49795
440 2.25112
445 1.65609
450 1.97063
455 2.07367
460 2.17114
465 1.87346
470 2.18252
475 2.3701
480 4.01471
485 5.9345
490 4.2101
495 3.31243
500 2.73504
505 2.31346
510 2.31331
515 2.04228
520 2.09756
525 2.10231
530 1.8796
535 1.74326
540 1.63632
545 1.4641
550 1.36662
555 1.31726
560 1.1915
565 0.987535
570 0.881997
575 0.662525
580 0.665716
585 0.500557
590 0.459775
595 0.343164
600 0.13785
Ex : 433
200 0.18079
205 0.166031
210 0.163381
215 0.173804
220 0.148471
225 0.186675
230 0.168293
235 0.139604
240 0.124216
245 0.161287
250 0.154861
255 0.228655
260 0.150128
265 0.151333
270 0.169875
275 0.162429
280 0.13308
285 0.191847
290 0.125967
295 0.145681
300 0.171326
305 0.176048
310 0.128191
315 0.134622
320 0.145168
325 0.144349
330 0.169059
335 0.166649
340 0.163223
345 0.189575
350 0.2044
355 0.183519
360 0.16821
365 0.201957
370 0.190412
375 0.135187
380 0.162154
385 0.210052
390 0.169915
395 0.268293
400 0.274186
405 0.217245
410 0.346504
415 0.491311
420 8.91483
425 140.415
430 207.52
435 52.383
440 7.2488
445 2.11263
450 1.60325
455 1.94061
460 2.29004
465 1.98322
470 1.79849
475 1.82144
480 2.21367
485 3.12894
490 5.19686
495 4.44764
500 3.19781
505 2.95306
510 2.41415
515 2.20677
520 2.13281
525 1.94989
530 1.77841
535 1.7605
540 1.54683
545 1.56679
550 1.36265
555 1.19246
560 1.16606
565 0.949092
570 0.872017
575 0.729816
580 0.557951
585 0.469356
590 0.412845
595 0.373819
600 0.0425391
Ex : 438
200 0.17193
205 0.141358
210 0.144995
215 0.148964
220 0.128523
225 0.118348
230 0.152575
235 0.145782
240 0.159672
245 0.135431
250 0.122925
255 0.146719
260 0.171691
265 0.115177
270 0.14416
275 0.131587
280 0.15841
285 0.152896
290 0.186745
295 0.176082
300 0.156136
305 0.149655
310 0.176417
315 0.15697
320 0.172887
325 0.154602
330 0.162557
335 0.136635
340 0.163466
345 0.18826
350 0.189398
355 0.215608
360 0.139904
365 0.135289
370 0.182158
375 0.158824
380 0.153733
385 0.238288
390 0.197707
395 0.141335
400 0.204535
405 0.233112
410 0.228867
415 0.277641
420 0.414562
425 8.88063
430 141.005
435 218.8
440 55.1303
445 7.64487
450 2.11457
455 1.5948
460 1.94601
465 2.07244
470 2.07141
475 1.69134
480 1.93491
485 2.03519
490 2.54455
495 4.32934
500 4.64047
505 3.20364
510 2.67978
515 2.4446
520 2.04067
525 1.87008
530 1.83643
535 1.65551
540 1.52311
545 1.37161
550 1.32086
555 1.24432
560 1.08544
565 0.91629
570 0.879572
575 0.75703
580 0.650793
585 0.465554
590 0.440724
595 0.356321
600 0.583122
Ex : 443
200 0.126092
205 0.134461
210 0.187365
215 0.165999
220 0.124757
225 0.124069
230 0.135731
235 0.154687
240 0.163165
245 0.163187
250 0.167121
255 0.152761
260 0.169315
265 0.13944
270 0.142395
275 0.172481
280 0.188727
285 0.183416
290 0.202626
295 0.136268
300 0.141063
305 0.163069
310 0.14599
315 0.19082
320 0.202945
325 0.159259
330 0.19419
335 0.114624
340 0.14559
345 0.180926
350 0.181584
355 0.157339
360 0.157885
365 0.165472
370 0.125584
375 0.180696
380 0.170005
385 0.185915
390 0.193512
395 0.187567
400 0.20003
405 0.145461
410 0.198977
415 0.263496
420 0.329437
425 0.543671
430 9.36668
435 148.084
440 219.851
445 54.2497
450 7.56206
455 2.22371
460 1.49861
465 1.95164
470 2.1212
475 2.19184
480 1.76458
485 1.90421
490 1.80999
495 2.2163
500 3.69501
505 4.74674
510 3.22434
515 2.61361
520 2.31102
525 2.09105
530 1.8406
535 1.74108
540 1.53629
545 1.43126
550 1.31876
555 1.19368
560 1.1562
565 0.930377
570 0.984796
575 0.778068
580 0.588085
585 0.4741
590 0.434983
595 0.382127
600 0.0494927
Ex : 448
200 0.137763
205 0.135485
210 0.194722
215 0.12483
220 0.155142
225 0.168312
230 0.167147
235 0.188882
240 0.133294
245 0.139974
250 0.149842
255 0.212227
260 0.196036
265 0.147368
270 0.128614
275 0.165282
280 0.173644
285 0.139133
290 0.130262
295 0.128664
300 0.132077
305 0.162755
310 0.155439
315 0.198136
320 0.236889
325 0.172514
330 0.191534
335 0.141067
340 0.131173
345 0.187037
350 0.147175
355 0.156514
360 0.162864
365 0.236491
370 0.20065
375 0.1923
380 0.193163
385 0.203958
390 0.18089
395 0.176233
400 0.207549
405 0.196088
410 0.251461
415 0.272733
420 0.282783
425 0.276861
430 0.414309
435 9.67976
440 154.997
445 229.252
450 57.2776
455 7.91929
460 2.16398
465 1.61815
470 1.70903
475 2.09566
480 1.94032
485 1.84096
490 1.74931
495 1.73711
500 1.80125
505 2.97411
510 4.24929
515 3.45449
520 2.32397
525 2.16152
530 1.96265
535 1.81043
540 1.50129
545 1.43357
550 1.4144
555 1.31221
560 1.19626
565 1.13129
570 0.924647
575 0.750157
580 0.652681
585 0.489833
590 0.407286
595 0.411891
600 0.390999
Ex : 453
200 0.141216
205 0.141856
210 0.130447
215 0.14965
220 0.133434
225 0.149516
230 0.149757
235 0.1906
240 0.149484
245 0.160084
250 0.157992
255 0.152746
260 0.128769
265 0.136357
270 0.149817
275 0.121922
280 0.204238
285 0.161309
290 0.139553
295 0.166749
300 0.152549
305 0.174287
310 0.152055
315 0.157648
320 0.171192
325 0.173111
330 0.138564
335 0.167024
340 0.1293
345 0.155313
350 0.189965
355 0.193641
360 0.154483
365 0.191389
370 0.151956
375 0.171888
380 0.166458
385 0.16286
390 0.180671
395 0.137687
400 0.172715
405 0.197144
410 0.184241
415 0.23833
420 0.209398
425 0.268736
430 0.331743
435 0.502637
440 10.3348
445 169.142
450 234.995
455 54.9843
460 7.47934
465 2.20718
470 1.63031
475 1.64123
480 1.93104
485 1.95701
490 1.63735
495 1.63039
500 1.6488
505 1.76445
510 2.23922
515 3.98817
520 3.89425
525 2.61281
530 2.21165
535 2.03776
540 1.6663
545 1.42598
550 1.42164
555 1.28918
560 1.1865
565 0.94962
570 0.941522
575 0.721588
580 0.666497
585 0.576701
590 0.492901
595 0.421221
600 0.546961
Ex : 458
200 0.121945
205 0.117676
210 0.138747
215 0.17584
220 0.145318
225 0.126389
230 0.147299
235 0.140839
240 0.138301
245 0.135135
250 0.133144
255 0.187275
260 0.160394
265 0.167734
270 0.155634
275 0.193006
280 0.173725
285 0.178643
290 0.142185
295 0.161367
300 0.146875
305 0.143774
310 0.189549
315 0.198924
320 0.124066
325 0.149753
330 0.135976
335 0.175513
340 0.145134
345 0.134719
350 0.13825
355 0.143356
360 0.124282
365 0.190031
370 0.182928
375 0.150886
380 0.156043
385 0.226145
390 0.155703
395 0.165836
400 0.210229
405 0.18804
410 0.217366
415 0.253369
420 0.197834
425 0.211852
430 0.239572
435 0.391383
440 0.475819
445 11.1788
450 164.638
455 238.52
460 57.5451
465 7.72995
470 2.22544
475 1.48743
480 1.63885
485 1.90126
490 2.04372
495 1.75625
500 1.50307
505 1.56981
510 1.5906
515 1.94194
520 3.13804
525 3.88471
530 2.80242
535 2.166
540 2.07637
545 1.63513
550 1.37355
555 1.21287
560 1.21038
565 1.13803
570 0.88209
575 0.849367
580 0.640127
585 0.534987
590 0.453175
595 0.379458
600 0.153583
Ex : 463
200 0.158631
205 0.150606
210 0.159386
215 0.147916
220 0.144594
225 0.145553
230 0.141938
235 0.131863
240 0.135566
245 0.149779
250 0.140397
255 0.11284
260 0.132274
265 0.232795
270 0.17284
275 0.152284
280 0.160435
285 0.144543
290 0.156298
295 0.167781
300 0.164112
305 0.133965
310 0.119312
315 0.149618
320 0.154032
325 0.183027
330 0.173522
335 0.124728
340 0.166826
345 0.13422
350 0.166627
355 0.172732
360 0.14385
365 0.147349
370 0.158275
375 0.154592
380 0.144365
385 0.169435
390 0.138534
395 0.169151
400 0.166391
405 0.135058
410 0.15477
415 0.155395
420 0.198933
425 0.242775
430 0.233399
435 0.257138
440 0.34823
445 0.460827
450 10.626
455 170.044
460 251.315
465 61.099
470 8.28331
475 2.308
480 1.56632
485 1.60404
490 1.91233
495 1.92054
500 1.58939
505 1.52728
510 1.49885
515 1.60565
520 1.83736
525 2.69253
530 3.80485
535 3.08725
540 2.07875
545 1.86984
550 1.63108
555 1.43235
560 1.11074
565 1.11788
570 0.943032
575 0.767995
580 0.704759
585 0.489526
590 0.435143
595 0.41614
600 0.105695
Ex : 468
200 0.120777
205 0.111585
210 0.114324
215 0.0969435
220 0.135366
225 0.156838
230 0.151783
235 0.165542
240 0.208786
245 0.180976
250 0.163018
255 0.159279
260 0.165456
265 0.140556
270 0.167783
275 0.142645
280 0.14347
285 0.147308
290 0.15417
295 0.171783
300 0.113879
305 0.165316
310 0.121439
315 0.104167
320 0.163875
325 0.130921
330 0.140207
335 0.116661
340 0.125425
345 0.128397
350 0.142227
355 0.125455
360 0.124962
365 0.147297
370 0.122943
375 0.129288
380 0.124016
385 0.122232
390 0.166267
395 0.144666
400 0.231908
405 0.185867
410 0.208052
415 0.183574
420 0.200142
425 0.211668
430 0.176945
435 0.238491
440 0.271498
445 0.300159
450 0.421583
455 11.3114
460 169.513
465 253.389
470 61.1303
475 8.27748
480 2.2665
485 1.39135
490 1.41941
495 1.71592
500 1.72752
505 1.60149
510 1.60151
515 1.53139
520 1.72427
525 1.57433
530 2.1239
535 3.35166
540 3.39943
545 2.27142
550 1.79771
555 1.68613
560 1.30703
565 1.05196
570 0.904152
575 0.75182
580 0.688673
585 0.551859
590 0.439308
595 0.396416
600 0.230683
Ex : 473
200 0.132247
205 0.132538
210 0.157804
215 0.121552
220 0.133633
225 0.158067
230 0.164378
235 0.132968
240 0.153786
245 0.148787
250 0.16708
255 0.133116
260 0.14653
265 0.147943
270 0.16179
275 0.136956
280 0.182837
285 0.160582
290 0.121547
295 0.143929
300 0.18167
305 0.184129
310 0.168173
315 0.15469
320 0.145507
325 0.145329
330 0.184849
335 0.150328
340 0.112069
345 0.165467
350 0.150507
355 0.147601
360 0.140985
365 0.174958
370 0.171752
375 0.195553
380 0.158064
385 0.166017
390 0.129788
395 0.152321
400 0.211302
405 0.123907
410 0.200532
415 0.18375
420 0.198381
425 0.205584
430 0.212375
435 0.183029
440 0.172144
445 0.253749
450 0.311603
455 0.443253
460 12.7172
465 182.616
470 247.203
475 57.3574
480 7.83276
485 2.19543
490 1.54787
495 1.38796
500 1.49736
505 1.75382
510 1.57704
515 1.52046
520 1.61434
525 1.69997
530 1.62369
535 1.84449
540 2.74448
545 3.47008
550 2.49481
555 1.72409
560 1.45591
565 1.26524
570 1.03622
575 0.749352
580 0.602625
585 0.5482
590 0.46687
595 0.39871
600 0.146197
Ex : 478
200 0.174015
205 0.17346
210 0.199765
215 0.178481
220 0.163724
225 0.158603
230 0.182351
235 0.145924
240 0.150924
245 0.18716
250 0.188596
255 0.159127
260 0.182234
265 0.163861
270 0.147237
275 0.178666
280 0.181932
285 0.136453
290 0.171794
295 0.178337
300 0.176674
305 0.15815
310 0.177867
315 0.143692
320 0.123612
325 0.184831
330 0.185057
335 0.180659
340 0.18048
345 0.169393
350 0.148687
355 0.147823
360 0.151547
365 0.167756
370 0.199929
375 0.179418
380 0.188253
385 0.262231
390 0.171259
395 0.191757
400 0.163614
405 0.211433
410 0.187368
415 0.17711
420 0.216037
425 0.208806
430 0.238745
435 0.182116
440 0.23904
445 0.250211
450 0.283073
455 0.377294
460 0.495888
465 13.1076
470 183.344
475 246.027
480 59.6989
485 7.9198
490 2.11492
495 1.50689
500 1.43598
505 1.40913
510 1.58513
515 1.67909
520 1.49723
525 1.55209
530 1.71357
535 1.63023
540 1.57056
545 2.34413
550 3.08178
555 2.65496
560 1.6983
565 1.43983
570 1.25746
575 1.03927
580 0.694942
585 0.563452
590 0.489531
595 0.350069
600 0.293038
Ex : 483
200 0.181638
205 0.197278
210 0.155238
215 0.165777
220 0.160861
225 0.16049
230 0.176867
235 0.192314
240 0.167456
245 0.170875
250 0.187191
255 0.17223
260 0.15757
265 0.16342
270 0.17101
275 0.156512
280 0.145182
285 0.119058
290 0.148024
295 0.193452
300 0.146461
305 0.195461
310 0.198577
315 0.18591
320 0.148262
325 0.246771
330 0.20916
335 0.202917
340 0.184422
345 0.176246
350 0.183705
355 0.176995
360 0.187708
365 0.182
370 0.187105
375 0.16495
380 0.203608
385 0.187748
390 0.189298
395 0.133357
400 0.212436
405 0.271616
410 0.274407
415 0.217058
420 0.192073
425 0.244778
430 0.217017
435 0.212709
440 0.257441
445 0.210849
450 0.252024
455 0.270974
460 0.365686
465 0.585475
470 10.8054
475 180.654
480 265.406
485 62.9636
490 8.29002
495 2.20685
500 1.46803
505 1.28538
510 1.51735
515 1.75454
520 1.81665
525 1.71986
530 1.64109
535 1.55301
540 1.54359
545 1.59808
550 1.73406
555 2.69923
560 2.75051
565 1.68542
570 1.09512
575 1.00134
580 0.809844
585 0.698862
590 0.482867
595 0.408583
600 0.71757
Ex : 488
200 0.162797
205 0.169976
210 0.188147
215 0.209694
220 0.163194
225 0.16474
230 0.155992
235 0.20331
240 0.185278
245 0.179423
250 0.183722
255 0.188818
260 0.178215
265 0.192695
270 0.197103
275 0.216185
280 0.253094
285 0.228094
290 0.214079
295 0.195251
300 0.211547
305 0.17511
310 0.256865
315 0.224219
320 0.195451
325 0.173415
330 0.180595
335 0.223481
340 0.19572
345 0.145561
350 0.169515
355 0.205607
360 0.218638
365 0.173423
370 0.205603
375 0.206493
380 0.161504
385 0.17317
390 0.194602
395 0.190407
400 0.224642
405 0.175688
410 0.226027
415 0.205874
420 0.19584
425 0.207269
430 0.203112
435 0.202677
440 0.226061
445 0.186533
450 0.206705
455 0.293132
460 0.337894
465 0.412289
470 0.54187
475 13.2539
480 190.077
485 257.137
490 60.4201
495 7.98479
500 2.16437
505 1.40225
510 1.31498
515 1.61083
520 1.75217
525 1.86887
530 1.8281
535 1.59782
540 1.58676
545 1.52244
550 1.50499
555 1.5396
560 2.11623
565 2.5642
570 1.76415
575 1.02905
580 0.879994
585 0.800961
590 0.595463
595 0.443494
600 0.540024
Ex : 493
200 0.171147
205 0.156603
210 0.169506
215 0.189229
220 0.250876
225 0.166117
230 0.165311
235 0.228165
240 0.16503
245 0.180305
250 0.142606
255 0.171169
260 0.177208
265 0.190127
270 0.172797
275 0.183592
280 0.195751
285 0.14372
290 0.233663
295 0.278252
300 0.186937
305 0.169939
310 0.208561
315 0.201848
320 0.195135
325 0.217536
330 0.198137
335 0.22686
340 0.217835
345 0.179436
350 0.195164
355 0.213217
360 0.165917
365 0.149077
370 0.248152
375 0.198816
380 0.18311
385 0.164885
390 0.166535
395 0.175801
400 0.231944
405 0.246033
410 0.219554
415 0.19421
420 0.211181
425 0.236307
430 0.22164
435 0.231761
440 0.281606
445 0.259878
450 0.293044
455 0.246773
460 0.289278
465 0.311778
470 0.412137
475 0.544475
480 11.5222
485 185.997
490 267.185
495 61.0176
500 8.09527
505 1.95256
510 1.30963
515 1.3489
520 1.56933
525 1.9504
530 1.96951
535 1.66647
540 1.51924
545 1.33705
550 1.21926
555 1.24424
560 1.21464
565 1.53038
570 2.07505
575 1.71702
580 0.947554
585 0.712953
590 0.660431
595 0.511586
600 1.18322
Ex : 498
200 0.271318
205 0.299879
210 0.30358
215 0.266879
220 0.212218
225 0.192224
230 0.281978
235 0.228264
240 0.223592
245 0.258795
250 0.224823
255 0.231952
260 0.217908
265 0.182039
270 0.188936
275 0.203099
280 0.169048
285 0.234309
290 0.224643
295 0.154131
300 0.168499
305 0.19888
310 0.201078
315 0.136325
320 0.223765
325 0.271363
330 0.238432
335 0.269126
340 0.243228
345 0.184847
350 0.297738
355 0.212329
360 0.225903
365 0.22023
370 0.240558
375 0.239672
380 0.199845
385 0.295151
390 0.227994
395 0.240073
400 0.220932
405 0.197296
410 0.213438
415 0.26665
420 0.259985
425 0.233935
430 0.251658
435 0.257925
440 0.229832
445 0.237858
450 0.340195
455 0.338947
460 0.288948
465 0.337552
470 0.419306
475 0.472908
480 0.622635
485 14.0938
490 193.714
495 256.867
500 60.1817
505 8.12472
510 2.15281
515 1.53383
520 1.49464
525 1.60093
530 1.94231
535 1.81567
540 1.69847
545 1.48077
550 1.39271
555 1.25749
560 1.22777
565 1.16249
570 1.25949
575 1.63134
580 1.67457
585 0.965517
590 0.607094
595 0.550952
600 0.577011
Ex : 503
200 0.201283
205 0.248755
210 0.191917
215 0.191391
220 0.211365
225 0.170723
230 0.217395
235 0.25886
240 0.216063
245 0.235426
250 0.238501
255 0.215742
260 0.21074
265 0.173136
270 0.178253
275 0.223976
280 0.261112
285 0.328386
290 0.197926
295 0.301153
300 0.195032
305 0.177896
310 0.214803
315 0.233749
320 0.181235
325 0.205942
330 0.180001
335 0.222008
340 0.127244
345 0.194412
350 0.182769
355 0.180851
360 0.16395
365 0.231607
370 0.208093
375 0.221036
380 0.196117
385 0.206102
390 0.20868
395 0.232785
400 0.207907
405 0.182038
410 0.216032
415 0.210932
420 0.168004
425 0.28329
430 0.223903
435 0.273841
440 0.303347
445 0.280127
450 0.318505
455 0.265166
460 0.29479
465 0.334111
470 0.3593
475 0.408832
480 0.439778
485 0.629602
490 12.5177
495 196.441
500 274.547
505 64.2403
510 8.59799
515 2.18185
520 1.69978
525 1.44648
530 1.39326
535 1.80873
540 1.64892
545 1.57167
550 1.5635
555 1.29691
560 1.22302
565 1.10874
570 0.930154
575 0.691098
580 1.13105
585 1.29367
590 1.06805
595 0.68343
600 0.421486
Ex : 508
200 0.197718
205 0.240083
210 0.210054
215 0.236039
220 0.18846
225 0.217882
230 0.303219
235 0.206958
240 0.198229
245 0.236591
250 0.237979
255 0.246496
260 0.245472
265 0.230294
270 0.216338
275 0.249767
280 0.252732
285 0.171247
290 0.177267
295 0.270095
300 0.217272
305 0.181591
310 0.209017
315 0.194145
320 0.258878
325 0.251323
330 0.254591
335 0.247643
340 0.218126
345 0.236144
350 0.262285
355 0.259092
360 0.244807
365 0.206114
370 0.250585
375 0.184966
380 0.247185
385 0.272459
390 0.286193
395 0.257847
400 0.199541
405 0.230119
410 0.23149
415 0.264792
420 0.304366
425 0.201623
430 0.245672
435 0.303538
440 0.260851
445 0.252752
450 0.247621
455 0.265443
460 0.26274
465 0.32405
470 0.301458
475 0.425384
480 0.404202
485 0.513964
490 0.569851
495 13.5031
500 191.175
505 262.751
510 63.626
515 8.46159
520 2.3697
525 1.72065
530 1.52176
535 1.52794
540 1.73461
545 1.70976
550 1.46694
555 1.23299
560 1.02745
565 0.868185
570 0.947231
575 0.756861
580 0.727412
585 0.852416
590 1.2169
595 0.93388
600 1.14527
Ex : 513
200 0.336098
205 0.195244
210 0.214661
215 0.239184
220 0.183613
225 0.247928
230 0.192484
235 0.206879
240 0.19588
245 0.270077
250 0.256326
255 0.208474
260 0.180112
265 0.224319
270 0.225312
275 0.231925
280 0.208724
285 0.250288
290 0.22661
295 0.24258
300 0.222213
305 0.250618
310 0.226915
315 0.165924
320 0.274848
325 0.19811
330 0.273848
335 0.178366
340 0.337945
345 0.243624
350 0.202714
355 0.250481
360 0.227254
365 0.293513
370 0.208368
375 0.232211
380 0.251865
385 0.28393
390 0.239202
395 0.287385
400 0.252805
405 0.246236
410 0.306916
415 0.174243
420 0.220018
425 0.211437
430 0.381552
435 0.377193
440 0.254969
445 0.278377
450 0.292396
455 0.359226
460 0.249707
465 0.306411
470 0.275604
475 0.309665
480 0.369167
485 0.363687
490 0.566847
495 0.64897
500 12.6694
505 188.46
510 263.764
515 65.9064
520 8.76769
525 2.39592
530 1.68642
535 1.47465
540 1.34372
545 1.44397
550 1.41127
555 1.30702
560 1.29655
565 0.859661
570 0.842177
575 0.797907
580 0.695719
585 0.516211
590 0.685533
595 0.757269
600 0.470497
Ex : 518
200 0.272828
205 0.264531
210 0.234391
215 0.203757
220 0.259788
225 0.260355
230 0.256986
235 0.235981
240 0.235405
245 0.262529
250 0.256165
255 0.248712
260 0.263343
265 0.256087
270 0.229039
275 0.245578
280 0.229105
285 0.231184
290 0.214637
295 0.222388
300 0.204068
305 0.280543
310 0.218383
315 0.246846
320 0.249531
325 0.215961
330 0.246928
335 0.247213
340 0.279056
345 0.245158
350 0.192676
355 0.229794
360 0.236119
365 0.23928
370 0.256397
375 0.231697
380 0.275023
385 0.203034
390 0.243633
395 0.245253
400 0.290179
405 0.352398
410 0.25507
415 0.296228
420 0.24842
425 0.258662
430 0.332273
435 0.325672
440 0.227657
445 0.231207
450 0.246789
455 0.280859
460 0.358975
465 0.305007
470 0.339086
475 0.342497
480 0.254299
485 0.387148
490 0.470832
495 0.509325
500 0.638195
505 12.8242
510 189.916
515 274.289
520 68.3526
525 9.0556
530 2.27806
535 1.61178
540 1.31977
545 1.19018
550 1.24922
555 1.16387
560 1.12517
565 0.937428
570 0.922358
575 0.751376
580 0.653214
585 0.475604
590 0.417945
595 0.588427
600 0.479149
Ex : 523
200 0.287168
205 0.276399
210 0.258527
215 0.240101
220 0.234012
225 0.239025
230 0.242742
235 0.228376
240 0.243148
245 0.248425
250 0.221636
255 0.227202
260 0.249919
265 0.233823
270 0.276563
275 0.301206
280 0.297693
285 0.279178
290 0.290792
295 0.246099
300 0.247611
305 0.218526
310 0.203086
315 0.216793
320 0.219178
325 0.253829
330 0.298749
335 0.256459
340 0.247006
345 0.245764
350 0.248921
355 0.250389
360 0.263996
365 0.293683
370 0.319358
375 0.22189
380 0.268205
385 0.268546
390 0.234649
395 0.261416
400 0.240814
405 0.230219
410 0.242071
415 0.253014
420 0.248261
425 0.325135
430 0.299748
435 0.245084
440 0.240478
445 0.247918
450 0.262173
455 0.233579
460 0.263979
465 0.286659
470 0.289997
475 0.352552
480 0.306048
485 0.355521
490 0.341541
495 0.386587
500 0.435298
505 0.552001
510 11.9245
515 179.406
520 267.66
525 68.0974
530 9.08294
535 2.13693
540 1.49589
545 1.39249
550 1.23998
555 1.18066
560 1.22626
565 1.00473
570 0.837019
575 0.761382
580 0.587615
585 0.461254
590 0.413056
595 0.393432
600 0.770704
Ex : 528
200 0.351039
205 0.247085
210 0.241173
215 0.214149
220 0.254519
225 0.226133
230 0.325487
235 0.189748
240 0.191939
245 0.186364
250 0.260308
255 0.235274
260 0.259526
265 0.303009
270 0.189997
275 0.269212
280 0.203875
285 0.209192
290 0.234254
295 0.266077
300 0.281393
305 0.239278
310 0.243135
315 0.273998
320 0.318575
325 0.255888
330 0.272489
335 0.226767
340 0.248587
345 0.252395
350 0.218606
355 0.294509
360 0.267568
365 0.325928
370 0.257696
375 0.192205
380 0.347325
385 0.330669
390 0.155938
395 0.282663
400 0.238222
405 0.280276
410 0.279674
415 0.339943
420 0.22077
425 0.271054
430 0.33753
435 0.297969
440 0.277373
445 0.264807
450 0.267663
455 0.245588
460 0.301265
465 0.336669
470 0.299022
475 0.28191
480 0.350027
485 0.36401
490 0.40122
495 0.400888
500 0.448386
505 0.457894
510 0.626865
515 11.2249
520 174.941
525 258.362
530 65.2699
535 8.49171
540 2.01328
545 1.31059
550 1.03464
555 0.877358
560 0.875593
565 0.996003
570 0.873517
575 0.742985
580 0.480505
585 0.482579
590 0.435508
595 0.438016
600 0.49787
Ex : 533
200 0.309404
205 0.265673
210 0.286941
215 0.230074
220 0.30225
225 0.304705
230 0.280692
235 0.325722
240 0.216902
245 0.320366
250 0.281336
255 0.262464
260 0.143961
265 0.306602
270 0.245401
275 0.308091
280 0.388959
285 0.23385
290 0.320596
295 0.24765
300 0.238241
305 0.286253
310 0.339824
315 0.169573
320 0.301414
325 0.272617
330 0.187426
335 0.250786
340 0.262114
345 0.362457
350 0.244995
355 0.267345
360 0.322297
365 0.244701
370 0.336455
375 0.285234
380 0.300791
385 0.251584
390 0.332432
395 0.303957
400 0.3332
405 0.306619
410 0.29923
415 0.20699
420 0.3225
425 0.271118
430 0.351368
435 0.273036
440 0.370257
445 0.302239
450 0.257218
455 0.298177
460 0.308586
465 0.307337
470 0.306062
475 0.323477
480 0.297044
485 0.244647
490 0.283792
495 0.409975
500 0.44615
505 0.424095
510 0.525559
515 0.711145
520 10.613
525 168.664
530 263.552
535 69.8353
540 9.10217
545 1.96361
550 1.1707
555 1.11332
560 0.96441
565 0.909668
570 0.929256
575 0.694614
580 0.620735
585 0.571847
590 0.521905
595 0.532553
600 0.0606025
Ex : 538
200 0.273248
205 0.27137
210 0.293511
215 0.319666
220 0.24761
225 0.259082
230 0.264756
235 0.229813
240 0.147495
245 0.185704
250 0.266271
255 0.27503
260 0.218511
265 0.33417
270 0.29155
275 0.274403
280 0.230783
285 0.241917
290 0.250579
295 0.213666
300 0.221039
305 0.367928
310 0.273577
315 0.234215
320 0.236546
325 0.286138
330 0.22499
335 0.292228
340 0.279144
345 0.332572
350 0.273288
355 0.236106
360 0.22333
365 0.228838
370 0.275786
375 0.219271
380 0.310013
385 0.25708
390 0.269494
395 0.35012
400 0.326696
405 0.279732
410 0.402913
415 0.270646
420 0.284753
425 0.301437
430 0.37975
435 0.288233
440 0.288151
445 0.2598
450 0.277301
455 0.341494
460 0.352039
465 0.373062
470 0.274643
475 0.326446
480 0.333472
485 0.287079
490 0.280358
495 0.336974
500 0.359953
505 0.338001
510 0.380177
515 0.44706
520 0.728095
525 9.30587
530 163.381
535 256.723
540 68.4389
545 8.8979
550 1.7583
555 1.18064
560 0.905924
565 0.804799
570 0.65536
575 0.688527
580 0.708633
585 0.689913
590 0.446869
595 0.465866
600 0.0530138
Ex : 543
200 0.237972
205 0.279319
210 0.312647
215 0.355022
220 0.345757
225 0.300389
230 0.280771
235 0.245103
240 0.283858
245 0.259388
250 0.316306
255 0.321002
260 0.349003
265 0.316301
270 0.337453
275 0.310881
280 0.228749
285 0.260044
290 0.322038
295 0.324515
300 0.256839
305 0.25049
310 0.297687
315 0.266133
320 0.232608
325 0.245224
330 0.266208
335 0.379264
340 0.343059
345 0.449948
350 0.299107
355 0.307737
360 0.415982
365 0.342096
370 0.276844
375 0.349816
380 0.311274
385 0.260118
390 0.294366
395 0.309271
400 0.333767
405 0.290355
410 0.224334
415 0.224154
420 0.346587
425 0.315808
430 0.345622
435 0.262424
440 0.309007
445 0.322337
450 0.27021
455 0.355092
460 0.266635
465 0.36151
470 0.373336
475 0.288773
480 0.234586
485 0.211133
490 0.247441
495 0.265444
500 0.348166
505 0.324683
510 0.337957
515 0.476145
520 0.420126
525 0.585953
530 8.74833
535 151.179
540 247.035
545 68.8871
550 8.83703
555 1.72172
560 0.83576
565 0.760499
570 0.660073
575 0.545664
580 0.650455
585 0.645143
590 0.469915
595 0.481687
600 0.860454
Ex : 548
200 0.236604
205 0.330352
210 0.296911
215 0.308853
220 0.276875
225 0.357616
230 0.29021
235 0.355076
240 0.329151
245 0.362101
250 0.342963
255 0.251292
260 0.220565
265 0.268003
270 0.271063
275 0.304302
280 0.208007
285 0.280032
290 0.294455
295 0.27229
300 0.208889
305 0.335846
310 0.33003
315 0.26896
320 0.288778
325 0.232575
330 0.262512
335 0.333037
340 0.266091
345 0.303785
350 0.279572
355 0.229938
360 0.264428
365 0.226584
370 0.268082
375 0.258266
380 0.237869
385 0.327936
390 0.342428
395 0.322966
400 0.356579
405 0.345177
410 0.400262
415 0.279124
420 0.350483
425 0.338164
430 0.267711
435 0.415828
440 0.369165
445 0.336751
450 0.308636
455 0.228854
460 0.210564
465 0.302448
470 0.309442
475 0.290762
480 0.421291
485 0.406494
490 0.355534
495 0.306108
500 0.339263
505 0.316309
510 0.321201
515 0.376396
520 0.402294
525 0.546308
530 0.606604
535 9.2533
540 151.8
545 246.243
550 69.8859
555 8.78486
560 1.66686
565 0.835535
570 0.869371
575 0.511235
580 0.623382
585 0.456319
590 0.504959
595 0.356543
600 0.354322
Ex : 553
200 0.289321
205 0.291867
210 0.327154
215 0.343175
220 0.365174
225 0.288331
230 0.26848
235 0.261432
240 0.290334
245 0.244053
250 0.270573
255 0.382585
260 0.323527
265 0.237042
270 0.306742
275 0.32894
280 0.304005
285 0.228987
290 0.291152
295 0.286489
300 0.267443
305 0.246164
310 0.310328
315 0.240579
320 0.250502
325 0.28909
330 0.266638
335 0.323643
340 0.344134
345 0.306485
350 0.28366
355 0.286337
360 0.300078
365 0.275441
370 0.265281
375 0.256681
380 0.310605
385 0.273971
390 0.289607
395 0.34935
400 0.309064
405 0.332673
410 0.250043
415 0.350622
420 0.361061
425 0.26418
430 0.298945
435 0.311901
440 0.35028
445 0.315945
450 0.275804
455 0.343264
460 0.351985
465 0.349301
470 0.239343
475 0.3551
480 0.326413
485 0.33159
490 0.346843
495 0.393869
500 0.375868
505 0.383168
510 0.382494
515 0.429273
520 0.314943
525 0.469626
530 0.558017
535 0.623512
540 8.19469
545 142.227
550 238.689
555 67.0498
560 8.54676
565 1.59256
570 0.714097
575 0.657314
580 0.520842
585 0.47572
590 0.417457
595 0.496557
600 0.320124
Ex : 558
200 0.361605
205 0.324949
210 0.423711
215 0.316609
220 0.24031
225 0.26773
230 0.283322
235 0.34974
240 0.279088
245 0.299175
250 0.325768
255 0.2671
260 0.299516
265 0.335393
270 0.380962
275 0.281728
280 0.242441
285 0.320215
290 0.286521
295 0.288105
300 0.272258
305 0.301316
310 0.306009
315 0.390807
320 0.318403
325 0.261238
330 0.271459
335 0.264556
340 0.351478
345 0.306155
350 0.299978
355 0.270731
360 0.325878
365 0.279777
370 0.260745
375 0.26398
380 0.314574
385 0.240741
390 0.338105
395 0.364569
400 0.359781
405 0.302164
410 0.268235
415 0.419765
420 0.328527
425 0.344508
430 0.406163
435 0.370558
440 0.381948
445 0.324105
450 0.253597
455 0.332063
460 0.351977
465 0.330883
470 0.365987
475 0.452403
480 0.316402
485 0.32072
490 0.299595
495 0.299855
500 0.388547
505 0.326644
510 0.341918
515 0.417759
520 0.369615
525 0.518485
530 0.509141
535 0.494849
540 0.577333
545 7.82209
550 140.892
555 242.317
560 68.265
565 8.60709
570 1.63991
575 0.698842
580 0.697804
585 0.520243
590 0.445543
595 0.498583
600 0.0626448
Ex : 563
200 0.312439
205 0.314176
210 0.261527
215 0.28438
220 0.277718
225 0.297901
230 0.340877
235 0.30801
240 0.314688
245 0.265318
250 0.279432
255 0.316234
260 0.332316
265 0.347804
270 0.325479
275 0.290717
280 0.347547
285 0.451642
290 0.321369
295 0.358257
300 0.261625
305 0.381778
310 0.307872
315 0.291425
320 0.281773
325 0.288316
330 0.389147
335 0.328968
340 0.280161
345 0.252118
350 0.407908
355 0.315442
360 0.399655
365 0.281693
370 0.474503
375 0.375921
380 0.332166
385 0.371994
390 0.379954
395 0.361254
400 0.370329
405 0.31758
410 0.276153
415 0.328236
420 0.308722
425 0.302132
430 0.402647
435 0.326825
440 0.410161
445 0.318168
450 0.426264
455 0.302
460 0.387002
465 0.225026
470 0.259971
475 0.345647
480 0.407573
485 0.330965
490 0.321903
495 0.312871
500 0.304568
505 0.386338
510 0.314724
515 0.323109
520 0.349701
525 0.355744
530 0.396023
535 0.451966
540 0.536748
545 0.663431
550 7.19635
555 134.269
560 230.048
565 66.9324
570 8.25033
575 1.50311
580 0.666942
585 0.556244
590 0.441763
595 0.610587
600 0.199624
Ex : 568
200 0.324667
205 0.259547
210 0.283806
215 0.279996
220 0.373675
225 0.321614
230 0.41389
235 0.337083
240 0.352301
245 0.360296
250 0.305808
255 0.276942
260 0.368831
265 0.410371
270 0.310947
275 0.318126
280 0.253868
285 0.337855
290 0.398368
295 0.2422
300 0.28924
305 0.300836
310 0.298702
315 0.259116
320 0.278506
325 0.319252
330 0.337703
335 0.381203
340 0.212874
345 0.280678
350 0.37018
355 0.297411
360 0.31687
365 0.279765
370 0.253387
375 0.427769
380 0.383677
385 0.355862
390 0.362697
395 0.31903
400 0.355699
405 0.378622
410 0.306774
415 0.301704
420 0.220839
425 0.332638
430 0.384707
435 0.364256
440 0.42166
445 0.356992
450 0.350166
455 0.421297
460 0.416438
465 0.401207
470 0.331915
475 0.286406
480 0.355831
485 0.349915
490 0.283743
495 0.329492
500 0.282001
505 0.268834
510 0.3736
515 0.374484
520 0.343462
525 0.38571
530 0.305985
535 0.430889
540 0.367828
545 0.410347
550 0.503435
555 5.60927
560 119.771
565 221.614
570 67.212
575 8.65167
580 1.40098
585 0.555661
590 0.481332
595 0.440106
600 0.130087
Ex : 573
200 0.362652
205 0.369412
210 0.3119
215 0.353718
220 0.310527
225 0.362996
230 0.357699
235 0.282298
240 0.281355
245 0.330889
250 0.389026
255 0.361581
260 0.296006
265 0.386954
270 0.272098
275 0.336658
280 0.30363
285 0.319226
290 0.293327
295 0.316188
300 0.283449
305 0.283328
310 0.257669
315 0.281277
320 0.287739
325 0.303778
330 0.324328
335 0.367456
340 0.392591
345 0.329885
350 0.311387
355 0.278241
360 0.250032
365 0.281455
370 0.400777
375 0.418925
380 0.317663
385 0.389669
390 0.347375
395 0.34194
400 0.40291
405 0.378855
410 0.285621
415 0.36555
420 0.35084
425 0.329609
430 0.240995
435 0.290175
440 0.338769
445 0.359463
450 0.439312
455 0.317853
460 0.281657
465 0.415023
470 0.424251
475 0.356831
480 0.389188
485 0.376323
490 0.414694
495 0.357533
500 0.303615
505 0.432359
510 0.254852
515 0.322531
520 0.398036
525 0.316239
530 0.409133
535 0.405296
540 0.364078
545 0.431404
550 0.444719
555 0.478665
560 5.09322
565 102.383
570 202.245
575 61.6905
580 7.56835
585 1.51096
590 0.622322
595 0.617057
600 1.22614
Ex : 578
200 0.35595
205 0.397291
210 0.353553
215 0.332864
220 0.28459
225 0.322732
230 0.313967
235 0.296603
240 0.293435
245 0.287211
250 0.340447
255 0.395773
260 0.35622
265 0.427697
270 0.339624
275 0.346159
280 0.330963
285 0.363458
290 0.243508
295 0.382992
300 0.371097
305 0.361954
310 0.352541
315 0.368876
320 0.362079
325 0.333627
330 0.296347
335 0.284892
340 0.465336
345 0.331167
350 0.301916
355 0.33174
360 0.323483
365 0.311116
370 0.417377
375 0.44985
380 0.32818
385 0.443976
390 0.386559
395 0.314212
400 0.326768
405 0.458408
410 0.409371
415 0.345806
420 0.442433
425 0.349109
430 0.269406
435 0.297669
440 0.364806
445 0.299109
450 0.255186
455 0.370478
460 0.356489
465 0.363086
470 0.450126
475 0.397546
480 0.30983
485 0.336862
490 0.311073
495 0.299487
500 0.33301
505 0.37986
510 0.48585
515 0.435569
520 0.391808
525 0.349229
530 0.472331
535 0.412905
540 0.453662
545 0.421299
550 0.368164
555 0.507013
560 0.499204
565 4.39097
570 94.0471
575 183.582
580 55.5774
585 7.09505
590 1.27689
595 0.632421
600 0.488214
Ex : 583
200 0.534302
205 0.284903
210 0.324364
215 0.467092
220 0.466365
225 0.401257
230 0.316119
235 0.331484
240 0.336468
245 0.364359
250 0.440419
255 0.302096
260 0.271591
265 0.314709
270 0.302317
275 0.313796
280 0.287121
285 0.361821
290 0.359522
295 0.315901
300 0.399562
305 0.264795
310 0.324047
315 0.312257
320 0.337541
325 0.360261
330 0.369128
335 0.357754
340 0.416666
345 0.403313
350 0.453454
355 0.458839
360 0.263637
365 0.474826
370 0.421596
375 0.37857
380 0.338591
385 0.364007
390 0.306542
395 0.295309
400 0.455599
405 0.450497
410 0.353354
415 0.393503
420 0.335855
425 0.427723
430 0.326027
435 0.320482
440 0.282948
445 0.328638
450 0.275997
455 0.517662
460 0.343287
465 0.383535
470 0.318435
475 0.35554
480 0.337953
485 0.511243
490 0.360634
495 0.371754
500 0.410911
505 0.434259
510 0.36051
515 0.321329
520 0.390119
525 0.478837
530 0.39833
535 0.399744
540 0.369063
545 0.429216
550 0.441662
555 0.421781
560 0.561062
565 0.673628
570 3.92783
575 83.8857
580 155.503
585 46.1777
590 5.93902
595 1.10875
600 0.455922
Ex : 588
200 0.537863
205 0.390227
210 0.352555
215 0.42493
220 0.403963
225 0.271934
230 0.403408
235 0.42296
240 0.278265
245 0.388251
250 0.363921
255 0.318947
260 0.31402
265 0.346692
270 0.341106
275 0.374412
280 0.393873
285 0.207122
290 0.290582
295 0.352763
300 0.26557
305 0.346131
310 0.387692
315 0.252817
320 0.340185
325 0.297691
330 0.451255
335 0.333333
340 0.331969
345 0.335848
350 0.366952
355 0.308197
360 0.286449
365 0.381903
370 0.229975
375 0.361578
380 0.412555
385 0.370409
390 0.460703
395 0.327967
400 0.368627
405 0.413352
410 0.37084
415 0.340934
420 0.380838
425 0.387393
430 0.326252
435 0.323326
440 0.453041
445 0.395375
450 0.383169
455 0.36019
460 0.3862
465 0.356786
470 0.352592
475 0.352069
480 0.356408
485 0.417453
490 0.365463
495 0.349137
500 0.35668
505 0.430471
510 0.451744
515 0.302931
520 0.297133
525 0.31381
530 0.475735
535 0.342841
540 0.373651
545 0.283422
550 0.335705
555 0.291622
560 0.372178
565 0.449742
570 0.430443
575 3.44891
580 67.8141
585 130.294
590 39.9437
595 5.19137
600 0.590758
Ex : 593
200 0.307402
205 0.391873
210 0.407617
215 0.343212
220 0.305273
225 0.3639
230 0.388303
235 0.359282
240 0.344326
245 0.357452
250 0.279695
255 0.258622
260 0.449641
265 0.417313
270 0.336665
275 0.420074
280 0.42557
285 0.385094
290 0.501816
295 0.356476
300 0.336795
305 0.428362
310 0.280178
315 0.366857
320 0.320426
325 0.384926
330 0.417819
335 0.436026
340 0.421229
345 0.477841
350 0.329233
355 0.381461
360 0.407021
365 0.399908
370 0.318118
375 0.54975
380 0.403791
385 0.310103
390 0.273561
395 0.365624
400 0.358388
405 0.473151
410 0.332968
415 0.391446
420 0.324101
425 0.459316
430 0.341392
435 0.375901
440 0.418223
445 0.34842
450 0.306931
455 0.29961
460 0.397661
465 0.355005
470 0.271101
475 0.390686
480 0.411948
485 0.539724
490 0.339513
495 0.357126
500 0.381569
505 0.429724
510 0.493598
515 0.444339
520 0.506392
525 0.497007
530 0.52115
535 0.472926
540 0.421484
545 0.328864
550 0.463093
555 0.421252
560 0.449548
565 0.440902
570 0.467828
575 0.564632
580 3.11173
585 60.8811
590 108.866
595 33.3522
600 4.23473
Ex : 598
200 0.478759
205 0.417164
210 0.400722
215 0.318453
220 0.364164
225 0.261964
230 0.350848
235 0.339424
240 0.308656
245 0.584641
250 0.415669
255 0.364658
260 0.333609
265 0.349772
270 0.457923
275 0.344165
280 0.406656
285 0.291332
290 0.376314
295 0.318032
300 0.313048
305 0.266726
310 0.437113
315 0.359388
320 0.252469
325 0.353052
330 0.368974
335 0.378346
340 0.361212
345 0.347565
350 0.433482
355 0.378346
360 0.339015
365 0.330229
370 0.379187
375 0.398229
380 0.401631
385 0.427499
390 0.359044
395 0.327998
400 0.402298
405 0.3451
410 0.402732
415 0.275907
420 0.372388
425 0.456981
430 0.510139
435 0.469377
440 0.541646
445 0.427527
450 0.387077
455 0.407001
460 0.436462
465 0.373179
470 0.445743
475 0.341368
480 0.399042
485 0.440002
490 0.338788
495 0.425532
500 0.417861
505 0.506774
510 0.456742
515 0.442484
520 0.501769
525 0.525135
530 0.376767
535 0.324567
540 0.383122
545 0.486886
550 0.415084
555 0.32809
560 0.402694
565 0.338058
570 0.374012
575 0.38785
580 0.464123
585 3.06892
590 57.6787
595 99.1703
600 61.6456
Ex : 603
200 0.396898
205 0.490613
210 0.396677
215 0.295847
220 0.399252
225 0.336298
230 0.369713
235 0.265429
240 0.306864
245 0.31531
250 0.266853
255 0.373157
260 0.358979
265 0.380663
270 0.345134
275 0.364229
280 0.349819
285 0.392688
290 0.421357
295 0.386435
300 0.486491
305 0.364493
310 0.270837
315 0.293146
320 0.301317
325 0.370031
330 0.350841
335 0.348305
340 0.351152
345 0.376005
350 0.480902
355 0.461398
360 0.411593
365 0.431713
370 0.401176
375 0.395075
380 0.382139
385 0.414514
390 0.388153
395 0.514814
400 0.465165
405 0.37871
410 0.399727
415 0.352182
420 0.456022
425 0.401905
430 0.391155
435 0.525443
440 0.49597
445 0.517312
450 0.406049
455 0.514745
460 0.310294
465 0.465959
470 0.406613
475 0.38544
480 0.481604
485 0.376954
490 0.331586
495 0.350018
500 0.402025
505 0.329116
510 0.436156
515 0.382372
520 0.39889
525 0.342746
530 0.357658
535 0.380496
540 0.51931
545 0.478815
550 0.452676
555 0.33918
560 0.445303
565 0.506019
570 0.368494
575 0.590026
580 0.489257
585 0.410626
590 2.80378
595 47.4405
600 87.7349
