File format V 1.0
ven. 9. déc. 20:12:41 2016
Operator : 
Comments : 

=============================================
SpectroFluorometer parameters
Mode : 3D measurement
Data : Fluorescence
Phospho. : Ordinary
Spectrum : Fluorescence

Scan speed : 2400 nm/mn
Response : 100 ms
PM Voltage : 700 V
Shutter : On

Lambda Ex. Start : 203
Lambda Ex. End : 603
Lambda Ex. Step : 5
Ex. Slit : 5 nm

Lambda Em. Start : 200
Lambda Em. End : 600
Lambda Em. Step : 5
Em. Slit : 5 nm

Repetition : 1
Decal lambda em : 10
=============================================
DATA
Ex : 203
200 17.4691
205 16.5342
210 13.5242
215 15.1686
220 16.6164
225 13.7553
230 16.235
235 14.3973
240 14.8312
245 15.1601
250 20.1202
255 19.3692
260 18.7736
265 16.0337
270 15.2271
275 18.0448
280 15.1814
285 16.7712
290 17.4959
295 11.1011
300 20.2135
305 15.2996
310 15.5858
315 14.4703
320 20.3141
325 17.4652
330 16.6985
335 18.954
340 17.4466
345 13.527
350 15.0427
355 14.8247
360 14.86
365 15.2243
370 16.8839
375 13.9945
380 20.2533
385 15.6774
390 15.425
395 14.4945
400 13.0242
405 17.109
410 15.1485
415 22.9171
420 15.2949
425 14.5623
430 15.4649
435 21.8935
440 18.9083
445 21.0191
450 22.2146
455 16.1046
460 12.6929
465 11.8886
470 17.7563
475 16.9727
480 14.2507
485 17.8111
490 18.3706
495 15.8508
500 17.6105
505 17.5921
510 13.6377
515 17.7402
520 16.9427
525 11.415
530 18.2595
535 14.9464
540 18.4041
545 18.2812
550 14.1161
555 16.778
560 11.552
565 20.9392
570 15.3071
575 17.6279
580 14.7137
585 14.5353
590 14.7297
595 14.2178
600 3.68574
Ex : 208
200 18.7171
205 18.7848
210 16.3975
215 14.6751
220 11.6566
225 13.728
230 21.1257
235 16.3262
240 15.067
245 18.782
250 14.522
255 18.9646
260 15.3397
265 19.3733
270 16.0132
275 17.5136
280 16.415
285 16.3954
290 17.7122
295 18.9531
300 20.8254
305 12.4651
310 16.0766
315 14.4661
320 14.7979
325 12.5426
330 15.2575
335 14.7822
340 18.3266
345 18.2975
350 17.2239
355 17.7076
360 16.7723
365 14.7794
370 13.8495
375 17.0057
380 16.3149
385 16.0741
390 18.1153
395 14.1194
400 14.5702
405 17.4162
410 20.5866
415 21.5474
420 18.5706
425 14.7893
430 16.21
435 20.2891
440 17.9839
445 15.4768
450 15.3289
455 18.6556
460 14.938
465 15.648
470 19.4784
475 16.9165
480 19.7735
485 15.0267
490 18.9171
495 15.7061
500 15.4939
505 19.3606
510 19.5613
515 16.9781
520 15.635
525 18.9013
530 17.0476
535 16.92
540 21.9315
545 19.1064
550 14.6708
555 13.1325
560 15.9616
565 12.7871
570 19.7258
575 20.4011
580 17.114
585 16.5803
590 18.8225
595 15.5543
600 10.8093
Ex : 213
200 16.7257
205 21.1989
210 15.3396
215 10.6815
220 16.6408
225 17.2471
230 16.9727
235 12.8118
240 10.9594
245 17.2918
250 20.3915
255 18.9875
260 18.2885
265 14.2117
270 15.8129
275 16.3997
280 15.234
285 12.4264
290 12.4556
295 22.9023
300 19.2305
305 14.9529
310 16.9193
315 18.6155
320 12.2752
325 13.9212
330 19.3572
335 16.2733
340 12.8211
345 13.2632
350 15.5476
355 20.7798
360 15.2067
365 17.2528
370 19.3531
375 17.1763
380 18.1515
385 17.2452
390 15.6121
395 17.3379
400 12.0417
405 16.7495
410 19.0564
415 13.9828
420 15.2887
425 11.6521
430 18.3422
435 20.8654
440 18.1032
445 14.554
450 13.15
455 18.6262
460 21.0832
465 12.2087
470 16.7286
475 15.3193
480 17.6335
485 15.0061
490 16.7731
495 15.6032
500 17.7376
505 13.9238
510 18.2639
515 17.4961
520 20.2238
525 14.7028
530 17.1222
535 15.7961
540 14.8489
545 19.7346
550 18.5408
555 17.6131
560 21.0417
565 18.8316
570 23.2828
575 16.6098
580 16.484
585 16.6063
590 16.1303
595 15.015
600 9.68448
Ex : 218
200 17.4205
205 15.848
210 17.2703
215 18.2714
220 18.3964
225 13.6947
230 16.0575
235 14.3562
240 15.6989
245 15.8641
250 12.8029
255 17.9958
260 18.8906
265 16.4371
270 14.6078
275 14.3823
280 16.3161
285 12.4964
290 15.1813
295 13.0556
300 16.7055
305 14.6519
310 15.6841
315 13.5444
320 15.8399
325 13.492
330 13.7901
335 16.3892
340 12.5404
345 15.3742
350 18.4515
355 13.4338
360 16.2792
365 14.5728
370 12.1391
375 12.4643
380 18.4066
385 16.8491
390 18.3709
395 13.8327
400 13.5961
405 14.9661
410 13.3405
415 16.1225
420 20.2838
425 18.095
430 19.9706
435 17.4347
440 20.4941
445 14.3497
450 20.8734
455 17.1526
460 14.8637
465 18.0341
470 22.3335
475 16.8143
480 17.1156
485 13.6686
490 15.5384
495 17.1559
500 20.7714
505 18.4961
510 20.0673
515 18.2191
520 16.1365
525 14.9224
530 15.6085
535 18.0931
540 14.2222
545 9.28463
550 13.9317
555 12.8003
560 16.1698
565 11.891
570 17.4799
575 14.4792
580 19.8231
585 15.2271
590 17.1312
595 18.7705
600 2.13601
Ex : 223
200 13.9086
205 13.6879
210 16.1539
215 14.8525
220 15.7127
225 14.0206
230 13.8338
235 14.1008
240 16.8064
245 11.9384
250 12.9346
255 16.9614
260 14.6602
265 13.4612
270 10.8232
275 13.6438
280 18.4308
285 12.8478
290 11.738
295 14.3778
300 13.2579
305 11.1595
310 13.4479
315 13.9114
320 17.8352
325 16.4796
330 12.2689
335 14.0921
340 11.9798
345 17.2476
350 15.8843
355 14.8132
360 14.783
365 14.7074
370 16.178
375 17.4167
380 17.3823
385 12.6887
390 18.3888
395 16.8661
400 16.8868
405 12.2704
410 16.9609
415 15.8805
420 14.5675
425 14.8664
430 16.4414
435 14.56
440 13.9101
445 15.1299
450 16.2652
455 11.4444
460 15.3209
465 15.6841
470 11.984
475 17.1943
480 18.6532
485 16.4531
490 16.0205
495 13.8016
500 14.315
505 20.9116
510 14.7717
515 11.6261
520 15.2935
525 16.6027
530 21.7334
535 18.924
540 15.2819
545 11.6299
550 12.8133
555 14.8518
560 19.1086
565 15.2414
570 12.558
575 15.3129
580 14.59
585 14.8879
590 15.8997
595 15.922
600 13.8642
Ex : 228
200 12.0934
205 11.7833
210 14.2528
215 12.9163
220 15.3537
225 9.54
230 13.0869
235 13.3911
240 16.5699
245 15.9397
250 17.9483
255 16.6257
260 18.0292
265 11.5045
270 20.9229
275 14.3634
280 17.0178
285 12.5194
290 15.7292
295 12.2637
300 9.88469
305 12.2361
310 13.2349
315 14.7385
320 12.8672
325 18.9746
330 14.7471
335 16.0717
340 14.4652
345 14.0627
350 13.3775
355 15.1123
360 14.8122
365 11.9396
370 15.3742
375 14.1468
380 14.1875
385 13.3293
390 10.2016
395 16.1267
400 16.5598
405 14.0149
410 15.3855
415 14.7861
420 12.1617
425 13.8545
430 14.1983
435 15.1279
440 15.5043
445 12.7121
450 14.8273
455 12.2539
460 17.4058
465 14.5475
470 15.7597
475 18.2612
480 14.4528
485 13.3978
490 17.4484
495 13.146
500 15.5183
505 19.2368
510 14.6855
515 14.038
520 14.1168
525 11.7762
530 12.933
535 18.5299
540 13.5034
545 16.456
550 12.9549
555 13.2209
560 12.4694
565 11.5025
570 11.3984
575 12.5905
580 14.5312
585 13.9593
590 16.5943
595 11.3089
600 45.5971
Ex : 233
200 15.4231
205 9.2777
210 11.7273
215 11.168
220 14.6148
225 11.2557
230 14.3524
235 11.2042
240 10.4699
245 13.3347
250 16.0004
255 14.7924
260 15.1462
265 13.9482
270 15.2339
275 10.7419
280 12.8598
285 11.5582
290 9.97803
295 16.1328
300 15.7366
305 13.1049
310 13.5261
315 13.4878
320 12.3577
325 13.7818
330 12.0318
335 10.3881
340 14.171
345 13.0377
350 13.0171
355 13.4834
360 11.291
365 15.0621
370 11.1724
375 14.9649
380 14.3345
385 13.3589
390 11.0715
395 12.9866
400 14.0059
405 12.3313
410 13.6136
415 12.342
420 13.111
425 14.8755
430 16.1616
435 15.1691
440 17.6227
445 11.579
450 16.5085
455 18.424
460 14.4136
465 12.8655
470 11.6841
475 12.4133
480 12.6481
485 15.2952
490 11.6479
495 14.205
500 10.8756
505 13.6079
510 12.8771
515 13.2418
520 12.4758
525 12.0207
530 11.4129
535 15.054
540 11.6721
545 13.3815
550 11.4465
555 10.3883
560 15.2227
565 11.6386
570 11.6691
575 13.9312
580 11.2538
585 11.9354
590 12.2767
595 14.399
600 5.92188
Ex : 238
200 11.2212
205 13.9413
210 13.2973
215 9.53253
220 12.4756
225 10.8985
230 12.5521
235 9.51151
240 13.764
245 11.7674
250 11.4142
255 10.135
260 10.6944
265 11.9009
270 9.26461
275 11.6776
280 15.7325
285 12.112
290 8.7458
295 12.3808
300 10.7082
305 13.338
310 12.3553
315 11.7155
320 8.91112
325 13.27
330 11.3792
335 12.313
340 9.84343
345 11.7202
350 10.8876
355 10.5516
360 11.3613
365 15.2506
370 13.5093
375 11.8418
380 11.6038
385 10.976
390 10.5671
395 8.30389
400 11.6715
405 14.9406
410 11.3159
415 11.1804
420 12.0251
425 9.35576
430 11.4351
435 11.3236
440 11.9271
445 14.4995
450 14.3472
455 10.2683
460 13.6703
465 12.9158
470 10.6995
475 12.4883
480 11.8083
485 12.3574
490 11.4609
495 10.7143
500 13.4065
505 16.6621
510 10.4692
515 10.4777
520 13.7482
525 11.172
530 11.4388
535 13.2133
540 9.61638
545 13.5827
550 12.7516
555 12.7532
560 12.8984
565 8.76308
570 9.2389
575 9.97861
580 11.0547
585 11.9402
590 9.25606
595 11.8963
600 4.36684
Ex : 243
200 10.1648
205 9.73722
210 10.4511
215 10.6137
220 8.59283
225 11.9871
230 10.3272
235 8.51136
240 10.1785
245 10.3327
250 10.3312
255 10.2534
260 9.89671
265 9.49517
270 9.38579
275 8.68335
280 10.5232
285 9.03925
290 8.14221
295 8.79407
300 9.05681
305 10.5734
310 9.73334
315 11.244
320 10.1517
325 10.0634
330 9.44822
335 9.71402
340 11.0506
345 7.55158
350 8.50885
355 12.3406
360 10.6643
365 11.9505
370 9.23837
375 9.25444
380 10.014
385 10.4398
390 13.085
395 9.20877
400 9.18848
405 7.52535
410 8.85988
415 11.2079
420 11.1275
425 12.0583
430 10.6266
435 12.5435
440 13.4888
445 12.9216
450 11.0506
455 13.3902
460 10.4379
465 10.1901
470 9.16228
475 9.20434
480 9.22408
485 11.7354
490 11.2415
495 11.2027
500 10.3202
505 8.3246
510 12.0231
515 10.2541
520 8.66182
525 9.45057
530 10.9293
535 10.1091
540 11.7439
545 9.71268
550 10.0968
555 10.4558
560 9.8706
565 10.8186
570 8.68972
575 8.52942
580 8.67119
585 9.84879
590 11.922
595 9.26648
600 10.4704
Ex : 248
200 9.5746
205 10.4033
210 7.24471
215 7.72338
220 7.27956
225 6.4497
230 7.74839
235 7.37179
240 9.07308
245 9.27994
250 6.95227
255 5.84519
260 12.722
265 11.6297
270 7.70176
275 6.60461
280 9.25801
285 6.57895
290 8.23276
295 5.91345
300 8.20016
305 6.69213
310 6.60883
315 9.80941
320 7.99687
325 7.04635
330 8.00671
335 8.71258
340 7.47446
345 8.37345
350 8.81901
355 8.19076
360 8.81392
365 8.02891
370 6.46424
375 7.47506
380 7.93196
385 11.3266
390 12.4222
395 11.2524
400 8.53174
405 8.11329
410 9.199
415 7.65229
420 9.6255
425 9.38135
430 8.16561
435 10.7562
440 8.62785
445 8.9522
450 10.9119
455 9.10111
460 8.20333
465 8.09403
470 7.74595
475 11.7632
480 8.0143
485 8.6128
490 8.31711
495 9.34165
500 8.29851
505 8.69792
510 7.42525
515 7.72191
520 6.30036
525 9.33405
530 9.97057
535 8.68189
540 8.29561
545 9.13264
550 7.89447
555 8.96865
560 11.0773
565 8.03609
570 9.07424
575 8.72612
580 7.14331
585 8.08359
590 9.60872
595 9.47431
600 3.0721
Ex : 253
200 5.27228
205 6.7831
210 6.8209
215 4.91108
220 6.36427
225 6.12432
230 6.70614
235 7.62541
240 6.60187
245 6.23875
250 6.18768
255 7.31383
260 6.3147
265 7.30819
270 5.99676
275 6.27573
280 6.06512
285 7.76231
290 5.36805
295 5.54093
300 7.58813
305 7.46055
310 6.43337
315 6.77727
320 7.58433
325 6.40297
330 6.44745
335 8.08315
340 8.05323
345 7.99939
350 7.38797
355 6.39654
360 7.03902
365 7.69322
370 6.93488
375 6.6883
380 6.65447
385 7.67054
390 8.42128
395 7.48742
400 8.59787
405 7.08361
410 7.76355
415 6.57261
420 9.9763
425 7.99005
430 8.86917
435 6.7876
440 8.55056
445 8.19212
450 9.24452
455 7.30781
460 7.93927
465 7.45424
470 9.2241
475 8.39217
480 7.89051
485 5.89801
490 8.27923
495 8.24483
500 9.30666
505 7.38495
510 6.42035
515 6.41805
520 6.29915
525 7.59534
530 7.20056
535 5.1788
540 5.49603
545 6.64087
550 6.24344
555 6.29314
560 9.62716
565 6.07021
570 6.68826
575 5.05526
580 6.7506
585 5.89356
590 8.64417
595 6.55928
600 4.3897
Ex : 258
200 4.15551
205 4.68669
210 5.14477
215 4.14973
220 5.14665
225 4.05396
230 4.47974
235 5.57651
240 5.79521
245 5.80586
250 5.28085
255 7.22192
260 4.69147
265 4.64802
270 5.74487
275 6.30687
280 6.52979
285 6.47887
290 5.00495
295 6.38086
300 4.74288
305 5.93036
310 6.61649
315 5.00777
320 6.87176
325 4.59392
330 5.26235
335 4.88304
340 5.48239
345 5.25085
350 6.79746
355 8.77025
360 8.00463
365 4.86822
370 8.89714
375 6.10724
380 5.33064
385 5.44124
390 4.71833
395 7.54599
400 6.27302
405 5.3721
410 6.33918
415 7.07572
420 6.25122
425 6.06864
430 8.93682
435 6.27938
440 6.15586
445 6.44325
450 6.55609
455 6.61694
460 5.88673
465 5.3496
470 5.00496
475 6.47582
480 5.44196
485 7.31212
490 6.07912
495 5.11413
500 5.36231
505 5.46598
510 4.63537
515 4.9975
520 7.12349
525 7.43059
530 6.13314
535 5.53065
540 5.59108
545 5.48369
550 5.97056
555 4.04083
560 4.7276
565 4.96
570 5.30791
575 4.73452
580 5.19968
585 5.44016
590 4.44747
595 3.91595
600 0.513789
Ex : 263
200 4.36295
205 3.91122
210 3.26324
215 4.45284
220 4.20696
225 3.69995
230 3.48334
235 2.73202
240 3.73639
245 5.13484
250 4.40087
255 4.63196
260 3.86098
265 4.61094
270 4.2161
275 4.45464
280 2.94398
285 4.58382
290 5.64451
295 3.67203
300 3.88603
305 4.01671
310 3.9559
315 3.42123
320 3.86804
325 3.87337
330 2.97567
335 3.33683
340 4.86621
345 4.9521
350 3.78947
355 4.28913
360 4.14016
365 4.63062
370 4.39769
375 4.0519
380 5.51124
385 3.60888
390 4.65084
395 4.11962
400 5.07213
405 5.5912
410 4.24788
415 3.97994
420 4.94798
425 4.64559
430 5.1885
435 3.34183
440 4.83537
445 4.08699
450 4.77294
455 3.89642
460 4.4143
465 4.06606
470 3.67619
475 4.88303
480 4.14762
485 3.75995
490 4.9315
495 3.58337
500 3.99909
505 4.85373
510 4.70181
515 3.83622
520 4.46312
525 4.0527
530 4.71715
535 4.47202
540 4.04181
545 4.81744
550 3.88579
555 3.81295
560 4.42861
565 4.16774
570 3.53789
575 5.04577
580 4.26242
585 4.32572
590 2.90251
595 3.87112
600 0.440518
Ex : 268
200 2.63902
205 3.30835
210 2.80541
215 2.60075
220 3.76562
225 3.44455
230 2.70767
235 3.59247
240 2.64132
245 3.05601
250 3.26359
255 3.33276
260 3.22604
265 3.10382
270 4.04942
275 4.12637
280 3.57284
285 3.56572
290 3.06755
295 3.47532
300 3.10591
305 3.72496
310 3.73217
315 3.13539
320 3.28688
325 2.92777
330 2.50593
335 2.54124
340 3.10425
345 3.14069
350 4.11689
355 3.47103
360 3.31946
365 4.23671
370 3.17238
375 3.3014
380 2.85875
385 4.96733
390 3.37696
395 3.24501
400 3.28422
405 2.9698
410 3.66095
415 3.46733
420 3.14867
425 3.77652
430 4.08429
435 3.0952
440 3.66756
445 3.53482
450 5.36974
455 3.94961
460 3.75438
465 3.95939
470 3.08066
475 3.43477
480 4.00178
485 2.95923
490 4.21033
495 3.52322
500 3.04452
505 3.86925
510 3.13925
515 3.66149
520 3.4226
525 3.47744
530 3.40563
535 4.0455
540 2.97285
545 2.88429
550 3.42993
555 2.58806
560 3.07316
565 3.83063
570 3.37486
575 3.62338
580 4.06765
585 3.08387
590 3.01903
595 3.5464
600 1.33197
Ex : 273
200 1.84372
205 1.98222
210 2.23735
215 2.86805
220 2.6002
225 2.85209
230 3.48128
235 2.94567
240 3.91131
245 2.16669
250 2.09353
255 2.9823
260 2.41143
265 2.9823
270 2.53439
275 2.34393
280 2.33994
285 3.13064
290 2.13819
295 2.44293
300 2.30519
305 2.64431
310 2.87359
315 1.96501
320 2.02018
325 3.86884
330 3.45267
335 2.86436
340 3.06497
345 3.25099
350 2.96411
355 2.47069
360 2.48003
365 2.88341
370 2.86473
375 3.14337
380 2.57614
385 2.18502
390 2.71383
395 3.0463
400 2.29915
405 3.15668
410 2.41657
415 3.24544
420 2.46661
425 3.4962
430 3.02412
435 2.70847
440 3.10166
445 2.93203
450 3.19658
455 3.58555
460 2.87365
465 2.68401
470 2.76891
475 2.26779
480 2.00045
485 2.18959
490 2.83123
495 2.60671
500 2.9158
505 2.70761
510 2.71243
515 2.4308
520 2.16547
525 3.22359
530 2.64744
535 3.31281
540 3.19849
545 3.06719
550 2.53227
555 2.97339
560 2.34772
565 2.36944
570 2.43826
575 2.26974
580 2.81163
585 2.57436
590 2.79839
595 2.23884
600 0.46329
Ex : 278
200 2.01868
205 2.17276
210 2.7721
215 2.84687
220 2.00712
225 2.00081
230 2.21166
235 1.71958
240 2.39072
245 2.34664
250 1.87408
255 1.85142
260 1.9057
265 1.9565
270 2.30335
275 1.77104
280 2.20163
285 1.9688
290 2.03832
295 1.81094
300 2.22107
305 2.4228
310 1.94642
315 2.54821
320 2.41701
325 1.85386
330 2.72503
335 2.36603
340 1.82045
345 1.71727
350 1.99387
355 2.2346
360 1.7753
365 2.40092
370 2.82447
375 2.47333
380 2.84579
385 2.81305
390 2.91226
395 2.56651
400 2.8631
405 3.02256
410 2.1864
415 2.37024
420 3.62414
425 2.64428
430 2.38078
435 2.13927
440 2.51028
445 2.33866
450 2.23064
455 2.51165
460 2.4207
465 2.74279
470 1.95595
475 2.18145
480 2.18742
485 2.81421
490 1.85762
495 2.11635
500 2.1686
505 2.29465
510 1.84051
515 1.59932
520 2.10292
525 2.12188
530 2.10453
535 2.25113
540 2.01524
545 2.28371
550 2.41049
555 2.26017
560 2.07474
565 2.14506
570 2.53456
575 2.05664
580 1.91728
585 2.10153
590 2.07988
595 1.80378
600 3.66432
Ex : 283
200 1.33592
205 1.8259
210 2.06414
215 1.85816
220 1.64146
225 1.98552
230 1.82262
235 1.53787
240 2.09037
245 2.38336
250 1.70005
255 1.6248
260 2.16651
265 1.7908
270 1.71747
275 1.84388
280 2.07214
285 2.02276
290 1.99621
295 1.61639
300 1.51498
305 1.35207
310 2.09772
315 1.97683
320 1.67059
325 2.08098
330 1.58067
335 2.29032
340 2.24193
345 1.62039
350 1.61394
355 2.15249
360 2.50031
365 2.62909
370 1.96531
375 1.5614
380 1.87147
385 2.10497
390 1.56884
395 2.01902
400 1.97408
405 2.16424
410 2.77696
415 2.23273
420 2.34522
425 1.97475
430 1.9497
435 2.33344
440 1.93365
445 2.43901
450 1.93911
455 1.86797
460 2.53922
465 2.01769
470 2.61303
475 2.57849
480 2.12826
485 1.94356
490 1.92243
495 1.58189
500 1.3205
505 1.5931
510 2.1527
515 1.51015
520 1.65911
525 1.39715
530 1.47048
535 1.66902
540 1.9658
545 1.87226
550 1.98546
555 1.58185
560 2.26788
565 2.54004
570 1.7808
575 1.43317
580 1.5248
585 1.42936
590 2.06489
595 1.28263
600 1.0814
Ex : 288
200 1.65603
205 1.25479
210 1.51353
215 2.0499
220 1.34481
225 1.18871
230 1.58069
235 1.55337
240 1.49858
245 1.52773
250 1.6988
255 1.1466
260 1.75486
265 1.3143
270 1.54667
275 1.40524
280 1.46429
285 1.46826
290 1.4441
295 1.26941
300 1.26339
305 1.85878
310 1.32755
315 1.12304
320 1.39457
325 1.46055
330 1.49722
335 1.43971
340 1.44154
345 1.34241
350 1.35929
355 1.60514
360 1.61803
365 1.81668
370 1.85503
375 2.26465
380 1.8305
385 1.68384
390 1.4813
395 1.79675
400 1.83464
405 1.71187
410 2.10959
415 2.37758
420 1.81535
425 1.6061
430 2.00647
435 1.79104
440 1.65547
445 2.09821
450 1.82509
455 1.81178
460 1.81785
465 1.93314
470 1.40737
475 1.41577
480 1.6463
485 1.59151
490 1.67733
495 1.92838
500 1.57166
505 1.8494
510 1.6145
515 1.2675
520 1.64886
525 1.27323
530 1.77131
535 1.70807
540 1.56688
545 1.24718
550 1.95341
555 1.37931
560 1.5513
565 1.76752
570 2.50738
575 2.35764
580 1.93504
585 1.4937
590 1.71304
595 1.77675
600 1.83033
Ex : 293
200 1.27197
205 1.21826
210 1.47591
215 1.22957
220 1.11462
225 1.11823
230 1.38482
235 1.31893
240 1.46862
245 1.12028
250 0.997847
255 1.06545
260 1.17085
265 1.35971
270 0.93753
275 1.09476
280 1.35935
285 1.36156
290 1.2594
295 1.27242
300 1.40609
305 1.34566
310 0.760957
315 1.41299
320 1.48369
325 1.50271
330 1.5299
335 1.40799
340 1.30428
345 1.08312
350 1.46152
355 1.56366
360 1.47233
365 1.75855
370 1.63916
375 1.55325
380 1.45469
385 1.6653
390 2.03293
395 1.67897
400 2.13173
405 1.82895
410 1.8283
415 1.79769
420 2.11421
425 1.50725
430 1.56275
435 1.71595
440 1.6905
445 1.43688
450 1.71238
455 1.93442
460 1.48087
465 1.72239
470 1.27267
475 1.47788
480 1.24618
485 1.29963
490 1.35466
495 1.88407
500 1.41422
505 1.34102
510 1.93501
515 1.40125
520 1.85753
525 1.42628
530 1.33848
535 1.06866
540 1.2939
545 1.0027
550 1.37769
555 1.50838
560 1.45523
565 1.36023
570 1.38428
575 1.15079
580 1.70034
585 1.40255
590 1.50033
595 1.49838
600 1.35802
Ex : 298
200 1.4094
205 1.07331
210 1.0069
215 0.881439
220 0.995211
225 0.858249
230 1.11812
235 1.13483
240 1.10385
245 1.15393
250 1.19266
255 1.12144
260 1.03106
265 0.985259
270 0.978314
275 1.01496
280 1.53285
285 1.0741
290 1.1565
295 1.102
300 1.1096
305 0.94569
310 1.15469
315 1.01652
320 1.17239
325 0.955009
330 1.02559
335 1.1039
340 1.16127
345 1.32196
350 1.26882
355 1.1452
360 1.23376
365 1.39567
370 1.26594
375 1.46429
380 1.24621
385 1.64894
390 1.38669
395 1.76526
400 1.71699
405 1.47682
410 1.62192
415 1.61465
420 1.45391
425 1.46901
430 1.67451
435 1.80742
440 1.39874
445 1.54489
450 1.45944
455 1.36961
460 1.29215
465 1.30038
470 1.51309
475 1.16952
480 1.16074
485 1.26916
490 1.48006
495 1.11337
500 1.5038
505 1.07931
510 1.20809
515 1.20583
520 1.22611
525 1.1166
530 1.24162
535 1.20452
540 0.835476
545 1.24289
550 1.17504
555 1.46138
560 1.05358
565 1.39226
570 1.26745
575 1.00384
580 1.00802
585 1.81875
590 1.71084
595 1.43799
600 1.43853
Ex : 303
200 0.897616
205 0.793631
210 0.900439
215 0.932849
220 0.863721
225 1.22397
230 1.06067
235 0.868317
240 0.769785
245 0.852726
250 1.00442
255 0.805544
260 1.12631
265 1.22298
270 1.04875
275 1.07898
280 0.946227
285 0.801745
290 1.0649
295 1.29634
300 0.934192
305 1.04258
310 1.03319
315 1.09706
320 1.06966
325 0.963776
330 1.05763
335 1.22605
340 1.03485
345 1.19133
350 1.01166
355 1.0207
360 1.35488
365 1.12954
370 1.26148
375 1.38939
380 1.68758
385 1.30516
390 1.55242
395 1.16683
400 1.26442
405 1.41511
410 1.21919
415 1.40456
420 1.46512
425 1.56873
430 1.68296
435 1.21913
440 1.31709
445 1.39493
450 1.24652
455 1.22709
460 1.55706
465 1.29456
470 1.20698
475 1.08816
480 1.12828
485 1.22445
490 1.16051
495 0.939533
500 0.910491
505 1.11457
510 1.15975
515 1.11239
520 0.978633
525 1.04935
530 1.25085
535 1.28098
540 1.03071
545 0.952477
550 1.1838
555 1.17029
560 0.848008
565 0.867418
570 0.931318
575 0.866484
580 0.844517
585 1.14
590 0.986234
595 1.40723
600 1.85435
Ex : 308
200 0.933292
205 0.758654
210 0.718583
215 1.00277
220 0.711874
225 1.06877
230 0.898342
235 1.14674
240 0.681333
245 1.08975
250 1.00269
255 1.07279
260 1.00106
265 0.968281
270 0.945623
275 0.791569
280 0.739886
285 0.985952
290 0.833578
295 0.713095
300 0.864938
305 1.006
310 0.815813
315 0.8984
320 1.2414
325 0.916695
330 1.05218
335 1.04679
340 1.08128
345 0.816391
350 0.949334
355 0.932103
360 1.08489
365 1.02883
370 1.01437
375 1.23762
380 1.31688
385 1.04886
390 1.49799
395 1.2683
400 1.37373
405 1.31995
410 1.4521
415 1.08329
420 1.26597
425 1.56725
430 1.59268
435 1.27604
440 1.34489
445 1.21549
450 1.30988
455 1.30268
460 1.13444
465 1.34542
470 1.10245
475 0.999954
480 0.935442
485 1.06946
490 0.998453
495 1.23283
500 0.818968
505 0.829665
510 1.21699
515 0.829409
520 0.903405
525 0.906057
530 1.0295
535 1.00032
540 1.087
545 0.920035
550 0.897777
555 0.982519
560 0.795078
565 0.656893
570 0.941799
575 0.753421
580 0.855753
585 0.686604
590 0.874946
595 1.04554
600 0.35219
Ex : 313
200 0.801157
205 0.850912
210 0.746993
215 0.801939
220 0.592134
225 0.618612
230 0.714365
235 0.564944
240 0.571813
245 0.67797
250 0.745863
255 0.83393
260 0.74931
265 0.81701
270 0.796087
275 0.725881
280 0.633525
285 0.628113
290 0.627444
295 0.68383
300 0.703736
305 1.03179
310 0.951011
315 0.832386
320 0.882785
325 0.672792
330 0.708569
335 0.789255
340 0.776234
345 0.886922
350 1.04036
355 1.17932
360 1.02433
365 1.07468
370 1.20519
375 1.3794
380 1.33923
385 1.42862
390 1.7387
395 1.76805
400 1.41852
405 1.74683
410 1.50836
415 1.62117
420 1.29292
425 1.24132
430 1.64327
435 1.38187
440 1.37766
445 1.21052
450 1.36626
455 1.27557
460 1.24126
465 1.41306
470 1.25115
475 1.20017
480 1.10546
485 1.03971
490 1.03246
495 1.0639
500 1.13719
505 0.874279
510 0.847186
515 1.02347
520 0.889958
525 0.982329
530 0.807965
535 0.763636
540 0.741254
545 0.772397
550 0.833196
555 0.802697
560 0.770906
565 0.942017
570 0.894415
575 0.713338
580 0.635573
585 0.756263
590 0.708372
595 0.780206
600 2.2678
Ex : 318
200 0.658899
205 0.584326
210 0.647217
215 0.625288
220 0.615528
225 0.701877
230 0.677512
235 1.01091
240 0.466505
245 0.783474
250 0.652903
255 0.596778
260 0.691561
265 0.66987
270 0.956278
275 0.707542
280 0.674053
285 0.707528
290 0.656215
295 0.614343
300 0.606401
305 0.807583
310 0.7676
315 0.969136
320 0.88105
325 0.95696
330 0.804947
335 1.13835
340 1.32482
345 1.70162
350 1.79039
355 2.39602
360 2.62541
365 3.34363
370 3.93081
375 4.3328
380 4.83922
385 5.19126
390 5.62017
395 6.21783
400 6.20627
405 6.17706
410 6.28253
415 6.21324
420 6.20679
425 6.54692
430 5.91192
435 5.65144
440 5.56333
445 5.03813
450 4.39349
455 4.4977
460 4.58954
465 4.12796
470 4.07118
475 3.43914
480 3.09334
485 2.93694
490 2.60731
495 2.75019
500 2.06803
505 2.0419
510 2.11296
515 1.5143
520 1.53626
525 1.40801
530 1.07002
535 1.23118
540 1.21243
545 0.965417
550 1.07294
555 0.99988
560 0.702067
565 0.796133
570 0.693628
575 0.753429
580 0.732391
585 0.597341
590 0.833934
595 0.64082
600 1.02443
Ex : 323
200 0.492376
205 0.642492
210 0.496245
215 0.533688
220 0.612336
225 0.714086
230 0.711859
235 0.635725
240 0.561276
245 0.622526
250 0.692506
255 0.621415
260 0.421714
265 0.518317
270 0.62311
275 0.497268
280 0.588507
285 0.793692
290 0.571458
295 0.535022
300 0.619642
305 0.677661
310 0.608837
315 2.36628
320 8.67929
325 4.44549
330 2.06666
335 2.71082
340 4.11389
345 5.77212
350 7.84217
355 10.2993
360 13.1352
365 14.9249
370 18.0352
375 20.8204
380 23.7786
385 25.3397
390 28.0544
395 30.8543
400 32.1325
405 32.3129
410 33.2868
415 32.8823
420 32.19
425 32.4638
430 30.5533
435 29.3673
440 28.2216
445 26.1952
450 25.1293
455 23.9
460 21.6718
465 20.0874
470 17.8414
475 17.1614
480 15.4501
485 13.4576
490 12.9638
495 11.3909
500 9.83697
505 8.87996
510 7.89178
515 7.03248
520 5.95532
525 5.58239
530 4.52394
535 4.26644
540 3.56405
545 3.26292
550 2.92556
555 2.47335
560 2.22889
565 2.04672
570 1.5561
575 1.44759
580 1.00244
585 1.16379
590 1.03973
595 0.768877
600 0.555678
Ex : 328
200 0.61996
205 0.61742
210 0.568492
215 0.498039
220 0.700925
225 0.496768
230 0.507243
235 0.567576
240 0.550091
245 0.666982
250 0.563195
255 0.588489
260 0.732957
265 0.551702
270 0.586985
275 0.574846
280 0.650952
285 0.602592
290 0.594375
295 0.580476
300 0.637041
305 0.637771
310 0.584292
315 1.13326
320 21.7836
325 56.1468
330 19.9989
335 5.95533
340 5.84689
345 7.60934
350 9.65588
355 13.6751
360 19.5597
365 21.8086
370 24.9684
375 27.7496
380 31.3808
385 35.0336
390 37.2894
395 40.5573
400 42.7721
405 42.2237
410 43.585
415 42.7644
420 41.9303
425 41.4011
430 40.4966
435 38.5443
440 36.5743
445 34.4643
450 32.993
455 30.4626
460 28.6968
465 25.7192
470 24.3594
475 22.1025
480 20.0371
485 18.6857
490 17.4712
495 14.635
500 12.8485
505 11.9328
510 10.2931
515 8.94707
520 8.37581
525 6.73205
530 6.19584
535 5.81541
540 4.84869
545 4.40782
550 3.90938
555 3.45379
560 3.01636
565 2.91443
570 2.07461
575 1.87499
580 1.45057
585 1.26226
590 1.09309
595 1.01311
600 0.777136
Ex : 333
200 0.560818
205 0.549601
210 0.529754
215 0.398967
220 0.373753
225 0.604662
230 0.526963
235 0.417198
240 0.489269
245 0.488075
250 0.489842
255 0.680265
260 0.570853
265 0.410278
270 0.544791
275 0.633031
280 0.445097
285 0.551391
290 0.482983
295 0.56801
300 0.627989
305 0.566142
310 0.532735
315 0.6128
320 4.1274
325 73.5571
330 134.393
335 37.8236
340 8.60686
345 6.64461
350 7.08979
355 8.151
360 11.5559
365 16.8899
370 17.3464
375 17.4169
380 18.9768
385 21.584
390 23.9891
395 25.5982
400 26.0389
405 26.9182
410 26.8671
415 27.6079
420 26.4723
425 25.2569
430 23.8177
435 23.2622
440 22.3894
445 21.4894
450 20.0628
455 18.8512
460 17.8237
465 16.4413
470 15.2481
475 13.7735
480 12.4089
485 11.4163
490 10.3187
495 9.29227
500 8.37151
505 7.52176
510 6.7853
515 6.07366
520 5.69281
525 4.90314
530 4.34795
535 4.14779
540 3.46063
545 2.97451
550 2.64544
555 2.65168
560 2.35867
565 1.90401
570 1.78212
575 1.36071
580 1.37779
585 1.22036
590 1.10809
595 0.949058
600 0.613412
Ex : 338
200 0.356341
205 0.348808
210 0.483094
215 0.523338
220 0.417299
225 0.49757
230 0.376522
235 0.451026
240 0.490382
245 0.407188
250 0.451038
255 0.416919
260 0.482379
265 0.566792
270 0.611546
275 0.433236
280 0.424836
285 0.576713
290 0.570513
295 0.624304
300 0.490856
305 0.443628
310 0.484823
315 0.602181
320 0.622723
325 8.13685
330 122.894
335 186.058
340 46.7973
345 8.44598
350 5.21127
355 5.00384
360 4.80611
365 7.20054
370 11.7412
375 12.3852
380 11.6781
385 11.6957
390 13.6721
395 14.9564
400 14.7474
405 14.744
410 15.2171
415 15.6829
420 14.7601
425 14.194
430 13.4501
435 12.9641
440 12.5825
445 12.2184
450 11.6112
455 10.6954
460 10.2122
465 9.50282
470 8.58828
475 7.89597
480 7.62955
485 6.93722
490 6.72903
495 5.96875
500 5.70464
505 4.54071
510 4.68016
515 4.19958
520 3.77741
525 3.41403
530 3.01971
535 2.92687
540 2.57039
545 2.46919
550 2.285
555 1.9816
560 1.91227
565 1.87615
570 1.42223
575 1.49526
580 1.19813
585 1.08983
590 0.992808
595 0.912715
600 0.763803
Ex : 343
200 0.467799
205 0.371358
210 0.340745
215 0.519332
220 0.377052
225 0.51907
230 0.577565
235 0.480393
240 0.420705
245 0.393151
250 0.340095
255 0.440423
260 0.402238
265 0.448178
270 0.453482
275 0.49977
280 0.374148
285 0.412275
290 0.409053
295 0.462635
300 0.534918
305 0.416809
310 0.394303
315 0.535332
320 0.650479
325 0.783124
330 10.2386
335 144.576
340 211.29
345 51.7223
350 8.54385
355 3.94582
360 3.91273
365 3.18945
370 4.83683
375 8.92064
380 10.702
385 9.48202
390 10.2618
395 10.569
400 10.6654
405 11.0432
410 12.0337
415 12.1278
420 11.5976
425 10.9451
430 9.95976
435 9.89922
440 9.90807
445 9.90866
450 8.84051
455 8.23808
460 8.29822
465 7.53511
470 7.01232
475 6.90677
480 5.99551
485 6.06565
490 5.50643
495 5.44994
500 4.56691
505 4.52434
510 3.96887
515 3.41015
520 3.31011
525 2.97011
530 2.979
535 2.49829
540 2.29789
545 2.2986
550 2.08476
555 1.96512
560 1.66855
565 1.489
570 1.40115
575 1.14051
580 1.03139
585 0.965421
590 0.901371
595 0.799983
600 1.01132
Ex : 348
200 0.396584
205 0.409476
210 0.392615
215 0.488477
220 0.402859
225 0.529598
230 0.38434
235 0.433009
240 0.531603
245 0.469277
250 0.343717
255 0.396187
260 0.404946
265 0.424426
270 0.453598
275 0.450282
280 0.396174
285 0.471821
290 0.536855
295 0.446127
300 0.367369
305 0.499229
310 0.513258
315 0.373329
320 0.466706
325 0.390116
330 0.699242
335 10.2949
340 148.147
345 223.017
350 58.197
355 9.05941
360 3.98389
365 3.2566
370 2.97294
375 3.68914
380 7.89174
385 12.4335
390 11.93
395 11.3161
400 10.8796
405 11.0145
410 12.152
415 13.0232
420 11.9494
425 11.2785
430 10.8931
435 10.4083
440 10.0987
445 9.41083
450 9.14602
455 8.06011
460 7.78875
465 7.67534
470 7.34289
475 7.13788
480 6.51597
485 5.86844
490 5.29733
495 5.06093
500 4.63623
505 4.4932
510 3.99049
515 3.58198
520 3.46287
525 3.28273
530 3.06455
535 2.65914
540 2.31287
545 2.18786
550 2.26256
555 1.90125
560 1.87937
565 1.49388
570 1.32019
575 1.22442
580 1.13188
585 1.03156
590 0.806629
595 0.853303
600 0.695023
Ex : 353
200 0.306285
205 0.3543
210 0.372983
215 0.278213
220 0.368782
225 0.350324
230 0.350935
235 0.421728
240 0.351375
245 0.339203
250 0.408197
255 0.425309
260 0.37214
265 0.481979
270 0.403421
275 0.3735
280 0.313481
285 0.357241
290 0.435868
295 0.346146
300 0.407166
305 0.415351
310 0.557551
315 0.401455
320 0.447547
325 0.488389
330 0.560385
335 0.738315
340 10.775
345 154.873
350 223.513
355 54.8507
360 8.22924
365 3.11989
370 3.16508
375 2.86701
380 3.86529
385 8.51441
390 14.3011
395 13.9819
400 11.341
405 11.0426
410 11.6266
415 13.0884
420 12.7233
425 11.422
430 10.7443
435 10.2845
440 10.5336
445 9.9379
450 9.57387
455 8.53755
460 7.98573
465 7.57535
470 7.48636
475 7.37541
480 6.54143
485 6.29664
490 5.53533
495 5.72194
500 5.20206
505 4.62033
510 4.35063
515 3.90326
520 3.46535
525 3.2539
530 2.86258
535 2.84694
540 2.6388
545 2.17755
550 2.09622
555 1.86236
560 1.74547
565 1.67076
570 1.58791
575 1.33449
580 0.964687
585 0.966117
590 0.841559
595 0.762974
600 0.247509
Ex : 358
200 0.386723
205 0.331591
210 0.341263
215 0.350667
220 0.317923
225 0.31875
230 0.301503
235 0.342808
240 0.410286
245 0.324523
250 0.371815
255 0.392456
260 0.33206
265 0.428303
270 0.374895
275 0.381042
280 0.392209
285 0.383844
290 0.433834
295 0.281121
300 0.394985
305 0.310447
310 0.370506
315 0.399281
320 0.361357
325 0.370164
330 0.377669
335 0.464711
340 0.708627
345 10.1424
350 146.668
355 225.91
360 57.866
365 8.57851
370 3.3577
375 3.24808
380 3.47865
385 5.10291
390 9.12589
395 14.2811
400 13.2958
405 11.3068
410 11.5384
415 12.063
420 11.4627
425 10.7189
430 9.93033
435 10.3469
440 10.0195
445 9.26246
450 8.64066
455 8.02572
460 8.0688
465 7.32849
470 7.38866
475 7.10955
480 6.60755
485 6.29752
490 5.68632
495 5.49951
500 5.26141
505 4.96185
510 4.2298
515 4.22003
520 3.681
525 3.47017
530 3.13074
535 2.87942
540 2.72878
545 2.31356
550 2.1594
555 2.08217
560 1.79292
565 1.84725
570 1.46126
575 1.22982
580 1.07966
585 0.853448
590 0.861426
595 0.642794
600 0.50929
Ex : 363
200 0.261592
205 0.327022
210 0.373689
215 0.351937
220 0.307719
225 0.310313
230 0.286945
235 0.266354
240 0.364642
245 0.329883
250 0.39533
255 0.335551
260 0.31934
265 0.337856
270 0.376126
275 0.312422
280 0.313716
285 0.404618
290 0.38645
295 0.286273
300 0.40965
305 0.325483
310 0.395385
315 0.320181
320 0.33235
325 0.341632
330 0.367277
335 0.400919
340 0.430644
345 0.694528
350 9.62086
355 146.415
360 224.536
365 59.5542
370 8.51404
375 3.32422
380 4.48114
385 6.38707
390 8.29598
395 9.93703
400 13.3402
405 14.5216
410 13.8447
415 13.2608
420 11.9531
425 10.7497
430 10.3653
435 10.5389
440 10.0266
445 9.89725
450 9.18813
455 8.32327
460 7.92762
465 7.98105
470 7.54888
475 7.30057
480 6.87755
485 6.60146
490 6.14424
495 5.65819
500 5.37747
505 4.87409
510 4.71276
515 4.09398
520 3.82743
525 3.5165
530 3.07451
535 3.03123
540 2.80639
545 2.43363
550 2.26661
555 1.97225
560 1.87919
565 1.59591
570 1.40343
575 1.31333
580 1.19562
585 0.849113
590 0.769817
595 0.753281
600 0.393782
Ex : 368
200 0.297158
205 0.241313
210 0.259079
215 0.32911
220 0.272275
225 0.3163
230 0.329811
235 0.251752
240 0.25984
245 0.285242
250 0.294005
255 0.300308
260 0.290329
265 0.244718
270 0.260484
275 0.262238
280 0.325404
285 0.376107
290 0.337653
295 0.353087
300 0.303163
305 0.359514
310 0.327747
315 0.35842
320 0.388842
325 0.409881
330 0.37296
335 0.308283
340 0.483494
345 0.535998
350 0.600076
355 8.24185
360 141.924
365 233.677
370 63.4536
375 9.40919
380 4.57711
385 6.90203
390 10.0643
395 11.017
400 10.6976
405 14.412
410 17.3107
415 16.9312
420 14.7122
425 12.6279
430 11.7537
435 11.4101
440 11.3
445 10.9757
450 9.8997
455 9.29679
460 8.35962
465 8.52251
470 8.0936
475 7.82039
480 7.31862
485 6.92391
490 6.36942
495 5.99423
500 5.68559
505 5.17073
510 4.81813
515 4.58596
520 4.23535
525 3.72827
530 3.40819
535 3.00226
540 2.90556
545 2.52878
550 2.24481
555 2.07446
560 1.91812
565 1.69857
570 1.40076
575 1.21907
580 1.05332
585 0.823795
590 0.776175
595 0.751606
600 0.484721
Ex : 373
200 0.389763
205 0.335001
210 0.247028
215 0.293433
220 0.3249
225 0.307043
230 0.287643
235 0.304861
240 0.236746
245 0.269438
250 0.287453
255 0.25948
260 0.271087
265 0.344996
270 0.256592
275 0.352836
280 0.262453
285 0.307719
290 0.243536
295 0.29007
300 0.21633
305 0.258218
310 0.354147
315 0.288886
320 0.3903
325 0.285924
330 0.396
335 0.324042
340 0.286165
345 0.418725
350 0.500324
355 0.592794
360 9.10225
365 144.481
370 229.085
375 62.0914
380 9.65448
385 5.70197
390 9.48076
395 10.939
400 10.2962
405 10.3684
410 13.8464
415 18.3095
420 16.2917
425 13.6646
430 11.2326
435 10.6583
440 10.8897
445 10.6469
450 9.7385
455 9.0176
460 8.44657
465 8.2785
470 7.86827
475 7.58063
480 7.42555
485 7.01901
490 6.76205
495 6.0917
500 5.9571
505 5.19852
510 5.0818
515 4.56353
520 4.22705
525 3.67272
530 3.3282
535 3.09456
540 2.94293
545 2.68665
550 2.42251
555 2.04516
560 1.97317
565 1.75534
570 1.4792
575 1.30937
580 1.10061
585 0.883911
590 0.832798
595 0.771443
600 1.18894
Ex : 378
200 0.302943
205 0.289277
210 0.347213
215 0.345273
220 0.325003
225 0.273928
230 0.238059
235 0.2762
240 0.300061
245 0.295696
250 0.287358
255 0.333145
260 0.267523
265 0.28229
270 0.344132
275 0.293515
280 0.3226
285 0.354509
290 0.266782
295 0.261664
300 0.240248
305 0.381596
310 0.332822
315 0.34932
320 0.306786
325 0.299534
330 0.326926
335 0.332863
340 0.280775
345 0.321281
350 0.380624
355 0.447273
360 0.66119
365 8.39927
370 150.042
375 251.713
380 67.2371
385 11.7027
390 7.60811
395 8.46805
400 8.29169
405 8.08343
410 9.23375
415 11.4991
420 13.9763
425 12.0748
430 10.2232
435 9.28418
440 8.94222
445 8.84735
450 8.06828
455 7.55196
460 7.40885
465 7.07506
470 6.98985
475 7.06458
480 7.06854
485 6.54942
490 6.50959
495 6.11711
500 5.53827
505 5.51322
510 5.11713
515 4.775
520 4.12526
525 3.93582
530 3.47412
535 3.22276
540 2.83882
545 2.6642
550 2.41155
555 2.03795
560 1.96968
565 1.88003
570 1.4535
575 1.26971
580 1.13886
585 0.854375
590 0.748006
595 0.698799
600 0.785602
Ex : 383
200 0.319605
205 0.299901
210 0.306236
215 0.285235
220 0.253117
225 0.296772
230 0.257953
235 0.300399
240 0.263683
245 0.227502
250 0.268146
255 0.264154
260 0.277749
265 0.270497
270 0.268852
275 0.210964
280 0.273648
285 0.288863
290 0.226812
295 0.259447
300 0.233487
305 0.324544
310 0.362294
315 0.24093
320 0.330277
325 0.427144
330 0.255438
335 0.312497
340 0.312038
345 0.351922
350 0.292655
355 0.417604
360 0.415195
365 0.577823
370 8.07352
375 144.347
380 246.156
385 69.6451
390 14.5353
395 8.21734
400 7.67275
405 8.43503
410 9.15154
415 9.88385
420 9.96437
425 11.7562
430 12.1679
435 9.82306
440 9.09506
445 8.12195
450 7.77034
455 7.29452
460 7.29231
465 7.0802
470 7.1676
475 6.93962
480 6.89509
485 6.48545
490 6.56845
495 6.06078
500 5.88317
505 5.08765
510 4.79035
515 4.63851
520 3.89568
525 4.08067
530 3.43404
535 3.34961
540 2.96944
545 2.45351
550 2.53894
555 2.28483
560 2.14242
565 1.77852
570 1.57906
575 1.20414
580 1.02546
585 0.853142
590 0.848362
595 0.685002
600 0.685928
Ex : 388
200 0.301604
205 0.260629
210 0.270815
215 0.240259
220 0.226966
225 0.262181
230 0.328226
235 0.330195
240 0.256507
245 0.251921
250 0.231965
255 0.308855
260 0.251898
265 0.253496
270 0.274665
275 0.329719
280 0.224721
285 0.276191
290 0.198958
295 0.237693
300 0.307907
305 0.313772
310 0.295157
315 0.324986
320 0.25761
325 0.26926
330 0.257692
335 0.23877
340 0.345481
345 0.288296
350 0.336897
355 0.315995
360 0.348206
365 0.391362
370 0.68124
375 8.93311
380 152.43
385 253.648
390 74.7718
395 16.7775
400 9.49736
405 9.55342
410 10.8137
415 11.7832
420 10.9875
425 10.0873
430 11.8102
435 12.983
440 11.2978
445 10.1225
450 8.99816
455 7.94362
460 7.71246
465 7.62184
470 7.08084
475 6.99838
480 6.93559
485 6.50063
490 6.32751
495 5.99152
500 5.97338
505 5.2762
510 5.14292
515 4.73601
520 4.38566
525 4.00231
530 3.6636
535 3.37746
540 2.8426
545 2.73588
550 2.3991
555 2.21635
560 2.02502
565 1.6345
570 1.43983
575 1.28424
580 1.10871
585 0.9267
590 0.875114
595 0.584623
600 0.346204
Ex : 393
200 0.247047
205 0.243461
210 0.244536
215 0.285193
220 0.21594
225 0.214668
230 0.26843
235 0.3639
240 0.334259
245 0.234946
250 0.256551
255 0.274822
260 0.264689
265 0.235656
270 0.236085
275 0.252764
280 0.266966
285 0.366942
290 0.234816
295 0.278907
300 0.22699
305 0.316966
310 0.22174
315 0.283159
320 0.268432
325 0.23195
330 0.260489
335 0.217777
340 0.259468
345 0.267765
350 0.315945
355 0.317347
360 0.312631
365 0.3223
370 0.567837
375 0.653545
380 8.49293
385 153.852
390 261.18
395 79.0121
400 17.5118
405 9.18922
410 10.4068
415 12.1037
420 11.7099
425 9.72196
430 8.73079
435 10.142
440 12.6627
445 11.2994
450 9.5969
455 8.01606
460 7.555
465 7.19089
470 6.9814
475 7.45118
480 6.99395
485 6.38082
490 6.21535
495 6.06244
500 5.8525
505 5.25512
510 4.92162
515 4.56229
520 4.34985
525 3.72705
530 3.51131
535 3.37421
540 2.98237
545 2.67142
550 2.48875
555 2.20537
560 1.84265
565 1.8863
570 1.62459
575 1.26298
580 1.08401
585 0.86573
590 0.70971
595 0.64754
600 0.680372
Ex : 398
200 0.228395
205 0.234738
210 0.24659
215 0.26125
220 0.234497
225 0.25502
230 0.34314
235 0.213242
240 0.314966
245 0.23319
250 0.25459
255 0.229727
260 0.217441
265 0.217655
270 0.269327
275 0.247678
280 0.21074
285 0.225434
290 0.272615
295 0.257467
300 0.239219
305 0.22992
310 0.26188
315 0.238421
320 0.294589
325 0.255074
330 0.338279
335 0.232311
340 0.273438
345 0.270467
350 0.30034
355 0.347184
360 0.334043
365 0.420108
370 0.410025
375 0.440775
380 0.699917
385 9.05794
390 159.765
395 268.039
400 75.4021
405 13.3491
410 6.64747
415 7.62402
420 7.90569
425 6.5966
430 5.83348
435 5.44626
440 6.66193
445 9.45982
450 8.62794
455 6.89092
460 6.23439
465 6.12651
470 6.12549
475 6.08257
480 6.22752
485 5.93482
490 5.68544
495 5.54402
500 5.52666
505 5.21163
510 5.02008
515 4.66227
520 4.26095
525 3.7533
530 3.56776
535 3.23926
540 3.05283
545 2.73665
550 2.51125
555 2.41046
560 2.00601
565 1.83925
570 1.46305
575 1.21816
580 1.03394
585 0.829985
590 0.699
595 0.646656
600 0.37298
Ex : 403
200 0.243348
205 0.23043
210 0.269671
215 0.217116
220 0.239472
225 0.269802
230 0.248734
235 0.175849
240 0.20168
245 0.221873
250 0.191693
255 0.259194
260 0.228234
265 0.225655
270 0.234024
275 0.285902
280 0.192512
285 0.273849
290 0.326371
295 0.263796
300 0.249818
305 0.272421
310 0.235498
315 0.296475
320 0.224255
325 0.301945
330 0.279633
335 0.297733
340 0.262263
345 0.287085
350 0.366026
355 0.330175
360 0.296891
365 0.344596
370 0.364346
375 0.386092
380 0.482521
385 0.774647
390 10.1028
395 161.477
400 264.952
405 74.1424
410 11.3566
415 4.54701
420 3.8942
425 4.09704
430 3.61329
435 3.28595
440 3.66349
445 4.44607
450 6.55802
455 7.54661
460 6.17305
465 5.7877
470 5.8472
475 5.52976
480 5.61695
485 5.14913
490 5.5842
495 5.22226
500 4.93355
505 4.96155
510 4.82171
515 4.4487
520 4.11349
525 3.68662
530 3.57772
535 3.33575
540 3.02354
545 2.61706
550 2.46358
555 2.2216
560 2.01734
565 1.65574
570 1.593
575 1.21006
580 0.92106
585 0.922239
590 0.753055
595 0.545341
600 0.622717
Ex : 408
200 0.300451
205 0.249262
210 0.262278
215 0.319547
220 0.243132
225 0.226932
230 0.268395
235 0.294993
240 0.245687
245 0.200966
250 0.253057
255 0.211587
260 0.254633
265 0.241885
270 0.238147
275 0.250223
280 0.251696
285 0.201628
290 0.246659
295 0.189457
300 0.211511
305 0.217374
310 0.244425
315 0.205027
320 0.21767
325 0.267687
330 0.225264
335 0.250169
340 0.258054
345 0.252222
350 0.274965
355 0.302475
360 0.278215
365 0.366566
370 0.32432
375 0.303069
380 0.348005
385 0.4148
390 0.731787
395 9.43342
400 166.358
405 275.303
410 73.5805
415 10.7262
420 3.46836
425 2.89417
430 3.06579
435 3.07842
440 2.92022
445 3.23986
450 3.79084
455 5.70955
460 7.11907
465 6.17614
470 5.70313
475 5.4945
480 5.17195
485 5.4886
490 5.54369
495 5.14099
500 5.27941
505 4.82129
510 4.81597
515 4.33174
520 4.19989
525 3.71984
530 3.42516
535 3.20834
540 3.18596
545 2.74558
550 2.55659
555 2.06563
560 1.98914
565 1.64125
570 1.5146
575 1.2895
580 1.02775
585 0.885652
590 0.740955
595 0.639248
600 0.446517
Ex : 413
200 0.173954
205 0.220142
210 0.210725
215 0.215927
220 0.257694
225 0.296671
230 0.25852
235 0.253828
240 0.232813
245 0.199416
250 0.199934
255 0.230014
260 0.212215
265 0.24765
270 0.320374
275 0.22399
280 0.243299
285 0.234359
290 0.216404
295 0.247665
300 0.279759
305 0.222116
310 0.262579
315 0.185871
320 0.220987
325 0.288864
330 0.273386
335 0.293601
340 0.248641
345 0.245384
350 0.272457
355 0.290356
360 0.253165
365 0.244704
370 0.302465
375 0.311864
380 0.352474
385 0.40095
390 0.463303
395 0.701824
400 10.4225
405 175.57
410 278.821
415 72.1272
420 10.403
425 3.06934
430 2.53756
435 2.95153
440 3.12825
445 2.89806
450 2.98459
455 3.34496
460 5.02138
465 7.32191
470 6.64605
475 5.7748
480 5.41444
485 5.20078
490 5.1292
495 5.05819
500 4.74771
505 4.79938
510 4.65685
515 4.36435
520 3.98431
525 3.74993
530 3.44108
535 3.00252
540 2.86184
545 2.61619
550 2.38611
555 2.26685
560 1.92518
565 1.7356
570 1.54605
575 1.14969
580 1.04175
585 0.858078
590 0.692972
595 0.579084
600 0.602902
Ex : 418
200 0.207813
205 0.177271
210 0.218742
215 0.244369
220 0.204492
225 0.246472
230 0.257841
235 0.250348
240 0.21728
245 0.332778
250 0.276671
255 0.185319
260 0.223597
265 0.295427
270 0.241079
275 0.243711
280 0.201438
285 0.223236
290 0.288702
295 0.255999
300 0.230243
305 0.220128
310 0.248936
315 0.222091
320 0.22104
325 0.206396
330 0.228169
335 0.282379
340 0.230408
345 0.268166
350 0.231333
355 0.235646
360 0.286567
365 0.224629
370 0.361689
375 0.316486
380 0.315468
385 0.276826
390 0.387664
395 0.542661
400 0.606991
405 9.83883
410 172.485
415 280.864
420 75.6042
425 10.3628
430 2.87666
435 2.19883
440 2.59162
445 2.81804
450 2.57069
455 2.83629
460 3.2167
465 4.36805
470 6.63561
475 6.99699
480 5.49078
485 5.18117
490 4.87675
495 4.57042
500 4.82745
505 4.58397
510 4.47619
515 3.94975
520 3.81373
525 3.45057
530 3.204
535 2.95265
540 2.91254
545 2.57206
550 2.42146
555 2.16485
560 1.9317
565 1.67903
570 1.41972
575 1.25199
580 0.960903
585 0.965201
590 0.683151
595 0.591026
600 0.772721
Ex : 423
200 0.228063
205 0.222591
210 0.273615
215 0.294695
220 0.241861
225 0.196009
230 0.19242
235 0.221275
240 0.214886
245 0.200815
250 0.215344
255 0.270432
260 0.241549
265 0.212188
270 0.2256
275 0.225175
280 0.205763
285 0.192866
290 0.201071
295 0.264901
300 0.227257
305 0.213257
310 0.207888
315 0.246237
320 0.267982
325 0.241719
330 0.292791
335 0.2529
340 0.268212
345 0.29966
350 0.246956
355 0.229624
360 0.275578
365 0.250948
370 0.278134
375 0.278035
380 0.333297
385 0.30009
390 0.286464
395 0.324526
400 0.404584
405 0.656598
410 10.0651
415 184.587
420 285.991
425 73.4159
430 9.9868
435 2.53272
440 1.99191
445 2.35016
450 2.52053
455 2.2467
460 2.71117
465 3.04405
470 3.59374
475 5.99734
480 7.1787
485 5.77564
490 4.96619
495 4.79222
500 4.36301
505 4.30522
510 4.06822
515 3.84921
520 3.80614
525 3.45823
530 3.0834
535 2.87314
540 2.612
545 2.71795
550 2.26485
555 2.076
560 1.8627
565 1.74924
570 1.40276
575 1.19742
580 0.997789
585 0.92456
590 0.707322
595 0.686009
600 1.01929
Ex : 428
200 0.311377
205 0.303124
210 0.238544
215 0.243432
220 0.218322
225 0.242907
230 0.272362
235 0.293183
240 0.299331
245 0.310952
250 0.223474
255 0.217062
260 0.269228
265 0.269417
270 0.207006
275 0.287759
280 0.271273
285 0.288226
290 0.228109
295 0.248781
300 0.243573
305 0.23079
310 0.266092
315 0.243686
320 0.257405
325 0.205017
330 0.246452
335 0.234265
340 0.267862
345 0.288883
350 0.297531
355 0.304045
360 0.319643
365 0.275651
370 0.281131
375 0.254189
380 0.285617
385 0.316044
390 0.313168
395 0.343141
400 0.397041
405 0.510678
410 0.696509
415 11.739
420 185.925
425 292.628
430 77.0892
435 10.4322
440 2.58556
445 1.94979
450 2.36359
455 2.70119
460 2.59743
465 2.68894
470 3.03848
475 3.56819
480 5.05624
485 6.65196
490 5.58359
495 4.90653
500 4.57909
505 3.96654
510 3.9062
515 3.62098
520 3.43439
525 3.16441
530 2.93461
535 2.59663
540 2.40532
545 2.29648
550 2.17337
555 1.8589
560 1.75242
565 1.59148
570 1.43262
575 1.22882
580 0.868989
585 0.76037
590 0.714686
595 0.650995
600 0.417224
Ex : 433
200 0.329057
205 0.255363
210 0.277006
215 0.290125
220 0.212882
225 0.256014
230 0.219511
235 0.254159
240 0.193521
245 0.231874
250 0.276557
255 0.260935
260 0.221882
265 0.226692
270 0.272485
275 0.245521
280 0.227452
285 0.274676
290 0.211973
295 0.255763
300 0.236061
305 0.256454
310 0.210341
315 0.265569
320 0.255637
325 0.228942
330 0.30553
335 0.272674
340 0.25598
345 0.329592
350 0.25003
355 0.281384
360 0.248416
365 0.231193
370 0.272485
375 0.319407
380 0.256464
385 0.3074
390 0.307665
395 0.322093
400 0.3141
405 0.405218
410 0.511892
415 0.679221
420 12.3492
425 202.189
430 301.728
435 75.7692
440 10.2233
445 2.64597
450 1.89132
455 2.36765
460 2.70932
465 2.74858
470 2.84367
475 2.9081
480 3.64161
485 4.62027
490 6.4618
495 5.74976
500 4.50664
505 3.93146
510 3.73209
515 3.42695
520 3.29843
525 3.17829
530 2.83116
535 2.69585
540 2.34044
545 2.23925
550 2.17782
555 1.85509
560 1.73047
565 1.47274
570 1.38863
575 1.10991
580 0.924312
585 0.824598
590 0.738559
595 0.590241
600 0.80068
Ex : 438
200 0.197943
205 0.250414
210 0.261301
215 0.240048
220 0.221909
225 0.229274
230 0.243627
235 0.293779
240 0.259624
245 0.29547
250 0.23791
255 0.212967
260 0.22329
265 0.245811
270 0.259716
275 0.198864
280 0.243069
285 0.248672
290 0.352652
295 0.22755
300 0.225006
305 0.262692
310 0.224096
315 0.229069
320 0.211189
325 0.201721
330 0.218391
335 0.271706
340 0.205347
345 0.283525
350 0.275769
355 0.269628
360 0.343622
365 0.233185
370 0.207007
375 0.288361
380 0.284801
385 0.262603
390 0.331879
395 0.334126
400 0.370529
405 0.356563
410 0.379985
415 0.509343
420 0.617496
425 12.1092
430 203.052
435 322.026
440 81.1562
445 10.8581
450 2.81788
455 1.92679
460 2.41338
465 2.78934
470 2.69179
475 2.69509
480 2.75293
485 3.17014
490 3.59035
495 5.45315
500 5.69592
505 4.11848
510 3.7994
515 3.55085
520 3.12791
525 2.93235
530 2.59468
535 2.54859
540 2.25098
545 2.21295
550 1.9096
555 1.85837
560 1.6391
565 1.47132
570 1.30205
575 1.04357
580 0.91406
585 0.75909
590 0.628011
595 0.587186
600 0.478591
Ex : 443
200 0.272779
205 0.203441
210 0.24147
215 0.239471
220 0.252689
225 0.276227
230 0.235569
235 0.257121
240 0.252392
245 0.288327
250 0.284188
255 0.292514
260 0.190467
265 0.299159
270 0.257261
275 0.24217
280 0.202055
285 0.240406
290 0.261107
295 0.279001
300 0.256229
305 0.251036
310 0.257482
315 0.24043
320 0.294325
325 0.27413
330 0.35809
335 0.319481
340 0.265996
345 0.26466
350 0.286162
355 0.309366
360 0.259218
365 0.241696
370 0.213852
375 0.32189
380 0.279489
385 0.340826
390 0.28503
395 0.299078
400 0.304768
405 0.289613
410 0.335481
415 0.420362
420 0.527257
425 0.602507
430 14.3551
435 220.265
440 327.952
445 82.7856
450 11.1584
455 2.96471
460 2.13206
465 2.43726
470 2.59665
475 2.68587
480 2.51483
485 2.68762
490 2.89208
495 3.23916
500 4.43693
505 5.37416
510 4.15448
515 3.53358
520 3.21139
525 2.74072
530 2.6345
535 2.27295
540 2.19606
545 1.92201
550 1.84381
555 1.90806
560 1.60065
565 1.39908
570 1.20801
575 1.07813
580 0.845629
585 0.785718
590 0.560495
595 0.547232
600 0.315474
Ex : 448
200 0.278558
205 0.248967
210 0.245268
215 0.251013
220 0.274211
225 0.239046
230 0.257935
235 0.262347
240 0.277331
245 0.309164
250 0.28324
255 0.246974
260 0.249493
265 0.226279
270 0.243434
275 0.301884
280 0.23696
285 0.249567
290 0.281053
295 0.274453
300 0.237368
305 0.268194
310 0.222351
315 0.224119
320 0.239912
325 0.233348
330 0.232641
335 0.259451
340 0.340503
345 0.266764
350 0.254113
355 0.250504
360 0.24855
365 0.25475
370 0.268803
375 0.317761
380 0.335432
385 0.311313
390 0.270417
395 0.248634
400 0.281339
405 0.308648
410 0.315296
415 0.366975
420 0.468534
425 0.52674
430 0.673032
435 14.2442
440 235.489
445 349.36
450 87.3456
455 11.6947
460 3.18075
465 2.20461
470 2.21027
475 2.69052
480 2.6476
485 2.32939
490 2.38105
495 2.66164
500 2.82202
505 3.75565
510 4.90314
515 4.04554
520 2.93553
525 2.86105
530 2.44944
535 2.34401
540 2.14789
545 1.85184
550 1.83344
555 1.65907
560 1.38735
565 1.25544
570 1.0736
575 1.02542
580 0.865132
585 0.776271
590 0.663941
595 0.539123
600 0.118817
Ex : 453
200 0.260723
205 0.271843
210 0.27026
215 0.213028
220 0.251405
225 0.245928
230 0.207194
235 0.203785
240 0.224323
245 0.265549
250 0.243931
255 0.27777
260 0.24936
265 0.222103
270 0.218459
275 0.284669
280 0.247417
285 0.240765
290 0.278089
295 0.256028
300 0.204086
305 0.2426
310 0.313264
315 0.301564
320 0.246587
325 0.207724
330 0.305104
335 0.200131
340 0.221079
345 0.261694
350 0.212813
355 0.244584
360 0.252153
365 0.329999
370 0.275644
375 0.272322
380 0.242642
385 0.28276
390 0.271926
395 0.26182
400 0.247863
405 0.368497
410 0.31976
415 0.277992
420 0.311405
425 0.388957
430 0.489709
435 0.683608
440 14.8081
445 251.765
450 358.469
455 84.0211
460 11.2489
465 2.93121
470 1.90957
475 2.25084
480 2.51362
485 2.43576
490 2.3877
495 2.16617
500 2.21458
505 2.20606
510 2.82347
515 4.3232
520 4.10242
525 3.13218
530 2.63834
535 2.32893
540 2.14856
545 1.78376
550 1.57623
555 1.60075
560 1.47626
565 1.24935
570 1.11604
575 0.942947
580 0.823179
585 0.763927
590 0.630758
595 0.52988
600 0.242668
Ex : 458
200 0.239016
205 0.293415
210 0.241049
215 0.284422
220 0.244269
225 0.229297
230 0.231913
235 0.293815
240 0.267711
245 0.260495
250 0.231632
255 0.224153
260 0.233186
265 0.215549
270 0.250768
275 0.215673
280 0.301743
285 0.291076
290 0.21742
295 0.313271
300 0.228795
305 0.206525
310 0.222114
315 0.240468
320 0.188351
325 0.282002
330 0.298002
335 0.253813
340 0.296368
345 0.313309
350 0.336836
355 0.248754
360 0.315535
365 0.391641
370 0.255483
375 0.228945
380 0.302499
385 0.280406
390 0.312213
395 0.321196
400 0.326178
405 0.285004
410 0.30331
415 0.34121
420 0.327295
425 0.350475
430 0.392361
435 0.509214
440 0.701287
445 16.5899
450 255.01
455 372.858
460 90.6202
465 12.0971
470 3.14568
475 2.15957
480 2.06237
485 2.32915
490 2.30447
495 2.0452
500 2.03443
505 2.08309
510 2.08005
515 2.09355
520 3.33974
525 4.13067
530 3.00088
535 2.38942
540 2.26679
545 1.94009
550 1.66967
555 1.46205
560 1.42054
565 1.28422
570 1.16937
575 0.996696
580 0.816593
585 0.754404
590 0.510238
595 0.505418
600 0.574962
Ex : 463
200 0.336374
205 0.266361
210 0.210498
215 0.249959
220 0.248979
225 0.281343
230 0.273538
235 0.215689
240 0.179316
245 0.313055
250 0.249856
255 0.260311
260 0.227011
265 0.233493
270 0.244332
275 0.188264
280 0.29312
285 0.230759
290 0.286266
295 0.255679
300 0.312142
305 0.304867
310 0.276208
315 0.26833
320 0.247908
325 0.276359
330 0.251915
335 0.239284
340 0.208016
345 0.262049
350 0.246411
355 0.326612
360 0.248553
365 0.232783
370 0.264095
375 0.221011
380 0.298731
385 0.248475
390 0.274949
395 0.294237
400 0.244202
405 0.266175
410 0.333051
415 0.294652
420 0.302704
425 0.282836
430 0.346101
435 0.404328
440 0.508602
445 0.696695
450 15.9023
455 263.287
460 395.433
465 95.7968
470 12.5603
475 2.99006
480 1.72508
485 1.88956
490 2.08792
495 2.19788
500 1.97476
505 1.70269
510 1.65242
515 1.86146
520 1.89071
525 2.92153
530 3.77847
535 3.35
540 2.29658
545 1.92247
550 1.89002
555 1.53622
560 1.36604
565 1.1688
570 1.1175
575 0.972004
580 0.850736
585 0.736669
590 0.742374
595 0.458841
600 0.751192
Ex : 468
200 0.17642
205 0.191721
210 0.227378
215 0.178495
220 0.194043
225 0.210316
230 0.196635
235 0.188528
240 0.220075
245 0.241096
250 0.245943
255 0.231833
260 0.187936
265 0.253386
270 0.225948
275 0.234009
280 0.265483
285 0.247515
290 0.227532
295 0.276057
300 0.215734
305 0.192325
310 0.255132
315 0.201252
320 0.216918
325 0.210566
330 0.230965
335 0.237375
340 0.191482
345 0.202433
350 0.271768
355 0.234777
360 0.225058
365 0.250088
370 0.25007
375 0.26265
380 0.25138
385 0.264939
390 0.256391
395 0.250623
400 0.238917
405 0.28132
410 0.255127
415 0.259845
420 0.239154
425 0.270289
430 0.389388
435 0.418554
440 0.389439
445 0.509993
450 0.703296
455 17.1888
460 266.789
465 417.096
470 100.349
475 12.9742
480 3.06035
485 1.85737
490 1.63052
495 1.90009
500 1.81719
505 1.86359
510 1.75155
515 1.70546
520 1.76974
525 1.77506
530 2.25834
535 3.42901
540 3.5309
545 2.22936
550 1.70394
555 1.6758
560 1.49602
565 1.20591
570 1.09307
575 0.942084
580 0.873875
585 0.675786
590 0.644662
595 0.482903
600 0.300286
Ex : 473
200 0.208212
205 0.212483
210 0.215228
215 0.28103
220 0.23071
225 0.212071
230 0.286184
235 0.285914
240 0.235852
245 0.238641
250 0.198745
255 0.253742
260 0.248057
265 0.233581
270 0.269404
275 0.290944
280 0.254103
285 0.267517
290 0.215263
295 0.222665
300 0.249992
305 0.226604
310 0.365361
315 0.26939
320 0.251299
325 0.298961
330 0.287314
335 0.24063
340 0.249907
345 0.246445
350 0.252813
355 0.271296
360 0.267693
365 0.215112
370 0.194672
375 0.217505
380 0.286847
385 0.265544
390 0.226157
395 0.331822
400 0.287841
405 0.274685
410 0.24108
415 0.315284
420 0.343472
425 0.351658
430 0.356965
435 0.374771
440 0.404496
445 0.474574
450 0.533506
455 0.721051
460 19.9163
465 288.803
470 397.184
475 92.0889
480 12.0075
485 2.82296
490 1.54545
495 1.43153
500 1.75588
505 1.76114
510 1.71525
515 1.50383
520 1.6859
525 1.77381
530 1.67775
535 1.83677
540 2.79921
545 3.33363
550 2.4143
555 1.69959
560 1.66137
565 1.46101
570 1.15373
575 1.058
580 0.811934
585 0.649667
590 0.706596
595 0.57696
600 0.301263
Ex : 478
200 0.260094
205 0.283627
210 0.244241
215 0.204199
220 0.238892
225 0.276391
230 0.268747
235 0.285904
240 0.35287
245 0.332609
250 0.299693
255 0.365432
260 0.259745
265 0.282936
270 0.26512
275 0.262615
280 0.265115
285 0.257752
290 0.274049
295 0.288374
300 0.313052
305 0.341621
310 0.316801
315 0.296325
320 0.275904
325 0.298689
330 0.346459
335 0.316897
340 0.270561
345 0.270852
350 0.268065
355 0.261762
360 0.341741
365 0.270231
370 0.274739
375 0.233547
380 0.268297
385 0.303203
390 0.30184
395 0.286618
400 0.329488
405 0.307883
410 0.354454
415 0.303464
420 0.288907
425 0.297035
430 0.332453
435 0.335836
440 0.335428
445 0.38002
450 0.488702
455 0.761319
460 0.868157
465 21.4338
470 299.34
475 408.488
480 98.8652
485 12.7771
490 2.924
495 1.75783
500 1.40041
505 1.58652
510 1.82115
515 1.73857
520 1.60526
525 1.69087
530 1.71474
535 1.62031
540 1.61356
545 2.23438
550 2.91172
555 2.60476
560 1.92993
565 1.47019
570 1.38151
575 1.04604
580 0.900596
585 0.65767
590 0.576033
595 0.617953
600 0.378565
Ex : 483
200 0.257439
205 0.265417
210 0.268729
215 0.281129
220 0.287605
225 0.283426
230 0.240925
235 0.22719
240 0.266506
245 0.251645
250 0.25537
255 0.272728
260 0.275707
265 0.256864
270 0.236232
275 0.291808
280 0.293254
285 0.306381
290 0.301645
295 0.262581
300 0.252487
305 0.302112
310 0.298533
315 0.293555
320 0.271656
325 0.287569
330 0.252703
335 0.305893
340 0.330006
345 0.308101
350 0.290071
355 0.292492
360 0.285223
365 0.219829
370 0.324105
375 0.31617
380 0.28849
385 0.289228
390 0.286908
395 0.251547
400 0.29353
405 0.295782
410 0.318692
415 0.338744
420 0.339707
425 0.311671
430 0.348353
435 0.330011
440 0.368425
445 0.451924
450 0.375725
455 0.450993
460 0.638243
465 0.892926
470 16.8709
475 291.391
480 434.978
485 104.811
490 13.2905
495 2.84075
500 1.58524
505 1.39192
510 1.64395
515 1.77575
520 1.6277
525 1.59753
530 1.68101
535 1.5555
540 1.58879
545 1.5657
550 1.54578
555 2.61839
560 2.69107
565 1.79415
570 1.31446
575 1.13844
580 0.907509
585 0.715832
590 0.726916
595 0.584193
600 0.383209
Ex : 488
200 0.297315
205 0.352063
210 0.291046
215 0.253786
220 0.333051
225 0.335497
230 0.31787
235 0.339811
240 0.373442
245 0.300509
250 0.304541
255 0.2985
260 0.382016
265 0.333895
270 0.340938
275 0.421229
280 0.266123
285 0.314058
290 0.289978
295 0.307405
300 0.261968
305 0.317644
310 0.296724
315 0.335
320 0.335627
325 0.265618
330 0.292203
335 0.386857
340 0.310827
345 0.311519
350 0.279993
355 0.276421
360 0.273931
365 0.336624
370 0.323845
375 0.279613
380 0.361019
385 0.347295
390 0.380263
395 0.296009
400 0.331253
405 0.373721
410 0.381122
415 0.436637
420 0.380925
425 0.360972
430 0.407298
435 0.374706
440 0.349029
445 0.521392
450 0.422518
455 0.478814
460 0.54298
465 0.710375
470 1.03726
475 21.323
480 312.37
485 426.85
490 100.097
495 12.6337
500 2.73222
505 1.58934
510 1.43182
515 1.59432
520 1.81201
525 1.8089
530 1.7986
535 1.63062
540 1.56122
545 1.60633
550 1.52135
555 1.64093
560 2.13983
565 2.53736
570 1.86143
575 1.26877
580 1.17311
585 0.844104
590 0.688493
595 0.597823
600 0.0787718
Ex : 493
200 0.310806
205 0.287533
210 0.269358
215 0.279754
220 0.369904
225 0.295368
230 0.298704
235 0.264798
240 0.336681
245 0.320679
250 0.304806
255 0.294438
260 0.292046
265 0.327108
270 0.422622
275 0.283915
280 0.302751
285 0.382183
290 0.343453
295 0.269693
300 0.321007
305 0.259059
310 0.288024
315 0.302331
320 0.271863
325 0.364601
330 0.320628
335 0.332509
340 0.358429
345 0.312068
350 0.296871
355 0.282588
360 0.297153
365 0.299845
370 0.402358
375 0.344879
380 0.308045
385 0.325885
390 0.347898
395 0.4146
400 0.301342
405 0.412784
410 0.323275
415 0.356916
420 0.348673
425 0.352855
430 0.330426
435 0.264713
440 0.382954
445 0.392389
450 0.362417
455 0.405267
460 0.536283
465 0.58126
470 0.673475
475 0.952589
480 18.9999
485 303.158
490 443.276
495 101.394
500 12.9121
505 2.65733
510 1.54873
515 1.4962
520 1.45932
525 1.89241
530 1.81784
535 1.79134
540 1.42652
545 1.63636
550 1.38057
555 1.45548
560 1.25622
565 1.6968
570 2.29228
575 1.87817
580 1.09799
585 0.819498
590 0.873721
595 0.753932
600 0.730951
Ex : 498
200 0.379705
205 0.320118
210 0.338967
215 0.340316
220 0.317342
225 0.283928
230 0.292573
235 0.333058
240 0.338767
245 0.32255
250 0.287021
255 0.300172
260 0.387548
265 0.297813
270 0.374868
275 0.443026
280 0.340191
285 0.315569
290 0.373171
295 0.413665
300 0.351712
305 0.303668
310 0.332158
315 0.254909
320 0.268502
325 0.428434
330 0.337686
335 0.380826
340 0.410693
345 0.314406
350 0.32506
355 0.367579
360 0.29414
365 0.410639
370 0.403295
375 0.377118
380 0.323421
385 0.303851
390 0.331081
395 0.327747
400 0.339997
405 0.397471
410 0.348956
415 0.37683
420 0.379208
425 0.31301
430 0.294179
435 0.458351
440 0.435962
445 0.435757
450 0.39889
455 0.435981
460 0.462498
465 0.591706
470 0.566955
475 0.815023
480 0.997205
485 22.5181
490 325.774
495 441.205
500 102.121
505 12.9289
510 2.92153
515 1.76572
520 1.5178
525 1.73948
530 1.89374
535 1.83805
540 1.69473
545 1.48895
550 1.40916
555 1.33346
560 1.32156
565 1.23599
570 1.25888
575 1.74568
580 1.66299
585 1.17114
590 0.762684
595 0.76189
600 1.11672
Ex : 503
200 0.444805
205 0.396693
210 0.372087
215 0.270089
220 0.321651
225 0.345091
230 0.339587
235 0.332285
240 0.33255
245 0.276043
250 0.348931
255 0.288149
260 0.359065
265 0.397957
270 0.320232
275 0.381182
280 0.300639
285 0.294954
290 0.397934
295 0.358897
300 0.303942
305 0.31768
310 0.398174
315 0.302757
320 0.415655
325 0.408887
330 0.323323
335 0.39604
340 0.354764
345 0.361523
350 0.338145
355 0.297052
360 0.338051
365 0.341082
370 0.419696
375 0.470023
380 0.389723
385 0.357906
390 0.438644
395 0.412
400 0.370868
405 0.395644
410 0.425626
415 0.394647
420 0.360526
425 0.349718
430 0.409166
435 0.402888
440 0.386432
445 0.39213
450 0.438968
455 0.360821
460 0.417247
465 0.468926
470 0.608479
475 0.664324
480 0.762313
485 1.03467
490 21.3366
495 324.679
500 446.058
505 102.578
510 13.0848
515 2.72284
520 1.81833
525 1.55217
530 1.67424
535 1.7744
540 1.65438
545 1.62935
550 1.4274
555 1.21036
560 1.17152
565 1.1398
570 1.07754
575 0.954659
580 1.2334
585 1.49485
590 1.16233
595 0.821171
600 0.513448
Ex : 508
200 0.30079
205 0.321391
210 0.369302
215 0.344159
220 0.395143
225 0.345483
230 0.325231
235 0.37642
240 0.421015
245 0.29737
250 0.458228
255 0.425507
260 0.359499
265 0.331824
270 0.293434
275 0.42726
280 0.396101
285 0.34286
290 0.324023
295 0.313316
300 0.317121
305 0.425243
310 0.467898
315 0.473316
320 0.367197
325 0.321596
330 0.323516
335 0.35522
340 0.346278
345 0.367259
350 0.514511
355 0.403386
360 0.414618
365 0.410901
370 0.374364
375 0.371921
380 0.438318
385 0.366611
390 0.446277
395 0.359255
400 0.459364
405 0.460937
410 0.441987
415 0.383545
420 0.462283
425 0.442244
430 0.464224
435 0.439254
440 0.509936
445 0.450407
450 0.407778
455 0.475098
460 0.568308
465 0.470635
470 0.512257
475 0.650307
480 0.731676
485 0.751333
490 0.976895
495 22.3135
500 323.522
505 449.013
510 107.37
515 13.7801
520 3.27095
525 1.97745
530 1.59324
535 1.5984
540 1.53751
545 1.6559
550 1.56947
555 1.36493
560 1.1782
565 1.13378
570 1.0466
575 0.888034
580 0.864895
585 0.981918
590 1.17744
595 0.988449
600 0.972492
Ex : 513
200 0.551222
205 0.375454
210 0.361759
215 0.390122
220 0.41801
225 0.321249
230 0.323442
235 0.308922
240 0.309703
245 0.341357
250 0.39601
255 0.372707
260 0.410875
265 0.504567
270 0.347925
275 0.344205
280 0.325381
285 0.350918
290 0.403576
295 0.357506
300 0.430715
305 0.407328
310 0.330417
315 0.340269
320 0.407563
325 0.386947
330 0.361981
335 0.38363
340 0.410999
345 0.389436
350 0.455688
355 0.349756
360 0.39023
365 0.396034
370 0.389406
375 0.510905
380 0.409163
385 0.462545
390 0.38169
395 0.438282
400 0.319161
405 0.37146
410 0.480035
415 0.264133
420 0.370544
425 0.345204
430 0.373427
435 0.347857
440 0.36454
445 0.405844
450 0.47569
455 0.378591
460 0.484793
465 0.431812
470 0.464908
475 0.506754
480 0.606111
485 0.687987
490 0.713248
495 0.91735
500 20.3371
505 316.925
510 459.496
515 111.759
520 14.1849
525 3.01741
530 1.77739
535 1.48239
540 1.48739
545 1.52909
550 1.56742
555 1.37048
560 1.21942
565 1.10526
570 0.918344
575 0.951447
580 0.948816
585 0.856446
590 0.76214
595 1.08743
600 0.916898
Ex : 518
200 0.369142
205 0.443153
210 0.433596
215 0.404993
220 0.35341
225 0.373837
230 0.395401
235 0.35246
240 0.521074
245 0.33718
250 0.346816
255 0.430228
260 0.37943
265 0.413578
270 0.455895
275 0.441981
280 0.459491
285 0.356407
290 0.362774
295 0.265553
300 0.342476
305 0.466863
310 0.430662
315 0.393642
320 0.410685
325 0.483774
330 0.428231
335 0.36412
340 0.404505
345 0.332534
350 0.430816
355 0.330011
360 0.378911
365 0.340436
370 0.396916
375 0.43409
380 0.458483
385 0.438764
390 0.446386
395 0.429305
400 0.428859
405 0.392049
410 0.435034
415 0.366518
420 0.380457
425 0.520127
430 0.445028
435 0.385458
440 0.519417
445 0.469214
450 0.42217
455 0.508562
460 0.413021
465 0.401195
470 0.438752
475 0.4325
480 0.661335
485 0.575635
490 0.582116
495 0.791589
500 1.04624
505 21.9627
510 328.873
515 479.248
520 115.745
525 14.7454
530 2.8097
535 1.76801
540 1.37506
545 1.38544
550 1.32648
555 1.54213
560 1.34617
565 1.10166
570 1.00151
575 0.839565
580 0.875786
585 0.777548
590 0.695228
595 0.720282
600 0.381911
Ex : 523
200 0.473637
205 0.411266
210 0.287046
215 0.383556
220 0.398061
225 0.408813
230 0.323972
235 0.326244
240 0.343915
245 0.407535
250 0.341284
255 0.47394
260 0.37211
265 0.29535
270 0.325233
275 0.430018
280 0.368269
285 0.409893
290 0.405704
295 0.366363
300 0.397862
305 0.350819
310 0.356171
315 0.374597
320 0.396335
325 0.35304
330 0.337792
335 0.400993
340 0.362198
345 0.479055
350 0.440998
355 0.350251
360 0.446091
365 0.448628
370 0.466046
375 0.391374
380 0.494679
385 0.470678
390 0.469094
395 0.492334
400 0.423318
405 0.403264
410 0.35289
415 0.360274
420 0.356881
425 0.415889
430 0.476973
435 0.419534
440 0.434351
445 0.498066
450 0.459549
455 0.53804
460 0.489618
465 0.374531
470 0.491059
475 0.507198
480 0.505533
485 0.398051
490 0.588251
495 0.636944
500 0.67308
505 0.930928
510 18.4618
515 288.926
520 437.059
525 113.405
530 14.444
535 2.99976
540 1.71195
545 1.31226
550 1.16517
555 1.34671
560 1.14198
565 1.33615
570 1.03007
575 1.0303
580 0.905917
585 0.723806
590 0.739931
595 0.706643
600 0.493037
Ex : 528
200 0.541782
205 0.51436
210 0.373068
215 0.414103
220 0.330567
225 0.443582
230 0.482523
235 0.357753
240 0.321571
245 0.335417
250 0.425131
255 0.407939
260 0.440709
265 0.44836
270 0.478881
275 0.321473
280 0.433601
285 0.407697
290 0.397078
295 0.400606
300 0.439716
305 0.486409
310 0.358759
315 0.383815
320 0.426126
325 0.383129
330 0.356882
335 0.347515
340 0.470777
345 0.470658
350 0.456785
355 0.440253
360 0.425937
365 0.502486
370 0.402051
375 0.379723
380 0.495375
385 0.339609
390 0.354727
395 0.371858
400 0.401597
405 0.572778
410 0.460016
415 0.425001
420 0.503761
425 0.541789
430 0.514015
435 0.380856
440 0.393859
445 0.40972
450 0.513578
455 0.429235
460 0.523664
465 0.435089
470 0.43447
475 0.471968
480 0.538294
485 0.547413
490 0.56705
495 0.588087
500 0.637715
505 0.794931
510 0.949197
515 17.5888
520 286.959
525 436.876
530 110.13
535 14.0341
540 2.96056
545 1.50921
550 1.40852
555 1.0817
560 1.28001
565 1.16505
570 1.16395
575 1.00887
580 0.782707
585 0.73137
590 0.748876
595 0.628553
600 0.203723
Ex : 533
200 0.466594
205 0.478494
210 0.582639
215 0.422652
220 0.395895
225 0.368226
230 0.426952
235 0.346299
240 0.378856
245 0.385886
250 0.3354
255 0.412107
260 0.358779
265 0.504154
270 0.392432
275 0.477759
280 0.409651
285 0.408467
290 0.482384
295 0.37176
300 0.48802
305 0.351017
310 0.428524
315 0.306006
320 0.41532
325 0.415029
330 0.410177
335 0.395552
340 0.39184
345 0.345914
350 0.466667
355 0.42595
360 0.37168
365 0.473438
370 0.537975
375 0.41718
380 0.404606
385 0.402734
390 0.522969
395 0.419696
400 0.377015
405 0.416226
410 0.436269
415 0.486199
420 0.534867
425 0.453786
430 0.48582
435 0.466589
440 0.452409
445 0.484738
450 0.46822
455 0.41256
460 0.427078
465 0.451772
470 0.546792
475 0.411995
480 0.448951
485 0.488419
490 0.520874
495 0.508998
500 0.611025
505 0.662887
510 0.752508
515 1.17061
520 17.4626
525 287.945
530 436.398
535 112.241
540 14.0537
545 2.75231
550 1.38595
555 1.19747
560 1.05184
565 1.10115
570 0.98512
575 0.966522
580 0.818149
585 0.877451
590 0.665955
595 0.69755
600 1.0618
Ex : 538
200 0.426493
205 0.458012
210 0.430292
215 0.405535
220 0.448923
225 0.368097
230 0.460047
235 0.394461
240 0.463689
245 0.478013
250 0.611718
255 0.472135
260 0.371504
265 0.393366
270 0.361868
275 0.37839
280 0.409414
285 0.391558
290 0.387131
295 0.44827
300 0.356325
305 0.386157
310 0.405813
315 0.489971
320 0.512971
325 0.450608
330 0.473884
335 0.420286
340 0.374277
345 0.431908
350 0.401021
355 0.437108
360 0.411321
365 0.454181
370 0.472193
375 0.468486
380 0.467695
385 0.497075
390 0.452784
395 0.43484
400 0.467347
405 0.451653
410 0.405953
415 0.42709
420 0.417989
425 0.487015
430 0.480255
435 0.380224
440 0.460705
445 0.580894
450 0.518061
455 0.450831
460 0.403115
465 0.559367
470 0.550077
475 0.476996
480 0.430674
485 0.508051
490 0.545176
495 0.405462
500 0.500446
505 0.582348
510 0.702443
515 0.828586
520 1.14238
525 15.2023
530 262.502
535 419.702
540 113.691
545 14.2283
550 2.94644
555 1.44784
560 1.16857
565 0.99699
570 0.9457
575 0.868099
580 0.888584
585 0.886573
590 0.752911
595 0.629391
600 0.695636
Ex : 543
200 0.412753
205 0.397745
210 0.59134
215 0.501046
220 0.431771
225 0.437827
230 0.398478
235 0.306599
240 0.495205
245 0.383113
250 0.397485
255 0.439514
260 0.43976
265 0.475493
270 0.498892
275 0.436923
280 0.411383
285 0.405113
290 0.329373
295 0.434736
300 0.478692
305 0.435753
310 0.365434
315 0.411649
320 0.628331
325 0.515056
330 0.547632
335 0.486402
340 0.485379
345 0.496347
350 0.530504
355 0.453809
360 0.505231
365 0.447837
370 0.595147
375 0.523395
380 0.507945
385 0.50309
390 0.472638
395 0.484149
400 0.4054
405 0.439887
410 0.518382
415 0.557189
420 0.431121
425 0.494144
430 0.539273
435 0.457243
440 0.349708
445 0.562263
450 0.473268
455 0.538855
460 0.467879
465 0.489524
470 0.444577
475 0.523087
480 0.428563
485 0.439536
490 0.543353
495 0.54539
500 0.618424
505 0.668008
510 0.620414
515 0.591511
520 0.762434
525 0.845134
530 13.9976
535 254.219
540 421.828
545 117.47
550 14.7568
555 2.80775
560 1.30914
565 0.958593
570 0.996702
575 0.889495
580 0.75568
585 0.708443
590 0.742401
595 0.737752
600 1.68553
Ex : 548
200 0.413476
205 0.423093
210 0.362627
215 0.48523
220 0.406302
225 0.462141
230 0.389897
235 0.471488
240 0.36654
245 0.323181
250 0.473172
255 0.517959
260 0.40382
265 0.494296
270 0.435766
275 0.465567
280 0.428873
285 0.454518
290 0.401813
295 0.448955
300 0.519921
305 0.404859
310 0.476608
315 0.541894
320 0.363711
325 0.502098
330 0.422076
335 0.393676
340 0.47904
345 0.423442
350 0.478757
355 0.445027
360 0.587421
365 0.54612
370 0.508766
375 0.645962
380 0.466049
385 0.62367
390 0.464367
395 0.407857
400 0.58975
405 0.445602
410 0.524829
415 0.512295
420 0.441854
425 0.509735
430 0.541982
435 0.611143
440 0.490791
445 0.472848
450 0.47925
455 0.494863
460 0.513726
465 0.533094
470 0.451539
475 0.537127
480 0.514997
485 0.449757
490 0.686105
495 0.47028
500 0.524229
505 0.47691
510 0.642642
515 0.539237
520 0.621517
525 0.742769
530 0.94425
535 15.5329
540 255.787
545 410.155
550 116.062
555 14.5045
560 2.52338
565 1.12101
570 0.98167
575 0.779545
580 0.660437
585 0.757879
590 0.724709
595 0.729294
600 0.564386
Ex : 553
200 0.470254
205 0.394867
210 0.51158
215 0.42426
220 0.486361
225 0.541232
230 0.464185
235 0.39325
240 0.449627
245 0.459699
250 0.489387
255 0.570979
260 0.416354
265 0.504858
270 0.523199
275 0.444481
280 0.458524
285 0.442718
290 0.53339
295 0.493256
300 0.427509
305 0.500029
310 0.444539
315 0.469452
320 0.43179
325 0.412325
330 0.501742
335 0.487636
340 0.538937
345 0.497779
350 0.41881
355 0.375398
360 0.388621
365 0.417175
370 0.496271
375 0.481142
380 0.537195
385 0.557954
390 0.495064
395 0.544864
400 0.457792
405 0.443288
410 0.578782
415 0.442613
420 0.428213
425 0.45877
430 0.48924
435 0.596038
440 0.463709
445 0.651054
450 0.622552
455 0.56608
460 0.459988
465 0.477166
470 0.437831
475 0.633616
480 0.580594
485 0.560438
490 0.580363
495 0.521809
500 0.529071
505 0.442
510 0.518355
515 0.463683
520 0.671662
525 0.66824
530 0.819831
535 0.953846
540 13.0639
545 253.762
550 418.725
555 117.62
560 14.6078
565 2.64812
570 1.07089
575 0.880859
580 0.825825
585 0.703882
590 0.68599
595 0.835521
600 1.4187
Ex : 558
200 0.546523
205 0.498258
210 0.392514
215 0.538579
220 0.57605
225 0.484241
230 0.454836
235 0.575547
240 0.53934
245 0.586187
250 0.398236
255 0.478365
260 0.53911
265 0.544297
270 0.609428
275 0.728664
280 0.383074
285 0.513852
290 0.480221
295 0.414417
300 0.659028
305 0.3926
310 0.436228
315 0.560662
320 0.459204
325 0.488793
330 0.599881
335 0.455819
340 0.577217
345 0.695906
350 0.450981
355 0.637874
360 0.484977
365 0.524147
370 0.560022
375 0.488812
380 0.562412
385 0.475457
390 0.524729
395 0.531772
400 0.416494
405 0.587729
410 0.42325
415 0.622896
420 0.498799
425 0.446437
430 0.579268
435 0.48337
440 0.559454
445 0.528404
450 0.497727
455 0.466885
460 0.412965
465 0.381854
470 0.546407
475 0.576663
480 0.483675
485 0.602143
490 0.497275
495 0.569015
500 0.499936
505 0.469829
510 0.500042
515 0.501916
520 0.594248
525 0.662272
530 0.633999
535 0.751522
540 1.06972
545 12.6052
550 230.462
555 400.31
560 114.213
565 14.3265
570 2.58812
575 1.03602
580 0.891328
585 0.74802
590 0.631835
595 0.659123
600 0.0926124
Ex : 563
200 0.574086
205 0.421328
210 0.418204
215 0.471433
220 0.544768
225 0.481474
230 0.412221
235 0.412537
240 0.472948
245 0.533944
250 0.434505
255 0.462006
260 0.484348
265 0.439217
270 0.573415
275 0.470628
280 0.51827
285 0.421237
290 0.528568
295 0.480738
300 0.412312
305 0.534733
310 0.624825
315 0.53246
320 0.448031
325 0.497302
330 0.559028
335 0.581648
340 0.585754
345 0.420815
350 0.626412
355 0.601989
360 0.457505
365 0.492312
370 0.545914
375 0.594633
380 0.467752
385 0.552249
390 0.517668
395 0.557343
400 0.594093
405 0.522301
410 0.605736
415 0.621344
420 0.585139
425 0.524161
430 0.543833
435 0.519639
440 0.738985
445 0.492068
450 0.674121
455 0.535613
460 0.599807
465 0.504934
470 0.564384
475 0.506452
480 0.61527
485 0.568871
490 0.643728
495 0.504238
500 0.600711
505 0.55677
510 0.505435
515 0.475912
520 0.520158
525 0.565573
530 0.748286
535 0.621034
540 0.894552
545 1.00816
550 12.5316
555 226.88
560 393.959
565 115.02
570 14.4608
575 2.49286
580 1.03504
585 0.996367
590 0.787951
595 0.761161
600 0.802864
Ex : 568
200 0.569122
205 0.463262
210 0.577526
215 0.552771
220 0.475532
225 0.472271
230 0.454717
235 0.498144
240 0.602672
245 0.473196
250 0.712214
255 0.453521
260 0.440409
265 0.492767
270 0.581166
275 0.449138
280 0.557727
285 0.553503
290 0.436948
295 0.569611
300 0.50619
305 0.469356
310 0.441191
315 0.459592
320 0.491276
325 0.455655
330 0.513115
335 0.504423
340 0.478092
345 0.658608
350 0.544929
355 0.419178
360 0.526058
365 0.490081
370 0.504801
375 0.412646
380 0.510599
385 0.545697
390 0.636428
395 0.637545
400 0.48785
405 0.496587
410 0.586632
415 0.506998
420 0.524338
425 0.431584
430 0.580683
435 0.5589
440 0.545756
445 0.572017
450 0.586099
455 0.671145
460 0.467209
465 0.529604
470 0.4332
475 0.491498
480 0.512304
485 0.610347
490 0.556016
495 0.642667
500 0.49376
505 0.585151
510 0.684821
515 0.546079
520 0.607475
525 0.665452
530 0.566817
535 0.57892
540 0.624257
545 0.775325
550 0.864934
555 9.70629
560 202.669
565 364.358
570 112.165
575 13.9147
580 2.32694
585 0.961889
590 0.821595
595 0.835132
600 1.07971
Ex : 573
200 0.364935
205 0.472575
210 0.588627
215 0.455604
220 0.487974
225 0.531106
230 0.465167
235 0.576847
240 0.73348
245 0.568444
250 0.457658
255 0.556893
260 0.572185
265 0.69758
270 0.688034
275 0.543595
280 0.575941
285 0.549897
290 0.514266
295 0.619634
300 0.664363
305 0.622622
310 0.601675
315 0.491302
320 0.538249
325 0.419757
330 0.573699
335 0.472914
340 0.478982
345 0.507066
350 0.528903
355 0.613602
360 0.682078
365 0.555818
370 0.459824
375 0.639363
380 0.603893
385 0.635706
390 0.488358
395 0.667705
400 0.46616
405 0.488245
410 0.681025
415 0.592519
420 0.603002
425 0.636934
430 0.515893
435 0.58984
440 0.477662
445 0.657006
450 0.647779
455 0.64065
460 0.583972
465 0.541989
470 0.517659
475 0.57411
480 0.441626
485 0.536823
490 0.516128
495 0.592198
500 0.529669
505 0.637713
510 0.755685
515 0.64876
520 0.648146
525 0.523509
530 0.643923
535 0.622725
540 0.697003
545 0.794086
550 0.849989
555 0.979209
560 8.53695
565 180.553
570 349.423
575 109.226
580 13.6829
585 2.32828
590 0.948207
595 0.943586
600 0.396356
Ex : 578
200 0.459692
205 0.591091
210 0.487104
215 0.495876
220 0.539202
225 0.526389
230 0.511504
235 0.466224
240 0.570714
245 0.510925
250 0.492461
255 0.514758
260 0.591418
265 0.531685
270 0.445441
275 0.484827
280 0.411779
285 0.477246
290 0.540106
295 0.515215
300 0.629674
305 0.451365
310 0.61351
315 0.551048
320 0.522731
325 0.519045
330 0.595325
335 0.574857
340 0.586121
345 0.529923
350 0.542972
355 0.572813
360 0.465054
365 0.432723
370 0.528432
375 0.491372
380 0.381858
385 0.57207
390 0.480942
395 0.582728
400 0.478753
405 0.507241
410 0.614984
415 0.690454
420 0.635416
425 0.586357
430 0.685575
435 0.509324
440 0.56269
445 0.388621
450 0.516577
455 0.554667
460 0.560819
465 0.631755
470 0.556489
475 0.599856
480 0.515768
485 0.546423
490 0.672221
495 0.46828
500 0.471827
505 0.444955
510 0.543859
515 0.580036
520 0.55811
525 0.517142
530 0.617068
535 0.443283
540 0.508572
545 0.597156
550 0.724989
555 0.892869
560 1.01605
565 7.65543
570 162.159
575 304.975
580 94.374
585 11.883
590 2.17631
595 0.961893
600 0.222734
Ex : 583
200 0.439363
205 0.442526
210 0.501004
215 0.658778
220 0.648808
225 0.538894
230 0.440465
235 0.543009
240 0.552939
245 0.518811
250 0.592809
255 0.635369
260 0.56035
265 0.506868
270 0.519732
275 0.555457
280 0.691293
285 0.545715
290 0.571937
295 0.606433
300 0.551018
305 0.620708
310 0.486331
315 0.416511
320 0.573901
325 0.43602
330 0.507618
335 0.534661
340 0.601202
345 0.590452
350 0.529372
355 0.418086
360 0.461105
365 0.538513
370 0.470744
375 0.486178
380 0.445091
385 0.614
390 0.634986
395 0.492421
400 0.500457
405 0.592955
410 0.540195
415 0.675366
420 0.607788
425 0.501281
430 0.599669
435 0.765258
440 0.647113
445 0.484884
450 0.505581
455 0.55031
460 0.50869
465 0.453336
470 0.553627
475 0.610119
480 0.530466
485 0.595739
490 0.554084
495 0.716461
500 0.602527
505 0.570411
510 0.569779
515 0.561749
520 0.66312
525 0.708016
530 0.744974
535 0.614118
540 0.661947
545 0.636124
550 0.595641
555 0.668198
560 0.666677
565 0.991784
570 6.27785
575 148.47
580 298.128
585 91.0179
590 11.4248
595 2.08837
600 1.04709
Ex : 588
200 0.541167
205 0.41817
210 0.499353
215 0.583444
220 0.549855
225 0.630306
230 0.453042
235 0.560934
240 0.565295
245 0.494415
250 0.636614
255 0.487554
260 0.521114
265 0.511801
270 0.619515
275 0.584181
280 0.558568
285 0.61575
290 0.572275
295 0.502194
300 0.516964
305 0.603322
310 0.485723
315 0.710711
320 0.599418
325 0.548529
330 0.470307
335 0.495856
340 0.459853
345 0.505365
350 0.785735
355 0.642633
360 0.660203
365 0.541489
370 0.56846
375 0.516392
380 0.526264
385 0.575533
390 0.574925
395 0.565915
400 0.52775
405 0.551312
410 0.613175
415 0.531133
420 0.582908
425 0.578211
430 0.499896
435 0.694715
440 0.574392
445 0.712282
450 0.500136
455 0.610179
460 0.727134
465 0.651426
470 0.557235
475 0.488207
480 0.638959
485 0.639766
490 0.522447
495 0.607491
500 0.587681
505 0.553406
510 0.594154
515 0.629516
520 0.703258
525 0.550113
530 0.533756
535 0.693547
540 0.619758
545 0.74146
550 0.593717
555 0.584092
560 0.539256
565 0.998045
570 0.918982
575 5.7327
580 123.044
585 232.078
590 67.9745
595 8.68512
600 1.7409
Ex : 593
200 0.517974
205 0.658664
210 0.5103
215 0.602936
220 0.678297
225 0.588829
230 0.476201
235 0.551437
240 0.578176
245 0.477201
250 0.602465
255 0.545363
260 0.524729
265 0.528984
270 0.667183
275 0.654501
280 0.562052
285 0.61368
290 0.728253
295 0.605163
300 0.591809
305 0.618686
310 0.534436
315 0.57664
320 0.455115
325 0.589607
330 0.539713
335 0.581124
340 0.663215
345 0.552052
350 0.580011
355 0.746915
360 0.58147
365 0.442193
370 0.546594
375 0.578706
380 0.504038
385 0.557304
390 0.641525
395 0.556726
400 0.713925
405 0.829687
410 0.677505
415 0.551171
420 0.558425
425 0.479502
430 0.546684
435 0.49381
440 0.855204
445 0.570522
450 0.593614
455 0.637228
460 0.637027
465 0.546838
470 0.726703
475 0.625451
480 0.684727
485 0.726538
490 0.505367
495 0.695384
500 0.566446
505 0.610225
510 0.639906
515 0.593164
520 0.61321
525 0.497953
530 0.499235
535 0.623761
540 0.713355
545 0.595093
550 0.509493
555 0.687729
560 0.873883
565 0.708309
570 0.833482
575 0.895661
580 4.72278
585 107.691
590 205.403
595 60.5911
600 9.92601
Ex : 598
200 0.680391
205 0.539269
210 0.461944
215 0.634403
220 0.420066
225 0.64334
230 0.600162
235 0.645177
240 0.636739
245 0.715394
250 0.585889
255 0.593442
260 0.58649
265 0.57301
270 0.667153
275 0.538327
280 0.722826
285 0.69028
290 0.604851
295 0.601039
300 0.45906
305 0.53457
310 0.774521
315 0.574035
320 0.78042
325 0.695414
330 0.564562
335 0.64698
340 0.608029
345 0.624263
350 0.692387
355 0.590306
360 0.701029
365 0.559809
370 0.57008
375 0.646224
380 0.713656
385 0.570837
390 0.580725
395 0.558814
400 0.634014
405 0.657184
410 0.569319
415 0.61311
420 0.565664
425 0.638224
430 0.53651
435 0.443549
440 0.599219
445 0.536838
450 0.643261
455 0.595714
460 0.690311
465 0.767741
470 0.595128
475 0.599147
480 0.630737
485 0.693346
490 0.596085
495 0.656387
500 0.574974
505 0.639748
510 0.590746
515 0.648819
520 0.589518
525 0.540313
530 0.616484
535 0.618729
540 0.765322
545 0.790013
550 0.561011
555 0.755024
560 0.847279
565 0.545551
570 0.771306
575 0.755229
580 0.876551
585 5.31562
590 99.1741
595 178.239
600 103.575
Ex : 603
200 0.639957
205 0.690381
210 0.624114
215 0.657581
220 0.71706
225 0.741426
230 0.774034
235 0.619146
240 0.528602
245 0.69942
250 0.654843
255 0.576382
260 0.49156
265 0.560978
270 0.671748
275 0.690552
280 0.525688
285 0.628105
290 0.562637
295 0.52232
300 0.588828
305 0.668849
310 0.670345
315 0.586515
320 0.643743
325 0.565051
330 0.570394
335 0.612143
340 0.572582
345 0.65283
350 0.63322
355 0.654127
360 0.714473
365 0.635011
370 0.674709
375 0.745675
380 0.664236
385 0.584359
390 0.500816
395 0.515466
400 0.525439
405 0.745548
410 0.525697
415 0.555313
420 0.634315
425 0.529628
430 0.672452
435 0.600224
440 0.587095
445 0.552153
450 0.656175
455 0.815223
460 0.621218
465 0.735101
470 0.558194
475 0.6153
480 0.634233
485 0.609774
490 0.778235
495 0.730686
500 0.586014
505 0.861801
510 0.749673
515 0.596491
520 0.627955
525 0.569683
530 0.57735
535 0.610905
540 0.669756
545 0.587943
550 0.734418
555 0.666356
560 0.878945
565 0.666833
570 0.733905
575 0.702282
580 0.925989
585 0.866229
590 4.62109
595 84.3961
600 180.422
