File format V 1.0
sam. 10. déc. 04:05:51 2016
Operator : 
Comments : 

=============================================
SpectroFluorometer parameters
Mode : 3D measurement
Data : Fluorescence
Phospho. : Ordinary
Spectrum : Fluorescence

Scan speed : 2400 nm/mn
Response : 100 ms
PM Voltage : 700 V
Shutter : On

Lambda Ex. Start : 203
Lambda Ex. End : 603
Lambda Ex. Step : 5
Ex. Slit : 5 nm

Lambda Em. Start : 200
Lambda Em. End : 600
Lambda Em. Step : 5
Em. Slit : 5 nm

Repetition : 1
Decal lambda em : 10
=============================================
DATA
Ex : 203
200 15.5655
205 15.1829
210 13.1924
215 16.1979
220 15.1775
225 13.9773
230 13.8879
235 13.5808
240 10.4238
245 10.8348
250 13.2118
255 14.9595
260 14.1701
265 11.8806
270 14.2689
275 14.2934
280 15.7262
285 14.6096
290 15.1629
295 18.0039
300 11.1878
305 13.2744
310 18.5277
315 16.6905
320 13.2981
325 12.8942
330 17.9157
335 14.0267
340 20.0639
345 14.1108
350 16.5944
355 12.684
360 14.8674
365 16.7901
370 14.1881
375 14.8532
380 16.915
385 12.8111
390 14.9303
395 16.0599
400 12.2264
405 18.9615
410 14.9513
415 13.2425
420 13.4102
425 12.8727
430 12.61
435 17.9307
440 15.6205
445 18.2687
450 17.4879
455 14.8661
460 16.4171
465 17.8458
470 13.2197
475 13.4403
480 12.0838
485 17.4217
490 15.9569
495 16.9182
500 14.9261
505 14.3942
510 13.9328
515 15.6492
520 17.3954
525 12.5254
530 14.7478
535 14.3841
540 13.6032
545 14.1017
550 12.4988
555 15.9103
560 13.9395
565 11.532
570 13.3647
575 10.9844
580 13.2941
585 14.4371
590 12.0632
595 11.4488
600 1.30283
Ex : 208
200 11.3122
205 9.46799
210 12.6174
215 13.6239
220 15.7683
225 18.0818
230 9.53634
235 12.7874
240 18.1242
245 16.0175
250 12.5639
255 14.6674
260 10.37
265 16.0579
270 15.4514
275 14.3365
280 13.2912
285 12.7245
290 14.349
295 12.3869
300 11.9865
305 12.4095
310 11.6372
315 11.5054
320 15.1648
325 16.9663
330 14.2472
335 15.6444
340 13.7666
345 12.0997
350 16.5997
355 15.8377
360 15.6654
365 14.3053
370 13.6651
375 16.2195
380 11.0682
385 20.4435
390 18.4382
395 15.3111
400 12.2222
405 14.0746
410 12.2106
415 14.6109
420 14.7258
425 14.4182
430 15.6316
435 14.5784
440 14.6167
445 15.0659
450 13.0589
455 12.9238
460 12.2359
465 17.7486
470 16.8971
475 15.9614
480 11.2729
485 14.3381
490 15.7207
495 15.6074
500 14.4998
505 14.3912
510 15.739
515 16.1314
520 13.3944
525 14.0148
530 11.9828
535 16.5238
540 14.416
545 12.2463
550 11.9
555 14.3378
560 11.947
565 12.6404
570 17.9913
575 14.6608
580 16.1248
585 13.8689
590 9.6267
595 12.7105
600 1.44641
Ex : 213
200 10.1366
205 11.1067
210 14.2931
215 17.363
220 13.4423
225 11.5122
230 9.87192
235 14.0489
240 15.7372
245 12.0893
250 12.6288
255 11.9356
260 10.3502
265 10.2471
270 14.0923
275 11.9105
280 15.4587
285 11.8318
290 12.9536
295 12.3479
300 11.3044
305 11.0298
310 14.0287
315 13.097
320 10.9585
325 16.0937
330 13.3921
335 14.8425
340 16.5792
345 11.7128
350 17.2944
355 19.1894
360 12.3943
365 15.5848
370 14.2137
375 12.1112
380 17.7554
385 15.1026
390 15.5372
395 16.2709
400 10.6071
405 14.0729
410 13.6686
415 15.5317
420 16.247
425 13.2931
430 15.6081
435 16.1406
440 15.7853
445 16.4425
450 19.6822
455 14.4785
460 14.0959
465 14.6353
470 17.2962
475 14.5045
480 9.6707
485 11.1526
490 12.3417
495 13.8306
500 13.9949
505 12.8096
510 18.0629
515 16.9895
520 16.5239
525 12.6846
530 13.372
535 12.7316
540 15.9352
545 15.2524
550 15.3224
555 17.0293
560 13.792
565 14.7715
570 14.4929
575 14.4249
580 14.5861
585 17.8172
590 11.3327
595 11.8907
600 12.342
Ex : 218
200 14.4696
205 14.0157
210 14.7855
215 12.8104
220 13.4644
225 18.3993
230 16.4616
235 13.1286
240 14.011
245 11.5248
250 11.2433
255 12.7895
260 11.76
265 12.669
270 13.5563
275 12.6527
280 12.6983
285 9.62937
290 11.6449
295 16.4787
300 14.2625
305 13.188
310 10.7295
315 10.7319
320 15.6893
325 14.8166
330 13.7324
335 12.978
340 12.6613
345 14.1145
350 21.1837
355 21.4137
360 14.1133
365 15.3781
370 10.8143
375 14.6714
380 15.4137
385 16.0408
390 13.3025
395 14.6517
400 13.1121
405 13.8831
410 13.4008
415 11.121
420 12.4173
425 13.2949
430 12.383
435 14.395
440 17.7426
445 18.0176
450 16.2595
455 12.9278
460 13.7334
465 16.5003
470 13.7808
475 20.3748
480 12.9195
485 13.2405
490 14.1702
495 15.3633
500 15.2679
505 12.9488
510 13.1802
515 14.9712
520 13.1395
525 15.0721
530 11.4684
535 13.4867
540 14.9544
545 13.6115
550 13.6767
555 16.0692
560 11.7623
565 11.2402
570 22.4814
575 17.6341
580 15.7747
585 14.1148
590 9.40973
595 12.4877
600 15.3049
Ex : 223
200 10.4
205 14.6114
210 14.1976
215 14.7786
220 13.9094
225 12.8002
230 13.5773
235 11.2056
240 9.10403
245 14.9122
250 11.9068
255 11.2794
260 11.7427
265 12.2017
270 12.743
275 11.6557
280 12.6167
285 12.5087
290 13.4385
295 15.2506
300 13.2469
305 12.9555
310 12.0152
315 12.5325
320 10.3232
325 15.4591
330 12.8482
335 13.9962
340 12.2051
345 13.7143
350 17.0095
355 17.1917
360 14.9816
365 15.3876
370 13.2484
375 14.4188
380 13.4105
385 14.4078
390 12.0996
395 14.5508
400 15.746
405 19.0682
410 14.684
415 18.3626
420 15.6291
425 14.4188
430 17.883
435 13.5803
440 13.3953
445 15.6105
450 13.6574
455 14.9157
460 13.927
465 12.3757
470 17.2106
475 15.0921
480 15.2967
485 15.7714
490 19.6405
495 13.8695
500 14.7402
505 16.0445
510 11.453
515 11.9232
520 12.915
525 15.4415
530 13.2329
535 11.5586
540 11.8816
545 12.9064
550 12.8613
555 12.6598
560 12.153
565 12.0543
570 12.3702
575 10.2451
580 16.6025
585 15.0739
590 12.6016
595 13.2248
600 33.8514
Ex : 228
200 8.89573
205 10.8979
210 10.5839
215 13.652
220 13.8045
225 11.7248
230 13.7114
235 9.19563
240 10.2968
245 10.4531
250 8.15129
255 8.84044
260 11.6359
265 10.1097
270 9.972
275 9.7157
280 10.1233
285 11.6712
290 12.7488
295 12.1527
300 13.0635
305 10.666
310 10.8685
315 8.38494
320 12.3149
325 9.80766
330 14.6474
335 12.5467
340 13.173
345 13.4291
350 15.7299
355 17.0466
360 13.8885
365 14.7112
370 16.1519
375 12.647
380 14.4251
385 11.6929
390 14.8732
395 13.597
400 12.6371
405 17.3941
410 13.0204
415 19.7845
420 14.6669
425 12.21
430 14.5621
435 14.993
440 13.5694
445 14.0884
450 13.8835
455 13.275
460 14.5369
465 13.5119
470 11.8587
475 11.4567
480 10.8448
485 13.5822
490 14.2666
495 12.6371
500 10.0644
505 12.6792
510 12
515 10.4586
520 15.1792
525 15.3527
530 13.1307
535 13.8968
540 13.0798
545 14.9224
550 13.6683
555 13.1755
560 13.0291
565 14.8235
570 12.5138
575 10.6594
580 10.495
585 11.0712
590 12.7089
595 9.58983
600 1.09129
Ex : 233
200 7.11312
205 14.8984
210 8.92766
215 6.87135
220 9.53371
225 10.8373
230 12.3978
235 14.7472
240 11.0575
245 9.55152
250 9.76451
255 12.6808
260 12.6134
265 9.96765
270 12.3988
275 11.6501
280 9.56322
285 10.2785
290 9.38181
295 8.89851
300 11.8853
305 9.73574
310 9.89715
315 11.5007
320 9.70185
325 11.0811
330 11.6644
335 11.2858
340 11.5103
345 15.0718
350 17.5746
355 12.3471
360 14.8397
365 12.5142
370 14.2467
375 12.2013
380 15.9544
385 13.0024
390 12.1011
395 11.0846
400 12.0723
405 11.484
410 14.8802
415 12.7929
420 13.3707
425 14.7013
430 17.5154
435 14.2972
440 14.6366
445 16.4883
450 11.0504
455 12.8971
460 10.8831
465 12.1841
470 10.2773
475 14.6772
480 13.3538
485 11.529
490 11.5574
495 12.4032
500 9.8591
505 9.57434
510 10.5682
515 7.19777
520 10.8287
525 9.67635
530 7.30456
535 9.38247
540 10.4343
545 11.8713
550 9.27389
555 13.7125
560 8.56295
565 8.16601
570 13.5566
575 10.7768
580 11.2928
585 12.5044
590 10.6446
595 11.3729
600 1.42079
Ex : 238
200 11.3058
205 7.43211
210 9.04221
215 7.58688
220 9.36946
225 9.55728
230 9.72807
235 7.67764
240 10.8568
245 8.92448
250 8.92522
255 10.0155
260 11.0332
265 7.43015
270 7.38315
275 15.2579
280 12.8102
285 8.84767
290 7.64811
295 9.20433
300 9.83116
305 7.37968
310 8.92996
315 11.768
320 12.7925
325 9.30041
330 9.76421
335 11.1172
340 12.5454
345 13.3745
350 10.5744
355 10.4959
360 9.33709
365 12.3855
370 11.23
375 10.4085
380 9.42344
385 12.7282
390 10.546
395 11.4637
400 12.2977
405 10.562
410 11.5457
415 11.87
420 11.888
425 10.1125
430 11.5637
435 11.3571
440 10.6191
445 9.76384
450 14.7393
455 11.5182
460 9.819
465 9.89364
470 12.6892
475 12.1299
480 14.4547
485 10.6341
490 8.62605
495 11.3315
500 10.8272
505 8.23799
510 9.29766
515 9.80416
520 8.43714
525 9.85355
530 11.0686
535 7.94131
540 10.0312
545 10.6189
550 15.7457
555 9.83499
560 10.7288
565 8.80201
570 12.6069
575 10.7211
580 9.19957
585 10.2211
590 11.9001
595 7.09462
600 12.1507
Ex : 243
200 5.98328
205 11.6509
210 9.9075
215 5.95958
220 10.1527
225 10.317
230 8.63319
235 8.15782
240 8.04894
245 7.34253
250 6.95101
255 7.53426
260 8.66605
265 6.04045
270 7.63522
275 8.41753
280 7.63503
285 10.5578
290 7.97753
295 7.70935
300 8.55992
305 10.3641
310 8.3668
315 11.022
320 8.49263
325 11.9752
330 9.74835
335 10.0059
340 10.6475
345 9.3964
350 10.7949
355 9.24183
360 11.1538
365 11.8973
370 10.1582
375 10.8411
380 12.2193
385 13.3236
390 11.6339
395 9.80745
400 10.3352
405 12.5138
410 10.0473
415 10.8533
420 8.96403
425 10.7843
430 11.175
435 8.86262
440 9.61827
445 11.2728
450 11.3952
455 7.72483
460 10.344
465 9.4628
470 9.81903
475 10.6278
480 10.1958
485 8.72274
490 9.80684
495 9.11034
500 7.97551
505 10.3689
510 9.86411
515 9.39483
520 10.4687
525 9.70202
530 10.2615
535 8.81788
540 10.5757
545 8.16651
550 8.08363
555 6.69087
560 8.95245
565 10.1708
570 7.70731
575 7.87208
580 10.1528
585 7.67793
590 7.54089
595 8.50278
600 8.43702
Ex : 248
200 7.9494
205 7.01018
210 6.17729
215 5.75721
220 7.38066
225 7.52817
230 6.12177
235 7.82375
240 6.93042
245 7.70215
250 5.55233
255 6.14599
260 9.6722
265 8.13957
270 6.73552
275 6.33651
280 6.17863
285 6.19811
290 8.18882
295 7.29665
300 6.68144
305 7.71527
310 6.94133
315 5.40833
320 8.82065
325 7.92275
330 8.27522
335 9.61787
340 6.97855
345 7.71692
350 9.41187
355 11.2339
360 7.99528
365 8.91425
370 7.88735
375 7.05903
380 9.90606
385 10.8457
390 8.04271
395 8.30649
400 8.22158
405 8.92485
410 10.1081
415 8.46843
420 7.23569
425 7.53361
430 8.0896
435 9.6407
440 7.4199
445 8.99417
450 9.43974
455 7.23807
460 9.71515
465 7.19361
470 8.03409
475 7.37242
480 7.74926
485 8.48562
490 8.59018
495 8.79588
500 8.68958
505 6.11204
510 6.53309
515 8.47685
520 7.46696
525 8.30614
530 6.75536
535 8.48065
540 7.00477
545 7.17566
550 6.63862
555 8.86247
560 7.9006
565 6.28923
570 7.36353
575 7.84773
580 6.12218
585 6.98327
590 6.53868
595 7.47488
600 7.44791
Ex : 253
200 5.46539
205 5.3681
210 4.83078
215 5.03491
220 8.0396
225 7.22669
230 6.36336
235 4.50555
240 4.41898
245 7.34265
250 5.52612
255 6.44632
260 6.16315
265 4.54893
270 3.87545
275 6.08948
280 5.81084
285 4.58303
290 6.9433
295 5.94994
300 7.4157
305 6.76238
310 5.49019
315 5.75439
320 4.61499
325 6.81597
330 5.42767
335 6.73029
340 7.35253
345 5.6412
350 6.1686
355 6.27053
360 9.21592
365 6.3008
370 7.79187
375 6.90114
380 6.64302
385 8.19574
390 7.9964
395 6.59336
400 7.17528
405 8.09387
410 6.63456
415 7.23736
420 7.53973
425 5.89772
430 6.14513
435 8.17859
440 5.77255
445 6.74625
450 8.83454
455 7.62105
460 8.15262
465 8.51164
470 7.72984
475 6.52107
480 8.25462
485 6.38663
490 6.57265
495 7.24461
500 8.05432
505 6.78765
510 7.51583
515 9.30315
520 6.63871
525 6.72779
530 5.2137
535 5.53761
540 5.58348
545 6.54857
550 9.16634
555 5.80777
560 5.91079
565 6.02611
570 5.76813
575 7.291
580 6.24218
585 4.97628
590 4.62787
595 4.78516
600 2.31694
Ex : 258
200 6.05882
205 5.04245
210 4.65776
215 4.42726
220 3.65142
225 2.64383
230 4.43648
235 4.08382
240 4.8759
245 5.06272
250 5.53416
255 4.67977
260 4.3773
265 5.48594
270 5.66636
275 4.21195
280 5.08201
285 5.57173
290 3.99265
295 3.8615
300 4.02514
305 3.76414
310 5.36194
315 4.60586
320 5.46722
325 5.26297
330 6.75623
335 4.97148
340 4.85603
345 4.99725
350 5.3012
355 5.70501
360 5.41783
365 5.71886
370 6.19555
375 5.45171
380 5.7987
385 5.5712
390 7.1957
395 5.3552
400 5.86123
405 3.90953
410 5.02185
415 7.1964
420 6.15312
425 5.28781
430 6.08858
435 6.00328
440 4.93895
445 5.03403
450 5.86446
455 6.20789
460 5.09833
465 4.43301
470 4.98593
475 4.73894
480 5.21152
485 7.02996
490 6.1069
495 4.69048
500 3.30229
505 4.19289
510 6.87277
515 6.1095
520 5.13131
525 5.99127
530 6.37279
535 6.25192
540 4.29361
545 4.29823
550 4.07679
555 6.19828
560 4.99402
565 4.56354
570 4.66828
575 3.67151
580 3.85668
585 4.76876
590 3.89055
595 3.655
600 2.56813
Ex : 263
200 4.33871
205 3.55306
210 3.0419
215 2.85134
220 4.18701
225 3.95238
230 3.3034
235 4.40092
240 3.67517
245 4.095
250 3.9506
255 3.56186
260 4.0307
265 4.73616
270 2.75836
275 2.77905
280 3.43995
285 4.30475
290 2.80362
295 3.8414
300 3.73434
305 2.776
310 3.38281
315 3.88422
320 3.65998
325 3.58838
330 4.18029
335 4.19909
340 4.21725
345 4.66343
350 4.54122
355 4.77555
360 6.47256
365 4.65149
370 4.85394
375 5.16432
380 4.84965
385 4.93455
390 4.00147
395 3.88743
400 3.9819
405 4.8352
410 4.73632
415 5.76531
420 4.06867
425 5.66994
430 4.40595
435 4.04752
440 3.2282
445 4.7877
450 5.65222
455 4.32596
460 4.27237
465 4.06862
470 4.30189
475 4.70444
480 4.85689
485 4.25657
490 4.07165
495 4.70296
500 4.07341
505 4.47084
510 3.93292
515 3.54661
520 4.44632
525 4.35875
530 4.65528
535 3.8989
540 4.10728
545 4.60518
550 3.34923
555 4.02558
560 4.76766
565 4.3076
570 2.92267
575 2.95244
580 3.42511
585 3.45801
590 3.84633
595 3.31457
600 3.4789
Ex : 268
200 2.62243
205 3.0033
210 2.29059
215 3.04735
220 2.90522
225 3.0294
230 2.58334
235 1.97633
240 2.57632
245 2.50716
250 2.46797
255 2.0117
260 3.24344
265 3.07814
270 2.67075
275 1.91576
280 2.70352
285 2.99256
290 2.69374
295 2.8013
300 3.5087
305 2.36896
310 2.4622
315 2.3021
320 2.478
325 2.57764
330 3.06789
335 2.95861
340 3.50406
345 3.90028
350 4.46392
355 2.96942
360 3.32653
365 3.4694
370 3.53172
375 3.57997
380 3.62352
385 4.691
390 3.56771
395 3.50875
400 4.05538
405 3.48391
410 3.45079
415 4.31893
420 3.2647
425 3.74952
430 3.71815
435 3.48324
440 4.06587
445 3.36798
450 3.47267
455 2.70117
460 3.35551
465 4.03781
470 3.41246
475 3.86378
480 2.948
485 2.43303
490 3.07888
495 3.63887
500 3.75664
505 3.10454
510 2.40894
515 3.96082
520 3.30592
525 3.4256
530 3.05985
535 3.17419
540 3.16959
545 2.38017
550 2.78551
555 2.33635
560 2.66098
565 2.38194
570 2.48398
575 3.33104
580 2.35811
585 2.87353
590 3.38834
595 2.84646
600 2.25745
Ex : 273
200 2.97132
205 1.85085
210 2.25997
215 2.3367
220 2.61297
225 1.91764
230 2.5146
235 2.77708
240 2.22406
245 1.78851
250 1.96494
255 1.24825
260 2.73902
265 2.06246
270 1.74315
275 2.69231
280 2.37141
285 3.01375
290 2.66882
295 2.55783
300 2.09223
305 1.45329
310 2.16579
315 1.88462
320 2.27869
325 2.66734
330 2.58028
335 3.22311
340 2.76864
345 2.72573
350 3.23318
355 2.91882
360 2.65479
365 3.44043
370 3.74151
375 2.61555
380 2.55448
385 3.15304
390 3.03992
395 2.86014
400 3.63838
405 3.08503
410 2.83871
415 3.29182
420 2.92743
425 3.08534
430 3.34048
435 3.20885
440 2.8462
445 2.78445
450 2.46671
455 2.96291
460 2.35445
465 3.74731
470 3.05451
475 3.04611
480 2.67302
485 2.16546
490 2.13334
495 2.3525
500 2.0608
505 2.12175
510 2.42841
515 2.96765
520 2.15497
525 2.46281
530 2.18539
535 2.82569
540 3.21146
545 2.7231
550 2.93146
555 2.16191
560 1.99089
565 2.0744
570 2.18951
575 1.61654
580 2.15985
585 2.28188
590 2.60443
595 1.76276
600 3.16597
Ex : 278
200 2.28144
205 1.92576
210 2.34902
215 1.74703
220 2.36051
225 1.70134
230 1.26489
235 1.55983
240 1.4932
245 1.19558
250 1.54943
255 1.65264
260 2.08079
265 2.06484
270 1.90048
275 1.92744
280 2.09295
285 1.29574
290 1.79972
295 1.66295
300 1.76045
305 2.51846
310 1.85626
315 1.4868
320 1.77251
325 2.01974
330 2.8568
335 2.4532
340 2.60715
345 2.41342
350 3.23818
355 2.7411
360 2.63333
365 2.86564
370 2.48083
375 2.07478
380 2.58732
385 2.45421
390 2.91649
395 2.64269
400 2.53798
405 2.50701
410 3.32636
415 2.7269
420 2.71523
425 2.87103
430 2.66975
435 2.89662
440 2.86115
445 2.78257
450 2.46895
455 1.95077
460 2.99899
465 2.66044
470 2.22445
475 2.82168
480 2.95613
485 2.2815
490 2.62148
495 2.27714
500 2.11216
505 2.43885
510 2.14131
515 1.84346
520 1.72238
525 2.37732
530 2.46381
535 1.83088
540 2.08035
545 2.13779
550 2.33701
555 2.75157
560 2.6761
565 2.04119
570 1.94187
575 1.54653
580 2.02822
585 2.03583
590 1.68724
595 2.05467
600 3.03536
Ex : 283
200 1.55321
205 1.78613
210 1.58426
215 1.67056
220 1.58134
225 1.74916
230 1.7432
235 1.4426
240 1.86258
245 1.3306
250 1.48894
255 1.34055
260 1.47469
265 1.44521
270 1.44282
275 2.00687
280 1.27901
285 1.6842
290 1.41318
295 1.01902
300 1.43868
305 1.70607
310 1.74714
315 1.39181
320 1.65482
325 2.01374
330 2.40983
335 2.4432
340 2.0817
345 2.12222
350 2.37577
355 2.15297
360 1.93871
365 1.81544
370 2.07612
375 2.33191
380 2.62781
385 2.91963
390 2.24509
395 2.60195
400 2.18128
405 2.39112
410 2.45097
415 2.18322
420 2.39554
425 2.29656
430 1.97061
435 1.97348
440 2.06028
445 1.89486
450 2.27774
455 2.21043
460 2.00906
465 1.85438
470 1.899
475 2.57931
480 2.59211
485 1.97564
490 1.63353
495 1.97539
500 1.8835
505 1.63524
510 2.0581
515 1.6673
520 1.90707
525 2.05843
530 1.84426
535 2.00332
540 1.95076
545 2.17595
550 1.99213
555 2.15976
560 2.51821
565 1.66333
570 2.31367
575 1.63205
580 1.71171
585 2.00271
590 1.39776
595 1.438
600 0.557507
Ex : 288
200 1.1734
205 1.33273
210 1.24644
215 1.32344
220 1.18403
225 1.41187
230 1.37208
235 1.26686
240 1.3605
245 1.30219
250 1.12009
255 1.16328
260 1.03384
265 1.39315
270 1.48499
275 1.40355
280 1.22961
285 1.43741
290 1.59627
295 1.40863
300 1.32847
305 1.10713
310 1.54798
315 1.24179
320 1.48426
325 1.18191
330 1.46937
335 1.8263
340 2.00723
345 1.57583
350 1.64458
355 1.68297
360 1.84881
365 1.6682
370 2.2733
375 1.91326
380 1.70329
385 1.98196
390 1.78223
395 2.12688
400 2.06418
405 2.03094
410 1.92361
415 2.11394
420 1.74467
425 1.94052
430 2.02253
435 1.99056
440 2.17607
445 1.9533
450 1.77301
455 2.06824
460 1.78669
465 2.21746
470 1.82206
475 1.88983
480 1.52624
485 1.78079
490 1.54748
495 1.38225
500 1.46641
505 1.56915
510 1.7895
515 1.38668
520 1.36794
525 1.21113
530 1.39773
535 1.26075
540 1.7907
545 1.34902
550 1.35561
555 1.18593
560 1.38025
565 1.76782
570 1.74951
575 1.2416
580 1.37816
585 1.174
590 1.40682
595 1.93633
600 0.735582
Ex : 293
200 0.743578
205 0.860712
210 1.50412
215 0.981476
220 1.11014
225 0.899908
230 0.935462
235 1.17401
240 1.4627
245 1.30422
250 1.24623
255 0.833907
260 0.960146
265 1.31746
270 1.00462
275 0.964532
280 1.15274
285 1.08182
290 1.07196
295 0.995999
300 0.986855
305 0.897669
310 0.908049
315 1.3279
320 0.882054
325 1.18804
330 1.372
335 1.90203
340 1.82898
345 1.49812
350 1.56829
355 2.11957
360 1.75174
365 1.63493
370 1.73783
375 1.81847
380 1.60752
385 1.73737
390 1.74541
395 1.86472
400 2.24255
405 2.26227
410 2.01797
415 1.89287
420 1.99887
425 1.70718
430 1.86575
435 1.42849
440 1.37506
445 1.5835
450 1.60647
455 1.90158
460 1.69367
465 1.70117
470 1.64621
475 1.41391
480 1.62834
485 1.44685
490 1.7018
495 1.30934
500 1.23598
505 1.29419
510 1.2626
515 1.15205
520 1.4518
525 1.58257
530 1.3932
535 1.57449
540 1.50461
545 1.20173
550 1.15885
555 1.17598
560 0.996317
565 1.55043
570 1.59017
575 1.56491
580 1.66604
585 1.25827
590 1.13861
595 1.28213
600 0.163278
Ex : 298
200 1.02433
205 0.777007
210 0.894744
215 0.838357
220 0.955572
225 1.26027
230 0.924499
235 1.09887
240 0.935076
245 0.825294
250 0.69669
255 1.03286
260 1.06474
265 0.746384
270 1.02922
275 0.799975
280 1.07056
285 0.875829
290 0.975141
295 1.17947
300 1.03765
305 0.713516
310 0.789871
315 0.762399
320 1.24945
325 1.40335
330 1.42692
335 1.73722
340 1.42968
345 1.25479
350 1.36306
355 1.43944
360 1.43846
365 1.34885
370 1.5628
375 1.62116
380 1.49738
385 1.61025
390 1.9446
395 2.23933
400 1.60001
405 1.82375
410 1.59881
415 1.46459
420 1.72225
425 1.53014
430 1.61143
435 1.74351
440 1.48254
445 1.52277
450 1.47281
455 1.17736
460 1.38473
465 1.99761
470 1.55108
475 1.60551
480 1.61577
485 1.35214
490 1.39655
495 0.977531
500 0.941205
505 1.18102
510 1.12672
515 1.10476
520 1.19795
525 1.31436
530 1.25983
535 0.888247
540 0.922395
545 1.04744
550 1.1384
555 1.11006
560 0.833418
565 1.35131
570 0.945231
575 1.25666
580 0.998821
585 1.16167
590 1.42102
595 1.5326
600 2.15359
Ex : 303
200 0.804566
205 0.662316
210 0.818244
215 0.863725
220 0.80438
225 0.592583
230 0.995555
235 0.771276
240 0.630095
245 0.725746
250 0.935738
255 0.840552
260 0.762874
265 0.983577
270 0.876575
275 0.969995
280 0.945084
285 0.785379
290 0.757363
295 0.991377
300 1.17084
305 0.733378
310 0.885393
315 0.91816
320 1.2046
325 1.13258
330 1.47991
335 1.58064
340 1.37255
345 1.55986
350 1.32156
355 1.30995
360 1.46178
365 1.47528
370 1.50511
375 1.53729
380 1.33798
385 1.64506
390 1.75459
395 1.63629
400 1.59803
405 1.57548
410 1.60356
415 1.62339
420 1.49538
425 1.44789
430 1.47645
435 1.16871
440 1.26075
445 1.67667
450 1.44859
455 1.24278
460 0.995334
465 1.31673
470 1.29129
475 1.09738
480 1.31631
485 1.30301
490 0.908949
495 0.970076
500 1.01807
505 0.988704
510 1.10813
515 1.03715
520 1.05075
525 0.828285
530 1.03009
535 0.811914
540 1.16058
545 1.07683
550 0.93837
555 1.1243
560 1.00043
565 0.720212
570 0.758401
575 0.67846
580 0.878699
585 1.04992
590 0.816025
595 1.03564
600 0.551107
Ex : 308
200 0.549538
205 0.864261
210 0.809182
215 0.494751
220 0.831145
225 0.710738
230 0.728266
235 0.882793
240 0.869346
245 0.601916
250 0.836229
255 0.800623
260 0.7966
265 0.731236
270 0.668123
275 0.743357
280 0.642338
285 0.753899
290 0.743341
295 0.719939
300 0.921647
305 0.893258
310 0.809019
315 0.62636
320 0.860789
325 1.01544
330 1.43519
335 1.60693
340 1.43094
345 1.30212
350 1.38378
355 1.30213
360 1.46832
365 1.35997
370 1.53507
375 1.57178
380 1.63952
385 1.53108
390 1.55765
395 1.50876
400 1.61692
405 1.36837
410 1.36741
415 1.66971
420 1.25036
425 1.49373
430 1.52494
435 1.36636
440 1.3425
445 1.549
450 1.36819
455 1.27173
460 1.52757
465 1.50824
470 1.32919
475 0.988425
480 1.26075
485 1.17875
490 0.933101
495 1.13375
500 1.36833
505 1.09417
510 0.984587
515 0.742409
520 1.26199
525 0.75095
530 0.83119
535 0.863624
540 0.800609
545 0.712464
550 0.634267
555 1.07323
560 0.894374
565 0.688646
570 0.86018
575 0.782466
580 0.730067
585 0.525357
590 0.808459
595 0.657568
600 0.552912
Ex : 313
200 0.639198
205 0.73855
210 0.629251
215 0.638435
220 0.704121
225 0.672066
230 0.612574
235 0.661959
240 0.680623
245 0.564329
250 0.650383
255 0.752183
260 0.476646
265 0.630043
270 0.832167
275 0.846672
280 0.64435
285 0.645397
290 0.556608
295 0.610388
300 0.647493
305 0.675363
310 0.832662
315 0.683031
320 0.741716
325 1.30811
330 1.67512
335 1.44537
340 1.40443
345 1.55606
350 1.45989
355 1.42017
360 1.45539
365 1.43267
370 1.34617
375 1.39053
380 1.74345
385 1.75163
390 1.70549
395 1.61919
400 2.01224
405 1.79873
410 1.55454
415 1.75722
420 1.82006
425 1.9583
430 1.60792
435 1.91032
440 1.57827
445 1.53274
450 1.39286
455 1.40545
460 1.51815
465 1.46482
470 1.24509
475 1.24641
480 1.12295
485 1.01715
490 1.15857
495 1.11148
500 1.14799
505 0.938618
510 0.887308
515 0.936682
520 0.855255
525 0.701888
530 0.631909
535 0.76925
540 0.653257
545 0.710125
550 0.761754
555 0.675223
560 0.650576
565 0.78207
570 0.800497
575 0.634056
580 0.681813
585 0.68743
590 0.703224
595 0.623032
600 0.191745
Ex : 318
200 0.360468
205 0.583931
210 0.765199
215 0.623647
220 0.741592
225 0.577692
230 0.717644
235 0.520389
240 0.476307
245 0.48912
250 0.698485
255 0.655375
260 0.681817
265 0.501539
270 0.677152
275 0.552129
280 0.499722
285 0.458108
290 0.586049
295 0.560835
300 0.677748
305 0.750169
310 0.88317
315 2.87854
320 2.32909
325 1.62322
330 2.30091
335 1.92486
340 2.44551
345 2.93646
350 3.07726
355 3.81071
360 4.0845
365 4.51227
370 5.07724
375 6.11523
380 6.7294
385 7.5619
390 7.8889
395 8.40771
400 9.14139
405 8.15873
410 8.90339
415 9.01483
420 8.12813
425 8.0828
430 7.81449
435 8.12317
440 7.6276
445 6.93855
450 6.92691
455 6.73649
460 5.99506
465 5.6526
470 5.37376
475 5.07053
480 4.58294
485 3.86928
490 3.68268
495 3.15749
500 2.92235
505 2.98438
510 2.76707
515 2.45867
520 2.03138
525 1.74217
530 1.59908
535 1.64893
540 1.32677
545 1.58959
550 1.25878
555 1.0953
560 1.09107
565 0.998991
570 0.937764
575 0.773489
580 0.766235
585 0.734358
590 0.739345
595 0.644608
600 0.144966
Ex : 323
200 0.737167
205 0.561496
210 0.662338
215 0.514336
220 0.492673
225 0.630339
230 0.540675
235 0.570059
240 0.55537
245 0.5549
250 0.554042
255 0.557646
260 0.661926
265 0.463927
270 0.517966
275 0.699404
280 0.507073
285 0.722799
290 0.632207
295 0.55459
300 0.596483
305 0.759949
310 0.932419
315 22.1094
320 100.332
325 42.6751
330 8.35382
335 5.10703
340 5.79181
345 7.00335
350 9.53678
355 12.4623
360 15.1753
365 17.4225
370 20.7304
375 24.1697
380 27.0136
385 30.227
390 32.1749
395 34.4774
400 35.8608
405 36.9354
410 36.7182
415 37.1724
420 36.2792
425 33.9916
430 33.3598
435 32.8238
440 30.9049
445 29.6255
450 28.1639
455 26.5114
460 23.7789
465 22.257
470 19.8903
475 19.5747
480 17.8387
485 16.1938
490 14.4649
495 12.9847
500 11.3338
505 10.3899
510 9.26363
515 8.21513
520 7.03959
525 6.37667
530 5.42711
535 4.96018
540 4.08171
545 3.68538
550 3.50058
555 2.79755
560 2.6626
565 2.26463
570 1.89018
575 1.5976
580 1.34864
585 1.3127
590 1.21464
595 0.970477
600 0.725856
Ex : 328
200 0.524762
205 0.460864
210 0.505831
215 0.506476
220 0.583735
225 0.476879
230 0.523298
235 0.521125
240 0.410638
245 0.409673
250 0.526178
255 0.516449
260 0.501783
265 0.379972
270 0.609079
275 0.717148
280 0.642464
285 0.716431
290 0.649625
295 0.82099
300 0.684287
305 0.759238
310 0.844935
315 6.44173
320 247.77
325 591.172
330 174.401
335 26.3903
340 10.0641
345 9.20575
350 11.1011
355 15.2786
360 20.7351
365 22.3808
370 24.9682
375 27.5056
380 31.8947
385 35.2605
390 37.8961
395 40.6153
400 41.7275
405 43.3349
410 42.5019
415 42.0578
420 41.728
425 39.755
430 38.4909
435 37.1981
440 35.8735
445 33.5447
450 31.5095
455 29.9692
460 28.9807
465 27.0075
470 24.51
475 22.8673
480 21.0156
485 19.0603
490 17.0265
495 15.4446
500 13.8707
505 12.1953
510 11.4218
515 9.45803
520 8.82178
525 8.04493
530 6.9808
535 6.49957
540 5.50702
545 5.0146
550 4.34888
555 3.95081
560 3.56598
565 3.20326
570 2.59874
575 2.31733
580 1.87603
585 1.56748
590 1.39235
595 1.41139
600 1.19265
Ex : 333
200 0.559161
205 0.551635
210 0.630068
215 0.650171
220 0.450383
225 0.485729
230 0.606366
235 0.494771
240 0.530874
245 0.532489
250 0.599106
255 0.588578
260 0.525954
265 0.55394
270 0.620316
275 0.542405
280 0.75332
285 0.752287
290 0.702872
295 0.550301
300 0.755961
305 0.829865
310 0.824011
315 1.13074
320 35.1397
325 715.461
330 1216.44
335 305.513
340 41.5113
345 11.7505
350 8.59737
355 9.51618
360 12.3688
365 17.5242
370 18.1036
375 17.9412
380 19.7158
385 21.6446
390 23.9795
395 25.8215
400 26.1493
405 27.0835
410 26.505
415 26.8221
420 26.1166
425 25.5969
430 24.5521
435 24.0034
440 22.7722
445 21.248
450 20.5631
455 19.2348
460 17.9975
465 17.2095
470 15.978
475 15.1212
480 13.9372
485 12.7803
490 11.5061
495 11.1779
500 10.3638
505 9.16269
510 8.11141
515 7.78226
520 7.20342
525 6.45192
530 5.38125
535 5.10223
540 4.98471
545 4.26087
550 4.0279
555 3.83537
560 3.21189
565 3.09018
570 2.45807
575 2.4923
580 2.02906
585 1.61971
590 1.45231
595 1.41588
600 0.692844
Ex : 338
200 0.574684
205 0.467454
210 0.513127
215 0.641495
220 0.664198
225 0.567076
230 0.577438
235 0.618157
240 0.600608
245 0.510707
250 0.466323
255 0.467764
260 0.492236
265 0.780294
270 0.622044
275 0.535335
280 0.629128
285 0.669268
290 0.592779
295 0.632001
300 0.756876
305 0.716051
310 0.891091
315 1.01326
320 1.62078
325 65.9918
330 1064.48
335 1552.1
340 367.938
345 48.3857
350 11.5806
355 6.96654
360 6.67915
365 8.11659
370 13.0674
375 13.4553
380 12.1557
385 12.4368
390 13.8498
395 15.4429
400 15.6427
405 15.8023
410 16.5609
415 16.9542
420 16.8844
425 15.6894
430 15.0318
435 15.2463
440 14.3125
445 14.3037
450 12.9026
455 13.2797
460 12.265
465 11.4426
470 11.4352
475 10.6232
480 9.71629
485 9.78636
490 8.8033
495 8.50924
500 7.73272
505 7.10549
510 6.39596
515 5.80245
520 5.68688
525 4.87845
530 4.73232
535 4.37427
540 3.95175
545 3.71226
550 3.86328
555 3.5235
560 3.30932
565 3.0112
570 2.48822
575 2.03368
580 1.75365
585 1.54726
590 1.7701
595 1.35121
600 0.717711
Ex : 343
200 0.434122
205 0.423421
210 0.498484
215 0.513404
220 0.503527
225 0.420665
230 0.664317
235 0.474141
240 0.498908
245 0.552463
250 0.553948
255 0.513102
260 0.568552
265 0.586117
270 0.669903
275 0.559754
280 0.506937
285 0.608285
290 0.542138
295 0.559296
300 0.734782
305 0.731189
310 0.660209
315 0.848576
320 1.19425
325 2.22969
330 76.0365
335 1204.27
340 1709.11
345 398.265
350 51.1263
355 10.835
360 5.92049
365 4.58564
370 6.26596
375 10.2629
380 11.9005
385 11.0706
390 11.8786
395 12.1249
400 12.1779
405 13.2082
410 13.8142
415 14.0496
420 13.5794
425 13.2728
430 12.7197
435 12.7646
440 12.8469
445 12.0236
450 11.4992
455 11.373
460 10.5416
465 10.6122
470 9.85711
475 9.17911
480 9.139
485 7.99938
490 8.18606
495 7.53977
500 7.02492
505 6.53654
510 6.21008
515 5.57861
520 5.30019
525 4.90123
530 4.60505
535 4.22984
540 3.98544
545 3.65515
550 3.58246
555 3.19659
560 2.83454
565 2.44216
570 2.21219
575 2.33977
580 1.92717
585 1.41636
590 1.43251
595 1.28428
600 0.793308
Ex : 348
200 0.420551
205 0.528834
210 0.360231
215 0.488239
220 0.411026
225 0.52096
230 0.533646
235 0.446845
240 0.397404
245 0.490288
250 0.541592
255 0.427114
260 0.533556
265 0.572291
270 0.541835
275 0.561382
280 0.501196
285 0.654485
290 0.571093
295 0.641443
300 0.635014
305 0.613668
310 0.729192
315 0.800425
320 1.0356
325 1.50639
330 2.6104
335 75.5288
340 1177.51
345 1741.1
350 434.059
355 54.8347
360 10.722
365 5.45981
370 4.4551
375 4.92839
380 8.86786
385 13.759
390 13.471
395 13.1757
400 11.9981
405 13.0719
410 14.0113
415 14.7455
420 14.4891
425 13.6361
430 13.0823
435 12.8458
440 12.9386
445 12.7208
450 11.6926
455 11.8211
460 11.2006
465 10.4945
470 10.0731
475 9.64276
480 9.3469
485 8.47916
490 8.27346
495 7.65677
500 7.23681
505 6.8014
510 6.284
515 5.708
520 5.421
525 4.6185
530 4.36899
535 4.29144
540 3.77422
545 3.67537
550 3.26836
555 2.89873
560 2.51387
565 2.50272
570 2.17894
575 2.05344
580 1.62142
585 1.45811
590 1.15474
595 1.19978
600 0.298641
Ex : 353
200 0.451247
205 0.405949
210 0.505856
215 0.478259
220 0.442197
225 0.526281
230 0.425266
235 0.410824
240 0.46499
245 0.365471
250 0.43628
255 0.541066
260 0.410392
265 0.505951
270 0.516429
275 0.570273
280 0.490207
285 0.580149
290 0.612971
295 0.587581
300 0.60946
305 0.573513
310 0.612594
315 0.601054
320 0.727037
325 1.04234
330 1.48589
335 2.57938
340 75.7236
345 1200.77
350 1698.77
355 405.247
360 51.0482
365 10.2801
370 5.013
375 4.05252
380 5.14978
385 9.50798
390 15.2604
395 14.8679
400 13.1478
405 13.0202
410 14.0695
415 15.282
420 15.139
425 14.2273
430 13.4243
435 13.4042
440 13.3574
445 13.2292
450 12.2228
455 11.5398
460 10.9179
465 10.4685
470 10.2588
475 9.25254
480 9.12205
485 8.4079
490 8.04488
495 7.86596
500 7.27779
505 6.43889
510 6.0007
515 5.58915
520 5.28255
525 4.62718
530 4.23467
535 4.01599
540 3.67209
545 3.50185
550 3.30834
555 2.9512
560 2.50958
565 2.48943
570 2.07288
575 1.82182
580 1.69309
585 1.39369
590 1.36048
595 1.15509
600 1.54937
Ex : 358
200 0.396453
205 0.408358
210 0.415484
215 0.472219
220 0.437999
225 0.489546
230 0.402883
235 0.479279
240 0.451588
245 0.43628
250 0.415313
255 0.480102
260 0.447859
265 0.519276
270 0.382956
275 0.49721
280 0.467763
285 0.423561
290 0.441789
295 0.529509
300 0.50095
305 0.534547
310 0.562563
315 0.544646
320 0.615008
325 0.767388
330 0.971884
335 1.65129
340 2.50953
345 70.6855
350 1122.19
355 1685.27
360 410.118
365 51.2793
370 9.69685
375 5.17213
380 4.96132
385 6.76069
390 10.6999
395 14.5939
400 14.4266
405 13.1781
410 13.3699
415 14.3339
420 13.9196
425 13.0998
430 12.9204
435 12.7799
440 13.0458
445 12.4263
450 12.1273
455 11.0657
460 11.0015
465 10.3202
470 9.95217
475 10.1063
480 9.37973
485 8.88822
490 8.61746
495 7.78567
500 7.1428
505 6.5374
510 5.95041
515 5.52629
520 5.30717
525 5.12117
530 4.69046
535 4.31911
540 3.89457
545 3.35037
550 3.12753
555 2.93551
560 2.65965
565 2.37301
570 2.08249
575 1.9081
580 1.55729
585 1.40384
590 1.22796
595 1.08282
600 0.685533
Ex : 363
200 0.410722
205 0.28958
210 0.318204
215 0.310326
220 0.35164
225 0.360984
230 0.401396
235 0.419246
240 0.452913
245 0.393404
250 0.410766
255 0.408021
260 0.476187
265 0.42118
270 0.332231
275 0.401539
280 0.375778
285 0.40333
290 0.377878
295 0.378615
300 0.364126
305 0.470251
310 0.412746
315 0.36957
320 0.562991
325 0.639061
330 0.892232
335 1.14139
340 1.66441
345 2.54339
350 63.2439
355 1069.29
360 1646.08
365 415.485
370 52.0206
375 9.9991
380 6.10744
385 7.40461
390 9.30335
395 10.8513
400 13.9346
405 15.887
410 15.2902
415 15.8487
420 14.1666
425 13.5581
430 13.3266
435 13.1897
440 13.3092
445 13.2829
450 12.3434
455 11.6638
460 11.712
465 11.0243
470 10.7653
475 10.0096
480 9.49658
485 9.22161
490 8.89676
495 8.01014
500 7.3881
505 6.71513
510 6.45708
515 5.77027
520 5.27273
525 4.83798
530 4.44261
535 4.11792
540 3.64344
545 3.39243
550 3.32307
555 2.92651
560 2.78316
565 2.36288
570 2.09347
575 1.82781
580 1.57264
585 1.21429
590 1.06552
595 0.942279
600 0.75289
Ex : 368
200 0.365027
205 0.305948
210 0.381137
215 0.392471
220 0.346907
225 0.373919
230 0.34166
235 0.307092
240 0.319558
245 0.418989
250 0.420737
255 0.388393
260 0.3644
265 0.332804
270 0.333177
275 0.354869
280 0.428409
285 0.410544
290 0.396953
295 0.432473
300 0.353581
305 0.368909
310 0.386482
315 0.416943
320 0.523695
325 0.521777
330 0.716745
335 0.868309
340 1.04974
345 1.68556
350 2.4054
355 51.9024
360 1018.41
365 1645.31
370 429.544
375 53.9107
380 11.0034
385 8.88927
390 11.0135
395 11.7827
400 12.1791
405 15.0175
410 19.05
415 19.2389
420 18.0273
425 15.6546
430 14.5122
435 14.8316
440 15.0616
445 14.5279
450 13.4624
455 12.8695
460 12.3965
465 12.0315
470 11.539
475 10.6007
480 10.1924
485 9.39516
490 8.8791
495 8.26049
500 7.34685
505 7.35811
510 6.51904
515 5.94209
520 5.38336
525 4.82253
530 4.60158
535 4.22308
540 3.77907
545 3.52394
550 3.30385
555 2.90949
560 2.6201
565 2.21895
570 2.05555
575 1.72612
580 1.53022
585 1.4102
590 1.05936
595 0.936763
600 1.14185
Ex : 373
200 0.333469
205 0.350228
210 0.278521
215 0.340589
220 0.364607
225 0.332039
230 0.290934
235 0.285542
240 0.345906
245 0.257353
250 0.300691
255 0.290676
260 0.325986
265 0.259689
270 0.300091
275 0.363792
280 0.341443
285 0.34833
290 0.383468
295 0.394436
300 0.385244
305 0.31688
310 0.492809
315 0.434821
320 0.492401
325 0.60883
330 0.572498
335 0.765574
340 0.789095
345 1.13214
350 1.40584
355 2.26413
360 59.8673
365 1019.97
370 1613.94
375 417.541
380 53.1172
385 12.5631
390 11.2588
395 12.3845
400 11.7752
405 11.6746
410 15.7241
415 19.8984
420 19.3267
425 16.5134
430 13.8191
435 14.1322
440 14.4623
445 14.3419
450 13.2596
455 12.2494
460 11.6231
465 11.3206
470 10.9053
475 10.4722
480 10.1365
485 9.24347
490 8.72369
495 8.11264
500 7.76845
505 7.08203
510 6.47133
515 6.09289
520 5.42592
525 5.11788
530 4.51887
535 4.0287
540 3.81485
545 3.53528
550 3.19186
555 2.82401
560 2.60979
565 2.13545
570 2.07153
575 1.6714
580 1.46963
585 1.1538
590 1.02511
595 1.00522
600 0.542344
Ex : 378
200 0.303554
205 0.312032
210 0.265873
215 0.323864
220 0.301426
225 0.264609
230 0.305318
235 0.234395
240 0.267255
245 0.417686
250 0.357746
255 0.374354
260 0.312833
265 0.446144
270 0.435981
275 0.309887
280 0.30875
285 0.359362
290 0.392693
295 0.36491
300 0.294689
305 0.423731
310 0.405128
315 0.329611
320 0.477543
325 0.471446
330 0.573532
335 0.635455
340 0.774607
345 0.8161
350 1.02594
355 1.33548
360 2.2184
365 55.8268
370 1012.07
375 1623.53
380 423.524
385 54.95
390 14.1925
395 10.196
400 9.46492
405 9.00797
410 10.4309
415 13.6337
420 16.4648
425 14.6171
430 12.7524
435 12.184
440 12.0286
445 11.997
450 11.3265
455 10.6769
460 10.4226
465 10.1213
470 10.0688
475 9.31813
480 9.25989
485 8.91659
490 8.15507
495 7.68617
500 7.23827
505 6.90789
510 6.42535
515 5.72578
520 5.37241
525 4.75759
530 4.47161
535 4.03335
540 3.74466
545 3.49946
550 3.27566
555 2.87714
560 2.56465
565 2.28083
570 1.93955
575 1.74089
580 1.39813
585 1.04479
590 0.9341
595 0.865432
600 0.574007
Ex : 383
200 0.257724
205 0.280083
210 0.256285
215 0.246285
220 0.324585
225 0.359854
230 0.301505
235 0.338655
240 0.329149
245 0.298497
250 0.241522
255 0.257219
260 0.270249
265 0.319819
270 0.339259
275 0.368528
280 0.328484
285 0.328567
290 0.302675
295 0.325642
300 0.336701
305 0.394369
310 0.321791
315 0.328861
320 0.409468
325 0.447904
330 0.567748
335 0.583571
340 0.625572
345 0.69856
350 0.850582
355 1.12189
360 1.42081
365 2.13751
370 50.5535
375 980.111
380 1649.64
385 436.945
390 58.7476
395 14.4669
400 9.65
405 9.53617
410 10.7769
415 12.2755
420 12.2031
425 13.9697
430 14.3296
435 12.6732
440 12.3228
445 11.6883
450 10.8547
455 10.4334
460 10.4483
465 10.2423
470 9.98662
475 9.52553
480 8.80013
485 8.76704
490 8.17196
495 7.98548
500 7.07873
505 6.64924
510 6.38248
515 5.60654
520 4.99814
525 4.95977
530 4.49956
535 3.82044
540 3.73052
545 3.55236
550 3.16253
555 2.78024
560 2.37485
565 2.12078
570 1.95654
575 1.57239
580 1.34144
585 1.11684
590 0.906583
595 0.787318
600 0.979259
Ex : 388
200 0.264968
205 0.314514
210 0.252949
215 0.309665
220 0.302182
225 0.274924
230 0.325343
235 0.297232
240 0.410776
245 0.313916
250 0.327714
255 0.229932
260 0.305512
265 0.257418
270 0.301126
275 0.272623
280 0.273352
285 0.333752
290 0.32935
295 0.353496
300 0.373012
305 0.307444
310 0.287117
315 0.350497
320 0.312049
325 0.326521
330 0.438293
335 0.496227
340 0.507614
345 0.568677
350 0.648649
355 0.962252
360 1.05987
365 1.42729
370 2.33341
375 53.6544
380 1000.48
385 1638.81
390 434.449
395 59.721
400 15.5015
405 11.1342
410 12.6777
415 13.5326
420 12.9266
425 12.3002
430 13.1702
435 14.8672
440 13.5353
445 12.8541
450 11.706
455 10.7368
460 10.4331
465 10.208
470 9.65514
475 9.87365
480 9.03859
485 8.76007
490 8.02368
495 7.55115
500 7.31502
505 6.76873
510 6.20051
515 5.84503
520 5.48788
525 4.88789
530 4.33563
535 3.88593
540 3.63596
545 3.28733
550 2.96005
555 2.81596
560 2.61122
565 2.26197
570 1.89773
575 1.52731
580 1.30909
585 1.10012
590 0.982064
595 0.848287
600 0.599155
Ex : 393
200 0.25581
205 0.214385
210 0.2775
215 0.227064
220 0.326024
225 0.213887
230 0.219954
235 0.254204
240 0.260933
245 0.259408
250 0.26686
255 0.334448
260 0.297465
265 0.238214
270 0.289191
275 0.347407
280 0.297502
285 0.260995
290 0.270993
295 0.251066
300 0.339788
305 0.302767
310 0.384462
315 0.351824
320 0.367681
325 0.293316
330 0.403359
335 0.411731
340 0.473061
345 0.538752
350 0.652438
355 0.698377
360 0.770073
365 1.02571
370 1.32938
375 2.25172
380 47.2677
385 985.473
390 1650.99
395 445.741
400 61.1055
405 15.4455
410 12.0412
415 13.8811
420 13.3568
425 11.6765
430 10.9738
435 12.1062
440 14.4188
445 13.3896
450 11.9189
455 10.5835
460 9.64124
465 9.74232
470 9.45708
475 9.11819
480 8.77681
485 8.28279
490 8.00576
495 7.25121
500 6.92549
505 6.29706
510 6.17632
515 5.90112
520 5.16322
525 4.7488
530 4.43817
535 3.88208
540 3.58676
545 3.29934
550 3.02854
555 2.72112
560 2.4864
565 2.1293
570 2.00941
575 1.57976
580 1.29698
585 1.0969
590 0.915774
595 0.744879
600 0.713278
Ex : 398
200 0.225172
205 0.240544
210 0.247049
215 0.314828
220 0.244509
225 0.174246
230 0.225846
235 0.275544
240 0.289321
245 0.23319
250 0.23524
255 0.22669
260 0.341544
265 0.257515
270 0.237932
275 0.332192
280 0.291965
285 0.298921
290 0.261483
295 0.268617
300 0.303938
305 0.295273
310 0.310914
315 0.286966
320 0.324363
325 0.378046
330 0.392213
335 0.48348
340 0.437169
345 0.457784
350 0.526142
355 0.448189
360 0.655559
365 0.800333
370 0.911804
375 1.40636
380 2.32235
385 49.3984
390 984.837
395 1667.77
400 442.51
405 57.5506
410 13.3216
415 9.53261
420 9.51495
425 8.29832
430 7.49437
435 7.68865
440 8.99654
445 11.2704
450 10.8008
455 9.30571
460 8.97062
465 7.87197
470 7.93179
475 7.66949
480 7.8527
485 7.48257
490 6.78126
495 6.89058
500 6.66556
505 5.99469
510 5.79524
515 5.28801
520 4.95533
525 4.5599
530 4.0427
535 3.73402
540 3.56806
545 3.2934
550 3.11059
555 2.69003
560 2.54205
565 2.04267
570 1.815
575 1.66648
580 1.36933
585 1.19928
590 0.972993
595 0.73665
600 0.655669
Ex : 403
200 0.257182
205 0.247225
210 0.230809
215 0.295865
220 0.217397
225 0.29088
230 0.240062
235 0.244371
240 0.221822
245 0.267301
250 0.367123
255 0.302759
260 0.27309
265 0.227539
270 0.300708
275 0.236237
280 0.279621
285 0.282853
290 0.310432
295 0.297023
300 0.257102
305 0.319628
310 0.296474
315 0.302773
320 0.311034
325 0.358206
330 0.339269
335 0.378205
340 0.382818
345 0.416024
350 0.500857
355 0.551099
360 0.624705
365 0.700571
370 0.757446
375 0.978561
380 1.41703
385 2.28764
390 55.6213
395 1011.59
400 1635.48
405 437.246
410 55.2878
415 11.4246
420 6.49786
425 6.03487
430 5.47235
435 5.62708
440 6.05691
445 6.88622
450 8.73738
455 9.37343
460 8.06763
465 7.61424
470 7.18479
475 7.05953
480 6.93915
485 6.82613
490 6.4425
495 6.57816
500 6.33925
505 5.85087
510 5.31315
515 4.95285
520 4.79003
525 4.49061
530 4.10181
535 3.98736
540 3.4346
545 3.16802
550 2.84323
555 2.67495
560 2.30673
565 2.04363
570 1.76776
575 1.51337
580 1.25284
585 1.17555
590 0.929303
595 0.671638
600 0.799861
Ex : 408
200 0.251924
205 0.302309
210 0.369973
215 0.275491
220 0.285999
225 0.23914
230 0.222474
235 0.225499
240 0.2699
245 0.299906
250 0.276508
255 0.243566
260 0.229587
265 0.219188
270 0.22047
275 0.289672
280 0.263769
285 0.216146
290 0.295501
295 0.287125
300 0.326514
305 0.242568
310 0.285036
315 0.266732
320 0.306262
325 0.375422
330 0.339066
335 0.400034
340 0.445277
345 0.409761
350 0.39451
355 0.506641
360 0.500863
365 0.546648
370 0.626056
375 0.739741
380 1.05172
385 1.50602
390 2.36764
395 51.0785
400 1015.14
405 1643.82
410 425.809
415 54.0362
420 10.9712
425 5.77416
430 5.2435
435 5.36237
440 5.50754
445 5.73943
450 6.37859
455 7.86942
460 9.31434
465 7.96711
470 7.48411
475 7.2504
480 6.73586
485 6.59399
490 6.36705
495 6.18637
500 5.74654
505 5.41746
510 5.30576
515 5.06505
520 4.83508
525 4.33656
530 4.01292
535 3.71559
540 3.23485
545 3.07093
550 3.05148
555 2.75794
560 2.28181
565 2.02518
570 1.84882
575 1.5422
580 1.25022
585 1.02963
590 0.858611
595 0.739937
600 0.515409
Ex : 413
200 0.290444
205 0.204036
210 0.230577
215 0.247913
220 0.330617
225 0.235265
230 0.160106
235 0.176357
240 0.239059
245 0.302405
250 0.235005
255 0.224785
260 0.257137
265 0.258057
270 0.246826
275 0.26049
280 0.238086
285 0.214251
290 0.252533
295 0.228393
300 0.288614
305 0.298259
310 0.293884
315 0.332447
320 0.33141
325 0.363853
330 0.327369
335 0.319192
340 0.349789
345 0.388869
350 0.414342
355 0.404176
360 0.565641
365 0.523157
370 0.595266
375 0.597984
380 0.802732
385 1.06284
390 1.43287
395 2.25664
400 58.4826
405 1039.03
410 1631.46
415 414.201
420 52.3587
425 10.1374
430 5.30926
435 5.18052
440 5.08896
445 5.25851
450 5.10899
455 5.36947
460 6.77428
465 8.71497
470 7.95872
475 7.42996
480 6.74092
485 6.66562
490 6.22828
495 5.88143
500 5.61312
505 5.30032
510 5.00962
515 4.7649
520 4.4
525 4.36987
530 3.92697
535 3.59759
540 3.31445
545 3.00372
550 2.84209
555 2.4635
560 2.29736
565 2.0674
570 1.83385
575 1.51371
580 1.30829
585 1.06987
590 0.951834
595 0.794275
600 0.476454
Ex : 418
200 0.259207
205 0.208918
210 0.286369
215 0.278097
220 0.254231
225 0.292222
230 0.240171
235 0.312578
240 0.271388
245 0.25572
250 0.277528
255 0.263878
260 0.27915
265 0.242684
270 0.220805
275 0.296332
280 0.224538
285 0.207541
290 0.307742
295 0.245054
300 0.230772
305 0.200954
310 0.252217
315 0.253334
320 0.272742
325 0.255669
330 0.336092
335 0.327127
340 0.371866
345 0.391994
350 0.357369
355 0.37786
360 0.449008
365 0.424762
370 0.495374
375 0.514924
380 0.68518
385 0.732016
390 1.0243
395 1.44674
400 2.21533
405 54.1607
410 1010.01
415 1622.11
420 423.399
425 52.4873
430 9.49986
435 4.63454
440 4.48008
445 4.55894
450 4.3179
455 4.22145
460 4.52627
465 5.37831
470 7.87854
475 7.64577
480 6.50349
485 6.20669
490 5.82142
495 5.34365
500 5.15865
505 5.06181
510 4.78836
515 4.42887
520 4.11487
525 3.98095
530 3.65223
535 3.52392
540 3.39829
545 3.12119
550 2.76117
555 2.54158
560 2.16663
565 2.13358
570 1.64899
575 1.46998
580 1.24242
585 1.1219
590 0.845271
595 0.72978
600 0.578278
Ex : 423
200 0.269237
205 0.253251
210 0.272991
215 0.254796
220 0.245754
225 0.216443
230 0.23798
235 0.22972
240 0.240752
245 0.197542
250 0.217221
255 0.25804
260 0.191886
265 0.268947
270 0.2572
275 0.270382
280 0.239098
285 0.263506
290 0.210637
295 0.271426
300 0.293211
305 0.27062
310 0.293943
315 0.333288
320 0.256787
325 0.310742
330 0.364143
335 0.284509
340 0.340249
345 0.359428
350 0.424621
355 0.418433
360 0.442595
365 0.401995
370 0.499633
375 0.523349
380 0.517343
385 0.712493
390 0.745332
395 0.974841
400 1.29859
405 2.24538
410 55.429
415 1039.77
420 1599.4
425 396.869
430 49.0757
435 8.70118
440 3.82109
445 3.81964
450 3.69993
455 3.83089
460 3.85312
465 4.1709
470 4.57632
475 6.55784
480 7.4244
485 6.15279
490 5.92068
495 5.18022
500 4.94669
505 4.69821
510 4.63965
515 4.22168
520 4.0521
525 3.88381
530 3.62988
535 3.31317
540 3.00508
545 2.86265
550 2.59533
555 2.49271
560 2.19064
565 2.09546
570 1.83075
575 1.61226
580 1.25406
585 1.08437
590 0.82164
595 0.714502
600 1.07177
Ex : 428
200 0.286854
205 0.252005
210 0.295273
215 0.208838
220 0.234129
225 0.295996
230 0.246488
235 0.256379
240 0.234412
245 0.292679
250 0.248444
255 0.300747
260 0.227837
265 0.278382
270 0.275144
275 0.252843
280 0.266785
285 0.260873
290 0.235218
295 0.25264
300 0.240562
305 0.229071
310 0.315771
315 0.271229
320 0.288929
325 0.33115
330 0.372133
335 0.33844
340 0.343052
345 0.319402
350 0.352696
355 0.348073
360 0.398343
365 0.368673
370 0.388664
375 0.484862
380 0.507127
385 0.52637
390 0.648321
395 0.79729
400 0.990054
405 1.52062
410 2.34042
415 60.148
420 1032.58
425 1596.32
430 408.458
435 50.2582
440 8.64673
445 3.75732
450 3.40897
455 3.56155
460 3.50597
465 3.68032
470 3.88265
475 4.30734
480 5.7389
485 7.01515
490 6.14813
495 5.40455
500 5.17629
505 4.66211
510 4.21845
515 4.00869
520 3.90724
525 3.65189
530 3.56992
535 3.38696
540 3.1813
545 2.78554
550 2.63875
555 2.41279
560 2.28261
565 2.06717
570 1.82595
575 1.48918
580 1.2678
585 0.955426
590 0.890883
595 0.754345
600 0.909804
Ex : 433
200 0.257803
205 0.214828
210 0.264172
215 0.303179
220 0.237965
225 0.298094
230 0.229961
235 0.216436
240 0.319164
245 0.27751
250 0.240269
255 0.251608
260 0.260528
265 0.199845
270 0.297668
275 0.222726
280 0.265148
285 0.277363
290 0.250387
295 0.262363
300 0.248726
305 0.346934
310 0.330933
315 0.305665
320 0.280341
325 0.275367
330 0.315462
335 0.339554
340 0.254974
345 0.256752
350 0.378705
355 0.372743
360 0.355258
365 0.463907
370 0.472894
375 0.415312
380 0.50598
385 0.480493
390 0.566194
395 0.625126
400 0.804938
405 1.12815
410 1.3406
415 2.36803
420 65.0262
425 1088.69
430 1596.24
435 391.246
440 48.2001
445 8.3792
450 3.77427
455 3.54098
460 3.55573
465 3.59386
470 3.5114
475 3.78295
480 3.90764
485 5.09255
490 6.69633
495 6.31177
500 4.99091
505 4.88334
510 4.6403
515 4.12402
520 3.79953
525 3.75184
530 3.47943
535 3.29042
540 3.03442
545 2.88069
550 2.66497
555 2.32574
560 2.18613
565 1.99685
570 1.72187
575 1.46664
580 1.17212
585 1.05115
590 0.87062
595 0.765249
600 0.668749
Ex : 438
200 0.353665
205 0.207984
210 0.245974
215 0.315145
220 0.286339
225 0.232458
230 0.240641
235 0.253819
240 0.268284
245 0.217896
250 0.200765
255 0.267967
260 0.286888
265 0.258374
270 0.282132
275 0.248378
280 0.299373
285 0.283142
290 0.298541
295 0.251499
300 0.240954
305 0.231545
310 0.247702
315 0.239349
320 0.272981
325 0.28347
330 0.271318
335 0.29835
340 0.376702
345 0.275951
350 0.375152
355 0.332799
360 0.335645
365 0.391087
370 0.420206
375 0.383237
380 0.428873
385 0.414028
390 0.411194
395 0.570638
400 0.590909
405 0.779862
410 1.02147
415 1.42582
420 2.09192
425 61.6002
430 1064.56
435 1660.56
440 409.299
445 50.2543
450 8.61772
455 3.81136
460 3.50769
465 3.64939
470 3.4268
475 3.47214
480 3.71915
485 3.86087
490 4.3366
495 6.02131
500 6.23064
505 4.98872
510 4.51034
515 4.41002
520 3.87747
525 3.6778
530 3.34819
535 3.22125
540 3.03749
545 2.9001
550 2.72201
555 2.20343
560 2.01501
565 1.93512
570 1.74543
575 1.42988
580 1.13348
585 1.04489
590 0.855513
595 0.713213
600 0.90172
Ex : 443
200 0.170633
205 0.208856
210 0.204802
215 0.261043
220 0.242638
225 0.215486
230 0.233506
235 0.244225
240 0.216002
245 0.25843
250 0.257449
255 0.209517
260 0.296913
265 0.268688
270 0.282421
275 0.225693
280 0.232007
285 0.264103
290 0.269009
295 0.235199
300 0.308521
305 0.249045
310 0.260316
315 0.270553
320 0.330211
325 0.257189
330 0.271833
335 0.293118
340 0.303421
345 0.31139
350 0.347408
355 0.36665
360 0.35906
365 0.374886
370 0.39527
375 0.39212
380 0.426989
385 0.498982
390 0.407791
395 0.468483
400 0.538657
405 0.625026
410 0.802797
415 1.00686
420 1.42198
425 2.35357
430 66.9241
435 1115.73
440 1660.15
445 405.771
450 49.9589
455 8.86931
460 3.86445
465 3.32768
470 3.45037
475 3.36722
480 3.47848
485 3.52216
490 3.69131
495 4.12491
500 5.20807
505 5.90756
510 4.88689
515 4.30682
520 4.15143
525 3.43558
530 3.36645
535 3.21195
540 2.92814
545 2.81586
550 2.60034
555 2.27377
560 2.11992
565 1.85128
570 1.74385
575 1.39927
580 1.21673
585 1.02314
590 1.0281
595 0.757115
600 0.654779
Ex : 448
200 0.199919
205 0.23264
210 0.240042
215 0.243481
220 0.222279
225 0.263415
230 0.224108
235 0.214838
240 0.230397
245 0.210648
250 0.257362
255 0.253413
260 0.267734
265 0.218996
270 0.274352
275 0.210416
280 0.318864
285 0.28614
290 0.286845
295 0.243474
300 0.314094
305 0.252046
310 0.213541
315 0.260824
320 0.336363
325 0.267934
330 0.303478
335 0.261955
340 0.336866
345 0.308477
350 0.336578
355 0.287168
360 0.337164
365 0.367895
370 0.431436
375 0.356782
380 0.387086
385 0.491411
390 0.49347
395 0.487085
400 0.497229
405 0.604822
410 0.680004
415 0.760291
420 1.05581
425 1.4439
430 2.33426
435 67.6177
440 1167.96
445 1721.64
450 419.021
455 51.5309
460 8.9346
465 3.73054
470 3.34711
475 3.37603
480 3.40951
485 3.4192
490 3.3147
495 3.60753
500 3.74793
505 4.50608
510 5.62513
515 5.01429
520 4.18124
525 3.97726
530 3.72752
535 3.24973
540 2.9833
545 2.70013
550 2.53679
555 2.54077
560 2.3031
565 1.99615
570 1.79589
575 1.44806
580 1.21502
585 1.11278
590 0.896529
595 0.741471
600 0.557621
Ex : 453
200 0.208369
205 0.283058
210 0.208274
215 0.26909
220 0.200856
225 0.245438
230 0.242082
235 0.269402
240 0.309079
245 0.245897
250 0.255761
255 0.293893
260 0.241072
265 0.241023
270 0.260449
275 0.262476
280 0.301928
285 0.210883
290 0.241744
295 0.263594
300 0.283412
305 0.174968
310 0.253629
315 0.293822
320 0.238792
325 0.257348
330 0.25764
335 0.270405
340 0.345554
345 0.34188
350 0.321412
355 0.423315
360 0.339961
365 0.327168
370 0.361212
375 0.349864
380 0.377852
385 0.434185
390 0.440862
395 0.482702
400 0.447599
405 0.488236
410 0.558077
415 0.631861
420 0.712467
425 1.01711
430 1.40058
435 2.19462
440 70.9992
445 1233.95
450 1761.96
455 404.292
460 49.9879
465 8.92202
470 3.74459
475 3.22765
480 3.47783
485 3.37803
490 3.23594
495 3.09037
500 3.26773
505 3.44015
510 3.92882
515 5.28027
520 5.01493
525 4.00759
530 3.58379
535 3.36374
540 2.99992
545 2.8345
550 2.5317
555 2.4626
560 2.2084
565 1.91581
570 1.63825
575 1.44505
580 1.36147
585 1.01386
590 0.853751
595 0.85973
600 0.846819
Ex : 458
200 0.233339
205 0.246973
210 0.23258
215 0.278863
220 0.262658
225 0.239534
230 0.210141
235 0.280599
240 0.237557
245 0.224093
250 0.265376
255 0.260457
260 0.211212
265 0.24493
270 0.259259
275 0.279703
280 0.20609
285 0.266568
290 0.217419
295 0.212134
300 0.233596
305 0.272089
310 0.291879
315 0.318147
320 0.242815
325 0.277145
330 0.304925
335 0.291517
340 0.325392
345 0.264915
350 0.302079
355 0.327452
360 0.350686
365 0.370303
370 0.3309
375 0.37812
380 0.37967
385 0.404467
390 0.453819
395 0.449911
400 0.412634
405 0.459828
410 0.500273
415 0.655076
420 0.718515
425 0.849539
430 0.935837
435 1.49936
440 2.18613
445 77.7579
450 1252.63
455 1825.1
460 435.64
465 53.6665
470 9.26488
475 3.91511
480 3.39245
485 3.57201
490 3.36012
495 3.0817
500 3.13435
505 3.12398
510 3.17099
515 3.65752
520 4.32152
525 5.01823
530 4.04296
535 3.48162
540 3.46637
545 3.11298
550 2.73784
555 2.38933
560 2.18371
565 2.10182
570 1.76303
575 1.50469
580 1.31285
585 1.17886
590 0.969805
595 0.838392
600 0.243106
Ex : 463
200 0.239147
205 0.221372
210 0.202512
215 0.207262
220 0.245404
225 0.214624
230 0.282433
235 0.22748
240 0.230405
245 0.244491
250 0.26466
255 0.255447
260 0.269721
265 0.243991
270 0.213388
275 0.223142
280 0.191619
285 0.265693
290 0.273138
295 0.262118
300 0.244483
305 0.249021
310 0.24623
315 0.27361
320 0.241657
325 0.30608
330 0.314288
335 0.276601
340 0.263557
345 0.261317
350 0.320669
355 0.348198
360 0.299924
365 0.285245
370 0.329594
375 0.345856
380 0.411245
385 0.434216
390 0.433385
395 0.367367
400 0.436794
405 0.511675
410 0.493961
415 0.562367
420 0.536357
425 0.73259
430 0.803851
435 0.924476
440 1.29742
445 2.23607
450 74.6878
455 1287.57
460 1925.55
465 454.384
470 55.564
475 9.24036
480 3.6965
485 3.05931
490 3.15794
495 3.41484
500 3.06587
505 3.00723
510 3.18545
515 2.956
520 3.07176
525 3.92751
530 4.8533
535 4.27745
540 3.27358
545 2.99216
550 2.88406
555 2.47823
560 2.1812
565 1.88834
570 1.76568
575 1.48603
580 1.30455
585 1.09426
590 0.908329
595 0.777023
600 1.33629
Ex : 468
200 0.196636
205 0.220399
210 0.203029
215 0.214137
220 0.267587
225 0.191077
230 0.192775
235 0.212795
240 0.282996
245 0.230532
250 0.245019
255 0.23272
260 0.212214
265 0.204562
270 0.201528
275 0.236853
280 0.187543
285 0.223626
290 0.188402
295 0.213816
300 0.212065
305 0.233882
310 0.229357
315 0.228603
320 0.230826
325 0.21089
330 0.290174
335 0.28253
340 0.302395
345 0.220641
350 0.276337
355 0.280129
360 0.310775
365 0.299308
370 0.31353
375 0.289248
380 0.299057
385 0.300138
390 0.374887
395 0.350623
400 0.396046
405 0.358018
410 0.409188
415 0.395485
420 0.511717
425 0.525319
430 0.59641
435 0.743901
440 0.826036
445 1.34668
450 2.1722
455 79.9801
460 1292.48
465 1999.03
470 470.453
475 56.9893
480 9.3292
485 3.59259
490 2.91206
495 3.05418
500 3.15417
505 2.97388
510 2.79726
515 2.98251
520 2.84746
525 2.92668
530 3.25033
535 4.3417
540 4.41874
545 3.40496
550 2.82097
555 2.64501
560 2.31597
565 2.07648
570 1.70403
575 1.52298
580 1.32593
585 1.15744
590 0.931145
595 0.80568
600 0.166574
Ex : 473
200 0.284495
205 0.246907
210 0.239257
215 0.238224
220 0.209758
225 0.190329
230 0.240235
235 0.255144
240 0.250076
245 0.220936
250 0.236559
255 0.234747
260 0.27304
265 0.240965
270 0.242428
275 0.234258
280 0.249196
285 0.312014
290 0.250862
295 0.221949
300 0.242768
305 0.236537
310 0.277893
315 0.30805
320 0.306296
325 0.275292
330 0.308908
335 0.274319
340 0.274989
345 0.307582
350 0.335281
355 0.283817
360 0.302293
365 0.293812
370 0.334991
375 0.267284
380 0.332853
385 0.392106
390 0.369341
395 0.417778
400 0.385107
405 0.447056
410 0.421043
415 0.448839
420 0.474963
425 0.479118
430 0.52536
435 0.607027
440 0.725355
445 0.98896
450 1.4033
455 2.36645
460 92.3783
465 1399.8
470 1936.99
475 437.484
480 53.3377
485 8.93689
490 3.59908
495 2.79524
500 2.92044
505 3.12835
510 2.88365
515 2.855
520 2.83408
525 2.93548
530 2.98952
535 3.00944
540 3.89446
545 4.24737
550 3.23921
555 2.6184
560 2.49975
565 2.22319
570 1.91249
575 1.55602
580 1.18669
585 1.01024
590 0.952003
595 0.873318
600 0.688414
Ex : 478
200 0.29475
205 0.264444
210 0.230381
215 0.261696
220 0.231615
225 0.285832
230 0.253823
235 0.265236
240 0.297747
245 0.229923
250 0.207964
255 0.218079
260 0.252536
265 0.235163
270 0.262277
275 0.248115
280 0.305853
285 0.263895
290 0.279251
295 0.34471
300 0.328363
305 0.296572
310 0.281486
315 0.309397
320 0.335506
325 0.342364
330 0.35903
335 0.354302
340 0.339652
345 0.253636
350 0.295652
355 0.294124
360 0.304381
365 0.327705
370 0.428178
375 0.353619
380 0.357378
385 0.447274
390 0.436675
395 0.453668
400 0.400121
405 0.42823
410 0.464115
415 0.471113
420 0.515692
425 0.506744
430 0.565383
435 0.692923
440 0.756778
445 0.956431
450 1.1896
455 1.66297
460 2.85048
465 99.3294
470 1423.71
475 1941.85
480 461.617
485 56.0502
490 9.43341
495 3.68669
500 2.70784
505 2.70614
510 2.95698
515 2.9712
520 2.89886
525 2.72933
530 3.0342
535 2.77389
540 2.90171
545 3.36091
550 3.78066
555 3.35736
560 2.55965
565 2.48957
570 2.08376
575 1.63953
580 1.46192
585 1.2089
590 1.04451
595 0.838887
600 0.991369
Ex : 483
200 0.277744
205 0.252252
210 0.253204
215 0.334521
220 0.226574
225 0.261054
230 0.243661
235 0.26857
240 0.321444
245 0.309841
250 0.311199
255 0.321816
260 0.307579
265 0.313617
270 0.298526
275 0.237936
280 0.235368
285 0.271288
290 0.316974
295 0.280284
300 0.341207
305 0.275864
310 0.338377
315 0.305297
320 0.269819
325 0.290023
330 0.337397
335 0.337619
340 0.281884
345 0.336279
350 0.342381
355 0.329783
360 0.358269
365 0.35224
370 0.428501
375 0.373408
380 0.383921
385 0.354322
390 0.404178
395 0.404006
400 0.462083
405 0.454906
410 0.48239
415 0.505194
420 0.493636
425 0.60672
430 0.519877
435 0.519549
440 0.547412
445 0.799755
450 0.956723
455 1.18721
460 1.79151
465 2.72194
470 77.4435
475 1390.87
480 2065.86
485 486.064
490 58.8886
495 9.53824
500 3.58006
505 2.71543
510 2.7894
515 2.97696
520 3.0476
525 2.80434
530 2.86676
535 2.66463
540 2.52859
545 2.61662
550 2.68574
555 3.56186
560 3.66242
565 2.68867
570 2.0257
575 1.84699
580 1.57563
585 1.1008
590 0.949289
595 0.82258
600 1.29109
Ex : 488
200 0.315835
205 0.248868
210 0.268491
215 0.334483
220 0.342602
225 0.329997
230 0.262834
235 0.276334
240 0.24696
245 0.272076
250 0.288276
255 0.266164
260 0.263835
265 0.229251
270 0.345565
275 0.308278
280 0.252539
285 0.282631
290 0.243301
295 0.258228
300 0.250529
305 0.268156
310 0.309209
315 0.320891
320 0.31663
325 0.341228
330 0.351873
335 0.466901
340 0.410267
345 0.36923
350 0.38548
355 0.2973
360 0.332937
365 0.358131
370 0.414548
375 0.416185
380 0.437208
385 0.38456
390 0.440484
395 0.435142
400 0.466106
405 0.370412
410 0.455216
415 0.425493
420 0.474077
425 0.585023
430 0.54335
435 0.560904
440 0.567707
445 0.742929
450 0.847278
455 0.821011
460 1.34015
465 1.94523
470 3.01624
475 93.5127
480 1485.09
485 2015.25
490 467.195
495 56.8129
500 9.18012
505 3.37145
510 2.64985
515 2.82789
520 3.0652
525 2.97702
530 2.73326
535 2.73488
540 2.69244
545 2.59012
550 2.44464
555 2.41839
560 2.73525
565 2.91424
570 2.3902
575 1.85703
580 1.61205
585 1.25705
590 1.13373
595 0.938294
600 0.673945
Ex : 493
200 0.34173
205 0.304402
210 0.26423
215 0.315707
220 0.30073
225 0.246275
230 0.268798
235 0.261282
240 0.358938
245 0.288598
250 0.288401
255 0.301528
260 0.345608
265 0.318782
270 0.280103
275 0.407165
280 0.312339
285 0.322176
290 0.313522
295 0.304199
300 0.303822
305 0.297884
310 0.28372
315 0.284481
320 0.295614
325 0.33
330 0.24796
335 0.250384
340 0.226659
345 0.308442
350 0.383221
355 0.346563
360 0.391727
365 0.412565
370 0.33698
375 0.365115
380 0.422984
385 0.447619
390 0.343387
395 0.388317
400 0.433316
405 0.504355
410 0.456194
415 0.485291
420 0.472212
425 0.505328
430 0.442087
435 0.534511
440 0.580057
445 0.64141
450 0.737918
455 0.863278
460 1.1626
465 1.31512
470 1.80352
475 2.76053
480 86.12
485 1450.07
490 2100.45
495 474.048
500 57.5182
505 9.39569
510 3.65912
515 2.57687
520 2.6817
525 2.949
530 2.85801
535 2.7039
540 2.78979
545 2.42683
550 2.42244
555 2.15576
560 2.25234
565 2.33607
570 2.80459
575 2.27247
580 1.63374
585 1.33856
590 1.1753
595 0.876783
600 1.19512
Ex : 498
200 0.262378
205 0.256988
210 0.29363
215 0.326105
220 0.323222
225 0.335058
230 0.325087
235 0.308728
240 0.292185
245 0.365281
250 0.278503
255 0.345725
260 0.350522
265 0.21618
270 0.422108
275 0.379475
280 0.310766
285 0.329694
290 0.284027
295 0.277193
300 0.333296
305 0.350645
310 0.282237
315 0.371284
320 0.317351
325 0.324075
330 0.435894
335 0.445422
340 0.435563
345 0.486596
350 0.331818
355 0.388523
360 0.412769
365 0.385431
370 0.440194
375 0.488985
380 0.334209
385 0.40689
390 0.482033
395 0.403623
400 0.399735
405 0.443235
410 0.494393
415 0.437226
420 0.465431
425 0.489888
430 0.473182
435 0.475463
440 0.544984
445 0.488258
450 0.722985
455 0.748475
460 0.862097
465 1.15462
470 1.39761
475 1.78126
480 2.76522
485 100.824
490 1512.07
495 2009.45
500 459.052
505 55.7103
510 9.0627
515 3.64731
520 2.63618
525 2.85686
530 3.01221
535 2.76064
540 2.64445
545 2.60404
550 2.33513
555 2.20004
560 1.97572
565 1.94738
570 1.9497
575 2.2423
580 2.27672
585 1.5194
590 1.08032
595 1.12171
600 0.813866
Ex : 503
200 0.302336
205 0.361148
210 0.372708
215 0.370681
220 0.342994
225 0.341124
230 0.343217
235 0.349768
240 0.344165
245 0.334398
250 0.329453
255 0.341902
260 0.336641
265 0.301301
270 0.39047
275 0.38589
280 0.41504
285 0.290841
290 0.329268
295 0.490035
300 0.420143
305 0.42259
310 0.40815
315 0.396922
320 0.332128
325 0.445457
330 0.432071
335 0.350145
340 0.295114
345 0.374454
350 0.376688
355 0.472287
360 0.489759
365 0.410674
370 0.375446
375 0.418206
380 0.392754
385 0.528123
390 0.47551
395 0.456064
400 0.425955
405 0.542543
410 0.427784
415 0.537562
420 0.520901
425 0.466368
430 0.565652
435 0.635911
440 0.59861
445 0.600307
450 0.665407
455 0.688886
460 0.908947
465 1.10313
470 1.29658
475 1.36147
480 1.85202
485 3.02411
490 91.8481
495 1487.52
500 2061.91
505 466.263
510 56.8539
515 9.24724
520 3.71432
525 3.04313
530 2.78464
535 2.66442
540 2.72407
545 2.56006
550 2.14363
555 2.01705
560 1.98117
565 1.8769
570 1.88788
575 1.76426
580 1.75562
585 1.84414
590 1.46735
595 1.09155
600 0.973148
Ex : 508
200 0.307692
205 0.367354
210 0.348111
215 0.309499
220 0.350004
225 0.363534
230 0.350148
235 0.304333
240 0.301072
245 0.346278
250 0.432765
255 0.345411
260 0.307487
265 0.312694
270 0.359906
275 0.348104
280 0.475171
285 0.369227
290 0.329459
295 0.327082
300 0.383626
305 0.402972
310 0.417637
315 0.332496
320 0.294662
325 0.411357
330 0.551273
335 0.411657
340 0.364599
345 0.522259
350 0.289617
355 0.35974
360 0.381417
365 0.354059
370 0.457782
375 0.444758
380 0.40126
385 0.464494
390 0.462091
395 0.460922
400 0.497169
405 0.50129
410 0.474131
415 0.504016
420 0.484406
425 0.513544
430 0.464594
435 0.571228
440 0.487941
445 0.583207
450 0.69132
455 0.802552
460 0.799077
465 1.00953
470 0.93169
475 0.950608
480 1.34194
485 1.80503
490 2.92711
495 100.272
500 1493.84
505 2038.28
510 482.812
515 58.5644
520 9.58448
525 3.87587
530 2.91125
535 2.73516
540 2.54236
545 2.40314
550 2.48991
555 2.01559
560 1.96138
565 1.90064
570 1.74963
575 1.47965
580 1.40465
585 1.39625
590 1.55033
595 1.40093
600 1.78195
Ex : 513
200 0.428263
205 0.378729
210 0.424923
215 0.374682
220 0.361051
225 0.432475
230 0.367576
235 0.492424
240 0.351867
245 0.352439
250 0.311257
255 0.427599
260 0.397298
265 0.361221
270 0.389885
275 0.341874
280 0.290668
285 0.335915
290 0.429552
295 0.418588
300 0.441195
305 0.395883
310 0.366057
315 0.343607
320 0.406083
325 0.48349
330 0.434435
335 0.464768
340 0.419857
345 0.407188
350 0.422091
355 0.41405
360 0.554789
365 0.433342
370 0.333895
375 0.389422
380 0.452359
385 0.393189
390 0.423779
395 0.465274
400 0.489344
405 0.567299
410 0.414309
415 0.413276
420 0.469518
425 0.510188
430 0.434678
435 0.534575
440 0.539069
445 0.544145
450 0.625686
455 0.553903
460 0.747836
465 0.837388
470 0.795812
475 0.944251
480 1.09447
485 1.38239
490 2.05408
495 2.87801
500 88.7668
505 1451.98
510 2050.2
515 492.221
520 59.983
525 9.66208
530 3.71139
535 2.68666
540 2.49971
545 2.52233
550 2.19814
555 2.21096
560 2.08075
565 1.83387
570 1.94838
575 1.51347
580 1.25056
585 1.11965
590 1.10755
595 1.15862
600 1.85502
Ex : 518
200 0.374322
205 0.386247
210 0.342345
215 0.411991
220 0.330869
225 0.273899
230 0.393264
235 0.370319
240 0.331034
245 0.344187
250 0.360953
255 0.364535
260 0.287076
265 0.352769
270 0.343994
275 0.335391
280 0.363572
285 0.387033
290 0.375529
295 0.422582
300 0.339325
305 0.316041
310 0.315184
315 0.382585
320 0.43884
325 0.361029
330 0.386255
335 0.353034
340 0.428893
345 0.360774
350 0.385302
355 0.347649
360 0.320894
365 0.439296
370 0.401629
375 0.42935
380 0.482244
385 0.632875
390 0.52606
395 0.470651
400 0.42121
405 0.36195
410 0.420155
415 0.524888
420 0.457009
425 0.548099
430 0.458254
435 0.529818
440 0.527998
445 0.55437
450 0.604336
455 0.651602
460 0.715674
465 0.799206
470 0.793526
475 0.838072
480 0.861897
485 0.988376
490 1.35624
495 1.52983
500 2.77885
505 89.4726
510 1401.19
515 2022.21
520 485.41
525 58.9
530 9.42503
535 3.70216
540 2.5815
545 2.30691
550 2.30333
555 2.192
560 1.97774
565 1.74779
570 1.53121
575 1.43037
580 1.25325
585 1.05712
590 1.03065
595 0.850011
600 1.15195
Ex : 523
200 0.33219
205 0.454516
210 0.346895
215 0.295768
220 0.48883
225 0.367877
230 0.382719
235 0.382234
240 0.342652
245 0.413828
250 0.379319
255 0.28856
260 0.441784
265 0.297586
270 0.44231
275 0.388874
280 0.324351
285 0.293526
290 0.367645
295 0.398821
300 0.362285
305 0.373824
310 0.339496
315 0.352166
320 0.39861
325 0.403307
330 0.368619
335 0.448605
340 0.358262
345 0.417879
350 0.435139
355 0.400304
360 0.519237
365 0.489568
370 0.404691
375 0.465695
380 0.444822
385 0.511623
390 0.489644
395 0.568223
400 0.500626
405 0.507985
410 0.467361
415 0.514356
420 0.56676
425 0.411748
430 0.590005
435 0.511442
440 0.549117
445 0.639314
450 0.651601
455 0.673951
460 0.723042
465 0.732884
470 0.712881
475 0.835252
480 0.762935
485 1.04067
490 1.07274
495 1.32614
500 1.74166
505 2.7896
510 80.3118
515 1344.37
520 1985.44
525 498.536
530 60.1828
535 9.39779
540 3.36592
545 2.1979
550 2.01433
555 2.04091
560 1.88515
565 1.93878
570 1.63689
575 1.30114
580 1.18846
585 1.06505
590 0.95297
595 0.845673
600 1.25584
Ex : 528
200 0.419359
205 0.409865
210 0.361455
215 0.352345
220 0.382118
225 0.32729
230 0.311726
235 0.370167
240 0.372033
245 0.403688
250 0.331378
255 0.484451
260 0.374078
265 0.406164
270 0.393355
275 0.343809
280 0.512669
285 0.37679
290 0.386618
295 0.3745
300 0.448744
305 0.429891
310 0.419367
315 0.453416
320 0.409254
325 0.423873
330 0.370943
335 0.407527
340 0.459378
345 0.513955
350 0.482461
355 0.409501
360 0.432734
365 0.447746
370 0.389256
375 0.404933
380 0.454998
385 0.367606
390 0.490847
395 0.535194
400 0.517958
405 0.526749
410 0.440855
415 0.720152
420 0.544221
425 0.59384
430 0.514479
435 0.556163
440 0.571307
445 0.527559
450 0.631618
455 0.658944
460 0.709751
465 0.632094
470 0.663201
475 0.849929
480 0.849096
485 0.848983
490 0.934871
495 1.06162
500 1.40703
505 1.87729
510 2.79753
515 74.9179
520 1306.35
525 1949.3
530 478.776
535 57.9813
540 9.16144
545 3.11535
550 2.37086
555 1.92274
560 1.73329
565 1.74614
570 1.55804
575 1.33706
580 1.22092
585 1.09579
590 0.96294
595 0.933968
600 0.473494
Ex : 533
200 0.400543
205 0.424913
210 0.391427
215 0.452053
220 0.33545
225 0.36044
230 0.355448
235 0.420598
240 0.403124
245 0.368684
250 0.425053
255 0.343367
260 0.424995
265 0.383621
270 0.461991
275 0.451461
280 0.51648
285 0.375719
290 0.448769
295 0.387298
300 0.380161
305 0.37407
310 0.378546
315 0.503801
320 0.347641
325 0.44384
330 0.33636
335 0.428566
340 0.350057
345 0.422257
350 0.42324
355 0.461029
360 0.442082
365 0.41169
370 0.528943
375 0.415038
380 0.421672
385 0.414443
390 0.437537
395 0.536971
400 0.603614
405 0.442948
410 0.434242
415 0.520017
420 0.549983
425 0.563441
430 0.509435
435 0.439261
440 0.614331
445 0.545035
450 0.700337
455 0.641628
460 0.805435
465 0.617725
470 0.689275
475 0.729558
480 0.813379
485 0.803248
490 0.826479
495 0.999151
500 1.12366
505 1.40048
510 1.92959
515 2.60083
520 74.6356
525 1243.27
530 1903.28
535 485.554
540 58.4168
545 8.93607
550 2.94462
555 1.95787
560 1.75433
565 1.637
570 1.47576
575 1.4305
580 1.19547
585 1.11667
590 0.957221
595 0.92569
600 0.165763
Ex : 538
200 0.390077
205 0.354517
210 0.333483
215 0.427969
220 0.54301
225 0.420037
230 0.374368
235 0.422511
240 0.383488
245 0.350628
250 0.460482
255 0.303484
260 0.310698
265 0.518376
270 0.335803
275 0.381167
280 0.496523
285 0.465558
290 0.428389
295 0.493798
300 0.475776
305 0.442869
310 0.396647
315 0.364864
320 0.452346
325 0.434283
330 0.502779
335 0.418349
340 0.402063
345 0.561884
350 0.498423
355 0.531583
360 0.487504
365 0.434184
370 0.442294
375 0.474086
380 0.571195
385 0.555624
390 0.475568
395 0.399318
400 0.573229
405 0.636915
410 0.397869
415 0.583773
420 0.48668
425 0.500673
430 0.513088
435 0.555581
440 0.520068
445 0.543702
450 0.475198
455 0.610194
460 0.73305
465 0.714588
470 0.674921
475 0.611076
480 0.672847
485 0.656681
490 0.745991
495 0.833487
500 0.950493
505 0.925636
510 1.34255
515 1.7014
520 2.62839
525 62.6209
530 1176.38
535 1880.17
540 493.537
545 59.6754
550 8.94395
555 2.97626
560 1.86006
565 1.6562
570 1.59743
575 1.41717
580 1.14894
585 1.12395
590 0.980296
595 0.836926
600 0.597939
Ex : 543
200 0.438364
205 0.394023
210 0.417732
215 0.38928
220 0.420264
225 0.385164
230 0.392607
235 0.477343
240 0.439722
245 0.439392
250 0.368823
255 0.37323
260 0.409791
265 0.459491
270 0.469796
275 0.376669
280 0.39014
285 0.454379
290 0.417229
295 0.332921
300 0.331096
305 0.454578
310 0.430333
315 0.410814
320 0.388953
325 0.404675
330 0.42825
335 0.464298
340 0.425536
345 0.473239
350 0.496182
355 0.579198
360 0.537479
365 0.514404
370 0.458327
375 0.429935
380 0.490424
385 0.600202
390 0.516908
395 0.574701
400 0.558334
405 0.530936
410 0.5353
415 0.524614
420 0.535374
425 0.429057
430 0.559846
435 0.661287
440 0.649722
445 0.555371
450 0.595334
455 0.643346
460 0.614215
465 0.618565
470 0.800372
475 0.724248
480 0.7147
485 0.709816
490 0.746007
495 0.835066
500 0.719855
505 0.865876
510 1.13257
515 1.24746
520 1.74818
525 2.37604
530 56.5023
535 1118.74
540 1850
545 498.152
550 60.443
555 9.15268
560 2.7241
565 1.78838
570 1.54071
575 1.10953
580 1.03416
585 0.992047
590 0.903471
595 0.789713
600 0.282055
Ex : 548
200 0.451114
205 0.346161
210 0.393289
215 0.474474
220 0.382738
225 0.366377
230 0.414223
235 0.451175
240 0.328421
245 0.406031
250 0.431557
255 0.489686
260 0.430764
265 0.416134
270 0.409652
275 0.401814
280 0.497959
285 0.632645
290 0.351484
295 0.434765
300 0.385267
305 0.53492
310 0.340495
315 0.452529
320 0.493607
325 0.563162
330 0.59186
335 0.51752
340 0.415711
345 0.370342
350 0.444698
355 0.478184
360 0.511777
365 0.409949
370 0.395986
375 0.507694
380 0.513787
385 0.458352
390 0.450644
395 0.535679
400 0.590027
405 0.490049
410 0.476929
415 0.479943
420 0.544085
425 0.465793
430 0.556467
435 0.580975
440 0.475972
445 0.51602
450 0.56855
455 0.65802
460 0.713917
465 0.641215
470 0.608824
475 0.688767
480 0.696185
485 0.732489
490 0.787163
495 0.744989
500 0.690255
505 0.766795
510 0.926209
515 1.21541
520 1.27093
525 1.72053
530 2.27324
535 63.0191
540 1099.53
545 1773.21
550 481.843
555 58.0331
560 8.54893
565 2.40791
570 1.7932
575 1.34354
580 1.08116
585 0.90583
590 0.911807
595 0.744112
600 0.833272
Ex : 553
200 0.494872
205 0.374719
210 0.518803
215 0.426085
220 0.425997
225 0.444516
230 0.444145
235 0.458042
240 0.469128
245 0.470205
250 0.513467
255 0.538252
260 0.455499
265 0.361677
270 0.370889
275 0.460152
280 0.403917
285 0.452312
290 0.486447
295 0.429394
300 0.569193
305 0.437306
310 0.405536
315 0.507445
320 0.466952
325 0.471106
330 0.403348
335 0.500772
340 0.547302
345 0.543476
350 0.404954
355 0.492186
360 0.489724
365 0.416993
370 0.591231
375 0.518796
380 0.456339
385 0.562482
390 0.584849
395 0.482295
400 0.533604
405 0.513747
410 0.54614
415 0.505045
420 0.642781
425 0.640639
430 0.560535
435 0.747016
440 0.603738
445 0.578222
450 0.555335
455 0.627676
460 0.737684
465 0.730854
470 0.522365
475 0.538103
480 0.634515
485 0.707857
490 0.706533
495 0.829014
500 0.551942
505 0.731706
510 1.0491
515 0.924223
520 0.938465
525 1.10536
530 1.49979
535 2.32266
540 52.3192
545 1030.98
550 1738.82
555 480.397
560 58.2234
565 8.27966
570 2.50921
575 1.54399
580 1.27351
585 0.978351
590 0.969535
595 0.912405
600 0.853693
Ex : 558
200 0.385273
205 0.51772
210 0.464696
215 0.459416
220 0.523217
225 0.44201
230 0.403524
235 0.44901
240 0.430796
245 0.504648
250 0.437611
255 0.433289
260 0.37263
265 0.459184
270 0.57291
275 0.388943
280 0.320617
285 0.516136
290 0.487085
295 0.52501
300 0.45773
305 0.454792
310 0.4696
315 0.506147
320 0.434934
325 0.523602
330 0.435414
335 0.499515
340 0.426
345 0.513387
350 0.446995
355 0.609283
360 0.620401
365 0.675767
370 0.575151
375 0.578523
380 0.483305
385 0.50044
390 0.446878
395 0.513974
400 0.595778
405 0.420689
410 0.563302
415 0.576787
420 0.500194
425 0.710686
430 0.532311
435 0.705435
440 0.591455
445 0.784353
450 0.674176
455 0.531643
460 0.660689
465 0.723553
470 0.712558
475 0.815911
480 0.57268
485 0.637767
490 0.592429
495 0.749701
500 0.739958
505 0.846932
510 0.794586
515 0.966476
520 0.903556
525 1.10683
530 1.29733
535 1.57867
540 2.1315
545 48.7764
550 967.509
555 1689.69
560 471.859
565 56.8112
570 8.33256
575 2.38899
580 1.44705
585 1.07616
590 0.839697
595 0.695387
600 1.23059
Ex : 563
200 0.560972
205 0.515376
210 0.454199
215 0.43487
220 0.42616
225 0.462428
230 0.444614
235 0.469837
240 0.377651
245 0.463675
250 0.490157
255 0.427738
260 0.383199
265 0.430549
270 0.40707
275 0.3769
280 0.405646
285 0.484
290 0.470352
295 0.537455
300 0.471936
305 0.495568
310 0.496415
315 0.392677
320 0.532461
325 0.471222
330 0.388079
335 0.486169
340 0.570968
345 0.384711
350 0.479254
355 0.493466
360 0.488524
365 0.431981
370 0.528608
375 0.483238
380 0.471349
385 0.644147
390 0.540315
395 0.515811
400 0.516159
405 0.608043
410 0.544283
415 0.497112
420 0.486648
425 0.480039
430 0.460846
435 0.620701
440 0.548593
445 0.747697
450 0.518983
455 0.506599
460 0.535116
465 0.610489
470 0.631408
475 0.710865
480 0.769256
485 0.674743
490 0.550522
495 0.623924
500 0.668139
505 0.529812
510 0.747351
515 0.811442
520 0.794167
525 0.898193
530 0.917524
535 1.13878
540 1.56961
545 2.19578
550 47.3014
555 935.563
560 1605.86
565 453.669
570 54.4978
575 7.67373
580 1.99014
585 1.31816
590 1.09859
595 0.852448
600 0.297312
Ex : 568
200 0.449003
205 0.513965
210 0.513479
215 0.453019
220 0.455479
225 0.470184
230 0.465303
235 0.415825
240 0.516344
245 0.485938
250 0.427062
255 0.447817
260 0.438513
265 0.431382
270 0.375482
275 0.437732
280 0.373476
285 0.581099
290 0.52729
295 0.545498
300 0.489296
305 0.51774
310 0.385652
315 0.403887
320 0.421255
325 0.460698
330 0.472814
335 0.57767
340 0.620577
345 0.658509
350 0.600033
355 0.558089
360 0.535919
365 0.511087
370 0.571138
375 0.666271
380 0.554751
385 0.487221
390 0.416456
395 0.4959
400 0.411093
405 0.713078
410 0.478201
415 0.40902
420 0.605721
425 0.529737
430 0.569807
435 0.533584
440 0.518909
445 0.500272
450 0.644182
455 0.613055
460 0.66913
465 0.740003
470 0.654742
475 0.668874
480 0.748705
485 0.670103
490 0.591039
495 0.710208
500 0.615968
505 0.501877
510 0.702774
515 0.662839
520 0.77214
525 0.88787
530 0.857144
535 1.17045
540 1.37887
545 1.50427
550 1.93516
555 35.084
560 836.684
565 1533.64
570 451.128
575 54.5688
580 7.48729
585 1.96863
590 1.35249
595 0.885261
600 0.968088
Ex : 573
200 0.519005
205 0.504645
210 0.447084
215 0.535444
220 0.552784
225 0.571382
230 0.439005
235 0.430333
240 0.558885
245 0.57324
250 0.449213
255 0.479546
260 0.539765
265 0.589286
270 0.459604
275 0.424775
280 0.468766
285 0.496291
290 0.44796
295 0.513951
300 0.405735
305 0.384099
310 0.360878
315 0.557267
320 0.56174
325 0.443215
330 0.472267
335 0.506611
340 0.558622
345 0.593122
350 0.472201
355 0.468715
360 0.571552
365 0.531179
370 0.460917
375 0.47471
380 0.674534
385 0.63378
390 0.469684
395 0.478
400 0.489598
405 0.614661
410 0.597563
415 0.56075
420 0.485644
425 0.545261
430 0.498095
435 0.535891
440 0.634573
445 0.660174
450 0.674666
455 0.613797
460 0.675268
465 0.675437
470 0.651391
475 0.611555
480 0.791262
485 0.775871
490 0.618772
495 0.535305
500 0.6975
505 0.608526
510 0.808962
515 0.565781
520 0.862447
525 0.765714
530 0.763024
535 0.874377
540 0.89096
545 0.970418
550 1.35804
555 2.04004
560 29.6451
565 717.902
570 1395.76
575 421.304
580 50.7475
585 6.92117
590 1.82936
595 1.13252
600 1.08676
Ex : 578
200 0.404506
205 0.500503
210 0.482494
215 0.484128
220 0.511156
225 0.448367
230 0.583294
235 0.517202
240 0.403624
245 0.551941
250 0.530974
255 0.47033
260 0.514571
265 0.423369
270 0.410964
275 0.340399
280 0.330881
285 0.564212
290 0.615653
295 0.474937
300 0.580575
305 0.631562
310 0.479096
315 0.54476
320 0.602352
325 0.483994
330 0.429729
335 0.45669
340 0.483747
345 0.543254
350 0.474098
355 0.607767
360 0.651428
365 0.592464
370 0.659236
375 0.641913
380 0.502423
385 0.499477
390 0.570307
395 0.568941
400 0.484784
405 0.454774
410 0.531286
415 0.557301
420 0.524616
425 0.656361
430 0.595368
435 0.548172
440 0.459185
445 0.667167
450 0.558214
455 0.491234
460 0.53558
465 0.588935
470 0.580361
475 0.538653
480 0.718906
485 0.652821
490 0.663921
495 0.672703
500 0.557423
505 0.592689
510 0.714982
515 0.675759
520 0.659175
525 0.767719
530 0.768947
535 0.887966
540 0.93374
545 1.01327
550 1.1651
555 1.46221
560 1.70684
565 25.7432
570 640.631
575 1219.94
580 363.839
585 43.9146
590 5.97202
595 1.41473
600 0.853135
Ex : 583
200 0.475698
205 0.442146
210 0.540456
215 0.445993
220 0.473406
225 0.396908
230 0.630926
235 0.536485
240 0.547107
245 0.541851
250 0.490373
255 0.428291
260 0.46219
265 0.622604
270 0.380607
275 0.560676
280 0.435755
285 0.426318
290 0.528801
295 0.428352
300 0.356116
305 0.442824
310 0.495719
315 0.550925
320 0.497981
325 0.509841
330 0.492853
335 0.524027
340 0.554869
345 0.459249
350 0.592677
355 0.66941
360 0.562842
365 0.533119
370 0.519048
375 0.552999
380 0.549505
385 0.59399
390 0.668069
395 0.703559
400 0.651109
405 0.573142
410 0.592171
415 0.552306
420 0.519926
425 0.503013
430 0.614821
435 0.601852
440 0.594091
445 0.569595
450 0.634191
455 0.727525
460 0.739011
465 0.660409
470 0.756695
475 0.741201
480 0.609254
485 0.623536
490 0.586019
495 0.567865
500 0.632798
505 0.615337
510 0.692213
515 0.721429
520 0.780352
525 0.590548
530 0.765312
535 0.767491
540 0.806697
545 0.917561
550 0.904442
555 1.00782
560 1.41031
565 1.61463
570 21.7652
575 566.227
580 1042.79
585 296.138
590 35.866
595 5.09749
600 1.43901
Ex : 588
200 0.421595
205 0.502347
210 0.668223
215 0.565897
220 0.402529
225 0.483034
230 0.38114
235 0.429231
240 0.495509
245 0.545916
250 0.471324
255 0.536572
260 0.490352
265 0.474489
270 0.545314
275 0.469377
280 0.458496
285 0.41312
290 0.652922
295 0.436148
300 0.472937
305 0.417777
310 0.717744
315 0.37162
320 0.430461
325 0.657699
330 0.578287
335 0.622932
340 0.57804
345 0.67112
350 0.592236
355 0.398704
360 0.633547
365 0.501035
370 0.638848
375 0.534038
380 0.526763
385 0.54693
390 0.545965
395 0.551086
400 0.700846
405 0.594652
410 0.547809
415 0.72239
420 0.531692
425 0.605023
430 0.705235
435 0.548852
440 0.6241
445 0.562676
450 0.575813
455 0.687873
460 0.701387
465 0.620266
470 0.626994
475 0.573815
480 0.715759
485 0.609991
490 0.704103
495 0.637827
500 0.622137
505 0.591963
510 0.609614
515 0.707942
520 0.718553
525 0.916003
530 0.678371
535 0.573976
540 0.698732
545 0.70891
550 0.921137
555 0.95393
560 0.980497
565 1.2462
570 1.56438
575 20.272
580 470.485
585 880.5
590 257.657
595 31.1264
600 4.32901
Ex : 593
200 0.396734
205 0.56114
210 0.636373
215 0.456875
220 0.60105
225 0.491516
230 0.403873
235 0.519374
240 0.405251
245 0.576305
250 0.504602
255 0.476474
260 0.456052
265 0.407163
270 0.476364
275 0.672102
280 0.446638
285 0.564022
290 0.497276
295 0.484965
300 0.571605
305 0.50006
310 0.553795
315 0.452701
320 0.477753
325 0.451642
330 0.46608
335 0.564956
340 0.598964
345 0.536061
350 0.417686
355 0.547135
360 0.536498
365 0.547441
370 0.593842
375 0.667587
380 0.478999
385 0.655475
390 0.56334
395 0.539386
400 0.70573
405 0.470572
410 0.607915
415 0.631135
420 0.515189
425 0.609995
430 0.706907
435 0.573944
440 0.694139
445 0.752377
450 0.74049
455 0.606346
460 0.499781
465 0.618739
470 0.717335
475 0.622654
480 0.710003
485 0.621889
490 0.592306
495 0.62188
500 0.603633
505 0.790981
510 0.6614
515 0.820526
520 0.722406
525 0.670931
530 0.630115
535 0.73472
540 0.835032
545 0.82979
550 0.84017
555 0.853487
560 0.883798
565 1.15626
570 1.26158
575 1.33008
580 17.1171
585 410.2
590 744.485
595 219.233
600 33.5996
Ex : 598
200 0.473784
205 0.65997
210 0.517923
215 0.525647
220 0.54405
225 0.701085
230 0.612597
235 0.555664
240 0.370577
245 0.542419
250 0.614013
255 0.516438
260 0.374948
265 0.6013
270 0.498253
275 0.667719
280 0.457843
285 0.521256
290 0.516193
295 0.5466
300 0.421498
305 0.478428
310 0.607316
315 0.476876
320 0.529621
325 0.513554
330 0.589711
335 0.601987
340 0.611039
345 0.609847
350 0.500138
355 0.572004
360 0.637514
365 0.675856
370 0.659604
375 0.579512
380 0.718309
385 0.571862
390 0.586438
395 0.696704
400 0.695691
405 0.584873
410 0.651701
415 0.656199
420 0.61351
425 0.682497
430 0.648553
435 0.561364
440 0.55925
445 0.496412
450 0.586125
455 0.77495
460 0.725052
465 0.705156
470 0.629705
475 0.619405
480 1.01265
485 0.823717
490 0.634983
495 0.795576
500 0.745277
505 0.657961
510 0.692496
515 0.754184
520 0.584243
525 0.737428
530 0.670944
535 0.572729
540 0.717814
545 0.738375
550 0.894958
555 0.844378
560 0.680892
565 0.925936
570 1.17865
575 1.31231
580 1.41804
585 17.1417
590 361.607
595 640.831
600 416.155
Ex : 603
200 0.592916
205 0.556754
210 0.681829
215 0.629737
220 0.541482
225 0.589395
230 0.69951
235 0.54174
240 0.611719
245 0.586792
250 0.765185
255 0.574946
260 0.524165
265 0.657465
270 0.526676
275 0.507644
280 0.473457
285 0.537811
290 0.742448
295 0.621439
300 0.491305
305 0.575637
310 0.754299
315 0.4225
320 0.694926
325 0.711327
330 0.580851
335 0.563747
340 0.526097
345 0.671784
350 0.476302
355 0.801485
360 0.727951
365 0.551246
370 0.774732
375 0.682279
380 0.641285
385 0.545864
390 0.594772
395 0.565819
400 0.652977
405 0.764009
410 0.645283
415 0.765064
420 0.841132
425 0.679966
430 0.638587
435 0.671159
440 0.612433
445 0.64755
450 0.669685
455 0.522931
460 0.563443
465 0.791065
470 0.568132
475 0.688377
480 0.660267
485 0.713594
490 0.769279
495 0.720991
500 0.717224
505 0.499184
510 0.652113
515 0.849636
520 0.665282
525 0.671876
530 0.908689
535 0.827701
540 0.686092
545 0.767323
550 0.680016
555 0.835981
560 0.838349
565 0.96488
570 0.874199
575 1.04389
580 0.925444
585 0.991906
590 14.8796
595 306.805
600 586.286
