File format V 1.0
ven. 9. déc. 19:57:26 2016
Operator : 
Comments : 

=============================================
SpectroFluorometer parameters
Mode : 3D measurement
Data : Fluorescence
Phospho. : Ordinary
Spectrum : Fluorescence

Scan speed : 2400 nm/mn
Response : 100 ms
PM Voltage : 700 V
Shutter : On

Lambda Ex. Start : 203
Lambda Ex. End : 603
Lambda Ex. Step : 5
Ex. Slit : 5 nm

Lambda Em. Start : 200
Lambda Em. End : 600
Lambda Em. Step : 5
Em. Slit : 5 nm

Repetition : 1
Decal lambda em : 10
=============================================
DATA
Ex : 203
200 18.3228
205 17.5994
210 19.3261
215 13.2401
220 17.492
225 18.543
230 14.9522
235 14.766
240 15.1282
245 14.3265
250 18.4573
255 14.5018
260 15.0884
265 17.5372
270 13.8428
275 12.2048
280 15.5238
285 19.928
290 17.9964
295 24.9463
300 15.0923
305 16.4684
310 16.6085
315 19.1429
320 20.7832
325 17.0211
330 14.897
335 19.9348
340 14.0755
345 11.8423
350 15.6447
355 16.3245
360 15.2569
365 14.7411
370 18.1089
375 18.3948
380 16.4498
385 21.4041
390 17.7639
395 18.723
400 16.7478
405 14.6527
410 17.8778
415 21.4814
420 15.7427
425 16.8414
430 15.0466
435 14.385
440 17.854
445 16.9753
450 13.737
455 20.5337
460 15.7055
465 13.7622
470 19.8971
475 16.3614
480 17.6136
485 14.9509
490 16.3322
495 13.7647
500 18.9899
505 18.2641
510 19.9626
515 20.8876
520 20.1467
525 18.902
530 17.8454
535 22.8321
540 20.693
545 18.6609
550 16.0206
555 18.5151
560 16.0804
565 20.1541
570 16.6121
575 18.1228
580 14.9771
585 14.4273
590 16.6343
595 16.8929
600 8.42118
Ex : 208
200 17.0248
205 17.7949
210 14.9461
215 19.2338
220 14.3836
225 17.6455
230 15.0629
235 15.8109
240 13.4805
245 17.3302
250 15.0756
255 20.1463
260 20.9367
265 22.6009
270 14.8591
275 15.9738
280 16.8435
285 14.7321
290 14.8757
295 18.5718
300 16.2648
305 13.6739
310 17.453
315 10.8732
320 13.165
325 12.6382
330 15.689
335 11.8951
340 15.087
345 15.4337
350 19.6669
355 15.1183
360 15.9638
365 14.8124
370 19.1603
375 12.9608
380 16.6334
385 19.3324
390 14.5906
395 14.8021
400 17.6087
405 14.929
410 15.3819
415 19.1252
420 19.1797
425 18.9404
430 20.8427
435 20.4151
440 15.3406
445 18.8038
450 18.9777
455 15.6826
460 18.2875
465 21.7918
470 20.441
475 16.1737
480 13.7562
485 13.0022
490 14.4472
495 17.0136
500 16.3052
505 15.4998
510 19.6015
515 15.5402
520 21.5279
525 13.0842
530 14.4388
535 14.8852
540 16.0461
545 21.0693
550 17.4734
555 19.135
560 23.3068
565 19.4955
570 16.0627
575 14.6778
580 12.7642
585 15.4343
590 18.1074
595 15.3752
600 1.74964
Ex : 213
200 18.0353
205 17.7553
210 14.5122
215 15.5254
220 20.7012
225 15.2667
230 16.7078
235 16.6403
240 12.6501
245 17.309
250 14.949
255 17.7601
260 16.0745
265 14.0282
270 15.6815
275 14.418
280 14.775
285 18.7116
290 19.7413
295 13.3397
300 17.415
305 13.2001
310 12.4868
315 14.973
320 19.4798
325 15.4343
330 15.4735
335 18.1194
340 14.5809
345 19.0425
350 16.7867
355 23.4147
360 17.0911
365 13.399
370 15.983
375 12.7669
380 18.4645
385 17.6379
390 17.568
395 14.2979
400 17.2436
405 19.4975
410 15.3867
415 19.6479
420 15.11
425 16.5376
430 18.8675
435 19.7733
440 18.9573
445 20.7726
450 18.1008
455 14.1879
460 14.9623
465 19.4107
470 13.7865
475 16.2499
480 18.6378
485 13.7696
490 15.3896
495 13.7461
500 11.6448
505 18.7952
510 19.4616
515 17.5147
520 15.8293
525 15.0227
530 13.1559
535 14.6741
540 16.0232
545 18.0686
550 15.8432
555 16.5911
560 17.44
565 17.7601
570 20.3148
575 18.4699
580 17.7106
585 12.9523
590 15.9085
595 13.2861
600 8.30614
Ex : 218
200 18.5978
205 15.3164
210 13.6939
215 15.8337
220 17.0551
225 12.6347
230 14.7207
235 16.1223
240 17.0339
245 18.9192
250 14.1014
255 19.6908
260 14.8719
265 14.5812
270 15.5568
275 16.4367
280 16.0389
285 12.9982
290 20.7108
295 13.9921
300 14.4112
305 14.1447
310 13.4324
315 15.8727
320 17.1816
325 16.0086
330 12.1678
335 10.5317
340 12.7958
345 22.0206
350 17.0031
355 16.576
360 16.7368
365 19.0837
370 11.9249
375 16.0057
380 12.6375
385 14.0138
390 18.8645
395 15.3965
400 16.7213
405 13.3701
410 15.2711
415 15.6928
420 14.8507
425 18.4227
430 14.5563
435 20.7632
440 14.2041
445 15.5998
450 21.9632
455 19.2122
460 21.7566
465 16.9934
470 15.4872
475 16.138
480 19.7586
485 16.8392
490 17.454
495 17.2544
500 15.8318
505 17.5945
510 17.7825
515 12.8899
520 13.9341
525 14.0126
530 13.9551
535 14.9549
540 15.6375
545 12.0595
550 15.4915
555 18.1023
560 13.5806
565 16.7902
570 17.6607
575 11.6828
580 15.0153
585 16.5631
590 14.6482
595 14.2826
600 8.05028
Ex : 223
200 16.8212
205 15.2803
210 13.8835
215 17.3263
220 14.3578
225 13.7303
230 16.5577
235 13.8585
240 21.3623
245 13.2099
250 11.1313
255 14.5548
260 14.1627
265 16.8457
270 10.7486
275 14.8759
280 18.9763
285 10.7373
290 12.5508
295 16.7875
300 15.5811
305 12.641
310 16.0173
315 12.3252
320 15.3551
325 15.2495
330 13.2024
335 12.1821
340 12.6559
345 20.2733
350 20.2396
355 14.633
360 15.5786
365 16.3166
370 16.9828
375 15.8164
380 17.2058
385 15.5119
390 13.966
395 15.2929
400 13.1879
405 13.5679
410 19.6982
415 15.21
420 13.606
425 14.4701
430 17.9364
435 13.4179
440 21.2902
445 18.3039
450 17.3413
455 20.2069
460 15.9059
465 15.8607
470 17.1658
475 16.0358
480 20.7926
485 18.2083
490 15.4267
495 17.3219
500 20.0008
505 15.4273
510 18.6947
515 15.0978
520 14.8142
525 14.0092
530 14.9674
535 14.8006
540 13.1771
545 16.7985
550 12.5967
555 11.7247
560 11.7976
565 14.2643
570 13.8416
575 13.0958
580 18.7576
585 14.9751
590 18.3138
595 16.49
600 20.7083
Ex : 228
200 15.49
205 15.8462
210 13.3659
215 14.5702
220 11.4702
225 15.0551
230 11.8526
235 13.6717
240 11.6515
245 14.2598
250 11.4901
255 13.5103
260 14.397
265 20.0916
270 17.1082
275 11.2289
280 12.014
285 15.3692
290 14.0195
295 16.1133
300 13.4214
305 10.5979
310 12.2275
315 12.7895
320 13.3601
325 14.1635
330 14.4932
335 13.9922
340 12.8983
345 13.1111
350 15.6891
355 13.5288
360 13.2517
365 14.2772
370 13.0804
375 12.9996
380 12.421
385 16.4398
390 14.4782
395 15.1878
400 13.8349
405 15.3219
410 16.7903
415 18.2129
420 17.8538
425 13.456
430 14.1512
435 10.7662
440 13.4874
445 13.173
450 16.9758
455 20.9902
460 16.0697
465 14.1499
470 13.9247
475 14.0801
480 18.2059
485 18.1586
490 12.6075
495 12.7605
500 13.0582
505 13.5989
510 14.1142
515 13.9682
520 12.4927
525 13.1638
530 14.4283
535 15.0746
540 13.9886
545 14.6133
550 13.6788
555 17.8734
560 14.6989
565 15.2563
570 15.9248
575 14.5413
580 15.3765
585 14.1248
590 13.0674
595 12.2072
600 18.227
Ex : 233
200 9.85294
205 12.3222
210 11.4897
215 10.1421
220 13.0017
225 16.5141
230 10.0935
235 10.2715
240 10.7263
245 14.4395
250 11.6097
255 15.7731
260 15.1543
265 14.05
270 15.8211
275 13.3378
280 13.6262
285 14.2225
290 13.9734
295 10.7902
300 12.9534
305 12.708
310 12.832
315 11.645
320 10.5694
325 14.3104
330 12.3805
335 10.0137
340 13.1795
345 11.5156
350 14.3921
355 12.4511
360 10.4085
365 13.0578
370 15.6938
375 12.859
380 15.824
385 15.5217
390 13.254
395 14.9705
400 13.3896
405 12.6696
410 12.5482
415 14.2199
420 12.4025
425 12.8999
430 15.1259
435 13.658
440 10.5935
445 13.7413
450 14.5937
455 10.9718
460 14.6997
465 17.3815
470 15.904
475 15.6425
480 15.2066
485 19.3478
490 14.2325
495 14.0579
500 12.7018
505 11.457
510 14.2873
515 11.9413
520 16.6007
525 14.6513
530 10.5462
535 14.1876
540 13.1218
545 12.552
550 9.82927
555 14.4704
560 13.8546
565 12.4699
570 12.3957
575 13.0782
580 11.1814
585 13.0985
590 10.4391
595 15.7077
600 8.34538
Ex : 238
200 14.1645
205 12.2893
210 12.1988
215 12.264
220 11.2027
225 9.89587
230 8.42315
235 9.42837
240 12.3873
245 10.8329
250 10.8177
255 9.28038
260 8.93021
265 10.7794
270 9.5631
275 11.8954
280 10.2674
285 10.4061
290 9.89976
295 10.4897
300 10.3486
305 10.3758
310 11.0798
315 10.5793
320 10.3127
325 10.5203
330 9.66659
335 11.2877
340 9.59849
345 9.71628
350 9.81505
355 10.7143
360 10.0666
365 11.5417
370 10.5842
375 12.6198
380 10.745
385 10.2312
390 10.9566
395 12.8588
400 9.45014
405 11.8243
410 11.9612
415 14.1732
420 9.3806
425 11.4116
430 13.522
435 12.3534
440 11.4417
445 12.6528
450 9.38905
455 13.6845
460 13.5003
465 12.5654
470 11.3799
475 12.0545
480 12.1765
485 10.7916
490 10.8808
495 11.7133
500 12.0132
505 8.67164
510 12.5336
515 10.2658
520 9.76438
525 11.9266
530 11.6603
535 13.2871
540 9.65101
545 10.037
550 11.6412
555 11.33
560 13.1881
565 9.02956
570 9.7959
575 7.24999
580 10.372
585 13.9875
590 11.6596
595 12.3551
600 7.16629
Ex : 243
200 11.2264
205 11.7446
210 12.6852
215 10.5329
220 7.35261
225 10.1285
230 9.4939
235 11.9012
240 13.0495
245 11.056
250 6.81579
255 11.7353
260 8.64405
265 9.62914
270 9.50166
275 12.2468
280 8.30797
285 9.9888
290 12.6277
295 8.29203
300 10.8087
305 9.12792
310 11.0889
315 10.1204
320 8.45799
325 10.7074
330 10.9175
335 10.5884
340 10.3968
345 7.97402
350 8.28683
355 11.8312
360 11.4658
365 11.1274
370 13.1059
375 8.54466
380 8.86762
385 9.41099
390 9.97251
395 11.8347
400 10.8566
405 11.3903
410 9.76106
415 8.27947
420 9.74599
425 9.94812
430 9.76914
435 14.098
440 13.5337
445 12.3053
450 10.6887
455 9.52026
460 14.2046
465 10.3236
470 11.5764
475 11.3924
480 11.5981
485 8.19371
490 12.0841
495 12.2133
500 11.8292
505 8.6183
510 10.2975
515 8.03905
520 10.8062
525 9.7668
530 11.0621
535 10.1517
540 8.77791
545 11.1369
550 10.3282
555 10.1999
560 10.5651
565 9.74921
570 11.9423
575 13.4225
580 7.14116
585 10.6378
590 10.3625
595 9.05548
600 8.85861
Ex : 248
200 7.52215
205 7.01159
210 7.0239
215 7.91929
220 8.51031
225 10.7988
230 6.41988
235 6.74328
240 8.27912
245 7.29558
250 7.59959
255 7.80482
260 8.23534
265 6.79806
270 8.02939
275 10.0674
280 6.53873
285 8.79156
290 7.37004
295 11.0395
300 7.15333
305 5.86345
310 6.04698
315 6.9135
320 9.93411
325 6.61885
330 7.27862
335 7.40989
340 7.43657
345 7.83772
350 8.8344
355 6.84658
360 6.90124
365 7.97657
370 9.34251
375 6.91943
380 11.2811
385 7.92061
390 8.37544
395 6.48028
400 7.84049
405 9.26684
410 9.06694
415 7.95951
420 5.03411
425 7.13135
430 8.44476
435 7.72989
440 10.691
445 9.59237
450 9.42412
455 10.4783
460 7.6648
465 9.09282
470 8.00149
475 7.05379
480 10.2122
485 11.2152
490 11.1978
495 9.67288
500 7.12905
505 9.18252
510 9.48326
515 9.10103
520 9.38365
525 6.7783
530 6.48503
535 8.38216
540 7.88009
545 9.05324
550 9.36608
555 9.44473
560 10.2608
565 8.77034
570 10.1924
575 8.0042
580 7.43176
585 9.24381
590 6.50809
595 9.17704
600 20.5408
Ex : 253
200 6.17986
205 6.19726
210 6.73633
215 7.23153
220 6.13345
225 8.32241
230 7.89126
235 8.31448
240 7.1268
245 7.80339
250 5.80742
255 5.5767
260 5.44543
265 5.93915
270 5.81892
275 5.70452
280 7.77635
285 6.67287
290 8.20526
295 7.73756
300 5.88654
305 4.69665
310 5.8055
315 6.72881
320 6.83384
325 6.9492
330 6.67316
335 8.24464
340 7.47861
345 6.45837
350 7.92699
355 5.26508
360 6.68225
365 7.68331
370 8.25482
375 6.63883
380 4.84825
385 6.51971
390 8.63325
395 8.21223
400 7.37427
405 6.31432
410 7.73983
415 6.96048
420 6.64013
425 8.38556
430 7.3165
435 7.69195
440 6.30557
445 8.10185
450 7.24416
455 8.36613
460 8.71388
465 8.2672
470 6.74441
475 7.46615
480 7.84302
485 9.4817
490 8.19468
495 8.20884
500 7.22683
505 7.70255
510 7.5652
515 5.89343
520 6.04975
525 7.28725
530 5.01521
535 7.85951
540 6.51081
545 5.72042
550 5.95287
555 8.52312
560 6.20996
565 6.39787
570 5.51355
575 6.1192
580 7.71535
585 7.6378
590 6.32358
595 8.19288
600 11.5668
Ex : 258
200 5.49802
205 4.56414
210 5.33977
215 5.76878
220 6.22266
225 4.6718
230 6.16371
235 4.25152
240 4.3009
245 4.50011
250 4.78073
255 4.95219
260 5.56242
265 7.47476
270 6.25768
275 5.8545
280 5.31261
285 5.32585
290 6.01666
295 6.49108
300 3.92435
305 5.99158
310 5.98681
315 6.74468
320 6.94538
325 5.88383
330 6.74183
335 5.54237
340 6.21817
345 5.91143
350 5.34204
355 5.71055
360 4.53416
365 4.80248
370 5.75251
375 5.97354
380 5.44444
385 6.46503
390 6.90578
395 5.45216
400 4.95588
405 4.42712
410 4.7921
415 4.70732
420 5.04338
425 6.13427
430 5.46897
435 5.40679
440 8.21006
445 6.27656
450 5.38647
455 7.29836
460 5.81276
465 7.32026
470 5.41203
475 6.14749
480 4.21811
485 5.00356
490 5.39797
495 5.34943
500 5.46576
505 5.86668
510 6.07434
515 4.6562
520 3.72945
525 4.27045
530 4.34122
535 3.75112
540 4.99142
545 6.10808
550 4.62437
555 5.26881
560 6.20227
565 7.80814
570 5.77046
575 5.16466
580 4.28253
585 6.09346
590 6.39143
595 6.33008
600 6.44038
Ex : 263
200 3.19069
205 3.61157
210 4.29162
215 3.5655
220 4.23971
225 5.42792
230 4.29956
235 3.67021
240 4.13809
245 5.2935
250 3.08648
255 3.58327
260 4.76925
265 3.5646
270 4.57242
275 3.86094
280 5.04128
285 3.77785
290 4.81763
295 3.68587
300 3.86793
305 3.34685
310 3.08774
315 4.10668
320 4.02298
325 3.45632
330 4.80639
335 4.34766
340 3.21289
345 4.05233
350 3.74703
355 3.60399
360 4.55842
365 5.42025
370 4.94421
375 4.47109
380 4.41055
385 5.08199
390 5.00665
395 4.6063
400 4.84376
405 4.5769
410 4.01178
415 4.21066
420 5.3042
425 5.41384
430 4.04676
435 4.50111
440 4.96882
445 4.42792
450 4.27875
455 4.06909
460 4.37508
465 3.70887
470 4.34072
475 4.05882
480 4.52548
485 3.80718
490 4.20157
495 3.74244
500 3.5946
505 4.45412
510 4.90395
515 4.81776
520 4.48384
525 4.33747
530 4.28287
535 4.76445
540 4.86276
545 4.61275
550 4.86934
555 4.39751
560 3.8996
565 3.72808
570 4.65878
575 4.08999
580 4.51991
585 4.49266
590 3.4158
595 3.70552
600 9.10647
Ex : 268
200 3.9093
205 3.4867
210 3.22646
215 2.81781
220 3.31508
225 2.94912
230 3.60774
235 2.72383
240 2.37532
245 3.18378
250 3.48161
255 3.55402
260 4.03365
265 3.20677
270 3.01718
275 4.19468
280 3.2636
285 3.03426
290 2.89976
295 2.81792
300 2.82826
305 2.96997
310 2.57307
315 2.82359
320 3.26535
325 3.69564
330 2.93181
335 5.1123
340 4.21309
345 3.85795
350 3.60299
355 3.24088
360 2.8962
365 3.82539
370 3.68581
375 3.8325
380 2.74445
385 3.17096
390 3.89098
395 4.14093
400 3.23416
405 3.89384
410 3.25483
415 3.25553
420 4.10689
425 3.8125
430 3.49963
435 3.91553
440 4.01702
445 4.17834
450 3.78307
455 3.02745
460 3.4976
465 4.13364
470 2.8623
475 3.40168
480 2.99104
485 3.7208
490 3.82017
495 4.25567
500 3.598
505 2.9127
510 3.23408
515 2.96734
520 3.25147
525 3.51716
530 4.72487
535 3.64362
540 3.70743
545 3.73344
550 2.96509
555 4.03995
560 3.31375
565 2.77865
570 2.8105
575 2.67984
580 3.14102
585 3.46862
590 3.4592
595 3.25911
600 0.370874
Ex : 273
200 2.7471
205 3.45075
210 2.00855
215 1.77878
220 2.21575
225 3.63583
230 2.89099
235 2.96038
240 3.13524
245 2.52325
250 2.37985
255 2.45492
260 2.64762
265 3.05409
270 2.5028
275 2.50536
280 2.14014
285 2.17074
290 2.74753
295 2.25757
300 3.12696
305 2.6719
310 1.92734
315 2.04685
320 2.74441
325 2.64487
330 2.92172
335 2.86268
340 2.81121
345 2.44917
350 2.6337
355 2.86816
360 2.72048
365 2.52509
370 3.13208
375 2.82935
380 2.50077
385 3.16831
390 4.0712
395 2.95419
400 3.51153
405 3.45957
410 3.22593
415 2.69913
420 2.90583
425 2.98412
430 2.67094
435 3.37944
440 3.78508
445 3.09696
450 2.99304
455 3.4236
460 3.01709
465 3.13406
470 3.82853
475 3.92647
480 3.09342
485 3.69297
490 2.72182
495 2.6436
500 2.41356
505 2.54619
510 2.52619
515 3.34589
520 2.49949
525 2.33017
530 3.39166
535 2.98322
540 2.98444
545 3.45953
550 2.53331
555 2.59561
560 2.65009
565 3.45365
570 2.95136
575 2.68164
580 2.35769
585 2.31023
590 2.35795
595 2.61245
600 0.864457
Ex : 278
200 1.86631
205 2.48498
210 2.1979
215 2.51278
220 1.73673
225 1.80608
230 2.35966
235 1.91243
240 1.54799
245 2.04849
250 2.65517
255 2.46124
260 1.82888
265 1.78799
270 2.57777
275 1.99236
280 1.99566
285 1.96403
290 1.66843
295 1.55406
300 1.82404
305 1.72965
310 2.13907
315 2.15368
320 2.38484
325 1.97487
330 2.22606
335 2.67315
340 2.41384
345 2.64943
350 2.51423
355 2.84471
360 2.33737
365 2.32451
370 2.13094
375 2.61882
380 2.5066
385 2.58044
390 3.02392
395 2.47746
400 2.25798
405 2.83361
410 2.58704
415 2.88765
420 3.38845
425 2.71336
430 2.6708
435 2.58959
440 2.55343
445 2.709
450 2.99106
455 2.40981
460 2.33151
465 2.69732
470 2.26683
475 2.04934
480 2.37215
485 2.46108
490 2.34204
495 2.7597
500 2.42376
505 1.75141
510 2.1384
515 2.24116
520 2.18321
525 1.94257
530 2.3807
535 2.09525
540 2.48711
545 2.42835
550 3.03164
555 2.3924
560 2.02721
565 1.90509
570 1.84727
575 1.37722
580 2.30128
585 1.93737
590 2.3845
595 1.70797
600 1.26392
Ex : 283
200 1.38893
205 1.54286
210 1.62985
215 1.79595
220 1.93265
225 2.01734
230 1.5238
235 1.71972
240 1.72847
245 1.73766
250 2.14645
255 1.84678
260 2.07258
265 1.74632
270 1.65842
275 2.16564
280 1.69795
285 1.84653
290 1.29795
295 1.46456
300 1.61896
305 1.96125
310 2.13004
315 1.86196
320 2.12503
325 1.66798
330 1.87553
335 1.66938
340 1.72296
345 1.71552
350 2.10277
355 2.07825
360 1.93708
365 2.29209
370 2.00666
375 1.76266
380 2.67414
385 2.95079
390 2.26911
395 2.1525
400 2.32712
405 2.84895
410 2.25673
415 2.3635
420 2.34681
425 2.26903
430 2.00777
435 2.14235
440 2.11395
445 1.92904
450 2.00653
455 1.92772
460 2.39423
465 2.31607
470 2.15033
475 2.02179
480 1.94835
485 2.0369
490 2.09547
495 1.62637
500 2.05737
505 1.37278
510 1.54095
515 2.2445
520 2.11504
525 2.4623
530 2.1229
535 1.94853
540 2.06506
545 1.91722
550 1.74633
555 2.38423
560 1.96915
565 2.50547
570 1.84638
575 1.96787
580 2.13633
585 1.80082
590 1.45733
595 1.76749
600 1.01548
Ex : 288
200 1.36447
205 1.87882
210 1.51418
215 1.11823
220 1.23963
225 1.25282
230 1.37174
235 1.55654
240 1.54338
245 1.32519
250 1.51528
255 1.36598
260 1.31347
265 1.55553
270 1.33988
275 1.37915
280 1.50397
285 2.01254
290 1.71248
295 1.50591
300 1.67125
305 1.26597
310 1.89759
315 1.39964
320 1.50218
325 1.27274
330 1.5193
335 1.54086
340 1.75108
345 1.68883
350 1.44506
355 1.72707
360 1.68307
365 1.49242
370 1.83531
375 1.76797
380 1.83529
385 1.53329
390 1.86888
395 1.93281
400 1.88671
405 1.80773
410 2.29403
415 1.74372
420 1.74807
425 1.98106
430 1.99104
435 2.21763
440 1.77012
445 2.2378
450 1.88263
455 2.22375
460 1.56858
465 1.49783
470 1.59778
475 1.56865
480 2.09546
485 1.75184
490 1.83125
495 1.63689
500 1.55639
505 1.6417
510 1.5507
515 1.13351
520 1.98352
525 1.31194
530 1.68829
535 1.86542
540 1.71346
545 1.6982
550 1.35009
555 1.70449
560 1.87843
565 1.88716
570 1.94814
575 1.57145
580 2.03607
585 1.65829
590 1.32235
595 1.74604
600 0.682076
Ex : 293
200 1.27455
205 0.99513
210 1.38343
215 1.07849
220 1.1983
225 1.32949
230 1.57315
235 0.82687
240 1.06717
245 1.46412
250 1.17787
255 1.21713
260 1.16972
265 1.12926
270 1.28342
275 1.01892
280 1.23644
285 1.68575
290 1.35145
295 1.37389
300 1.02383
305 1.1919
310 1.1463
315 1.07559
320 1.53594
325 1.07858
330 1.16641
335 1.31324
340 1.46708
345 1.56585
350 1.25492
355 1.53673
360 1.26674
365 1.78142
370 1.70007
375 1.39741
380 1.70967
385 1.75177
390 1.51727
395 1.64017
400 1.92166
405 1.5919
410 2.40104
415 2.18628
420 1.78954
425 1.66479
430 1.57635
435 1.74959
440 1.68153
445 1.94951
450 1.79589
455 1.42644
460 1.67181
465 1.31647
470 1.39332
475 1.49617
480 1.31577
485 1.67154
490 1.27457
495 1.11435
500 1.18608
505 1.30898
510 1.24549
515 1.15177
520 1.38201
525 1.29224
530 1.41115
535 1.28981
540 1.13847
545 1.10455
550 1.24451
555 1.2623
560 1.60367
565 1.31993
570 1.19253
575 1.41802
580 1.5139
585 1.80822
590 1.29927
595 1.08968
600 0.124001
Ex : 298
200 1.08252
205 1.14734
210 1.10586
215 1.20366
220 1.36486
225 1.15946
230 1.31137
235 0.928683
240 1.03638
245 1.11005
250 1.01722
255 0.956587
260 1.49733
265 1.26169
270 1.43712
275 0.945016
280 0.963672
285 0.828137
290 0.991272
295 1.71475
300 1.46631
305 1.1876
310 1.2119
315 1.14167
320 1.24067
325 1.14986
330 1.1096
335 0.878319
340 1.34236
345 1.34913
350 1.14779
355 1.43975
360 1.37988
365 1.17055
370 1.23136
375 1.47141
380 1.63601
385 1.40841
390 1.65529
395 1.30108
400 1.7518
405 1.66873
410 1.56099
415 1.52859
420 1.778
425 1.43343
430 1.64827
435 1.46393
440 1.2115
445 1.539
450 1.59728
455 1.35852
460 1.5979
465 1.7142
470 1.45025
475 1.02243
480 1.09658
485 1.41176
490 1.33499
495 1.40292
500 1.37804
505 1.42287
510 1.20796
515 1.38105
520 1.50158
525 1.40094
530 1.12406
535 1.12585
540 1.3096
545 1.0952
550 1.18721
555 1.06764
560 1.3071
565 1.24026
570 1.11923
575 1.24854
580 1.43981
585 1.39051
590 1.62434
595 1.25125
600 4.29838
Ex : 303
200 0.84556
205 0.918809
210 0.901313
215 0.830037
220 1.09589
225 0.88364
230 0.952881
235 0.674822
240 1.04678
245 0.857465
250 0.934877
255 0.928523
260 0.846356
265 0.724683
270 0.942428
275 0.892376
280 1.02272
285 0.974775
290 1.14777
295 1.51725
300 1.17871
305 1.17199
310 1.19492
315 0.725105
320 1.01202
325 0.919856
330 0.935234
335 1.01296
340 1.21435
345 1.20176
350 1.19957
355 0.960493
360 1.06151
365 1.40349
370 1.44431
375 1.24693
380 1.53789
385 1.34212
390 1.29519
395 1.51273
400 1.43079
405 1.17831
410 1.37017
415 1.35566
420 1.65655
425 1.44612
430 1.41727
435 1.4978
440 1.8416
445 1.25233
450 1.38788
455 1.44771
460 1.67957
465 1.56353
470 1.223
475 1.36444
480 1.27031
485 0.995187
490 1.40777
495 1.44545
500 1.20808
505 1.09241
510 1.10579
515 1.13967
520 1.19231
525 1.06485
530 0.822265
535 0.79164
540 1.02217
545 0.983223
550 1.01674
555 0.927607
560 1.17277
565 1.17213
570 1.08331
575 0.936392
580 1.0417
585 1.04732
590 1.06032
595 1.02396
600 1.05644
Ex : 308
200 0.775663
205 0.831956
210 0.728787
215 0.635602
220 0.781237
225 0.785344
230 0.662053
235 0.803402
240 0.644122
245 0.869914
250 0.896382
255 0.967871
260 0.904408
265 0.645732
270 0.870564
275 0.695215
280 0.734482
285 0.906565
290 0.756405
295 0.904778
300 1.32261
305 1.27279
310 0.949819
315 0.772599
320 0.782647
325 0.82585
330 0.865054
335 1.00042
340 0.822248
345 0.914561
350 0.865029
355 0.975507
360 1.06835
365 0.948384
370 1.27667
375 1.17835
380 1.46243
385 1.31453
390 1.34918
395 1.31664
400 1.1127
405 1.25573
410 1.26998
415 1.22787
420 1.41059
425 1.35766
430 1.18915
435 1.25542
440 1.29872
445 1.32911
450 1.27314
455 1.21108
460 1.04757
465 1.18199
470 1.30924
475 0.969352
480 1.15339
485 1.16493
490 1.18695
495 1.26624
500 1.05186
505 1.00926
510 0.918293
515 1.02384
520 1.04706
525 0.837771
530 0.648201
535 0.826038
540 0.887711
545 0.95933
550 0.674328
555 1.17968
560 1.1222
565 0.937413
570 0.715366
575 0.580918
580 1.03416
585 0.782198
590 0.974659
595 0.92401
600 1.9351
Ex : 313
200 0.710396
205 0.523698
210 0.527759
215 0.732111
220 0.787328
225 0.702406
230 0.812173
235 0.938411
240 0.701211
245 0.675328
250 0.858144
255 0.781296
260 0.926042
265 0.775569
270 0.871712
275 0.754399
280 0.624449
285 0.916757
290 0.700291
295 0.572575
300 0.794454
305 1.02216
310 1.47874
315 0.773499
320 0.759492
325 1.11345
330 0.799519
335 0.906329
340 0.965456
345 1.02827
350 0.930265
355 1.03422
360 1.48188
365 1.46012
370 1.22646
375 1.10577
380 1.14038
385 1.0832
390 1.39142
395 1.45396
400 1.60477
405 1.52696
410 1.3354
415 1.49884
420 1.5651
425 1.45341
430 1.48033
435 1.37018
440 1.43418
445 1.23646
450 1.34773
455 1.06222
460 1.18948
465 1.00881
470 1.1247
475 1.19903
480 0.97567
485 0.74666
490 1.04178
495 1.01577
500 0.730894
505 0.79243
510 0.796327
515 1.11276
520 0.860343
525 0.993663
530 0.590357
535 0.920989
540 0.987798
545 0.729581
550 0.752823
555 0.762749
560 0.605348
565 0.663144
570 0.639478
575 0.574912
580 0.579866
585 0.752406
590 0.680774
595 0.701745
600 0.0798559
Ex : 318
200 0.604691
205 0.656362
210 0.577815
215 0.652423
220 0.576939
225 0.619752
230 0.631258
235 0.636003
240 0.808378
245 0.653925
250 0.701127
255 0.593456
260 0.718559
265 0.646663
270 0.63312
275 0.505149
280 0.698859
285 0.759513
290 0.799472
295 0.556223
300 0.636515
305 0.54596
310 0.830849
315 0.989439
320 0.875475
325 0.748732
330 0.984367
335 1.04725
340 1.33537
345 1.63525
350 1.90729
355 2.39514
360 2.34439
365 3.09593
370 3.68049
375 4.14965
380 4.88685
385 5.05017
390 5.85309
395 6.27035
400 6.07447
405 6.17782
410 6.35828
415 5.9183
420 6.15229
425 6.27434
430 5.80718
435 5.60149
440 5.43119
445 5.38516
450 5.23966
455 4.77906
460 4.56984
465 4.13198
470 3.62093
475 3.44274
480 3.20354
485 2.98403
490 2.58409
495 2.44011
500 2.01662
505 1.95593
510 2.0401
515 1.70658
520 1.56351
525 1.40773
530 1.3306
535 1.17611
540 1.07393
545 1.00378
550 0.915956
555 0.948782
560 0.824501
565 0.830594
570 0.971001
575 0.802189
580 0.765806
585 0.812021
590 0.831792
595 0.866915
600 0.975812
Ex : 323
200 0.723629
205 0.754197
210 0.517743
215 0.574566
220 0.569948
225 0.655924
230 0.490696
235 0.706791
240 0.572413
245 0.726682
250 0.837981
255 0.655671
260 0.574528
265 0.756079
270 0.61982
275 0.629836
280 0.79396
285 0.749001
290 0.505077
295 0.558185
300 0.606772
305 0.549001
310 0.733491
315 2.1631
320 8.89747
325 4.32811
330 2.29603
335 2.89828
340 4.21465
345 5.72968
350 8.3059
355 10.809
360 13.3348
365 15.6624
370 17.7173
375 21.225
380 24.816
385 27.115
390 28.9865
395 31.0921
400 32.2547
405 32.6685
410 32.2957
415 32.4657
420 31.8475
425 31.4126
430 30.7925
435 28.5427
440 27.9274
445 26.367
450 25.1472
455 23.3019
460 22.1672
465 20.4474
470 18.3267
475 16.7933
480 14.8228
485 13.9105
490 12.5121
495 11.5813
500 10.2947
505 8.69413
510 8.08076
515 7.25476
520 6.10878
525 5.1814
530 4.28051
535 4.37438
540 3.66227
545 3.06602
550 2.66926
555 2.43212
560 1.90141
565 2.10222
570 1.7923
575 1.47976
580 1.17051
585 1.16697
590 0.97553
595 1.13275
600 0.588416
Ex : 328
200 0.441377
205 0.581913
210 0.483362
215 0.655967
220 0.647397
225 0.542954
230 0.628696
235 0.525702
240 0.73733
245 0.459072
250 0.631475
255 0.422949
260 0.517423
265 0.588853
270 0.501437
275 0.405873
280 0.481461
285 0.714594
290 0.694569
295 0.528779
300 0.540993
305 0.599519
310 0.512673
315 1.10971
320 22.175
325 57.6635
330 19.7923
335 6.07294
340 6.0031
345 8.06247
350 10.1268
355 14.2913
360 19.0927
365 22.3383
370 24.6079
375 27.8317
380 31.6907
385 34.7116
390 38.2773
395 40.4338
400 41.6488
405 42.041
410 43.2246
415 42.5127
420 42.3484
425 41.1683
430 39.6144
435 38.2759
440 36.3708
445 34.9672
450 33.0972
455 30.9585
460 28.24
465 25.605
470 24.6145
475 22.5473
480 19.6513
485 19.0689
490 16.5636
495 14.4199
500 13.1847
505 11.4438
510 10.142
515 9.37594
520 7.87607
525 6.52767
530 6.07098
535 5.56345
540 4.76485
545 3.97953
550 3.62402
555 3.06387
560 2.86445
565 2.67047
570 2.2401
575 1.80993
580 1.6689
585 1.02022
590 1.04374
595 0.810453
600 0.558247
Ex : 333
200 0.402381
205 0.56974
210 0.491688
215 0.548433
220 0.457629
225 0.457549
230 0.472207
235 0.483896
240 0.473573
245 0.523703
250 0.446611
255 0.521214
260 0.515851
265 0.541893
270 0.445354
275 0.524905
280 0.41658
285 0.424911
290 0.498551
295 0.389815
300 0.670371
305 0.532705
310 0.493383
315 0.600832
320 4.08086
325 77.6649
330 142.369
335 39.3783
340 8.62703
345 6.47085
350 7.12027
355 8.08325
360 11.6616
365 16.7062
370 17.4439
375 17.9744
380 19.316
385 21.5067
390 24.189
395 25.6912
400 26.7291
405 26.4579
410 27.1787
415 27.145
420 25.9702
425 25.1727
430 23.8456
435 23.6395
440 22.4051
445 21.6484
450 19.8033
455 18.5443
460 17.9127
465 16.1536
470 14.6869
475 13.4056
480 12.8191
485 11.1476
490 10.5377
495 9.45102
500 8.79461
505 7.96558
510 7.03155
515 5.93603
520 5.37567
525 4.93033
530 4.31249
535 3.9914
540 3.62435
545 3.27622
550 2.6326
555 2.68283
560 2.48386
565 2.05097
570 1.80888
575 1.39676
580 1.47161
585 1.20996
590 1.07116
595 0.880845
600 0.67043
Ex : 338
200 0.522139
205 0.479056
210 0.493714
215 0.396293
220 0.435779
225 0.459723
230 0.545
235 0.496096
240 0.405843
245 0.457571
250 0.392031
255 0.511785
260 0.463622
265 0.522191
270 0.435643
275 0.560147
280 0.478291
285 0.478883
290 0.473422
295 0.419558
300 0.460907
305 0.535752
310 0.471727
315 0.579425
320 0.755687
325 8.52731
330 124.214
335 186.456
340 47.0467
345 8.57762
350 5.05781
355 4.87727
360 4.78802
365 7.58078
370 11.7164
375 12.2123
380 11.5574
385 11.647
390 13.1051
395 14.4269
400 14.2818
405 14.7795
410 15.3836
415 15.9976
420 15.7019
425 14.3021
430 13.5757
435 12.9655
440 12.5309
445 11.7961
450 11.3005
455 10.3641
460 9.49504
465 9.42151
470 8.36928
475 8.62656
480 7.49381
485 7.23985
490 6.3997
495 6.05881
500 5.56947
505 4.85013
510 4.71053
515 4.43668
520 3.80571
525 3.46313
530 3.23918
535 2.9891
540 2.62833
545 2.41522
550 2.19565
555 2.15943
560 2.02911
565 1.63597
570 1.68778
575 1.30049
580 1.19087
585 1.00126
590 0.852794
595 0.894024
600 0.579407
Ex : 343
200 0.520996
205 0.401177
210 0.42569
215 0.471603
220 0.389426
225 0.468565
230 0.370235
235 0.427997
240 0.438524
245 0.510374
250 0.509888
255 0.486564
260 0.523474
265 0.488506
270 0.498206
275 0.427624
280 0.549034
285 0.546725
290 0.462783
295 0.44256
300 0.463144
305 0.542801
310 0.55555
315 0.493942
320 0.507116
325 0.813401
330 10.1159
335 147.301
340 212.312
345 51.9201
350 8.45005
355 4.26221
360 3.73617
365 3.4403
370 4.5684
375 9.31971
380 10.5523
385 9.99877
390 10.0988
395 10.3313
400 10.5984
405 10.6645
410 11.3926
415 11.8148
420 11.1118
425 10.6711
430 10.1591
435 10.2179
440 9.60302
445 9.26663
450 9.36968
455 8.41354
460 7.92946
465 7.29429
470 6.9395
475 6.82105
480 5.94436
485 6.05107
490 5.58822
495 5.48535
500 4.89572
505 4.51787
510 4.14184
515 3.42186
520 3.27509
525 2.8828
530 2.6629
535 2.57169
540 2.57385
545 2.34521
550 2.15198
555 1.84396
560 1.67852
565 1.7306
570 1.27473
575 1.29129
580 1.05894
585 0.903724
590 0.824866
595 0.737849
600 0.245867
Ex : 348
200 0.485931
205 0.373314
210 0.321349
215 0.408153
220 0.438164
225 0.455747
230 0.465715
235 0.369279
240 0.397912
245 0.383996
250 0.435305
255 0.52344
260 0.422829
265 0.297692
270 0.463163
275 0.440032
280 0.39771
285 0.391407
290 0.543341
295 0.520115
300 0.446679
305 0.408551
310 0.414746
315 0.495057
320 0.447124
325 0.494618
330 0.573751
335 10.5824
340 149.738
345 222.582
350 56.9638
355 8.88405
360 3.79953
365 3.06976
370 2.8283
375 3.60002
380 7.7933
385 12.1156
390 12.0028
395 11.6236
400 10.7284
405 10.8318
410 11.9793
415 12.4068
420 12.2066
425 11.1901
430 10.497
435 10.3422
440 10.2093
445 9.23182
450 8.92604
455 8.28244
460 8.11797
465 7.4274
470 7.44249
475 6.71454
480 6.15643
485 5.3833
490 5.3595
495 5.10484
500 4.65189
505 4.7865
510 3.85699
515 3.68182
520 3.31804
525 3.42459
530 2.84412
535 2.66812
540 2.33888
545 2.23298
550 2.02126
555 1.73807
560 1.64721
565 1.52312
570 1.15757
575 1.26938
580 1.00367
585 0.879963
590 0.738627
595 0.787434
600 0.383229
Ex : 353
200 0.347268
205 0.432547
210 0.368534
215 0.42336
220 0.44797
225 0.460631
230 0.386821
235 0.371146
240 0.380783
245 0.33254
250 0.379535
255 0.412706
260 0.534092
265 0.457296
270 0.396602
275 0.330336
280 0.458088
285 0.342755
290 0.415231
295 0.381951
300 0.440675
305 0.578828
310 0.475924
315 0.435376
320 0.406355
325 0.474105
330 0.502638
335 0.616974
340 11.0894
345 156.837
350 223.581
355 55.8623
360 8.61753
365 3.45828
370 3.19266
375 2.68838
380 3.86617
385 8.34769
390 13.7623
395 13.5625
400 11.9792
405 11.4018
410 12.1011
415 13.5175
420 12.5174
425 11.3119
430 10.8953
435 10.7758
440 10.2871
445 9.88473
450 8.9919
455 8.71104
460 7.92237
465 7.70227
470 7.44779
475 6.91077
480 6.46655
485 6.06712
490 5.78579
495 5.56425
500 4.81324
505 4.29449
510 3.94446
515 3.69244
520 3.66291
525 3.24582
530 2.92026
535 2.48961
540 2.4419
545 2.27279
550 2.12184
555 1.96724
560 1.73532
565 1.61284
570 1.45314
575 1.26116
580 1.07462
585 0.902835
590 0.750431
595 0.661937
600 0.675975
Ex : 358
200 0.4025
205 0.350967
210 0.305352
215 0.35577
220 0.330015
225 0.35519
230 0.37037
235 0.282821
240 0.279159
245 0.372522
250 0.403099
255 0.372714
260 0.337231
265 0.372405
270 0.375747
275 0.458723
280 0.40574
285 0.377621
290 0.282688
295 0.290897
300 0.406611
305 0.377995
310 0.434702
315 0.398571
320 0.524403
325 0.476906
330 0.42922
335 0.550675
340 0.691852
345 10.317
350 151.15
355 228.186
360 57.6628
365 8.6102
370 3.35769
375 3.13978
380 3.39263
385 5.37976
390 9.35104
395 14.0523
400 12.9303
405 11.4321
410 11.2338
415 11.7818
420 11.7119
425 10.4421
430 9.7207
435 9.782
440 9.56389
445 9.51032
450 8.82018
455 8.59779
460 8.0711
465 7.61426
470 7.43351
475 6.90101
480 6.43622
485 6.22769
490 5.81357
495 5.6469
500 5.33422
505 5.01129
510 4.48571
515 4.18468
520 3.52261
525 3.29338
530 3.27197
535 2.82615
540 2.55581
545 2.50147
550 2.15141
555 1.86567
560 1.76009
565 1.62686
570 1.46423
575 1.2746
580 1.1833
585 0.955991
590 0.697213
595 0.70187
600 0.64631
Ex : 363
200 0.311781
205 0.27606
210 0.380242
215 0.308621
220 0.240643
225 0.301987
230 0.310112
235 0.257046
240 0.33586
245 0.347477
250 0.364859
255 0.346877
260 0.340521
265 0.284753
270 0.322705
275 0.324729
280 0.409595
285 0.338322
290 0.345931
295 0.29348
300 0.298907
305 0.217781
310 0.296892
315 0.337959
320 0.355209
325 0.332689
330 0.425069
335 0.438289
340 0.535146
345 0.588134
350 9.40978
355 145.347
360 224.294
365 59.1167
370 8.64436
375 3.4839
380 4.33108
385 6.33296
390 8.16923
395 9.80073
400 13.2225
405 14.0221
410 13.5153
415 13.5683
420 12.1692
425 11.216
430 10.1349
435 10.0157
440 10.1776
445 9.75928
450 9.14772
455 8.39543
460 8.12583
465 8.03668
470 7.5958
475 7.11989
480 6.86673
485 6.24425
490 5.84031
495 5.83683
500 5.40259
505 5.08899
510 4.61713
515 4.09612
520 4.11918
525 3.51648
530 3.23214
535 3.00673
540 2.57977
545 2.31951
550 2.28112
555 2.09219
560 1.82246
565 1.55999
570 1.38082
575 1.34008
580 1.14214
585 0.911607
590 0.768006
595 0.811795
600 0.779293
Ex : 368
200 0.251526
205 0.320614
210 0.278779
215 0.24119
220 0.277981
225 0.333258
230 0.292798
235 0.350697
240 0.302722
245 0.316366
250 0.311369
255 0.254051
260 0.2683
265 0.305716
270 0.274405
275 0.302752
280 0.333529
285 0.519047
290 0.287297
295 0.321113
300 0.305472
305 0.277694
310 0.403614
315 0.330467
320 0.368855
325 0.313932
330 0.358754
335 0.468819
340 0.422127
345 0.500007
350 0.724224
355 7.84144
360 141.468
365 233.597
370 63.13
375 9.23182
380 4.21125
385 6.83627
390 9.68253
395 10.8028
400 10.5941
405 13.9516
410 17.3411
415 16.2675
420 14.8274
425 12.3391
430 11.5845
435 11.1146
440 11.1011
445 10.9252
450 9.67551
455 8.94147
460 8.8509
465 8.46439
470 7.90183
475 7.65364
480 7.11856
485 6.57354
490 6.35509
495 6.0351
500 5.42588
505 5.4344
510 4.67807
515 4.42251
520 3.82803
525 3.57396
530 3.41485
535 3.02677
540 2.73525
545 2.4685
550 2.3282
555 2.08316
560 1.85375
565 1.74396
570 1.40463
575 1.18919
580 1.12248
585 0.976294
590 0.85858
595 0.73072
600 0.26525
Ex : 373
200 0.26993
205 0.336451
210 0.28816
215 0.259158
220 0.21654
225 0.23772
230 0.283821
235 0.323824
240 0.388556
245 0.347643
250 0.275565
255 0.343076
260 0.309785
265 0.308245
270 0.314386
275 0.327112
280 0.305295
285 0.26768
290 0.273596
295 0.274681
300 0.31363
305 0.360179
310 0.270938
315 0.294042
320 0.277327
325 0.317595
330 0.308044
335 0.392941
340 0.317372
345 0.341628
350 0.410448
355 0.538154
360 9.18944
365 144.061
370 230.708
375 62.5832
380 9.66742
385 6.0599
390 9.63399
395 11.5402
400 10.5515
405 10.3751
410 13.9392
415 17.7259
420 16.3554
425 13.2395
430 11.4784
435 10.9039
440 11.1249
445 10.7024
450 9.73312
455 9.26188
460 8.32067
465 8.18912
470 8.11889
475 7.41536
480 7.23767
485 6.7324
490 6.28054
495 6.25146
500 5.91396
505 5.44949
510 5.14728
515 4.52888
520 4.24972
525 3.66125
530 3.46999
535 3.27955
540 2.81824
545 2.49661
550 2.31265
555 2.16429
560 1.85384
565 1.54245
570 1.50002
575 1.36184
580 1.13511
585 0.88219
590 0.774152
595 0.599511
600 0.901178
Ex : 378
200 0.281223
205 0.256791
210 0.25878
215 0.313274
220 0.282707
225 0.328151
230 0.331459
235 0.260568
240 0.269173
245 0.287698
250 0.362034
255 0.305547
260 0.240073
265 0.250872
270 0.283538
275 0.270979
280 0.298001
285 0.338882
290 0.320679
295 0.298681
300 0.313245
305 0.318112
310 0.358283
315 0.282298
320 0.264122
325 0.309782
330 0.273708
335 0.377575
340 0.390548
345 0.346686
350 0.405638
355 0.489609
360 0.593852
365 8.41897
370 145.584
375 233.069
380 64.3406
385 11.3044
390 7.63942
395 8.61828
400 8.4431
405 7.9518
410 9.15567
415 11.5858
420 14.2806
425 12.4533
430 10.0844
435 9.21207
440 8.65939
445 8.818
450 7.91851
455 7.25588
460 7.30811
465 7.1027
470 7.12184
475 6.86796
480 6.67745
485 6.29404
490 6.36059
495 5.91125
500 5.35226
505 5.31492
510 4.92294
515 4.52336
520 4.20795
525 3.75701
530 3.58759
535 3.33995
540 2.79628
545 2.71907
550 2.4452
555 2.27197
560 1.86375
565 1.65173
570 1.36606
575 1.26082
580 1.02506
585 0.895202
590 0.72283
595 0.744672
600 0.879771
Ex : 383
200 0.268845
205 0.334138
210 0.33512
215 0.219205
220 0.247427
225 0.250473
230 0.203053
235 0.268204
240 0.301945
245 0.308815
250 0.221307
255 0.280912
260 0.222524
265 0.271315
270 0.299505
275 0.287886
280 0.270728
285 0.244932
290 0.243327
295 0.393381
300 0.292643
305 0.262542
310 0.290383
315 0.313926
320 0.287425
325 0.297284
330 0.311319
335 0.307311
340 0.43027
345 0.334645
350 0.337981
355 0.386506
360 0.448382
365 0.630079
370 8.27217
375 145.911
380 245.096
385 70.2033
390 14.4245
395 8.34105
400 7.97881
405 8.41526
410 9.36868
415 9.411
420 9.60978
425 11.9397
430 11.9707
435 9.87858
440 9.0207
445 8.37099
450 7.53217
455 7.45721
460 6.97515
465 6.99048
470 6.99625
475 6.89464
480 6.68816
485 6.48603
490 6.1257
495 6.10881
500 5.70786
505 5.08461
510 4.99261
515 4.52156
520 4.31768
525 3.82377
530 3.52472
535 3.18092
540 2.93548
545 2.71244
550 2.43143
555 2.17795
560 1.84115
565 1.77715
570 1.47502
575 1.15548
580 0.943753
585 0.907523
590 0.741425
595 0.597887
600 0.680764
Ex : 388
200 0.25816
205 0.29013
210 0.267001
215 0.280656
220 0.233674
225 0.225315
230 0.197919
235 0.206971
240 0.316103
245 0.225332
250 0.316728
255 0.294189
260 0.28919
265 0.269331
270 0.272574
275 0.322293
280 0.242187
285 0.435903
290 0.273903
295 0.226758
300 0.283534
305 0.268003
310 0.240064
315 0.237209
320 0.25886
325 0.222554
330 0.346763
335 0.322046
340 0.361034
345 0.303061
350 0.299518
355 0.2905
360 0.329453
365 0.474761
370 0.588551
375 9.36104
380 153.229
385 254.656
390 74.3152
395 16.6654
400 9.67379
405 9.35287
410 10.8734
415 11.3575
420 10.8709
425 9.85821
430 11.6595
435 12.8115
440 11.6813
445 9.77504
450 8.63169
455 7.99839
460 7.6051
465 7.23348
470 7.13395
475 7.02752
480 6.91518
485 6.77399
490 6.40442
495 5.95258
500 5.66344
505 5.46324
510 4.93483
515 4.64162
520 4.1681
525 3.97381
530 3.52988
535 3.26361
540 3.04855
545 2.62471
550 2.5073
555 2.29807
560 1.8942
565 1.8009
570 1.53652
575 1.10776
580 1.07996
585 0.805183
590 0.706751
595 0.601159
600 0.323529
Ex : 393
200 0.257054
205 0.264524
210 0.216387
215 0.244292
220 0.250312
225 0.296267
230 0.314978
235 0.275779
240 0.228308
245 0.215004
250 0.308672
255 0.25152
260 0.219149
265 0.216921
270 0.250488
275 0.18504
280 0.258363
285 0.237403
290 0.263604
295 0.280089
300 0.276186
305 0.242383
310 0.30583
315 0.242249
320 0.271753
325 0.279519
330 0.300433
335 0.288419
340 0.25788
345 0.251564
350 0.298669
355 0.331682
360 0.418067
365 0.386039
370 0.392149
375 0.634669
380 8.61824
385 166.83
390 302.998
395 88.7155
400 18.1417
405 9.80451
410 9.89216
415 12.0417
420 11.6748
425 10.022
430 8.99964
435 10.0927
440 12.4781
445 11.0929
450 9.26107
455 8.1284
460 7.29796
465 7.31761
470 7.20853
475 7.07704
480 6.65942
485 6.64995
490 6.48597
495 6.06984
500 5.62896
505 5.1845
510 5.02991
515 4.84454
520 4.40876
525 3.76458
530 3.64506
535 3.3463
540 2.79452
545 2.73564
550 2.60057
555 2.35888
560 2.06347
565 1.83962
570 1.56199
575 1.27953
580 1.11442
585 0.868709
590 0.731056
595 0.636528
600 0.760656
Ex : 398
200 0.220172
205 0.266148
210 0.253888
215 0.271628
220 0.191777
225 0.267177
230 0.248952
235 0.228949
240 0.201178
245 0.212271
250 0.211647
255 0.21282
260 0.18174
265 0.233049
270 0.300003
275 0.244335
280 0.225866
285 0.22557
290 0.169686
295 0.182457
300 0.265307
305 0.291885
310 0.225636
315 0.217343
320 0.265236
325 0.258927
330 0.245323
335 0.25229
340 0.190795
345 0.257047
350 0.299412
355 0.266187
360 0.26271
365 0.347598
370 0.363349
375 0.462553
380 0.699061
385 9.09214
390 160.717
395 269.928
400 76.9973
405 13.5986
410 6.51151
415 7.45919
420 7.63949
425 6.53796
430 5.41945
435 5.39618
440 6.58679
445 9.28604
450 8.75703
455 6.76052
460 6.4716
465 6.34826
470 6.29574
475 6.16006
480 5.85142
485 6.26416
490 5.86889
495 5.7671
500 5.47105
505 5.0625
510 4.84432
515 4.36029
520 4.12807
525 3.83019
530 3.52522
535 3.21011
540 3.01997
545 2.91591
550 2.42149
555 2.17181
560 2.07101
565 1.82248
570 1.48433
575 1.31661
580 1.00257
585 0.966642
590 0.776587
595 0.639069
600 0.586421
Ex : 403
200 0.291677
205 0.258777
210 0.207096
215 0.305178
220 0.218934
225 0.249329
230 0.22388
235 0.264792
240 0.220385
245 0.312485
250 0.284906
255 0.301748
260 0.219851
265 0.229783
270 0.220469
275 0.252078
280 0.25462
285 0.283179
290 0.262476
295 0.239411
300 0.247837
305 0.265569
310 0.247473
315 0.182731
320 0.187634
325 0.270903
330 0.291892
335 0.260117
340 0.329929
345 0.298592
350 0.237033
355 0.2519
360 0.287561
365 0.271909
370 0.308125
375 0.324788
380 0.441857
385 0.724167
390 10.0875
395 164.096
400 268.296
405 73.8447
410 11.2554
415 4.39458
420 3.989
425 3.77323
430 3.59015
435 3.37426
440 3.7349
445 4.41478
450 6.75522
455 7.42384
460 5.97556
465 5.73069
470 5.24992
475 5.18936
480 5.45979
485 5.61729
490 5.45462
495 5.59503
500 5.47805
505 4.81458
510 4.62389
515 4.55999
520 4.0609
525 3.72586
530 3.44782
535 3.29783
540 2.99715
545 2.56272
550 2.45589
555 2.34873
560 1.82806
565 1.78072
570 1.50284
575 1.27977
580 1.02815
585 0.832335
590 0.67871
595 0.567718
600 1.04661
Ex : 408
200 0.252843
205 0.252282
210 0.25578
215 0.273731
220 0.272691
225 0.232807
230 0.290232
235 0.274266
240 0.239155
245 0.24177
250 0.233876
255 0.280831
260 0.244118
265 0.251008
270 0.283804
275 0.296016
280 0.212865
285 0.288185
290 0.272548
295 0.270522
300 0.238305
305 0.236075
310 0.274507
315 0.23578
320 0.308955
325 0.297777
330 0.260592
335 0.19522
340 0.232834
345 0.261987
350 0.278065
355 0.396635
360 0.296265
365 0.279303
370 0.328285
375 0.323419
380 0.336523
385 0.401738
390 0.786943
395 9.38488
400 165.808
405 271.872
410 73.0273
415 10.6816
420 3.3197
425 2.76516
430 2.93984
435 2.92967
440 2.88877
445 3.28784
450 3.56579
455 5.83225
460 7.1975
465 6.17412
470 5.55609
475 5.41736
480 5.3125
485 5.20463
490 5.05976
495 4.96458
500 5.05751
505 4.83798
510 4.67967
515 4.53529
520 4.10352
525 3.71793
530 3.53323
535 3.03244
540 2.78672
545 2.55078
550 2.49832
555 2.23052
560 2.01855
565 1.74506
570 1.45006
575 1.32099
580 1.09061
585 0.913201
590 0.771907
595 0.694759
600 0.956313
Ex : 413
200 0.202077
205 0.24068
210 0.268512
215 0.191632
220 0.258029
225 0.24031
230 0.184437
235 0.250632
240 0.222347
245 0.245407
250 0.27338
255 0.217914
260 0.197495
265 0.206979
270 0.220126
275 0.264355
280 0.188424
285 0.25101
290 0.229605
295 0.228932
300 0.231453
305 0.252184
310 0.222599
315 0.180205
320 0.24734
325 0.243304
330 0.216512
335 0.325493
340 0.342128
345 0.349132
350 0.338659
355 0.362297
360 0.336629
365 0.313879
370 0.318175
375 0.332572
380 0.344774
385 0.400097
390 0.434457
395 0.736441
400 10.1609
405 175.298
410 277.906
415 72.5821
420 10.315
425 3.15758
430 2.42378
435 2.83124
440 2.92212
445 2.89184
450 2.96005
455 3.64083
460 5.30878
465 7.62836
470 6.62604
475 5.74674
480 5.65464
485 5.29675
490 5.03426
495 5.0125
500 4.87303
505 4.58115
510 4.42932
515 4.08304
520 3.83785
525 3.63971
530 3.26444
535 3.05084
540 2.85616
545 2.77648
550 2.56625
555 2.20334
560 1.97551
565 1.69529
570 1.47802
575 1.35392
580 1.13197
585 0.931366
590 0.708689
595 0.61823
600 0.249354
Ex : 418
200 0.179083
205 0.218235
210 0.192669
215 0.222261
220 0.271693
225 0.213128
230 0.272728
235 0.26565
240 0.190337
245 0.238265
250 0.215542
255 0.203296
260 0.21828
265 0.222077
270 0.294836
275 0.206325
280 0.212825
285 0.213916
290 0.231635
295 0.207337
300 0.201128
305 0.252569
310 0.240513
315 0.209022
320 0.24553
325 0.225582
330 0.299309
335 0.242616
340 0.28072
345 0.241837
350 0.263106
355 0.243534
360 0.270587
365 0.256547
370 0.272879
375 0.283635
380 0.361042
385 0.327262
390 0.374896
395 0.452278
400 0.641802
405 9.83371
410 177.323
415 287.554
420 76.5408
425 10.3689
430 2.76229
435 1.99163
440 2.48965
445 2.63795
450 2.53678
455 2.84334
460 3.29564
465 4.38372
470 6.68031
475 6.88109
480 5.6633
485 5.24035
490 4.79717
495 4.96837
500 4.7128
505 4.48569
510 4.37104
515 3.997
520 3.67828
525 3.41969
530 3.36451
535 3.02365
540 2.83355
545 2.41313
550 2.44047
555 2.23603
560 1.9073
565 1.58011
570 1.42334
575 1.28566
580 1.00945
585 0.802342
590 0.727839
595 0.649211
600 0.307859
Ex : 423
200 0.269719
205 0.224409
210 0.214353
215 0.266104
220 0.259992
225 0.204947
230 0.22028
235 0.233206
240 0.269067
245 0.23679
250 0.230734
255 0.280488
260 0.244008
265 0.251823
270 0.243428
275 0.209737
280 0.186871
285 0.213525
290 0.278334
295 0.216834
300 0.215985
305 0.24177
310 0.192797
315 0.195747
320 0.233104
325 0.207851
330 0.222138
335 0.227188
340 0.262727
345 0.242943
350 0.216879
355 0.231946
360 0.34107
365 0.245115
370 0.339527
375 0.356776
380 0.276179
385 0.28423
390 0.344835
395 0.376352
400 0.524521
405 0.644495
410 10.4828
415 184.658
420 287.434
425 73.6181
430 10.0198
435 2.82106
440 1.88596
445 2.30982
450 2.52185
455 2.50559
460 2.68554
465 3.19601
470 3.72698
475 6.05619
480 7.10435
485 5.5487
490 5.0461
495 4.75321
500 4.35745
505 4.22655
510 4.01667
515 3.83025
520 3.65101
525 3.43008
530 3.08852
535 2.90154
540 2.73673
545 2.52534
550 2.28046
555 1.98212
560 1.88199
565 1.62394
570 1.40769
575 1.19016
580 0.959409
585 0.854505
590 0.692942
595 0.56803
600 0.468772
Ex : 428
200 0.271074
205 0.21976
210 0.232122
215 0.230791
220 0.215796
225 0.230556
230 0.269452
235 0.230821
240 0.281901
245 0.28288
250 0.286517
255 0.226147
260 0.242283
265 0.250535
270 0.237327
275 0.269912
280 0.258066
285 0.244566
290 0.217557
295 0.19613
300 0.28092
305 0.301017
310 0.219831
315 0.233151
320 0.210843
325 0.228678
330 0.242769
335 0.240609
340 0.308281
345 0.268703
350 0.287503
355 0.255712
360 0.225223
365 0.272924
370 0.31167
375 0.310991
380 0.275387
385 0.24834
390 0.283984
395 0.34627
400 0.394015
405 0.565104
410 0.736609
415 11.6806
420 191.507
425 301.639
430 78.9968
435 10.5764
440 2.80203
445 1.95104
450 2.41748
455 2.56157
460 2.56504
465 2.71608
470 2.95569
475 3.51763
480 5.09717
485 6.87991
490 5.60779
495 4.83268
500 4.45719
505 4.16217
510 3.71272
515 3.60466
520 3.37315
525 3.10656
530 2.90122
535 2.85561
540 2.55058
545 2.35211
550 2.08648
555 1.97469
560 1.70857
565 1.61065
570 1.38232
575 1.15966
580 0.9847
585 0.795968
590 0.757732
595 0.563144
600 0.702628
Ex : 433
200 0.2095
205 0.244189
210 0.250991
215 0.226153
220 0.266399
225 0.286455
230 0.25733
235 0.206175
240 0.30348
245 0.24354
250 0.253876
255 0.28843
260 0.321566
265 0.254851
270 0.218268
275 0.233527
280 0.214315
285 0.246193
290 0.240118
295 0.326377
300 0.209557
305 0.271393
310 0.22727
315 0.244946
320 0.230621
325 0.208927
330 0.308142
335 0.255618
340 0.275175
345 0.25752
350 0.280817
355 0.29786
360 0.259028
365 0.309754
370 0.257234
375 0.257454
380 0.213763
385 0.239757
390 0.295795
395 0.366168
400 0.380169
405 0.379706
410 0.530925
415 0.707714
420 12.7948
425 204.659
430 303.352
435 76.346
440 10.2072
445 2.66063
450 1.8673
455 2.50131
460 2.87437
465 2.75877
470 2.77353
475 2.94105
480 3.19975
485 4.40795
490 6.30193
495 5.53687
500 4.45509
505 4.24584
510 3.99499
515 3.44218
520 3.3651
525 3.15153
530 2.84717
535 2.66063
540 2.49575
545 2.25927
550 2.13784
555 1.92691
560 1.61125
565 1.39489
570 1.37247
575 1.15964
580 0.912325
585 0.827975
590 0.655026
595 0.560882
600 0.429801
Ex : 438
200 0.304738
205 0.225362
210 0.19925
215 0.218412
220 0.257793
225 0.244666
230 0.245496
235 0.294322
240 0.234756
245 0.224553
250 0.214472
255 0.311718
260 0.262152
265 0.250862
270 0.187489
275 0.289433
280 0.228752
285 0.251647
290 0.215065
295 0.217246
300 0.254747
305 0.306229
310 0.230593
315 0.288157
320 0.250073
325 0.237636
330 0.31702
335 0.243092
340 0.246157
345 0.254549
350 0.232843
355 0.226223
360 0.258936
365 0.351104
370 0.239538
375 0.322275
380 0.267592
385 0.262457
390 0.297868
395 0.282959
400 0.318188
405 0.440614
410 0.387172
415 0.519391
420 0.645735
425 12.2801
430 202.149
435 320.792
440 81.2074
445 10.7941
450 2.93064
455 2.10892
460 2.35216
465 2.81014
470 2.73405
475 2.7178
480 2.91785
485 3.07487
490 3.75077
495 5.61833
500 5.63902
505 4.48516
510 3.71982
515 3.34161
520 3.03621
525 2.78846
530 2.59312
535 2.52043
540 2.34124
545 2.25277
550 1.96061
555 1.83111
560 1.73042
565 1.52293
570 1.1813
575 1.1044
580 0.893633
585 0.823613
590 0.700336
595 0.616016
600 0.436598
Ex : 443
200 0.312054
205 0.255349
210 0.233204
215 0.236549
220 0.230042
225 0.231839
230 0.280458
235 0.261083
240 0.211062
245 0.2789
250 0.197396
255 0.219413
260 0.302331
265 0.260436
270 0.287613
275 0.280863
280 0.196089
285 0.283387
290 0.299839
295 0.253746
300 0.249809
305 0.243629
310 0.294927
315 0.223957
320 0.282058
325 0.267506
330 0.282759
335 0.273426
340 0.251451
345 0.25832
350 0.244975
355 0.284209
360 0.262577
365 0.244233
370 0.32799
375 0.311927
380 0.291389
385 0.268535
390 0.255765
395 0.223968
400 0.291062
405 0.32891
410 0.379029
415 0.402793
420 0.490986
425 0.781439
430 13.9334
435 216.709
440 327.818
445 82.0055
450 11.0075
455 2.99059
460 1.97458
465 2.40517
470 2.80195
475 2.66901
480 2.60563
485 2.80018
490 2.68247
495 3.21055
500 4.53666
505 5.38375
510 4.06791
515 3.48904
520 3.16704
525 2.88402
530 2.52343
535 2.45398
540 2.04498
545 2.00213
550 1.92106
555 1.65926
560 1.66677
565 1.48853
570 1.32537
575 1.03143
580 0.869621
585 0.716824
590 0.660347
595 0.624353
600 0.588253
Ex : 448
200 0.25508
205 0.257131
210 0.248122
215 0.241026
220 0.29177
225 0.332762
230 0.231293
235 0.334733
240 0.301863
245 0.233063
250 0.25377
255 0.241483
260 0.257719
265 0.220605
270 0.228015
275 0.304535
280 0.290087
285 0.274134
290 0.252746
295 0.197407
300 0.249752
305 0.250135
310 0.188052
315 0.265138
320 0.268486
325 0.233043
330 0.266355
335 0.247208
340 0.239212
345 0.24103
350 0.227489
355 0.260393
360 0.337218
365 0.299232
370 0.281252
375 0.298122
380 0.293717
385 0.333308
390 0.268911
395 0.293571
400 0.317915
405 0.315039
410 0.291152
415 0.335331
420 0.456897
425 0.487978
430 0.698075
435 14.3976
440 233.698
445 350.931
450 88.903
455 11.7921
460 3.17346
465 2.03001
470 2.31815
475 2.72556
480 2.62097
485 2.45737
490 2.52616
495 2.61692
500 2.54446
505 3.56582
510 4.97262
515 4.34388
520 3.273
525 2.75727
530 2.6626
535 2.25238
540 2.11759
545 1.90394
550 1.76845
555 1.62117
560 1.43027
565 1.23343
570 1.21201
575 1.02967
580 0.98821
585 0.789569
590 0.642559
595 0.561668
600 0.378671
Ex : 453
200 0.274996
205 0.247173
210 0.214188
215 0.243273
220 0.253371
225 0.263629
230 0.192215
235 0.225949
240 0.249653
245 0.231729
250 0.27716
255 0.215378
260 0.252715
265 0.269605
270 0.277389
275 0.28406
280 0.245477
285 0.235735
290 0.219341
295 0.265502
300 0.289459
305 0.23424
310 0.266131
315 0.21477
320 0.242177
325 0.184896
330 0.226231
335 0.229406
340 0.254717
345 0.235141
350 0.223409
355 0.229895
360 0.263253
365 0.305647
370 0.283721
375 0.285252
380 0.277856
385 0.269865
390 0.308684
395 0.289114
400 0.334549
405 0.286461
410 0.332018
415 0.296522
420 0.34325
425 0.404028
430 0.439407
435 0.592231
440 15.174
445 250.554
450 361.688
455 85.9324
460 11.3958
465 2.89213
470 1.96154
475 2.03153
480 2.43688
485 2.59591
490 2.22445
495 2.2938
500 2.21686
505 2.43962
510 2.75725
515 4.34631
520 4.21629
525 2.87341
530 2.47855
535 2.29583
540 1.99418
545 1.70547
550 1.72268
555 1.55764
560 1.43144
565 1.30648
570 1.06462
575 0.950416
580 0.818391
585 0.666636
590 0.59208
595 0.523207
600 0.278213
Ex : 458
200 0.225105
205 0.253859
210 0.222739
215 0.223321
220 0.270254
225 0.216199
230 0.237297
235 0.288108
240 0.240605
245 0.229739
250 0.172899
255 0.207677
260 0.277416
265 0.23819
270 0.222581
275 0.264818
280 0.269315
285 0.236107
290 0.254788
295 0.240351
300 0.268927
305 0.306721
310 0.336915
315 0.236089
320 0.275542
325 0.226711
330 0.279799
335 0.311881
340 0.238013
345 0.215247
350 0.298306
355 0.285064
360 0.226803
365 0.209358
370 0.240041
375 0.174721
380 0.287603
385 0.269234
390 0.276413
395 0.275534
400 0.302348
405 0.301056
410 0.275776
415 0.374912
420 0.30961
425 0.414545
430 0.516935
435 0.560509
440 0.637833
445 16.4588
450 257.361
455 382.264
460 91.9427
465 12.2413
470 2.99951
475 1.9148
480 2.06457
485 2.23398
490 2.20755
495 2.05657
500 2.04021
505 1.93965
510 2.06071
515 2.27915
520 3.52335
525 4.22884
530 2.95477
535 2.41861
540 2.14968
545 1.96379
550 1.68867
555 1.57011
560 1.41164
565 1.2491
570 1.01976
575 0.940043
580 0.909953
585 0.731173
590 0.617229
595 0.486823
600 0.317977
Ex : 463
200 0.224458
205 0.261283
210 0.295407
215 0.26318
220 0.23935
225 0.235336
230 0.237198
235 0.217569
240 0.294204
245 0.263757
250 0.272288
255 0.204106
260 0.234687
265 0.214616
270 0.225441
275 0.273593
280 0.258782
285 0.237106
290 0.267513
295 0.227902
300 0.212483
305 0.210454
310 0.193616
315 0.212632
320 0.23581
325 0.232813
330 0.235552
335 0.281797
340 0.226527
345 0.252382
350 0.254079
355 0.289612
360 0.278861
365 0.299657
370 0.285188
375 0.218102
380 0.273745
385 0.299948
390 0.27965
395 0.238509
400 0.285762
405 0.29742
410 0.26964
415 0.284345
420 0.29925
425 0.336495
430 0.379454
435 0.437287
440 0.566546
445 0.764348
450 15.9777
455 261.956
460 396.997
465 96.7988
470 12.6815
475 3.13681
480 1.90541
485 1.80494
490 2.10586
495 2.12814
500 1.86169
505 1.70703
510 1.86591
515 1.78799
520 1.99318
525 2.79584
530 3.87166
535 3.0962
540 2.21091
545 2.0157
550 1.88749
555 1.67558
560 1.38175
565 1.1532
570 1.08058
575 0.921674
580 0.779216
585 0.71567
590 0.638361
595 0.539175
600 0.291215
Ex : 468
200 0.239491
205 0.20679
210 0.231507
215 0.225196
220 0.262203
225 0.200906
230 0.253901
235 0.227096
240 0.198541
245 0.220723
250 0.236181
255 0.192961
260 0.166874
265 0.19934
270 0.182317
275 0.238468
280 0.254936
285 0.227758
290 0.161505
295 0.188141
300 0.204318
305 0.210891
310 0.194958
315 0.262543
320 0.180905
325 0.20014
330 0.206899
335 0.249531
340 0.223333
345 0.245534
350 0.2154
355 0.252193
360 0.229162
365 0.281427
370 0.264342
375 0.249218
380 0.278484
385 0.240969
390 0.271322
395 0.302382
400 0.294685
405 0.262645
410 0.337382
415 0.27957
420 0.259126
425 0.304399
430 0.312723
435 0.365917
440 0.430655
445 0.544098
450 0.698888
455 17.2126
460 266.229
465 418.29
470 101.625
475 13.1307
480 2.9829
485 1.79394
490 1.58406
495 1.82131
500 1.72745
505 1.69547
510 1.67765
515 1.64288
520 1.64845
525 1.86441
530 2.14293
535 3.22794
540 3.35326
545 2.26232
550 1.88734
555 1.75041
560 1.49761
565 1.17666
570 1.08991
575 0.992741
580 0.745725
585 0.700529
590 0.653951
595 0.539459
600 1.15537
Ex : 473
200 0.212067
205 0.307396
210 0.25479
215 0.21476
220 0.204082
225 0.237386
230 0.243647
235 0.199346
240 0.200615
245 0.243698
250 0.228685
255 0.225231
260 0.261058
265 0.196085
270 0.20951
275 0.196345
280 0.186502
285 0.223115
290 0.243935
295 0.280714
300 0.221122
305 0.270138
310 0.201346
315 0.225846
320 0.253253
325 0.24945
330 0.266265
335 0.303653
340 0.285325
345 0.232517
350 0.276432
355 0.26327
360 0.241164
365 0.31313
370 0.258851
375 0.224101
380 0.234869
385 0.23239
390 0.251972
395 0.287195
400 0.26939
405 0.226155
410 0.242947
415 0.275865
420 0.271787
425 0.277635
430 0.255857
435 0.3422
440 0.378922
445 0.426847
450 0.562325
455 0.720631
460 20.4466
465 295.084
470 408.412
475 94.7419
480 12.3268
485 2.90782
490 1.66619
495 1.42321
500 1.76208
505 1.84669
510 1.71394
515 1.60748
520 1.62671
525 1.6799
530 1.75387
535 1.9378
540 2.94443
545 3.31196
550 2.40382
555 1.78803
560 1.63425
565 1.43314
570 1.1497
575 0.979519
580 0.854522
585 0.665593
590 0.577196
595 0.517234
600 0.379909
Ex : 478
200 0.29316
205 0.280536
210 0.30396
215 0.23981
220 0.284947
225 0.24217
230 0.220629
235 0.264848
240 0.206774
245 0.243628
250 0.327182
255 0.282092
260 0.226726
265 0.354036
270 0.265664
275 0.280159
280 0.287595
285 0.264083
290 0.233023
295 0.241863
300 0.236215
305 0.290181
310 0.269219
315 0.284443
320 0.275238
325 0.288556
330 0.279819
335 0.249011
340 0.216605
345 0.309583
350 0.25556
355 0.34291
360 0.337953
365 0.223778
370 0.282463
375 0.296214
380 0.367742
385 0.312865
390 0.307736
395 0.305065
400 0.252194
405 0.337234
410 0.305952
415 0.344583
420 0.300224
425 0.290356
430 0.384988
435 0.448395
440 0.404064
445 0.410333
450 0.529284
455 0.605384
460 0.950846
465 22.1106
470 294.521
475 407.054
480 98.5334
485 12.7388
490 2.80439
495 1.57422
500 1.44161
505 1.71444
510 1.76756
515 1.64542
520 1.58835
525 1.5784
530 1.74055
535 1.61257
540 1.81155
545 2.27318
550 3.03627
555 2.66408
560 1.78716
565 1.40701
570 1.34412
575 1.11019
580 0.935361
585 0.830473
590 0.632734
595 0.561686
600 0.646189
Ex : 483
200 0.265626
205 0.299688
210 0.215519
215 0.241514
220 0.293861
225 0.314872
230 0.222612
235 0.244068
240 0.240248
245 0.290965
250 0.32764
255 0.251592
260 0.385496
265 0.307207
270 0.265772
275 0.274902
280 0.262547
285 0.253621
290 0.376735
295 0.281857
300 0.294088
305 0.294391
310 0.290557
315 0.291566
320 0.322259
325 0.311735
330 0.282762
335 0.319188
340 0.260022
345 0.259346
350 0.277659
355 0.243691
360 0.256846
365 0.276316
370 0.313663
375 0.257688
380 0.266877
385 0.321267
390 0.307095
395 0.307808
400 0.283563
405 0.303602
410 0.287354
415 0.347608
420 0.291661
425 0.349894
430 0.375158
435 0.41387
440 0.342703
445 0.387818
450 0.440663
455 0.450434
460 0.637245
465 0.927254
470 17.578
475 291.904
480 437.709
485 104.607
490 13.2785
495 2.76249
500 1.49246
505 1.24734
510 1.65954
515 1.76531
520 1.82685
525 1.71134
530 1.72927
535 1.6376
540 1.63622
545 1.70346
550 1.69355
555 2.62302
560 2.68337
565 1.82486
570 1.40248
575 1.17798
580 1.06984
585 0.766199
590 0.720226
595 0.597516
600 0.474569
Ex : 488
200 0.373565
205 0.339874
210 0.308587
215 0.332768
220 0.340445
225 0.254575
230 0.37539
235 0.371948
240 0.277778
245 0.336486
250 0.331077
255 0.282745
260 0.332279
265 0.244081
270 0.375673
275 0.295025
280 0.306573
285 0.302355
290 0.291154
295 0.308229
300 0.369827
305 0.298297
310 0.390082
315 0.375754
320 0.328963
325 0.401607
330 0.262988
335 0.351756
340 0.312274
345 0.302745
350 0.351185
355 0.301594
360 0.291279
365 0.315551
370 0.371224
375 0.360436
380 0.370822
385 0.370611
390 0.385152
395 0.297323
400 0.418452
405 0.338937
410 0.379122
415 0.428196
420 0.401444
425 0.285264
430 0.423282
435 0.454736
440 0.41676
445 0.447135
450 0.530182
455 0.517772
460 0.508002
465 0.646282
470 0.907926
475 20.2738
480 313.821
485 430.786
490 100.655
495 12.7625
500 2.71142
505 1.51833
510 1.32754
515 1.68853
520 1.81166
525 1.86493
530 1.67603
535 1.63428
540 1.58397
545 1.61129
550 1.50904
555 1.47311
560 2.19824
565 2.61999
570 1.92589
575 1.27459
580 1.12153
585 0.960565
590 0.718058
595 0.625725
600 0.86208
Ex : 493
200 0.238796
205 0.26174
210 0.285989
215 0.299489
220 0.265952
225 0.292717
230 0.306942
235 0.327572
240 0.343672
245 0.329796
250 0.287432
255 0.343617
260 0.289792
265 0.365176
270 0.317046
275 0.324798
280 0.322885
285 0.383556
290 0.325117
295 0.305014
300 0.252758
305 0.276509
310 0.244308
315 0.271934
320 0.318569
325 0.406076
330 0.334611
335 0.301486
340 0.31947
345 0.371241
350 0.291808
355 0.26785
360 0.240921
365 0.322252
370 0.33459
375 0.356602
380 0.387852
385 0.392913
390 0.334772
395 0.342555
400 0.312792
405 0.281583
410 0.358424
415 0.300966
420 0.314206
425 0.375254
430 0.440157
435 0.391983
440 0.314741
445 0.393701
450 0.339466
455 0.418407
460 0.46912
465 0.623184
470 0.666781
475 0.793555
480 19.508
485 313.419
490 456.784
495 104.947
500 13.0869
505 2.76668
510 1.54367
515 1.3789
520 1.52334
525 1.81226
530 1.96159
535 1.72897
540 1.56753
545 1.45493
550 1.41112
555 1.30953
560 1.33265
565 1.59843
570 2.25634
575 1.75886
580 1.08373
585 0.865505
590 0.725588
595 0.70559
600 0.526884
Ex : 498
200 0.292407
205 0.364629
210 0.290652
215 0.39771
220 0.265653
225 0.314336
230 0.295384
235 0.336846
240 0.425216
245 0.366706
250 0.322095
255 0.46347
260 0.367417
265 0.323562
270 0.321688
275 0.452911
280 0.369312
285 0.274743
290 0.368623
295 0.409504
300 0.330276
305 0.376149
310 0.348194
315 0.314076
320 0.3295
325 0.332142
330 0.25574
335 0.435645
340 0.415611
345 0.396483
350 0.25827
355 0.365908
360 0.308941
365 0.34511
370 0.371811
375 0.354596
380 0.357459
385 0.385013
390 0.465081
395 0.412954
400 0.413939
405 0.391416
410 0.375075
415 0.374101
420 0.3527
425 0.322632
430 0.372047
435 0.356666
440 0.403806
445 0.431589
450 0.40453
455 0.393703
460 0.431768
465 0.438259
470 0.570221
475 0.662342
480 0.852204
485 22.5513
490 326.236
495 441.085
500 102.055
505 13.0662
510 2.81302
515 1.63259
520 1.52582
525 1.726
530 1.79911
535 1.81383
540 1.6432
545 1.48223
550 1.43676
555 1.34888
560 1.20145
565 1.21765
570 1.17996
575 1.80344
580 1.71983
585 1.27013
590 0.830033
595 0.685826
600 0.745651
Ex : 503
200 0.331242
205 0.357285
210 0.368092
215 0.283742
220 0.450735
225 0.424652
230 0.393278
235 0.384322
240 0.354876
245 0.363203
250 0.428251
255 0.431845
260 0.41621
265 0.349908
270 0.309925
275 0.331539
280 0.344788
285 0.369722
290 0.297056
295 0.316791
300 0.398278
305 0.427343
310 0.444772
315 0.435261
320 0.421333
325 0.371794
330 0.365134
335 0.298962
340 0.344905
345 0.351361
350 0.445536
355 0.388964
360 0.327257
365 0.324468
370 0.375077
375 0.42999
380 0.334251
385 0.41801
390 0.287838
395 0.36337
400 0.310681
405 0.428733
410 0.385066
415 0.313371
420 0.410858
425 0.458134
430 0.390855
435 0.397079
440 0.369726
445 0.349661
450 0.427273
455 0.565449
460 0.515279
465 0.444125
470 0.491493
475 0.604803
480 0.654208
485 1.03607
490 20.7859
495 321.122
500 445.033
505 104.033
510 13.3371
515 2.89506
520 1.67437
525 1.6242
530 1.62571
535 1.76281
540 1.83645
545 1.62643
550 1.47787
555 1.234
560 1.24154
565 1.15706
570 1.08944
575 1.14026
580 1.36151
585 1.66152
590 1.21267
595 0.742141
600 0.786728
Ex : 508
200 0.378758
205 0.362105
210 0.444215
215 0.346609
220 0.401697
225 0.351528
230 0.303223
235 0.407644
240 0.406899
245 0.452689
250 0.423814
255 0.315429
260 0.283744
265 0.35075
270 0.351159
275 0.344965
280 0.371608
285 0.358499
290 0.431808
295 0.357008
300 0.347072
305 0.426076
310 0.39879
315 0.366543
320 0.313967
325 0.389587
330 0.401512
335 0.419773
340 0.374489
345 0.381097
350 0.404575
355 0.356117
360 0.369564
365 0.440707
370 0.396691
375 0.396307
380 0.411458
385 0.331398
390 0.336244
395 0.374205
400 0.442027
405 0.351777
410 0.469952
415 0.40092
420 0.341441
425 0.373124
430 0.398162
435 0.410481
440 0.413388
445 0.420982
450 0.414604
455 0.506485
460 0.526024
465 0.484345
470 0.614281
475 0.601854
480 0.64951
485 0.699975
490 0.864768
495 21.8112
500 316.956
505 441.538
510 107.212
515 13.8198
520 2.98602
525 1.9297
530 1.74067
535 1.60257
540 1.69911
545 1.61578
550 1.59803
555 1.337
560 1.09176
565 1.19961
570 1.08336
575 0.948128
580 0.91359
585 1.05216
590 1.27888
595 1.19031
600 0.455351
Ex : 513
200 0.320408
205 0.416767
210 0.450978
215 0.382913
220 0.437977
225 0.395037
230 0.416497
235 0.388268
240 0.42802
245 0.39021
250 0.307891
255 0.394963
260 0.328248
265 0.407452
270 0.39345
275 0.261824
280 0.411932
285 0.423164
290 0.428247
295 0.407188
300 0.352049
305 0.347093
310 0.409782
315 0.350543
320 0.40614
325 0.399888
330 0.385956
335 0.406429
340 0.287016
345 0.417047
350 0.37748
355 0.354858
360 0.40607
365 0.361547
370 0.454048
375 0.387656
380 0.421907
385 0.437647
390 0.402741
395 0.552079
400 0.432371
405 0.394123
410 0.46704
415 0.413766
420 0.400792
425 0.455775
430 0.447108
435 0.381101
440 0.398323
445 0.448929
450 0.472028
455 0.406542
460 0.460302
465 0.464623
470 0.489301
475 0.584154
480 0.699554
485 0.532572
490 0.694832
495 0.990385
500 20.8978
505 320.252
510 455.255
515 110.602
520 14.2469
525 3.0472
530 1.84151
535 1.49306
540 1.37689
545 1.62791
550 1.50439
555 1.36821
560 1.32436
565 1.27335
570 1.01461
575 0.943123
580 0.96574
585 0.823855
590 0.797816
595 1.01879
600 1.37363
Ex : 518
200 0.391908
205 0.394369
210 0.398349
215 0.332475
220 0.359569
225 0.377774
230 0.42594
235 0.408038
240 0.365409
245 0.398914
250 0.39726
255 0.398034
260 0.328567
265 0.425255
270 0.38913
275 0.414323
280 0.430467
285 0.370229
290 0.362539
295 0.379966
300 0.456104
305 0.411864
310 0.46461
315 0.427419
320 0.373382
325 0.403887
330 0.398746
335 0.393074
340 0.37297
345 0.390998
350 0.385316
355 0.303068
360 0.381033
365 0.337214
370 0.384338
375 0.353267
380 0.397363
385 0.451547
390 0.344395
395 0.399491
400 0.318581
405 0.408756
410 0.461892
415 0.404266
420 0.429993
425 0.465695
430 0.397394
435 0.424216
440 0.430324
445 0.487782
450 0.465661
455 0.583185
460 0.432208
465 0.519383
470 0.532341
475 0.51769
480 0.542747
485 0.52578
490 0.549564
495 0.683868
500 0.99294
505 20.8527
510 309.32
515 447.704
520 110.512
525 14.3388
530 2.93162
535 1.83292
540 1.56547
545 1.44585
550 1.33892
555 1.28917
560 1.14452
565 1.21183
570 1.21154
575 0.909784
580 0.870522
585 0.745662
590 0.745326
595 0.716455
600 0.615993
Ex : 523
200 0.346757
205 0.355815
210 0.453057
215 0.485671
220 0.345422
225 0.415263
230 0.375746
235 0.406041
240 0.360018
245 0.382692
250 0.300753
255 0.345498
260 0.449488
265 0.418207
270 0.367494
275 0.397851
280 0.434711
285 0.458101
290 0.493697
295 0.512436
300 0.48129
305 0.386954
310 0.369502
315 0.381535
320 0.329826
325 0.399507
330 0.442754
335 0.497696
340 0.403007
345 0.502666
350 0.480949
355 0.396744
360 0.321389
365 0.277211
370 0.440161
375 0.360471
380 0.386764
385 0.401719
390 0.4673
395 0.434975
400 0.497687
405 0.360109
410 0.468864
415 0.399371
420 0.404959
425 0.464419
430 0.55429
435 0.383019
440 0.510308
445 0.458002
450 0.535887
455 0.588994
460 0.419045
465 0.491128
470 0.533137
475 0.479935
480 0.557185
485 0.465987
490 0.469565
495 0.624666
500 0.723523
505 0.97194
510 18.7102
515 293.219
520 435.788
525 113.532
530 14.5443
535 2.9407
540 1.48576
545 1.25646
550 1.33721
555 1.31171
560 1.15304
565 1.35846
570 1.05658
575 0.947873
580 0.819921
585 0.733454
590 0.765501
595 0.777614
600 0.595569
Ex : 528
200 0.327425
205 0.35105
210 0.408167
215 0.400058
220 0.350257
225 0.384172
230 0.526442
235 0.462963
240 0.355198
245 0.387078
250 0.416687
255 0.414951
260 0.379973
265 0.384187
270 0.403102
275 0.349793
280 0.417864
285 0.353167
290 0.417335
295 0.363478
300 0.350646
305 0.464855
310 0.440017
315 0.383831
320 0.38567
325 0.331804
330 0.41717
335 0.38683
340 0.39183
345 0.497976
350 0.600256
355 0.499234
360 0.479612
365 0.369155
370 0.490575
375 0.472987
380 0.434784
385 0.427224
390 0.503545
395 0.513849
400 0.356112
405 0.398539
410 0.45045
415 0.528464
420 0.410491
425 0.43053
430 0.421498
435 0.39618
440 0.462495
445 0.478079
450 0.392559
455 0.462181
460 0.530609
465 0.516846
470 0.567671
475 0.454477
480 0.538346
485 0.516394
490 0.615129
495 0.645281
500 0.620774
505 0.793415
510 1.04651
515 17.8988
520 290.203
525 431.992
530 109.393
535 14.0247
540 2.742
545 1.60895
550 1.30704
555 1.17754
560 1.10547
565 1.06896
570 0.854557
575 0.939508
580 0.775066
585 0.818582
590 0.857153
595 0.679093
600 0.297605
Ex : 533
200 0.417892
205 0.608503
210 0.39089
215 0.507182
220 0.379054
225 0.328556
230 0.401619
235 0.42152
240 0.347718
245 0.370444
250 0.344339
255 0.325332
260 0.430849
265 0.363394
270 0.364505
275 0.382735
280 0.517522
285 0.388228
290 0.410636
295 0.408497
300 0.340673
305 0.295456
310 0.36726
315 0.39896
320 0.404264
325 0.387618
330 0.353139
335 0.469045
340 0.448611
345 0.362435
350 0.385818
355 0.434891
360 0.450434
365 0.35705
370 0.511362
375 0.449396
380 0.35251
385 0.373336
390 0.462965
395 0.412008
400 0.433751
405 0.443281
410 0.413479
415 0.413774
420 0.388796
425 0.376524
430 0.57046
435 0.432767
440 0.428753
445 0.419396
450 0.464927
455 0.397407
460 0.566527
465 0.602651
470 0.467469
475 0.486762
480 0.609405
485 0.511664
490 0.482178
495 0.665978
500 0.637887
505 0.561604
510 0.776498
515 1.03125
520 17.6305
525 282.775
530 434.355
535 114.032
540 14.4656
545 2.94358
550 1.52593
555 1.25536
560 1.06288
565 1.14808
570 1.0697
575 0.889268
580 0.86731
585 0.783844
590 0.672352
595 0.708858
600 0.622516
Ex : 538
200 0.444617
205 0.477881
210 0.490398
215 0.426978
220 0.422129
225 0.443505
230 0.403396
235 0.438264
240 0.456471
245 0.435425
250 0.376438
255 0.450642
260 0.486771
265 0.543219
270 0.447411
275 0.347193
280 0.408855
285 0.405088
290 0.41225
295 0.377795
300 0.37948
305 0.496949
310 0.445303
315 0.462314
320 0.345
325 0.385457
330 0.511277
335 0.404314
340 0.488108
345 0.39771
350 0.427411
355 0.316329
360 0.422436
365 0.38304
370 0.414224
375 0.493584
380 0.372166
385 0.374271
390 0.49605
395 0.452892
400 0.419095
405 0.50549
410 0.458764
415 0.453911
420 0.468446
425 0.380088
430 0.403503
435 0.526142
440 0.532157
445 0.470618
450 0.501682
455 0.41457
460 0.542068
465 0.508163
470 0.510138
475 0.441316
480 0.430688
485 0.533706
490 0.456582
495 0.476893
500 0.500574
505 0.595321
510 0.671981
515 0.907935
520 1.04596
525 15.4952
530 278.027
535 449.545
540 119.242
545 14.9505
550 2.85958
555 1.43103
560 1.29882
565 1.12063
570 0.822931
575 0.87633
580 0.780849
585 0.759336
590 0.785283
595 0.721057
600 0.0820535
Ex : 543
200 0.418568
205 0.477485
210 0.498917
215 0.406531
220 0.466789
225 0.469152
230 0.346403
235 0.448308
240 0.381441
245 0.429615
250 0.438145
255 0.395899
260 0.464819
265 0.333209
270 0.49861
275 0.479952
280 0.480711
285 0.541193
290 0.489586
295 0.417242
300 0.458794
305 0.517084
310 0.393584
315 0.377631
320 0.497824
325 0.389879
330 0.470245
335 0.429419
340 0.399085
345 0.417181
350 0.4889
355 0.35365
360 0.462455
365 0.517905
370 0.483192
375 0.439097
380 0.424777
385 0.424839
390 0.400676
395 0.433769
400 0.489693
405 0.375832
410 0.460675
415 0.400598
420 0.374947
425 0.454912
430 0.477192
435 0.43242
440 0.541672
445 0.49037
450 0.575696
455 0.444706
460 0.587328
465 0.566703
470 0.445888
475 0.43814
480 0.488146
485 0.521256
490 0.55667
495 0.581043
500 0.46395
505 0.596044
510 0.70221
515 0.729054
520 0.706946
525 1.05312
530 13.9114
535 256.595
540 430.245
545 118.762
550 14.9923
555 2.71965
560 1.26115
565 1.11091
570 0.973335
575 0.883091
580 0.779679
585 0.718894
590 0.742817
595 0.755476
600 0.102083
Ex : 548
200 0.354314
205 0.437579
210 0.31624
215 0.401474
220 0.469321
225 0.5109
230 0.493952
235 0.403153
240 0.452276
245 0.395827
250 0.383388
255 0.413522
260 0.442605
265 0.508546
270 0.55602
275 0.377189
280 0.426214
285 0.485359
290 0.555159
295 0.528067
300 0.53521
305 0.375441
310 0.478527
315 0.486509
320 0.56007
325 0.463335
330 0.425142
335 0.440703
340 0.408712
345 0.427987
350 0.421352
355 0.49052
360 0.50784
365 0.402949
370 0.443508
375 0.444972
380 0.483243
385 0.482093
390 0.334805
395 0.502758
400 0.590926
405 0.494619
410 0.483903
415 0.431036
420 0.549267
425 0.58226
430 0.537213
435 0.395293
440 0.520723
445 0.569045
450 0.531954
455 0.464249
460 0.517887
465 0.496049
470 0.558246
475 0.435412
480 0.453952
485 0.442127
490 0.510559
495 0.519538
500 0.497462
505 0.563296
510 0.552006
515 0.56276
520 0.726512
525 0.851983
530 0.955847
535 15.7127
540 259.723
545 414.305
550 116.115
555 14.5405
560 2.64374
565 1.21991
570 0.970657
575 0.794684
580 0.881913
585 0.736845
590 0.783863
595 0.655157
600 0.661664
Ex : 553
200 0.617548
205 0.408235
210 0.380066
215 0.473151
220 0.558898
225 0.42957
230 0.459327
235 0.534233
240 0.424048
245 0.472544
250 0.53298
255 0.525596
260 0.432234
265 0.455625
270 0.434323
275 0.420755
280 0.608439
285 0.575289
290 0.490696
295 0.480118
300 0.569944
305 0.459136
310 0.466175
315 0.520247
320 0.468944
325 0.491293
330 0.542988
335 0.483042
340 0.448135
345 0.426217
350 0.602686
355 0.52597
360 0.493542
365 0.453493
370 0.448485
375 0.406446
380 0.500075
385 0.370135
390 0.406842
395 0.471872
400 0.497346
405 0.472302
410 0.51955
415 0.401669
420 0.499842
425 0.449047
430 0.663682
435 0.574785
440 0.575041
445 0.530787
450 0.465535
455 0.447437
460 0.596683
465 0.517977
470 0.476928
475 0.414495
480 0.523902
485 0.530499
490 0.480323
495 0.472574
500 0.448086
505 0.466857
510 0.463796
515 0.588409
520 0.542589
525 0.663947
530 0.762325
535 1.00833
540 13.3208
545 243.62
550 417.446
555 117.686
560 14.7054
565 2.6992
570 1.11439
575 0.931658
580 0.792687
585 0.724207
590 0.766839
595 0.678568
600 0.737638
Ex : 558
200 0.426715
205 0.555122
210 0.521694
215 0.507683
220 0.446122
225 0.542582
230 0.414733
235 0.392104
240 0.453756
245 0.492967
250 0.386953
255 0.543224
260 0.512357
265 0.481207
270 0.573796
275 0.519119
280 0.374846
285 0.532887
290 0.594231
295 0.5292
300 0.453176
305 0.543639
310 0.524966
315 0.593812
320 0.476046
325 0.41848
330 0.390018
335 0.452212
340 0.394005
345 0.452293
350 0.698201
355 0.426505
360 0.485787
365 0.567602
370 0.623057
375 0.452184
380 0.56614
385 0.574154
390 0.346349
395 0.498408
400 0.401469
405 0.481496
410 0.561985
415 0.495514
420 0.615057
425 0.478553
430 0.521491
435 0.489078
440 0.546922
445 0.516281
450 0.488198
455 0.571739
460 0.571222
465 0.499076
470 0.472161
475 0.609164
480 0.530501
485 0.599613
490 0.477055
495 0.496394
500 0.424028
505 0.448424
510 0.595115
515 0.475381
520 0.618714
525 0.608389
530 0.653525
535 0.687742
540 0.942205
545 12.7116
550 235.485
555 402.744
560 116.36
565 14.5869
570 2.49254
575 1.02712
580 0.858009
585 0.71767
590 0.723986
595 0.869508
600 0.838428
Ex : 563
200 0.653619
205 0.543924
210 0.487134
215 0.416496
220 0.532093
225 0.474902
230 0.467643
235 0.425961
240 0.486475
245 0.41486
250 0.421563
255 0.505575
260 0.471075
265 0.513784
270 0.439144
275 0.532931
280 0.571657
285 0.574058
290 0.468451
295 0.440164
300 0.423166
305 0.519524
310 0.529691
315 0.544312
320 0.50147
325 0.441111
330 0.558752
335 0.499808
340 0.533883
345 0.600018
350 0.553697
355 0.526121
360 0.467171
365 0.50307
370 0.508236
375 0.431536
380 0.454638
385 0.538199
390 0.524708
395 0.556838
400 0.446822
405 0.505557
410 0.648772
415 0.529422
420 0.527422
425 0.512199
430 0.455601
435 0.547733
440 0.56687
445 0.508998
450 0.500443
455 0.547791
460 0.633877
465 0.589122
470 0.561499
475 0.625294
480 0.67255
485 0.550369
490 0.646056
495 0.738208
500 0.742457
505 0.573756
510 0.527869
515 0.562971
520 0.410287
525 0.541938
530 0.608612
535 0.582185
540 0.689399
545 0.954413
550 12.2988
555 225.955
560 383.549
565 111.898
570 14.0142
575 2.44303
580 0.882588
585 0.860687
590 0.727556
595 0.794088
600 1.5366
Ex : 568
200 0.491927
205 0.542816
210 0.57447
215 0.469038
220 0.491672
225 0.477566
230 0.491667
235 0.507372
240 0.474199
245 0.568445
250 0.618451
255 0.547483
260 0.58984
265 0.601543
270 0.485154
275 0.450085
280 0.505499
285 0.461082
290 0.413236
295 0.481028
300 0.482676
305 0.462989
310 0.511099
315 0.48022
320 0.652609
325 0.518572
330 0.511761
335 0.519521
340 0.502749
345 0.618864
350 0.64909
355 0.573421
360 0.446924
365 0.496056
370 0.470603
375 0.426509
380 0.514855
385 0.597078
390 0.583728
395 0.468973
400 0.566275
405 0.48783
410 0.532955
415 0.557794
420 0.494438
425 0.408973
430 0.543142
435 0.586523
440 0.5232
445 0.67112
450 0.569459
455 0.74637
460 0.567826
465 0.588536
470 0.730644
475 0.631568
480 0.490284
485 0.564728
490 0.544429
495 0.427972
500 0.700269
505 0.793897
510 0.707238
515 0.667235
520 0.568197
525 0.642526
530 0.633504
535 0.658724
540 0.757307
545 0.762809
550 1.02669
555 9.74908
560 207.162
565 376.431
570 113.908
575 14.3235
580 2.63578
585 0.942493
590 0.915756
595 0.708055
600 0.317727
Ex : 573
200 0.461047
205 0.478195
210 0.57919
215 0.705868
220 0.616577
225 0.60074
230 0.444733
235 0.441166
240 0.584445
245 0.552795
250 0.462509
255 0.50085
260 0.578638
265 0.542129
270 0.573077
275 0.594404
280 0.440511
285 0.399877
290 0.477757
295 0.421923
300 0.516833
305 0.574541
310 0.543578
315 0.534883
320 0.553324
325 0.583843
330 0.417485
335 0.550325
340 0.556252
345 0.536034
350 0.677895
355 0.476787
360 0.583849
365 0.524789
370 0.555371
375 0.479388
380 0.65378
385 0.567989
390 0.544591
395 0.567485
400 0.633083
405 0.617744
410 0.538381
415 0.604694
420 0.542542
425 0.691656
430 0.556375
435 0.474183
440 0.494727
445 0.615408
450 0.472851
455 0.595782
460 0.592007
465 0.637449
470 0.572901
475 0.608782
480 0.560086
485 0.52754
490 0.533605
495 0.589678
500 0.50229
505 0.655145
510 0.778157
515 0.735542
520 0.551709
525 0.646274
530 0.531186
535 0.616951
540 0.66416
545 0.713043
550 0.91925
555 0.890427
560 7.98436
565 181.556
570 348.972
575 107.873
580 13.6603
585 2.36884
590 0.898634
595 0.822795
600 0.197129
Ex : 578
200 0.69711
205 0.467865
210 0.601476
215 0.511867
220 0.544185
225 0.56954
230 0.382098
235 0.564457
240 0.531752
245 0.586401
250 0.439534
255 0.42356
260 0.551219
265 0.631822
270 0.579446
275 0.601902
280 0.484824
285 0.513819
290 0.48797
295 0.515646
300 0.586409
305 0.521696
310 0.48353
315 0.500444
320 0.553242
325 0.452529
330 0.621485
335 0.533
340 0.566575
345 0.618851
350 0.479698
355 0.617999
360 0.505453
365 0.713053
370 0.608702
375 0.665427
380 0.608241
385 0.495883
390 0.502413
395 0.429009
400 0.614471
405 0.40259
410 0.556751
415 0.609539
420 0.709044
425 0.542117
430 0.539993
435 0.632946
440 0.653824
445 0.611481
450 0.50756
455 0.462994
460 0.519975
465 0.581714
470 0.648058
475 0.609673
480 0.638795
485 0.717467
490 0.750653
495 0.640116
500 0.571352
505 0.642774
510 0.720225
515 0.621492
520 0.706808
525 0.673464
530 0.69779
535 0.619825
540 0.668621
545 0.661418
550 0.60859
555 0.591761
560 0.885362
565 7.66249
570 163.772
575 312.657
580 95.807
585 11.9774
590 1.98489
595 1.02311
600 1.19586
Ex : 583
200 0.564415
205 0.46107
210 0.505142
215 0.560308
220 0.663145
225 0.641174
230 0.490859
235 0.550914
240 0.481008
245 0.496361
250 0.485047
255 0.419397
260 0.678421
265 0.514349
270 0.525862
275 0.593113
280 0.735446
285 0.604686
290 0.714103
295 0.631451
300 0.531821
305 0.421571
310 0.590166
315 0.561527
320 0.618621
325 0.527882
330 0.704297
335 0.570873
340 0.442089
345 0.408382
350 0.464664
355 0.565335
360 0.626493
365 0.5481
370 0.464264
375 0.607161
380 0.642683
385 0.517798
390 0.618319
395 0.557421
400 0.604956
405 0.487819
410 0.535998
415 0.637423
420 0.651285
425 0.748672
430 0.714034
435 0.562862
440 0.548692
445 0.686113
450 0.535334
455 0.470466
460 0.582686
465 0.583712
470 0.51437
475 0.524539
480 0.620437
485 0.5356
490 0.626657
495 0.5937
500 0.496062
505 0.56762
510 0.507364
515 0.59557
520 0.663076
525 0.624027
530 0.619217
535 0.602747
540 0.731958
545 0.587858
550 0.659123
555 0.632237
560 0.897926
565 0.846991
570 6.47226
575 141.894
580 268.247
585 77.8463
590 9.7179
595 1.90069
600 0.855182
Ex : 588
200 0.580042
205 0.565716
210 0.664412
215 0.633481
220 0.606361
225 0.511848
230 0.562005
235 0.536675
240 0.596331
245 0.635139
250 0.577301
255 0.619039
260 0.642222
265 0.56721
270 0.592393
275 0.554406
280 0.52691
285 0.559286
290 0.626735
295 0.657473
300 0.689849
305 0.425819
310 0.441436
315 0.524535
320 0.633757
325 0.48175
330 0.497923
335 0.522772
340 0.560919
345 0.720823
350 0.517394
355 0.425148
360 0.542832
365 0.52925
370 0.599448
375 0.621923
380 0.614992
385 0.613717
390 0.531032
395 0.439962
400 0.502176
405 0.539155
410 0.610793
415 0.491202
420 0.618528
425 0.624752
430 0.540583
435 0.50555
440 0.541935
445 0.582866
450 0.5096
455 0.576994
460 0.54663
465 0.554767
470 0.779436
475 0.718059
480 0.564757
485 0.627813
490 0.63426
495 0.669323
500 0.615255
505 0.531951
510 0.478291
515 0.631805
520 0.66565
525 0.706382
530 0.588915
535 0.632376
540 0.639003
545 0.6955
550 0.596567
555 0.582325
560 0.751785
565 0.750288
570 0.864
575 5.70629
580 121.859
585 233.694
590 68.6439
595 8.79476
600 1.44031
Ex : 593
200 0.528509
205 0.481342
210 0.532166
215 0.459279
220 0.41279
225 0.681349
230 0.496354
235 0.54876
240 0.528367
245 0.667743
250 0.483461
255 0.535132
260 0.486267
265 0.671383
270 0.623378
275 0.557985
280 0.384038
285 0.605981
290 0.588518
295 0.611738
300 0.504788
305 0.542266
310 0.555346
315 0.561996
320 0.672918
325 0.480417
330 0.505464
335 0.623607
340 0.400727
345 0.590548
350 0.512339
355 0.524585
360 0.546476
365 0.597928
370 0.630495
375 0.493311
380 0.56549
385 0.617408
390 0.621966
395 0.637393
400 0.558396
405 0.607017
410 0.588845
415 0.563905
420 0.611212
425 0.608827
430 0.667996
435 0.52223
440 0.561196
445 0.574111
450 0.56179
455 0.803174
460 0.565224
465 0.518372
470 0.733394
475 0.578626
480 0.736963
485 0.684574
490 0.703166
495 0.591152
500 0.627909
505 0.555178
510 0.523469
515 0.692826
520 0.707937
525 0.654522
530 0.61157
535 0.532797
540 0.749327
545 0.548763
550 0.648921
555 0.601584
560 0.880693
565 0.92802
570 0.738811
575 1.01663
580 5.33087
585 106.622
590 197.551
595 60.1198
600 8.80744
Ex : 598
200 0.719148
205 0.529801
210 0.518716
215 0.694222
220 0.560125
225 0.534233
230 0.609352
235 0.670548
240 0.608103
245 0.476745
250 0.530373
255 0.425382
260 0.489549
265 0.449203
270 0.739785
275 0.634158
280 0.445471
285 0.623426
290 0.688618
295 0.617961
300 0.766158
305 0.528229
310 0.659403
315 0.713842
320 0.787884
325 0.6367
330 0.680725
335 0.798208
340 0.62642
345 0.71542
350 0.648985
355 0.554673
360 0.550663
365 0.70709
370 0.645038
375 0.486642
380 0.645622
385 0.505823
390 0.471535
395 0.670124
400 0.831503
405 0.749261
410 0.636172
415 0.627062
420 0.685829
425 0.532259
430 0.594717
435 0.70361
440 0.46091
445 0.504963
450 0.580377
455 0.444266
460 0.759369
465 0.674778
470 0.560341
475 0.702699
480 0.543339
485 0.631586
490 0.557308
495 0.694907
500 0.687315
505 0.546524
510 0.614205
515 0.783194
520 0.697164
525 0.566877
530 0.74364
535 0.6735
540 0.587589
545 0.695158
550 0.593418
555 0.813943
560 0.709423
565 0.713893
570 0.781444
575 0.703472
580 0.827991
585 4.94299
590 99.1058
595 180.27
600 116.836
Ex : 603
200 0.509385
205 0.433878
210 0.775757
215 0.674656
220 0.622683
225 0.606039
230 0.502294
235 0.606948
240 0.634102
245 0.704994
250 0.517775
255 0.473059
260 0.520605
265 0.629863
270 0.474231
275 0.684294
280 0.644295
285 0.662161
290 0.630789
295 0.577683
300 0.687482
305 0.669165
310 0.714152
315 0.613185
320 0.531917
325 0.695428
330 0.590913
335 0.627677
340 0.609494
345 0.523215
350 0.647012
355 0.472107
360 0.646086
365 0.646143
370 0.48205
375 0.598885
380 0.647981
385 0.636283
390 0.678132
395 0.559296
400 0.622717
405 0.470114
410 0.622936
415 0.727006
420 0.774378
425 0.716485
430 0.699297
435 0.686153
440 0.604734
445 0.59054
450 0.824456
455 0.636727
460 0.593891
465 0.721998
470 0.497367
475 0.508005
480 0.694098
485 0.561007
490 0.737808
495 0.540679
500 0.631244
505 0.646557
510 0.50871
515 0.558966
520 0.507593
525 0.607331
530 0.674267
535 0.580568
540 0.529102
545 0.652627
550 0.638427
555 0.643263
560 0.893537
565 0.821965
570 0.813015
575 0.6562
580 0.806933
585 0.812283
590 4.52657
595 83.6634
600 169.899
