File format V 1.0
ven. 9. déc. 16:16:06 2016
Operator : 
Comments : 

=============================================
SpectroFluorometer parameters
Mode : 3D measurement
Data : Fluorescence
Phospho. : Ordinary
Spectrum : Fluorescence

Scan speed : 2400 nm/mn
Response : 100 ms
PM Voltage : 700 V
Shutter : On

Lambda Ex. Start : 203
Lambda Ex. End : 603
Lambda Ex. Step : 5
Ex. Slit : 5 nm

Lambda Em. Start : 200
Lambda Em. End : 600
Lambda Em. Step : 5
Em. Slit : 5 nm

Repetition : 1
Decal lambda em : 10
=============================================
DATA
Ex : 203
200 8.1194
205 14.3822
210 10.0127
215 8.93006
220 11.6124
225 9.15286
230 10.7831
235 9.08238
240 10.6552
245 11.6537
250 11.7712
255 9.04268
260 8.22607
265 10.0513
270 6.74358
275 9.21155
280 9.50555
285 14.2586
290 10.789
295 8.81366
300 8.49484
305 8.26372
310 7.64184
315 8.01876
320 10.28
325 8.44191
330 9.02866
335 11.4319
340 8.79335
345 9.63967
350 15.6403
355 8.6462
360 7.28502
365 8.669
370 6.80221
375 11.5361
380 15.131
385 12.0106
390 8.58794
395 6.3354
400 10.112
405 6.84957
410 9.59681
415 11.3449
420 8.06041
425 10.1311
430 12.0455
435 8.27095
440 12.7103
445 7.41953
450 6.79173
455 7.15895
460 6.71387
465 8.18767
470 9.93926
475 8.91929
480 10.583
485 16.9948
490 11.4772
495 10.0312
500 8.75244
505 9.03225
510 12.0431
515 6.78543
520 10.3542
525 9.76932
530 9.61672
535 9.84225
540 10.8336
545 10.5929
550 11.027
555 8.35117
560 5.56126
565 7.96789
570 11.5781
575 7.97407
580 6.174
585 8.87368
590 7.97985
595 13.608
600 1.54854
Ex : 208
200 9.30935
205 13.3326
210 8.65441
215 9.97253
220 9.37172
225 8.64317
230 11.356
235 10.0249
240 7.56237
245 8.6087
250 8.78373
255 9.88045
260 9.44811
265 8.64198
270 9.41266
275 9.40296
280 9.47611
285 13.2373
290 10.8025
295 14.2781
300 7.53282
305 7.23787
310 6.07322
315 8.30807
320 8.74253
325 11.9663
330 11.6913
335 7.87734
340 9.83496
345 9.47042
350 5.55936
355 5.59263
360 10.244
365 7.89555
370 9.05283
375 9.67699
380 10.7126
385 9.25531
390 9.31774
395 8.08032
400 14.9844
405 12.0486
410 11.3048
415 11.9748
420 11.6573
425 7.06816
430 6.6385
435 7.59789
440 10.4328
445 8.12243
450 6.7076
455 11.2078
460 9.07263
465 12.5864
470 7.20475
475 7.30858
480 9.60114
485 9.24306
490 8.09446
495 7.66712
500 4.54836
505 10.1133
510 11.0895
515 6.48214
520 10.1497
525 10.4738
530 8.8227
535 8.48439
540 6.49311
545 10.3099
550 8.90905
555 7.3137
560 6.94708
565 7.21381
570 9.62964
575 8.63811
580 10.6804
585 13.0784
590 10.6957
595 9.92357
600 25.4999
Ex : 213
200 10.5649
205 8.11594
210 7.93011
215 9.54121
220 9.23201
225 12.3667
230 10.9547
235 7.79034
240 8.76873
245 8.54443
250 9.55239
255 7.25327
260 7.62184
265 6.43187
270 9.82051
275 8.21992
280 5.85042
285 9.23008
290 10.7193
295 7.90534
300 5.27599
305 7.21527
310 6.81724
315 9.64438
320 8.2462
325 8.04786
330 10.1995
335 8.14288
340 9.73803
345 9.08398
350 8.56322
355 7.78633
360 8.27574
365 12.697
370 8.74045
375 6.94665
380 13.4645
385 10.9297
390 6.98837
395 8.26959
400 11.058
405 7.50269
410 11.9975
415 12.6253
420 8.76132
425 6.14098
430 8.77312
435 10.4744
440 13.3523
445 10.7683
450 9.88434
455 10.3137
460 12.9609
465 10.6363
470 12.1194
475 9.28681
480 9.26411
485 10.4767
490 8.43509
495 10.6863
500 10.2191
505 12.6302
510 13.0534
515 13.523
520 12.0014
525 10.0345
530 7.62263
535 8.96055
540 11.1488
545 10.748
550 12.5638
555 9.26783
560 7.47439
565 9.6246
570 9.79556
575 10.7513
580 9.47878
585 10.5937
590 9.70192
595 6.27895
600 40.5937
Ex : 218
200 6.9635
205 6.8117
210 9.12515
215 7.50948
220 8.96365
225 8.2455
230 8.56765
235 5.5638
240 7.26582
245 8.29538
250 9.97386
255 8.13406
260 13.8417
265 9.13785
270 11.1928
275 12.156
280 12.5932
285 8.0406
290 7.13796
295 6.68259
300 6.74386
305 8.08459
310 11.4779
315 10.5584
320 8.90674
325 9.47014
330 7.52449
335 7.48613
340 10.3835
345 7.97791
350 11.0091
355 8.892
360 10.2323
365 7.00178
370 8.25887
375 10.5043
380 8.29195
385 9.2038
390 8.62145
395 7.54861
400 9.1282
405 8.11465
410 8.18274
415 9.40007
420 7.03503
425 8.40773
430 7.77726
435 5.67052
440 10.8562
445 10.242
450 6.91666
455 9.87553
460 9.89583
465 9.3268
470 8.75666
475 10.5183
480 8.26089
485 10.0486
490 8.47601
495 9.99046
500 7.14465
505 8.67149
510 6.29785
515 4.91212
520 11.8581
525 7.57909
530 9.66316
535 9.69107
540 7.67693
545 7.41551
550 10.1836
555 7.98678
560 8.75533
565 5.81136
570 6.24439
575 6.57586
580 4.08093
585 6.34448
590 8.27154
595 11.5328
600 13.7192
Ex : 223
200 8.09155
205 10.1314
210 8.39025
215 8.22553
220 6.7085
225 9.1208
230 9.04783
235 10.7966
240 6.89232
245 12.2664
250 7.27349
255 9.27979
260 7.40502
265 9.77907
270 8.06418
275 9.17336
280 8.95359
285 8.55162
290 10.992
295 10.4674
300 6.4111
305 6.76067
310 6.36471
315 9.47219
320 7.91866
325 6.95262
330 6.92076
335 14.2322
340 9.60187
345 9.44546
350 12.073
355 7.29744
360 8.66527
365 7.02609
370 6.31877
375 8.79121
380 10.0166
385 8.14891
390 5.52767
395 7.60091
400 9.19115
405 13.0127
410 10.1704
415 9.88616
420 6.92331
425 8.01101
430 9.65777
435 11.5704
440 7.7465
445 10.056
450 9.12615
455 8.12815
460 8.79469
465 9.66992
470 6.08814
475 11.6265
480 10.399
485 5.89132
490 11.0673
495 7.66124
500 11.8771
505 9.11521
510 10.0718
515 8.85404
520 11.2604
525 8.25245
530 6.72337
535 10.2157
540 10.0186
545 7.79631
550 9.38582
555 6.71463
560 10.1912
565 10.1286
570 9.86392
575 7.03618
580 8.44807
585 7.03069
590 12.4695
595 9.81893
600 21.7954
Ex : 228
200 7.42593
205 9.97976
210 7.8265
215 6.91914
220 6.61539
225 8.40747
230 8.00556
235 6.66534
240 6.93875
245 7.9407
250 10.5494
255 9.03452
260 7.07513
265 8.9305
270 6.98419
275 7.5871
280 7.1051
285 7.67121
290 9.03677
295 9.19331
300 7.29764
305 7.0779
310 6.52811
315 9.25286
320 9.99554
325 7.25456
330 6.09998
335 6.76036
340 6.43279
345 4.64104
350 6.62147
355 8.22896
360 7.19854
365 7.2471
370 7.38381
375 10.803
380 7.3646
385 5.91005
390 5.97855
395 7.11373
400 7.69798
405 9.30386
410 9.98984
415 7.25109
420 9.63726
425 7.85255
430 9.43103
435 7.75066
440 7.09118
445 5.6869
450 9.25048
455 8.07625
460 7.11672
465 8.10967
470 8.83619
475 6.91355
480 8.03341
485 9.48981
490 12.148
495 7.2301
500 10.6228
505 6.06828
510 5.85822
515 6.93638
520 8.11528
525 9.36089
530 9.36232
535 7.22747
540 7.02017
545 8.22003
550 10.2704
555 9.11401
560 8.05989
565 5.60853
570 4.13966
575 5.82472
580 7.3991
585 8.03796
590 8.29972
595 8.06365
600 0.917612
Ex : 233
200 5.8
205 5.31134
210 6.34168
215 5.65469
220 6.8026
225 5.65065
230 6.33156
235 6.01284
240 6.56272
245 5.27278
250 9.22996
255 5.47669
260 5.92149
265 4.69511
270 9.40606
275 6.20129
280 6.3539
285 6.81994
290 6.26865
295 9.17812
300 9.84101
305 4.17997
310 6.55893
315 5.4306
320 7.10126
325 6.01219
330 7.26814
335 7.07557
340 6.92152
345 7.04348
350 8.03214
355 6.11656
360 6.45386
365 9.79501
370 6.05559
375 7.04499
380 6.96947
385 11.2218
390 5.65527
395 5.1256
400 6.74312
405 11.1829
410 6.98859
415 7.21787
420 4.98695
425 8.21228
430 10.5991
435 10.0059
440 7.09105
445 6.81748
450 7.82232
455 12.2703
460 10.2077
465 7.5744
470 9.16562
475 9.58503
480 5.63253
485 6.65594
490 5.44633
495 6.03146
500 5.93993
505 5.74375
510 4.56577
515 12.0091
520 7.87191
525 5.2417
530 6.16962
535 7.53364
540 7.14513
545 6.70205
550 6.81242
555 10.1373
560 6.86093
565 9.84813
570 9.77781
575 7.83798
580 11.9309
585 9.72511
590 9.26347
595 7.83361
600 4.2147
Ex : 238
200 4.78139
205 5.90654
210 6.77106
215 6.16299
220 6.92094
225 5.40105
230 6.50527
235 5.59415
240 8.57463
245 5.54414
250 4.22955
255 6.68886
260 7.67788
265 5.79044
270 6.16295
275 4.5901
280 5.4135
285 7.68879
290 6.42389
295 4.63798
300 4.87824
305 5.07476
310 4.50036
315 5.24412
320 6.79213
325 6.4776
330 8.36637
335 7.68889
340 4.84985
345 4.89755
350 5.51493
355 6.63871
360 7.13238
365 6.51417
370 6.04171
375 7.56957
380 5.33554
385 6.84875
390 6.99115
395 7.21524
400 6.39459
405 6.50911
410 5.64278
415 4.92007
420 9.5418
425 7.41029
430 8.13509
435 7.79163
440 6.44595
445 7.27846
450 5.43396
455 5.28397
460 5.70131
465 5.82152
470 7.65836
475 6.22993
480 5.07397
485 4.11348
490 4.42703
495 8.19705
500 5.70141
505 5.72628
510 3.80535
515 5.59099
520 5.28397
525 4.15005
530 5.2356
535 5.87843
540 4.89705
545 5.86588
550 7.20272
555 4.19069
560 4.63391
565 4.95404
570 4.65424
575 5.03489
580 5.07063
585 4.91051
590 5.4124
595 5.06312
600 6.48419
Ex : 243
200 5.5668
205 5.16704
210 4.61358
215 3.90051
220 7.334
225 3.89401
230 4.57276
235 3.62388
240 6.98506
245 5.76663
250 2.83466
255 3.98774
260 4.77585
265 5.87565
270 5.02769
275 5.499
280 4.35209
285 6.14111
290 4.78636
295 4.34701
300 6.22957
305 4.80665
310 5.99132
315 2.95223
320 6.75747
325 4.29235
330 4.44581
335 6.03642
340 5.75251
345 4.52869
350 5.17457
355 4.16676
360 4.77486
365 4.75646
370 5.6102
375 4.90168
380 7.87077
385 6.80619
390 5.80728
395 3.72027
400 5.52272
405 4.16589
410 4.90139
415 6.3397
420 4.05162
425 6.02263
430 4.11031
435 7.06666
440 4.66415
445 6.95574
450 5.49384
455 5.22903
460 4.5716
465 5.42365
470 5.56972
475 5.33922
480 6.32527
485 4.52628
490 3.91103
495 5.87036
500 5.92641
505 10.8675
510 5.437
515 3.53357
520 4.96236
525 7.12709
530 6.46157
535 4.9941
540 3.92219
545 5.46086
550 3.20588
555 5.93896
560 5.52851
565 6.58821
570 4.97481
575 5.13666
580 4.5276
585 4.10865
590 5.24422
595 6.96165
600 5.96173
Ex : 248
200 3.09901
205 4.41823
210 4.40637
215 5.54171
220 4.0815
225 4.62617
230 4.76576
235 4.34961
240 4.27137
245 4.53816
250 4.29937
255 4.2658
260 4.2241
265 4.44766
270 3.4746
275 3.76588
280 4.36166
285 6.06937
290 4.63673
295 4.97072
300 3.54098
305 4.17547
310 4.27697
315 3.8782
320 3.9329
325 5.35575
330 4.33211
335 3.91436
340 4.37932
345 5.7702
350 4.89137
355 2.25776
360 7.94245
365 6.58754
370 6.20902
375 3.3741
380 5.85596
385 5.92511
390 5.02998
395 3.94356
400 6.82758
405 6.35071
410 4.39365
415 5.61023
420 5.79534
425 4.31313
430 5.21209
435 6.1501
440 6.08962
445 4.61211
450 5.62051
455 5.14754
460 5.07587
465 4.67044
470 3.68745
475 4.88756
480 4.16754
485 5.14221
490 3.76453
495 4.60366
500 3.24644
505 3.98338
510 4.43809
515 3.54563
520 3.93586
525 3.72233
530 3.17333
535 5.16138
540 4.37265
545 4.73799
550 4.18137
555 4.76117
560 4.1916
565 3.69281
570 4.43231
575 5.22458
580 4.66384
585 4.46874
590 2.96458
595 5.52623
600 0.628864
Ex : 253
200 2.4071
205 3.39459
210 2.43063
215 3.08134
220 3.3985
225 4.59741
230 3.02755
235 3.42822
240 3.00335
245 2.89201
250 3.02062
255 2.65651
260 3.47726
265 2.17518
270 3.49055
275 3.73549
280 3.49594
285 3.86537
290 3.29204
295 5.00444
300 3.61716
305 4.00985
310 2.53567
315 2.33834
320 4.29318
325 3.82997
330 4.33465
335 3.82767
340 4.17705
345 3.2602
350 3.17811
355 2.95803
360 3.37818
365 3.48849
370 4.68307
375 4.26557
380 3.11111
385 4.25755
390 3.15747
395 3.1229
400 4.49911
405 3.42835
410 3.96609
415 4.01787
420 3.3198
425 3.27526
430 3.77361
435 4.03172
440 4.18279
445 5.77324
450 4.37417
455 3.72403
460 4.27452
465 3.76711
470 3.93085
475 2.61332
480 3.56465
485 3.75068
490 3.91579
495 3.56818
500 3.70389
505 4.93843
510 4.32112
515 3.64944
520 3.37492
525 4.22915
530 4.13019
535 3.00904
540 2.8693
545 3.33668
550 5.17059
555 3.09488
560 2.77847
565 4.67541
570 3.34587
575 5.28225
580 2.94304
585 3.53469
590 4.11972
595 2.64381
600 0.300855
Ex : 258
200 2.19421
205 2.40877
210 2.69565
215 1.71436
220 2.19704
225 3.66536
230 2.76071
235 2.50038
240 2.46582
245 1.90995
250 2.00088
255 2.04328
260 1.98611
265 2.67149
270 2.53716
275 2.53169
280 2.51856
285 2.0628
290 2.755
295 3.08858
300 2.80501
305 3.26655
310 2.44616
315 2.57218
320 3.11345
325 2.19401
330 2.33253
335 2.58902
340 3.28532
345 2.42298
350 2.42078
355 2.36294
360 2.13215
365 2.73288
370 2.78536
375 4.2766
380 2.94528
385 2.77129
390 3.72298
395 3.05423
400 1.79652
405 3.34429
410 2.92977
415 2.30543
420 3.14966
425 2.62052
430 4.15463
435 3.0424
440 3.25131
445 2.56052
450 3.50341
455 2.74832
460 3.43671
465 1.95842
470 3.73807
475 2.80245
480 2.10653
485 2.43474
490 2.77671
495 2.69079
500 2.46621
505 2.5115
510 3.02377
515 2.9614
520 2.2515
525 3.5832
530 3.81983
535 2.82118
540 3.64713
545 3.13978
550 2.0108
555 3.45172
560 1.90234
565 2.45996
570 2.54405
575 2.60683
580 2.09291
585 2.33215
590 2.09123
595 1.98072
600 0.225398
Ex : 263
200 2.29329
205 2.18993
210 2.48729
215 1.73874
220 2.77153
225 1.98615
230 1.56111
235 1.18922
240 1.46535
245 2.28939
250 1.07589
255 1.84767
260 2.28089
265 2.60339
270 2.82604
275 2.20713
280 1.48692
285 1.56646
290 1.51253
295 1.77737
300 1.83466
305 1.5627
310 1.87487
315 1.82211
320 1.35592
325 3.54157
330 1.81753
335 2.76633
340 2.56747
345 2.37145
350 1.91915
355 2.36878
360 2.53492
365 2.41937
370 3.12783
375 3.0633
380 2.30772
385 2.7639
390 2.88097
395 2.70675
400 2.81158
405 3.09953
410 2.71307
415 3.00463
420 2.94276
425 2.71655
430 1.88143
435 2.48041
440 2.24889
445 3.27777
450 2.37764
455 1.93487
460 2.3465
465 2.15769
470 1.88629
475 2.24606
480 2.35115
485 4.33088
490 1.9741
495 2.34551
500 2.03932
505 2.17604
510 1.28408
515 2.95388
520 2.32581
525 2.37461
530 2.04547
535 1.37786
540 1.71441
545 1.8284
550 2.75519
555 1.59441
560 2.78106
565 2.37715
570 1.65081
575 1.59113
580 1.76734
585 1.06549
590 1.59873
595 2.06956
600 4.16804
Ex : 268
200 2.14268
205 2.20349
210 1.95845
215 1.26042
220 2.11
225 1.50643
230 1.56777
235 1.29369
240 2.28063
245 1.3681
250 1.7385
255 2.23225
260 1.57505
265 1.58427
270 2.1533
275 0.969814
280 1.90606
285 1.37116
290 1.13962
295 1.6085
300 1.17716
305 1.42824
310 1.40475
315 1.85959
320 1.56511
325 2.38143
330 1.54731
335 1.44931
340 1.55217
345 1.60581
350 1.43294
355 2.141
360 1.81154
365 1.79028
370 1.98601
375 1.96901
380 1.97868
385 2.01816
390 1.70994
395 1.93075
400 2.48591
405 2.52348
410 2.04297
415 2.21714
420 2.02471
425 1.67729
430 2.85738
435 2.31355
440 3.18532
445 1.80091
450 1.35114
455 1.36999
460 1.65996
465 1.75208
470 2.3097
475 2.84078
480 1.51734
485 1.61026
490 1.82048
495 2.67955
500 1.66615
505 1.71431
510 1.77641
515 1.29057
520 1.39127
525 1.9879
530 2.8804
535 2.20999
540 2.0618
545 1.54424
550 1.45923
555 1.27712
560 1.53856
565 1.50714
570 2.37868
575 2.47344
580 1.70493
585 1.76694
590 1.83464
595 1.54636
600 0.17597
Ex : 273
200 1.36372
205 1.26183
210 1.29296
215 1.542
220 1.45147
225 1.16472
230 1.10966
235 1.10101
240 1.92397
245 1.44245
250 1.92689
255 1.1679
260 1.04994
265 1.26397
270 1.26808
275 1.16611
280 1.16529
285 0.834258
290 1.19961
295 1.20826
300 1.07942
305 1.22948
310 1.08537
315 1.31658
320 1.27252
325 1.84788
330 1.76447
335 1.80179
340 1.35861
345 1.36267
350 2.0229
355 1.70573
360 1.29211
365 1.15563
370 1.68605
375 1.48367
380 2.19016
385 1.67956
390 1.71158
395 1.65859
400 1.93748
405 2.0838
410 2.31335
415 2.05954
420 1.73659
425 2.13348
430 2.01607
435 1.84958
440 2.18522
445 2.02825
450 1.49568
455 1.59807
460 2.02303
465 1.46008
470 1.53319
475 1.41992
480 1.33468
485 1.09216
490 1.29762
495 1.38939
500 1.26498
505 1.2739
510 1.69736
515 1.52864
520 1.27095
525 1.18087
530 0.975745
535 1.68837
540 1.81861
545 2.04976
550 1.15293
555 1.48077
560 1.50659
565 1.33431
570 0.966023
575 1.89894
580 1.28041
585 1.06101
590 0.854149
595 1.17772
600 0.207871
Ex : 278
200 0.567981
205 0.651347
210 0.81501
215 0.948143
220 0.910972
225 1.03758
230 0.834102
235 1.0419
240 1.28867
245 1.14129
250 1.23602
255 0.739074
260 0.978233
265 1.09882
270 1.16952
275 0.808665
280 0.934277
285 0.740533
290 0.988198
295 0.811712
300 1.09563
305 0.90995
310 0.977484
315 1.17044
320 1.04644
325 0.834889
330 1.08539
335 1.13468
340 1.2543
345 1.48821
350 1.66636
355 1.36423
360 1.18232
365 1.82403
370 1.53036
375 1.23788
380 1.44663
385 1.46023
390 1.57409
395 1.54307
400 1.44007
405 1.52488
410 1.48077
415 1.37501
420 1.70768
425 1.57446
430 1.60172
435 1.52644
440 1.81197
445 1.33531
450 1.59016
455 1.08933
460 1.28657
465 1.3412
470 1.02739
475 1.21947
480 0.97107
485 1.52584
490 1.08154
495 1.12909
500 1.55658
505 0.916356
510 0.975437
515 1.19917
520 1.02549
525 1.26629
530 0.886439
535 0.984926
540 1.28427
545 1.12161
550 1.36559
555 1.18594
560 0.996938
565 0.91481
570 1.02121
575 0.656872
580 0.740119
585 1.17609
590 1.24088
595 0.784684
600 0.120944
Ex : 283
200 0.831438
205 0.769161
210 0.71284
215 0.603145
220 1.10184
225 0.714601
230 0.699544
235 0.629808
240 0.874626
245 0.713836
250 0.70876
255 0.66127
260 0.913374
265 1.04653
270 0.675656
275 0.746146
280 1.01584
285 0.696256
290 0.897266
295 0.948352
300 1.00308
305 1.58535
310 1.06481
315 0.770256
320 0.717683
325 0.783649
330 0.788938
335 0.629492
340 0.726447
345 1.07208
350 0.977024
355 1.17773
360 1.53624
365 1.53082
370 0.97532
375 1.29495
380 1.32098
385 1.81829
390 1.70641
395 1.52468
400 1.71958
405 1.55632
410 1.21735
415 1.19578
420 1.96335
425 1.59095
430 1.36163
435 1.5456
440 1.63379
445 1.40243
450 1.64557
455 1.23846
460 1.75221
465 1.14185
470 1.33851
475 1.50867
480 1.33341
485 0.777539
490 0.898401
495 1.25883
500 1.39433
505 1.42127
510 1.18364
515 0.814844
520 0.748135
525 1.08716
530 0.774474
535 0.794692
540 0.970019
545 1.03995
550 0.783592
555 1.00685
560 1.23535
565 1.00819
570 0.739577
575 0.715478
580 0.743094
585 0.981572
590 0.865571
595 0.87001
600 0.0990039
Ex : 288
200 0.428331
205 0.616771
210 0.718291
215 0.736889
220 0.583334
225 0.542845
230 0.665572
235 0.819633
240 0.713415
245 0.624968
250 0.738732
255 0.782391
260 0.759701
265 0.741623
270 0.775273
275 0.756223
280 1.00673
285 0.728012
290 0.479764
295 0.477909
300 0.719535
305 0.528693
310 0.678948
315 0.678525
320 0.706229
325 0.560808
330 0.713667
335 1.0134
340 0.701935
345 1.00404
350 0.757139
355 0.870529
360 1.03422
365 1.14463
370 0.972198
375 1.16571
380 1.14682
385 1.55121
390 0.951514
395 1.26029
400 1.30393
405 1.15368
410 1.16577
415 1.12607
420 1.56903
425 1.29587
430 1.35565
435 1.21313
440 1.0763
445 1.02792
450 1.11907
455 1.67671
460 1.04601
465 0.935612
470 1.0659
475 0.883461
480 1.05871
485 0.900534
490 0.730267
495 1.00673
500 0.91115
505 0.999375
510 0.908754
515 1.06718
520 0.936905
525 0.780052
530 1.03469
535 0.782018
540 0.821937
545 0.83492
550 0.772027
555 0.688957
560 1.1202
565 0.733303
570 1.15976
575 1.06813
580 0.854237
585 0.655666
590 0.416526
595 0.620329
600 0.070591
Ex : 293
200 0.434167
205 0.646594
210 0.74327
215 0.6118
220 0.622656
225 0.523946
230 0.536645
235 0.578091
240 0.590817
245 0.536028
250 0.583445
255 0.762515
260 0.521053
265 0.701218
270 0.609403
275 0.444362
280 0.75553
285 0.640385
290 0.807546
295 0.576976
300 0.427767
305 0.5787
310 0.409716
315 0.50587
320 0.576816
325 0.68467
330 0.653966
335 0.911247
340 0.887679
345 0.666075
350 0.786444
355 0.688108
360 0.99856
365 0.879241
370 0.955393
375 0.936889
380 1.04495
385 1.53956
390 1.16747
395 1.10397
400 1.03258
405 1.02201
410 1.20058
415 1.21553
420 1.24882
425 1.04704
430 1.03538
435 1.35656
440 1.19858
445 0.961157
450 1.02023
455 0.823955
460 0.888584
465 0.861684
470 1.08056
475 1.00023
480 0.843963
485 0.699803
490 1.09141
495 0.705453
500 0.841406
505 0.771074
510 0.779788
515 0.7058
520 0.691815
525 0.707576
530 0.707514
535 0.557342
540 0.78431
545 0.604299
550 0.721557
555 0.575768
560 0.767875
565 0.720445
570 0.759494
575 0.830464
580 0.909048
585 0.933138
590 0.594894
595 0.640721
600 0.0729116
Ex : 298
200 0.770153
205 0.505507
210 0.823615
215 0.565343
220 0.531815
225 0.442657
230 0.554753
235 0.468711
240 0.456191
245 0.550263
250 0.54322
255 0.551317
260 0.481898
265 0.378402
270 0.500951
275 0.467211
280 0.497556
285 0.583323
290 0.546914
295 0.810628
300 0.891088
305 0.650075
310 0.526225
315 0.403452
320 0.629698
325 0.416395
330 0.450711
335 0.541364
340 0.704948
345 0.704867
350 0.608772
355 0.741314
360 0.769759
365 0.858175
370 0.726144
375 0.847308
380 1.03497
385 1.1531
390 0.934788
395 1.21505
400 1.16549
405 1.05123
410 1.43248
415 1.26752
420 1.10129
425 1.07192
430 1.19683
435 1.17957
440 1.10623
445 1.03733
450 1.08882
455 1.06415
460 0.962082
465 1.05459
470 0.926085
475 0.581983
480 1.00667
485 0.771761
490 0.801555
495 0.626106
500 0.867799
505 0.73308
510 0.602166
515 0.564887
520 0.499044
525 0.583225
530 0.428721
535 0.578284
540 0.475053
545 0.523618
550 0.54963
555 0.59331
560 0.530316
565 0.544973
570 0.467933
575 0.483597
580 0.676929
585 0.756591
590 0.956876
595 0.717692
600 1.03006
Ex : 303
200 0.471289
205 0.372523
210 0.515654
215 0.432542
220 0.488622
225 0.603012
230 0.47849
235 0.514249
240 0.623575
245 0.521791
250 0.405119
255 0.532707
260 0.383749
265 0.375675
270 0.531955
275 0.46315
280 0.337853
285 0.540757
290 0.475314
295 0.706232
300 0.831419
305 0.608251
310 0.478234
315 0.339825
320 0.463055
325 0.604475
330 0.559608
335 0.613628
340 0.538863
345 0.546034
350 0.610077
355 0.659796
360 0.685356
365 0.618967
370 0.675735
375 0.92998
380 0.911788
385 0.860045
390 1.08735
395 1.02791
400 1.25275
405 1.06005
410 1.10946
415 1.11473
420 1.28068
425 1.03807
430 1.24511
435 0.930069
440 1.03407
445 1.08129
450 1.21487
455 1.08515
460 0.7941
465 0.998499
470 0.883595
475 0.739664
480 0.673895
485 0.650226
490 0.530902
495 0.443159
500 0.621532
505 0.412312
510 0.572941
515 0.575711
520 0.534111
525 0.496497
530 0.387821
535 0.543348
540 0.543751
545 0.504497
550 0.607279
555 0.451207
560 0.431835
565 0.567871
570 0.489046
575 0.40897
580 0.48108
585 0.549288
590 0.618158
595 0.73894
600 0.98372
Ex : 308
200 0.604541
205 0.558643
210 0.387366
215 0.344666
220 0.579132
225 0.458611
230 0.362159
235 0.316096
240 0.382426
245 0.430401
250 0.398268
255 0.307796
260 0.567031
265 0.527346
270 0.401775
275 0.32177
280 0.331923
285 0.470838
290 0.457882
295 0.402458
300 0.41745
305 0.490606
310 0.390092
315 0.432298
320 0.286156
325 0.470553
330 0.490939
335 0.582157
340 0.50766
345 0.524846
350 0.660349
355 0.719528
360 0.56578
365 0.893613
370 0.922479
375 0.838404
380 0.916829
385 0.98799
390 0.946886
395 1.37842
400 1.22183
405 0.930029
410 0.953286
415 1.17006
420 1.17417
425 1.01278
430 1.09705
435 0.855154
440 0.888132
445 0.91643
450 0.916453
455 0.791681
460 0.714629
465 0.759626
470 0.7429
475 0.596287
480 0.74526
485 0.658134
490 0.665126
495 0.550776
500 0.427467
505 0.523777
510 0.543961
515 0.489674
520 0.640561
525 0.461331
530 0.430008
535 0.442299
540 0.37865
545 0.564819
550 0.469549
555 0.380286
560 0.347748
565 0.421117
570 0.291571
575 0.349499
580 0.416783
585 0.400556
590 0.448119
595 0.385908
600 0.0439149
Ex : 313
200 0.323719
205 0.396246
210 0.220141
215 0.295266
220 0.330163
225 0.296131
230 0.274124
235 0.325099
240 0.464621
245 0.341976
250 0.400045
255 0.537999
260 0.493456
265 0.45027
270 0.394833
275 0.439547
280 0.260542
285 0.389434
290 0.421059
295 0.331871
300 0.358525
305 0.451497
310 0.475971
315 0.427393
320 0.291302
325 0.412664
330 0.391412
335 0.529629
340 0.532482
345 0.634269
350 0.615602
355 0.625685
360 0.726711
365 0.730059
370 0.924771
375 1.13575
380 0.860524
385 1.2
390 0.998163
395 1.30924
400 1.14609
405 1.17099
410 1.30594
415 0.991609
420 1.26319
425 1.29006
430 1.18426
435 1.14493
440 0.943584
445 0.968404
450 0.7901
455 1.15106
460 0.703228
465 0.825827
470 0.844693
475 0.763403
480 0.669242
485 0.549796
490 0.570711
495 0.803782
500 0.540055
505 0.505806
510 0.491826
515 0.473241
520 0.518506
525 0.497038
530 0.341189
535 0.476946
540 0.379967
545 0.340057
550 0.396887
555 0.496105
560 0.43906
565 0.602652
570 0.472852
575 0.379039
580 0.565709
585 0.325903
590 0.34742
595 0.314098
600 0.0357432
Ex : 318
200 0.320209
205 0.309443
210 0.415588
215 0.400207
220 0.192604
225 0.33746
230 0.277928
235 0.473273
240 0.242746
245 0.288061
250 0.286045
255 0.342588
260 0.40409
265 0.222913
270 0.491637
275 0.292703
280 0.218372
285 0.367688
290 0.38852
295 0.324078
300 0.316992
305 0.341063
310 0.551285
315 0.590018
320 0.417341
325 0.397862
330 0.735548
335 0.787453
340 1.04867
345 1.44752
350 1.85752
355 2.2492
360 2.50406
365 3.19251
370 3.94301
375 4.39538
380 4.7393
385 5.57275
390 6.17959
395 6.00819
400 6.53131
405 6.70687
410 6.63221
415 7.10499
420 7.07689
425 6.34795
430 6.53057
435 5.53292
440 5.52278
445 5.18823
450 4.68514
455 4.45582
460 3.95797
465 3.61868
470 3.53024
475 3.49499
480 3.19801
485 2.81486
490 2.3397
495 2.14935
500 1.74665
505 1.62529
510 1.60578
515 1.35253
520 1.19956
525 0.98088
530 1.08833
535 0.842009
540 0.838724
545 0.932575
550 0.711134
555 0.545105
560 0.47912
565 0.596612
570 0.531273
575 0.574585
580 0.476559
585 0.509814
590 0.398169
595 0.437955
600 0.0498376
Ex : 323
200 0.299932
205 0.333835
210 0.323441
215 0.428543
220 0.244326
225 0.386081
230 0.304088
235 0.352361
240 0.336848
245 0.316023
250 0.313051
255 0.42494
260 0.388552
265 0.381175
270 0.274258
275 0.31997
280 0.373705
285 0.306945
290 0.308427
295 0.335192
300 0.38299
305 0.465765
310 0.252811
315 1.61364
320 5.55119
325 3.30374
330 2.05472
335 2.64673
340 3.95184
345 5.56807
350 8.58363
355 11.7117
360 13.777
365 16.6745
370 19.4773
375 23.0269
380 26.0904
385 30.2815
390 31.9674
395 34.479
400 36.2171
405 35.9908
410 37.0672
415 35.3222
420 35.0576
425 35.3001
430 33.0991
435 31.7888
440 30.7893
445 28.1432
450 26.7705
455 25.0008
460 22.7125
465 21.4158
470 19.5663
475 17.7405
480 15.9779
485 14.4219
490 12.9623
495 11.6154
500 9.82071
505 9.23128
510 8.22626
515 6.88184
520 6.01955
525 4.77345
530 4.39191
535 3.64107
540 3.38442
545 2.94345
550 2.45543
555 2.01453
560 2.02427
565 1.54161
570 1.28238
575 1.03053
580 0.974068
585 0.708792
590 0.683963
595 0.587992
600 0.463593
Ex : 328
200 0.324242
205 0.313529
210 0.308606
215 0.238743
220 0.25082
225 0.284879
230 0.370625
235 0.252828
240 0.299129
245 0.315542
250 0.236365
255 0.204647
260 0.257386
265 0.261149
270 0.330586
275 0.292063
280 0.29034
285 0.21933
290 0.351321
295 0.328781
300 0.246469
305 0.214007
310 0.335919
315 0.661462
320 15.9544
325 42.6763
330 15.1248
335 5.41893
340 6.07724
345 8.37073
350 11.2019
355 15.1242
360 20.2707
365 22.9196
370 26.8873
375 30.6597
380 34.8206
385 37.5924
390 41.9954
395 44.4305
400 46.3018
405 47.4904
410 48.9143
415 47.0951
420 47.0137
425 44.6264
430 43.4611
435 41.2898
440 38.9447
445 37.3653
450 35.7175
455 32.8424
460 29.9718
465 27.5137
470 25.7467
475 23.7083
480 21.7823
485 19.8601
490 16.7922
495 16.1382
500 13.7197
505 12.024
510 10.0575
515 8.74756
520 8.2545
525 7.17454
530 5.879
535 5.46638
540 4.87368
545 4.00049
550 3.4246
555 2.93591
560 2.78997
565 2.15052
570 2.02278
575 1.46698
580 1.14945
585 0.981982
590 0.925163
595 0.649157
600 0.572361
Ex : 333
200 0.236509
205 0.256523
210 0.227863
215 0.224928
220 0.214213
225 0.237305
230 0.306805
235 0.250807
240 0.352042
245 0.292954
250 0.287704
255 0.302908
260 0.268324
265 0.317082
270 0.293341
275 0.272057
280 0.273405
285 0.226094
290 0.280475
295 0.2356
300 0.245186
305 0.30916
310 0.325275
315 0.263741
320 2.94145
325 54.4011
330 99.5635
335 28.5701
340 6.9615
345 6.2509
350 7.73313
355 8.62722
360 12.2992
365 17.5098
370 19.08
375 19.186
380 20.2543
385 22.6502
390 24.6609
395 26.7101
400 27.2027
405 27.785
410 27.9164
415 27.6826
420 26.4384
425 25.3135
430 24.2524
435 23.6593
440 22.6737
445 21.211
450 20.7014
455 18.9442
460 17.8556
465 17.0463
470 15.148
475 13.9697
480 12.992
485 11.7934
490 10.2084
495 9.75259
500 8.30308
505 7.04091
510 6.57884
515 5.69142
520 5.31887
525 4.82164
530 4.22224
535 3.68851
540 3.48039
545 2.97392
550 2.49647
555 2.25791
560 2.0084
565 1.80871
570 1.81318
575 1.14475
580 1.01201
585 0.794067
590 0.716959
595 0.530615
600 0.45883
Ex : 338
200 0.195159
205 0.337575
210 0.210297
215 0.216762
220 0.231368
225 0.320615
230 0.211645
235 0.242926
240 0.255948
245 0.246177
250 0.2448
255 0.341262
260 0.268095
265 0.232866
270 0.259568
275 0.222072
280 0.205032
285 0.220232
290 0.293966
295 0.221156
300 0.256108
305 0.315153
310 0.306025
315 0.261803
320 0.355067
325 6.0201
330 92.7015
335 140.681
340 35.7445
345 7.4351
350 5.09513
355 4.9505
360 5.18343
365 7.86908
370 13.2056
375 12.727
380 11.5072
385 10.9966
390 11.5265
395 12.6147
400 12.7854
405 13.1684
410 13.1103
415 12.6826
420 12.8876
425 12.5709
430 11.8513
435 11.3072
440 11.0365
445 10.8817
450 10.3648
455 9.71689
460 9.85712
465 9.15632
470 8.21894
475 7.45762
480 7.03237
485 6.44508
490 6.22801
495 5.53558
500 5.0626
505 4.74938
510 4.20029
515 3.93931
520 3.44224
525 3.03357
530 2.65145
535 2.87152
540 2.25634
545 2.09155
550 2.13045
555 1.83461
560 1.48272
565 1.33968
570 1.16545
575 0.987156
580 0.827424
585 0.784942
590 0.555699
595 0.514985
600 1.06508
Ex : 343
200 0.219402
205 0.272569
210 0.226821
215 0.196721
220 0.32155
225 0.198891
230 0.165872
235 0.264079
240 0.241508
245 0.180746
250 0.237651
255 0.152794
260 0.227208
265 0.205709
270 0.188075
275 0.229749
280 0.226808
285 0.231459
290 0.168867
295 0.229066
300 0.224171
305 0.22974
310 0.37948
315 0.28509
320 0.382164
325 0.426114
330 7.75297
335 112.275
340 160.108
345 39.4236
350 7.03523
355 4.35261
360 3.8372
365 3.25234
370 5.11639
375 9.28918
380 10.4589
385 7.87857
390 6.90269
395 7.21789
400 7.77745
405 7.9588
410 8.243
415 8.20481
420 8.12862
425 8.22028
430 8.12782
435 7.83592
440 7.68897
445 7.37727
450 7.2517
455 7.04827
460 7.16173
465 6.134
470 6.01954
475 5.71443
480 5.53744
485 5.27776
490 4.55443
495 4.57927
500 4.32505
505 3.90643
510 3.61943
515 2.99532
520 3.15434
525 2.88944
530 2.34896
535 2.25033
540 1.9845
545 1.8004
550 1.71282
555 1.62856
560 1.29075
565 1.18393
570 1.20376
575 0.84514
580 0.666551
585 0.586723
590 0.590085
595 0.495881
600 0.160689
Ex : 348
200 0.183271
205 0.242182
210 0.241457
215 0.234533
220 0.233542
225 0.227736
230 0.238692
235 0.249228
240 0.183627
245 0.184266
250 0.212128
255 0.178659
260 0.202024
265 0.215469
270 0.200212
275 0.157588
280 0.253345
285 0.186283
290 0.190011
295 0.192185
300 0.219846
305 0.233626
310 0.199982
315 0.176436
320 0.284647
325 0.252623
330 0.373225
335 7.57219
340 112.427
345 168.706
350 44.3605
355 7.18516
360 3.57018
365 3.02545
370 2.70423
375 3.11282
380 6.98189
385 10.0615
390 7.32803
395 6.3974
400 6.08665
405 6.27413
410 6.2241
415 6.17209
420 6.51281
425 6.98663
430 7.14318
435 6.6974
440 6.35188
445 6.75744
450 6.56259
455 6.25016
460 6.22542
465 6.23494
470 5.70296
475 5.57798
480 5.01874
485 4.90619
490 4.63698
495 4.33076
500 3.94254
505 3.52399
510 3.6415
515 3.22406
520 2.93447
525 2.60995
530 2.29457
535 2.26296
540 1.91638
545 1.72271
550 1.52017
555 1.46316
560 1.36423
565 1.15659
570 0.928457
575 0.928796
580 0.690018
585 0.57499
590 0.45091
595 0.511995
600 0.528058
Ex : 353
200 0.244876
205 0.168763
210 0.186527
215 0.112446
220 0.19662
225 0.163443
230 0.184552
235 0.152606
240 0.189769
245 0.180051
250 0.191032
255 0.172554
260 0.118381
265 0.189191
270 0.303839
275 0.23331
280 0.224193
285 0.194477
290 0.257696
295 0.188451
300 0.233335
305 0.201059
310 0.202851
315 0.255224
320 0.249879
325 0.212306
330 0.332999
335 0.379356
340 7.84517
345 117.02
350 168.4
355 41.8554
360 6.59612
365 3.00763
370 2.96294
375 2.59492
380 2.7865
385 5.81724
390 9.35916
395 7.60357
400 6.25594
405 5.64995
410 5.54879
415 5.56965
420 5.99072
425 6.11202
430 6.16433
435 5.97642
440 5.96299
445 6.26323
450 6.07718
455 6.26237
460 5.5266
465 5.73888
470 5.67544
475 5.30678
480 4.975
485 4.69028
490 4.73668
495 4.17307
500 3.9385
505 3.55717
510 3.22855
515 3.08522
520 2.89825
525 2.59264
530 2.27991
535 1.89759
540 1.95963
545 1.8675
550 1.50961
555 1.33146
560 1.36302
565 1.13846
570 0.993936
575 0.725703
580 0.57505
585 0.555484
590 0.450533
595 0.415891
600 0.403789
Ex : 358
200 0.173967
205 0.232185
210 0.220237
215 0.173909
220 0.171128
225 0.158043
230 0.240925
235 0.189371
240 0.186283
245 0.158976
250 0.140779
255 0.18036
260 0.190032
265 0.174985
270 0.177523
275 0.213585
280 0.1525
285 0.127672
290 0.171367
295 0.158702
300 0.163924
305 0.164918
310 0.183362
315 0.170134
320 0.23292
325 0.221935
330 0.215411
335 0.29792
340 0.374519
345 7.48293
350 112.211
355 169.86
360 42.59
365 6.59599
370 2.99514
375 3.01281
380 2.67862
385 2.28104
390 4.76201
395 9.23018
400 8.2434
405 6.29038
410 5.50132
415 5.42292
420 5.6783
425 5.88423
430 5.99392
435 5.50004
440 6.06952
445 6.04624
450 6.25263
455 5.74327
460 5.50525
465 5.6123
470 5.31046
475 5.30628
480 4.86598
485 4.91023
490 4.67935
495 4.68839
500 4.03504
505 3.62344
510 3.30003
515 3.08536
520 2.84604
525 2.56713
530 2.41835
535 2.02731
540 1.95979
545 1.73431
550 1.54032
555 1.50714
560 1.21644
565 1.13985
570 1.03877
575 0.682357
580 0.6306
585 0.536229
590 0.584264
595 0.448403
600 0.886982
Ex : 363
200 0.134873
205 0.149473
210 0.169946
215 0.146072
220 0.164427
225 0.17335
230 0.14086
235 0.16051
240 0.179243
245 0.160031
250 0.157898
255 0.189938
260 0.172264
265 0.175949
270 0.164564
275 0.158468
280 0.221518
285 0.203425
290 0.134881
295 0.188053
300 0.183353
305 0.182371
310 0.190898
315 0.199562
320 0.170996
325 0.200331
330 0.190516
335 0.302301
340 0.350658
345 0.341138
350 6.83538
355 109.182
360 170.3
365 44.431
370 6.94057
375 2.80211
380 2.92569
385 2.6801
390 2.51822
395 3.88093
400 8.16969
405 8.96719
410 6.50036
415 5.40649
420 5.38166
425 5.51284
430 5.49662
435 5.55154
440 5.42776
445 5.43545
450 5.68238
455 5.6387
460 5.54543
465 5.38502
470 5.17896
475 5.2295
480 5.08703
485 4.71595
490 4.67207
495 4.19632
500 3.87896
505 3.46919
510 3.25959
515 2.86328
520 2.91422
525 2.81965
530 2.29434
535 2.02916
540 2.09735
545 1.69316
550 1.71976
555 1.50136
560 1.28484
565 1.14799
570 0.876605
575 0.943262
580 0.631452
585 0.542172
590 0.512099
595 0.431038
600 0.335763
Ex : 368
200 0.105229
205 0.143189
210 0.160242
215 0.149514
220 0.176831
225 0.157938
230 0.133649
235 0.126165
240 0.150502
245 0.193534
250 0.197174
255 0.132074
260 0.173432
265 0.123568
270 0.172935
275 0.130163
280 0.159177
285 0.182083
290 0.145193
295 0.133508
300 0.128615
305 0.154445
310 0.148002
315 0.209846
320 0.159908
325 0.175946
330 0.152599
335 0.239158
340 0.213845
345 0.231255
350 0.375391
355 5.82348
360 105.857
365 175.395
370 47.2848
375 7.17786
380 2.63351
385 2.76331
390 2.56406
395 2.48168
400 3.44213
405 6.79445
410 9.24775
415 6.79005
420 5.32852
425 4.97967
430 4.98709
435 5.08966
440 4.95143
445 5.37397
450 5.12625
455 5.43673
460 5.218
465 5.16465
470 5.10517
475 4.91496
480 4.62348
485 4.59262
490 4.54667
495 4.1248
500 3.80776
505 3.4878
510 3.28617
515 2.93679
520 2.77767
525 2.45564
530 2.28184
535 2.04632
540 1.79284
545 1.69814
550 1.59945
555 1.41258
560 1.31839
565 1.18701
570 0.991947
575 0.734737
580 0.622145
585 0.531473
590 0.413629
595 0.483224
600 0.323657
Ex : 373
200 0.177782
205 0.161647
210 0.125592
215 0.0980587
220 0.106925
225 0.113432
230 0.138005
235 0.0945999
240 0.157079
245 0.176004
250 0.147714
255 0.185393
260 0.150794
265 0.155786
270 0.122365
275 0.186117
280 0.160454
285 0.210748
290 0.177173
295 0.208618
300 0.125715
305 0.22362
310 0.142928
315 0.139638
320 0.164853
325 0.200026
330 0.190756
335 0.158512
340 0.212176
345 0.223538
350 0.219166
355 0.355698
360 7.0468
365 110.778
370 175.207
375 46.9577
380 6.9801
385 2.75435
390 2.78228
395 2.64344
400 2.48359
405 3.09871
410 5.48372
415 8.33876
420 6.72409
425 5.51316
430 4.97577
435 4.74111
440 4.85023
445 4.68381
450 4.93645
455 5.08835
460 5.02286
465 4.85357
470 5.10025
475 4.75872
480 4.91343
485 4.57711
490 4.34121
495 3.88525
500 3.79149
505 3.6704
510 3.18248
515 3.15478
520 2.77948
525 2.39898
530 2.26607
535 2.05939
540 1.82114
545 1.70857
550 1.49357
555 1.44792
560 1.39389
565 1.10723
570 1.00336
575 0.737841
580 0.656429
585 0.603726
590 0.459671
595 0.365635
600 0.255519
Ex : 378
200 0.174864
205 0.124595
210 0.116881
215 0.106923
220 0.15081
225 0.152637
230 0.19426
235 0.145064
240 0.131578
245 0.162833
250 0.132509
255 0.184557
260 0.133439
265 0.151183
270 0.142629
275 0.130051
280 0.119557
285 0.157283
290 0.146389
295 0.155006
300 0.140256
305 0.154359
310 0.194074
315 0.179484
320 0.16091
325 0.1876
330 0.167808
335 0.179749
340 0.191575
345 0.153451
350 0.169053
355 0.274186
360 0.37128
365 6.39208
370 111.574
375 181.723
380 49.787
385 7.32988
390 2.74641
395 2.87959
400 3.08731
405 2.8243
410 2.80352
415 4.37236
420 7.87493
425 7.22584
430 5.43994
435 4.89114
440 4.69279
445 4.76654
450 4.65921
455 4.73067
460 4.73323
465 4.85921
470 4.73447
475 4.80454
480 4.76094
485 4.35514
490 4.42579
495 4.16234
500 3.82491
505 3.5215
510 3.34201
515 3.03123
520 3.00773
525 2.52474
530 2.32184
535 2.27546
540 1.82183
545 1.82168
550 1.55014
555 1.35188
560 1.20014
565 1.00846
570 0.901858
575 0.833141
580 0.645164
585 0.497515
590 0.471521
595 0.469223
600 0.474616
Ex : 383
200 0.113981
205 0.11608
210 0.145313
215 0.141141
220 0.12835
225 0.129999
230 0.129759
235 0.0842246
240 0.146263
245 0.13364
250 0.142332
255 0.146833
260 0.132435
265 0.147633
270 0.165169
275 0.168054
280 0.161788
285 0.115442
290 0.191326
295 0.12422
300 0.154344
305 0.124575
310 0.130892
315 0.125545
320 0.148446
325 0.146658
330 0.137004
335 0.225419
340 0.210096
345 0.246232
350 0.226454
355 0.239918
360 0.275909
365 0.406082
370 6.40764
375 112.865
380 186.764
385 50.8022
390 7.50391
395 2.7338
400 2.81936
405 3.0119
410 2.52435
415 2.39036
420 3.56075
425 7.20418
430 7.5123
435 5.49107
440 4.80687
445 4.34429
450 4.23244
455 4.41858
460 4.52749
465 4.6099
470 4.6242
475 4.49574
480 4.46894
485 4.36227
490 3.93075
495 3.77874
500 3.82055
505 3.62456
510 3.30654
515 3.16163
520 2.76231
525 2.37491
530 2.31174
535 2.01786
540 1.93505
545 1.70194
550 1.60135
555 1.39755
560 1.34936
565 1.10377
570 0.940913
575 0.714879
580 0.557485
585 0.526484
590 0.399455
595 0.369781
600 0.410462
Ex : 388
200 0.1287
205 0.125441
210 0.0985944
215 0.124821
220 0.100869
225 0.11033
230 0.124148
235 0.130113
240 0.154236
245 0.115974
250 0.137747
255 0.164574
260 0.132577
265 0.144529
270 0.144523
275 0.140425
280 0.12881
285 0.136401
290 0.0915677
295 0.148998
300 0.160112
305 0.113401
310 0.129292
315 0.176875
320 0.265366
325 0.137959
330 0.110042
335 0.178115
340 0.171194
345 0.169734
350 0.189785
355 0.194786
360 0.237976
365 0.24194
370 0.44879
375 6.92892
380 114.4
385 187.041
390 50.4734
395 7.49713
400 2.85053
405 2.76671
410 2.78761
415 2.51319
420 2.37206
425 3.08936
430 5.82165
435 7.63476
440 5.92198
445 4.71581
450 4.42013
455 4.40247
460 4.32981
465 4.42978
470 4.17566
475 4.35169
480 4.20155
485 3.97145
490 3.97958
495 4.06616
500 3.79065
505 3.439
510 3.24862
515 2.69914
520 2.66239
525 2.58807
530 2.17685
535 2.08737
540 1.71976
545 1.69461
550 1.57204
555 1.47691
560 1.31903
565 1.1538
570 0.971307
575 0.773814
580 0.540148
585 0.583246
590 0.470613
595 0.419163
600 0.0980517
Ex : 393
200 0.131301
205 0.135385
210 0.133866
215 0.146828
220 0.128677
225 0.128901
230 0.101553
235 0.147058
240 0.115507
245 0.082206
250 0.108076
255 0.133114
260 0.157601
265 0.151879
270 0.113334
275 0.124007
280 0.113308
285 0.112257
290 0.131276
295 0.157192
300 0.113407
305 0.112267
310 0.10377
315 0.167884
320 0.106735
325 0.163777
330 0.14164
335 0.137281
340 0.104144
345 0.152545
350 0.191474
355 0.185751
360 0.203659
365 0.213386
370 0.259113
375 0.399767
380 5.72533
385 116.828
390 194.089
395 53.4535
400 7.63309
405 2.60408
410 2.41203
415 2.45972
420 2.39714
425 2.4403
430 2.74004
435 4.66709
440 7.36484
445 5.79445
450 4.84773
455 4.45315
460 4.08873
465 4.08938
470 3.84933
475 3.98469
480 4.20676
485 3.93991
490 3.79928
495 3.77039
500 3.5745
505 3.27703
510 3.12377
515 2.8699
520 2.75288
525 2.58122
530 2.23039
535 2.00825
540 1.74152
545 1.69041
550 1.50768
555 1.36811
560 1.27421
565 1.19919
570 1.03699
575 0.73259
580 0.600465
585 0.51646
590 0.379521
595 0.36356
600 0.390771
Ex : 398
200 0.142003
205 0.145709
210 0.100611
215 0.120716
220 0.108128
225 0.147602
230 0.134753
235 0.0999134
240 0.130996
245 0.124743
250 0.149767
255 0.141374
260 0.136352
265 0.145411
270 0.173182
275 0.182619
280 0.101917
285 0.130982
290 0.11706
295 0.114525
300 0.129424
305 0.177253
310 0.166812
315 0.152308
320 0.148534
325 0.145482
330 0.14593
335 0.127752
340 0.157663
345 0.146534
350 0.161944
355 0.188914
360 0.129642
365 0.259778
370 0.24018
375 0.229209
380 0.378407
385 6.41127
390 119.208
395 200.566
400 54.1685
405 7.7231
410 2.49149
415 2.16824
420 2.60836
425 2.40088
430 2.11929
435 2.46298
440 3.62829
445 6.50594
450 6.06053
455 4.65071
460 4.35662
465 3.94329
470 3.89879
475 3.73159
480 3.85113
485 3.90256
490 3.57083
495 3.64891
500 3.4894
505 3.10057
510 3.1121
515 2.86516
520 2.74591
525 2.41363
530 2.18985
535 2.05376
540 1.74926
545 1.60891
550 1.54731
555 1.30763
560 1.23616
565 1.21143
570 0.888962
575 0.789444
580 0.650963
585 0.543913
590 0.412043
595 0.402237
600 0.998067
Ex : 403
200 0.103342
205 0.149302
210 0.0910895
215 0.108358
220 0.147444
225 0.156846
230 0.105915
235 0.133028
240 0.0875299
245 0.114105
250 0.137966
255 0.135804
260 0.138257
265 0.144301
270 0.121128
275 0.110285
280 0.154253
285 0.14814
290 0.110543
295 0.123627
300 0.136825
305 0.10847
310 0.159766
315 0.138116
320 0.096526
325 0.114123
330 0.139743
335 0.0976233
340 0.180031
345 0.197742
350 0.172884
355 0.137776
360 0.164704
365 0.152996
370 0.181092
375 0.219577
380 0.225816
385 0.471736
390 7.09528
395 123.562
400 198.792
405 54.6863
410 7.69359
415 2.34907
420 2.17818
425 2.49264
430 2.34493
435 2.04099
440 2.337
445 3.05691
450 6.02628
455 6.56138
460 4.86732
465 4.07567
470 3.827
475 3.65072
480 3.66834
485 3.61908
490 3.41923
495 3.38055
500 3.20193
505 3.00148
510 2.92052
515 2.47848
520 2.5097
525 2.41404
530 2.22126
535 1.92845
540 1.94796
545 1.73279
550 1.5475
555 1.26308
560 1.22875
565 1.02792
570 0.961987
575 0.735116
580 0.651201
585 0.500515
590 0.426993
595 0.378757
600 0.584502
Ex : 408
200 0.100558
205 0.101228
210 0.105844
215 0.131204
220 0.140555
225 0.142719
230 0.169243
235 0.118304
240 0.15241
245 0.160322
250 0.135583
255 0.114969
260 0.114398
265 0.123494
270 0.15008
275 0.129046
280 0.164655
285 0.0949704
290 0.0993698
295 0.161726
300 0.133697
305 0.204783
310 0.0977921
315 0.107867
320 0.125675
325 0.123019
330 0.138256
335 0.165436
340 0.17694
345 0.145578
350 0.147368
355 0.114439
360 0.113454
365 0.151574
370 0.166652
375 0.224954
380 0.248248
385 0.306361
390 0.361594
395 6.92578
400 124.944
405 203.328
410 53.8406
415 7.68464
420 2.30613
425 1.9175
430 2.29507
435 2.34581
440 2.1351
445 2.23433
450 2.7353
455 4.99745
460 6.45339
465 5.23804
470 4.28447
475 3.79901
480 3.35312
485 3.37326
490 3.17466
495 3.17913
500 3.08493
505 3.01212
510 2.763
515 2.57996
520 2.45279
525 2.24376
530 2.07616
535 1.96539
540 1.85469
545 1.69456
550 1.40259
555 1.32928
560 1.18553
565 1.04451
570 0.872311
575 0.709051
580 0.619332
585 0.582049
590 0.371643
595 0.322317
600 0.0458461
Ex : 413
200 0.118688
205 0.124956
210 0.138771
215 0.09624
220 0.122737
225 0.139786
230 0.163477
235 0.111701
240 0.133644
245 0.110731
250 0.135004
255 0.108837
260 0.162145
265 0.124109
270 0.126911
275 0.147976
280 0.103744
285 0.127357
290 0.109258
295 0.130837
300 0.107582
305 0.0887498
310 0.0979915
315 0.097477
320 0.114806
325 0.148284
330 0.130865
335 0.167302
340 0.116767
345 0.10515
350 0.162719
355 0.122105
360 0.128793
365 0.155934
370 0.169688
375 0.184655
380 0.17109
385 0.230501
390 0.339004
395 0.383196
400 7.61871
405 128.381
410 201.901
415 53.2101
420 7.45485
425 2.17153
430 1.90969
435 2.4194
440 2.17853
445 2.11044
450 2.06832
455 2.37854
460 4.12267
465 6.2865
470 5.07369
475 3.98595
480 3.8837
485 3.35437
490 3.08897
495 2.83322
500 2.87701
505 2.77915
510 2.65174
515 2.53333
520 2.24845
525 2.31917
530 2.05278
535 1.939
540 1.71089
545 1.66605
550 1.46871
555 1.31182
560 1.2276
565 1.02292
570 0.885292
575 0.715579
580 0.525778
585 0.450081
590 0.409375
595 0.296966
600 0.499274
Ex : 418
200 0.114511
205 0.0988927
210 0.0737496
215 0.127896
220 0.129343
225 0.109412
230 0.13756
235 0.0971994
240 0.0931598
245 0.100512
250 0.0853645
255 0.0892679
260 0.0956655
265 0.120218
270 0.151901
275 0.132765
280 0.136654
285 0.153157
290 0.136712
295 0.170183
300 0.1201
305 0.128688
310 0.11084
315 0.17378
320 0.135906
325 0.155315
330 0.147086
335 0.085821
340 0.0917831
345 0.139907
350 0.159869
355 0.146768
360 0.138973
365 0.12979
370 0.152706
375 0.149409
380 0.16983
385 0.218288
390 0.27644
395 0.257448
400 0.380287
405 7.34603
410 128.47
415 203.427
420 54.3534
425 7.58787
430 2.28207
435 1.81992
440 2.07782
445 2.10617
450 1.98752
455 2.09414
460 2.30393
465 3.2295
470 5.67546
475 5.41582
480 4.0998
485 3.61844
490 3.10068
495 2.8781
500 2.59059
505 2.52256
510 2.52359
515 2.30875
520 2.14165
525 1.91948
530 1.86443
535 1.81744
540 1.62722
545 1.51596
550 1.46459
555 1.19133
560 1.01959
565 1.024
570 0.873996
575 0.752409
580 0.610406
585 0.498784
590 0.411269
595 0.314898
600 0.478936
Ex : 423
200 0.132791
205 0.105827
210 0.10221
215 0.138883
220 0.0981461
225 0.122486
230 0.122681
235 0.115985
240 0.12869
245 0.126695
250 0.136867
255 0.124668
260 0.0983111
265 0.13619
270 0.134504
275 0.125396
280 0.125733
285 0.166644
290 0.164269
295 0.161805
300 0.1548
305 0.130797
310 0.12838
315 0.135306
320 0.109788
325 0.0978347
330 0.107791
335 0.13071
340 0.15088
345 0.118446
350 0.144882
355 0.12784
360 0.139465
365 0.124447
370 0.15224
375 0.141869
380 0.116948
385 0.178647
390 0.177615
395 0.218748
400 0.257935
405 0.415603
410 7.724
415 134.137
420 205.716
425 51.6951
430 7.23169
435 2.25303
440 1.62466
445 2.00898
450 2.08461
455 2.07579
460 2.06929
465 2.15739
470 2.67218
475 4.94727
480 5.88286
485 4.08298
490 3.47588
495 3.06255
500 2.53634
505 2.50238
510 2.3529
515 2.27234
520 2.1779
525 1.9887
530 1.81773
535 1.87818
540 1.58125
545 1.5171
550 1.35645
555 1.25365
560 1.15205
565 0.885897
570 0.851349
575 0.627211
580 0.603547
585 0.476599
590 0.428087
595 0.29369
600 0.130258
Ex : 428
200 0.0981929
205 0.138413
210 0.114681
215 0.126151
220 0.158171
225 0.109445
230 0.147466
235 0.108008
240 0.12027
245 0.13119
250 0.120552
255 0.153887
260 0.124819
265 0.167791
270 0.106178
275 0.108564
280 0.128983
285 0.131654
290 0.126782
295 0.123116
300 0.0933899
305 0.132697
310 0.128022
315 0.103218
320 0.1159
325 0.0943319
330 0.0922862
335 0.153424
340 0.128938
345 0.131244
350 0.192563
355 0.135626
360 0.138486
365 0.206881
370 0.200783
375 0.180218
380 0.147496
385 0.187933
390 0.199462
395 0.193496
400 0.218191
405 0.277362
410 0.416239
415 8.22564
420 134.164
425 208.419
430 54.3806
435 7.54765
440 2.29938
445 1.5971
450 2.01755
455 2.12587
460 2.02064
465 1.97045
470 2.04933
475 2.45417
480 4.0829
485 5.58376
490 4.33158
495 3.52568
500 3.1468
505 2.53194
510 2.25092
515 2.12517
520 1.93023
525 1.8832
530 1.88034
535 1.79566
540 1.55248
545 1.49787
550 1.40516
555 1.30281
560 1.09077
565 1.0199
570 0.902174
575 0.682277
580 0.585112
585 0.544657
590 0.421661
595 0.342571
600 0.901396
Ex : 433
200 0.214557
205 0.161817
210 0.134623
215 0.121776
220 0.106599
225 0.128158
230 0.11369
235 0.0990139
240 0.114856
245 0.185924
250 0.165055
255 0.145051
260 0.143003
265 0.117682
270 0.131222
275 0.156734
280 0.135375
285 0.119758
290 0.143299
295 0.164663
300 0.191627
305 0.111998
310 0.133446
315 0.145467
320 0.142458
325 0.159486
330 0.15308
335 0.134782
340 0.157639
345 0.15522
350 0.133154
355 0.163485
360 0.182944
365 0.158682
370 0.192761
375 0.156707
380 0.158431
385 0.168522
390 0.148409
395 0.17494
400 0.175752
405 0.226572
410 0.266222
415 0.401109
420 8.79957
425 140.128
430 208.03
435 52.0535
440 7.2879
445 2.19234
450 1.71942
455 2.07741
460 2.05882
465 1.8284
470 1.80449
475 2.00714
480 2.2245
485 3.28082
490 5.22361
495 4.54645
500 3.0445
505 2.58822
510 2.38004
515 2.05631
520 1.99219
525 2.00225
530 1.78276
535 1.70606
540 1.66856
545 1.65888
550 1.39266
555 1.24702
560 1.14285
565 0.945584
570 0.857816
575 0.631505
580 0.511715
585 0.469334
590 0.398281
595 0.36593
600 0.0416414
Ex : 438
200 0.194321
205 0.161797
210 0.120418
215 0.138729
220 0.173673
225 0.172979
230 0.119601
235 0.126123
240 0.144585
245 0.178704
250 0.13803
255 0.120701
260 0.130666
265 0.10736
270 0.136086
275 0.127361
280 0.103796
285 0.114216
290 0.133525
295 0.184503
300 0.135182
305 0.14225
310 0.167034
315 0.132551
320 0.102613
325 0.12354
330 0.141296
335 0.155323
340 0.169416
345 0.145393
350 0.160968
355 0.125196
360 0.180699
365 0.153907
370 0.136411
375 0.154145
380 0.142035
385 0.149115
390 0.151264
395 0.137773
400 0.166997
405 0.218443
410 0.240684
415 0.300691
420 0.489369
425 8.45869
430 139.573
435 215.45
440 54.556
445 7.62264
450 2.16127
455 1.64308
460 1.74569
465 2.15795
470 1.96582
475 1.76727
480 1.93782
485 1.8813
490 2.63849
495 4.17793
500 4.84296
505 3.25631
510 2.66549
515 2.30614
520 2.16725
525 2.00953
530 1.71869
535 1.61806
540 1.52384
545 1.51799
550 1.31115
555 1.23049
560 1.08371
565 0.961547
570 0.945548
575 0.654505
580 0.555426
585 0.504678
590 0.451677
595 0.329581
600 0.295856
Ex : 443
200 0.125
205 0.138362
210 0.113944
215 0.129894
220 0.152303
225 0.10509
230 0.178446
235 0.126695
240 0.137959
245 0.155915
250 0.132322
255 0.110512
260 0.146916
265 0.111695
270 0.0931554
275 0.153575
280 0.153663
285 0.113542
290 0.0909967
295 0.127978
300 0.179628
305 0.162813
310 0.156887
315 0.17319
320 0.10916
325 0.125874
330 0.156717
335 0.14862
340 0.153201
345 0.130189
350 0.17705
355 0.148888
360 0.150467
365 0.128884
370 0.181275
375 0.140472
380 0.18372
385 0.188616
390 0.12527
395 0.197127
400 0.226755
405 0.248669
410 0.206096
415 0.194665
420 0.288826
425 0.40823
430 9.50201
435 146.705
440 215.645
445 53.5277
450 7.28327
455 2.15771
460 1.44363
465 1.898
470 2.02234
475 1.9457
480 1.77074
485 1.81912
490 1.94701
495 2.1726
500 3.71861
505 4.80507
510 3.29489
515 2.49166
520 2.23784
525 2.0931
530 1.79444
535 1.67895
540 1.53456
545 1.60566
550 1.38547
555 1.26516
560 1.09683
565 0.938113
570 0.81592
575 0.865292
580 0.606552
585 0.478232
590 0.459339
595 0.294642
600 0.58816
Ex : 448
200 0.143748
205 0.161482
210 0.149873
215 0.191588
220 0.209867
225 0.145548
230 0.1421
235 0.149123
240 0.160589
245 0.189953
250 0.106493
255 0.118211
260 0.152819
265 0.14398
270 0.121029
275 0.144951
280 0.116306
285 0.121657
290 0.160544
295 0.107643
300 0.114167
305 0.111297
310 0.129621
315 0.131564
320 0.139363
325 0.152575
330 0.152943
335 0.121723
340 0.11788
345 0.137769
350 0.14285
355 0.142532
360 0.151007
365 0.124536
370 0.133377
375 0.121575
380 0.167358
385 0.130679
390 0.109964
395 0.188997
400 0.182735
405 0.189742
410 0.191565
415 0.229872
420 0.203093
425 0.334527
430 0.432707
435 9.57349
440 154.606
445 227.205
450 56.3301
455 7.67388
460 2.18773
465 1.46725
470 1.70009
475 1.97283
480 1.96798
485 1.81008
490 1.71732
495 1.68248
500 1.87487
505 2.96887
510 4.31213
515 3.54761
520 2.57258
525 2.12624
530 1.93436
535 1.72606
540 1.50112
545 1.36004
550 1.45216
555 1.29154
560 1.2128
565 1.01997
570 0.842972
575 0.703422
580 0.619903
585 0.49688
590 0.425667
595 0.3759
600 0.722603
Ex : 453
200 0.139932
205 0.133348
210 0.118127
215 0.102975
220 0.10829
225 0.136682
230 0.106293
235 0.111657
240 0.0988381
245 0.130511
250 0.135006
255 0.141688
260 0.126461
265 0.0961995
270 0.139924
275 0.102895
280 0.15217
285 0.120756
290 0.142644
295 0.150593
300 0.149587
305 0.142928
310 0.139483
315 0.12397
320 0.147843
325 0.136986
330 0.121539
335 0.136118
340 0.13972
345 0.127314
350 0.172336
355 0.134371
360 0.152811
365 0.169663
370 0.126985
375 0.117594
380 0.14158
385 0.136439
390 0.170338
395 0.195029
400 0.186661
405 0.172045
410 0.204928
415 0.170573
420 0.215817
425 0.244298
430 0.281754
435 0.428676
440 10.7764
445 179.127
450 246.674
455 56.8666
460 7.84652
465 2.26261
470 1.48094
475 1.63981
480 2.00869
485 1.86583
490 1.78102
495 1.54019
500 1.67247
505 1.64976
510 2.17693
515 3.93225
520 3.98746
525 2.50868
530 2.11904
535 1.92298
540 1.66764
545 1.5848
550 1.54638
555 1.23707
560 1.17148
565 1.00514
570 0.806381
575 0.70229
580 0.602233
585 0.409538
590 0.401825
595 0.412998
600 0.333795
Ex : 458
200 0.153864
205 0.118637
210 0.12921
215 0.161302
220 0.167974
225 0.131359
230 0.170891
235 0.122212
240 0.167021
245 0.169379
250 0.151219
255 0.144247
260 0.125859
265 0.136941
270 0.129387
275 0.122773
280 0.11745
285 0.17614
290 0.147753
295 0.147173
300 0.099462
305 0.147889
310 0.101583
315 0.150619
320 0.151942
325 0.121713
330 0.126149
335 0.144694
340 0.17115
345 0.142143
350 0.129493
355 0.102231
360 0.159656
365 0.151719
370 0.146149
375 0.151892
380 0.165603
385 0.152669
390 0.169202
395 0.160185
400 0.124416
405 0.227579
410 0.196788
415 0.185659
420 0.198766
425 0.20245
430 0.23913
435 0.288232
440 0.44263
445 10.6199
450 165.208
455 236.661
460 57.3112
465 7.82028
470 2.41331
475 1.48056
480 1.52994
485 1.84418
490 1.85317
495 1.73013
500 1.52118
505 1.54206
510 1.65655
515 1.87611
520 3.26029
525 4.09765
530 2.88491
535 2.20819
540 1.99148
545 1.76485
550 1.40239
555 1.26255
560 1.06083
565 0.999572
570 0.828275
575 0.773353
580 0.698493
585 0.465955
590 0.438175
595 0.403355
600 0.193601
Ex : 463
200 0.141548
205 0.160906
210 0.117697
215 0.102903
220 0.137165
225 0.125612
230 0.14986
235 0.0944477
240 0.113007
245 0.122874
250 0.164747
255 0.110658
260 0.0951876
265 0.133985
270 0.119145
275 0.109281
280 0.121555
285 0.102218
290 0.142667
295 0.135215
300 0.119461
305 0.235781
310 0.117872
315 0.13914
320 0.117574
325 0.112775
330 0.12822
335 0.134547
340 0.147138
345 0.139957
350 0.157328
355 0.105929
360 0.130584
365 0.174383
370 0.155254
375 0.168542
380 0.151793
385 0.152371
390 0.157473
395 0.207486
400 0.167186
405 0.193242
410 0.153127
415 0.14828
420 0.16741
425 0.205303
430 0.192313
435 0.24051
440 0.299024
445 0.396776
450 10.3109
455 167.532
460 247.842
465 59.7019
470 7.98332
475 2.22803
480 1.4139
485 1.44944
490 1.83785
495 1.81912
500 1.70868
505 1.57387
510 1.59566
515 1.66675
520 1.68271
525 2.59336
530 3.80502
535 3.13912
540 2.04539
545 1.91116
550 1.67327
555 1.36831
560 1.08745
565 1.04759
570 0.955111
575 0.779611
580 0.699383
585 0.53662
590 0.43912
595 0.401911
600 0.045736
Ex : 468
200 0.129221
205 0.103265
210 0.0864653
215 0.0977691
220 0.110287
225 0.13879
230 0.117239
235 0.0935894
240 0.156037
245 0.114571
250 0.0680518
255 0.099352
260 0.136142
265 0.138073
270 0.149363
275 0.095271
280 0.0832655
285 0.171506
290 0.12103
295 0.109308
300 0.084298
305 0.105712
310 0.12894
315 0.112334
320 0.115947
325 0.164383
330 0.127076
335 0.0824508
340 0.116073
345 0.132028
350 0.138683
355 0.110446
360 0.130512
365 0.106493
370 0.125363
375 0.111232
380 0.113047
385 0.135491
390 0.143981
395 0.117679
400 0.162143
405 0.139638
410 0.134878
415 0.13967
420 0.141205
425 0.171312
430 0.169842
435 0.178443
440 0.235702
445 0.293575
450 0.399435
455 11.0409
460 166.502
465 254.912
470 61.4297
475 8.08808
480 2.23827
485 1.42441
490 1.47504
495 1.82408
500 1.77318
505 1.64091
510 1.45098
515 1.58422
520 1.53989
525 1.60167
530 2.2491
535 3.26201
540 3.43353
545 2.26446
550 1.81924
555 1.61297
560 1.41257
565 1.105
570 0.936964
575 0.755135
580 0.629883
585 0.494557
590 0.410411
595 0.336571
600 0.356741
Ex : 473
200 0.146642
205 0.12673
210 0.150237
215 0.166824
220 0.140155
225 0.0969094
230 0.0903606
235 0.106522
240 0.135477
245 0.135874
250 0.124193
255 0.099225
260 0.125282
265 0.152864
270 0.13271
275 0.127374
280 0.108856
285 0.0922765
290 0.100844
295 0.120097
300 0.134877
305 0.122705
310 0.113148
315 0.115926
320 0.149477
325 0.198342
330 0.143399
335 0.155909
340 0.117608
345 0.138874
350 0.120245
355 0.149126
360 0.138529
365 0.16942
370 0.139551
375 0.130889
380 0.0951095
385 0.122245
390 0.125964
395 0.172268
400 0.134532
405 0.158051
410 0.152441
415 0.14607
420 0.133948
425 0.14094
430 0.187154
435 0.206154
440 0.192999
445 0.195129
450 0.321365
455 0.472987
460 12.5376
465 185.325
470 261.566
475 61.5127
480 8.1791
485 2.25565
490 1.48518
495 1.32669
500 1.65503
505 1.76851
510 1.68897
515 1.61469
520 1.54227
525 1.55571
530 1.6758
535 1.964
540 2.79808
545 3.35486
550 2.31837
555 1.62738
560 1.38902
565 1.27404
570 1.00205
575 0.839849
580 0.631237
585 0.534962
590 0.417872
595 0.378443
600 0.454328
Ex : 478
200 0.124751
205 0.124991
210 0.112992
215 0.192354
220 0.159223
225 0.138722
230 0.118091
235 0.133279
240 0.145188
245 0.179507
250 0.138526
255 0.127381
260 0.131541
265 0.130161
270 0.125674
275 0.162556
280 0.152666
285 0.17138
290 0.185433
295 0.222483
300 0.164763
305 0.145251
310 0.140171
315 0.155939
320 0.109028
325 0.181282
330 0.154413
335 0.168761
340 0.133092
345 0.134668
350 0.180723
355 0.178448
360 0.188345
365 0.147072
370 0.168891
375 0.132117
380 0.157522
385 0.188284
390 0.173189
395 0.16457
400 0.165384
405 0.178917
410 0.196949
415 0.245903
420 0.260999
425 0.146398
430 0.241172
435 0.181513
440 0.217022
445 0.21658
450 0.382056
455 0.335579
460 0.602171
465 14.2804
470 186.367
475 248.541
480 59.8197
485 7.93387
490 1.9983
495 1.30908
500 1.36112
505 1.63247
510 1.65978
515 1.65926
520 1.58621
525 1.55798
530 1.63403
535 1.65435
540 1.58683
545 2.31403
550 3.26946
555 2.41636
560 1.47073
565 1.24463
570 1.16068
575 0.856579
580 0.755818
585 0.53387
590 0.469256
595 0.379969
600 0.280209
Ex : 483
200 0.120774
205 0.193067
210 0.140254
215 0.171873
220 0.191874
225 0.173168
230 0.140569
235 0.144652
240 0.140622
245 0.19031
250 0.141667
255 0.135154
260 0.0996408
265 0.163202
270 0.133154
275 0.142558
280 0.151886
285 0.178622
290 0.150145
295 0.151572
300 0.151566
305 0.167604
310 0.183227
315 0.159402
320 0.145975
325 0.127676
330 0.141085
335 0.180553
340 0.166764
345 0.140864
350 0.174537
355 0.188468
360 0.161698
365 0.156326
370 0.148233
375 0.11919
380 0.140934
385 0.132235
390 0.172083
395 0.187809
400 0.191991
405 0.114431
410 0.149951
415 0.132278
420 0.140448
425 0.200065
430 0.170053
435 0.196113
440 0.187752
445 0.173231
450 0.238502
455 0.356558
460 0.444627
465 0.560672
470 11.0712
475 178.423
480 263.494
485 62.7744
490 8.32286
495 2.05063
500 1.29143
505 1.22233
510 1.5125
515 1.69084
520 1.84936
525 1.6127
530 1.59987
535 1.66732
540 1.59433
545 1.51625
550 1.66372
555 2.63919
560 2.80422
565 1.65399
570 1.19578
575 1.08029
580 0.759225
585 0.613414
590 0.454616
595 0.395946
600 0.536322
Ex : 488
200 0.181383
205 0.128708
210 0.194097
215 0.166156
220 0.159842
225 0.151712
230 0.188405
235 0.166829
240 0.196981
245 0.158591
250 0.167874
255 0.185958
260 0.168577
265 0.166741
270 0.209041
275 0.155043
280 0.138247
285 0.142234
290 0.178986
295 0.140606
300 0.136707
305 0.122833
310 0.158498
315 0.1526
320 0.136685
325 0.158842
330 0.162467
335 0.180568
340 0.185608
345 0.228175
350 0.176823
355 0.20236
360 0.231175
365 0.182534
370 0.134548
375 0.196316
380 0.156071
385 0.159012
390 0.187627
395 0.178904
400 0.142977
405 0.218058
410 0.215337
415 0.159349
420 0.18202
425 0.171738
430 0.21861
435 0.162801
440 0.269066
445 0.176154
450 0.222616
455 0.280783
460 0.289662
465 0.385973
470 0.517861
475 12.9403
480 190.451
485 257.524
490 60.4521
495 7.88991
500 1.96304
505 1.43997
510 1.29516
515 1.45479
520 1.80389
525 1.82515
530 1.65697
535 1.50819
540 1.40196
545 1.44673
550 1.35434
555 1.47795
560 2.05725
565 2.42944
570 1.74329
575 1.05842
580 0.758844
585 0.69622
590 0.572878
595 0.437597
600 0.451638
Ex : 493
200 0.173325
205 0.157336
210 0.189228
215 0.145008
220 0.210512
225 0.140021
230 0.118936
235 0.125651
240 0.144633
245 0.190749
250 0.146203
255 0.178246
260 0.175829
265 0.158454
270 0.169463
275 0.159015
280 0.156939
285 0.130455
290 0.159802
295 0.154537
300 0.152537
305 0.196502
310 0.151567
315 0.212705
320 0.148308
325 0.138435
330 0.167936
335 0.168184
340 0.136274
345 0.187422
350 0.197515
355 0.174716
360 0.215986
365 0.181746
370 0.136042
375 0.175583
380 0.164709
385 0.178462
390 0.207316
395 0.151044
400 0.200485
405 0.170036
410 0.200562
415 0.169005
420 0.213798
425 0.195787
430 0.188603
435 0.256856
440 0.199601
445 0.192141
450 0.235155
455 0.247525
460 0.30631
465 0.324184
470 0.360487
475 0.524337
480 11.8651
485 188.241
490 268.323
495 61.9195
500 8.14662
505 1.98399
510 1.45627
515 1.32525
520 1.56289
525 1.69727
530 1.71306
535 1.60919
540 1.57474
545 1.47254
550 1.21923
555 1.23001
560 1.27111
565 1.42072
570 2.19468
575 1.75519
580 1.02442
585 0.679881
590 0.53295
595 0.51658
600 0.264511
Ex : 498
200 0.248706
205 0.220139
210 0.173864
215 0.229935
220 0.17344
225 0.216997
230 0.248308
235 0.179716
240 0.189005
245 0.165127
250 0.170025
255 0.214052
260 0.183989
265 0.15171
270 0.195506
275 0.233276
280 0.202689
285 0.173959
290 0.151285
295 0.17479
300 0.162038
305 0.189868
310 0.176481
315 0.17335
320 0.186478
325 0.163562
330 0.197876
335 0.214198
340 0.143646
345 0.208255
350 0.214802
355 0.274927
360 0.210684
365 0.136873
370 0.203125
375 0.17764
380 0.176155
385 0.236481
390 0.228768
395 0.211544
400 0.195039
405 0.27168
410 0.214223
415 0.198756
420 0.185488
425 0.17632
430 0.189155
435 0.180016
440 0.187949
445 0.165178
450 0.18125
455 0.294093
460 0.262225
465 0.247272
470 0.326878
475 0.352664
480 0.584294
485 14.544
490 203.2
495 271.492
500 62.6707
505 8.20076
510 2.10967
515 1.50744
520 1.34484
525 1.48684
530 1.75948
535 1.78795
540 1.6342
545 1.36159
550 1.3116
555 1.20748
560 1.19025
565 1.01985
570 1.18118
575 1.66201
580 1.53072
585 0.87375
590 0.635394
595 0.557359
600 0.290964
Ex : 503
200 0.216782
205 0.194027
210 0.139009
215 0.11513
220 0.150944
225 0.181616
230 0.14708
235 0.213426
240 0.137202
245 0.220183
250 0.189947
255 0.162003
260 0.18498
265 0.182488
270 0.180717
275 0.188648
280 0.149781
285 0.204839
290 0.235034
295 0.180458
300 0.171995
305 0.197173
310 0.193058
315 0.192374
320 0.169609
325 0.218021
330 0.225648
335 0.239008
340 0.140388
345 0.201662
350 0.199929
355 0.18648
360 0.196499
365 0.186362
370 0.229127
375 0.172669
380 0.187707
385 0.25602
390 0.173573
395 0.214241
400 0.181647
405 0.189112
410 0.184417
415 0.173015
420 0.176632
425 0.319781
430 0.218549
435 0.262896
440 0.189295
445 0.187222
450 0.217261
455 0.278413
460 0.276249
465 0.259394
470 0.395755
475 0.338833
480 0.427955
485 0.537692
490 13.1006
495 194.136
500 263.984
505 60.9576
510 8.14961
515 2.18325
520 1.58354
525 1.48065
530 1.48145
535 1.49559
540 1.57281
545 1.50357
550 1.33447
555 1.1495
560 1.13046
565 0.928306
570 0.947351
575 0.896322
580 1.1403
585 1.27749
590 0.839449
595 0.589867
600 0.323326
Ex : 508
200 0.190832
205 0.165689
210 0.185532
215 0.174828
220 0.175314
225 0.240066
230 0.177277
235 0.160035
240 0.130039
245 0.197527
250 0.200783
255 0.230596
260 0.206256
265 0.208852
270 0.205309
275 0.173084
280 0.178881
285 0.158589
290 0.19835
295 0.169664
300 0.18106
305 0.156991
310 0.1604
315 0.167608
320 0.169972
325 0.228991
330 0.199894
335 0.208738
340 0.171973
345 0.209895
350 0.201377
355 0.234623
360 0.179306
365 0.16171
370 0.238943
375 0.189802
380 0.199319
385 0.174825
390 0.170384
395 0.194603
400 0.204789
405 0.204403
410 0.211045
415 0.224043
420 0.21447
425 0.187265
430 0.200796
435 0.234462
440 0.243708
445 0.292959
450 0.26101
455 0.236814
460 0.250478
465 0.298653
470 0.292314
475 0.294041
480 0.34611
485 0.399796
490 0.611906
495 13.5524
500 198.229
505 267.372
510 63.933
515 8.54787
520 2.25843
525 1.66833
530 1.44471
535 1.41932
540 1.66542
545 1.55447
550 1.4451
555 1.33033
560 1.04445
565 0.904734
570 0.793575
575 0.679785
580 0.641399
585 0.727671
590 0.985808
595 0.942158
600 1.5625
Ex : 513
200 0.220823
205 0.120467
210 0.167473
215 0.153276
220 0.197589
225 0.213627
230 0.235779
235 0.269163
240 0.174602
245 0.184522
250 0.22572
255 0.289847
260 0.217172
265 0.17455
270 0.165725
275 0.215793
280 0.138296
285 0.205539
290 0.178027
295 0.216836
300 0.158942
305 0.200272
310 0.202513
315 0.219635
320 0.23906
325 0.242643
330 0.21128
335 0.271761
340 0.222208
345 0.21936
350 0.149331
355 0.176581
360 0.195235
365 0.191324
370 0.233201
375 0.20229
380 0.206933
385 0.163763
390 0.189084
395 0.207939
400 0.18273
405 0.16207
410 0.192282
415 0.309148
420 0.16856
425 0.20026
430 0.236306
435 0.216207
440 0.246341
445 0.309909
450 0.248358
455 0.248373
460 0.229718
465 0.304457
470 0.238924
475 0.287003
480 0.338174
485 0.337756
490 0.400929
495 0.559046
500 11.9666
505 190.778
510 272.14
515 65.9916
520 8.93058
525 2.15935
530 1.64656
535 1.44156
540 1.43482
545 1.45198
550 1.40825
555 1.37595
560 1.12934
565 1.02975
570 0.895059
575 0.78577
580 0.57023
585 0.442148
590 0.556656
595 0.681041
600 0.441878
Ex : 518
200 0.278256
205 0.31732
210 0.251774
215 0.185014
220 0.264649
225 0.204406
230 0.150864
235 0.170003
240 0.207546
245 0.215137
250 0.219178
255 0.201173
260 0.207642
265 0.196533
270 0.205376
275 0.236973
280 0.218411
285 0.234335
290 0.23978
295 0.245198
300 0.194135
305 0.187206
310 0.210944
315 0.231459
320 0.224322
325 0.223413
330 0.165658
335 0.179829
340 0.212901
345 0.240732
350 0.221812
355 0.235749
360 0.244192
365 0.19297
370 0.266983
375 0.29348
380 0.241703
385 0.265568
390 0.279769
395 0.209648
400 0.189087
405 0.213191
410 0.259941
415 0.240147
420 0.23398
425 0.264843
430 0.229059
435 0.274159
440 0.24809
445 0.193574
450 0.208032
455 0.226193
460 0.246406
465 0.273179
470 0.28369
475 0.365766
480 0.329192
485 0.312223
490 0.34354
495 0.427556
500 0.599901
505 13.0264
510 185.979
515 266.103
520 66.3333
525 8.84838
530 2.36092
535 1.60669
540 1.20985
545 1.22382
550 1.20759
555 1.18566
560 1.18047
565 0.914982
570 0.936854
575 0.727893
580 0.554966
585 0.556566
590 0.409986
595 0.458384
600 0.0727717
Ex : 523
200 0.184963
205 0.200635
210 0.170854
215 0.216868
220 0.299099
225 0.247154
230 0.248588
235 0.171663
240 0.19265
245 0.286001
250 0.197545
255 0.195544
260 0.216596
265 0.212723
270 0.229872
275 0.240132
280 0.231026
285 0.191765
290 0.261729
295 0.263607
300 0.19811
305 0.259175
310 0.223677
315 0.193269
320 0.224034
325 0.163123
330 0.18564
335 0.201874
340 0.211051
345 0.222377
350 0.181715
355 0.226167
360 0.250691
365 0.211986
370 0.183944
375 0.19478
380 0.204436
385 0.137628
390 0.211129
395 0.206302
400 0.210879
405 0.236155
410 0.272603
415 0.343266
420 0.229782
425 0.255044
430 0.281101
435 0.300235
440 0.289907
445 0.258024
450 0.241355
455 0.230235
460 0.220124
465 0.290933
470 0.331894
475 0.280182
480 0.295121
485 0.310891
490 0.341231
495 0.288047
500 0.438439
505 0.573631
510 11.3973
515 178.629
520 262.007
525 67.507
530 8.96657
535 2.11092
540 1.32733
545 1.09351
550 1.07084
555 1.17335
560 1.04022
565 0.912854
570 0.928316
575 0.717161
580 0.639815
585 0.561402
590 0.502795
595 0.361314
600 0.317459
Ex : 528
200 0.205591
205 0.231299
210 0.189745
215 0.174707
220 0.223492
225 0.209699
230 0.234741
235 0.209412
240 0.197676
245 0.214163
250 0.202572
255 0.209732
260 0.251901
265 0.278072
270 0.203205
275 0.283151
280 0.216305
285 0.20537
290 0.230567
295 0.207799
300 0.2322
305 0.180398
310 0.216539
315 0.215786
320 0.197746
325 0.239217
330 0.222547
335 0.246964
340 0.217452
345 0.325827
350 0.232415
355 0.285876
360 0.297805
365 0.267693
370 0.223835
375 0.211954
380 0.225861
385 0.23898
390 0.258506
395 0.216444
400 0.300937
405 0.204129
410 0.264197
415 0.325388
420 0.188767
425 0.182706
430 0.210742
435 0.233112
440 0.252693
445 0.391583
450 0.340824
455 0.260159
460 0.225938
465 0.247262
470 0.236878
475 0.222095
480 0.278005
485 0.336736
490 0.260426
495 0.353461
500 0.394586
505 0.446731
510 0.549859
515 11.5885
520 184.167
525 266.642
530 66.4091
535 8.87965
540 2.14699
545 1.39421
550 1.08645
555 0.895311
560 0.910903
565 1.01876
570 0.912831
575 0.687126
580 0.497127
585 0.423405
590 0.426992
595 0.326934
600 0.339206
Ex : 533
200 0.188061
205 0.162131
210 0.210366
215 0.184067
220 0.201471
225 0.235353
230 0.296097
235 0.308649
240 0.284341
245 0.242321
250 0.228269
255 0.226228
260 0.214311
265 0.239438
270 0.244432
275 0.282053
280 0.212116
285 0.295132
290 0.14766
295 0.249244
300 0.217459
305 0.240822
310 0.146069
315 0.184813
320 0.307848
325 0.218831
330 0.25823
335 0.269149
340 0.362318
345 0.27823
350 0.243824
355 0.227531
360 0.261542
365 0.239471
370 0.279985
375 0.231991
380 0.288552
385 0.210804
390 0.287882
395 0.337624
400 0.277603
405 0.22812
410 0.228468
415 0.248705
420 0.214929
425 0.326152
430 0.220968
435 0.246242
440 0.294259
445 0.299359
450 0.273809
455 0.209706
460 0.283788
465 0.323574
470 0.268654
475 0.316619
480 0.279775
485 0.332977
490 0.351211
495 0.34828
500 0.40417
505 0.325041
510 0.397382
515 0.632874
520 10.8958
525 170.539
530 253.628
535 65.5828
540 8.43449
545 1.9075
550 1.06103
555 0.841093
560 0.844677
565 0.651241
570 0.761056
575 0.751198
580 0.636203
585 0.588966
590 0.396401
595 0.370119
600 0.330767
Ex : 538
200 0.18457
205 0.214314
210 0.235829
215 0.288495
220 0.214367
225 0.235639
230 0.198173
235 0.167109
240 0.201459
245 0.265754
250 0.303006
255 0.21685
260 0.158429
265 0.200803
270 0.255005
275 0.1905
280 0.189786
285 0.256026
290 0.199463
295 0.256444
300 0.240897
305 0.263243
310 0.195431
315 0.265011
320 0.202914
325 0.219886
330 0.20394
335 0.233438
340 0.278779
345 0.221931
350 0.272066
355 0.23986
360 0.26733
365 0.22146
370 0.248941
375 0.373472
380 0.26223
385 0.25495
390 0.164708
395 0.24955
400 0.268508
405 0.241812
410 0.215636
415 0.206753
420 0.21426
425 0.245588
430 0.262755
435 0.318304
440 0.293181
445 0.207441
450 0.298945
455 0.299255
460 0.275655
465 0.325474
470 0.275324
475 0.34846
480 0.29503
485 0.261957
490 0.238431
495 0.299763
500 0.319919
505 0.311699
510 0.346595
515 0.442363
520 0.479473
525 9.43749
530 160.659
535 250.341
540 65.9591
545 8.53835
550 1.75075
555 1.04342
560 0.847389
565 0.674372
570 0.578073
575 0.631822
580 0.656318
585 0.458001
590 0.489333
595 0.330648
600 0.0376265
Ex : 543
200 0.198988
205 0.245223
210 0.231387
215 0.28153
220 0.214653
225 0.249152
230 0.319862
235 0.271628
240 0.312529
245 0.222681
250 0.262999
255 0.223016
260 0.273957
265 0.322783
270 0.222819
275 0.170416
280 0.332443
285 0.209808
290 0.221938
295 0.196542
300 0.160199
305 0.263165
310 0.254933
315 0.306223
320 0.237063
325 0.305108
330 0.314769
335 0.307965
340 0.177411
345 0.292104
350 0.239233
355 0.194821
360 0.226214
365 0.293613
370 0.231868
375 0.288263
380 0.309163
385 0.307493
390 0.260078
395 0.288507
400 0.210537
405 0.256193
410 0.263745
415 0.282884
420 0.284087
425 0.236372
430 0.225993
435 0.253958
440 0.340116
445 0.234013
450 0.297953
455 0.250886
460 0.265514
465 0.258345
470 0.280153
475 0.271203
480 0.296156
485 0.288912
490 0.335964
495 0.264581
500 0.318921
505 0.307248
510 0.341214
515 0.399932
520 0.508336
525 0.582866
530 8.68732
535 151.328
540 249.535
545 67.59
550 8.66963
555 1.72803
560 0.901514
565 0.721903
570 0.619379
575 0.581536
580 0.545244
585 0.465006
590 0.475583
595 0.416477
600 1.30884
Ex : 548
200 0.215953
205 0.178714
210 0.216537
215 0.227093
220 0.280906
225 0.227596
230 0.240636
235 0.242875
240 0.267071
245 0.200399
250 0.22487
255 0.219224
260 0.239511
265 0.251916
270 0.265871
275 0.261934
280 0.224693
285 0.260441
290 0.264979
295 0.249791
300 0.273005
305 0.271119
310 0.23587
315 0.223087
320 0.230822
325 0.217782
330 0.271996
335 0.209309
340 0.214383
345 0.26857
350 0.219167
355 0.267694
360 0.266625
365 0.352729
370 0.293133
375 0.258543
380 0.252888
385 0.222225
390 0.236068
395 0.213447
400 0.235642
405 0.241032
410 0.292851
415 0.350169
420 0.324199
425 0.276279
430 0.244987
435 0.353596
440 0.255965
445 0.27154
450 0.243594
455 0.193331
460 0.291095
465 0.236497
470 0.190297
475 0.306473
480 0.313136
485 0.312713
490 0.236761
495 0.228994
500 0.291907
505 0.231331
510 0.419576
515 0.38231
520 0.367053
525 0.495539
530 0.620363
535 9.23268
540 154.157
545 243.52
550 66.629
555 8.41486
560 1.71754
565 0.82071
570 0.736126
575 0.594391
580 0.537095
585 0.509261
590 0.502444
595 0.508467
600 0.240641
Ex : 553
200 0.347487
205 0.295633
210 0.237931
215 0.305199
220 0.226121
225 0.276068
230 0.285837
235 0.191299
240 0.299647
245 0.266838
250 0.222641
255 0.265474
260 0.221322
265 0.241473
270 0.242481
275 0.272766
280 0.249832
285 0.2744
290 0.15299
295 0.195386
300 0.276685
305 0.33817
310 0.291138
315 0.242895
320 0.214669
325 0.262743
330 0.234144
335 0.206038
340 0.215548
345 0.270954
350 0.304234
355 0.272292
360 0.260585
365 0.367814
370 0.253352
375 0.22964
380 0.29834
385 0.261524
390 0.230056
395 0.273606
400 0.279448
405 0.272089
410 0.258723
415 0.23038
420 0.328362
425 0.317709
430 0.29799
435 0.278658
440 0.267539
445 0.272299
450 0.273823
455 0.315275
460 0.393984
465 0.23253
470 0.339783
475 0.329037
480 0.246705
485 0.252055
490 0.326446
495 0.367974
500 0.215629
505 0.238105
510 0.28251
515 0.361943
520 0.374485
525 0.396443
530 0.401241
535 0.484737
540 8.11348
545 141.355
550 235.973
555 66.2661
560 8.5671
565 1.5288
570 0.701917
575 0.677988
580 0.523249
585 0.458566
590 0.498965
595 0.549207
600 0.142542
Ex : 558
200 0.178972
205 0.203588
210 0.303617
215 0.292974
220 0.212749
225 0.263629
230 0.298789
235 0.284848
240 0.240404
245 0.270659
250 0.338201
255 0.240293
260 0.26119
265 0.21508
270 0.283316
275 0.248267
280 0.326803
285 0.403792
290 0.274353
295 0.350226
300 0.278099
305 0.266762
310 0.241371
315 0.1986
320 0.284683
325 0.259197
330 0.243771
335 0.22535
340 0.21427
345 0.271647
350 0.229478
355 0.283769
360 0.23138
365 0.240753
370 0.163062
375 0.253293
380 0.240324
385 0.295621
390 0.274208
395 0.366638
400 0.437162
405 0.294578
410 0.297429
415 0.209987
420 0.224288
425 0.261694
430 0.375723
435 0.307923
440 0.232084
445 0.213254
450 0.245642
455 0.308732
460 0.42039
465 0.274149
470 0.218247
475 0.206451
480 0.26575
485 0.3115
490 0.287663
495 0.290769
500 0.289947
505 0.259116
510 0.328175
515 0.392506
520 0.338084
525 0.401706
530 0.345324
535 0.494207
540 0.718534
545 7.40347
550 140.25
555 241.026
560 67.2271
565 8.4842
570 1.54072
575 0.73865
580 0.595919
585 0.552003
590 0.446823
595 0.396359
600 0.0451042
Ex : 563
200 0.216035
205 0.244022
210 0.27471
215 0.23503
220 0.27435
225 0.364147
230 0.290752
235 0.255987
240 0.232902
245 0.327583
250 0.331463
255 0.31735
260 0.296187
265 0.262183
270 0.371422
275 0.304807
280 0.269849
285 0.293822
290 0.4154
295 0.296597
300 0.324822
305 0.282554
310 0.245186
315 0.313001
320 0.351881
325 0.266549
330 0.224915
335 0.336515
340 0.216955
345 0.282915
350 0.273025
355 0.277939
360 0.299351
365 0.29196
370 0.295663
375 0.363216
380 0.260951
385 0.334273
390 0.229997
395 0.260637
400 0.335702
405 0.286584
410 0.320738
415 0.314353
420 0.313762
425 0.245726
430 0.368031
435 0.240527
440 0.306029
445 0.33295
450 0.262622
455 0.303504
460 0.206479
465 0.284951
470 0.310517
475 0.362681
480 0.353215
485 0.295752
490 0.351682
495 0.31161
500 0.322513
505 0.319392
510 0.286099
515 0.322502
520 0.380005
525 0.332944
530 0.307051
535 0.353062
540 0.392183
545 0.514532
550 8.06146
555 138.036
560 227.996
565 65.4671
570 8.23139
575 1.4022
580 0.660096
585 0.521407
590 0.373071
595 0.336927
600 0.038341
Ex : 568
200 0.220456
205 0.271848
210 0.304017
215 0.265544
220 0.305932
225 0.24156
230 0.330043
235 0.279562
240 0.318792
245 0.275235
250 0.269624
255 0.345533
260 0.241843
265 0.218409
270 0.254561
275 0.297651
280 0.233343
285 0.293719
290 0.254825
295 0.221691
300 0.353854
305 0.297746
310 0.275205
315 0.238419
320 0.266297
325 0.321648
330 0.218976
335 0.338987
340 0.224613
345 0.251553
350 0.254935
355 0.42411
360 0.302368
365 0.325036
370 0.326293
375 0.291612
380 0.293426
385 0.281258
390 0.30259
395 0.428151
400 0.298481
405 0.311402
410 0.320052
415 0.209005
420 0.265668
425 0.258978
430 0.253027
435 0.283261
440 0.380076
445 0.357803
450 0.275847
455 0.281696
460 0.316853
465 0.22814
470 0.238295
475 0.25274
480 0.369343
485 0.365739
490 0.276075
495 0.332476
500 0.382636
505 0.260323
510 0.468681
515 0.277141
520 0.274575
525 0.327901
530 0.369983
535 0.415012
540 0.367583
545 0.366278
550 0.482385
555 5.66043
560 120.92
565 224.076
570 67.4774
575 8.47393
580 1.33899
585 0.57395
590 0.510215
595 0.378258
600 0.574767
Ex : 573
200 0.329463
205 0.242464
210 0.324022
215 0.334022
220 0.326966
225 0.274126
230 0.358813
235 0.300568
240 0.294415
245 0.232138
250 0.371464
255 0.352157
260 0.270209
265 0.218146
270 0.280787
275 0.284712
280 0.253717
285 0.316
290 0.272984
295 0.2075
300 0.355183
305 0.323342
310 0.344462
315 0.38112
320 0.404634
325 0.361092
330 0.259562
335 0.263244
340 0.384996
345 0.292084
350 0.286152
355 0.340443
360 0.321265
365 0.273209
370 0.343195
375 0.230699
380 0.242159
385 0.349686
390 0.295247
395 0.347604
400 0.313681
405 0.247789
410 0.330548
415 0.367918
420 0.389843
425 0.431109
430 0.28044
435 0.31336
440 0.285318
445 0.344973
450 0.287164
455 0.270811
460 0.285126
465 0.27566
470 0.325433
475 0.274859
480 0.295465
485 0.253703
490 0.343005
495 0.27373
500 0.294106
505 0.312452
510 0.31703
515 0.409835
520 0.330632
525 0.427962
530 0.386317
535 0.371125
540 0.387937
545 0.471541
550 0.41937
555 0.555539
560 4.80176
565 104.753
570 203.775
575 62.783
580 7.95685
585 1.30912
590 0.580725
595 0.460775
600 0.502052
Ex : 578
200 0.247761
205 0.280534
210 0.362037
215 0.233412
220 0.308412
225 0.219358
230 0.193694
235 0.281263
240 0.314708
245 0.27224
250 0.269781
255 0.353523
260 0.264415
265 0.249724
270 0.251407
275 0.355771
280 0.251062
285 0.388933
290 0.414419
295 0.323006
300 0.407907
305 0.29907
310 0.262715
315 0.277746
320 0.306243
325 0.34838
330 0.414169
335 0.327027
340 0.257527
345 0.284587
350 0.329009
355 0.300101
360 0.247611
365 0.332384
370 0.323336
375 0.257104
380 0.238458
385 0.26546
390 0.282112
395 0.287102
400 0.367771
405 0.411939
410 0.271604
415 0.325778
420 0.309885
425 0.313576
430 0.267097
435 0.357724
440 0.382317
445 0.26872
450 0.283848
455 0.273286
460 0.272023
465 0.328487
470 0.312911
475 0.335748
480 0.318178
485 0.294604
490 0.304535
495 0.243548
500 0.263675
505 0.314782
510 0.433157
515 0.303063
520 0.300476
525 0.278384
530 0.264205
535 0.409206
540 0.320617
545 0.299046
550 0.502832
555 0.488756
560 0.563965
565 4.92568
570 95.4531
575 183.629
580 55.4455
585 6.90087
590 1.24733
595 0.448047
600 0.050986
Ex : 583
200 0.400694
205 0.402646
210 0.331952
215 0.326758
220 0.362185
225 0.258121
230 0.360723
235 0.274847
240 0.340028
245 0.255029
250 0.266707
255 0.326848
260 0.198773
265 0.397622
270 0.273485
275 0.232851
280 0.325784
285 0.304678
290 0.245149
295 0.307112
300 0.423597
305 0.286613
310 0.325213
315 0.278789
320 0.194865
325 0.274555
330 0.263009
335 0.32726
340 0.314005
345 0.339705
350 0.280019
355 0.286267
360 0.30337
365 0.351846
370 0.304819
375 0.258838
380 0.313994
385 0.363991
390 0.31552
395 0.296524
400 0.343849
405 0.346758
410 0.367335
415 0.332983
420 0.281845
425 0.410151
430 0.270924
435 0.283377
440 0.239471
445 0.298497
450 0.283868
455 0.367227
460 0.388963
465 0.309372
470 0.235945
475 0.321097
480 0.260563
485 0.274325
490 0.303098
495 0.282233
500 0.349019
505 0.30321
510 0.306471
515 0.25333
520 0.387004
525 0.316844
530 0.334894
535 0.293963
540 0.363664
545 0.395734
550 0.379608
555 0.468201
560 0.462788
565 0.559488
570 3.89652
575 85.4743
580 157.162
585 45.0267
590 5.74327
595 1.04024
600 0.679176
Ex : 588
200 0.258752
205 0.28131
210 0.349759
215 0.382129
220 0.388101
225 0.278688
230 0.307578
235 0.266488
240 0.282918
245 0.255485
250 0.298765
255 0.187144
260 0.394595
265 0.307795
270 0.352388
275 0.333456
280 0.288302
285 0.319919
290 0.25859
295 0.261742
300 0.307933
305 0.274027
310 0.251461
315 0.241081
320 0.267585
325 0.277378
330 0.274592
335 0.303481
340 0.308128
345 0.257842
350 0.321297
355 0.456539
360 0.373282
365 0.377036
370 0.271565
375 0.338462
380 0.265743
385 0.284944
390 0.401536
395 0.316817
400 0.439628
405 0.270139
410 0.255515
415 0.322667
420 0.274179
425 0.410134
430 0.261814
435 0.305304
440 0.275759
445 0.358064
450 0.318365
455 0.30423
460 0.440755
465 0.289414
470 0.271085
475 0.272802
480 0.372936
485 0.325046
490 0.288142
495 0.338942
500 0.336177
505 0.324253
510 0.337258
515 0.318464
520 0.294667
525 0.293153
530 0.356984
535 0.308265
540 0.322964
545 0.300536
550 0.349245
555 0.440309
560 0.362754
565 0.383534
570 0.51325
575 3.22381
580 71.203
585 132.247
590 40.4054
595 5.1471
600 0.976487
Ex : 593
200 0.394227
205 0.345408
210 0.203444
215 0.277313
220 0.30114
225 0.354946
230 0.304685
235 0.297966
240 0.362236
245 0.328137
250 0.306963
255 0.342759
260 0.401172
265 0.378867
270 0.348279
275 0.300675
280 0.292375
285 0.316216
290 0.258517
295 0.278096
300 0.223445
305 0.285491
310 0.30255
315 0.306601
320 0.313528
325 0.290422
330 0.311039
335 0.377184
340 0.327894
345 0.218889
350 0.241108
355 0.333467
360 0.289375
365 0.330039
370 0.303916
375 0.258719
380 0.278291
385 0.310311
390 0.409807
395 0.320051
400 0.317096
405 0.420834
410 0.377248
415 0.390005
420 0.403959
425 0.336472
430 0.308845
435 0.399854
440 0.269583
445 0.357714
450 0.331219
455 0.406706
460 0.42477
465 0.27585
470 0.328978
475 0.283831
480 0.297858
485 0.343818
490 0.416523
495 0.420416
500 0.392526
505 0.397341
510 0.357409
515 0.29639
520 0.380813
525 0.371342
530 0.34638
535 0.36523
540 0.338676
545 0.457724
550 0.424478
555 0.412255
560 0.402744
565 0.408071
570 0.381178
575 0.484796
580 2.78402
585 62.1711
590 113.936
595 37.5798
600 7.03931
Ex : 598
200 0.283427
205 0.317758
210 0.299747
215 0.461174
220 0.449262
225 0.336322
230 0.307946
235 0.306421
240 0.327412
245 0.297146
250 0.289716
255 0.318013
260 0.372861
265 0.38141
270 0.435102
275 0.479142
280 0.385613
285 0.315469
290 0.272121
295 0.377337
300 0.245266
305 0.299928
310 0.259689
315 0.237323
320 0.283588
325 0.327238
330 0.289097
335 0.26375
340 0.336726
345 0.356452
350 0.351339
355 0.270271
360 0.34551
365 0.327357
370 0.380365
375 0.429362
380 0.31898
385 0.301636
390 0.367606
395 0.412305
400 0.468921
405 0.399412
410 0.375752
415 0.332155
420 0.25603
425 0.326016
430 0.427846
435 0.443904
440 0.314585
445 0.333
450 0.408651
455 0.388279
460 0.398255
465 0.313199
470 0.338987
475 0.288202
480 0.344543
485 0.23212
490 0.251878
495 0.339226
500 0.336547
505 0.392593
510 0.307656
515 0.479788
520 0.362624
525 0.369702
530 0.45532
535 0.232478
540 0.488361
545 0.581821
550 0.352507
555 0.296182
560 0.343134
565 0.375887
570 0.449317
575 0.358646
580 0.473584
585 3.10467
590 57.2063
595 100.444
600 60.7571
Ex : 603
200 0.342397
205 0.297942
210 0.322169
215 0.300961
220 0.51602
225 0.307899
230 0.386072
235 0.320025
240 0.349548
245 0.350514
250 0.311261
255 0.318749
260 0.434693
265 0.318042
270 0.251311
275 0.263972
280 0.38639
285 0.284636
290 0.352549
295 0.41102
300 0.255543
305 0.268563
310 0.338554
315 0.259883
320 0.308914
325 0.449313
330 0.27967
335 0.35401
340 0.325982
345 0.305748
350 0.281004
355 0.353029
360 0.367429
365 0.321263
370 0.400004
375 0.396682
380 0.340736
385 0.448554
390 0.425736
395 0.383188
400 0.391924
405 0.342393
410 0.36446
415 0.312454
420 0.388283
425 0.33991
430 0.36958
435 0.443357
440 0.346372
445 0.324973
450 0.290684
455 0.349413
460 0.421419
465 0.397963
470 0.277318
475 0.382732
480 0.347122
485 0.342753
490 0.468113
495 0.456177
500 0.456905
505 0.341463
510 0.352834
515 0.386546
520 0.354732
525 0.349562
530 0.364439
535 0.32683
540 0.290254
545 0.446268
550 0.377656
555 0.291346
560 0.397252
565 0.370089
570 0.369565
575 0.430389
580 0.456505
585 0.419788
590 2.9009
595 50.8625
600 93.4759
