File format V 1.0
ven. 9. déc. 18:22:48 2016
Operator : 
Comments : 

=============================================
SpectroFluorometer parameters
Mode : 3D measurement
Data : Fluorescence
Phospho. : Ordinary
Spectrum : Fluorescence

Scan speed : 2400 nm/mn
Response : 100 ms
PM Voltage : 700 V
Shutter : On

Lambda Ex. Start : 203
Lambda Ex. End : 603
Lambda Ex. Step : 5
Ex. Slit : 5 nm

Lambda Em. Start : 200
Lambda Em. End : 600
Lambda Em. Step : 5
Em. Slit : 5 nm

Repetition : 1
Decal lambda em : 10
=============================================
DATA
Ex : 203
200 14.0067
205 13.3947
210 20.8402
215 15.889
220 12.9142
225 16.63
230 21.6492
235 14.5711
240 18.5899
245 15.2489
250 18.9895
255 18.5708
260 17.5035
265 22.208
270 16.2518
275 18.3271
280 15.7474
285 14.4233
290 21.9434
295 15.1788
300 12.6687
305 15.878
310 15.9232
315 12.5123
320 15.2168
325 21.7962
330 19.2716
335 19.3462
340 18.9876
345 16.8455
350 20.7503
355 26.7348
360 17.0362
365 19.0638
370 19.2474
375 20.5456
380 20.0064
385 18.5376
390 20.3653
395 19.9391
400 20.1585
405 15.4532
410 19.0649
415 20.6129
420 16.4699
425 20.3603
430 21.8366
435 17.7619
440 19.5788
445 20.5599
450 17.0988
455 19.2003
460 23.7823
465 16.3122
470 19.7015
475 21.0929
480 13.8891
485 15.6512
490 15.0166
495 20.4584
500 17.4161
505 22.9867
510 21.5356
515 18.6114
520 12.6478
525 19.9473
530 20.8857
535 18.7715
540 18.4133
545 18.4813
550 19.0502
555 19.1819
560 19.7622
565 17.9328
570 16.9787
575 19.8298
580 14.0691
585 17.6524
590 20.7107
595 21.6545
600 61.8398
Ex : 208
200 17.9532
205 15.302
210 18.7914
215 17.2221
220 24.9038
225 17.2931
230 16.7086
235 20.374
240 15.4436
245 16.9716
250 16.7194
255 14.7272
260 17.7666
265 13.0305
270 14.8662
275 13.6865
280 17.2211
285 15.6119
290 16.1697
295 20.9688
300 18.8595
305 17.718
310 15.3093
315 15.7258
320 21.562
325 19.8915
330 23.9017
335 15.9641
340 18
345 22.3595
350 25.4687
355 19.6692
360 15.3959
365 19.7805
370 23.3593
375 19.6942
380 15.3826
385 21.775
390 25.7297
395 21.8669
400 22.1609
405 20.2627
410 24.0603
415 20.1403
420 19.3247
425 20.8823
430 16.7671
435 23.0872
440 22.423
445 22.5332
450 17.559
455 19.1798
460 19.4606
465 20.7074
470 18.8264
475 21.7932
480 17.607
485 22.1599
490 16.0086
495 23.6389
500 19.1021
505 17.6394
510 16.8171
515 19.4606
520 21.2679
525 17.3289
530 16.2959
535 14.6305
540 18.5766
545 19.0381
550 18.3467
555 18.4912
560 17.0507
565 15.1029
570 18.0112
575 16.8362
580 23.8891
585 18.4443
590 16.5305
595 19.8896
600 21.4644
Ex : 213
200 9.97452
205 20.111
210 19.5782
215 15.1059
220 14.9315
225 13.3513
230 18.1545
235 16.0323
240 15.8393
245 13.6731
250 17.0618
255 20.6611
260 16.5756
265 17.0666
270 19.0573
275 23.7138
280 13.1431
285 17.2129
290 18.1611
295 16.1856
300 16.1007
305 16.0925
310 17.182
315 16.531
320 17.4762
325 18.0152
330 21.1605
335 26.0745
340 19.8299
345 22.0111
350 17.4102
355 17.6303
360 22.5301
365 19.4506
370 21.9557
375 17.9653
380 19.6321
385 22.2256
390 18.5043
395 21.8238
400 22.4012
405 21.5715
410 19.9307
415 20.4643
420 17.0009
425 16.8427
430 22.9476
435 20.4718
440 19.8854
445 14.196
450 24.1777
455 20.3428
460 22.6408
465 18.7846
470 17.3668
475 20.4695
480 22.9064
485 18.1123
490 20.3319
495 21.5478
500 17.4897
505 17.871
510 15.3005
515 22.0835
520 24.0852
525 18.7888
530 13.4022
535 15.9001
540 14.9263
545 17.7988
550 17.5699
555 18.9351
560 18.4576
565 17.2072
570 19.3256
575 18.916
580 14.866
585 17.2028
590 13.9822
595 14.3696
600 41.219
Ex : 218
200 23.0276
205 18.3294
210 15.4982
215 18.7703
220 20.7463
225 17.4726
230 16.0705
235 15.0048
240 13.1432
245 17.3322
250 20.4732
255 17.0906
260 15.6577
265 13.7898
270 23.6391
275 16.4498
280 14.2843
285 19.837
290 16.008
295 15.2515
300 17.6701
305 16.6801
310 13.445
315 16.8382
320 17.3523
325 18.874
330 18.5758
335 21.209
340 22.5863
345 20.1159
350 18.0974
355 24.2252
360 20.2948
365 20.9578
370 17.09
375 18.5794
380 17.0109
385 19.9089
390 21.3247
395 21.6951
400 23.2403
405 21.6954
410 18.7893
415 21.8001
420 17.394
425 18.1179
430 19.2121
435 18.8041
440 19.3924
445 21.3872
450 24.8541
455 20.8498
460 18.8088
465 17.9279
470 17.2108
475 21.4776
480 18.1273
485 23.2043
490 17.9865
495 18.5495
500 18.3522
505 13.8576
510 14.3789
515 15.9527
520 17.5567
525 23.8103
530 17.3168
535 22.7706
540 18.5537
545 17.4045
550 18.0158
555 16.4555
560 18.3422
565 17.7417
570 16.8232
575 21.047
580 16.7707
585 15.3464
590 17.5851
595 15.5971
600 19.2036
Ex : 223
200 18.4012
205 17.1651
210 14.2694
215 18.2576
220 14.4142
225 15.6994
230 14.1784
235 11.947
240 16.2384
245 16.6632
250 16.1546
255 20.3611
260 18.4129
265 16.7204
270 22.0407
275 16.8455
280 11.9783
285 16.0517
290 16.9335
295 14.2385
300 13.9971
305 18.5518
310 22.0697
315 20.7071
320 13.15
325 20.4882
330 21.3821
335 20.7222
340 18.7372
345 22.9359
350 20.8264
355 18.7729
360 17.6296
365 19.1074
370 22.4432
375 16.9023
380 15.7356
385 14.2275
390 18.379
395 16.3808
400 22.9298
405 20.5826
410 20.2687
415 16.2931
420 16.6853
425 20.5038
430 23.9338
435 25.8236
440 19.1545
445 18.955
450 16.5945
455 19.2255
460 20.4911
465 19.853
470 19.5319
475 23.9317
480 15.477
485 16.3708
490 19.0918
495 13.713
500 17.5331
505 20.1737
510 21.0617
515 19.6151
520 20.7833
525 21.1909
530 19.4034
535 19.0651
540 16.813
545 19.1559
550 17.8045
555 15.3191
560 16.6972
565 15.0499
570 16.869
575 15.8527
580 14.7458
585 15.9582
590 14.9005
595 15.5542
600 19.9372
Ex : 228
200 13.2353
205 15.4985
210 21.6511
215 12.7913
220 13.5277
225 17.9033
230 13.9648
235 19.1106
240 14.3177
245 18.5786
250 11.452
255 20.2745
260 18.5227
265 15.0147
270 17.0581
275 15.2036
280 13.5819
285 16.5688
290 14.4356
295 21.1392
300 14.6068
305 12.0925
310 18.6647
315 12.7937
320 16.5605
325 18.171
330 14.1163
335 15.9978
340 16.9661
345 23.057
350 20.3118
355 17.6894
360 21.5198
365 18.9574
370 18.9851
375 21.9912
380 21.7238
385 19.7996
390 14.6989
395 14.2213
400 18.4365
405 21.5464
410 14.9616
415 18.8489
420 19.9177
425 16.9032
430 22.6246
435 16.954
440 15.5908
445 17.9326
450 13.8912
455 15.7111
460 17.1436
465 17.1702
470 20.1541
475 21.2347
480 19.888
485 23.3852
490 17.0127
495 19.0676
500 14.207
505 16.6563
510 13.7115
515 16.2135
520 16.253
525 18.7807
530 20.4657
535 14.9708
540 13.9372
545 17.1224
550 14.9202
555 12.1142
560 15.1123
565 16.3396
570 13.6656
575 15.5698
580 10.8978
585 14.6497
590 16.4698
595 15.147
600 21.4417
Ex : 233
200 12.4301
205 17.6013
210 11.7275
215 12.5657
220 13.9572
225 9.60029
230 13.2227
235 13.6933
240 16.3359
245 12.2042
250 13.8185
255 11.8855
260 14.9756
265 15.5926
270 14.2086
275 13.4704
280 15.2895
285 17.7569
290 17.6142
295 15.0771
300 17.6945
305 13.7454
310 11.5604
315 13.3654
320 11.3133
325 14.5276
330 17.3668
335 18.3173
340 15.9728
345 17.6389
350 17.9634
355 18.882
360 21.0148
365 15.5344
370 16.9605
375 17.6118
380 13.8775
385 16.1351
390 13.8116
395 14.6194
400 15.2958
405 16.0072
410 18.7166
415 18.7248
420 18.078
425 22.081
430 15.2608
435 18.2219
440 19.1487
445 14.8742
450 14.5959
455 16.9144
460 17.2493
465 16.06
470 18.6181
475 13.8721
480 12.3422
485 13.6506
490 12.5639
495 14.4182
500 13.44
505 16.8199
510 14.4897
515 12.2155
520 13.9636
525 13.3076
530 10.6733
535 13.2504
540 17.9026
545 16.2548
550 13.2377
555 15.7811
560 13.9657
565 12.8541
570 16.5879
575 12.3529
580 13.4215
585 11.6168
590 13.8373
595 10.7172
600 20.9376
Ex : 238
200 9.98291
205 11.9349
210 11.3358
215 10.6845
220 12.5656
225 11.4018
230 11.0133
235 10.7113
240 13.288
245 13.1077
250 11.4743
255 10.0501
260 10.2474
265 9.60131
270 11.5632
275 11.2245
280 10.7007
285 11.0091
290 10.1372
295 10.0689
300 9.88067
305 13.5504
310 12.5332
315 10.9549
320 13.1712
325 11.9363
330 15.8015
335 17.8177
340 14.9995
345 14.0339
350 14.306
355 15.1764
360 18.75
365 14.3805
370 11.3925
375 17.252
380 14.4994
385 12.5774
390 13.9451
395 13.2457
400 13.3393
405 11.6725
410 14.0935
415 15.2497
420 11.5518
425 14.8321
430 14.514
435 16.3304
440 11.6445
445 14.0196
450 16.2764
455 16.0655
460 12.5026
465 13.8811
470 12.5731
475 14.5345
480 10.4966
485 13.5973
490 12.6501
495 12.6105
500 15.6787
505 16.186
510 12.9471
515 10.5629
520 12.8117
525 11.4577
530 10.7223
535 11.6351
540 11.5886
545 13.9068
550 15.1367
555 12.1214
560 12.7655
565 12.6792
570 14.5875
575 9.37753
580 9.00392
585 12.7536
590 11.4259
595 10.7803
600 10.266
Ex : 243
200 8.76357
205 11.3231
210 9.51277
215 9.88806
220 7.94558
225 10.0985
230 13.7593
235 11.6645
240 12.3302
245 12.0891
250 13.8277
255 11.0884
260 8.7233
265 11.7908
270 10.4818
275 7.9344
280 8.13749
285 9.76353
290 9.95908
295 9.48894
300 9.10336
305 9.46657
310 11.8931
315 10.5049
320 10.3216
325 10.3756
330 12.6843
335 14.0641
340 13.644
345 14.8526
350 13.5086
355 10.9269
360 11.3462
365 13.4503
370 14.3283
375 14.1988
380 13.233
385 12.1051
390 14.545
395 14.015
400 12.8303
405 13.6335
410 9.99924
415 11.9972
420 10.7785
425 15.2265
430 15.0258
435 11.1058
440 11.3467
445 13.4182
450 12.9439
455 13.0355
460 13.2907
465 12.2525
470 13.5937
475 12.7875
480 14.3245
485 12.0709
490 13.0484
495 10.2511
500 12.2899
505 10.9755
510 11.316
515 10.7635
520 11.6727
525 10.7912
530 14.0473
535 14.3043
540 9.76704
545 15.0156
550 12.0865
555 8.29053
560 11.4844
565 11.9774
570 8.15832
575 9.43188
580 11.8134
585 8.3245
590 9.01551
595 10.1535
600 3.59249
Ex : 248
200 11.4508
205 8.80017
210 8.98311
215 8.87824
220 7.92556
225 7.62063
230 8.14869
235 9.49206
240 9.1246
245 7.2359
250 7.13762
255 9.95858
260 9.15784
265 8.07402
270 9.40306
275 7.5448
280 8.34144
285 8.49446
290 8.35746
295 11.0771
300 7.7486
305 9.0048
310 6.72257
315 8.92679
320 9.49553
325 8.83484
330 9.23123
335 10.3296
340 8.27361
345 9.20127
350 12.2284
355 12.7487
360 9.44431
365 10.0511
370 11.0762
375 10.9808
380 9.40827
385 12.024
390 11.2077
395 10.2935
400 12.9834
405 10.5693
410 12.7291
415 10.6148
420 11.8424
425 12.5216
430 9.71195
435 10.2177
440 10.1686
445 10.3068
450 10.4243
455 11.6101
460 10.9436
465 12.063
470 10.7471
475 10.8715
480 7.91282
485 9.79363
490 9.60587
495 11.4235
500 10.0893
505 7.48434
510 13.0053
515 11.9275
520 8.83553
525 8.97007
530 8.43882
535 11.1215
540 8.41746
545 9.41361
550 10.2306
555 10.236
560 9.47441
565 9.20774
570 10.3457
575 8.72561
580 8.71997
585 7.7942
590 9.13524
595 8.31692
600 1.19963
Ex : 253
200 5.89899
205 6.59945
210 7.70251
215 7.8813
220 5.57227
225 7.56654
230 7.91154
235 7.16929
240 6.62641
245 6.54457
250 6.02075
255 5.84705
260 7.63991
265 7.86598
270 5.32614
275 5.47682
280 5.90363
285 7.53006
290 6.14576
295 6.8586
300 7.65779
305 6.55383
310 8.8201
315 7.02528
320 6.09199
325 7.55734
330 8.0735
335 7.86807
340 9.57829
345 7.6188
350 9.00058
355 9.91651
360 7.56066
365 6.83371
370 10.9667
375 8.01472
380 7.72415
385 8.41638
390 7.87194
395 8.73652
400 10.9527
405 8.61683
410 9.07379
415 9.0243
420 7.56568
425 8.95128
430 8.14832
435 8.52396
440 8.76714
445 8.99688
450 7.62111
455 7.60647
460 7.81639
465 8.94127
470 10.0983
475 6.73974
480 7.75551
485 7.70121
490 10.4309
495 9.92074
500 8.55698
505 9.88231
510 6.58294
515 7.59684
520 7.59137
525 7.29577
530 7.87744
535 6.91705
540 7.17241
545 7.96598
550 7.70465
555 7.14399
560 7.30948
565 11.6359
570 8.82438
575 7.73566
580 6.62684
585 7.75222
590 6.52711
595 6.70002
600 10.0676
Ex : 258
200 5.36581
205 5.49789
210 5.96087
215 5.72385
220 5.76586
225 6.9993
230 5.42244
235 5.04984
240 6.25272
245 6.24166
250 5.69585
255 4.72649
260 4.03791
265 4.34805
270 4.51517
275 6.32377
280 4.92594
285 4.44691
290 4.71151
295 4.90035
300 5.45889
305 5.82698
310 5.31301
315 4.08417
320 5.34694
325 5.86672
330 5.27768
335 5.20705
340 7.98658
345 7.20748
350 7.2447
355 8.83593
360 7.02921
365 6.02814
370 7.59522
375 8.49237
380 6.78874
385 6.57068
390 6.57031
395 7.12437
400 7.63133
405 8.60662
410 8.90738
415 7.65312
420 8.31466
425 7.66081
430 7.23266
435 7.40653
440 6.97686
445 7.12985
450 7.79995
455 6.86147
460 5.26821
465 7.185
470 7.22957
475 6.43832
480 6.84299
485 6.67009
490 7.50834
495 5.93392
500 4.97558
505 7.25034
510 6.83717
515 6.34004
520 4.95595
525 7.73034
530 4.33121
535 4.84154
540 6.52696
545 7.06098
550 6.47664
555 7.64976
560 6.38016
565 5.29689
570 5.71211
575 5.00311
580 5.02045
585 5.02214
590 5.92226
595 3.29953
600 0.552714
Ex : 263
200 4.7542
205 4.29451
210 3.73259
215 4.28218
220 4.03211
225 4.82968
230 4.14217
235 3.38654
240 3.87446
245 3.93033
250 4.4379
255 4.20943
260 2.80106
265 3.85541
270 3.91358
275 4.5828
280 5.18426
285 3.63593
290 3.90515
295 3.82047
300 4.66424
305 4.76516
310 6.26935
315 3.48937
320 3.77511
325 4.30864
330 6.38413
335 5.34248
340 5.53392
345 6.23032
350 5.01658
355 5.49822
360 6.06579
365 4.79602
370 5.09197
375 5.54434
380 5.6241
385 5.74355
390 7.1515
395 6.86093
400 6.86222
405 4.26211
410 6.89513
415 6.82515
420 4.43486
425 4.54151
430 5.32566
435 6.52511
440 6.65611
445 5.78648
450 4.87914
455 6.34307
460 5.49495
465 4.95862
470 5.74974
475 6.0748
480 5.7443
485 5.04599
490 5.93772
495 4.92642
500 4.79812
505 4.51472
510 5.06658
515 6.77178
520 6.54703
525 4.94944
530 3.8334
535 4.66736
540 5.02885
545 4.71833
550 5.88461
555 5.08002
560 5.12476
565 4.74173
570 4.26805
575 4.94339
580 3.62922
585 5.00576
590 4.66511
595 3.79701
600 1.78746
Ex : 268
200 4.15995
205 2.88858
210 3.97923
215 2.90701
220 2.5821
225 3.62274
230 2.80852
235 2.2008
240 2.89213
245 2.98986
250 2.99135
255 2.71446
260 3.78819
265 3.07267
270 2.82554
275 2.85876
280 3.66211
285 3.52217
290 4.01604
295 2.77741
300 2.62126
305 2.49421
310 2.65654
315 3.87485
320 3.39989
325 3.83228
330 5.14072
335 5.27285
340 4.37013
345 4.2283
350 5.27885
355 4.1817
360 3.39884
365 4.60107
370 4.1187
375 4.28447
380 3.7855
385 5.20714
390 4.51641
395 5.28443
400 4.99637
405 5.24866
410 5.56998
415 4.13514
420 4.42059
425 3.3188
430 4.74236
435 4.75474
440 5.08968
445 5.13837
450 5.12652
455 4.3082
460 5.42135
465 3.60787
470 4.43175
475 3.40736
480 3.28584
485 3.83934
490 3.33344
495 3.78428
500 3.57401
505 3.98917
510 3.8404
515 3.0252
520 2.58163
525 3.23073
530 3.66415
535 3.63439
540 3.9303
545 2.99257
550 2.58925
555 3.5764
560 3.47074
565 3.62744
570 3.3521
575 3.76911
580 4.06245
585 3.37441
590 4.74643
595 3.44568
600 6.9057
Ex : 273
200 2.17552
205 2.3591
210 2.234
215 2.2572
220 1.95289
225 3.46417
230 2.79192
235 2.24641
240 2.30922
245 1.82829
250 2.28045
255 1.83304
260 2.04479
265 3.36245
270 2.90173
275 2.41615
280 2.11612
285 2.53547
290 2.22246
295 3.22606
300 1.9498
305 2.31029
310 2.1093
315 2.6801
320 3.21357
325 3.255
330 2.39405
335 3.25199
340 3.40308
345 4.28827
350 4.24715
355 4.32381
360 2.99995
365 3.9213
370 3.9272
375 3.54946
380 3.75409
385 3.53448
390 3.95298
395 3.57595
400 3.49927
405 3.81739
410 3.51753
415 3.94943
420 3.4243
425 3.99089
430 3.53124
435 3.34694
440 3.10914
445 4.23914
450 3.78349
455 3.83828
460 4.13849
465 3.62997
470 4.61175
475 3.44875
480 2.53426
485 3.18737
490 3.13567
495 3.71174
500 3.10729
505 3.4282
510 2.93441
515 3.12707
520 2.68701
525 3.07686
530 3.30472
535 3.51153
540 3.32971
545 3.54517
550 3.03464
555 2.5377
560 3.25136
565 2.63054
570 3.07975
575 2.34142
580 2.61471
585 4.14142
590 2.42611
595 2.86429
600 0.515846
Ex : 278
200 2.23626
205 2.50358
210 1.84721
215 2.20649
220 1.89812
225 1.95739
230 1.70592
235 1.96299
240 1.91953
245 2.37569
250 2.12286
255 1.95637
260 2.05659
265 2.43858
270 2.24881
275 2.12163
280 2.41036
285 1.98184
290 2.25763
295 1.71246
300 2.1441
305 1.6196
310 1.69176
315 2.48413
320 1.89727
325 2.55556
330 3.12333
335 2.8713
340 2.40378
345 2.59685
350 2.78486
355 2.76305
360 3.23315
365 2.90454
370 3.03037
375 2.6706
380 3.24007
385 3.54862
390 2.9145
395 2.84882
400 2.67779
405 2.62577
410 3.32555
415 3.0998
420 3.29216
425 3.25497
430 2.92554
435 2.97523
440 3.36468
445 2.78262
450 3.11171
455 3.45547
460 3.02551
465 3.17238
470 3.03381
475 3.05802
480 3.2271
485 2.43573
490 2.40718
495 2.64019
500 2.22523
505 2.54962
510 2.9017
515 2.74654
520 2.39665
525 2.35527
530 1.97507
535 2.82118
540 1.98381
545 2.64743
550 3.08831
555 2.93538
560 2.43264
565 2.62857
570 2.49457
575 2.15853
580 2.11572
585 2.16625
590 2.09183
595 2.10759
600 3.13477
Ex : 283
200 2.01712
205 1.43698
210 1.47517
215 1.60604
220 1.69047
225 2.11737
230 1.70634
235 2.25364
240 3.04873
245 1.82511
250 1.71494
255 1.8687
260 2.18557
265 2.01878
270 2.15463
275 1.90433
280 1.83476
285 1.58052
290 1.61519
295 1.20486
300 1.54509
305 2.07567
310 1.70108
315 1.51017
320 1.62014
325 1.91075
330 2.5276
335 2.15207
340 2.73746
345 2.75968
350 2.48612
355 2.55685
360 3.08377
365 3.39459
370 2.78667
375 2.9722
380 2.79518
385 2.74881
390 3.04458
395 2.2234
400 3.38976
405 2.71129
410 2.96538
415 2.94324
420 2.5142
425 2.563
430 2.53348
435 3.03235
440 3.21816
445 3.32374
450 2.2959
455 2.58498
460 2.91546
465 3.06163
470 2.86774
475 2.67053
480 2.8053
485 2.01588
490 1.86032
495 2.02253
500 1.96875
505 2.41822
510 2.17833
515 1.71557
520 1.68293
525 2.27858
530 1.87881
535 2.17736
540 1.97888
545 1.6578
550 2.24871
555 2.25889
560 2.55894
565 2.23227
570 2.23598
575 1.57469
580 1.79573
585 2.02892
590 1.61261
595 1.71932
600 0.445607
Ex : 288
200 1.50082
205 1.50228
210 1.62433
215 1.35121
220 1.33125
225 1.37033
230 1.35696
235 1.37055
240 1.08339
245 1.56411
250 1.54104
255 1.69883
260 1.27058
265 1.81159
270 1.30082
275 1.41424
280 1.68238
285 1.83253
290 1.25399
295 1.34145
300 1.15343
305 1.52491
310 1.19442
315 1.30079
320 1.32147
325 1.51214
330 1.75566
335 2.2463
340 2.32098
345 2.15088
350 2.74381
355 2.44146
360 2.93941
365 2.20766
370 2.21743
375 2.08843
380 2.3087
385 2.63892
390 2.87941
395 2.70067
400 2.44845
405 2.4983
410 2.32821
415 2.22805
420 2.29482
425 2.3814
430 2.23698
435 2.38864
440 2.16604
445 2.42464
450 2.46527
455 2.24445
460 2.01167
465 2.93428
470 2.29082
475 2.50968
480 1.91768
485 2.06725
490 1.99389
495 1.79116
500 1.66113
505 1.50998
510 1.59974
515 2.38749
520 2.06226
525 1.65659
530 1.5487
535 1.22402
540 1.43564
545 1.76079
550 1.79378
555 1.61307
560 1.70572
565 1.39006
570 1.88351
575 2.00539
580 1.53914
585 2.02023
590 1.42018
595 1.94036
600 0.75665
Ex : 293
200 1.07406
205 1.37586
210 1.07624
215 1.3918
220 1.04918
225 1.08081
230 1.52493
235 1.25607
240 1.14216
245 1.36493
250 1.14004
255 1.13583
260 1.20698
265 1.09588
270 1.14667
275 1.20842
280 1.23062
285 1.0986
290 1.12277
295 1.44437
300 1.54314
305 1.18601
310 1.07739
315 1.18428
320 1.28277
325 1.7799
330 1.74809
335 2.24591
340 2.11366
345 1.99276
350 1.81584
355 2.18683
360 2.06744
365 2.48812
370 2.56075
375 2.5871
380 2.11911
385 2.15359
390 2.05124
395 2.47241
400 1.94761
405 2.72311
410 2.64758
415 2.03247
420 1.75265
425 2.01581
430 2.15153
435 2.02358
440 2.04255
445 1.94224
450 1.65628
455 1.7105
460 2.08756
465 2.03477
470 1.7239
475 1.85342
480 1.65715
485 1.81384
490 2.07578
495 1.63504
500 1.52943
505 1.26773
510 1.48754
515 1.39594
520 1.39727
525 1.67629
530 1.2912
535 1.21743
540 1.41584
545 1.46852
550 1.43113
555 1.25962
560 1.3424
565 1.49359
570 1.47503
575 1.64907
580 1.94458
585 1.79961
590 1.3999
595 1.58973
600 0.361764
Ex : 298
200 0.891517
205 1.24349
210 1.21652
215 1.17021
220 1.18242
225 1.04323
230 1.35721
235 1.38336
240 1.28971
245 1.09
250 0.994122
255 0.897204
260 1.03667
265 1.27598
270 1.23463
275 1.46834
280 1.71312
285 1.2439
290 1.19958
295 1.67775
300 1.08115
305 1.09109
310 1.16999
315 0.983823
320 1.03063
325 1.60762
330 2.10608
335 2.05958
340 1.93967
345 2.02838
350 1.77738
355 2.30549
360 2.16365
365 1.61234
370 1.96826
375 1.7808
380 1.85433
385 2.32082
390 2.14724
395 1.94297
400 1.91772
405 1.8344
410 1.89887
415 2.33471
420 1.99372
425 1.92893
430 2.19584
435 1.78139
440 1.79585
445 2.10446
450 1.93335
455 1.90881
460 1.70467
465 1.41137
470 1.46192
475 1.51495
480 1.29798
485 1.50444
490 1.67424
495 1.2653
500 1.36625
505 1.38682
510 1.48694
515 1.20476
520 1.31187
525 1.18642
530 1.18434
535 1.5156
540 1.00814
545 1.06404
550 1.28294
555 1.25905
560 1.13738
565 0.997489
570 0.921292
575 1.21415
580 1.15976
585 1.61827
590 1.86729
595 1.51832
600 0.942377
Ex : 303
200 0.807679
205 1.05037
210 0.855479
215 1.05538
220 0.97938
225 1.00048
230 0.843383
235 0.956094
240 0.882541
245 0.923859
250 0.964038
255 1.02618
260 0.894867
265 1.01087
270 1.04811
275 1.10063
280 1.00603
285 0.9652
290 0.992249
295 1.15739
300 1.25285
305 1.31538
310 0.829692
315 0.817013
320 1.20057
325 1.67918
330 1.88744
335 1.85377
340 1.68003
345 2.07578
350 1.42067
355 1.78136
360 1.84589
365 1.7941
370 1.64385
375 1.60372
380 1.59344
385 2.0316
390 1.75271
395 2.03367
400 2.20031
405 2.06016
410 2.10865
415 1.7288
420 1.9461
425 1.7038
430 1.56916
435 1.74997
440 1.71282
445 1.6475
450 1.58646
455 1.76454
460 1.53247
465 1.40869
470 1.50391
475 1.64338
480 1.30696
485 1.27881
490 1.36798
495 1.54814
500 1.37901
505 1.17603
510 1.26915
515 1.30602
520 1.07909
525 1.08296
530 1.2322
535 1.04969
540 1.10991
545 0.971333
550 0.804732
555 1.02134
560 1.10736
565 1.17578
570 1.09594
575 0.906175
580 0.876476
585 1.146
590 1.04079
595 1.33594
600 1.34647
Ex : 308
200 1.08824
205 0.933765
210 1.26693
215 0.815777
220 0.813291
225 0.830355
230 1.05628
235 0.802452
240 0.955891
245 1.04434
250 0.932594
255 0.842674
260 0.740456
265 0.667047
270 0.747748
275 0.832555
280 1.26987
285 0.762521
290 0.867894
295 0.97148
300 1.08313
305 1.15505
310 0.903323
315 0.931626
320 0.86408
325 1.30117
330 1.64877
335 1.83347
340 1.96952
345 1.79254
350 1.91059
355 1.58956
360 1.66628
365 1.77541
370 1.7918
375 1.65252
380 1.56587
385 1.49696
390 1.59091
395 1.57432
400 1.62778
405 1.84093
410 1.71776
415 1.39346
420 1.66826
425 1.359
430 2.00215
435 1.52209
440 1.51899
445 1.47412
450 1.43961
455 1.40245
460 1.51343
465 1.23914
470 1.30454
475 1.30952
480 1.19734
485 1.34704
490 1.31474
495 1.34362
500 1.42633
505 1.22771
510 1.08319
515 0.847905
520 0.922009
525 0.926397
530 1.43473
535 1.04528
540 0.927642
545 0.920443
550 0.963513
555 1.08218
560 0.939713
565 1.031
570 1.12342
575 1.1736
580 0.975065
585 0.897822
590 0.999013
595 0.867543
600 0.681752
Ex : 313
200 0.682095
205 0.710587
210 0.606239
215 0.749978
220 0.594146
225 0.807527
230 0.950679
235 0.788517
240 0.760264
245 0.735737
250 0.758785
255 0.971069
260 0.765053
265 0.903001
270 0.551544
275 0.843006
280 0.774678
285 0.855651
290 0.880682
295 0.741781
300 0.6584
305 0.96876
310 1.1711
315 0.957939
320 0.992991
325 1.57609
330 1.80688
335 1.90111
340 1.80699
345 1.87281
350 1.63208
355 1.64024
360 1.67396
365 1.55972
370 1.50975
375 1.73568
380 1.74651
385 1.73427
390 1.78222
395 2.11552
400 1.84082
405 2.19537
410 1.93465
415 1.90937
420 1.93482
425 1.71578
430 2.01522
435 1.81865
440 1.7516
445 1.5005
450 1.30006
455 1.59657
460 1.59278
465 1.495
470 1.59841
475 1.46024
480 1.52011
485 1.08843
490 1.21087
495 1.06843
500 0.919413
505 1.16605
510 1.0147
515 1.04076
520 1.11208
525 0.882546
530 0.88204
535 0.970257
540 0.817344
545 0.948215
550 0.9998
555 0.876361
560 0.97186
565 0.752113
570 0.682242
575 0.687444
580 1.09893
585 0.7564
590 0.966077
595 0.627113
600 1.66859
Ex : 318
200 0.461957
205 0.549073
210 0.759772
215 0.726868
220 0.657574
225 0.688866
230 0.830726
235 0.944163
240 0.682986
245 0.601307
250 0.645366
255 0.715397
260 0.754156
265 0.711819
270 0.679932
275 0.631555
280 0.741011
285 0.639011
290 0.900674
295 0.701334
300 0.687988
305 0.681167
310 0.944588
315 3.10463
320 2.58442
325 2.18615
330 2.84385
335 2.62527
340 2.36811
345 2.57241
350 3.15161
355 3.80763
360 3.85621
365 4.51696
370 5.12987
375 6.0188
380 6.5405
385 6.79909
390 7.4378
395 7.7664
400 7.83516
405 8.05955
410 8.65627
415 8.08668
420 7.92337
425 7.99572
430 7.34984
435 7.22174
440 7.06816
445 6.24076
450 6.26281
455 5.95982
460 5.66091
465 5.31225
470 4.56001
475 4.10361
480 4.21067
485 3.31836
490 3.25201
495 2.94216
500 2.56781
505 2.68633
510 2.23768
515 2.23013
520 1.87341
525 1.58071
530 1.61811
535 1.41057
540 1.29332
545 1.3766
550 1.05795
555 1.20215
560 1.1345
565 1.07534
570 0.965993
575 1.0205
580 0.658303
585 0.923136
590 0.747912
595 0.609349
600 0.0693416
Ex : 323
200 0.54235
205 0.586721
210 0.695032
215 0.701787
220 0.635976
225 0.627414
230 0.497457
235 0.551605
240 0.503097
245 0.551203
250 0.673009
255 0.52641
260 0.847089
265 0.496508
270 0.6939
275 0.561423
280 0.634059
285 0.750247
290 0.574035
295 0.730324
300 0.700385
305 0.705502
310 0.738121
315 26.7941
320 130.607
325 54.083
330 10.1552
335 5.79691
340 6.21112
345 7.32673
350 10.1045
355 12.5478
360 14.9065
365 18.0282
370 20.6281
375 24.3412
380 27.8056
385 29.7186
390 31.2627
395 34.099
400 36.1093
405 35.5953
410 35.2178
415 34.5858
420 34.8516
425 33.1656
430 32.6036
435 30.5199
440 28.9144
445 29.2007
450 26.8623
455 24.1543
460 23.0591
465 21.8288
470 19.7087
475 18.3992
480 16.416
485 15.4772
490 13.3048
495 11.8881
500 10.4691
505 9.51878
510 8.41741
515 7.42192
520 6.16933
525 6.07208
530 5.08023
535 4.24845
540 3.84316
545 3.58192
550 3.23863
555 3.0395
560 2.48108
565 2.22392
570 1.98072
575 1.64989
580 1.3503
585 1.10735
590 0.947725
595 0.976718
600 0.84827
Ex : 328
200 0.529388
205 0.500186
210 0.712328
215 0.615046
220 0.505191
225 0.766812
230 0.539242
235 0.553919
240 0.519247
245 0.593569
250 0.646453
255 0.590352
260 0.644465
265 0.701253
270 0.516633
275 0.790224
280 0.704311
285 0.723472
290 0.807666
295 0.751145
300 0.87174
305 0.897976
310 1.03896
315 8.42015
320 331.626
325 799.92
330 233.805
335 33.6247
340 11.8612
345 10.0061
350 11.8951
355 15.9409
360 20.1508
365 22.3225
370 25.0168
375 28.949
380 31.7248
385 34.631
390 37.9732
395 40.9158
400 42.8288
405 43.432
410 43.6978
415 42.5652
420 41.0801
425 40.3974
430 37.7262
435 36.3532
440 35.1121
445 33.4276
450 30.8115
455 29.7732
460 27.474
465 25.572
470 22.8728
475 21.6611
480 20.0824
485 18.0065
490 16.2947
495 14.3246
500 13.1855
505 11.0276
510 10.1763
515 8.7768
520 7.92308
525 6.92834
530 6.13639
535 5.17691
540 4.76654
545 4.381
550 4.11433
555 3.47312
560 3.34377
565 2.75099
570 2.43303
575 2.23415
580 1.8782
585 1.60139
590 1.44038
595 1.18605
600 0.683213
Ex : 333
200 0.545922
205 0.770629
210 0.621205
215 0.519659
220 0.667507
225 0.854382
230 0.739488
235 0.727808
240 0.605034
245 0.807381
250 0.59737
255 0.776941
260 0.753724
265 0.764797
270 0.804709
275 0.725626
280 0.790216
285 0.918518
290 0.707327
295 0.72931
300 0.983983
305 0.928865
310 1.468
315 1.45384
320 47.8751
325 983.165
330 1682.95
335 420.78
340 55.806
345 14.2466
350 9.147
355 9.33094
360 11.9775
365 17.063
370 17.187
375 17.1822
380 19.4975
385 21.0454
390 23.1471
395 24.1943
400 25.6427
405 25.8312
410 25.6811
415 25.457
420 24.3587
425 23.3903
430 22.423
435 21.2321
440 20.6938
445 19.5879
450 18.4611
455 18.4765
460 16.1039
465 15.4723
470 14.3789
475 13.0087
480 11.7424
485 11.1209
490 10.0663
495 9.39079
500 8.06695
505 7.68986
510 6.59507
515 6.02825
520 5.36179
525 4.80677
530 4.26449
535 4.00648
540 3.83213
545 3.27075
550 3.09649
555 2.79421
560 2.58368
565 2.45842
570 2.05381
575 1.87834
580 1.86698
585 1.45107
590 1.50204
595 1.44037
600 1.61344
Ex : 338
200 0.686099
205 0.63421
210 0.577363
215 0.565914
220 0.819408
225 0.788041
230 0.584404
235 0.556054
240 0.605863
245 0.782378
250 0.656803
255 0.840859
260 0.713989
265 0.737251
270 0.701338
275 0.781702
280 0.77006
285 0.7035
290 0.806332
295 0.806674
300 0.88965
305 1.06289
310 1.11767
315 1.27936
320 2.12645
325 91.2963
330 1485.44
335 2152.09
340 513.076
345 66.1456
350 14.4154
355 7.72058
360 6.76294
365 8.51291
370 12.9973
375 12.8302
380 11.7591
385 11.4072
390 12.6948
395 13.9154
400 13.6599
405 13.5691
410 14.3417
415 14.6242
420 13.9698
425 14.064
430 12.7113
435 12.599
440 12.4232
445 11.3909
450 10.8759
455 10.295
460 9.70467
465 8.87558
470 8.13905
475 7.88905
480 7.39456
485 7.08575
490 6.26069
495 5.78263
500 5.72226
505 5.03972
510 4.63384
515 4.26125
520 3.70588
525 3.46491
530 3.46953
535 2.93718
540 2.7462
545 2.8683
550 2.44516
555 2.4118
560 2.21402
565 2.14106
570 1.87184
575 1.99703
580 1.42765
585 1.42505
590 1.4797
595 1.3533
600 1.26809
Ex : 343
200 0.561899
205 0.514679
210 0.541163
215 0.549222
220 0.585403
225 0.567436
230 0.557031
235 0.571654
240 0.503817
245 0.489073
250 0.600501
255 0.733471
260 0.609865
265 0.647715
270 0.706809
275 0.695663
280 0.701421
285 0.800213
290 0.714543
295 0.773507
300 1.01903
305 0.931066
310 1.16757
315 1.13519
320 1.65129
325 3.07423
330 104.025
335 1673.43
340 2375.25
345 558.423
350 70.7171
355 13.8252
360 6.6718
365 5.15106
370 5.79334
375 9.70104
380 11.5505
385 10.0356
390 9.59941
395 9.60182
400 9.84691
405 10.3048
410 10.9408
415 11.5531
420 10.5618
425 9.96275
430 10.23
435 9.33473
440 9.27598
445 9.20642
450 8.4283
455 8.48708
460 7.34627
465 7.06791
470 6.74527
475 6.35452
480 5.80321
485 5.68704
490 5.34395
495 5.18003
500 4.6598
505 4.68553
510 3.8258
515 3.6165
520 3.44425
525 3.13035
530 3.02543
535 2.72734
540 2.5662
545 2.68926
550 2.27364
555 2.05998
560 2.07207
565 1.93189
570 1.67222
575 1.58207
580 1.3469
585 1.34472
590 1.42581
595 1.13313
600 0.647842
Ex : 348
200 0.638046
205 0.592088
210 0.68263
215 0.738542
220 0.56327
225 0.591161
230 0.532048
235 0.553754
240 0.472583
245 0.596469
250 0.573379
255 0.62415
260 0.707933
265 0.552383
270 0.634952
275 0.749495
280 0.580194
285 0.692095
290 0.680637
295 0.868995
300 0.815486
305 0.767319
310 0.801793
315 1.13585
320 1.15853
325 1.72688
330 3.53203
335 104.567
340 1668.8
345 2464.81
350 613.687
355 76.2218
360 13.9601
365 5.99843
370 4.30873
375 4.79864
380 8.47732
385 11.6835
390 11.4962
395 10.9911
400 10.013
405 9.86584
410 10.5884
415 11.173
420 10.9948
425 9.90768
430 9.64171
435 9.8305
440 8.95467
445 9.23243
450 8.06983
455 7.47711
460 7.33126
465 7.24437
470 6.60836
475 6.20054
480 5.99487
485 5.73996
490 4.99866
495 4.79892
500 4.68829
505 4.42282
510 3.91447
515 3.50083
520 3.29699
525 3.03969
530 2.91061
535 2.76547
540 2.49316
545 2.20386
550 2.11831
555 1.96199
560 1.89032
565 1.83525
570 1.5363
575 1.54507
580 1.34625
585 1.30179
590 1.13063
595 1.18231
600 1.16489
Ex : 353
200 0.47409
205 0.473986
210 0.550872
215 0.474169
220 0.47835
225 0.563444
230 0.566831
235 0.488525
240 0.498813
245 0.476926
250 0.397484
255 0.538159
260 0.60421
265 0.612757
270 0.67148
275 0.683754
280 0.646875
285 0.64949
290 0.628947
295 0.684613
300 0.751586
305 0.703609
310 0.793441
315 0.791948
320 0.895901
325 1.18382
330 2.21673
335 3.76837
340 108.073
345 1710.57
350 2427.17
355 582.474
360 72.7134
365 13.1261
370 5.65114
375 4.11011
380 4.45104
385 8.63716
390 13.3019
395 12.9908
400 10.6971
405 10.1519
410 10.858
415 11.5753
420 11.6878
425 10.3582
430 9.33177
435 9.38047
440 9.61945
445 8.70546
450 8.40353
455 7.84142
460 7.3374
465 7.18009
470 6.81722
475 6.64775
480 6.22752
485 5.9557
490 5.30426
495 4.92475
500 4.86575
505 4.38669
510 4.05999
515 3.50721
520 3.50472
525 2.92053
530 2.78556
535 2.66386
540 2.4858
545 2.13996
550 2.276
555 1.9444
560 1.91054
565 1.63068
570 1.55416
575 1.4247
580 1.25498
585 1.22341
590 1.07759
595 1.00422
600 0.628372
Ex : 358
200 0.580534
205 0.40088
210 0.618654
215 0.505601
220 0.475047
225 0.474859
230 0.485598
235 0.476904
240 0.505603
245 0.519089
250 0.560807
255 0.540078
260 0.509907
265 0.515885
270 0.633189
275 0.64152
280 0.666393
285 0.523207
290 0.777236
295 0.648845
300 0.606195
305 0.570978
310 0.666869
315 0.778181
320 0.780609
325 1.01771
330 1.42407
335 2.30587
340 3.67315
345 101.959
350 1630.19
355 2427.01
360 592.046
365 73.3748
370 12.8379
375 5.51105
380 4.53429
385 5.56518
390 9.10963
395 13.2573
400 12.385
405 10.5206
410 10.6859
415 10.7597
420 10.5741
425 9.99782
430 9.11642
435 9.08041
440 9.32031
445 9.0087
450 7.92383
455 7.44657
460 7.36624
465 6.88813
470 6.65036
475 6.42523
480 6.00502
485 5.93916
490 5.22705
495 5.02573
500 4.56452
505 4.439
510 3.77997
515 3.72744
520 3.34159
525 3.1246
530 2.6664
535 2.41561
540 2.42625
545 2.04508
550 2.11954
555 1.9589
560 1.78584
565 1.64802
570 1.5114
575 1.43264
580 1.21668
585 1.03549
590 1.03281
595 0.887863
600 2.21679
Ex : 363
200 0.484722
205 0.442957
210 0.592834
215 0.485288
220 0.46689
225 0.460308
230 0.398658
235 0.420819
240 0.349292
245 0.44583
250 0.411119
255 0.462588
260 0.410758
265 0.335776
270 0.420193
275 0.463263
280 0.5002
285 0.451364
290 0.517955
295 0.518595
300 0.680157
305 0.604563
310 0.606086
315 0.715637
320 0.632223
325 0.958458
330 1.25188
335 1.56388
340 2.20194
345 3.48433
350 92.8513
355 1566.78
360 2385.99
365 608.823
370 74.8589
375 13.0116
380 6.18361
385 6.80846
390 8.38691
395 9.38453
400 12.1874
405 13.4257
410 12.5698
415 12.1427
420 10.9207
425 9.96157
430 9.71306
435 9.65705
440 9.50715
445 9.14094
450 8.26799
455 7.72836
460 7.41433
465 7.30562
470 6.99159
475 6.49236
480 6.24583
485 5.93388
490 5.40667
495 5.12443
500 4.71658
505 4.26923
510 4.06042
515 3.47315
520 3.45272
525 2.99481
530 2.96587
535 2.7401
540 2.40987
545 2.17358
550 2.12719
555 2.00659
560 1.71667
565 1.70395
570 1.46891
575 1.33894
580 1.13247
585 1.01127
590 0.953695
595 0.850004
600 0.576574
Ex : 368
200 0.390108
205 0.34574
210 0.44248
215 0.371693
220 0.501617
225 0.456633
230 0.492072
235 0.460059
240 0.369518
245 0.402827
250 0.443838
255 0.507835
260 0.389129
265 0.440799
270 0.448491
275 0.450294
280 0.485277
285 0.574521
290 0.470313
295 0.525937
300 0.489022
305 0.498316
310 0.613719
315 0.631316
320 0.567495
325 0.785078
330 1.07742
335 1.00949
340 1.52992
345 2.30014
350 3.40117
355 75.3387
360 1496.27
365 2429.95
370 636.623
375 78.6737
380 14.2646
385 8.82693
390 10.278
395 10.46
400 9.9328
405 12.9676
410 15.9862
415 15.3619
420 13.9293
425 11.8031
430 10.7865
435 10.3363
440 10.3032
445 10.2019
450 9.14458
455 8.64472
460 8.36049
465 7.71242
470 7.26754
475 7.11406
480 6.55937
485 6.00033
490 5.59061
495 5.26103
500 4.78381
505 4.40234
510 4.12465
515 3.68248
520 3.55865
525 3.08644
530 2.9807
535 2.7432
540 2.52965
545 2.34772
550 2.12256
555 1.97579
560 1.62484
565 1.62186
570 1.47553
575 1.30345
580 0.972423
585 0.988372
590 0.941094
595 0.699179
600 0.802099
Ex : 373
200 0.448297
205 0.378411
210 0.391603
215 0.450493
220 0.367805
225 0.376427
230 0.427803
235 0.349749
240 0.416514
245 0.429807
250 0.469485
255 0.390879
260 0.456316
265 0.407416
270 0.398952
275 0.44127
280 0.461657
285 0.51371
290 0.478731
295 0.479815
300 0.404526
305 0.485008
310 0.580476
315 0.559081
320 0.637352
325 0.638706
330 0.77452
335 0.944884
340 1.10107
345 1.49749
350 2.16158
355 3.1407
360 87.7714
365 1513.43
370 2395.68
375 622.522
380 77.4317
385 15.7166
390 10.8697
395 11.5123
400 10.2043
405 9.68808
410 12.7075
415 16.8795
420 15.277
425 12.7324
430 10.9242
435 9.99358
440 10.5258
445 9.82585
450 9.18709
455 8.32328
460 7.82102
465 7.15169
470 7.22488
475 6.87501
480 6.24948
485 5.83876
490 5.49536
495 5.16294
500 4.85237
505 4.45412
510 4.01613
515 3.83596
520 3.42257
525 3.15023
530 2.8238
535 2.72832
540 2.49474
545 2.02735
550 1.93247
555 1.84673
560 1.59095
565 1.6477
570 1.38827
575 1.28474
580 1.13344
585 0.928424
590 0.862117
595 0.782306
600 0.786552
Ex : 378
200 0.277108
205 0.321821
210 0.336605
215 0.345128
220 0.338144
225 0.379521
230 0.381796
235 0.48607
240 0.385017
245 0.379013
250 0.377713
255 0.369876
260 0.405105
265 0.400529
270 0.379291
275 0.362317
280 0.393232
285 0.46113
290 0.397313
295 0.429446
300 0.437695
305 0.428337
310 0.551058
315 0.573561
320 0.50285
325 0.575495
330 0.733174
335 0.864334
340 0.983953
345 1.24946
350 1.63595
355 2.16847
360 3.3206
365 82.3
370 1512.13
375 2440.46
380 636.051
385 79.9744
390 16.7344
395 10.4993
400 8.52806
405 7.56286
410 8.57194
415 10.8493
420 13.2608
425 11.7117
430 9.80029
435 8.96229
440 8.56461
445 8.3354
450 7.79815
455 7.20196
460 7.0202
465 6.46427
470 6.38152
475 6.21062
480 5.9091
485 5.45109
490 5.1497
495 5.05051
500 4.64609
505 4.2048
510 4.04271
515 3.559
520 3.15467
525 2.84145
530 2.74308
535 2.61856
540 2.24708
545 2.13973
550 1.89314
555 1.68518
560 1.66261
565 1.51061
570 1.43616
575 1.23508
580 1.0072
585 0.991617
590 0.793527
595 0.775907
600 0.757469
Ex : 383
200 0.444362
205 0.369985
210 0.285751
215 0.392082
220 0.304158
225 0.313987
230 0.375459
235 0.412075
240 0.322147
245 0.421659
250 0.349622
255 0.364406
260 0.42623
265 0.387605
270 0.407583
275 0.422685
280 0.436281
285 0.388382
290 0.39472
295 0.405474
300 0.490828
305 0.467024
310 0.538787
315 0.522105
320 0.503472
325 0.525105
330 0.68338
335 0.719872
340 0.850494
345 0.967081
350 1.12841
355 1.35727
360 1.97391
365 3.38574
370 76.4734
375 1482.36
380 2513.98
385 662.814
390 85.2891
395 17.3965
400 9.30751
405 8.46224
410 8.68207
415 9.23604
420 9.70756
425 11.4826
430 11.5777
435 9.79535
440 9.01698
445 8.59396
450 7.65546
455 6.78492
460 6.9781
465 6.73982
470 6.44376
475 6.14668
480 5.96656
485 5.35901
490 5.3557
495 4.71339
500 4.32536
505 4.15252
510 3.76387
515 3.66287
520 3.18655
525 2.92926
530 2.95817
535 2.54641
540 2.39601
545 2.10534
550 2.08948
555 1.76419
560 1.65718
565 1.49039
570 1.41538
575 1.25578
580 1.11213
585 0.927286
590 0.827071
595 0.6727
600 0.295495
Ex : 388
200 0.444105
205 0.357428
210 0.310343
215 0.312495
220 0.32938
225 0.314027
230 0.295535
235 0.347731
240 0.345457
245 0.303366
250 0.37298
255 0.394103
260 0.378927
265 0.413277
270 0.364858
275 0.382063
280 0.3878
285 0.440855
290 0.360674
295 0.453481
300 0.353063
305 0.443361
310 0.426767
315 0.387689
320 0.567927
325 0.529493
330 0.643822
335 0.660239
340 0.742726
345 0.962654
350 1.07535
355 1.20277
360 1.58573
365 1.97555
370 3.23412
375 82.2422
380 1522.16
385 2502.04
390 660.931
395 86.1498
400 18.1123
405 10.6922
410 10.8494
415 11.5559
420 10.9206
425 9.63838
430 10.9413
435 12.2545
440 10.6987
445 9.85441
450 8.84961
455 7.78676
460 7.15794
465 6.93373
470 6.62872
475 6.47133
480 6.03875
485 5.58099
490 5.22536
495 4.91267
500 4.44259
505 4.21386
510 3.82691
515 3.842
520 3.30286
525 3.06956
530 2.78758
535 2.60921
540 2.26367
545 2.11467
550 2.14694
555 1.65237
560 1.54454
565 1.44712
570 1.33231
575 1.21507
580 1.03261
585 0.821017
590 0.713498
595 0.724944
600 0.801491
Ex : 393
200 0.332509
205 0.40614
210 0.36812
215 0.321517
220 0.393746
225 0.33851
230 0.292586
235 0.299599
240 0.36467
245 0.326041
250 0.376139
255 0.327787
260 0.326342
265 0.398588
270 0.36843
275 0.397398
280 0.394865
285 0.365743
290 0.336639
295 0.472265
300 0.382882
305 0.396713
310 0.400753
315 0.384117
320 0.465593
325 0.460858
330 0.53965
335 0.592677
340 0.661632
345 0.700531
350 0.85022
355 0.888768
360 1.09252
365 1.48033
370 2.02182
375 3.17486
380 70.947
385 1496.32
390 2547.3
395 681.78
400 88.3092
405 18.3086
410 11.1738
415 12.0939
420 11.7366
425 9.71674
430 8.52167
435 9.94661
440 12.1146
445 10.9622
450 9.06657
455 8.04505
460 7.08369
465 6.66234
470 6.55609
475 6.20281
480 6.02308
485 5.7247
490 5.2486
495 4.80825
500 4.4667
505 4.20371
510 4.00049
515 3.7652
520 3.20457
525 3.00072
530 2.66264
535 2.61225
540 2.15936
545 2.14941
550 1.89478
555 1.71112
560 1.56567
565 1.44882
570 1.32734
575 1.06794
580 0.96788
585 0.852913
590 0.771438
595 0.696546
600 0.455901
Ex : 398
200 0.296756
205 0.34213
210 0.380724
215 0.319775
220 0.307964
225 0.317347
230 0.330555
235 0.33781
240 0.384387
245 0.372916
250 0.348151
255 0.344179
260 0.353381
265 0.315993
270 0.324005
275 0.31403
280 0.357347
285 0.336857
290 0.400112
295 0.410799
300 0.395202
305 0.336921
310 0.403218
315 0.34438
320 0.442621
325 0.454318
330 0.508388
335 0.605785
340 0.689063
345 0.572163
350 0.717838
355 0.824401
360 0.962198
365 1.16998
370 1.51726
375 1.97658
380 3.26392
385 76.9427
390 1536.56
395 2589.06
400 682.145
405 85.6262
410 16.725
415 9.73179
420 8.67159
425 7.23619
430 6.11905
435 6.17919
440 7.19259
445 9.5455
450 8.92189
455 7.1753
460 6.32912
465 5.77449
470 5.60726
475 5.25777
480 5.08415
485 5.06054
490 4.65933
495 4.57656
500 4.14968
505 3.80141
510 3.64727
515 3.34583
520 3.18816
525 2.9018
530 2.5989
535 2.32816
540 2.12856
545 2.11496
550 1.97751
555 1.63352
560 1.43682
565 1.42351
570 1.28527
575 1.03649
580 0.936896
585 0.860528
590 0.688032
595 0.624396
600 1.39361
Ex : 403
200 0.216672
205 0.321484
210 0.380626
215 0.302812
220 0.292382
225 0.328238
230 0.262338
235 0.335724
240 0.322263
245 0.391313
250 0.3387
255 0.29399
260 0.326358
265 0.355096
270 0.280621
275 0.330994
280 0.333357
285 0.420741
290 0.370483
295 0.425664
300 0.335927
305 0.384665
310 0.366378
315 0.415864
320 0.40611
325 0.382153
330 0.505775
335 0.550099
340 0.613957
345 0.582497
350 0.69053
355 0.743887
360 0.846262
365 1.01942
370 1.1471
375 1.42962
380 1.99747
385 3.48499
390 84.1947
395 1555.46
400 2554.88
405 676.488
410 83.7262
415 14.9701
420 6.82407
425 5.5658
430 4.68216
435 4.62037
440 4.82406
445 5.5769
450 7.47861
455 8.06454
460 6.11589
465 5.65806
470 5.18068
475 5.00544
480 4.83208
485 4.65976
490 4.51624
495 4.11649
500 3.79827
505 3.67432
510 3.54102
515 3.05426
520 3.07281
525 2.74948
530 2.54835
535 2.43054
540 2.22228
545 1.93665
550 1.7629
555 1.81214
560 1.5557
565 1.41463
570 1.13415
575 1.00925
580 0.933151
585 0.758252
590 0.640734
595 0.647339
600 0.257537
Ex : 408
200 0.253896
205 0.305701
210 0.308177
215 0.287491
220 0.325855
225 0.302639
230 0.33466
235 0.297243
240 0.356786
245 0.333619
250 0.318924
255 0.306973
260 0.346742
265 0.355799
270 0.332882
275 0.369472
280 0.390857
285 0.336235
290 0.321972
295 0.370388
300 0.301403
305 0.369627
310 0.34853
315 0.356674
320 0.380733
325 0.390871
330 0.404868
335 0.43922
340 0.537654
345 0.549956
350 0.607851
355 0.671197
360 0.770562
365 0.80274
370 0.86154
375 1.09392
380 1.55475
385 2.01609
390 3.38921
395 79.3907
400 1577.05
405 2586.84
410 663.601
415 82.4912
420 14.6333
425 6.15534
430 5.17236
435 4.78295
440 4.75707
445 4.92064
450 4.87665
455 6.67652
460 7.94906
465 6.49044
470 5.73882
475 5.23626
480 4.62944
485 4.51935
490 4.13457
495 4.1194
500 3.80218
505 3.62551
510 3.48884
515 3.19496
520 2.86613
525 2.69105
530 2.46197
535 2.27598
540 2.12875
545 1.96704
550 1.88427
555 1.72665
560 1.60754
565 1.42439
570 1.14988
575 0.9779
580 0.97315
585 0.74038
590 0.771511
595 0.651434
600 0.52929
Ex : 413
200 0.324603
205 0.365843
210 0.272347
215 0.307462
220 0.269281
225 0.319319
230 0.295724
235 0.291185
240 0.305776
245 0.314385
250 0.304604
255 0.30341
260 0.317413
265 0.32642
270 0.366514
275 0.352794
280 0.252592
285 0.307619
290 0.271336
295 0.353966
300 0.368087
305 0.383891
310 0.325714
315 0.362967
320 0.38131
325 0.43925
330 0.497952
335 0.536922
340 0.52054
345 0.542362
350 0.484479
355 0.565049
360 0.606164
365 0.751989
370 0.80112
375 0.977368
380 1.04869
385 1.4088
390 2.0028
395 3.26802
400 88.975
405 1620.28
410 2560.51
415 641.922
420 79.4042
425 13.6152
430 5.9525
435 4.84477
440 4.66038
445 4.48833
450 4.3547
455 4.37164
460 5.54861
465 7.08792
470 6.38589
475 5.31101
480 4.87601
485 4.22128
490 3.932
495 3.77186
500 3.70718
505 3.28953
510 3.08988
515 2.92932
520 2.74443
525 2.6437
530 2.55597
535 2.1618
540 2.10706
545 1.93651
550 1.71029
555 1.65935
560 1.55518
565 1.38704
570 1.10217
575 0.921243
580 0.852394
585 0.814439
590 0.752245
595 0.656066
600 0.516288
Ex : 418
200 0.283145
205 0.264069
210 0.267243
215 0.305028
220 0.251138
225 0.313352
230 0.238531
235 0.258221
240 0.401166
245 0.294614
250 0.323875
255 0.289546
260 0.365862
265 0.39343
270 0.333694
275 0.32448
280 0.306639
285 0.33349
290 0.355294
295 0.333204
300 0.288974
305 0.293269
310 0.35486
315 0.318044
320 0.384416
325 0.422593
330 0.355721
335 0.45555
340 0.417533
345 0.411542
350 0.453483
355 0.485465
360 0.630427
365 0.620069
370 0.651475
375 0.781063
380 0.966296
385 1.09781
390 1.48049
395 2.03483
400 3.38959
405 83.3714
410 1587.87
415 2562.39
420 661.937
425 80.8624
430 13.0663
435 4.86753
440 4.20055
445 3.86687
450 3.34515
455 3.32762
460 3.4348
465 4.10052
470 6.27679
475 6.12589
480 4.8423
485 4.19155
490 3.71418
495 3.60145
500 3.29527
505 2.96316
510 3.09378
515 2.73112
520 2.62992
525 2.46819
530 2.20517
535 2.04599
540 1.85558
545 1.84135
550 1.769
555 1.56848
560 1.34233
565 1.34169
570 1.24098
575 1.02917
580 1.03174
585 0.766996
590 0.722915
595 0.617851
600 0.434181
Ex : 423
200 0.26379
205 0.289489
210 0.253307
215 0.286332
220 0.354097
225 0.282736
230 0.340644
235 0.236734
240 0.306477
245 0.240721
250 0.271639
255 0.317647
260 0.320113
265 0.313982
270 0.29289
275 0.283908
280 0.26769
285 0.342621
290 0.366383
295 0.310278
300 0.300273
305 0.282388
310 0.359391
315 0.30701
320 0.311343
325 0.403469
330 0.465549
335 0.458709
340 0.441334
345 0.511056
350 0.50715
355 0.49514
360 0.537642
365 0.600506
370 0.67087
375 0.654326
380 0.77686
385 0.984914
390 1.13373
395 1.54297
400 2.02589
405 3.40262
410 85.5851
415 1633.31
420 2522.71
425 621.359
430 75.8601
435 11.905
440 4.16155
445 3.62033
450 3.09072
455 2.82326
460 2.77254
465 2.91162
470 3.24044
475 4.99193
480 5.84323
485 4.47953
490 3.63373
495 3.43878
500 2.93079
505 2.81345
510 2.88769
515 2.77284
520 2.59369
525 2.46115
530 2.19056
535 2.08722
540 1.90208
545 1.82495
550 1.84023
555 1.68157
560 1.40196
565 1.27922
570 1.21067
575 1.04162
580 0.777215
585 0.806226
590 0.723313
595 0.603882
600 0.519133
Ex : 428
200 0.266389
205 0.278451
210 0.253436
215 0.298838
220 0.289927
225 0.22708
230 0.262671
235 0.303544
240 0.315658
245 0.299315
250 0.267563
255 0.350954
260 0.265039
265 0.28623
270 0.386064
275 0.331569
280 0.298485
285 0.367837
290 0.293716
295 0.319458
300 0.344663
305 0.354351
310 0.304272
315 0.428573
320 0.393154
325 0.393491
330 0.402338
335 0.45896
340 0.467748
345 0.402968
350 0.460843
355 0.469488
360 0.533724
365 0.564974
370 0.628735
375 0.647076
380 0.83378
385 0.873846
390 1.00193
395 1.26149
400 1.48695
405 2.06275
410 3.33093
415 93.821
420 1626.57
425 2516.68
430 641.437
435 77.8728
440 12.1855
445 4.14446
450 3.25195
455 3.25067
460 2.70145
465 2.61082
470 2.67527
475 2.88852
480 4.04152
485 5.75393
490 4.62888
495 3.71389
500 3.55821
505 2.92429
510 2.49544
515 2.54324
520 2.41912
525 2.24307
530 2.11912
535 1.94062
540 1.9265
545 1.811
550 1.6317
555 1.54998
560 1.52609
565 1.36243
570 1.14601
575 0.932033
580 0.84999
585 0.834052
590 0.738751
595 0.647517
600 0.292983
Ex : 433
200 0.319691
205 0.366033
210 0.311775
215 0.279602
220 0.23129
225 0.28784
230 0.224117
235 0.279037
240 0.2662
245 0.312151
250 0.336251
255 0.269523
260 0.290548
265 0.32542
270 0.255812
275 0.334256
280 0.337997
285 0.318191
290 0.31478
295 0.291699
300 0.379795
305 0.345811
310 0.321701
315 0.379312
320 0.332712
325 0.435703
330 0.434111
335 0.46394
340 0.439917
345 0.451013
350 0.484698
355 0.428934
360 0.528977
365 0.580942
370 0.591577
375 0.598432
380 0.633603
385 0.78322
390 0.784202
395 0.988547
400 1.21717
405 1.46941
410 2.18213
415 3.407
420 101.808
425 1712.82
430 2530.67
435 617.831
440 74.8979
445 11.7776
450 4.09448
455 3.14955
460 2.93053
465 2.87704
470 2.57002
475 2.36383
480 2.82432
485 3.53432
490 5.30552
495 4.72054
500 3.60454
505 3.18308
510 2.76327
515 2.46897
520 2.26878
525 2.17245
530 2.15499
535 2.12911
540 1.87047
545 1.77429
550 1.57843
555 1.45495
560 1.45914
565 1.16413
570 1.2105
575 0.931991
580 0.938372
585 0.853823
590 0.594406
595 0.717665
600 0.865035
Ex : 438
200 0.364088
205 0.251438
210 0.314532
215 0.296246
220 0.248757
225 0.261162
230 0.282847
235 0.299652
240 0.369812
245 0.286225
250 0.277983
255 0.305266
260 0.345076
265 0.243503
270 0.264136
275 0.277654
280 0.334963
285 0.354671
290 0.36482
295 0.358589
300 0.278589
305 0.410473
310 0.382219
315 0.366304
320 0.370784
325 0.392414
330 0.407548
335 0.376835
340 0.469135
345 0.421833
350 0.458751
355 0.520335
360 0.507514
365 0.477906
370 0.566997
375 0.518773
380 0.611739
385 0.620268
390 0.720021
395 0.847639
400 0.909933
405 1.18897
410 1.5116
415 2.06593
420 3.22432
425 95.9986
430 1669.81
435 2630.41
440 643.529
445 78.1504
450 12.326
455 4.17123
460 3.00239
465 3.02616
470 2.72423
475 2.36342
480 2.48547
485 2.43234
490 3.05536
495 4.62043
500 4.72379
505 3.64911
510 3.0252
515 2.82239
520 2.28392
525 2.34424
530 2.17318
535 1.99047
540 1.71499
545 1.75404
550 1.60918
555 1.576
560 1.34429
565 1.28118
570 1.05097
575 1.02497
580 0.938084
585 0.788451
590 0.63713
595 0.541023
600 0.395019
Ex : 443
200 0.363785
205 0.309159
210 0.321408
215 0.316287
220 0.368264
225 0.272158
230 0.363757
235 0.283304
240 0.302403
245 0.272123
250 0.34908
255 0.321045
260 0.317461
265 0.349298
270 0.32523
275 0.290618
280 0.321344
285 0.258832
290 0.345611
295 0.330251
300 0.36348
305 0.302097
310 0.356986
315 0.390784
320 0.360267
325 0.403839
330 0.363853
335 0.408307
340 0.404797
345 0.429248
350 0.441004
355 0.410152
360 0.530981
365 0.505275
370 0.589805
375 0.597287
380 0.542014
385 0.609827
390 0.7661
395 0.803027
400 0.900546
405 1.08657
410 1.29764
415 1.55738
420 2.18078
425 3.29807
430 105.688
435 1756.91
440 2632.48
445 637.919
450 77.4812
455 12.3338
460 4.2397
465 3.26296
470 3.04369
475 2.5874
480 2.46672
485 2.30096
490 2.42484
495 2.77287
500 3.83252
505 4.76099
510 3.65079
515 3.0017
520 2.73599
525 2.30799
530 1.99048
535 2.01794
540 1.96551
545 1.79122
550 1.61747
555 1.48345
560 1.29923
565 1.377
570 1.2167
575 1.0026
580 0.92284
585 0.908414
590 0.656789
595 0.638476
600 0.6584
Ex : 448
200 0.29012
205 0.305681
210 0.318461
215 0.357404
220 0.329539
225 0.316583
230 0.340753
235 0.295315
240 0.258329
245 0.398082
250 0.270141
255 0.27129
260 0.347938
265 0.2688
270 0.294823
275 0.319245
280 0.322631
285 0.299201
290 0.303582
295 0.307281
300 0.327973
305 0.291468
310 0.302125
315 0.34232
320 0.37838
325 0.361681
330 0.383885
335 0.447425
340 0.410066
345 0.40836
350 0.437397
355 0.444467
360 0.437887
365 0.518889
370 0.543199
375 0.518856
380 0.561282
385 0.627069
390 0.612265
395 0.789982
400 0.809095
405 0.948272
410 1.0342
415 1.29512
420 1.62383
425 2.29512
430 3.43183
435 104.692
440 1834.02
445 2737.13
450 666.183
455 80.6122
460 12.8222
465 4.31804
470 3.08839
475 2.84927
480 2.64449
485 2.44662
490 2.43667
495 2.39095
500 2.34485
505 3.18214
510 4.60889
515 3.82405
520 2.98879
525 2.66869
530 2.32025
535 2.10706
540 1.85841
545 1.68984
550 1.70653
555 1.58371
560 1.3637
565 1.17748
570 1.07069
575 0.858049
580 0.876589
585 0.779675
590 0.716287
595 0.563232
600 0.545263
Ex : 453
200 0.298625
205 0.263673
210 0.289417
215 0.285773
220 0.333764
225 0.411148
230 0.321723
235 0.274896
240 0.330267
245 0.285225
250 0.313033
255 0.363713
260 0.312799
265 0.298351
270 0.387937
275 0.348959
280 0.278758
285 0.304665
290 0.339127
295 0.367769
300 0.322926
305 0.333019
310 0.370343
315 0.341582
320 0.325829
325 0.349617
330 0.407497
335 0.409674
340 0.330356
345 0.374899
350 0.399634
355 0.427759
360 0.440187
365 0.521953
370 0.556152
375 0.534883
380 0.522439
385 0.55333
390 0.588382
395 0.616355
400 0.715002
405 0.780955
410 0.869723
415 0.946911
420 1.11732
425 1.42029
430 2.02523
435 3.3724
440 109.495
445 1947.59
450 2796.74
455 641.49
460 78.007
465 12.7233
470 4.21533
475 2.96536
480 2.88491
485 2.57254
490 2.43902
495 2.13353
500 2.06929
505 2.11351
510 2.55904
515 4.10564
520 3.96832
525 2.80065
530 2.55882
535 2.21488
540 1.94282
545 1.80897
550 1.62154
555 1.50602
560 1.41913
565 1.24249
570 1.24421
575 1.02358
580 0.841437
585 0.833282
590 0.708567
595 0.632592
600 0.469052
Ex : 458
200 0.261221
205 0.314615
210 0.261932
215 0.235637
220 0.248133
225 0.319003
230 0.31272
235 0.254265
240 0.295386
245 0.360641
250 0.318166
255 0.303592
260 0.327908
265 0.314851
270 0.304688
275 0.276261
280 0.39331
285 0.384741
290 0.344536
295 0.304545
300 0.329342
305 0.35802
310 0.395408
315 0.329046
320 0.374807
325 0.351183
330 0.361276
335 0.401595
340 0.439111
345 0.392723
350 0.376069
355 0.503272
360 0.445331
365 0.410316
370 0.515922
375 0.51238
380 0.608141
385 0.613727
390 0.559229
395 0.531652
400 0.50698
405 0.701558
410 0.786564
415 0.825646
420 1.03733
425 1.18746
430 1.48078
435 2.08459
440 3.28669
445 120.323
450 1980.27
455 2903.45
460 683.908
465 83.03
470 12.9841
475 4.20906
480 2.8929
485 2.8077
490 2.63888
495 2.35918
500 2.21481
505 2.12578
510 2.04259
515 2.37263
520 3.43077
525 3.99909
530 3.01501
535 2.43834
540 2.31811
545 1.96673
550 1.69958
555 1.56082
560 1.40749
565 1.4864
570 1.24894
575 0.972044
580 0.893074
585 0.83784
590 0.677861
595 0.590653
600 0.588248
Ex : 463
200 0.371296
205 0.330685
210 0.35533
215 0.261638
220 0.259542
225 0.279905
230 0.292904
235 0.333637
240 0.350847
245 0.287097
250 0.265165
255 0.267638
260 0.273858
265 0.321079
270 0.412329
275 0.323655
280 0.283386
285 0.330935
290 0.290745
295 0.366088
300 0.291618
305 0.329727
310 0.299887
315 0.301812
320 0.336824
325 0.317947
330 0.312828
335 0.366485
340 0.388657
345 0.427832
350 0.355736
355 0.515012
360 0.414239
365 0.420291
370 0.411664
375 0.441344
380 0.553912
385 0.580689
390 0.555489
395 0.575663
400 0.576289
405 0.637511
410 0.655861
415 0.756088
420 0.81395
425 0.910901
430 1.16476
435 1.56806
440 2.06294
445 3.47656
450 114.868
455 2035.88
460 3066.61
465 724.022
470 87.3225
475 13.1716
480 4.0831
485 2.7571
490 2.73818
495 2.49581
500 2.31928
505 2.07499
510 2.02436
515 2.21783
520 2.10643
525 2.85715
530 3.88792
535 3.2968
540 2.40515
545 2.0885
550 2.08414
555 1.76088
560 1.61506
565 1.4959
570 1.22794
575 1.08617
580 0.96428
585 0.790207
590 0.73949
595 0.675708
600 0.913403
Ex : 468
200 0.236704
205 0.269857
210 0.321833
215 0.237339
220 0.278632
225 0.299012
230 0.280443
235 0.256386
240 0.277642
245 0.255447
250 0.298483
255 0.295626
260 0.331034
265 0.265258
270 0.272586
275 0.306599
280 0.278585
285 0.244134
290 0.307607
295 0.267479
300 0.28661
305 0.29853
310 0.28116
315 0.29472
320 0.297765
325 0.262352
330 0.313983
335 0.291245
340 0.340254
345 0.340887
350 0.365294
355 0.363951
360 0.335594
365 0.354931
370 0.396466
375 0.397222
380 0.43931
385 0.539641
390 0.491276
395 0.523024
400 0.576375
405 0.561796
410 0.590337
415 0.704645
420 0.742728
425 0.724392
430 0.843919
435 1.03199
440 1.32935
445 2.05745
450 3.22284
455 126.072
460 2046.29
465 3179.86
470 743.303
475 88.8559
480 13.5496
485 3.96365
490 2.68993
495 2.47446
500 2.46389
505 2.1722
510 1.90325
515 1.91232
520 1.94332
525 2.04323
530 2.43606
535 3.38084
540 3.52804
545 2.47387
550 2.03556
555 2.01542
560 1.62339
565 1.38833
570 1.1779
575 1.08393
580 1.00419
585 0.840496
590 0.804512
595 0.693237
600 0.334235
Ex : 473
200 0.304559
205 0.321155
210 0.314621
215 0.268662
220 0.311261
225 0.325886
230 0.347697
235 0.353745
240 0.297453
245 0.26807
250 0.327373
255 0.336253
260 0.29673
265 0.249942
270 0.278333
275 0.29228
280 0.276185
285 0.314953
290 0.322324
295 0.364248
300 0.318761
305 0.262136
310 0.363842
315 0.361548
320 0.321728
325 0.335206
330 0.393219
335 0.386397
340 0.36918
345 0.363953
350 0.392477
355 0.391606
360 0.447896
365 0.4895
370 0.464085
375 0.48068
380 0.500766
385 0.489568
390 0.525329
395 0.601977
400 0.569154
405 0.561404
410 0.586041
415 0.579798
420 0.656226
425 0.658099
430 0.913508
435 0.884235
440 1.20343
445 1.54719
450 2.30336
455 3.58826
460 142.78
465 2224.02
470 3070.42
475 693.412
480 83.4349
485 12.7067
490 3.94535
495 2.46036
500 2.40366
505 2.35512
510 2.17014
515 2.04652
520 1.91816
525 2.00647
530 2.04873
535 2.08571
540 2.96606
545 3.44223
550 2.60058
555 1.97873
560 1.86628
565 1.51931
570 1.51279
575 1.19788
580 1.07607
585 0.760558
590 0.762106
595 0.660609
600 0.902477
Ex : 478
200 0.351314
205 0.355784
210 0.36366
215 0.350791
220 0.311167
225 0.321448
230 0.386852
235 0.283096
240 0.332883
245 0.346447
250 0.301951
255 0.414196
260 0.432015
265 0.356563
270 0.304987
275 0.340158
280 0.342623
285 0.340596
290 0.318372
295 0.421488
300 0.370029
305 0.316918
310 0.32414
315 0.385964
320 0.387715
325 0.355489
330 0.410074
335 0.415298
340 0.486528
345 0.358552
350 0.389908
355 0.457606
360 0.421255
365 0.535392
370 0.583654
375 0.454526
380 0.572887
385 0.592198
390 0.510298
395 0.51974
400 0.53735
405 0.630069
410 0.621869
415 0.640358
420 0.859295
425 0.785613
430 0.723462
435 0.957793
440 1.07399
445 1.39294
450 1.84192
455 2.45242
460 4.46308
465 154.601
470 2261.55
475 3106.31
480 734.971
485 88.1962
490 13.484
495 4.201
500 2.594
505 2.462
510 2.32135
515 2.07121
520 2.03528
525 2.0244
530 2.02303
535 1.93521
540 2.03895
545 2.51565
550 3.44421
555 2.80112
560 1.96628
565 1.70972
570 1.5601
575 1.1577
580 1.07464
585 0.837891
590 0.881964
595 0.746199
600 0.727656
Ex : 483
200 0.408319
205 0.356156
210 0.341659
215 0.339418
220 0.331737
225 0.374195
230 0.298904
235 0.332765
240 0.330599
245 0.325589
250 0.370334
255 0.342002
260 0.306188
265 0.413239
270 0.276354
275 0.353092
280 0.383217
285 0.350758
290 0.360863
295 0.314665
300 0.342062
305 0.401365
310 0.375342
315 0.328275
320 0.325861
325 0.391363
330 0.406441
335 0.428449
340 0.427106
345 0.450224
350 0.428302
355 0.439969
360 0.43584
365 0.443798
370 0.438173
375 0.456087
380 0.435437
385 0.499311
390 0.554617
395 0.626059
400 0.549417
405 0.544798
410 0.590199
415 0.679384
420 0.578792
425 0.600157
430 0.732024
435 0.860385
440 0.874492
445 1.00725
450 1.26759
455 1.78901
460 2.67773
465 4.36682
470 123.199
475 2209.65
480 3308.61
485 771.782
490 92.5447
495 13.8224
500 4.07999
505 2.39121
510 2.20991
515 2.19122
520 2.35834
525 2.35264
530 2.12496
535 2.09453
540 2.02243
545 1.96686
550 2.17164
555 2.84026
560 2.96438
565 2.20156
570 1.66489
575 1.36425
580 1.19482
585 0.891012
590 0.735499
595 0.752252
600 0.933066
Ex : 488
200 0.419395
205 0.352925
210 0.298195
215 0.403953
220 0.428325
225 0.43982
230 0.394044
235 0.467107
240 0.3624
245 0.347424
250 0.332058
255 0.406384
260 0.383459
265 0.355226
270 0.37233
275 0.359203
280 0.323154
285 0.369927
290 0.325496
295 0.397677
300 0.337686
305 0.340039
310 0.362094
315 0.354695
320 0.3326
325 0.370551
330 0.401329
335 0.5231
340 0.466484
345 0.436342
350 0.421999
355 0.445655
360 0.49047
365 0.416293
370 0.489875
375 0.507962
380 0.567135
385 0.537214
390 0.588354
395 0.613426
400 0.573989
405 0.720263
410 0.620619
415 0.620184
420 0.702641
425 0.73052
430 0.792249
435 0.760772
440 0.941008
445 1.00333
450 1.22275
455 1.56156
460 2.10831
465 2.84807
470 4.5309
475 147.476
480 2355.53
485 3254.68
490 748.877
495 90.2767
500 13.2374
505 4.11742
510 2.68201
515 2.36097
520 2.34939
525 2.39458
530 2.23324
535 2.00262
540 2.22116
545 1.87338
550 1.7461
555 1.82811
560 2.40488
565 2.7179
570 2.09224
575 1.44732
580 1.20464
585 0.988747
590 0.907877
595 0.756792
600 0.696058
Ex : 493
200 0.29662
205 0.373869
210 0.328499
215 0.334426
220 0.30886
225 0.339764
230 0.333034
235 0.375905
240 0.334752
245 0.39684
250 0.341014
255 0.35815
260 0.400327
265 0.342314
270 0.400786
275 0.356089
280 0.35421
285 0.377856
290 0.379467
295 0.286425
300 0.34808
305 0.419278
310 0.417554
315 0.456034
320 0.417889
325 0.439653
330 0.39033
335 0.481281
340 0.558638
345 0.419087
350 0.439534
355 0.497712
360 0.52139
365 0.483224
370 0.494011
375 0.477879
380 0.541498
385 0.569328
390 0.52662
395 0.548322
400 0.549929
405 0.5786
410 0.67402
415 0.607743
420 0.58093
425 0.61944
430 0.729513
435 0.782453
440 0.812472
445 0.83532
450 1.0024
455 1.25093
460 1.58303
465 2.12772
470 2.7434
475 4.11164
480 133.349
485 2296.34
490 3364.18
495 758.185
500 90.8559
505 13.4527
510 4.03016
515 2.65113
520 2.23604
525 2.40478
530 2.47363
535 2.2777
540 1.85979
545 1.87833
550 1.72637
555 1.57508
560 1.7749
565 1.86002
570 2.31482
575 1.92565
580 1.27414
585 1.07612
590 0.985798
595 0.851687
600 0.862599
Ex : 498
200 0.383742
205 0.3775
210 0.429006
215 0.386678
220 0.350736
225 0.432254
230 0.319423
235 0.371972
240 0.34267
245 0.424284
250 0.317067
255 0.367731
260 0.374968
265 0.494734
270 0.419065
275 0.361835
280 0.451973
285 0.394036
290 0.36382
295 0.349564
300 0.465447
305 0.383272
310 0.413017
315 0.41135
320 0.48783
325 0.466469
330 0.422183
335 0.39575
340 0.469909
345 0.525745
350 0.558364
355 0.445501
360 0.535682
365 0.542572
370 0.507112
375 0.538232
380 0.483165
385 0.669281
390 0.550224
395 0.522716
400 0.547151
405 0.62768
410 0.638746
415 0.691732
420 0.83473
425 0.588092
430 0.709251
435 0.738045
440 0.726307
445 0.829531
450 1.045
455 1.16281
460 1.22923
465 1.56766
470 2.22478
475 2.89095
480 4.34601
485 157.991
490 2407.61
495 3235.92
500 733.04
505 87.889
510 13.0028
515 4.0882
520 2.6276
525 2.45408
530 2.35073
535 2.36796
540 2.15335
545 2.09009
550 1.86091
555 1.77918
560 1.78742
565 1.56109
570 1.59546
575 1.96867
580 1.93464
585 1.33351
590 0.944079
595 1.05017
600 1.35625
Ex : 503
200 0.422935
205 0.337717
210 0.312336
215 0.35049
220 0.417377
225 0.44161
230 0.386757
235 0.431814
240 0.379329
245 0.523715
250 0.444781
255 0.364996
260 0.398307
265 0.444908
270 0.354312
275 0.434531
280 0.414815
285 0.453272
290 0.376286
295 0.347154
300 0.571927
305 0.457234
310 0.440566
315 0.474302
320 0.480155
325 0.607251
330 0.427247
335 0.457821
340 0.432444
345 0.459328
350 0.470283
355 0.519823
360 0.522301
365 0.512606
370 0.517805
375 0.507245
380 0.592553
385 0.615677
390 0.532987
395 0.721852
400 0.55592
405 0.592023
410 0.685469
415 0.673778
420 0.702017
425 0.687681
430 0.625356
435 0.784847
440 0.684902
445 0.747427
450 0.97367
455 1.03497
460 1.17865
465 1.48161
470 1.59792
475 2.00918
480 3.00713
485 4.45427
490 143.567
495 2367.27
500 3315.37
505 747.518
510 89.5159
515 13.4612
520 4.20884
525 2.70704
530 2.49324
535 2.36022
540 2.2805
545 2.1497
550 1.99632
555 1.75151
560 1.66941
565 1.61578
570 1.43093
575 1.36146
580 1.33927
585 1.81384
590 1.24541
595 1.00644
600 0.930003
Ex : 508
200 0.355666
205 0.413595
210 0.424098
215 0.390409
220 0.365136
225 0.452847
230 0.417625
235 0.446937
240 0.416846
245 0.41998
250 0.408688
255 0.333471
260 0.437504
265 0.39767
270 0.407027
275 0.404682
280 0.414668
285 0.357594
290 0.382151
295 0.404502
300 0.423634
305 0.399243
310 0.433905
315 0.463556
320 0.464895
325 0.441575
330 0.478927
335 0.570191
340 0.484705
345 0.542648
350 0.538235
355 0.539631
360 0.539269
365 0.495545
370 0.381339
375 0.515163
380 0.498192
385 0.538509
390 0.535096
395 0.663586
400 0.563171
405 0.58621
410 0.643439
415 0.626283
420 0.620663
425 0.599926
430 0.676856
435 0.706528
440 0.703696
445 0.875708
450 0.882916
455 0.978945
460 1.06174
465 1.29781
470 1.31332
475 1.59261
480 2.12807
485 2.81882
490 4.5427
495 154.182
500 2358.11
505 3254.92
510 768.315
515 92.1739
520 13.8388
525 4.18919
530 2.8066
535 2.39357
540 2.43052
545 2.28361
550 1.80322
555 1.66647
560 1.7684
565 1.46967
570 1.24866
575 1.17005
580 1.12068
585 1.32641
590 1.4756
595 1.25078
600 0.394611
Ex : 513
200 0.41713
205 0.344296
210 0.351825
215 0.43375
220 0.364576
225 0.408652
230 0.429462
235 0.337042
240 0.441727
245 0.43735
250 0.426096
255 0.390494
260 0.332501
265 0.412799
270 0.464302
275 0.451563
280 0.365663
285 0.37114
290 0.385669
295 0.386089
300 0.373382
305 0.399766
310 0.39272
315 0.362256
320 0.328213
325 0.433541
330 0.467091
335 0.526019
340 0.462952
345 0.560097
350 0.419525
355 0.425554
360 0.50477
365 0.555635
370 0.548135
375 0.60882
380 0.622262
385 0.529688
390 0.550021
395 0.645907
400 0.520998
405 0.570921
410 0.620156
415 0.673687
420 0.722697
425 0.737214
430 0.647821
435 0.86764
440 0.771837
445 0.709923
450 0.791102
455 0.80882
460 0.93439
465 1.15483
470 1.11439
475 1.42165
480 1.64032
485 2.14804
490 2.73071
495 4.32074
500 142.416
505 2301.63
510 3275.96
515 783.322
520 94.0691
525 14.0045
530 4.23241
535 2.76652
540 2.28194
545 2.07455
550 2.05115
555 1.94586
560 1.6899
565 1.51553
570 1.52038
575 1.27863
580 1.14673
585 1.1145
590 1.00044
595 1.14665
600 0.421476
Ex : 518
200 0.400246
205 0.387532
210 0.476182
215 0.370863
220 0.453291
225 0.437517
230 0.367115
235 0.397116
240 0.473078
245 0.427014
250 0.536537
255 0.472784
260 0.494315
265 0.498301
270 0.472798
275 0.421855
280 0.398056
285 0.436016
290 0.372676
295 0.415822
300 0.369514
305 0.352992
310 0.375869
315 0.458412
320 0.44917
325 0.395706
330 0.472586
335 0.495332
340 0.507016
345 0.526272
350 0.526159
355 0.517385
360 0.554726
365 0.516473
370 0.646117
375 0.479721
380 0.498632
385 0.547729
390 0.612778
395 0.637389
400 0.558063
405 0.538938
410 0.587754
415 0.793768
420 0.590668
425 0.580229
430 0.746551
435 0.670177
440 0.739397
445 0.647685
450 0.797421
455 0.90184
460 0.865556
465 1.12494
470 0.957892
475 1.23048
480 1.26568
485 1.57853
490 2.13631
495 2.7968
500 4.01643
505 139.209
510 2203.26
515 3221.74
520 778.511
525 93.2968
530 13.7232
535 4.1951
540 2.44496
545 2.22211
550 2.03537
555 2.08953
560 1.75212
565 1.68685
570 1.39116
575 1.09767
580 1.07212
585 1.11198
590 0.947831
595 0.968429
600 0.188263
Ex : 523
200 0.326728
205 0.504677
210 0.435858
215 0.386764
220 0.402831
225 0.563039
230 0.452347
235 0.414512
240 0.440037
245 0.42286
250 0.417371
255 0.441898
260 0.406497
265 0.400194
270 0.416052
275 0.490163
280 0.400578
285 0.475869
290 0.416524
295 0.483311
300 0.472336
305 0.412109
310 0.491029
315 0.45927
320 0.321563
325 0.468655
330 0.455212
335 0.555386
340 0.540958
345 0.47557
350 0.522524
355 0.54154
360 0.557381
365 0.534324
370 0.495253
375 0.511068
380 0.494039
385 0.528436
390 0.635664
395 0.51783
400 0.736612
405 0.695391
410 0.609717
415 0.616728
420 0.762446
425 0.823175
430 0.745018
435 0.725141
440 0.682872
445 0.795279
450 0.860248
455 0.948858
460 1.01824
465 0.944688
470 1.17117
475 1.12297
480 1.23731
485 1.34847
490 1.61798
495 1.86134
500 2.86005
505 4.25216
510 126.121
515 2101.21
520 3142.18
525 787.547
530 94.309
535 13.7715
540 4.0658
545 2.57426
550 2.12974
555 1.90751
560 1.77293
565 1.47779
570 1.49009
575 1.34961
580 1.15659
585 0.999119
590 1.03827
595 0.866605
600 0.202876
Ex : 528
200 0.41051
205 0.448794
210 0.452406
215 0.426994
220 0.419693
225 0.484763
230 0.401686
235 0.417751
240 0.44038
245 0.35822
250 0.43445
255 0.403355
260 0.403313
265 0.446326
270 0.494481
275 0.436473
280 0.356522
285 0.583975
290 0.433147
295 0.512675
300 0.394613
305 0.345548
310 0.416553
315 0.48242
320 0.514817
325 0.404769
330 0.545862
335 0.496901
340 0.485881
345 0.594899
350 0.593371
355 0.567971
360 0.619924
365 0.567951
370 0.630601
375 0.56621
380 0.605825
385 0.58033
390 0.62538
395 0.655054
400 0.649339
405 0.608577
410 0.632815
415 0.659047
420 0.704293
425 0.651822
430 0.710457
435 0.710059
440 0.596944
445 0.740271
450 0.673785
455 0.839667
460 0.943916
465 0.936345
470 1.01269
475 0.979309
480 1.149
485 1.12829
490 1.38215
495 1.63056
500 2.01835
505 2.65481
510 3.76565
515 118.045
520 2053.3
525 3072.48
530 763.77
535 91.8086
540 13.3505
545 4.08278
550 2.77427
555 2.09502
560 1.6914
565 1.41439
570 1.49844
575 1.23863
580 1.07792
585 0.927664
590 0.958016
595 0.917146
600 0.56224
Ex : 533
200 0.564068
205 0.485565
210 0.453419
215 0.50537
220 0.513403
225 0.405883
230 0.39468
235 0.445502
240 0.345655
245 0.4558
250 0.495758
255 0.637763
260 0.45843
265 0.464839
270 0.50751
275 0.524412
280 0.455539
285 0.402633
290 0.546695
295 0.517775
300 0.489581
305 0.564069
310 0.512829
315 0.462551
320 0.463114
325 0.490866
330 0.457069
335 0.527537
340 0.487087
345 0.52198
350 0.473018
355 0.566149
360 0.620542
365 0.583681
370 0.580048
375 0.79186
380 0.640856
385 0.631586
390 0.552381
395 0.651641
400 0.646748
405 0.677761
410 0.580585
415 0.718208
420 0.680735
425 0.632743
430 0.729439
435 0.682976
440 0.858125
445 0.673373
450 0.747784
455 0.823012
460 0.844204
465 0.863932
470 1.03764
475 1.02334
480 0.852314
485 0.970151
490 1.16988
495 1.22732
500 1.4972
505 1.82512
510 2.65972
515 3.88368
520 115.342
525 1957.06
530 2986.74
535 766.858
540 91.8238
545 13.6528
550 4.03823
555 2.19576
560 1.96121
565 1.76635
570 1.47766
575 1.44701
580 1.25161
585 1.06677
590 0.92441
595 0.864136
600 3.27135
Ex : 538
200 0.439398
205 0.585047
210 0.493687
215 0.543516
220 0.481519
225 0.424308
230 0.429087
235 0.530447
240 0.576782
245 0.439365
250 0.395039
255 0.399689
260 0.552082
265 0.499831
270 0.533571
275 0.51599
280 0.610488
285 0.491121
290 0.591545
295 0.5388
300 0.443407
305 0.499532
310 0.485875
315 0.494873
320 0.432548
325 0.544791
330 0.50732
335 0.523442
340 0.506737
345 0.674522
350 0.47397
355 0.588538
360 0.424553
365 0.636354
370 0.602033
375 0.586636
380 0.597469
385 0.600691
390 0.538284
395 0.626423
400 0.535955
405 0.577669
410 0.656077
415 0.648115
420 0.659928
425 0.539794
430 0.702437
435 0.681884
440 0.70594
445 0.723035
450 0.752019
455 0.703721
460 0.757107
465 0.798434
470 0.925576
475 0.948071
480 0.9027
485 1.00162
490 1.16399
495 1.07667
500 1.19748
505 1.57195
510 1.89192
515 2.5255
520 3.47944
525 97.7996
530 1842.12
535 2929.86
540 782.732
545 93.8445
550 13.2988
555 3.67306
560 2.47198
565 1.86821
570 1.37236
575 1.3886
580 1.40305
585 1.08762
590 0.895622
595 0.877174
600 0.49887
Ex : 543
200 0.481342
205 0.451609
210 0.565256
215 0.402608
220 0.414368
225 0.440089
230 0.461486
235 0.535442
240 0.497827
245 0.441979
250 0.552512
255 0.477443
260 0.587136
265 0.427343
270 0.426699
275 0.487232
280 0.565625
285 0.481151
290 0.432119
295 0.447734
300 0.575726
305 0.600721
310 0.637479
315 0.582762
320 0.578877
325 0.423277
330 0.52794
335 0.630916
340 0.579197
345 0.55139
350 0.594571
355 0.631079
360 0.560351
365 0.602297
370 0.530436
375 0.583657
380 0.551557
385 0.544928
390 0.625853
395 0.658406
400 0.665597
405 0.585833
410 0.662323
415 0.606653
420 0.596204
425 0.623252
430 0.574044
435 0.541386
440 0.649437
445 0.653792
450 0.668939
455 0.862645
460 0.728237
465 0.767758
470 0.893149
475 0.845749
480 0.900855
485 0.978918
490 0.934743
495 1.04184
500 1.14974
505 1.39481
510 1.60447
515 1.95911
520 2.52915
525 3.7659
530 88.422
535 1754.55
540 2900.33
545 785.651
550 94.322
555 13.4794
560 3.42992
565 2.21164
570 1.58937
575 1.34174
580 1.17449
585 1.16078
590 1.07856
595 0.971402
600 1.14623
Ex : 548
200 0.458533
205 0.511579
210 0.555544
215 0.575227
220 0.445754
225 0.552569
230 0.478217
235 0.494597
240 0.439884
245 0.490239
250 0.414088
255 0.510906
260 0.508391
265 0.425365
270 0.426321
275 0.464528
280 0.49046
285 0.494453
290 0.527017
295 0.49429
300 0.419059
305 0.464192
310 0.518512
315 0.489515
320 0.59361
325 0.626719
330 0.664534
335 0.539362
340 0.518892
345 0.493342
350 0.593693
355 0.561221
360 0.645763
365 0.55259
370 0.578705
375 0.787263
380 0.586636
385 0.610843
390 0.504731
395 0.649527
400 0.664538
405 0.660986
410 0.462041
415 0.734069
420 0.682815
425 0.723693
430 0.733716
435 0.613884
440 0.69369
445 0.635232
450 0.668231
455 0.898253
460 0.80996
465 0.921927
470 0.899242
475 0.822065
480 0.873079
485 0.755388
490 0.925051
495 1.03554
500 1.17959
505 1.25935
510 1.22787
515 1.48169
520 2.08499
525 2.18199
530 3.33931
535 96.7034
540 1747.17
545 2791.11
550 767.067
555 91.6389
560 12.7744
565 3.38755
570 2.08555
575 1.36432
580 1.23966
585 1.18567
590 1.24294
595 0.947531
600 1.03304
Ex : 553
200 0.462883
205 0.468971
210 0.516654
215 0.537149
220 0.564088
225 0.431495
230 0.517153
235 0.706665
240 0.673235
245 0.617821
250 0.601262
255 0.483225
260 0.540609
265 0.507906
270 0.418727
275 0.479847
280 0.484835
285 0.495738
290 0.606749
295 0.54869
300 0.45542
305 0.56376
310 0.52807
315 0.543464
320 0.477565
325 0.62342
330 0.570277
335 0.640572
340 0.658488
345 0.558816
350 0.617195
355 0.741746
360 0.670183
365 0.670211
370 0.64019
375 0.627569
380 0.567202
385 0.715779
390 0.685018
395 0.579961
400 0.602901
405 0.745578
410 0.928233
415 0.675488
420 0.59517
425 0.640928
430 0.725667
435 0.85146
440 0.751627
445 0.752966
450 0.771311
455 1.04436
460 0.81357
465 0.792086
470 0.789237
475 0.785343
480 0.816595
485 0.968602
490 0.864955
495 0.970089
500 1.1764
505 1.03616
510 1.14668
515 1.23934
520 1.53107
525 1.79421
530 2.70516
535 3.4243
540 81.6927
545 1641.01
550 2737.29
555 760.786
560 91.2221
565 12.7209
570 3.14006
575 1.80458
580 1.39322
585 1.16031
590 1.21418
595 1.12322
600 1.00259
Ex : 558
200 0.504359
205 0.430428
210 0.584482
215 0.63104
220 0.57309
225 0.507892
230 0.510444
235 0.539898
240 0.582785
245 0.468431
250 0.508759
255 0.613115
260 0.526329
265 0.549515
270 0.514362
275 0.499933
280 0.623182
285 0.591566
290 0.426249
295 0.487279
300 0.546114
305 0.544059
310 0.394115
315 0.586852
320 0.512165
325 0.497963
330 0.526614
335 0.537712
340 0.641225
345 0.689964
350 0.709957
355 0.683799
360 0.571691
365 0.548582
370 0.531911
375 0.616096
380 0.626059
385 0.879531
390 0.745436
395 0.587686
400 0.759032
405 0.719681
410 0.583352
415 0.60231
420 0.706982
425 0.63145
430 0.576712
435 0.773149
440 0.677366
445 0.774436
450 0.873408
455 0.753094
460 0.717913
465 0.807466
470 0.985748
475 0.951333
480 0.755819
485 0.816399
490 1.01402
495 0.911103
500 0.882826
505 0.990932
510 1.13361
515 1.00732
520 1.22922
525 1.44652
530 1.81795
535 2.36801
540 3.45057
545 76.1636
550 1532.12
555 2654.86
560 743.748
565 89.1788
570 12.5331
575 3.10603
580 1.59622
585 1.19212
590 1.08353
595 1.04784
600 1.05897
Ex : 563
200 0.437673
205 0.47106
210 0.619957
215 0.453569
220 0.518068
225 0.577751
230 0.552027
235 0.667512
240 0.559608
245 0.496547
250 0.570255
255 0.630583
260 0.510234
265 0.547811
270 0.502809
275 0.536014
280 0.60598
285 0.504866
290 0.514442
295 0.570603
300 0.411854
305 0.62459
310 0.486662
315 0.565414
320 0.450523
325 0.682326
330 0.603738
335 0.633129
340 0.665782
345 0.625128
350 0.594929
355 0.681193
360 0.533945
365 0.697788
370 0.555311
375 0.709037
380 0.759962
385 0.570144
390 0.750926
395 0.569115
400 0.725155
405 0.602966
410 0.741301
415 0.700289
420 0.783929
425 0.698729
430 0.618036
435 0.606004
440 0.768464
445 0.840217
450 0.785918
455 0.904613
460 0.871141
465 0.843041
470 0.891351
475 0.792215
480 0.827873
485 0.975728
490 0.88419
495 0.947278
500 0.833376
505 0.915421
510 0.954898
515 1.10119
520 1.12174
525 1.26303
530 1.46193
535 1.51673
540 2.20264
545 3.35805
550 74.9427
555 1480.78
560 2520.85
565 715.784
570 86.0267
575 11.9661
580 2.95574
585 1.49906
590 1.25596
595 1.16802
600 0.845534
Ex : 568
200 0.500759
205 0.454269
210 0.588951
215 0.562047
220 0.479055
225 0.595497
230 0.588766
235 0.646841
240 0.538299
245 0.569057
250 0.569781
255 0.581892
260 0.520851
265 0.559933
270 0.547116
275 0.516025
280 0.680331
285 0.512576
290 0.539761
295 0.534216
300 0.512339
305 0.511558
310 0.595453
315 0.56607
320 0.610899
325 0.539625
330 0.635066
335 0.533594
340 0.552418
345 0.560445
350 0.757884
355 0.692856
360 0.490744
365 0.664497
370 0.578822
375 0.751898
380 0.638655
385 0.748352
390 0.677419
395 0.86804
400 0.758277
405 0.740066
410 0.797789
415 0.767734
420 0.659187
425 0.701205
430 0.712515
435 0.730525
440 0.715249
445 0.766752
450 0.773303
455 0.64433
460 0.681156
465 0.717121
470 0.696006
475 0.769918
480 0.827343
485 0.710671
490 0.778037
495 0.683875
500 0.831997
505 0.817737
510 0.832894
515 0.967348
520 1.02913
525 1.06958
530 1.18908
535 1.6269
540 1.7487
545 2.25711
550 3.0562
555 54.5101
560 1330.27
565 2422.48
570 718.029
575 86.7975
580 11.8031
585 2.70001
590 1.67347
595 1.27954
600 0.232368
Ex : 573
200 0.601874
205 0.505162
210 0.51475
215 0.659985
220 0.530194
225 0.572792
230 0.510953
235 0.614407
240 0.677391
245 0.575301
250 0.482105
255 0.463653
260 0.559341
265 0.697723
270 0.632711
275 0.56594
280 0.546727
285 0.690994
290 0.742281
295 0.623999
300 0.63836
305 0.747838
310 0.562586
315 0.544513
320 0.539507
325 0.748031
330 0.743701
335 0.550221
340 0.606526
345 0.726446
350 0.686092
355 0.701031
360 0.793197
365 0.722779
370 0.519603
375 0.634422
380 0.661134
385 0.748545
390 0.738174
395 0.605013
400 0.65934
405 0.602731
410 0.694272
415 0.684074
420 0.748398
425 0.603025
430 0.591581
435 0.783427
440 0.800523
445 0.823656
450 0.642849
455 0.820946
460 0.751346
465 0.889703
470 0.847784
475 0.828924
480 0.954549
485 0.770294
490 0.936067
495 0.834402
500 0.840515
505 0.892408
510 0.845685
515 0.895746
520 1.10895
525 1.09033
530 1.10299
535 1.33072
540 1.33064
545 1.57796
550 1.97349
555 2.77022
560 47.3053
565 1144.86
570 2231.61
575 683.652
580 82.2268
585 11.0924
590 2.56141
595 1.25947
600 0.959395
Ex : 578
200 0.547397
205 0.635708
210 0.608204
215 0.501326
220 0.766782
225 0.602872
230 0.580212
235 0.552601
240 0.459318
245 0.642593
250 0.56703
255 0.712506
260 0.545145
265 0.584954
270 0.479518
275 0.757996
280 0.629203
285 0.470481
290 0.501531
295 0.475526
300 0.803632
305 0.550064
310 0.5833
315 0.620736
320 0.560837
325 0.698942
330 0.644821
335 0.58231
340 0.514916
345 0.612593
350 0.653796
355 0.539553
360 0.627313
365 0.765917
370 0.625234
375 0.767452
380 0.655162
385 0.634288
390 0.560982
395 0.729051
400 0.757885
405 0.749898
410 0.605016
415 0.782278
420 0.654898
425 0.522533
430 0.671664
435 0.592031
440 0.759533
445 0.754172
450 0.766694
455 0.919461
460 0.852256
465 0.820749
470 0.580762
475 0.769481
480 0.804389
485 0.932806
490 0.897725
495 0.90923
500 0.814094
505 0.963764
510 0.852033
515 0.893964
520 0.824647
525 0.92326
530 1.06319
535 0.959687
540 1.10861
545 1.39305
550 1.65058
555 1.83666
560 2.66993
565 41.2882
570 1016.01
575 1952.22
580 586.481
585 70.378
590 9.5978
595 2.32556
600 5.01549
Ex : 583
200 0.681827
205 0.731408
210 0.541772
215 0.59624
220 0.661922
225 0.473685
230 0.690203
235 0.626807
240 0.625517
245 0.57213
250 0.573605
255 0.438117
260 0.505355
265 0.624499
270 0.564559
275 0.604907
280 0.52637
285 0.578235
290 0.620856
295 0.463325
300 0.643032
305 0.509075
310 0.573621
315 0.426425
320 0.429834
325 0.59139
330 0.567088
335 0.670718
340 0.70461
345 0.590741
350 0.632939
355 0.63458
360 0.718379
365 0.69159
370 0.530745
375 0.750896
380 0.713797
385 0.685022
390 0.720862
395 0.620491
400 0.814928
405 0.676483
410 0.771114
415 0.67277
420 0.641986
425 0.714248
430 0.696036
435 0.729674
440 0.886079
445 0.604694
450 0.627951
455 0.838482
460 0.639358
465 0.793551
470 0.701472
475 0.619253
480 0.717997
485 0.775199
490 0.766541
495 0.734479
500 0.933737
505 0.795544
510 0.940922
515 1.01538
520 0.854573
525 0.719191
530 0.894611
535 1.08148
540 1.03593
545 1.17069
550 1.25833
555 1.40517
560 1.83093
565 2.61497
570 34.7576
575 898.173
580 1677.31
585 479.481
590 57.7747
595 7.85241
600 2.57598
Ex : 588
200 0.730436
205 0.476498
210 0.638789
215 0.623308
220 0.637229
225 0.584433
230 0.568466
235 0.715142
240 0.498699
245 0.535996
250 0.509804
255 0.501286
260 0.581174
265 0.511626
270 0.476932
275 0.539506
280 0.477698
285 0.649526
290 0.538524
295 0.690813
300 0.592437
305 0.501727
310 0.507946
315 0.721517
320 0.552302
325 0.686487
330 0.583986
335 0.67444
340 0.64766
345 0.827017
350 0.548162
355 0.541893
360 0.645573
365 0.705465
370 0.770854
375 0.741424
380 0.68307
385 0.681085
390 0.732852
395 0.673123
400 0.655928
405 0.861714
410 0.699736
415 0.707205
420 0.629169
425 0.687931
430 0.637545
435 0.654661
440 0.698375
445 0.653592
450 0.66858
455 0.749848
460 0.776885
465 0.823665
470 0.833543
475 0.921761
480 0.919178
485 0.855184
490 0.947725
495 0.780022
500 0.915139
505 0.830642
510 0.90699
515 0.98598
520 0.84716
525 0.801211
530 0.772923
535 0.901649
540 1.09417
545 1.03069
550 0.942088
555 1.27704
560 1.68504
565 1.71125
570 2.33604
575 31.0965
580 748.623
585 1429.19
590 418.042
595 50.2495
600 7.23435
Ex : 593
200 0.70125
205 0.607475
210 0.493432
215 0.642062
220 0.643492
225 0.485638
230 0.57129
235 0.591943
240 0.60059
245 0.588492
250 0.557666
255 0.561461
260 0.66917
265 0.447305
270 0.653214
275 0.656554
280 0.577453
285 0.49067
290 0.614134
295 0.616943
300 0.585172
305 0.707378
310 0.503006
315 0.425202
320 0.702519
325 0.669677
330 0.71176
335 0.656975
340 0.635087
345 0.646569
350 0.58434
355 0.641992
360 0.760378
365 0.647351
370 0.621294
375 0.886701
380 0.742002
385 0.650088
390 0.689105
395 0.683431
400 0.657433
405 0.671644
410 0.788112
415 0.890597
420 0.854015
425 0.818347
430 0.79108
435 0.698051
440 0.662741
445 0.753334
450 0.836783
455 0.711992
460 0.832283
465 0.832501
470 0.786532
475 0.798396
480 0.662414
485 0.858205
490 0.87678
495 0.845696
500 0.710434
505 0.764228
510 0.805935
515 0.945681
520 0.873479
525 0.74404
530 0.912596
535 0.928383
540 0.823638
545 0.855158
550 1.00911
555 1.18921
560 1.31325
565 1.47518
570 1.66144
575 2.10817
580 27.2433
585 660.175
590 1212.1
595 354.624
600 52.3968
Ex : 598
200 0.659891
205 0.600043
210 0.65621
215 0.750973
220 0.664856
225 0.620003
230 0.527135
235 0.637751
240 0.739427
245 0.678378
250 0.5888
255 0.558924
260 0.645076
265 0.683745
270 0.79198
275 0.652436
280 0.60465
285 0.67554
290 0.525198
295 0.642403
300 0.541673
305 0.785613
310 0.61415
315 0.568915
320 0.632301
325 0.662318
330 0.64565
335 0.752417
340 0.597818
345 0.807001
350 0.747609
355 0.676685
360 0.683717
365 0.626443
370 0.825861
375 0.815809
380 0.838719
385 0.699749
390 0.608363
395 0.837223
400 0.85734
405 0.8408
410 0.69844
415 0.790493
420 0.764712
425 0.836513
430 0.808629
435 0.622285
440 0.81832
445 0.814908
450 0.652735
455 0.916825
460 0.865775
465 1.00521
470 0.716594
475 0.761616
480 0.872074
485 1.0205
490 0.762335
495 0.675114
500 0.908718
505 0.872152
510 1.12808
515 1.03419
520 0.714051
525 0.913138
530 0.870642
535 0.871649
540 0.984083
545 0.843192
550 1.21289
555 1.07658
560 1.13419
565 1.23804
570 1.40545
575 1.5756
580 2.04102
585 24.6386
590 595.508
595 1063.47
600 663.545
Ex : 603
200 0.637738
205 0.748437
210 0.618498
215 0.597885
220 0.669557
225 0.669208
230 0.706638
235 0.848365
240 0.691374
245 0.632724
250 0.672415
255 0.650761
260 0.653972
265 0.723216
270 0.737039
275 0.798616
280 0.706081
285 0.573708
290 0.653144
295 0.656426
300 0.628649
305 0.449853
310 0.741073
315 0.599216
320 0.56361
325 0.698698
330 0.745439
335 0.821696
340 0.634814
345 0.727421
350 0.640946
355 0.79828
360 0.692606
365 0.727067
370 0.644606
375 0.754356
380 0.692213
385 0.616231
390 0.669968
395 0.734579
400 0.700836
405 0.664639
410 0.835265
415 0.664977
420 0.683454
425 0.893564
430 0.82798
435 0.722284
440 0.650473
445 0.738527
450 0.704404
455 0.787874
460 0.652456
465 0.972861
470 0.884119
475 0.990729
480 0.983915
485 0.876969
490 0.839537
495 0.824162
500 0.947473
505 0.887499
510 0.831431
515 0.943248
520 0.909765
525 0.808717
530 0.957628
535 0.9695
540 0.971382
545 0.966131
550 0.93455
555 0.970153
560 1.02782
565 1.19387
570 1.27389
575 1.28479
580 1.61822
585 1.69497
590 23.1565
595 497.287
600 1027.8
