File format V 1.0
ven. 9. déc. 22:19:23 2016
Operator : 
Comments : 

=============================================
SpectroFluorometer parameters
Mode : 3D measurement
Data : Fluorescence
Phospho. : Ordinary
Spectrum : Fluorescence

Scan speed : 2400 nm/mn
Response : 100 ms
PM Voltage : 700 V
Shutter : On

Lambda Ex. Start : 203
Lambda Ex. End : 603
Lambda Ex. Step : 5
Ex. Slit : 5 nm

Lambda Em. Start : 200
Lambda Em. End : 600
Lambda Em. Step : 5
Em. Slit : 5 nm

Repetition : 1
Decal lambda em : 10
=============================================
DATA
Ex : 203
200 15.5298
205 15.0404
210 15.345
215 16.4109
220 16.0236
225 11.5047
230 15.7802
235 15.8662
240 15.7357
245 14.987
250 15.9015
255 15.1708
260 15.6949
265 17.2216
270 15.321
275 15.5819
280 15.5719
285 9.92715
290 19.1987
295 14.3367
300 14.2005
305 15.3788
310 14.2734
315 13.947
320 12.851
325 17.6343
330 14.6976
335 16.527
340 18.7804
345 17.048
350 13.0663
355 16.4632
360 18.7597
365 14.3407
370 17.2373
375 16.6757
380 18.1429
385 15.4965
390 17.7308
395 16.0978
400 17.968
405 18.123
410 15.5199
415 12.4107
420 14.8026
425 16.6509
430 14.2255
435 17.4124
440 19.063
445 17.1199
450 16.1028
455 17.3565
460 19.9618
465 18.6209
470 18.0649
475 18.8469
480 15.0833
485 19.0062
490 15.3377
495 18.3123
500 17.3016
505 17.0561
510 17.2738
515 21.1146
520 15.9333
525 14.144
530 20.1534
535 17.3116
540 11.8893
545 11.5738
550 13.3694
555 14.6753
560 15.5088
565 14.5939
570 15.984
575 14.7082
580 16.8172
585 18.0828
590 16.8755
595 13.9451
600 16.2093
Ex : 208
200 16.8221
205 15.2188
210 13.314
215 11.8575
220 10.6385
225 12.5268
230 11.0069
235 12.031
240 15.9098
245 15.8449
250 14.7824
255 12.5698
260 15.1001
265 9.77145
270 14.1683
275 16.0028
280 15.319
285 12.9135
290 14.9744
295 12.9788
300 17.7519
305 21.3853
310 11.7003
315 14.9414
320 20.9031
325 14.2323
330 18.3309
335 19.3849
340 18.0549
345 14.3196
350 15.8457
355 16.6935
360 19.4218
365 15.7814
370 17.9259
375 20.0997
380 21.2979
385 16.8285
390 22.3594
395 13.0625
400 16.8007
405 21.3579
410 17.5412
415 17.6488
420 15.8444
425 22.8904
430 21.5556
435 16.1445
440 18.2106
445 14.5194
450 14.0437
455 15.9634
460 13.8647
465 22.9781
470 17.5631
475 15.216
480 14.8483
485 18.6464
490 16.0691
495 15.3281
500 18.0699
505 14.1097
510 19.6251
515 15.3608
520 13.7042
525 13.9663
530 13.772
535 14.6257
540 15.1607
545 19.427
550 11.7838
555 13.9315
560 13.3889
565 16.7473
570 17.807
575 15.5909
580 14.7157
585 15.8891
590 17.4077
595 16.8561
600 27.9135
Ex : 213
200 14.6415
205 16.7785
210 13.6373
215 17.7226
220 14.1981
225 13.0616
230 16.7788
235 14.963
240 14.4176
245 15.83
250 15.0678
255 17.6452
260 14.8154
265 15.1056
270 19.7403
275 20.5878
280 10.3136
285 13.7316
290 15.6786
295 14.924
300 17.5704
305 18.9055
310 15.3739
315 11.6053
320 14.2051
325 15.3784
330 18.2782
335 14.8277
340 14.064
345 21.924
350 13.8242
355 15.719
360 14.0317
365 13.0046
370 15.4037
375 16.4907
380 14.8725
385 17.4825
390 20.8038
395 16.9265
400 17.8886
405 22.9902
410 16.1452
415 17.0183
420 13.4199
425 14.0395
430 13.5353
435 14.5342
440 14.7482
445 14.9767
450 15.0025
455 14.286
460 17.8232
465 16.2377
470 17.2018
475 13.2405
480 16.4435
485 14.8883
490 14.0702
495 14.718
500 15.5268
505 13.2927
510 14.6663
515 13.1319
520 13.8155
525 13.3475
530 15.9273
535 17.5022
540 14.7271
545 18.682
550 12.1136
555 15.0348
560 13.9263
565 15.906
570 13.4489
575 13.7294
580 10.3991
585 12.9874
590 20.0043
595 15.4606
600 18.0064
Ex : 218
200 12.0941
205 15.7418
210 15.7285
215 13.6954
220 11.205
225 13.2134
230 12.2288
235 17.925
240 12.8717
245 14.558
250 13.9819
255 13.5969
260 15.6625
265 12.3429
270 13.645
275 12.1772
280 15.5202
285 17.7274
290 16.845
295 18.164
300 13.1397
305 14.0533
310 15.7055
315 17.3186
320 16.6565
325 15.0488
330 14.9185
335 12.6795
340 14.0816
345 15.6075
350 17.0832
355 13.7952
360 18.0231
365 18.5461
370 22.3978
375 18.0812
380 22.6439
385 15.9819
390 18.2082
395 17.2148
400 17.402
405 14.1454
410 12.0239
415 16.5849
420 13.8637
425 17.3126
430 14.6383
435 17.8251
440 16.7394
445 17.6619
450 20.9768
455 18.0466
460 14.665
465 14.3034
470 15.1601
475 16.3502
480 16.7843
485 15.6033
490 16.6667
495 14.7414
500 14.6945
505 15.8833
510 15.629
515 13.3183
520 13.7599
525 16.3644
530 16.3949
535 13.3959
540 16.2202
545 14.8658
550 15.0144
555 20.1207
560 14.339
565 15.7224
570 12.3811
575 16.0102
580 14.8117
585 12.3811
590 15.0595
595 16.6873
600 7.65928
Ex : 223
200 15.6201
205 12.7532
210 14.5398
215 13.5839
220 14.8993
225 15.7739
230 14.3662
235 13.8349
240 13.2683
245 13.1466
250 14.4224
255 17.8784
260 14.3094
265 14.464
270 11.0342
275 14.4626
280 12.8056
285 13.6199
290 15.9852
295 13.1433
300 10.6565
305 11.8524
310 11.1831
315 13.1799
320 12.1156
325 15.2724
330 15.9592
335 16.9351
340 18.5531
345 15.3845
350 15.2296
355 16.9779
360 15.7704
365 15.9038
370 15.8735
375 16.7274
380 19.658
385 13.7577
390 14.8019
395 16.954
400 15.3693
405 15.6795
410 14.1815
415 16.0679
420 11.849
425 16.5134
430 18.5101
435 17.0874
440 18.4475
445 18.9928
450 15.4189
455 17.1227
460 15.1534
465 14.3704
470 14.2076
475 20.0237
480 16.4343
485 13.4349
490 15.8642
495 15.0504
500 15.7592
505 17.0199
510 15.6754
515 13.4466
520 12.7013
525 14.6669
530 11.6652
535 12.5869
540 17.3606
545 12.5285
550 16.6455
555 12.9648
560 16.5029
565 14.8417
570 14.441
575 16.6358
580 20.0959
585 11.3223
590 11.3684
595 11.1657
600 12.3482
Ex : 228
200 14.075
205 14.2515
210 14.1963
215 11.2872
220 12.3307
225 16.2323
230 12.3331
235 12.412
240 11.8002
245 12.8776
250 13.2965
255 12.7593
260 9.9788
265 10.3374
270 10.0801
275 12.6769
280 16.3066
285 14.9088
290 16.6605
295 14.5511
300 13.3763
305 11.6534
310 12.9232
315 14.717
320 14.5688
325 14.4294
330 15.2149
335 13.6584
340 14.3925
345 15.0002
350 13.9839
355 17.166
360 14.2872
365 14.5357
370 15.2277
375 14.9672
380 14.0555
385 16.2316
390 15.3593
395 17.555
400 13.4253
405 18.1835
410 16.8213
415 16.0246
420 16.8595
425 18.5452
430 19.1721
435 14.8146
440 13.4728
445 15.8723
450 11.1844
455 15.9126
460 15.2028
465 14.6024
470 19.1653
475 15.9784
480 17.0055
485 17.9475
490 13.3671
495 12.451
500 12.089
505 17.2805
510 14.8692
515 15.4929
520 13.9412
525 16.1165
530 15.6355
535 18.1763
540 12.7695
545 13.8454
550 14.8686
555 11.0294
560 14.0024
565 13.02
570 17.8462
575 16.7703
580 12.5611
585 13.7349
590 11.2884
595 13.399
600 151.958
Ex : 233
200 11.5169
205 11.6818
210 11.6505
215 14.9672
220 15.5432
225 11.2079
230 13.4983
235 13.853
240 13.0377
245 11.2525
250 11.6986
255 12.8777
260 7.48338
265 9.91522
270 15.2814
275 16.1803
280 14.5825
285 14.745
290 11.3422
295 10.9342
300 11.759
305 12.1898
310 10.2091
315 12.9651
320 16.6398
325 13.4463
330 16.3631
335 13.8428
340 9.86582
345 18.061
350 15.1195
355 14.1968
360 14.9348
365 10.1101
370 13.5002
375 14.9571
380 14.0667
385 15.339
390 13.3887
395 13.8324
400 9.9888
405 15.1609
410 14.5107
415 13.6007
420 11.4379
425 13.0131
430 15.1378
435 16.7719
440 11.7137
445 12.1263
450 11.4369
455 12.793
460 12.6782
465 16.0241
470 13.3186
475 15.3584
480 14.9889
485 12.2326
490 14.5748
495 12.2348
500 14.52
505 11.003
510 11.8484
515 12.607
520 11.024
525 12.8522
530 13.0471
535 12.3717
540 14.5368
545 13.6555
550 11.0986
555 13.3555
560 14.4646
565 11.8725
570 11.6617
575 14.0899
580 13.1935
585 10.7517
590 11.4421
595 11.7833
600 7.54432
Ex : 238
200 11.3816
205 9.20172
210 9.85659
215 9.60771
220 10.9348
225 18.0226
230 13.8147
235 11.3809
240 11.1016
245 13.2383
250 7.91299
255 9.24718
260 7.5399
265 9.28242
270 9.97639
275 10.5996
280 10.4067
285 13.7606
290 10.7542
295 11.2438
300 10.8743
305 11.5977
310 11.1758
315 9.04724
320 11.4743
325 9.84518
330 13.28
335 14.5971
340 9.10672
345 11.9838
350 11.5723
355 12.0649
360 13.1778
365 12.4076
370 14.1343
375 11.0949
380 9.48114
385 11.0998
390 15.2356
395 13.0919
400 10.1368
405 13.4404
410 14.0284
415 11.4283
420 9.59635
425 13.2735
430 10.9027
435 11.9906
440 12.8253
445 9.93473
450 11.31
455 9.9332
460 13.1454
465 15.355
470 12.2278
475 10.6339
480 11.7887
485 10.1657
490 14.446
495 13.4004
500 11.4628
505 11.4938
510 11.3811
515 11.2823
520 11.2728
525 11.2225
530 13.5201
535 9.73877
540 16.1587
545 11.8314
550 11.3616
555 11.7441
560 13.2794
565 12.3972
570 12.742
575 10.041
580 9.68309
585 11.1382
590 10.8532
595 8.86548
600 42.4832
Ex : 243
200 7.39394
205 9.79045
210 8.91605
215 9.97812
220 8.48575
225 9.93646
230 9.27032
235 7.11346
240 9.94167
245 6.25685
250 10.05
255 9.83812
260 8.54031
265 9.32473
270 9.1723
275 11.1239
280 8.57455
285 7.96337
290 9.86378
295 10.2971
300 10.4983
305 8.64523
310 10.3476
315 8.78518
320 8.64077
325 10.0454
330 7.52189
335 10.6673
340 10.9518
345 9.87597
350 12.6287
355 9.13478
360 10.7409
365 13.2677
370 10.7146
375 11.2954
380 9.90997
385 10.3649
390 9.58851
395 10.2497
400 8.7884
405 11.5335
410 9.92081
415 11.8667
420 12.136
425 10.2498
430 10.3052
435 12.9034
440 11.5751
445 11.4213
450 10.9165
455 13.5416
460 10.7909
465 11.062
470 8.45057
475 9.3576
480 9.20888
485 8.50625
490 11.8173
495 10.7411
500 13.2388
505 11.9717
510 8.75372
515 11.8377
520 11.8559
525 8.75925
530 9.28841
535 10.1178
540 12.1811
545 12.7901
550 8.7715
555 9.41384
560 9.4632
565 9.69027
570 9.25179
575 10.731
580 9.64472
585 9.30196
590 10.4033
595 8.6888
600 14.459
Ex : 248
200 8.02181
205 6.78003
210 6.37864
215 7.02656
220 7.56172
225 6.31734
230 7.72667
235 6.53901
240 7.97367
245 6.43821
250 6.2901
255 7.78361
260 7.88253
265 8.22733
270 8.62792
275 8.47275
280 7.33048
285 5.76282
290 5.64752
295 9.18446
300 8.33993
305 6.47119
310 6.96652
315 6.91061
320 8.67873
325 5.88008
330 9.50198
335 10.3823
340 9.51341
345 9.68752
350 6.95464
355 6.41814
360 9.37288
365 8.6761
370 7.92517
375 9.28955
380 8.28086
385 10.7843
390 9.29937
395 8.48363
400 9.44764
405 7.7637
410 10.2512
415 10.2467
420 9.21111
425 8.94424
430 7.43651
435 6.78381
440 8.91141
445 7.30116
450 7.07153
455 8.48334
460 8.40728
465 8.8791
470 8.3037
475 8.6163
480 10.5207
485 7.6621
490 8.63283
495 8.36832
500 7.89376
505 9.07413
510 8.08334
515 9.23329
520 8.10782
525 11.8065
530 8.2994
535 8.83029
540 7.34504
545 11.3844
550 9.06917
555 10.8598
560 8.86168
565 6.86014
570 8.75924
575 6.80602
580 7.07249
585 7.70803
590 10.3113
595 8.32826
600 3.27401
Ex : 253
200 5.73608
205 5.64383
210 5.02662
215 5.40269
220 5.15938
225 6.48488
230 5.76794
235 6.60047
240 6.64109
245 7.35378
250 6.42348
255 5.98019
260 8.63854
265 6.21231
270 5.61531
275 5.60799
280 6.15425
285 7.24306
290 6.96357
295 5.72763
300 5.70205
305 6.3124
310 6.13351
315 6.51368
320 6.29284
325 8.26887
330 7.67022
335 10.1166
340 8.67532
345 9.15312
350 8.77472
355 10.0097
360 7.46009
365 7.48521
370 8.72468
375 8.72535
380 7.39528
385 7.13294
390 7.53593
395 6.965
400 5.73285
405 8.42796
410 9.4107
415 8.28247
420 6.48296
425 4.77334
430 6.78783
435 7.13718
440 7.01791
445 6.92488
450 7.30779
455 6.82349
460 8.71475
465 9.90997
470 7.74338
475 7.55664
480 7.24541
485 6.25223
490 7.74336
495 6.2224
500 6.24797
505 7.92723
510 5.74858
515 5.38795
520 7.05377
525 4.44527
530 5.53831
535 6.16458
540 6.25319
545 6.96941
550 6.37886
555 7.6827
560 6.3187
565 6.63005
570 6.32268
575 6.52207
580 7.53495
585 6.70683
590 5.56312
595 4.97968
600 0.566669
Ex : 258
200 4.3814
205 4.36307
210 5.75291
215 5.28834
220 5.64968
225 5.37632
230 5.22397
235 5.02549
240 6.23588
245 6.5741
250 5.41262
255 4.28834
260 4.04481
265 6.28139
270 5.38798
275 4.51031
280 4.96525
285 4.70064
290 6.4244
295 5.3788
300 4.6143
305 5.17116
310 4.98999
315 4.9683
320 4.1647
325 5.19331
330 5.1697
335 4.44912
340 4.96322
345 7.68096
350 5.93383
355 5.9042
360 5.24448
365 5.88831
370 5.38057
375 5.08312
380 6.00793
385 5.13052
390 6.10448
395 5.72223
400 7.60124
405 5.3309
410 6.54563
415 5.7957
420 7.08366
425 5.21094
430 7.08007
435 5.33045
440 5.47174
445 5.57727
450 6.52664
455 7.20793
460 5.81568
465 6.54688
470 6.01184
475 5.38135
480 6.98676
485 6.32986
490 6.4365
495 5.42637
500 5.412
505 6.21788
510 6.86463
515 5.24687
520 5.64175
525 4.91623
530 5.91711
535 4.17932
540 6.32419
545 6.08933
550 5.48948
555 5.3701
560 5.75251
565 5.0431
570 5.36519
575 3.81621
580 6.19993
585 5.98333
590 5.19373
595 5.33842
600 2.65258
Ex : 263
200 2.84615
205 4.06578
210 4.59072
215 3.48448
220 4.38839
225 4.68065
230 2.94397
235 4.3236
240 3.16939
245 3.80582
250 3.6834
255 3.22278
260 4.74111
265 3.77778
270 4.78798
275 3.79337
280 4.19872
285 3.96931
290 2.78768
295 3.15738
300 2.58158
305 4.08189
310 3.54689
315 2.68187
320 4.18315
325 3.77794
330 4.19261
335 5.6144
340 5.58333
345 5.08386
350 4.10732
355 5.4372
360 4.95452
365 5.37119
370 5.06353
375 5.1842
380 4.39564
385 5.28894
390 4.51538
395 4.85703
400 5.21252
405 5.50252
410 6.43214
415 5.5611
420 5.37109
425 4.12671
430 5.05826
435 4.1508
440 4.55813
445 4.84412
450 4.23209
455 5.03122
460 3.71756
465 4.04657
470 5.17025
475 3.85065
480 3.44839
485 4.41005
490 4.4737
495 3.82674
500 4.3802
505 4.34665
510 5.03744
515 3.54653
520 4.83727
525 4.59487
530 4.33012
535 4.88921
540 5.32793
545 4.36332
550 4.28449
555 3.91789
560 3.37111
565 3.68613
570 4.44851
575 4.15243
580 3.75748
585 5.39192
590 4.16242
595 3.8886
600 1.10716
Ex : 268
200 2.36898
205 3.51725
210 3.15872
215 3.42154
220 3.78821
225 4.26474
230 3.34538
235 3.27958
240 2.42806
245 2.54151
250 3.17065
255 3.45679
260 3.0687
265 3.13172
270 3.86344
275 3.19088
280 3.00172
285 3.11625
290 3.52083
295 3.14362
300 3.29559
305 2.66596
310 3.14617
315 2.22135
320 2.67834
325 2.8617
330 3.64214
335 4.59469
340 3.96838
345 3.51168
350 4.12503
355 4.59668
360 3.53321
365 2.99275
370 4.38669
375 3.84046
380 3.72381
385 4.17863
390 4.38219
395 2.73837
400 3.86486
405 4.41302
410 3.98407
415 4.17816
420 3.4445
425 3.58482
430 3.60917
435 4.35239
440 3.58632
445 4.40072
450 3.28982
455 3.74586
460 3.87077
465 3.08037
470 4.086
475 3.2054
480 2.97368
485 3.08057
490 4.10247
495 3.70351
500 3.69894
505 3.18769
510 3.88519
515 2.84723
520 2.86884
525 4.12433
530 3.51284
535 3.72275
540 3.22078
545 2.78029
550 3.03325
555 2.89223
560 3.34583
565 2.24198
570 2.8411
575 3.24945
580 3.20213
585 3.69373
590 3.58579
595 3.26187
600 0.371189
Ex : 273
200 2.35734
205 2.79131
210 2.63933
215 2.23295
220 2.15736
225 2.13478
230 2.21116
235 2.37311
240 2.29845
245 2.64575
250 2.78835
255 2.25316
260 2.69033
265 3.16329
270 2.93296
275 1.66433
280 2.52822
285 2.02648
290 3.071
295 2.42405
300 2.17875
305 2.54443
310 2.93307
315 2.79233
320 2.16464
325 3.23121
330 2.94026
335 3.16524
340 2.6869
345 2.97109
350 3.57291
355 2.7248
360 2.93798
365 3.2278
370 2.69674
375 2.71339
380 3.36766
385 3.39749
390 3.6304
395 3.70232
400 3.20472
405 3.17255
410 3.0462
415 2.81652
420 2.85335
425 2.87791
430 3.08553
435 3.45283
440 2.62351
445 2.92214
450 3.19996
455 3.54957
460 2.6683
465 2.94629
470 2.64159
475 2.86966
480 3.34752
485 2.74528
490 2.96257
495 2.3967
500 2.1873
505 3.68744
510 3.0444
515 3.38715
520 2.55376
525 2.41248
530 2.14288
535 3.05002
540 2.67202
545 2.98392
550 2.65674
555 3.2085
560 2.70055
565 2.43185
570 2.35974
575 2.39693
580 1.91796
585 2.38537
590 2.46222
595 2.52226
600 1.50555
Ex : 278
200 2.05728
205 2.41347
210 1.83032
215 1.87643
220 2.09593
225 1.97842
230 2.00032
235 1.8318
240 1.7064
245 1.97566
250 2.28945
255 2.40564
260 1.79087
265 1.95136
270 1.69445
275 1.75536
280 2.29536
285 1.68501
290 1.84372
295 2.33202
300 1.66744
305 1.88482
310 1.88835
315 2.47156
320 2.22952
325 2.12297
330 2.71084
335 2.97331
340 2.28661
345 2.46044
350 2.41255
355 3.50678
360 2.50969
365 2.43585
370 2.42125
375 2.34311
380 2.9384
385 3.27848
390 2.79315
395 3.01068
400 2.87342
405 2.27972
410 2.64289
415 2.90324
420 2.65941
425 2.5216
430 2.52648
435 2.48139
440 2.69816
445 2.08083
450 2.64564
455 2.71735
460 3.31398
465 2.976
470 2.75886
475 2.23737
480 2.45936
485 1.94694
490 2.01215
495 2.37586
500 1.99249
505 1.59114
510 1.90505
515 2.01074
520 2.30581
525 2.26583
530 2.168
535 1.82164
540 1.9424
545 2.27179
550 1.81163
555 2.86477
560 2.39472
565 2.06923
570 1.97541
575 2.33533
580 2.20935
585 1.82766
590 2.09739
595 1.75571
600 1.79496
Ex : 283
200 1.50547
205 1.82225
210 1.4207
215 1.63427
220 1.8718
225 1.63163
230 1.65143
235 1.59208
240 1.58682
245 1.92547
250 1.79267
255 1.50153
260 1.60261
265 2.06268
270 2.72994
275 2.01378
280 1.55644
285 1.54945
290 1.90342
295 1.64098
300 1.8379
305 1.27224
310 1.92124
315 1.74038
320 2.01312
325 2.06855
330 2.18376
335 2.23873
340 2.90075
345 2.76356
350 2.21814
355 2.18495
360 2.31934
365 1.99073
370 2.40281
375 2.3554
380 1.93276
385 1.99752
390 2.54441
395 2.36849
400 2.38792
405 2.39944
410 2.69606
415 2.55764
420 2.15076
425 1.98997
430 2.53023
435 2.44236
440 2.41415
445 2.2804
450 2.63593
455 2.15803
460 2.29467
465 2.59664
470 1.71908
475 2.09422
480 2.39623
485 1.77502
490 2.10002
495 2.29954
500 2.27641
505 2.31437
510 1.37387
515 1.71398
520 2.17906
525 1.59497
530 1.405
535 1.48316
540 1.9833
545 1.93331
550 1.68709
555 2.13286
560 2.6682
565 2.34563
570 1.64636
575 1.4579
580 1.36659
585 1.85126
590 1.852
595 2.01241
600 1.64214
Ex : 288
200 1.32524
205 1.07869
210 1.29905
215 1.30052
220 1.32734
225 1.31301
230 1.23647
235 1.21812
240 1.07624
245 1.1484
250 1.63175
255 1.43388
260 1.20619
265 1.85873
270 1.44712
275 1.61347
280 1.46142
285 1.49681
290 1.31628
295 1.72672
300 1.29361
305 1.46714
310 1.41983
315 1.2192
320 1.64139
325 1.97028
330 1.71433
335 1.86602
340 1.79565
345 2.39419
350 1.77544
355 1.8586
360 1.96066
365 2.15519
370 1.76751
375 1.89833
380 2.0753
385 2.00086
390 1.69365
395 1.88234
400 2.61575
405 2.26285
410 1.86988
415 2.25005
420 1.85304
425 2.20097
430 1.75647
435 1.76785
440 2.55758
445 2.19177
450 1.7337
455 1.77886
460 1.97291
465 1.86565
470 2.00352
475 1.62337
480 1.69998
485 1.46758
490 1.80452
495 1.59483
500 1.5645
505 1.29569
510 1.55535
515 1.34274
520 1.35839
525 1.3079
530 1.64424
535 1.87016
540 1.61209
545 1.02168
550 1.71746
555 1.28545
560 1.57373
565 1.4557
570 1.96629
575 2.17533
580 1.78651
585 1.62887
590 1.33036
595 1.29374
600 1.09122
Ex : 293
200 1.38144
205 1.11459
210 1.3293
215 0.930105
220 1.47697
225 1.18005
230 1.21678
235 1.29103
240 1.34507
245 1.022
250 1.15027
255 1.63248
260 1.3365
265 1.55801
270 1.22948
275 1.13894
280 0.907951
285 1.51645
290 1.25854
295 1.40734
300 0.949535
305 1.03932
310 1.23589
315 1.51434
320 1.61922
325 1.71309
330 1.62801
335 1.67891
340 1.66196
345 1.57457
350 1.39838
355 1.90715
360 1.79829
365 1.80163
370 1.69041
375 1.68132
380 1.98196
385 2.03746
390 1.95968
395 1.8156
400 1.65322
405 1.83429
410 1.82138
415 1.86728
420 2.06183
425 1.72166
430 1.35535
435 1.95057
440 1.49024
445 1.84934
450 1.77617
455 1.84511
460 1.70315
465 1.63701
470 1.61334
475 1.76394
480 1.86417
485 1.79259
490 1.5483
495 1.44398
500 1.29706
505 1.16477
510 1.44592
515 1.51358
520 1.01152
525 1.31565
530 1.29389
535 1.30239
540 1.17825
545 1.38539
550 0.948654
555 1.26139
560 1.176
565 1.26048
570 1.4051
575 1.43794
580 1.73856
585 1.62054
590 1.28708
595 1.04514
600 0.136309
Ex : 298
200 1.07272
205 0.911048
210 1.02311
215 1.15537
220 1.47601
225 0.93837
230 1.2732
235 1.03614
240 0.885833
245 1.105
250 1.1902
255 1.02881
260 1.1305
265 1.09433
270 1.12971
275 0.918779
280 1.02065
285 1.24483
290 1.15554
295 1.37405
300 1.09164
305 1.08944
310 1.1867
315 0.863859
320 1.41863
325 1.54414
330 1.48164
335 1.75124
340 1.48729
345 1.65562
350 1.42115
355 1.65286
360 1.38673
365 1.35021
370 1.48694
375 1.42538
380 1.41847
385 1.54236
390 1.9308
395 1.93574
400 1.70398
405 1.78678
410 1.87899
415 1.59116
420 1.66851
425 1.98739
430 1.60293
435 1.48775
440 1.34994
445 1.57378
450 1.36274
455 1.71299
460 1.48229
465 1.69913
470 1.09042
475 1.24233
480 1.5771
485 1.42081
490 1.45325
495 1.36901
500 1.02695
505 1.54318
510 1.46703
515 1.33361
520 1.23366
525 1.13292
530 1.49187
535 1.06028
540 1.32002
545 1.23447
550 1.00134
555 1.12614
560 1.0392
565 0.997583
570 1.17827
575 1.07729
580 0.896767
585 1.52793
590 1.61919
595 1.59426
600 1.12771
Ex : 303
200 0.862372
205 0.956703
210 1.05194
215 0.879988
220 0.809984
225 0.903035
230 0.719196
235 1.00796
240 0.997794
245 0.898541
250 0.976053
255 1.08282
260 0.842771
265 0.807711
270 1.06857
275 0.997656
280 0.802138
285 0.705931
290 1.06236
295 1.28624
300 1.1872
305 1.07434
310 0.787144
315 0.971057
320 1.02645
325 1.41741
330 1.30947
335 1.33903
340 1.41187
345 1.28465
350 1.424
355 1.35619
360 1.56337
365 1.44179
370 1.44568
375 1.68336
380 1.43243
385 1.72898
390 1.53602
395 1.43899
400 1.64294
405 1.60695
410 1.42274
415 1.40755
420 1.291
425 1.60764
430 1.56503
435 1.81518
440 1.31597
445 1.18859
450 1.46113
455 1.67066
460 1.41604
465 1.12329
470 1.21447
475 1.31896
480 1.27258
485 1.23096
490 1.17812
495 0.87716
500 1.10712
505 1.07267
510 1.02479
515 1.06113
520 0.988928
525 1.0277
530 0.984776
535 1.19826
540 1.34925
545 1.08612
550 1.00664
555 1.01113
560 1.21117
565 1.11422
570 1.02624
575 1.22878
580 1.13391
585 0.905246
590 1.15074
595 0.954322
600 0.763618
Ex : 308
200 0.743899
205 0.828647
210 0.899358
215 0.690654
220 0.573379
225 0.891483
230 0.598431
235 0.794775
240 0.896966
245 0.882361
250 0.82245
255 0.716015
260 0.905173
265 0.813412
270 0.761992
275 0.688978
280 0.902573
285 1.04335
290 0.840811
295 0.731539
300 1.03595
305 0.964135
310 0.862105
315 0.760888
320 0.977256
325 1.1157
330 1.54355
335 1.54947
340 1.42054
345 1.42286
350 1.10989
355 0.937732
360 1.45378
365 1.35324
370 1.16248
375 1.46159
380 1.33438
385 1.67674
390 1.70716
395 1.24373
400 1.21683
405 1.41999
410 1.49532
415 1.53937
420 1.30782
425 1.5281
430 1.25813
435 1.15105
440 1.35365
445 1.29486
450 1.31049
455 1.1134
460 0.99513
465 1.07866
470 1.13997
475 1.22823
480 1.20161
485 0.965273
490 1.21697
495 0.782571
500 1.04
505 0.922216
510 0.991426
515 0.883217
520 0.971531
525 0.892971
530 0.867165
535 0.953413
540 0.926784
545 0.714868
550 0.676967
555 0.688335
560 1.03643
565 0.755401
570 0.829884
575 0.715963
580 1.01563
585 0.768509
590 0.861599
595 0.928207
600 0.572049
Ex : 313
200 0.75309
205 0.65964
210 0.82555
215 0.660858
220 0.736238
225 0.766417
230 0.693084
235 0.588858
240 0.689787
245 0.659729
250 0.7554
255 0.779215
260 0.602123
265 0.766488
270 0.774533
275 0.95864
280 0.862864
285 0.693468
290 0.552436
295 0.713893
300 0.684736
305 0.983596
310 0.940476
315 0.665257
320 0.869834
325 1.22371
330 1.46414
335 1.56926
340 1.34275
345 1.53818
350 1.38501
355 1.40959
360 1.29732
365 1.21853
370 1.34855
375 1.62183
380 1.69262
385 1.57026
390 1.53967
395 1.55559
400 1.72381
405 1.8707
410 1.93404
415 1.73203
420 1.43246
425 1.52052
430 1.42816
435 1.74345
440 1.5487
445 1.62724
450 1.44563
455 1.37484
460 1.28278
465 1.23691
470 1.48738
475 1.13913
480 1.05151
485 1.04406
490 1.21764
495 0.794145
500 1.02806
505 1.00636
510 0.948767
515 0.85287
520 0.744824
525 0.643399
530 0.869665
535 0.910499
540 1.01049
545 0.915361
550 0.907424
555 0.835428
560 1.05831
565 0.964845
570 0.842959
575 0.79833
580 0.732942
585 0.815424
590 0.912916
595 0.658133
600 2.83537
Ex : 318
200 0.478967
205 0.573551
210 0.595935
215 0.594314
220 0.782793
225 0.627423
230 0.75894
235 0.553616
240 0.703729
245 0.668465
250 0.660053
255 0.715086
260 0.770131
265 0.74222
270 0.743665
275 0.629087
280 0.634832
285 0.828886
290 0.942906
295 0.788892
300 0.749537
305 0.637704
310 1.1127
315 2.82186
320 1.80793
325 1.67487
330 1.80316
335 1.75038
340 2.20466
345 2.35473
350 3.15915
355 3.60314
360 4.3193
365 4.75901
370 5.5485
375 6.21046
380 7.02733
385 7.62546
390 8.54426
395 9.05266
400 8.73603
405 8.95256
410 9.46653
415 8.51026
420 9.07897
425 8.41092
430 8.36
435 8.0802
440 7.75192
445 7.43692
450 6.77445
455 6.5309
460 6.27904
465 6.00307
470 5.68731
475 5.04384
480 4.37274
485 4.13952
490 3.72047
495 3.622
500 2.96901
505 2.76819
510 2.39278
515 2.08659
520 1.75807
525 2.04964
530 1.56588
535 1.34686
540 1.48743
545 1.35402
550 1.09297
555 1.37363
560 1.03389
565 1.13782
570 1.04987
575 0.99508
580 0.841629
585 0.624135
590 0.932477
595 0.851638
600 0.791258
Ex : 323
200 0.624396
205 0.645613
210 0.537745
215 0.554191
220 0.57316
225 0.571569
230 0.927519
235 0.538882
240 0.581134
245 0.552266
250 0.475774
255 0.560374
260 0.495928
265 0.596406
270 0.457389
275 0.777642
280 0.532283
285 0.476685
290 0.646167
295 0.568184
300 0.536509
305 0.71366
310 0.790489
315 17.9241
320 80.2828
325 35.3044
330 7.27291
335 4.91809
340 5.32126
345 7.12031
350 10.3011
355 13.0711
360 15.1486
365 18.3465
370 21.6594
375 24.2517
380 26.8436
385 30.7382
390 33.1772
395 34.2626
400 36.7889
405 37.374
410 36.8058
415 37.2047
420 35.8943
425 35.4543
430 33.7661
435 32.484
440 30.2621
445 28.8154
450 27.814
455 26.2934
460 24.6744
465 22.0826
470 20.602
475 19.1306
480 16.9161
485 16.1229
490 14.4501
495 12.564
500 11.5768
505 10.17
510 8.86509
515 7.39319
520 7.00721
525 5.68593
530 5.3224
535 4.65007
540 3.81084
545 3.46409
550 3.16469
555 2.66979
560 2.52887
565 1.9925
570 1.81032
575 1.52307
580 1.3188
585 1.21638
590 1.11125
595 0.943823
600 2.90141
Ex : 328
200 0.466108
205 0.455764
210 0.514442
215 0.471454
220 0.731503
225 0.47737
230 0.512467
235 0.449945
240 0.475437
245 0.562542
250 0.606687
255 0.540607
260 0.606944
265 0.781907
270 0.653509
275 0.671475
280 0.442044
285 0.743371
290 0.580509
295 0.6571
300 0.504634
305 0.723871
310 0.726315
315 5.63804
320 197.581
325 466.413
330 137.433
335 21.1185
340 8.97303
345 8.96908
350 10.708
355 15.1511
360 19.7637
365 22.2136
370 25.5035
375 27.4669
380 32.0359
385 34.9257
390 38.3103
395 40.3027
400 41.6909
405 42.3859
410 43.0793
415 42.7272
420 41.1083
425 39.5137
430 39.0501
435 36.5775
440 34.9276
445 33.4191
450 31.1987
455 29.3656
460 26.6898
465 24.4011
470 22.7839
475 20.9007
480 18.6532
485 18.181
490 16.297
495 14.2405
500 13.2058
505 11.5641
510 9.94478
515 8.87524
520 7.53082
525 6.43109
530 6.08434
535 5.00364
540 4.80358
545 4.11417
550 3.66511
555 3.0818
560 2.89775
565 2.32679
570 2.14501
575 2.20307
580 1.74947
585 1.40316
590 1.21075
595 1.28618
600 0.161257
Ex : 333
200 0.453559
205 0.565628
210 0.529721
215 0.581914
220 0.527753
225 0.474987
230 0.438957
235 0.437219
240 0.571964
245 0.496173
250 0.511966
255 0.617554
260 0.580642
265 0.602082
270 0.650507
275 0.715335
280 0.681478
285 0.57552
290 0.618268
295 0.668654
300 0.708209
305 0.861785
310 0.868404
315 1.08839
320 27.405
325 563.601
330 952.835
335 241.784
340 33.678
345 10.2771
350 8.02113
355 8.34956
360 11.7745
365 16.9433
370 17.1627
375 17.07
380 18.0654
385 20.1676
390 22.3638
395 23.8692
400 24.0757
405 25.3528
410 24.9005
415 25.3413
420 24.3285
425 22.6948
430 22.5356
435 20.7811
440 20.0847
445 19.0644
450 17.9426
455 16.5873
460 15.3965
465 14.1462
470 12.9276
475 12.543
480 11.2678
485 10.0063
490 9.77601
495 9.08814
500 7.81964
505 6.97528
510 6.24919
515 5.54623
520 4.95096
525 4.51077
530 3.86675
535 3.53081
540 3.25044
545 2.74393
550 2.51241
555 2.40746
560 1.99224
565 1.80135
570 1.69233
575 1.51896
580 1.343
585 1.34431
590 1.04588
595 1.1678
600 1.16116
Ex : 338
200 0.540077
205 0.472273
210 0.541799
215 0.689351
220 0.662334
225 0.531932
230 0.44691
235 0.549964
240 0.639939
245 0.50617
250 0.678153
255 0.492082
260 0.497978
265 0.583608
270 0.506006
275 0.618315
280 0.600539
285 0.587184
290 0.64688
295 0.734424
300 0.573558
305 0.663251
310 0.767307
315 0.810715
320 1.44949
325 52.2986
330 840.54
335 1229.8
340 293.178
345 38.7228
350 9.78439
355 6.11374
360 5.47384
365 7.66064
370 12.1238
375 12.0311
380 10.5823
385 11.4741
390 13.1968
395 13.2373
400 14.0038
405 13.6854
410 14.0889
415 14.2011
420 14.2793
425 13.1583
430 11.7381
435 11.473
440 11.1074
445 10.756
450 9.335
455 9.03205
460 8.88279
465 8.04613
470 7.60451
475 7.12075
480 6.28915
485 6.13565
490 5.68185
495 5.07939
500 4.51652
505 4.4834
510 3.70646
515 3.26035
520 3.46795
525 3.02363
530 2.80987
535 2.33508
540 2.0844
545 2.15156
550 2.21311
555 1.8218
560 1.66602
565 1.42758
570 1.38412
575 1.31642
580 1.37202
585 1.18661
590 1.04851
595 0.938958
600 0.546853
Ex : 343
200 0.665582
205 0.553909
210 0.506961
215 0.49212
220 0.532818
225 0.48133
230 0.509127
235 0.396023
240 0.486658
245 0.471812
250 0.46085
255 0.478179
260 0.54577
265 0.537446
270 0.519243
275 0.560866
280 0.599594
285 0.506492
290 0.618579
295 0.535549
300 0.601271
305 0.655828
310 0.641536
315 0.79525
320 1.21316
325 1.72738
330 60.6536
335 946.025
340 1358.56
345 320.44
350 41.5392
355 9.21328
360 4.93263
365 3.99347
370 4.75851
375 8.9095
380 10.2708
385 9.60996
390 9.814
395 9.84452
400 9.46926
405 10.0298
410 10.599
415 11.2143
420 10.8224
425 9.90356
430 9.30116
435 9.12998
440 8.54233
445 8.21255
450 7.94986
455 7.06101
460 6.96107
465 6.32636
470 5.84894
475 5.78125
480 5.39195
485 4.93765
490 4.71292
495 4.54417
500 3.91536
505 3.69634
510 3.36291
515 2.97937
520 2.71082
525 2.52117
530 2.47466
535 1.97919
540 2.27081
545 1.83019
550 1.4251
555 1.61322
560 1.57045
565 1.62299
570 1.32797
575 1.11287
580 1.11378
585 0.979891
590 0.928883
595 0.984599
600 0.728278
Ex : 348
200 0.519436
205 0.494425
210 0.45184
215 0.503552
220 0.435826
225 0.463981
230 0.523819
235 0.45452
240 0.385575
245 0.543534
250 0.48298
255 0.508604
260 0.549267
265 0.586112
270 0.512545
275 0.542948
280 0.438059
285 0.488105
290 0.524419
295 0.40714
300 0.54672
305 0.528844
310 0.700379
315 0.751622
320 0.85511
325 1.29591
330 1.93389
335 60.6438
340 947.573
345 1408.78
350 351.014
355 44.4915
360 9.22582
365 4.65815
370 3.47349
375 3.49897
380 7.60605
385 11.9057
390 12.3126
395 11.6571
400 9.69605
405 10.0112
410 11.3132
415 12.0225
420 10.972
425 10.1491
430 9.58239
435 9.26851
440 8.92511
445 9.18049
450 7.91956
455 7.20367
460 7.22192
465 6.67894
470 6.34364
475 5.62896
480 5.15042
485 5.05565
490 4.69242
495 4.2547
500 3.90076
505 3.79898
510 3.1878
515 3.25656
520 2.87784
525 2.6024
530 2.42807
535 2.04656
540 2.18844
545 2.00467
550 1.72205
555 1.6997
560 1.46697
565 1.43692
570 1.2615
575 1.25991
580 1.01609
585 0.91979
590 0.778401
595 0.899892
600 1.91264
Ex : 353
200 0.436132
205 0.42752
210 0.358963
215 0.420108
220 0.36929
225 0.63479
230 0.375827
235 0.38397
240 0.531887
245 0.452595
250 0.422635
255 0.3722
260 0.491323
265 0.492343
270 0.530998
275 0.518393
280 0.53344
285 0.508633
290 0.473241
295 0.542362
300 0.573989
305 0.700466
310 0.54755
315 0.644355
320 0.767724
325 1.00183
330 1.38782
335 2.05398
340 61.548
345 971.522
350 1396.36
355 333.571
360 42.0609
365 8.30424
370 4.18552
375 3.00456
380 3.82009
385 8.26332
390 14.2693
395 14.1624
400 12.005
405 10.6308
410 11.8647
415 12.443
420 12.4843
425 10.6484
430 10.2226
435 9.47263
440 9.61711
445 9.65678
450 8.77195
455 7.17473
460 6.97275
465 6.5568
470 6.40745
475 5.97117
480 5.47068
485 5.07617
490 4.91656
495 4.4436
500 4.3054
505 3.63728
510 3.59012
515 3.01267
520 2.66178
525 2.50798
530 2.33716
535 2.16258
540 2.16551
545 1.84784
550 1.80433
555 1.5868
560 1.51112
565 1.31199
570 1.22091
575 1.04887
580 1.00082
585 0.80258
590 0.869299
595 0.82977
600 0.819055
Ex : 358
200 0.439603
205 0.426588
210 0.448472
215 0.473632
220 0.368863
225 0.362066
230 0.388728
235 0.50874
240 0.437365
245 0.52866
250 0.52181
255 0.446131
260 0.361569
265 0.359859
270 0.488
275 0.379783
280 0.380674
285 0.456676
290 0.495729
295 0.529194
300 0.406514
305 0.49138
310 0.485215
315 0.556703
320 0.627962
325 0.693222
330 1.02764
335 1.40624
340 2.12724
345 58.4397
350 917.982
355 1385.82
360 339.705
365 42.7332
370 8.24861
375 4.35412
380 3.9392
385 5.27816
390 9.4908
395 13.873
400 12.7537
405 10.8748
410 10.785
415 11.337
420 11.1947
425 10.0145
430 9.16274
435 9.09885
440 8.93703
445 8.7077
450 7.90706
455 7.49322
460 6.80027
465 6.775
470 6.11899
475 5.96342
480 5.98187
485 5.24092
490 4.81857
495 4.42218
500 3.86673
505 3.69698
510 3.48039
515 3.16584
520 2.87598
525 2.58118
530 2.39714
535 2.16623
540 1.9934
545 1.86119
550 1.80502
555 1.63331
560 1.48815
565 1.30218
570 1.14166
575 1.16499
580 1.08905
585 0.911777
590 0.751715
595 0.960354
600 0.615687
Ex : 363
200 0.3683
205 0.476817
210 0.313819
215 0.507392
220 0.412384
225 0.470505
230 0.508013
235 0.424921
240 0.464622
245 0.35346
250 0.406136
255 0.366572
260 0.423044
265 0.40683
270 0.426362
275 0.412632
280 0.31784
285 0.513734
290 0.436009
295 0.405519
300 0.444177
305 0.367156
310 0.470546
315 0.549249
320 0.561863
325 0.710347
330 0.792257
335 1.066
340 1.36359
345 2.16791
350 53.6803
355 881.769
360 1366.72
365 347.259
370 43.3498
375 8.12187
380 5.26038
385 6.70358
390 8.74051
395 10.5371
400 13.3443
405 14.4462
410 13.9967
415 13.0356
420 12.1485
425 10.476
430 9.93811
435 9.86861
440 10.0113
445 9.43044
450 8.2778
455 7.99798
460 7.34681
465 6.95609
470 6.72541
475 6.24609
480 5.62047
485 5.34407
490 5.18675
495 4.59427
500 4.2514
505 4.03718
510 3.55133
515 3.28619
520 3.10916
525 2.69126
530 2.48571
535 2.4466
540 2.09458
545 1.96681
550 1.826
555 1.70122
560 1.37312
565 1.34213
570 1.15865
575 1.0517
580 0.975537
585 0.736423
590 0.782908
595 0.728102
600 0.429631
Ex : 368
200 0.411917
205 0.36474
210 0.308665
215 0.331041
220 0.392346
225 0.341964
230 0.362477
235 0.378241
240 0.419624
245 0.333072
250 0.35806
255 0.327997
260 0.349033
265 0.37089
270 0.397731
275 0.400491
280 0.318038
285 0.497487
290 0.507772
295 0.402019
300 0.435391
305 0.383494
310 0.534921
315 0.440441
320 0.422586
325 0.554834
330 0.616931
335 0.800115
340 1.15076
345 1.28974
350 2.04846
355 43.842
360 850.361
365 1388.12
370 360.684
375 45.5305
380 9.52707
385 8.40302
390 11.3268
395 12.2327
400 11.4306
405 14.5374
410 17.8919
415 17.0123
420 15.6122
425 12.9924
430 11.5992
435 11.4184
440 11.2045
445 10.8946
450 9.58354
455 8.64665
460 8.23619
465 7.64387
470 7.41508
475 6.87415
480 6.11086
485 5.57287
490 5.01604
495 5.04397
500 4.48521
505 4.17168
510 3.83253
515 3.09589
520 3.12285
525 2.88216
530 2.58455
535 2.5262
540 2.21877
545 2.0175
550 1.81459
555 1.5239
560 1.3729
565 1.4164
570 1.23817
575 1.06189
580 0.9513
585 0.870159
590 0.710687
595 0.630666
600 0.216126
Ex : 373
200 0.351224
205 0.320249
210 0.40142
215 0.342053
220 0.298137
225 0.308428
230 0.359463
235 0.408345
240 0.334835
245 0.342195
250 0.424389
255 0.384774
260 0.429214
265 0.361237
270 0.407772
275 0.370946
280 0.296129
285 0.314965
290 0.367612
295 0.341063
300 0.418782
305 0.368046
310 0.347714
315 0.399854
320 0.450398
325 0.422118
330 0.539673
335 0.614307
340 0.809831
345 0.946061
350 1.35911
355 1.92378
360 50.3109
365 856.709
370 1353.05
375 352.628
380 44.9309
385 11.3539
390 11.4721
395 12.7437
400 11.6323
405 10.8099
410 14.2594
415 18.8085
420 17.2468
425 14.1962
430 11.6934
435 10.9603
440 11.3689
445 10.8945
450 9.74528
455 8.61733
460 8.00095
465 7.42669
470 7.31949
475 6.96395
480 6.28425
485 5.85503
490 5.23835
495 4.90634
500 4.48721
505 4.20568
510 3.87962
515 3.50642
520 3.10289
525 2.79731
530 2.50144
535 2.35319
540 2.13573
545 1.9559
550 1.62397
555 1.53701
560 1.45123
565 1.39084
570 1.13425
575 1.11476
580 0.90975
585 0.750719
590 0.80957
595 0.716248
600 1.98703
Ex : 378
200 0.362752
205 0.375794
210 0.292082
215 0.368814
220 0.403016
225 0.297235
230 0.382324
235 0.290497
240 0.319824
245 0.387899
250 0.370615
255 0.375085
260 0.293328
265 0.331654
270 0.319979
275 0.310531
280 0.331664
285 0.32775
290 0.354363
295 0.329885
300 0.433566
305 0.359999
310 0.355101
315 0.425468
320 0.453144
325 0.47121
330 0.445382
335 0.484235
340 0.678304
345 0.85571
350 1.02608
355 1.32085
360 1.98166
365 47.473
370 858.728
375 1376.92
380 360.387
385 47.3657
390 13.2035
395 10.3422
400 9.03129
405 8.42178
410 9.764
415 12.3403
420 14.7375
425 12.8979
430 10.2092
435 9.6299
440 8.96359
445 8.52026
450 8.0016
455 7.27551
460 6.84899
465 6.56892
470 6.25762
475 5.89278
480 5.86964
485 5.08605
490 4.99336
495 4.59264
500 4.24382
505 3.92353
510 3.56267
515 3.27216
520 2.8992
525 2.79209
530 2.39863
535 2.12862
540 2.11751
545 1.9422
550 1.70771
555 1.45471
560 1.45069
565 1.31016
570 1.17831
575 1.0974
580 0.858347
585 0.713884
590 0.629436
595 0.579837
600 0.848887
Ex : 383
200 0.284067
205 0.323563
210 0.313521
215 0.325717
220 0.306366
225 0.296013
230 0.333855
235 0.319943
240 0.290238
245 0.357707
250 0.450314
255 0.271072
260 0.314174
265 0.324041
270 0.326416
275 0.320021
280 0.312562
285 0.293147
290 0.324988
295 0.363932
300 0.352148
305 0.33398
310 0.346391
315 0.418712
320 0.41349
325 0.438036
330 0.440787
335 0.451326
340 0.617989
345 0.623241
350 0.789943
355 0.872509
360 1.2802
365 1.99087
370 44.7185
375 839.871
380 1408.28
385 375.276
390 51.7024
395 13.7749
400 9.36393
405 9.45292
410 9.87474
415 10.3718
420 10.5737
425 11.8138
430 11.9411
435 10.2076
440 9.60282
445 8.94879
450 7.62145
455 7.04723
460 6.85901
465 6.42692
470 6.2563
475 5.92548
480 5.75745
485 5.21842
490 4.72673
495 4.62932
500 4.11544
505 4.0105
510 3.65961
515 3.11396
520 2.9539
525 2.74877
530 2.57874
535 2.23956
540 2.11698
545 1.90692
550 1.67987
555 1.59017
560 1.45656
565 1.31919
570 1.09
575 0.980532
580 0.782643
585 0.677823
590 0.612911
595 0.615293
600 0.51999
Ex : 388
200 0.295032
205 0.280115
210 0.269139
215 0.301187
220 0.286425
225 0.337242
230 0.312084
235 0.331156
240 0.272621
245 0.291208
250 0.296437
255 0.276465
260 0.295334
265 0.284526
270 0.257564
275 0.29123
280 0.260567
285 0.277226
290 0.455359
295 0.296659
300 0.336649
305 0.336531
310 0.345264
315 0.32397
320 0.389233
325 0.326096
330 0.453586
335 0.376843
340 0.492192
345 0.621429
350 0.792508
355 0.719343
360 0.922339
365 1.25261
370 2.11441
375 48.3978
380 860.605
385 1400.51
390 374.946
395 53.4112
400 14.79
405 10.909
410 11.9128
415 13.0394
420 11.8359
425 10.7847
430 11.8815
435 12.9945
440 11.4233
445 10.5875
450 8.80571
455 7.7037
460 7.23357
465 6.85838
470 6.59267
475 6.18199
480 5.77531
485 5.37619
490 4.91267
495 4.62586
500 4.5166
505 3.83524
510 3.7374
515 3.23499
520 2.91301
525 2.73675
530 2.46306
535 2.34563
540 2.01811
545 1.81551
550 1.70132
555 1.46453
560 1.45564
565 1.33855
570 1.12424
575 1.05921
580 0.873623
585 0.718951
590 0.595157
595 0.599078
600 0.390429
Ex : 393
200 0.262356
205 0.254827
210 0.341532
215 0.321012
220 0.323502
225 0.339403
230 0.252713
235 0.284757
240 0.329123
245 0.268676
250 0.261061
255 0.31243
260 0.307047
265 0.369289
270 0.375902
275 0.253252
280 0.346608
285 0.283746
290 0.269645
295 0.290957
300 0.314766
305 0.361996
310 0.242704
315 0.373303
320 0.312465
325 0.405667
330 0.358248
335 0.412729
340 0.443876
345 0.505912
350 0.604159
355 0.656262
360 0.739617
365 0.860095
370 1.17932
375 2.07461
380 41.7808
385 850.888
390 1424.98
395 386.455
400 54.7873
405 15.1288
410 11.6541
415 13.5733
420 13.0994
425 10.7935
430 9.66664
435 10.6175
440 12.8094
445 11.172
450 9.36234
455 7.90415
460 6.81163
465 6.42138
470 6.08292
475 6.18665
480 5.77727
485 5.16295
490 4.73282
495 4.51471
500 4.14011
505 3.93803
510 3.48908
515 3.20031
520 2.94954
525 2.79542
530 2.57894
535 2.26417
540 1.96469
545 1.77871
550 1.63129
555 1.47518
560 1.47431
565 1.17748
570 1.05357
575 0.959602
580 0.807514
585 0.658851
590 0.584035
595 0.563891
600 0.459795
Ex : 398
200 0.24
205 0.248324
210 0.253207
215 0.26602
220 0.304113
225 0.292762
230 0.290822
235 0.23639
240 0.246172
245 0.208159
250 0.302105
255 0.258787
260 0.278698
265 0.313382
270 0.286248
275 0.273708
280 0.317168
285 0.239254
290 0.36403
295 0.253948
300 0.240906
305 0.227388
310 0.296594
315 0.310542
320 0.363767
325 0.385305
330 0.410302
335 0.372473
340 0.395977
345 0.464411
350 0.445809
355 0.475649
360 0.527622
365 0.645659
370 0.922648
375 1.23077
380 2.09917
385 43.9364
390 860.936
395 1446.69
400 383.494
405 50.4531
410 11.8017
415 9.10718
420 8.97825
425 7.48027
430 6.1131
435 6.14283
440 7.02342
445 9.55019
450 9.00714
455 6.89801
460 6.03767
465 5.36082
470 5.03928
475 4.84219
480 4.67458
485 4.49824
490 4.07616
495 4.12409
500 3.76247
505 3.31268
510 3.10487
515 2.96326
520 2.57637
525 2.60832
530 2.27731
535 1.95193
540 1.86397
545 1.77255
550 1.61951
555 1.4734
560 1.3914
565 1.18816
570 1.07808
575 0.857719
580 0.799192
585 0.662896
590 0.640757
595 0.559777
600 0.156512
Ex : 403
200 0.304596
205 0.245453
210 0.337641
215 0.347136
220 0.281109
225 0.202443
230 0.282473
235 0.298762
240 0.249463
245 0.261862
250 0.278589
255 0.276409
260 0.31273
265 0.328413
270 0.294846
275 0.29124
280 0.243854
285 0.230205
290 0.323257
295 0.291796
300 0.335748
305 0.279591
310 0.349131
315 0.317184
320 0.34125
325 0.324459
330 0.307773
335 0.399493
340 0.426412
345 0.400196
350 0.464897
355 0.460627
360 0.514237
365 0.632585
370 0.753946
375 0.856524
380 1.21568
385 2.06842
390 49.174
395 876.054
400 1422.4
405 381.466
410 48.3013
415 9.77761
420 5.40899
425 4.67016
430 3.97166
435 3.80397
440 4.01702
445 4.58901
450 6.41069
455 6.84182
460 5.56929
465 4.80649
470 4.35219
475 4.24685
480 3.96724
485 4.05131
490 3.62588
495 3.33664
500 3.23412
505 3.17996
510 3.06321
515 2.71953
520 2.44683
525 2.32562
530 2.23844
535 2.10296
540 1.87532
545 1.61827
550 1.50673
555 1.44428
560 1.21316
565 1.24572
570 1.03314
575 0.928013
580 0.787884
585 0.606262
590 0.632788
595 0.53101
600 0.488559
Ex : 408
200 0.309995
205 0.256179
210 0.239895
215 0.222936
220 0.291488
225 0.212346
230 0.208413
235 0.235353
240 0.245816
245 0.247214
250 0.248999
255 0.234096
260 0.266527
265 0.300338
270 0.290181
275 0.340333
280 0.307783
285 0.249463
290 0.330734
295 0.320872
300 0.310553
305 0.360572
310 0.288146
315 0.328954
320 0.331407
325 0.347881
330 0.459536
335 0.326601
340 0.344813
345 0.391443
350 0.378213
355 0.433568
360 0.498145
365 0.580225
370 0.600899
375 0.726317
380 0.878468
385 1.31265
390 2.09477
395 45.812
400 887.997
405 1434.88
410 370.675
415 46.8413
420 9.01185
425 4.52865
430 3.98314
435 3.91554
440 3.72214
445 3.72587
450 4.01603
455 5.76295
460 6.69616
465 5.61945
470 4.90453
475 4.38523
480 4.01335
485 3.66454
490 3.42663
495 3.45713
500 3.28727
505 3.13144
510 2.89355
515 2.68033
520 2.4505
525 2.40956
530 2.07644
535 1.99391
540 1.67766
545 1.62054
550 1.558
555 1.43714
560 1.43397
565 1.12585
570 1.00241
575 0.918939
580 0.867409
585 0.649988
590 0.609965
595 0.511193
600 0.554803
Ex : 413
200 0.293005
205 0.238989
210 0.260474
215 0.304881
220 0.313841
225 0.263579
230 0.256792
235 0.263589
240 0.268202
245 0.313107
250 0.284851
255 0.239323
260 0.284759
265 0.326275
270 0.23859
275 0.224015
280 0.228178
285 0.236695
290 0.222692
295 0.227854
300 0.298937
305 0.290276
310 0.260766
315 0.249419
320 0.272133
325 0.29497
330 0.340617
335 0.383435
340 0.428469
345 0.405044
350 0.385633
355 0.41277
360 0.478757
365 0.53526
370 0.477964
375 0.553433
380 0.654462
385 0.969164
390 1.24936
395 2.05245
400 51.9399
405 901.843
410 1425.68
415 362.136
420 45.6315
425 8.64648
430 3.98009
435 3.88136
440 3.73313
445 3.52338
450 3.36341
455 3.42532
460 4.73288
465 6.63949
470 5.61714
475 4.49826
480 4.02792
485 3.7144
490 3.35407
495 3.25021
500 3.17519
505 2.76598
510 2.85801
515 2.65539
520 2.25777
525 2.08715
530 2.09141
535 1.87823
540 1.89443
545 1.53945
550 1.58517
555 1.38626
560 1.39956
565 1.12458
570 0.970131
575 0.930868
580 0.756513
585 0.691178
590 0.546802
595 0.486339
600 0.697988
Ex : 418
200 0.237335
205 0.229579
210 0.233548
215 0.265127
220 0.228895
225 0.299274
230 0.275114
235 0.293292
240 0.323574
245 0.2709
250 0.286793
255 0.274665
260 0.241487
265 0.247459
270 0.276026
275 0.237274
280 0.25129
285 0.226175
290 0.275848
295 0.271935
300 0.279024
305 0.289206
310 0.298
315 0.250777
320 0.277667
325 0.279113
330 0.342416
335 0.335926
340 0.37738
345 0.420011
350 0.433829
355 0.433012
360 0.432533
365 0.440421
370 0.467709
375 0.460953
380 0.658481
385 0.664155
390 0.912919
395 1.39631
400 2.10446
405 48.0666
410 890.429
415 1426.79
420 372.56
425 45.8703
430 8.06169
435 3.56491
440 3.37642
445 2.9551
450 2.73477
455 2.5666
460 2.7145
465 3.39495
470 5.40057
475 5.3682
480 4.23603
485 3.65151
490 3.3645
495 3.02768
500 2.71769
505 2.57387
510 2.66529
515 2.51445
520 2.33067
525 2.0558
530 1.90637
535 1.77757
540 1.6353
545 1.45056
550 1.51986
555 1.36954
560 1.09471
565 1.06825
570 0.968926
575 0.812763
580 0.678401
585 0.58377
590 0.513619
595 0.52016
600 0.250961
Ex : 423
200 0.217476
205 0.290769
210 0.27262
215 0.23355
220 0.268992
225 0.294342
230 0.236824
235 0.224787
240 0.275006
245 0.237342
250 0.257324
255 0.260296
260 0.337744
265 0.196456
270 0.210476
275 0.224231
280 0.265718
285 0.19382
290 0.271945
295 0.322621
300 0.259886
305 0.312937
310 0.274437
315 0.25125
320 0.298351
325 0.40105
330 0.280647
335 0.25098
340 0.322403
345 0.321507
350 0.403332
355 0.394571
360 0.455388
365 0.45302
370 0.446777
375 0.540221
380 0.552257
385 0.557563
390 0.706092
395 0.944638
400 1.30857
405 2.07902
410 49.3364
415 914.046
420 1413.82
425 352.239
430 43.1718
435 7.41499
440 2.86283
445 2.71045
450 2.63778
455 2.07202
460 2.12562
465 2.3
470 2.72413
475 4.43127
480 5.39392
485 3.93993
490 3.45404
495 3.10504
500 2.66261
505 2.54244
510 2.26776
515 2.32478
520 1.97753
525 1.87292
530 1.818
535 1.81826
540 1.56576
545 1.44223
550 1.48075
555 1.3026
560 1.07106
565 1.0182
570 0.953895
575 0.812796
580 0.71648
585 0.653794
590 0.573341
595 0.495495
600 0.63083
Ex : 428
200 0.202782
205 0.250536
210 0.248503
215 0.237562
220 0.210069
225 0.33865
230 0.378764
235 0.284612
240 0.275741
245 0.247912
250 0.212378
255 0.265422
260 0.304483
265 0.294618
270 0.229212
275 0.263234
280 0.290061
285 0.237527
290 0.213993
295 0.289518
300 0.24611
305 0.272751
310 0.324565
315 0.255815
320 0.248191
325 0.294461
330 0.358952
335 0.345703
340 0.372042
345 0.363422
350 0.347782
355 0.404052
360 0.414126
365 0.468808
370 0.411317
375 0.419395
380 0.50555
385 0.53065
390 0.663227
395 0.807244
400 0.92625
405 1.39404
410 2.04338
415 53.4314
420 918.831
425 1421.36
430 363.777
435 44.6654
440 7.25522
445 2.7977
450 2.61424
455 2.45213
460 2.29885
465 2.08083
470 2.16104
475 2.33862
480 3.82065
485 4.9554
490 3.91544
495 3.12716
500 2.9796
505 2.54251
510 2.27927
515 2.13793
520 2.07159
525 1.76572
530 1.81387
535 1.68955
540 1.59334
545 1.44872
550 1.37866
555 1.27528
560 1.14623
565 1.03777
570 0.981935
575 0.856341
580 0.699242
585 0.649304
590 0.582749
595 0.496589
600 0.376861
Ex : 433
200 0.285448
205 0.271068
210 0.276651
215 0.196866
220 0.251971
225 0.270352
230 0.290852
235 0.28773
240 0.225399
245 0.229172
250 0.315418
255 0.208482
260 0.21244
265 0.253913
270 0.304822
275 0.296251
280 0.280269
285 0.242092
290 0.282332
295 0.28568
300 0.231633
305 0.322678
310 0.247786
315 0.296104
320 0.271043
325 0.271035
330 0.284117
335 0.281976
340 0.267375
345 0.331233
350 0.42138
355 0.357814
360 0.325861
365 0.395293
370 0.397385
375 0.396017
380 0.509882
385 0.568944
390 0.547824
395 0.668918
400 0.777494
405 0.899927
410 1.34083
415 2.03733
420 58.6574
425 975.991
430 1429.19
435 350.889
440 42.8164
445 7.23324
450 2.79168
455 2.48977
460 2.4161
465 2.09795
470 1.89403
475 2.06639
480 2.1558
485 3.1448
490 4.70625
495 4.12914
500 2.95727
505 2.79685
510 2.30585
515 1.99631
520 1.91392
525 1.78329
530 1.73824
535 1.49528
540 1.46008
545 1.39069
550 1.43993
555 1.32153
560 1.09992
565 1.03479
570 0.840694
575 0.895065
580 0.667671
585 0.5695
590 0.538308
595 0.491714
600 0.270701
Ex : 438
200 0.271042
205 0.270599
210 0.311079
215 0.325713
220 0.245909
225 0.283709
230 0.269657
235 0.245693
240 0.307052
245 0.297013
250 0.261121
255 0.282442
260 0.268711
265 0.273
270 0.244588
275 0.293017
280 0.237437
285 0.241346
290 0.239048
295 0.258493
300 0.31062
305 0.256629
310 0.206775
315 0.364609
320 0.308934
325 0.378749
330 0.339152
335 0.349571
340 0.321205
345 0.341362
350 0.389486
355 0.265279
360 0.318975
365 0.421144
370 0.360926
375 0.397401
380 0.391541
385 0.384709
390 0.516114
395 0.556389
400 0.665051
405 0.846127
410 1.03556
415 1.2765
420 2.19233
425 55.85
430 962.896
435 1501.03
440 369.699
445 45.32
450 7.5099
455 2.81686
460 2.39135
465 2.40225
470 2.22814
475 2.01741
480 2.05197
485 2.05655
490 2.49636
495 4.10463
500 4.40514
505 3.04633
510 2.63347
515 2.31004
520 1.98629
525 1.76879
530 1.74637
535 1.57235
540 1.55119
545 1.36473
550 1.35774
555 1.36422
560 1.24002
565 1.05049
570 1.00567
575 0.829882
580 0.795509
585 0.703914
590 0.525919
595 0.458733
600 0.526634
Ex : 443
200 0.213082
205 0.270492
210 0.334656
215 0.256635
220 0.326466
225 0.28403
230 0.234754
235 0.198531
240 0.275543
245 0.272671
250 0.238099
255 0.31401
260 0.200252
265 0.314864
270 0.266059
275 0.256571
280 0.271047
285 0.250134
290 0.297433
295 0.261303
300 0.248913
305 0.29785
310 0.29934
315 0.304224
320 0.266905
325 0.268048
330 0.290737
335 0.29498
340 0.334474
345 0.340626
350 0.314851
355 0.398197
360 0.376252
365 0.369236
370 0.421433
375 0.36523
380 0.484481
385 0.48942
390 0.458043
395 0.525211
400 0.58152
405 0.577609
410 0.753702
415 0.950991
420 1.31662
425 1.99889
430 60.38
435 1009.94
440 1503.18
445 366.515
450 44.8825
455 7.41911
460 2.81476
465 2.49238
470 2.4321
475 2.16148
480 1.90609
485 1.90494
490 1.96262
495 2.24913
500 3.2959
505 4.40011
510 3.13444
515 2.59072
520 2.28685
525 1.94047
530 1.78309
535 1.60479
540 1.52871
545 1.50721
550 1.34067
555 1.18253
560 1.06932
565 1.04644
570 0.938401
575 0.77251
580 0.829778
585 0.631368
590 0.551224
595 0.496708
600 0.461818
Ex : 448
200 0.181375
205 0.192507
210 0.246202
215 0.282222
220 0.296367
225 0.280442
230 0.262536
235 0.306597
240 0.261866
245 0.312832
250 0.322639
255 0.291351
260 0.268834
265 0.313042
270 0.264152
275 0.342837
280 0.325916
285 0.273037
290 0.270314
295 0.285486
300 0.258076
305 0.277461
310 0.261034
315 0.282429
320 0.236759
325 0.241362
330 0.357893
335 0.35377
340 0.281004
345 0.365288
350 0.314185
355 0.38391
360 0.422118
365 0.363956
370 0.388573
375 0.356641
380 0.410762
385 0.339343
390 0.498121
395 0.486787
400 0.491392
405 0.582915
410 0.6951
415 0.842929
420 1.0853
425 1.36012
430 2.0811
435 62.5709
440 1063.91
445 1578.6
450 386.788
455 47.3592
460 7.81325
465 2.96766
470 2.39435
475 2.39522
480 2.20912
485 1.9122
490 1.81527
495 1.69076
500 1.96968
505 2.71387
510 3.83147
515 3.30556
520 2.50807
525 2.37748
530 1.83468
535 1.63712
540 1.53623
545 1.37253
550 1.26658
555 1.16223
560 1.13814
565 0.987006
570 0.949344
575 0.727135
580 0.834094
585 0.648749
590 0.620192
595 0.506514
600 0.306978
Ex : 453
200 0.240349
205 0.229695
210 0.23207
215 0.257524
220 0.226573
225 0.258104
230 0.302458
235 0.277745
240 0.266638
245 0.272128
250 0.264218
255 0.286173
260 0.228644
265 0.252265
270 0.231848
275 0.284828
280 0.252371
285 0.290681
290 0.276882
295 0.252336
300 0.274833
305 0.320157
310 0.319211
315 0.26099
320 0.264056
325 0.288539
330 0.294317
335 0.30646
340 0.301417
345 0.324886
350 0.345564
355 0.306226
360 0.296099
365 0.331919
370 0.370948
375 0.422631
380 0.447146
385 0.418973
390 0.421054
395 0.468947
400 0.464292
405 0.594415
410 0.510401
415 0.61852
420 0.742817
425 0.926671
430 1.27158
435 2.14702
440 64.8134
445 1134.78
450 1617.39
455 371.979
460 45.6665
465 7.80376
470 2.71045
475 2.32128
480 2.27612
485 2.08963
490 1.82814
495 1.68516
500 1.76662
505 1.73013
510 2.14768
515 3.62074
520 3.56287
525 2.48508
530 2.06642
535 1.97692
540 1.55885
545 1.37274
550 1.37063
555 1.24703
560 1.13032
565 1.04935
570 0.94004
575 0.811059
580 0.774334
585 0.706282
590 0.542493
595 0.574749
600 0.757215
Ex : 458
200 0.302105
205 0.260546
210 0.242426
215 0.199752
220 0.290422
225 0.26185
230 0.24517
235 0.274935
240 0.226861
245 0.194192
250 0.268766
255 0.302924
260 0.212407
265 0.261759
270 0.31032
275 0.334038
280 0.265763
285 0.252291
290 0.222003
295 0.278291
300 0.286215
305 0.254938
310 0.287968
315 0.270062
320 0.283174
325 0.361207
330 0.287407
335 0.303159
340 0.298114
345 0.350746
350 0.342095
355 0.327426
360 0.354001
365 0.439835
370 0.338601
375 0.420174
380 0.358909
385 0.339607
390 0.401019
395 0.408992
400 0.473516
405 0.463109
410 0.586628
415 0.600171
420 0.716006
425 0.708368
430 0.914302
435 1.32277
440 2.12428
445 71.8227
450 1166.39
455 1689.95
460 402.778
465 49.2339
470 7.97505
475 2.86172
480 2.2541
485 2.27542
490 2.04958
495 1.72433
500 1.65569
505 1.7199
510 1.56108
515 1.90904
520 3.01781
525 3.68814
530 2.60926
535 2.1112
540 1.9979
545 1.58882
550 1.38174
555 1.27446
560 1.27386
565 1.19898
570 0.950309
575 0.912235
580 0.749457
585 0.654758
590 0.55506
595 0.647116
600 0.465218
Ex : 463
200 0.227599
205 0.235152
210 0.247663
215 0.236463
220 0.270389
225 0.298349
230 0.234049
235 0.239448
240 0.248699
245 0.258844
250 0.305545
255 0.229716
260 0.25885
265 0.280838
270 0.221048
275 0.271196
280 0.302235
285 0.251346
290 0.252135
295 0.220093
300 0.236298
305 0.206728
310 0.253225
315 0.268341
320 0.285693
325 0.287851
330 0.282875
335 0.286567
340 0.252207
345 0.302606
350 0.388153
355 0.32428
360 0.34693
365 0.350498
370 0.346912
375 0.362863
380 0.334293
385 0.341638
390 0.366306
395 0.408748
400 0.427383
405 0.490397
410 0.517924
415 0.581637
420 0.538058
425 0.561545
430 0.658285
435 0.911239
440 1.34908
445 2.08399
450 69.5463
455 1206.09
460 1811.42
465 429.032
470 52.0328
475 8.44279
480 2.7914
485 2.14223
490 2.19648
495 2.02156
500 1.95503
505 1.7683
510 1.55408
515 1.5402
520 1.7435
525 2.32645
530 3.41108
535 2.88416
540 2.00615
545 1.84911
550 1.70648
555 1.31454
560 1.24469
565 1.02738
570 0.982439
575 0.873099
580 0.739952
585 0.599284
590 0.565239
595 0.556428
600 0.436751
Ex : 468
200 0.227233
205 0.21872
210 0.223866
215 0.226842
220 0.233561
225 0.247664
230 0.249161
235 0.335233
240 0.221913
245 0.282824
250 0.255668
255 0.260877
260 0.296457
265 0.253661
270 0.232197
275 0.221154
280 0.283935
285 0.260737
290 0.2632
295 0.228528
300 0.225731
305 0.209256
310 0.263658
315 0.213814
320 0.277865
325 0.33815
330 0.269185
335 0.322312
340 0.315154
345 0.316913
350 0.269586
355 0.277711
360 0.31204
365 0.332608
370 0.321143
375 0.332106
380 0.323076
385 0.388966
390 0.377571
395 0.41484
400 0.390329
405 0.367781
410 0.365902
415 0.479709
420 0.548862
425 0.534182
430 0.615103
435 0.76127
440 0.960875
445 1.27107
450 2.23539
455 76.347
460 1226.41
465 1894.57
470 448.529
475 53.9379
480 8.35421
485 2.76142
490 2.00589
495 1.89885
500 1.96554
505 1.72545
510 1.50321
515 1.54908
520 1.48021
525 1.66772
530 1.97503
535 3.18609
540 3.32154
545 2.06965
550 1.70734
555 1.75998
560 1.44033
565 1.16514
570 0.945192
575 0.860746
580 0.731373
585 0.793757
590 0.610591
595 0.551351
600 1.18229
Ex : 473
200 0.261898
205 0.258868
210 0.221494
215 0.242759
220 0.256912
225 0.295644
230 0.228336
235 0.223377
240 0.307122
245 0.217484
250 0.3084
255 0.299405
260 0.237101
265 0.277798
270 0.218423
275 0.266049
280 0.225972
285 0.247091
290 0.2676
295 0.259201
300 0.248332
305 0.215873
310 0.265449
315 0.273946
320 0.244925
325 0.259621
330 0.284657
335 0.250735
340 0.294515
345 0.294159
350 0.301245
355 0.32604
360 0.314168
365 0.319464
370 0.383573
375 0.337571
380 0.363015
385 0.427375
390 0.386586
395 0.417661
400 0.458989
405 0.39384
410 0.40095
415 0.405878
420 0.462813
425 0.52095
430 0.602512
435 0.651883
440 0.74115
445 0.937542
450 1.46879
455 2.29091
460 88.4975
465 1341.98
470 1843.4
475 415.905
480 50.3245
485 7.90916
490 2.75769
495 1.85104
500 1.91538
505 1.74479
510 1.67214
515 1.67496
520 1.54335
525 1.58273
530 1.51163
535 1.77921
540 2.61783
545 3.06342
550 2.29073
555 1.67349
560 1.57973
565 1.36381
570 1.09783
575 0.906121
580 0.772053
585 0.69458
590 0.619543
595 0.567564
600 0.451633
Ex : 478
200 0.332354
205 0.32459
210 0.306497
215 0.22219
220 0.233662
225 0.296912
230 0.267529
235 0.340813
240 0.368279
245 0.235876
250 0.283379
255 0.26332
260 0.301337
265 0.240507
270 0.289266
275 0.25637
280 0.284446
285 0.358488
290 0.302977
295 0.333589
300 0.301027
305 0.377154
310 0.28128
315 0.276064
320 0.244203
325 0.278265
330 0.312895
335 0.386736
340 0.410151
345 0.422145
350 0.334647
355 0.27133
360 0.376466
365 0.327904
370 0.442385
375 0.423732
380 0.393736
385 0.390019
390 0.435453
395 0.41061
400 0.398417
405 0.535914
410 0.559547
415 0.509844
420 0.490409
425 0.522339
430 0.595843
435 0.631162
440 0.69824
445 0.916863
450 1.22249
455 1.54674
460 2.76709
465 96.7474
470 1373.9
475 1876.85
480 448.17
485 54.125
490 8.67476
495 2.7976
500 1.90398
505 1.82739
510 2.04497
515 1.91192
520 1.72444
525 1.60389
530 1.65694
535 1.72001
540 1.74074
545 2.1326
550 2.92124
555 2.40725
560 1.51136
565 1.47092
570 1.33696
575 1.10898
580 0.829316
585 0.746912
590 0.688554
595 0.636984
600 0.749224
Ex : 483
200 0.305605
205 0.248066
210 0.275223
215 0.297134
220 0.273083
225 0.25534
230 0.310543
235 0.275158
240 0.296367
245 0.306516
250 0.301972
255 0.271133
260 0.290462
265 0.345073
270 0.331732
275 0.280837
280 0.263824
285 0.297413
290 0.306682
295 0.327469
300 0.34044
305 0.412987
310 0.309262
315 0.34639
320 0.271464
325 0.277406
330 0.33897
335 0.272097
340 0.33097
345 0.344202
350 0.364156
355 0.358771
360 0.425658
365 0.344121
370 0.402402
375 0.319744
380 0.353323
385 0.407842
390 0.440075
395 0.427792
400 0.383212
405 0.403015
410 0.364328
415 0.399855
420 0.492218
425 0.478806
430 0.636455
435 0.665748
440 0.707808
445 0.727216
450 0.950193
455 1.24136
460 1.61351
465 2.87902
470 76.6032
475 1357.5
480 2014.8
485 473.403
490 57.166
495 8.74524
500 2.61979
505 1.62846
510 1.80069
515 1.93675
520 1.89422
525 1.77958
530 1.60378
535 1.67395
540 1.51613
545 1.47729
550 1.56959
555 2.60598
560 2.73811
565 1.75232
570 1.42232
575 1.19727
580 0.923102
585 0.807152
590 0.674158
595 0.705397
600 0.588042
Ex : 488
200 0.293191
205 0.303049
210 0.32398
215 0.415422
220 0.270371
225 0.351616
230 0.301515
235 0.287304
240 0.288752
245 0.328601
250 0.317857
255 0.341988
260 0.349016
265 0.358959
270 0.376838
275 0.410736
280 0.401034
285 0.287757
290 0.304681
295 0.350747
300 0.316943
305 0.360354
310 0.355986
315 0.419075
320 0.346364
325 0.395056
330 0.344297
335 0.276588
340 0.345546
345 0.441397
350 0.368586
355 0.389323
360 0.488218
365 0.39007
370 0.458978
375 0.368927
380 0.441638
385 0.419565
390 0.426185
395 0.422138
400 0.449417
405 0.456456
410 0.473757
415 0.477339
420 0.583745
425 0.593546
430 0.569248
435 0.665524
440 0.706157
445 0.718534
450 0.824111
455 1.07971
460 1.46453
465 2.0719
470 2.75259
475 92.7557
480 1460.79
485 1985.25
490 455.558
495 54.9379
500 8.53455
505 2.90599
510 1.90593
515 1.8344
520 2.12631
525 1.94447
530 1.95146
535 1.56858
540 1.54937
545 1.59934
550 1.42023
555 1.35233
560 1.94096
565 2.4732
570 1.71256
575 1.30771
580 1.06814
585 1.01065
590 0.734578
595 0.551477
600 0.329685
Ex : 493
200 0.35894
205 0.349981
210 0.278407
215 0.30819
220 0.257706
225 0.32566
230 0.304002
235 0.321464
240 0.3285
245 0.306032
250 0.374863
255 0.282514
260 0.350713
265 0.267718
270 0.348548
275 0.394552
280 0.278186
285 0.260149
290 0.269646
295 0.275114
300 0.322161
305 0.277188
310 0.257815
315 0.345367
320 0.379692
325 0.36931
330 0.371531
335 0.385372
340 0.373132
345 0.371841
350 0.331946
355 0.309219
360 0.370316
365 0.40156
370 0.406821
375 0.396188
380 0.36105
385 0.471786
390 0.436076
395 0.382576
400 0.493275
405 0.427351
410 0.503122
415 0.452223
420 0.494861
425 0.458502
430 0.504521
435 0.611417
440 0.572386
445 0.65228
450 0.683635
455 0.799621
460 1.24842
465 1.50233
470 1.66485
475 2.57582
480 86.8791
485 1445.43
490 2081.29
495 468.457
500 56.4691
505 8.57535
510 2.77492
515 1.96555
520 1.87886
525 2.18827
530 1.92484
535 1.84537
540 1.72013
545 1.41769
550 1.47596
555 1.40837
560 1.27156
565 1.62916
570 2.17141
575 1.81788
580 1.16544
585 0.885642
590 0.931918
595 0.762395
600 1.03651
Ex : 498
200 0.441025
205 0.377297
210 0.354075
215 0.306767
220 0.307093
225 0.332887
230 0.314326
235 0.320307
240 0.33926
245 0.276001
250 0.438352
255 0.307808
260 0.428299
265 0.319725
270 0.293699
275 0.348036
280 0.368567
285 0.339039
290 0.297894
295 0.423215
300 0.378502
305 0.301179
310 0.414905
315 0.371054
320 0.389418
325 0.406916
330 0.351156
335 0.477529
340 0.431274
345 0.384627
350 0.395601
355 0.433707
360 0.467532
365 0.499954
370 0.437811
375 0.445801
380 0.493644
385 0.388442
390 0.422789
395 0.567943
400 0.52621
405 0.590413
410 0.56204
415 0.502669
420 0.482187
425 0.52942
430 0.568567
435 0.511289
440 0.60391
445 0.620287
450 0.751976
455 0.843464
460 0.860107
465 1.20125
470 1.50716
475 1.90413
480 2.90542
485 102.856
490 1519.58
495 2015.1
500 456.801
505 55.1694
510 8.7076
515 3.17582
520 2.11826
525 2.13883
530 2.06368
535 1.86161
540 1.6329
545 1.65975
550 1.40292
555 1.38995
560 1.37057
565 1.24577
570 1.37118
575 1.78361
580 1.77632
585 1.19673
590 0.883448
595 0.747357
600 0.471037
Ex : 503
200 0.387302
205 0.457655
210 0.419771
215 0.308115
220 0.371492
225 0.374488
230 0.396028
235 0.391912
240 0.411735
245 0.322433
250 0.381099
255 0.324315
260 0.318825
265 0.366017
270 0.415924
275 0.284916
280 0.356421
285 0.332245
290 0.33418
295 0.498659
300 0.386368
305 0.379109
310 0.41996
315 0.322995
320 0.340239
325 0.384512
330 0.363794
335 0.477039
340 0.405852
345 0.464798
350 0.481681
355 0.395275
360 0.372432
365 0.476015
370 0.460949
375 0.524728
380 0.378601
385 0.339884
390 0.491406
395 0.489914
400 0.453235
405 0.448247
410 0.469752
415 0.532236
420 0.569074
425 0.502313
430 0.541185
435 0.521574
440 0.630149
445 0.656413
450 0.660793
455 0.680613
460 0.863527
465 1.04496
470 1.11873
475 1.45186
480 1.78408
485 2.83763
490 94.3964
495 1517.27
500 2078.7
505 468.765
510 56.7398
515 8.82685
520 3.19369
525 2.19658
530 2.00343
535 1.97132
540 1.90597
545 1.66253
550 1.49493
555 1.40232
560 1.47262
565 1.29892
570 1.24961
575 1.08621
580 1.2533
585 1.45912
590 1.17103
595 0.918163
600 0.568486
Ex : 508
200 0.370827
205 0.427839
210 0.369114
215 0.405786
220 0.327698
225 0.431378
230 0.371211
235 0.518885
240 0.404388
245 0.440161
250 0.375804
255 0.412503
260 0.322996
265 0.371521
270 0.394007
275 0.38601
280 0.450402
285 0.363793
290 0.448536
295 0.330662
300 0.340067
305 0.356705
310 0.352688
315 0.427894
320 0.371005
325 0.35772
330 0.34908
335 0.417258
340 0.461369
345 0.485852
350 0.414712
355 0.408319
360 0.419108
365 0.410918
370 0.372728
375 0.422841
380 0.487267
385 0.424562
390 0.483133
395 0.447897
400 0.434316
405 0.466058
410 0.425367
415 0.463946
420 0.531272
425 0.59648
430 0.68802
435 0.666493
440 0.759247
445 0.746158
450 0.680789
455 0.701776
460 0.87144
465 1.01756
470 0.8571
475 1.05798
480 1.46988
485 1.89408
490 2.74365
495 100.397
500 1516.3
505 2072.75
510 491.237
515 59.0868
520 9.21902
525 3.04787
530 2.12836
535 2.02274
540 1.86922
545 1.66727
550 1.57233
555 1.43517
560 1.37724
565 1.37271
570 1.06273
575 1.08477
580 0.937671
585 0.988523
590 1.32803
595 1.15593
600 1.01342
Ex : 513
200 0.389875
205 0.426606
210 0.352921
215 0.387291
220 0.411729
225 0.383623
230 0.407514
235 0.356427
240 0.471872
245 0.42634
250 0.479974
255 0.404228
260 0.334694
265 0.375586
270 0.409427
275 0.373482
280 0.292431
285 0.46402
290 0.377903
295 0.352962
300 0.340968
305 0.381678
310 0.467158
315 0.370137
320 0.414983
325 0.311659
330 0.354314
335 0.359623
340 0.458863
345 0.362104
350 0.376622
355 0.554441
360 0.451991
365 0.454538
370 0.416594
375 0.458381
380 0.527283
385 0.481653
390 0.45927
395 0.479271
400 0.579456
405 0.439489
410 0.486239
415 0.56495
420 0.538146
425 0.516697
430 0.556817
435 0.532114
440 0.60167
445 0.680937
450 0.65743
455 0.694792
460 0.787663
465 0.910263
470 0.824289
475 0.957675
480 1.12018
485 1.48068
490 2.13036
495 2.68508
500 93.2322
505 1486.56
510 2099.01
515 503.202
520 60.837
525 9.42501
530 2.96227
535 2.0448
540 1.9402
545 1.89371
550 1.59201
555 1.40191
560 1.32369
565 1.02279
570 1.13916
575 0.916012
580 0.933666
585 0.99331
590 0.759646
595 1.00254
600 0.965017
Ex : 518
200 0.405435
205 0.321757
210 0.314551
215 0.446585
220 0.422333
225 0.438919
230 0.368936
235 0.45611
240 0.461397
245 0.404943
250 0.454295
255 0.436731
260 0.456787
265 0.425775
270 0.3844
275 0.326591
280 0.444462
285 0.363485
290 0.454793
295 0.453598
300 0.295741
305 0.353945
310 0.37248
315 0.39546
320 0.488214
325 0.440556
330 0.4234
335 0.375439
340 0.454898
345 0.4824
350 0.440402
355 0.527735
360 0.52995
365 0.494011
370 0.398596
375 0.39557
380 0.495712
385 0.448071
390 0.451629
395 0.438001
400 0.561604
405 0.536632
410 0.549547
415 0.55043
420 0.591717
425 0.610019
430 0.634674
435 0.588036
440 0.598682
445 0.664217
450 0.621247
455 0.75757
460 0.610191
465 0.737376
470 0.853139
475 0.875394
480 0.913551
485 1.09231
490 1.41304
495 1.77233
500 2.72494
505 93.5287
510 1447.36
515 2080
520 501.37
525 60.3916
530 9.10672
535 3.20976
540 2.07157
545 1.68679
550 1.54082
555 1.54049
560 1.50682
565 1.35039
570 1.23323
575 1.06721
580 0.86157
585 0.870311
590 0.782738
595 0.666325
600 0.856419
Ex : 523
200 0.51888
205 0.392669
210 0.382622
215 0.326665
220 0.386366
225 0.424561
230 0.421657
235 0.388734
240 0.333209
245 0.473316
250 0.450953
255 0.393205
260 0.365924
265 0.360456
270 0.437371
275 0.384183
280 0.39918
285 0.364049
290 0.403846
295 0.352675
300 0.344563
305 0.402714
310 0.380689
315 0.426708
320 0.441477
325 0.401998
330 0.330245
335 0.366661
340 0.456743
345 0.351962
350 0.404073
355 0.463119
360 0.360211
365 0.496065
370 0.489779
375 0.367061
380 0.474596
385 0.570646
390 0.504574
395 0.448578
400 0.590078
405 0.539662
410 0.517531
415 0.528956
420 0.583839
425 0.652407
430 0.615383
435 0.577019
440 0.642059
445 0.62172
450 0.650356
455 0.672949
460 0.760228
465 0.721032
470 0.852312
475 0.776651
480 0.801583
485 1.02839
490 1.21804
495 1.34921
500 1.88376
505 2.84131
510 86.0243
515 1387.42
520 2044.56
525 513.487
530 61.665
535 9.41062
540 2.87622
545 1.90099
550 1.63582
555 1.49152
560 1.45465
565 1.39114
570 1.19328
575 0.984223
580 0.971973
585 0.834889
590 0.750214
595 0.756494
600 0.344762
Ex : 528
200 0.318934
205 0.398773
210 0.343918
215 0.54231
220 0.387537
225 0.36627
230 0.366681
235 0.505873
240 0.568538
245 0.436381
250 0.447781
255 0.353525
260 0.422121
265 0.471211
270 0.420827
275 0.383745
280 0.437694
285 0.456191
290 0.419576
295 0.400582
300 0.364824
305 0.447751
310 0.460024
315 0.45779
320 0.46449
325 0.419331
330 0.423701
335 0.511985
340 0.519041
345 0.393895
350 0.457012
355 0.43109
360 0.472454
365 0.552524
370 0.460943
375 0.456915
380 0.498613
385 0.524859
390 0.439211
395 0.547432
400 0.449709
405 0.54528
410 0.5609
415 0.566739
420 0.529435
425 0.552688
430 0.621764
435 0.557364
440 0.56439
445 0.68371
450 0.534778
455 0.578425
460 0.694578
465 0.723819
470 0.762268
475 0.738488
480 0.889795
485 0.795556
490 0.898156
495 1.1279
500 1.42279
505 1.87495
510 2.60417
515 79.0151
520 1359.39
525 2025.69
530 496.023
535 59.7501
540 9.10824
545 2.80182
550 1.81915
555 1.60202
560 1.30817
565 1.32917
570 1.20818
575 0.936403
580 1.0621
585 0.924785
590 0.705841
595 0.646694
600 1.53409
Ex : 533
200 0.414362
205 0.344051
210 0.405844
215 0.387955
220 0.368831
225 0.365078
230 0.346713
235 0.48809
240 0.454924
245 0.386034
250 0.420056
255 0.415565
260 0.438642
265 0.430899
270 0.408979
275 0.464313
280 0.412663
285 0.51429
290 0.418073
295 0.312768
300 0.393396
305 0.444662
310 0.399122
315 0.340578
320 0.423191
325 0.421341
330 0.474719
335 0.462476
340 0.463143
345 0.404938
350 0.512211
355 0.50865
360 0.58873
365 0.556774
370 0.49437
375 0.539873
380 0.428447
385 0.420033
390 0.481374
395 0.631096
400 0.517106
405 0.582213
410 0.486938
415 0.566935
420 0.473149
425 0.465216
430 0.491406
435 0.641685
440 0.557641
445 0.609653
450 0.615931
455 0.586588
460 0.671653
465 0.868516
470 0.666742
475 0.779244
480 0.713212
485 0.8288
490 0.940836
495 0.942801
500 1.09847
505 1.33052
510 1.79506
515 2.89548
520 78.9073
525 1319.81
530 1995.08
535 508.239
540 61.0272
545 9.11584
550 2.68675
555 1.77281
560 1.38205
565 1.2708
570 1.34682
575 1.14196
580 1.01073
585 0.889655
590 0.909259
595 0.87382
600 0.408115
Ex : 538
200 0.448314
205 0.486268
210 0.48794
215 0.464958
220 0.504836
225 0.429384
230 0.525221
235 0.386251
240 0.513282
245 0.503818
250 0.508591
255 0.464816
260 0.427904
265 0.468691
270 0.454013
275 0.538112
280 0.514808
285 0.446046
290 0.64077
295 0.402807
300 0.531998
305 0.422091
310 0.565309
315 0.449445
320 0.445167
325 0.462589
330 0.59454
335 0.450007
340 0.424314
345 0.429236
350 0.520079
355 0.458802
360 0.51217
365 0.520021
370 0.56153
375 0.570284
380 0.539657
385 0.606661
390 0.591177
395 0.403498
400 0.521294
405 0.510382
410 0.549351
415 0.481978
420 0.499518
425 0.492094
430 0.527102
435 0.665947
440 0.550368
445 0.503545
450 0.523467
455 0.783591
460 0.789979
465 0.748718
470 0.732744
475 0.688703
480 0.778396
485 0.714009
490 0.775946
495 0.833628
500 1.08099
505 1.12009
510 1.25146
515 1.86752
520 2.7975
525 67.6183
530 1238.4
535 1972.16
540 520.306
545 62.1868
550 9.06666
555 2.59029
560 1.58126
565 1.4196
570 1.12879
575 1.05036
580 1.05511
585 0.839058
590 0.891499
595 0.74728
600 1.28038
Ex : 543
200 0.563848
205 0.386548
210 0.44457
215 0.498668
220 0.5895
225 0.471251
230 0.436196
235 0.426652
240 0.451442
245 0.407197
250 0.359464
255 0.508703
260 0.348678
265 0.425832
270 0.427341
275 0.351555
280 0.432639
285 0.446248
290 0.385584
295 0.416256
300 0.50305
305 0.499317
310 0.435331
315 0.475355
320 0.434932
325 0.534308
330 0.409314
335 0.488259
340 0.43717
345 0.43346
350 0.412522
355 0.472223
360 0.523846
365 0.467635
370 0.518417
375 0.518077
380 0.562559
385 0.52975
390 0.523147
395 0.497762
400 0.574347
405 0.522937
410 0.548297
415 0.535354
420 0.515181
425 0.48892
430 0.627996
435 0.513921
440 0.472991
445 0.553393
450 0.539626
455 0.578884
460 0.695184
465 0.702964
470 0.714264
475 0.708067
480 0.760721
485 0.594844
490 0.754158
495 0.880587
500 0.782467
505 0.996797
510 1.18761
515 1.37104
520 1.86432
525 2.41326
530 60.9938
535 1187.43
540 1957.29
545 528.968
550 63.4396
555 9.17232
560 2.53638
565 1.54846
570 1.22573
575 0.917541
580 0.903282
585 0.89714
590 0.790172
595 0.721803
600 0.758876
Ex : 548
200 0.456402
205 0.463218
210 0.514544
215 0.381374
220 0.428383
225 0.512124
230 0.463974
235 0.437596
240 0.435594
245 0.42835
250 0.440871
255 0.363898
260 0.417291
265 0.425432
270 0.511325
275 0.454953
280 0.464592
285 0.559573
290 0.476569
295 0.509758
300 0.308991
305 0.3879
310 0.524992
315 0.480065
320 0.497336
325 0.483108
330 0.406209
335 0.505728
340 0.591844
345 0.497349
350 0.5091
355 0.531224
360 0.460715
365 0.577629
370 0.559242
375 0.545831
380 0.501428
385 0.449766
390 0.479827
395 0.533567
400 0.461875
405 0.635484
410 0.545781
415 0.59755
420 0.516995
425 0.593008
430 0.625625
435 0.617803
440 0.600059
445 0.568497
450 0.663636
455 0.626356
460 0.652815
465 0.761753
470 0.730508
475 0.600391
480 0.635778
485 0.761016
490 0.777526
495 0.761813
500 0.775519
505 0.908135
510 1.0038
515 1.21988
520 1.2711
525 1.78159
530 2.68591
535 68.0705
540 1192.29
545 1901.67
550 518.44
555 62.1734
560 8.95911
565 2.53136
570 1.52357
575 1.09217
580 0.893666
585 0.846314
590 0.93513
595 0.767143
600 0.709292
Ex : 553
200 0.481346
205 0.445635
210 0.416881
215 0.549622
220 0.574769
225 0.389091
230 0.538408
235 0.467463
240 0.576651
245 0.490565
250 0.565104
255 0.469131
260 0.552431
265 0.515525
270 0.487667
275 0.49846
280 0.472518
285 0.541764
290 0.521555
295 0.448015
300 0.56249
305 0.584913
310 0.516425
315 0.438139
320 0.473155
325 0.517954
330 0.637479
335 0.600149
340 0.432913
345 0.509548
350 0.437278
355 0.615905
360 0.501416
365 0.597215
370 0.601022
375 0.515882
380 0.525683
385 0.567802
390 0.524
395 0.568257
400 0.53819
405 0.668688
410 0.585038
415 0.523485
420 0.600009
425 0.631407
430 0.637143
435 0.521891
440 0.517097
445 0.790075
450 0.581985
455 0.740621
460 0.689492
465 0.629005
470 0.68987
475 0.793316
480 0.700927
485 0.867454
490 0.78507
495 0.789548
500 0.789569
505 0.695338
510 1.00013
515 1.03424
520 1.24425
525 1.45189
530 1.72351
535 2.54941
540 57.1916
545 1111.9
550 1864.32
555 517.134
560 62.1059
565 8.96147
570 2.35113
575 1.30874
580 1.00652
585 0.920302
590 0.90604
595 0.811575
600 0.472967
Ex : 558
200 0.405605
205 0.401149
210 0.494539
215 0.468521
220 0.529332
225 0.460681
230 0.627584
235 0.573071
240 0.462297
245 0.681595
250 0.533616
255 0.550001
260 0.583263
265 0.488726
270 0.446231
275 0.5208
280 0.525994
285 0.547148
290 0.523371
295 0.479435
300 0.538174
305 0.497277
310 0.57228
315 0.483376
320 0.504589
325 0.447526
330 0.531572
335 0.563315
340 0.542385
345 0.535238
350 0.510358
355 0.52923
360 0.598989
365 0.54973
370 0.629472
375 0.575526
380 0.439927
385 0.619232
390 0.534958
395 0.701574
400 0.556523
405 0.640701
410 0.633879
415 0.662269
420 0.578779
425 0.5948
430 0.600741
435 0.523885
440 0.575839
445 0.566408
450 0.61943
455 0.582905
460 0.647392
465 0.692035
470 0.734626
475 0.854454
480 0.748235
485 0.765026
490 0.846257
495 0.647371
500 0.706752
505 0.752684
510 0.900365
515 0.862897
520 1.01746
525 1.00565
530 1.26791
535 1.77914
540 2.60815
545 54.0854
550 1059.19
555 1822.85
560 505.11
565 60.6561
570 8.44274
575 2.15498
580 1.37637
585 1.02384
590 0.863348
595 0.825525
600 0.412975
Ex : 563
200 0.469281
205 0.517528
210 0.589474
215 0.602863
220 0.445353
225 0.510258
230 0.538449
235 0.552505
240 0.601996
245 0.497351
250 0.490184
255 0.481711
260 0.568999
265 0.567323
270 0.670494
275 0.571248
280 0.505984
285 0.483465
290 0.503233
295 0.47346
300 0.517851
305 0.534959
310 0.602307
315 0.663728
320 0.551535
325 0.509665
330 0.562333
335 0.633726
340 0.516243
345 0.609776
350 0.47148
355 0.521764
360 0.549338
365 0.613922
370 0.488246
375 0.664789
380 0.556073
385 0.618709
390 0.571965
395 0.731232
400 0.555707
405 0.575996
410 0.680256
415 0.494793
420 0.629973
425 0.613298
430 0.63736
435 0.594469
440 0.611991
445 0.640232
450 0.634814
455 0.61872
460 0.778932
465 0.828194
470 0.852127
475 0.844944
480 0.76499
485 0.630365
490 0.616572
495 0.708552
500 0.583084
505 0.765705
510 0.895782
515 0.900869
520 0.858081
525 0.874646
530 1.15007
535 1.24057
540 1.5536
545 2.26864
550 50.8778
555 1022.48
560 1736.93
565 489.643
570 58.9674
575 8.25696
580 2.03797
585 1.33149
590 1.0405
595 1.02743
600 1.7732
Ex : 568
200 0.530908
205 0.574067
210 0.505495
215 0.519741
220 0.547221
225 0.648599
230 0.621254
235 0.548033
240 0.455081
245 0.449243
250 0.556467
255 0.555593
260 0.493765
265 0.470222
270 0.469989
275 0.527131
280 0.427832
285 0.506932
290 0.527127
295 0.429162
300 0.61032
305 0.436836
310 0.394295
315 0.538836
320 0.505992
325 0.649634
330 0.65438
335 0.575468
340 0.646982
345 0.527194
350 0.573511
355 0.533685
360 0.657704
365 0.601638
370 0.664731
375 0.546997
380 0.642463
385 0.543595
390 0.436942
395 0.542725
400 0.49051
405 0.502016
410 0.506248
415 0.646705
420 0.573552
425 0.684166
430 0.585893
435 0.497827
440 0.469861
445 0.70562
450 0.525129
455 0.772977
460 0.594364
465 0.673899
470 0.691438
475 0.657846
480 0.761458
485 0.719783
490 0.747205
495 0.69436
500 0.697581
505 0.756095
510 0.81176
515 0.833745
520 0.743543
525 0.960108
530 1.1081
535 1.16068
540 1.33682
545 1.85286
550 2.41775
555 40.2851
560 915.781
565 1670.55
570 492.972
575 59.3324
580 8.38858
585 2.10307
590 1.19985
595 1.05563
600 1.13293
Ex : 573
200 0.438923
205 0.43145
210 0.443309
215 0.43744
220 0.608134
225 0.615776
230 0.492462
235 0.475018
240 0.521394
245 0.512696
250 0.548718
255 0.560255
260 0.604624
265 0.543967
270 0.455891
275 0.451849
280 0.563736
285 0.465334
290 0.334913
295 0.477026
300 0.606381
305 0.498097
310 0.53046
315 0.47405
320 0.607107
325 0.473842
330 0.48805
335 0.597436
340 0.698213
345 0.658746
350 0.453681
355 0.621296
360 0.619983
365 0.585541
370 0.505776
375 0.606952
380 0.578056
385 0.551643
390 0.460462
395 0.586441
400 0.513473
405 0.690371
410 0.608266
415 0.550513
420 0.617359
425 0.670071
430 0.661277
435 0.574012
440 0.654209
445 0.599742
450 0.611181
455 0.54104
460 0.632146
465 0.724552
470 0.706421
475 0.632678
480 0.686316
485 0.654001
490 0.740936
495 0.729421
500 0.772499
505 0.709994
510 0.75468
515 0.661113
520 0.715165
525 0.879214
530 0.870453
535 1.05709
540 1.00882
545 1.37826
550 1.49934
555 2.15853
560 34.1437
565 794.573
570 1541.59
575 469.029
580 56.4327
585 7.67503
590 1.98405
595 1.05277
600 0.889569
Ex : 578
200 0.517346
205 0.583546
210 0.649556
215 0.545702
220 0.486881
225 0.635024
230 0.668602
235 0.447543
240 0.452347
245 0.402204
250 0.540179
255 0.459015
260 0.64352
265 0.645476
270 0.501159
275 0.492549
280 0.594874
285 0.609494
290 0.654648
295 0.657778
300 0.48673
305 0.474177
310 0.463335
315 0.656279
320 0.453618
325 0.588209
330 0.596477
335 0.465218
340 0.666356
345 0.579878
350 0.706478
355 0.564374
360 0.619441
365 0.734902
370 0.603663
375 0.511957
380 0.554277
385 0.768118
390 0.709818
395 0.588227
400 0.674208
405 0.565773
410 0.580192
415 0.550919
420 0.486786
425 0.570648
430 0.58565
435 0.592492
440 0.718322
445 0.538962
450 0.576852
455 0.634634
460 0.90115
465 0.85506
470 0.882066
475 0.536781
480 0.655237
485 0.658907
490 0.73596
495 0.741587
500 0.679661
505 0.685258
510 0.669207
515 0.750456
520 0.827015
525 0.805059
530 0.810251
535 0.825851
540 0.876451
545 1.13999
550 1.4245
555 1.5684
560 1.96863
565 29.6186
570 705.932
575 1357.46
580 403.001
585 48.5478
590 6.64347
595 1.58322
600 0.583586
Ex : 583
200 0.498633
205 0.538411
210 0.470312
215 0.474275
220 0.602581
225 0.689062
230 0.503777
235 0.525165
240 0.600488
245 0.63734
250 0.512833
255 0.463076
260 0.391641
265 0.489719
270 0.518941
275 0.495724
280 0.471619
285 0.52686
290 0.49663
295 0.474313
300 0.595343
305 0.632966
310 0.435078
315 0.545584
320 0.427556
325 0.503334
330 0.498982
335 0.49053
340 0.5743
345 0.634337
350 0.61829
355 0.631973
360 0.774824
365 0.661792
370 0.629063
375 0.597923
380 0.570465
385 0.598804
390 0.63409
395 0.546738
400 0.711098
405 0.600594
410 0.655301
415 0.727728
420 0.68135
425 0.542099
430 0.539268
435 0.532717
440 0.6057
445 0.62525
450 0.720441
455 0.657983
460 0.572799
465 0.558596
470 0.581695
475 0.775918
480 0.784741
485 0.625583
490 0.650928
495 0.780272
500 0.774305
505 0.67431
510 0.827919
515 0.726387
520 0.629803
525 0.629601
530 0.71761
535 0.81266
540 0.880874
545 0.987765
550 1.04779
555 1.28904
560 1.44533
565 1.98721
570 24.8313
575 632.706
580 1164.83
585 332.838
590 40.2428
595 5.74674
600 2.34393
Ex : 588
200 0.627752
205 0.513259
210 0.442877
215 0.69049
220 0.581877
225 0.53494
230 0.538417
235 0.602208
240 0.618511
245 0.612019
250 0.555881
255 0.474721
260 0.643115
265 0.4261
270 0.602493
275 0.510132
280 0.6174
285 0.560338
290 0.553303
295 0.536422
300 0.546046
305 0.5471
310 0.468449
315 0.611445
320 0.578629
325 0.674749
330 0.715228
335 0.629847
340 0.624406
345 0.559721
350 0.488309
355 0.612371
360 0.565686
365 0.548912
370 0.724959
375 0.553097
380 0.763763
385 0.677316
390 0.776255
395 0.640644
400 0.683243
405 0.676162
410 0.546561
415 0.674408
420 0.69395
425 0.537075
430 0.605289
435 0.642445
440 0.729397
445 0.731312
450 0.632398
455 0.566952
460 0.736599
465 0.687032
470 0.729478
475 0.722366
480 0.575163
485 0.717307
490 0.632202
495 0.604515
500 0.652567
505 0.723215
510 0.776818
515 0.617268
520 0.63456
525 0.739971
530 0.745946
535 0.835273
540 0.84447
545 0.888165
550 1.00427
555 1.03008
560 1.23085
565 1.20239
570 1.78873
575 22.0614
580 529.431
585 989.376
590 292.062
595 35.3368
600 5.45771
Ex : 593
200 0.698824
205 0.526011
210 0.674663
215 0.565855
220 0.619047
225 0.590631
230 0.734202
235 0.459929
240 0.499782
245 0.478376
250 0.52185
255 0.574372
260 0.594409
265 0.578009
270 0.507898
275 0.563134
280 0.659667
285 0.527484
290 0.625654
295 0.565293
300 0.555994
305 0.522481
310 0.410842
315 0.360032
320 0.535674
325 0.411293
330 0.596318
335 0.547138
340 0.649157
345 0.577218
350 0.627621
355 0.692011
360 0.607913
365 0.777786
370 0.534272
375 0.558238
380 0.468039
385 0.643175
390 0.638126
395 0.701108
400 0.523597
405 0.642246
410 0.57809
415 0.678556
420 0.592975
425 0.570468
430 0.60975
435 0.542442
440 0.540402
445 0.51641
450 0.571457
455 0.598421
460 0.614753
465 0.61185
470 0.718302
475 0.78946
480 0.696478
485 0.898416
490 0.675568
495 0.664542
500 0.690565
505 0.858507
510 0.795371
515 0.539047
520 0.751618
525 0.849433
530 0.637485
535 0.647426
540 0.711906
545 0.84679
550 0.976535
555 1.04803
560 1.25757
565 1.23066
570 1.25697
575 1.6309
580 19.1025
585 463.115
590 841.885
595 247.769
600 34.316
Ex : 598
200 0.655108
205 0.794683
210 0.575022
215 0.60394
220 0.5973
225 0.573224
230 0.471392
235 0.59117
240 0.595188
245 0.628291
250 0.695025
255 0.672202
260 0.765826
265 0.577215
270 0.493385
275 0.53719
280 0.578409
285 0.616775
290 0.668011
295 0.476954
300 0.492436
305 0.511981
310 0.602077
315 0.660186
320 0.589114
325 0.603004
330 0.699764
335 0.606759
340 0.527821
345 0.536133
350 0.675801
355 0.600204
360 0.692981
365 0.813891
370 0.753972
375 0.686107
380 0.590093
385 0.716188
390 0.495074
395 0.534225
400 0.636667
405 0.783277
410 0.659691
415 0.59356
420 0.789685
425 0.645982
430 0.590886
435 0.643703
440 0.568956
445 0.572559
450 0.590016
455 0.667629
460 0.589912
465 0.833783
470 0.682507
475 0.719413
480 0.609378
485 0.648185
490 0.781199
495 0.724612
500 0.676802
505 0.880075
510 0.811609
515 0.77925
520 0.68382
525 0.727289
530 0.559978
535 0.876046
540 0.777705
545 0.926866
550 0.843884
555 0.899906
560 0.953461
565 1.19722
570 0.994983
575 1.28931
580 1.53025
585 18.7898
590 415.145
595 731.913
600 474.597
Ex : 603
200 0.722355
205 0.632259
210 0.49785
215 0.429567
220 0.631672
225 0.612501
230 0.624046
235 0.490025
240 0.576658
245 0.520752
250 0.502168
255 0.555818
260 0.558602
265 0.593456
270 0.542972
275 0.58911
280 0.781403
285 0.61451
290 0.576164
295 0.657407
300 0.760206
305 0.621253
310 0.709238
315 0.556799
320 0.578289
325 0.612676
330 0.602073
335 0.63478
340 0.672736
345 0.738137
350 0.762288
355 0.619325
360 0.638183
365 0.598703
370 0.725869
375 0.639555
380 0.529119
385 0.549058
390 0.496472
395 0.768962
400 0.594491
405 0.663849
410 0.598705
415 0.662694
420 0.571577
425 0.567788
430 0.641153
435 0.577672
440 0.642863
445 0.615072
450 0.586279
455 0.58641
460 0.75979
465 0.688099
470 0.641434
475 0.617572
480 0.860302
485 0.808584
490 0.800703
495 0.6636
500 0.636978
505 0.693896
510 0.787612
515 0.77994
520 0.891601
525 0.780031
530 0.7672
535 0.777311
540 0.793568
545 0.805004
550 0.866107
555 0.89265
560 0.771751
565 0.937385
570 1.12964
575 1.04981
580 1.0893
585 1.53713
590 16.4561
595 351.228
600 704.45
