File format V 1.0
ven. 9. déc. 22:49:52 2016
Operator : 
Comments : 

=============================================
SpectroFluorometer parameters
Mode : 3D measurement
Data : Fluorescence
Phospho. : Ordinary
Spectrum : Fluorescence

Scan speed : 2400 nm/mn
Response : 100 ms
PM Voltage : 700 V
Shutter : On

Lambda Ex. Start : 203
Lambda Ex. End : 603
Lambda Ex. Step : 5
Ex. Slit : 5 nm

Lambda Em. Start : 200
Lambda Em. End : 600
Lambda Em. Step : 5
Em. Slit : 5 nm

Repetition : 1
Decal lambda em : 10
=============================================
DATA
Ex : 203
200 18.4302
205 22.7015
210 12.0972
215 17.1686
220 18.9635
225 16.7034
230 13.9573
235 15.4648
240 13.0505
245 11.0788
250 12.6667
255 16.6222
260 16.1843
265 14.2595
270 12.5433
275 13.7341
280 18.8576
285 14.7691
290 16.3084
295 15.364
300 15.3349
305 15.5036
310 12.9755
315 14.7531
320 12.8652
325 17.2583
330 13.2928
335 22.018
340 11.2616
345 14.7352
350 18.0844
355 18.1495
360 16.9051
365 17.1738
370 13.8337
375 16.8574
380 16.5595
385 16.9111
390 17.4752
395 12.5219
400 16.8651
405 19.9403
410 17.2786
415 19.2055
420 17.4586
425 15.826
430 16.383
435 16.9241
440 18.2288
445 14.773
450 16.5044
455 15.4259
460 12.0093
465 14.7639
470 16.4425
475 17.8729
480 25.0527
485 19.3143
490 15.7266
495 18.3374
500 21.6919
505 14.4202
510 17.6807
515 13.746
520 15.5206
525 16.0646
530 12.4027
535 12.2338
540 14.5513
545 12.1098
550 12.1547
555 10.9071
560 14.7249
565 15.5025
570 13.0999
575 14.5707
580 13.7905
585 19.3931
590 20.0567
595 12.8814
600 1.90895
Ex : 208
200 17.5455
205 15.6474
210 16.068
215 14.1744
220 10.6544
225 12.4524
230 14.5511
235 13.532
240 14.5611
245 14.3219
250 14.2852
255 15.9315
260 16.2418
265 15.539
270 15.418
275 15.079
280 14.3729
285 14.6027
290 15.5245
295 14.2282
300 14.5642
305 9.82836
310 11.1761
315 16.1218
320 14.1523
325 14.6351
330 15.748
335 17.5181
340 18.0819
345 14.6252
350 15.5933
355 14.6065
360 14.8747
365 14.9691
370 15.7235
375 16.9751
380 17.9807
385 17.1284
390 15.608
395 15.6509
400 16.0799
405 17.8383
410 13.6717
415 17.3344
420 16.0516
425 21.234
430 18.6407
435 17.9152
440 17.1579
445 19.5515
450 21.029
455 15.8482
460 16.262
465 15.0469
470 14.2952
475 18.5015
480 16.1884
485 22.4641
490 20.2131
495 14.1302
500 16.5882
505 16.4174
510 14.4929
515 15.0881
520 14.1573
525 17.0664
530 10.8686
535 12.8395
540 14.2063
545 17.6503
550 13.5616
555 19.1971
560 17.9644
565 12.2865
570 15.0845
575 12.8349
580 14.1819
585 14.3073
590 15.3801
595 9.8141
600 20.9678
Ex : 213
200 13.5145
205 11.6428
210 15.1569
215 17.7779
220 16.5346
225 14.319
230 13.5906
235 17.573
240 16.3475
245 17.4821
250 14.9073
255 13.685
260 18.7317
265 12.8161
270 16.1294
275 16.8466
280 14.0666
285 13.818
290 15.849
295 14.1349
300 12.2046
305 11.843
310 13.7338
315 17.1165
320 12.8506
325 15.5701
330 17.5776
335 17.5945
340 15.3436
345 21.5177
350 19.4237
355 17.0269
360 16.1058
365 16.7019
370 16.9154
375 16.9234
380 17.8619
385 20.1972
390 16.4827
395 18.5141
400 15.6173
405 24.2116
410 16.7291
415 19.2124
420 19.1458
425 17.947
430 17.2651
435 15.936
440 12.986
445 15.715
450 16.8986
455 13.9453
460 16.4403
465 16.6089
470 19.3205
475 17.0595
480 15.7445
485 17.797
490 16.6156
495 21.1644
500 18.606
505 17.8938
510 19.2286
515 14.1154
520 16.688
525 21.9993
530 16.826
535 14.16
540 14.6712
545 17.5342
550 16.3869
555 14.2411
560 15.508
565 14.4212
570 15.9801
575 15.4328
580 16.9954
585 15.3001
590 14.7268
595 14.7991
600 1.86132
Ex : 218
200 15.2044
205 18.7679
210 14.775
215 13.7909
220 16.2254
225 11.706
230 14.6517
235 19.4301
240 12.8111
245 17.7352
250 14.4959
255 12.8661
260 12.8841
265 17.7097
270 15.7339
275 14.4125
280 13.2509
285 14.6258
290 11.3843
295 16.0879
300 17.2935
305 13.5571
310 13.9894
315 14.4888
320 18.1227
325 16.5283
330 15.6528
335 18.5295
340 14.5794
345 15.5822
350 15.0012
355 14.5107
360 17.007
365 17.4184
370 15.3059
375 12.3019
380 15.6152
385 16.7926
390 17.1849
395 19.4346
400 15.9866
405 15.7203
410 16.0955
415 14.9536
420 17.0278
425 16.5913
430 16.6968
435 14.5432
440 17.4939
445 13.7611
450 14.6173
455 14.5831
460 16.1426
465 13.6215
470 14.7196
475 18.5994
480 14.0486
485 15.9737
490 18.0541
495 19.1896
500 16.6412
505 17.0931
510 13.8912
515 14.6368
520 17.6907
525 15.855
530 12.3771
535 12.5044
540 13.7497
545 15.5447
550 15.0341
555 19.0665
560 14.6382
565 13.4238
570 11.8477
575 12.551
580 13.1272
585 13.788
590 17.9221
595 17.02
600 16.1161
Ex : 223
200 14.659
205 16.8886
210 13.9503
215 14.1792
220 14.4582
225 12.3733
230 11.3218
235 12.3659
240 12.4075
245 15.8849
250 14.5425
255 13.0601
260 14.2131
265 15.4562
270 11.2975
275 12.6014
280 12.8469
285 12.9535
290 15.8736
295 14.9694
300 15.5085
305 13.6573
310 16.7273
315 13.7229
320 12.7227
325 15.5989
330 14.9197
335 12.7209
340 10.3869
345 15.9721
350 11.5217
355 13.1163
360 13.2825
365 11.6232
370 15.2231
375 16.6493
380 14.7047
385 17.2838
390 16.6115
395 15.5596
400 13.6629
405 16.7074
410 16.736
415 12.9844
420 14.6362
425 19.2602
430 17.5477
435 12.6107
440 18.5137
445 16.2098
450 18.2142
455 18.4552
460 15.5638
465 16.6235
470 16.5594
475 13.3469
480 14.6928
485 11.2969
490 15.5094
495 12.2241
500 16.204
505 24.3106
510 11.9223
515 16.9833
520 14.6164
525 16.5724
530 17.5609
535 12.7189
540 15.6408
545 18.7261
550 15.3338
555 14.5353
560 12.8212
565 15.5705
570 15.4888
575 17.4998
580 16.2042
585 14.4797
590 13.4173
595 13.7943
600 4.4499
Ex : 228
200 12.3713
205 10.8202
210 10.6144
215 14.4199
220 14.2259
225 13.3422
230 13.3501
235 12.647
240 13.1626
245 9.09706
250 11.0665
255 11.8195
260 14.5929
265 16.5551
270 13.118
275 14.1659
280 11.5527
285 17.0614
290 14.5804
295 12.8463
300 11.3891
305 12.1914
310 12.5069
315 13.2523
320 15.8049
325 16.3529
330 19.6447
335 17.3375
340 11.9724
345 17.1037
350 15.7592
355 15.7945
360 17.4886
365 17.4799
370 16.4952
375 14.8524
380 10.1485
385 11.855
390 14.3279
395 12.8407
400 14.2664
405 13.5087
410 14.4739
415 13.3081
420 15.3998
425 15.9587
430 16.6712
435 14.2695
440 16.3403
445 13.4587
450 15.3054
455 15.2196
460 15.6703
465 15.8556
470 12.489
475 13.9758
480 12.8011
485 13.2759
490 13.0957
495 12.3948
500 14.5352
505 12.9798
510 12.9888
515 14.2521
520 15.6971
525 10.0417
530 16.6876
535 13.5858
540 12.9456
545 13.4346
550 12.1024
555 13.0607
560 13.45
565 13.825
570 11.8183
575 17.0433
580 14.8253
585 14.8688
590 11.6247
595 11.3499
600 9.71051
Ex : 233
200 11.6826
205 13.8449
210 13.8027
215 10.5811
220 9.17993
225 10.9693
230 10.3223
235 10.8904
240 12.2745
245 11.3852
250 15.9202
255 10.3741
260 13.0392
265 10.0272
270 14.2857
275 9.70182
280 9.12288
285 13.7432
290 12.6455
295 12.9271
300 14.9549
305 14.4716
310 14.3378
315 10.6622
320 11.3523
325 14.0755
330 13.5886
335 12.8475
340 12.0124
345 15.5301
350 14.786
355 14.0122
360 10.6414
365 12.9221
370 15.1189
375 15.4916
380 14.4254
385 14.8233
390 12.8047
395 12.6004
400 11.4196
405 11.9675
410 13.2283
415 16.6783
420 13.5801
425 12.8558
430 15.3685
435 11.6659
440 13.7509
445 14.9733
450 12.4355
455 16.8675
460 10.9522
465 13.9927
470 12.1344
475 13.9523
480 11.545
485 12.6846
490 12.1276
495 11.8782
500 10.7346
505 9.99976
510 13.0354
515 13.0441
520 13.3612
525 12.8295
530 12.7916
535 13.5229
540 11.9498
545 11.9032
550 10.5419
555 14.0541
560 12.2543
565 10.3905
570 12.409
575 11.2486
580 15.3695
585 10.7637
590 16.1546
595 12.813
600 9.4339
Ex : 238
200 9.49367
205 10.8879
210 10.3565
215 12.1269
220 8.09299
225 13.4641
230 12.0993
235 13.2003
240 12.6519
245 11.5313
250 10.7503
255 11.262
260 8.48434
265 10.0437
270 9.11099
275 7.86092
280 10.7617
285 12.0093
290 12.3712
295 10.7947
300 10.1505
305 7.72276
310 9.06657
315 8.00702
320 9.49187
325 10.6849
330 12.2056
335 12.9473
340 12.2247
345 11.2871
350 10.7639
355 11.5332
360 10.3625
365 13.4692
370 11.854
375 9.27532
380 13.8811
385 16.6034
390 12.652
395 14.2302
400 14.7039
405 14.1586
410 10.4337
415 11.6164
420 10.8315
425 10.2143
430 10.4714
435 10.1156
440 10.3412
445 11.6564
450 13.9059
455 12.0251
460 9.66101
465 11.5035
470 11.276
475 9.72542
480 13.0841
485 10.6101
490 9.73303
495 12.882
500 9.78639
505 13.9934
510 9.98154
515 11.1367
520 13.25
525 11.2986
530 8.64976
535 9.3319
540 16.9986
545 13.2172
550 8.98553
555 10.0588
560 8.8214
565 11.4648
570 11.1026
575 8.14188
580 10.3731
585 12.4499
590 13.1953
595 14.8137
600 1.68575
Ex : 243
200 8.31449
205 9.60863
210 9.47609
215 11.5867
220 9.00004
225 8.94542
230 9.33388
235 9.57499
240 8.83746
245 11.2603
250 9.49131
255 10.2716
260 6.3439
265 7.78519
270 8.49145
275 8.72224
280 9.55151
285 10.1408
290 9.88521
295 8.20792
300 8.8827
305 9.4102
310 8.34094
315 9.62322
320 10.322
325 10.8063
330 11.8144
335 12.6892
340 11.2805
345 10.9567
350 13.6639
355 9.91687
360 8.9142
365 9.13583
370 8.87044
375 12.418
380 9.04709
385 9.49311
390 10.0527
395 10.3387
400 10.058
405 9.45153
410 10.7947
415 10.6074
420 10.3887
425 10.8796
430 8.97605
435 9.23536
440 10.4286
445 10.1595
450 12.0338
455 10.9301
460 10.3727
465 8.82776
470 8.10093
475 9.48304
480 14.3385
485 10.5719
490 10.1293
495 10.9521
500 11.6239
505 13.3331
510 10.2897
515 9.85091
520 9.26814
525 8.703
530 10.9097
535 10.6232
540 8.49948
545 9.42207
550 11.9193
555 11.2392
560 8.91799
565 7.4952
570 10.5656
575 11.6635
580 8.94027
585 8.31512
590 7.94206
595 9.94817
600 7.33549
Ex : 248
200 6.97452
205 6.43841
210 7.79972
215 7.57463
220 10.1544
225 8.72656
230 7.24118
235 8.20439
240 8.21957
245 6.331
250 5.72374
255 9.04931
260 7.279
265 7.75127
270 7.51765
275 6.90409
280 6.55666
285 8.44485
290 8.29832
295 6.74145
300 6.47914
305 8.58615
310 6.98903
315 9.07462
320 8.55849
325 8.16538
330 9.48668
335 7.95971
340 8.0037
345 8.54214
350 7.88117
355 8.5683
360 8.66641
365 8.79151
370 8.25728
375 9.0041
380 8.8129
385 10.1695
390 12.6413
395 12.7234
400 10.6808
405 7.79347
410 7.63903
415 9.55409
420 7.99798
425 10.9801
430 10.899
435 11.3818
440 7.91037
445 10.5802
450 9.29708
455 8.52662
460 8.37205
465 11.7743
470 8.29569
475 8.06479
480 8.3463
485 7.65575
490 12.2934
495 7.52897
500 7.76745
505 8.04652
510 7.49223
515 7.66441
520 7.29853
525 8.85787
530 9.35215
535 5.77982
540 5.63224
545 7.44571
550 7.88381
555 8.33064
560 9.99818
565 7.46817
570 8.68378
575 7.76519
580 8.62334
585 9.05317
590 7.81907
595 8.0572
600 11.5513
Ex : 253
200 8.26942
205 5.15728
210 6.16553
215 6.69652
220 5.96767
225 6.14762
230 5.81127
235 8.48388
240 5.73594
245 7.11436
250 4.56447
255 6.77258
260 6.10964
265 5.13285
270 7.43816
275 6.40376
280 6.3692
285 9.1269
290 5.9172
295 5.61328
300 6.81807
305 7.46408
310 5.43404
315 6.01616
320 6.74539
325 6.85373
330 6.02068
335 5.37808
340 6.58837
345 7.66257
350 6.90034
355 6.5997
360 8.59633
365 7.59119
370 7.86149
375 8.74642
380 9.3503
385 8.71172
390 8.45448
395 7.36317
400 7.48555
405 6.93767
410 6.36114
415 6.58917
420 7.19395
425 7.27371
430 6.14033
435 7.90942
440 7.55868
445 8.04634
450 8.9704
455 9.58894
460 6.54234
465 6.75517
470 7.35034
475 6.38825
480 5.94694
485 7.36273
490 5.9546
495 6.47068
500 9.01737
505 6.39332
510 5.51087
515 5.66588
520 8.18952
525 9.24981
530 7.40764
535 6.61431
540 6.0832
545 7.94748
550 6.04571
555 6.83322
560 6.30582
565 7.38731
570 7.36231
575 5.39028
580 5.78364
585 5.6939
590 5.10755
595 6.33615
600 2.13896
Ex : 258
200 3.89143
205 4.81154
210 3.67313
215 3.74526
220 2.7055
225 5.54894
230 3.91229
235 4.96221
240 4.9167
245 4.9294
250 4.11452
255 5.59308
260 3.55175
265 4.61067
270 3.98209
275 3.64524
280 3.83573
285 5.05111
290 5.00932
295 5.9778
300 5.73754
305 3.83629
310 4.20557
315 4.8775
320 4.44715
325 5.05841
330 5.5899
335 5.93575
340 5.15983
345 6.58863
350 6.01988
355 4.58506
360 5.76774
365 5.31022
370 5.54902
375 6.11681
380 5.38153
385 7.33599
390 5.39094
395 4.61967
400 6.3427
405 5.79156
410 5.35438
415 5.9283
420 4.68165
425 5.86568
430 4.56361
435 5.96687
440 5.93862
445 5.81577
450 5.02346
455 5.98198
460 5.70833
465 6.36754
470 6.51928
475 6.5756
480 5.30907
485 6.46956
490 5.02268
495 4.52061
500 6.67506
505 6.60436
510 7.37149
515 5.96086
520 5.48568
525 5.50449
530 4.71209
535 4.51128
540 4.72508
545 5.46203
550 5.68161
555 4.46787
560 5.5183
565 4.3623
570 3.84873
575 6.35519
580 4.88233
585 4.80059
590 5.11097
595 4.58594
600 8.23183
Ex : 263
200 3.4237
205 4.45968
210 3.77637
215 4.90116
220 3.22707
225 3.37347
230 3.02609
235 3.8986
240 4.58545
245 4.06132
250 4.27832
255 2.77291
260 3.15113
265 3.79733
270 4.28039
275 4.15141
280 3.18425
285 3.26847
290 3.76085
295 4.8282
300 2.87217
305 3.1547
310 3.59397
315 3.33002
320 4.63167
325 3.89304
330 4.84957
335 5.93153
340 3.89682
345 3.65979
350 3.64516
355 4.21584
360 4.80431
365 5.23711
370 4.26546
375 4.85359
380 4.52547
385 4.38827
390 4.58304
395 4.32183
400 4.19021
405 4.05496
410 5.32687
415 5.81074
420 5.12167
425 4.95611
430 4.5912
435 4.83559
440 4.02579
445 3.54775
450 3.81414
455 5.52677
460 5.34107
465 3.89566
470 5.18338
475 4.10797
480 3.3579
485 3.84044
490 4.09262
495 4.27297
500 4.80365
505 4.23208
510 4.28884
515 3.0996
520 3.44432
525 5.32515
530 3.45152
535 3.68012
540 3.02209
545 3.35859
550 3.35304
555 3.64561
560 4.2875
565 4.08019
570 3.52258
575 4.74486
580 4.04357
585 3.9734
590 3.30274
595 5.43608
600 0.618605
Ex : 268
200 3.09048
205 2.6581
210 3.22706
215 2.92243
220 3.01309
225 2.58625
230 2.67042
235 2.24265
240 3.11456
245 3.32227
250 3.23547
255 3.08919
260 3.34899
265 3.15822
270 3.80253
275 3.93208
280 2.1689
285 3.15454
290 3.4171
295 3.68032
300 2.76483
305 3.07007
310 2.52777
315 3.71019
320 2.84527
325 3.24458
330 4.92046
335 3.551
340 3.09898
345 3.32294
350 2.80404
355 2.97877
360 3.8011
365 3.37309
370 2.51611
375 2.96465
380 3.0355
385 3.49002
390 3.33711
395 3.35395
400 3.81985
405 3.64587
410 3.3478
415 3.96883
420 5.36965
425 3.66318
430 4.16206
435 3.3883
440 4.09408
445 3.82578
450 2.88342
455 2.79772
460 3.43214
465 4.22363
470 3.33388
475 2.80369
480 3.1307
485 3.03464
490 3.86988
495 3.69569
500 3.23214
505 3.29813
510 3.63031
515 3.20524
520 2.53781
525 3.32647
530 3.87577
535 3.75468
540 2.94463
545 2.79712
550 2.90247
555 3.3984
560 3.17209
565 2.92646
570 3.26262
575 2.39385
580 2.50987
585 3.43248
590 3.22144
595 3.04976
600 0.391361
Ex : 273
200 1.6916
205 1.93536
210 2.01202
215 2.27326
220 2.42562
225 2.86783
230 2.80755
235 2.35929
240 1.90899
245 2.11541
250 2.46043
255 2.55311
260 2.39874
265 2.62028
270 2.62519
275 2.56133
280 1.86685
285 2.18903
290 2.49902
295 2.91583
300 2.6872
305 2.36345
310 1.71964
315 2.00032
320 2.77356
325 2.92904
330 2.63138
335 2.68963
340 3.10832
345 3.68336
350 3.59021
355 2.73969
360 2.71347
365 2.77622
370 3.0779
375 2.49753
380 2.63555
385 2.58187
390 3.69161
395 2.80674
400 2.45686
405 3.23164
410 3.29265
415 2.99158
420 3.10649
425 3.21299
430 2.97581
435 3.24426
440 3.75825
445 3.00334
450 3.31555
455 2.63515
460 2.42121
465 2.6702
470 1.9631
475 2.94045
480 3.11635
485 2.72715
490 2.77285
495 3.05291
500 3.13117
505 2.70723
510 3.39921
515 3.51261
520 2.87252
525 2.58445
530 2.72104
535 2.99627
540 3.41647
545 2.87544
550 2.54608
555 2.64952
560 2.07056
565 2.23624
570 2.36644
575 2.20797
580 2.1063
585 2.14657
590 1.82308
595 2.25429
600 1.654
Ex : 278
200 2.55367
205 1.83433
210 1.73768
215 1.79651
220 1.7468
225 1.92611
230 1.85112
235 2.19256
240 1.8799
245 2.06121
250 2.33599
255 2.04661
260 2.84765
265 1.84405
270 2.27558
275 2.28416
280 1.84114
285 1.2519
290 1.74025
295 1.90391
300 2.77328
305 1.99252
310 1.62246
315 2.15984
320 2.33533
325 1.78693
330 2.49447
335 2.0011
340 2.38459
345 2.29469
350 2.65609
355 2.35626
360 2.75502
365 3.21143
370 2.93863
375 3.13047
380 2.31481
385 2.22464
390 2.96365
395 2.23884
400 2.26006
405 2.41988
410 2.88313
415 2.99834
420 2.61119
425 2.70096
430 2.77637
435 2.43131
440 2.81671
445 2.64098
450 2.68229
455 1.98597
460 2.42904
465 2.3166
470 2.69364
475 2.4278
480 2.6252
485 2.2262
490 2.20505
495 2.18755
500 2.14973
505 2.99795
510 1.83352
515 2.20939
520 1.57037
525 1.6108
530 1.98017
535 2.55516
540 1.96256
545 2.07794
550 2.72171
555 2.31716
560 2.15015
565 1.70252
570 2.16635
575 2.12461
580 2.06602
585 1.69299
590 2.57407
595 1.73129
600 1.11091
Ex : 283
200 1.69275
205 1.92116
210 1.97715
215 1.6821
220 2.08011
225 1.84385
230 1.40478
235 1.66979
240 1.56823
245 1.35639
250 1.31328
255 1.52837
260 1.3384
265 1.57425
270 2.03403
275 1.94441
280 1.62799
285 1.81197
290 1.80977
295 2.34842
300 1.91189
305 1.66405
310 1.65791
315 1.95248
320 1.62067
325 1.63107
330 2.10425
335 1.72928
340 1.798
345 2.17182
350 2.57307
355 3.01077
360 2.76829
365 2.22678
370 1.98808
375 2.24303
380 2.24631
385 2.21953
390 2.31635
395 1.96068
400 2.2514
405 2.19899
410 2.17402
415 2.20822
420 1.97901
425 2.21945
430 2.12421
435 2.26481
440 2.17582
445 2.48722
450 2.22736
455 2.69572
460 1.82885
465 2.11603
470 2.18176
475 2.01837
480 2.34396
485 1.83734
490 2.26926
495 2.00646
500 1.94884
505 2.32788
510 2.49203
515 1.97167
520 1.83596
525 1.95525
530 1.34518
535 1.67467
540 1.60422
545 1.69492
550 1.66372
555 1.59123
560 2.25681
565 2.11947
570 2.00783
575 1.57638
580 2.06581
585 2.31016
590 1.84618
595 1.54463
600 0.175774
Ex : 288
200 0.965349
205 1.4621
210 1.42011
215 1.60199
220 1.08839
225 1.18295
230 1.0897
235 1.46984
240 1.76484
245 1.67816
250 1.06703
255 1.90934
260 1.27996
265 1.2774
270 1.07416
275 1.20787
280 1.77109
285 1.45777
290 1.49228
295 1.18876
300 1.68953
305 1.36756
310 1.54686
315 1.99301
320 1.92952
325 1.75624
330 1.78628
335 2.0587
340 2.14577
345 2.23097
350 1.59839
355 1.79119
360 1.68842
365 1.95589
370 1.7784
375 1.93448
380 2.08955
385 1.96605
390 2.03918
395 1.92686
400 1.8443
405 2.10099
410 1.94933
415 1.92595
420 1.98918
425 2.0853
430 1.7911
435 1.84798
440 1.89355
445 1.77011
450 1.64805
455 1.75529
460 1.71354
465 1.97706
470 1.89751
475 1.96188
480 1.22956
485 1.64417
490 1.84034
495 2.08438
500 2.0512
505 1.40924
510 2.03533
515 1.72784
520 1.22408
525 1.52791
530 1.50391
535 1.55396
540 1.56304
545 1.66622
550 1.34343
555 1.23312
560 1.76663
565 1.95703
570 2.09801
575 1.83314
580 1.20335
585 1.16779
590 1.95321
595 1.15575
600 2.47504
Ex : 293
200 1.21386
205 1.22186
210 1.10869
215 1.269
220 1.56975
225 1.1896
230 1.23971
235 0.880534
240 1.41581
245 1.09098
250 1.40418
255 1.24865
260 0.85922
265 1.1696
270 1.07221
275 1.13476
280 1.50512
285 1.50869
290 1.32412
295 1.2351
300 1.09642
305 1.39083
310 1.19542
315 1.07018
320 1.38373
325 1.42726
330 1.74839
335 1.56587
340 1.33117
345 1.56974
350 1.88037
355 1.5406
360 1.54941
365 1.73385
370 1.62661
375 1.76381
380 1.51597
385 1.6616
390 1.51901
395 1.59894
400 1.59739
405 2.08577
410 2.0019
415 2.09677
420 1.56501
425 1.52718
430 1.59547
435 1.98508
440 2.26615
445 1.67622
450 1.57024
455 1.69059
460 1.58292
465 1.83257
470 1.59943
475 1.43103
480 1.35951
485 1.41608
490 1.26633
495 1.40882
500 1.28791
505 1.10396
510 1.2958
515 1.20013
520 1.16883
525 1.33574
530 1.27856
535 1.42704
540 1.38444
545 1.36578
550 1.16752
555 1.21498
560 1.08916
565 1.13881
570 1.19519
575 1.25649
580 1.3134
585 1.5293
590 1.35138
595 1.34724
600 0.28965
Ex : 298
200 1.06819
205 0.893423
210 1.26449
215 0.920776
220 0.865674
225 1.09675
230 0.952749
235 0.964448
240 0.868838
245 0.678353
250 0.828001
255 0.720857
260 0.824312
265 0.977862
270 0.978098
275 1.30281
280 1.23562
285 0.98463
290 1.01257
295 1.56335
300 1.03919
305 1.14706
310 1.14519
315 1.13013
320 1.16806
325 1.19326
330 1.19785
335 1.29812
340 1.30807
345 1.65264
350 1.85338
355 1.2387
360 1.32896
365 1.51598
370 1.717
375 1.74732
380 1.64086
385 1.65351
390 1.26082
395 1.86956
400 1.74734
405 1.44299
410 1.70846
415 1.42844
420 1.59514
425 1.57801
430 1.51088
435 1.46757
440 1.84258
445 1.40303
450 1.14776
455 1.56167
460 1.52471
465 1.42661
470 1.43289
475 1.50207
480 1.16943
485 1.38998
490 1.28012
495 1.17952
500 1.0873
505 1.24091
510 0.991229
515 1.14162
520 0.9522
525 1.12239
530 1.18762
535 0.921278
540 1.23622
545 1.1996
550 1.10126
555 1.16549
560 1.07981
565 0.982536
570 1.07282
575 0.936859
580 1.01176
585 1.25762
590 1.63908
595 1.4779
600 1.15608
Ex : 303
200 0.988701
205 0.767709
210 0.894542
215 0.880078
220 1.17423
225 0.966222
230 1.03512
235 1.28158
240 1.00608
245 0.948378
250 0.928551
255 1.05755
260 0.835549
265 0.781702
270 1.04248
275 0.840281
280 0.867313
285 0.947491
290 0.982438
295 0.991758
300 1.22605
305 0.973094
310 0.914975
315 1.27241
320 1.09054
325 1.22997
330 1.49098
335 1.58924
340 1.30792
345 1.35907
350 1.23856
355 1.44538
360 1.54072
365 1.50652
370 1.12957
375 1.2313
380 1.28724
385 1.36623
390 1.55157
395 1.61322
400 1.48578
405 1.3488
410 1.40572
415 1.42566
420 1.51564
425 1.34456
430 1.27446
435 1.61038
440 1.70483
445 1.58104
450 1.30505
455 1.24827
460 1.23596
465 1.37494
470 1.3461
475 1.13942
480 1.33208
485 1.34092
490 1.06929
495 1.06663
500 1.18738
505 0.895929
510 1.22877
515 1.26027
520 1.10058
525 1.13438
530 1.2284
535 1.09716
540 0.998473
545 1.04456
550 0.995703
555 0.987346
560 1.11177
565 1.29735
570 0.963243
575 0.96725
580 0.777664
585 0.80781
590 1.06624
595 1.0188
600 0.115935
Ex : 308
200 0.696539
205 0.598286
210 0.801027
215 0.577539
220 0.840906
225 0.613823
230 0.758408
235 0.815483
240 0.940436
245 0.846902
250 0.880878
255 0.692974
260 0.661244
265 0.75243
270 0.878747
275 0.942418
280 1.02559
285 0.840758
290 0.495531
295 0.622829
300 0.995779
305 1.35589
310 1.04516
315 0.672121
320 1.045
325 1.27394
330 1.34353
335 1.27225
340 1.22307
345 1.34064
350 1.31477
355 0.986632
360 1.03366
365 1.00932
370 1.57086
375 1.58
380 1.45957
385 1.43708
390 1.37507
395 1.26752
400 1.382
405 1.2756
410 1.184
415 1.36496
420 1.41813
425 1.51224
430 1.26336
435 1.32968
440 1.19483
445 1.28441
450 1.33956
455 1.28719
460 1.12831
465 1.33294
470 1.18241
475 1.26373
480 1.15776
485 1.22906
490 0.98981
495 1.08989
500 0.9455
505 0.839748
510 0.869814
515 0.793529
520 0.71527
525 0.967599
530 1.07254
535 1.09252
540 0.732969
545 0.807506
550 1.09646
555 1.03541
560 0.85391
565 0.782028
570 0.741114
575 0.972746
580 0.892201
585 0.985227
590 0.532334
595 0.668292
600 1.273
Ex : 313
200 0.516562
205 0.726434
210 0.681399
215 0.67803
220 0.753336
225 0.655795
230 0.844927
235 0.662009
240 0.646101
245 0.858224
250 0.769768
255 0.568901
260 0.917661
265 0.717744
270 0.780561
275 0.631808
280 0.663519
285 0.70474
290 0.70868
295 0.899749
300 0.976103
305 0.72627
310 0.800584
315 0.821751
320 0.733427
325 1.09375
330 1.33117
335 1.42197
340 1.46029
345 1.33139
350 1.23654
355 1.40336
360 1.32681
365 1.42916
370 1.35562
375 1.37468
380 1.58127
385 1.39215
390 1.47526
395 1.61205
400 1.60426
405 1.59221
410 1.71345
415 1.71433
420 1.55882
425 1.54697
430 1.5917
435 1.43126
440 1.69888
445 1.12036
450 1.48196
455 1.70365
460 1.47228
465 1.209
470 1.32865
475 1.17893
480 1.13705
485 0.949032
490 1.22877
495 1.08445
500 1.08481
505 1.091
510 0.888964
515 0.85717
520 0.868325
525 0.89372
530 0.870222
535 0.722271
540 0.749402
545 0.841409
550 0.811841
555 0.816766
560 0.983803
565 0.962934
570 0.569417
575 0.633767
580 0.635889
585 0.745266
590 0.840124
595 0.55942
600 0.918949
Ex : 318
200 0.634516
205 0.565583
210 0.548787
215 0.598807
220 0.687734
225 0.672873
230 0.614575
235 0.59057
240 0.610454
245 0.620571
250 0.486627
255 0.503838
260 0.695586
265 0.705086
270 0.771286
275 0.744605
280 0.621627
285 0.562215
290 0.538793
295 0.943349
300 0.894111
305 0.671528
310 0.83793
315 2.6877
320 1.95248
325 1.81271
330 1.78188
335 2.13911
340 1.99821
345 2.44925
350 2.65102
355 3.399
360 3.84209
365 4.73972
370 5.51619
375 6.73054
380 7.08573
385 7.62748
390 8.76689
395 9.09506
400 8.76091
405 8.84478
410 9.28891
415 8.96253
420 8.94436
425 8.21148
430 8.58453
435 8.28839
440 7.48379
445 7.21006
450 6.87668
455 6.42732
460 5.95381
465 5.39269
470 5.3184
475 4.70518
480 4.51304
485 4.06145
490 4.0039
495 3.52268
500 2.89823
505 2.54095
510 2.51047
515 2.32023
520 1.83902
525 1.82216
530 1.63471
535 1.58694
540 1.42273
545 1.11534
550 1.28954
555 1.15833
560 1.02507
565 1.19263
570 1.08461
575 0.958433
580 0.916751
585 0.781672
590 0.685845
595 0.695684
600 0.0791662
Ex : 323
200 0.690256
205 0.617925
210 0.491689
215 0.644396
220 0.476994
225 0.554403
230 0.737106
235 0.554102
240 0.487756
245 0.555166
250 0.533402
255 0.725155
260 0.477046
265 0.504992
270 0.594547
275 0.449771
280 0.717756
285 0.509534
290 0.588093
295 0.603986
300 0.835589
305 0.711773
310 0.725437
315 17.6753
320 78.6267
325 33.319
330 6.64461
335 4.63954
340 5.26443
345 6.92038
350 9.57585
355 12.631
360 15.0727
365 17.4557
370 21.1994
375 23.8319
380 27.6688
385 30.985
390 33.8289
395 35.6438
400 35.2922
405 37.0448
410 38.2062
415 38.0571
420 36.6831
425 35.0645
430 33.2669
435 32.2956
440 31.0149
445 29.255
450 27.4614
455 26.5956
460 23.8278
465 22.7046
470 20.8447
475 19.1537
480 17.4059
485 15.8277
490 14.9004
495 12.5418
500 10.8081
505 10.0035
510 8.82391
515 8.14748
520 6.82658
525 5.57852
530 5.30572
535 4.43874
540 3.78573
545 3.6224
550 3.40431
555 2.6604
560 2.58591
565 2.19864
570 1.68038
575 1.4928
580 1.42051
585 1.00062
590 1.02306
595 0.896564
600 1.04514
Ex : 328
200 0.624724
205 0.484868
210 0.54073
215 0.662598
220 0.683528
225 0.630408
230 0.504125
235 0.605773
240 0.605152
245 0.518217
250 0.448994
255 0.554546
260 0.567759
265 0.591082
270 0.520711
275 0.583463
280 0.714096
285 0.752563
290 0.553967
295 0.67004
300 0.625819
305 0.584093
310 0.881446
315 5.4842
320 198.3
325 457.628
330 135.119
335 20.9489
340 8.77129
345 9.22513
350 10.7422
355 14.9922
360 19.8239
365 22.3042
370 24.2633
375 28.0696
380 31.5078
385 35.0156
390 37.4666
395 39.882
400 42.0336
405 42.4798
410 42.0541
415 42.5888
420 41.0134
425 39.206
430 37.4241
435 36.5266
440 35.2098
445 32.8816
450 31.1239
455 28.8081
460 27.2026
465 25.0708
470 23.1221
475 21.4352
480 19.932
485 17.9197
490 16.0559
495 14.4804
500 12.8313
505 11.203
510 9.70714
515 8.7796
520 7.20287
525 7.17213
530 6.12061
535 5.34636
540 4.86844
545 4.1297
550 3.59074
555 3.1818
560 2.82214
565 2.37299
570 2.22177
575 1.87938
580 1.72131
585 1.32321
590 1.59631
595 1.24441
600 0.54716
Ex : 333
200 0.452782
205 0.444763
210 0.592054
215 0.559076
220 0.562305
225 0.736281
230 0.569487
235 0.683858
240 0.604704
245 0.481766
250 0.575985
255 0.503591
260 0.455048
265 0.460863
270 0.539368
275 0.636178
280 0.627439
285 0.656928
290 0.721998
295 0.694302
300 0.673688
305 0.818191
310 0.905054
315 1.18041
320 28.1474
325 560.578
330 935.579
335 236.162
340 33.0046
345 10.4853
350 8.11647
355 7.9949
360 11.5988
365 16.1545
370 17.4902
375 17.3184
380 18.7106
385 20.281
390 22.3164
395 23.5505
400 24.3059
405 24.6792
410 25.676
415 24.852
420 24.9149
425 23.2958
430 22.0437
435 21.3879
440 20.3308
445 19.5529
450 18.1052
455 17.0265
460 15.3008
465 14.3778
470 13.6569
475 12.3179
480 11.4525
485 10.4213
490 9.37302
495 8.50155
500 7.48735
505 6.5453
510 5.98979
515 5.44638
520 4.96041
525 4.54367
530 3.89975
535 3.48616
540 3.05873
545 2.99411
550 2.7206
555 2.34611
560 2.26489
565 1.8844
570 1.91939
575 1.65764
580 1.25862
585 1.17076
590 1.23315
595 0.986943
600 0.991697
Ex : 338
200 0.474357
205 0.640789
210 0.533649
215 0.54992
220 0.565483
225 0.598876
230 0.599992
235 0.544681
240 0.524709
245 0.529395
250 0.577533
255 0.626884
260 0.59577
265 0.626724
270 0.557944
275 0.51671
280 0.592531
285 0.564998
290 0.623829
295 0.579076
300 0.751787
305 0.709617
310 0.804232
315 0.933883
320 1.29329
325 52.7264
330 836.894
335 1210.23
340 284.932
345 37.6926
350 9.60323
355 5.80484
360 5.26402
365 7.68643
370 12.5331
375 11.8531
380 10.5106
385 10.8178
390 12.9354
395 13.0432
400 13.5464
405 13.6457
410 14.3369
415 14.9876
420 14.4034
425 13.88
430 12.5646
435 11.5303
440 11.5218
445 11.1809
450 10.5837
455 9.31705
460 9.33715
465 8.51572
470 7.95435
475 7.43979
480 6.93504
485 6.28909
490 5.5041
495 5.1335
500 4.73673
505 4.41653
510 3.885
515 3.72821
520 3.36443
525 3.03128
530 3.09121
535 2.54309
540 2.41817
545 2.07734
550 2.01431
555 1.84076
560 1.78386
565 1.6356
570 1.48257
575 1.36197
580 1.08313
585 0.98393
590 1.0279
595 1.03951
600 0.979707
Ex : 343
200 0.481276
205 0.476605
210 0.531633
215 0.496159
220 0.448846
225 0.493072
230 0.480709
235 0.502319
240 0.485512
245 0.483664
250 0.547621
255 0.602514
260 0.511597
265 0.538416
270 0.583011
275 0.493895
280 0.625689
285 0.60882
290 0.550917
295 0.60865
300 0.584869
305 0.66335
310 0.823191
315 0.948698
320 1.12385
325 1.72718
330 61.2448
335 946.468
340 1341.72
345 312.273
350 40.4785
355 9.03676
360 4.93295
365 3.82458
370 4.77924
375 9.26031
380 10.4374
385 9.70556
390 9.66243
395 9.52935
400 9.44535
405 9.9962
410 11.2765
415 11.7588
420 10.9545
425 10.1943
430 10.0346
435 9.38785
440 9.30894
445 8.73246
450 8.36564
455 7.67275
460 7.45513
465 7.01166
470 6.40061
475 5.96714
480 5.69179
485 4.90112
490 4.73681
495 4.44485
500 3.97131
505 3.82664
510 3.68099
515 3.04077
520 2.89383
525 2.49743
530 2.35864
535 2.00658
540 2.22033
545 2.00135
550 1.92986
555 1.70672
560 1.49493
565 1.33811
570 1.37109
575 1.35311
580 1.15977
585 0.943047
590 1.04064
595 0.895378
600 3.28029
Ex : 348
200 0.537605
205 0.49583
210 0.417578
215 0.411525
220 0.439741
225 0.527335
230 0.420342
235 0.382178
240 0.413069
245 0.476889
250 0.433015
255 0.473261
260 0.467044
265 0.465466
270 0.479008
275 0.483956
280 0.436931
285 0.564598
290 0.59501
295 0.451638
300 0.589935
305 0.730671
310 0.696185
315 0.786336
320 0.90853
325 1.14997
330 2.11479
335 59.621
340 935.091
345 1388.41
350 346.255
355 44.0913
360 8.83896
365 4.51762
370 3.05649
375 3.55071
380 7.72742
385 11.529
390 11.8236
395 11.2712
400 10.0592
405 10.6606
410 11.4899
415 12.2991
420 12.4598
425 11.1769
430 10.6056
435 10.0188
440 10.3081
445 9.91083
450 9.24485
455 8.18792
460 7.48738
465 7.21397
470 6.8878
475 6.26339
480 5.81771
485 5.17086
490 5.19273
495 4.50478
500 4.27953
505 4.08938
510 3.70985
515 3.19827
520 2.89317
525 2.53285
530 2.51694
535 2.19322
540 2.1097
545 1.91335
550 1.95632
555 1.51695
560 1.58057
565 1.4053
570 1.26545
575 1.22639
580 1.165
585 0.919169
590 0.736598
595 0.932294
600 0.410232
Ex : 353
200 0.349895
205 0.362501
210 0.415292
215 0.387433
220 0.343095
225 0.372859
230 0.438441
235 0.379495
240 0.45637
245 0.446772
250 0.550781
255 0.403353
260 0.398039
265 0.46925
270 0.453217
275 0.510957
280 0.594656
285 0.457245
290 0.564146
295 0.601305
300 0.53388
305 0.629145
310 0.605566
315 0.566508
320 0.570214
325 0.931039
330 1.25213
335 2.19482
340 61.5934
345 962.882
350 1372.88
355 328.796
360 41.4764
365 8.35973
370 4.13902
375 3.15006
380 3.88993
385 8.34496
390 13.9142
395 13.6009
400 11.4193
405 11.0227
410 12.1031
415 13.3671
420 13.4397
425 11.5916
430 10.793
435 10.2095
440 10.602
445 9.8255
450 9.11091
455 8.81993
460 8.04348
465 7.71801
470 7.10192
475 6.36944
480 6.02326
485 5.53472
490 5.32532
495 4.65438
500 4.41259
505 4.22178
510 3.52244
515 3.28027
520 2.92126
525 2.72923
530 2.47987
535 2.23288
540 2.28938
545 2.00753
550 1.77432
555 1.60074
560 1.53329
565 1.50143
570 1.27303
575 1.07586
580 0.892434
585 0.849511
590 0.77639
595 0.912368
600 0.524647
Ex : 358
200 0.353946
205 0.401409
210 0.376484
215 0.460721
220 0.335266
225 0.348802
230 0.36756
235 0.351719
240 0.348445
245 0.370299
250 0.381201
255 0.446895
260 0.395088
265 0.396849
270 0.393092
275 0.457306
280 0.453238
285 0.496544
290 0.493449
295 0.527645
300 0.48943
305 0.545227
310 0.449477
315 0.552968
320 0.62166
325 0.895901
330 0.937576
335 1.57137
340 2.23353
345 57.3739
350 914.63
355 1372.46
360 334.233
365 42.0247
370 7.86716
375 4.3135
380 3.8477
385 5.50717
390 9.37823
395 14.1585
400 13.0818
405 11.1947
410 12.1746
415 12.993
420 12.4417
425 10.8656
430 10.2143
435 10.3002
440 10.2974
445 9.78957
450 9.21354
455 8.55786
460 7.906
465 7.3449
470 7.2287
475 6.61318
480 6.11041
485 5.89234
490 5.19465
495 4.63824
500 4.38402
505 4.07064
510 3.83504
515 3.62583
520 3.27766
525 2.75339
530 2.37602
535 2.26159
540 2.08381
545 1.88019
550 1.85145
555 1.62919
560 1.53705
565 1.33307
570 1.19208
575 1.1618
580 0.895203
585 0.86427
590 0.874165
595 0.878361
600 0.719392
Ex : 363
200 0.463712
205 0.336156
210 0.344075
215 0.428448
220 0.416988
225 0.251529
230 0.243805
235 0.431455
240 0.503102
245 0.392655
250 0.427156
255 0.456435
260 0.419938
265 0.420684
270 0.426548
275 0.432938
280 0.346653
285 0.378239
290 0.442917
295 0.458471
300 0.518909
305 0.473556
310 0.516833
315 0.456328
320 0.513756
325 0.663433
330 0.897457
335 1.03926
340 1.1685
345 2.11018
350 53.7251
355 885.583
360 1364.03
365 343.738
370 43.211
375 8.23621
380 5.2743
385 6.75569
390 8.78758
395 10.6287
400 13.3059
405 14.4822
410 14.5131
415 14.7984
420 13.6614
425 11.9661
430 11.2827
435 11.5644
440 11.5728
445 10.7467
450 10.288
455 9.26434
460 8.62749
465 8.00186
470 7.71199
475 6.83707
480 6.41069
485 6.23787
490 5.66025
495 5.06481
500 4.64879
505 4.26506
510 4.14384
515 3.57927
520 3.38065
525 2.90292
530 2.59101
535 2.39829
540 2.1672
545 1.92043
550 1.78452
555 1.67101
560 1.49067
565 1.33283
570 1.19998
575 1.11532
580 1.04894
585 0.851176
590 0.810633
595 0.787353
600 0.683227
Ex : 368
200 0.349656
205 0.336762
210 0.412921
215 0.292486
220 0.330855
225 0.357318
230 0.39291
235 0.441447
240 0.344457
245 0.459458
250 0.308166
255 0.41924
260 0.468902
265 0.393707
270 0.417391
275 0.40361
280 0.421345
285 0.391242
290 0.358747
295 0.33091
300 0.361749
305 0.375086
310 0.423832
315 0.447576
320 0.509846
325 0.587639
330 0.709966
335 0.762612
340 0.959866
345 1.22557
350 1.97236
355 42.7172
360 845.74
365 1373.44
370 357.763
375 45.0307
380 9.41574
385 8.54997
390 10.9166
395 11.7284
400 11.6114
405 14.8662
410 19.2331
415 19.5199
420 17.6426
425 14.4635
430 13.5935
435 13.3705
440 13.51
445 13.4379
450 12.0135
455 10.6371
460 9.99779
465 8.90238
470 8.70586
475 8.21789
480 7.30962
485 6.5968
490 6.16718
495 5.51309
500 5.17035
505 4.87737
510 4.34529
515 3.73642
520 3.41547
525 3.22444
530 2.74261
535 2.54037
540 2.41135
545 1.89167
550 1.9316
555 1.80052
560 1.53934
565 1.45538
570 1.24725
575 1.06508
580 0.994651
585 0.926974
590 0.62251
595 0.724677
600 0.0824654
Ex : 373
200 0.28011
205 0.261953
210 0.259691
215 0.367258
220 0.349299
225 0.352949
230 0.301772
235 0.35321
240 0.412576
245 0.33231
250 0.370906
255 0.342252
260 0.298255
265 0.429435
270 0.306943
275 0.34705
280 0.453716
285 0.351184
290 0.420115
295 0.393163
300 0.372678
305 0.430684
310 0.384269
315 0.515583
320 0.463612
325 0.456876
330 0.478892
335 0.598794
340 0.755077
345 0.958166
350 1.30244
355 2.09854
360 50.2358
365 852.993
370 1342.32
375 350.597
380 44.7799
385 11.3464
390 11.5823
395 13.2941
400 11.715
405 11.4755
410 15.4709
415 20.9426
420 19.5815
425 16.1583
430 13.4037
435 12.5479
440 13.1103
445 12.9197
450 12.1458
455 10.4573
460 9.50112
465 8.75087
470 8.60214
475 8.21911
480 7.25968
485 6.50999
490 5.86336
495 5.48023
500 5.04191
505 4.1844
510 3.97657
515 3.65276
520 3.36154
525 2.92293
530 2.69065
535 2.45148
540 2.2786
545 2.08641
550 1.90664
555 1.56482
560 1.48507
565 1.36822
570 1.25205
575 0.972476
580 0.886741
585 0.764992
590 0.785996
595 0.634967
600 0.793236
Ex : 378
200 0.303892
205 0.358746
210 0.334836
215 0.398405
220 0.297589
225 0.279036
230 0.336579
235 0.338209
240 0.309122
245 0.30751
250 0.237979
255 0.317799
260 0.349752
265 0.293509
270 0.4142
275 0.347531
280 0.337916
285 0.332126
290 0.340655
295 0.382591
300 0.405548
305 0.304141
310 0.363032
315 0.361062
320 0.423945
325 0.392254
330 0.572252
335 0.568846
340 0.669602
345 0.762334
350 0.976869
355 1.34039
360 1.90744
365 47.8593
370 849.903
375 1358.98
380 356.962
385 47.2005
390 13.2604
395 10.7259
400 9.50682
405 8.90428
410 10.5035
415 13.7759
420 16.4679
425 14.1914
430 11.4339
435 11.323
440 10.9423
445 10.9031
450 9.91076
455 8.9239
460 8.14013
465 7.73202
470 7.23346
475 7.05119
480 6.51431
485 6.05265
490 5.81736
495 5.14989
500 4.45724
505 4.11944
510 3.90801
515 3.50723
520 3.04258
525 3.0488
530 2.64955
535 2.30463
540 2.23962
545 1.98739
550 1.70466
555 1.66528
560 1.59535
565 1.3348
570 1.3484
575 1.01374
580 0.845128
585 0.747016
590 0.683355
595 0.690251
600 0.366744
Ex : 383
200 0.284611
205 0.302474
210 0.270013
215 0.323869
220 0.332781
225 0.32911
230 0.28329
235 0.250143
240 0.282757
245 0.330952
250 0.231423
255 0.30905
260 0.246737
265 0.291425
270 0.375922
275 0.306401
280 0.324023
285 0.271348
290 0.403344
295 0.404009
300 0.372998
305 0.270928
310 0.366688
315 0.421921
320 0.36147
325 0.443542
330 0.418089
335 0.557507
340 0.528299
345 0.628043
350 0.754003
355 0.950559
360 1.23408
365 1.85929
370 42.9996
375 835.669
380 1399.02
385 372.442
390 51.2039
395 14.1518
400 9.09181
405 9.4349
410 11.4143
415 12.4127
420 12.5068
425 14.0143
430 13.8061
435 12.1532
440 11.7571
445 11.1237
450 9.77292
455 8.67543
460 8.28404
465 8.49411
470 7.70734
475 6.96117
480 6.58319
485 6.20328
490 5.94604
495 5.08372
500 4.83651
505 4.40411
510 3.96548
515 3.5038
520 3.14931
525 2.80234
530 2.65765
535 2.4997
540 2.16788
545 1.91701
550 1.92404
555 1.60743
560 1.49682
565 1.40052
570 1.18155
575 0.965464
580 0.843336
585 0.755172
590 0.658685
595 0.626898
600 0.257545
Ex : 388
200 0.216604
205 0.26113
210 0.242376
215 0.206093
220 0.285193
225 0.266261
230 0.314819
235 0.279214
240 0.300554
245 0.275011
250 0.334306
255 0.270361
260 0.369998
265 0.269543
270 0.301839
275 0.272676
280 0.365384
285 0.304164
290 0.317317
295 0.314606
300 0.381186
305 0.354326
310 0.359354
315 0.370771
320 0.426113
325 0.3773
330 0.424979
335 0.503447
340 0.582214
345 0.524959
350 0.600804
355 0.783164
360 0.972776
365 1.1987
370 1.92962
375 47.0725
380 854.025
385 1393.75
390 372.547
395 53.0366
400 15.0829
405 11.7448
410 13.4868
415 14.8332
420 14.2937
425 13.2222
430 13.794
435 15.6875
440 14.2325
445 13.0436
450 11.5755
455 10.0484
460 9.13566
465 8.7143
470 8.46834
475 7.96608
480 7.22524
485 6.4557
490 6.24153
495 5.29198
500 5.0687
505 4.4871
510 4.15317
515 3.74063
520 3.40914
525 3.03079
530 2.76453
535 2.36914
540 2.19502
545 2.02643
550 1.85378
555 1.61415
560 1.43536
565 1.39501
570 1.21873
575 0.984147
580 0.855597
585 0.761515
590 0.72217
595 0.651939
600 0.752068
Ex : 393
200 0.30621
205 0.269101
210 0.30066
215 0.237673
220 0.311081
225 0.221491
230 0.297588
235 0.275266
240 0.254015
245 0.305211
250 0.287283
255 0.286056
260 0.272859
265 0.358261
270 0.312049
275 0.32998
280 0.303692
285 0.252519
290 0.2487
295 0.266897
300 0.359832
305 0.350744
310 0.29699
315 0.325853
320 0.351957
325 0.400731
330 0.393616
335 0.474038
340 0.540676
345 0.494959
350 0.469422
355 0.60562
360 0.736297
365 0.999288
370 1.2961
375 2.03587
380 41.7383
385 842.612
390 1412.79
395 379.671
400 53.8931
405 14.9683
410 12.5488
415 15.6777
420 15.1018
425 12.2388
430 11.3256
435 12.3371
440 14.7246
445 13.8606
450 11.5242
455 10.0969
460 8.6493
465 7.93719
470 7.40335
475 7.33196
480 6.83132
485 6.13056
490 5.58554
495 5.07889
500 4.52249
505 4.2131
510 3.92066
515 3.41933
520 3.10225
525 2.80169
530 2.60869
535 2.34194
540 2.26126
545 1.93242
550 1.77033
555 1.57685
560 1.36026
565 1.32711
570 1.08276
575 0.884116
580 0.817529
585 0.685527
590 0.628344
595 0.448435
600 0.306484
Ex : 398
200 0.291135
205 0.239693
210 0.266329
215 0.277096
220 0.260547
225 0.275773
230 0.273367
235 0.244802
240 0.286385
245 0.297062
250 0.27963
255 0.310226
260 0.234954
265 0.237591
270 0.285654
275 0.328622
280 0.297632
285 0.288049
290 0.326887
295 0.265664
300 0.346585
305 0.277537
310 0.284763
315 0.35843
320 0.30275
325 0.3323
330 0.319446
335 0.380196
340 0.376101
345 0.412355
350 0.406925
355 0.566477
360 0.56898
365 0.711857
370 0.819821
375 1.29009
380 2.03565
385 43.1657
390 851.404
395 1432.18
400 379.51
405 50.3601
410 13.1798
415 10.2914
420 10.2619
425 8.7389
430 7.63472
435 7.53784
440 8.98931
445 11.2812
450 10.3019
455 8.12681
460 6.95452
465 6.42547
470 6.20795
475 5.6167
480 5.39412
485 4.97739
490 4.63728
495 4.22129
500 4.1643
505 3.71893
510 3.2158
515 3.13428
520 3.1354
525 2.61685
530 2.40885
535 2.35556
540 2.12573
545 1.68659
550 1.60442
555 1.63511
560 1.32126
565 1.28781
570 0.99789
575 0.867738
580 0.745743
585 0.619503
590 0.610685
595 0.52859
600 0.723691
Ex : 403
200 0.248485
205 0.311902
210 0.29957
215 0.314507
220 0.234673
225 0.291534
230 0.258085
235 0.235475
240 0.286938
245 0.30313
250 0.250776
255 0.327131
260 0.277229
265 0.277511
270 0.278027
275 0.308306
280 0.292502
285 0.309792
290 0.276945
295 0.34892
300 0.329877
305 0.303544
310 0.304976
315 0.313492
320 0.31437
325 0.358515
330 0.300126
335 0.372542
340 0.36911
345 0.37261
350 0.371331
355 0.463911
360 0.484385
365 0.574496
370 0.725408
375 0.830542
380 1.22352
385 2.10958
390 47.6211
395 869.121
400 1413.02
405 376.512
410 48.5875
415 11.0783
420 7.10198
425 6.30567
430 5.58094
435 5.40594
440 5.93089
445 6.39355
450 8.37072
455 8.37535
460 6.98143
465 6.08183
470 5.59737
475 5.14665
480 4.81072
485 4.54212
490 4.27299
495 3.98073
500 3.71639
505 3.75679
510 3.19717
515 3.00223
520 2.84251
525 2.51441
530 2.34995
535 2.07375
540 1.87377
545 1.80543
550 1.62569
555 1.46801
560 1.32613
565 1.08335
570 1.04587
575 0.946879
580 0.825559
585 0.663679
590 0.558587
595 0.598281
600 0.86477
Ex : 408
200 0.229276
205 0.205531
210 0.346681
215 0.265346
220 0.261388
225 0.240096
230 0.216456
235 0.242425
240 0.257063
245 0.270146
250 0.201525
255 0.262545
260 0.295344
265 0.317628
270 0.27844
275 0.275388
280 0.240872
285 0.328403
290 0.297571
295 0.315656
300 0.270841
305 0.310956
310 0.282064
315 0.321617
320 0.298676
325 0.374825
330 0.34468
335 0.377626
340 0.404933
345 0.347411
350 0.436761
355 0.404642
360 0.444418
365 0.475931
370 0.591002
375 0.816036
380 0.893244
385 1.28139
390 2.0405
395 45.4197
400 877.637
405 1422.1
410 369.27
415 48.3036
420 10.8314
425 6.34734
430 5.88794
435 5.40237
440 5.92245
445 5.98423
450 6.1114
455 7.26151
460 7.99127
465 6.81886
470 5.89255
475 5.60343
480 5.01484
485 4.70854
490 4.2024
495 4.0441
500 3.72496
505 3.47053
510 3.28651
515 3.06471
520 2.65317
525 2.39347
530 2.20989
535 2.13991
540 1.97449
545 1.77051
550 1.66588
555 1.43716
560 1.27617
565 1.24054
570 1.06717
575 0.918456
580 0.706384
585 0.625983
590 0.532388
595 0.503793
600 0.524222
Ex : 413
200 0.263199
205 0.262245
210 0.244008
215 0.238156
220 0.264642
225 0.283125
230 0.239802
235 0.252105
240 0.292494
245 0.254256
250 0.263199
255 0.27247
260 0.257696
265 0.211398
270 0.24363
275 0.27977
280 0.237211
285 0.267498
290 0.197079
295 0.2584
300 0.257235
305 0.282726
310 0.266162
315 0.24359
320 0.285638
325 0.365016
330 0.333212
335 0.366134
340 0.347995
345 0.416513
350 0.341675
355 0.393222
360 0.403923
365 0.532857
370 0.571081
375 0.564588
380 0.71059
385 0.863731
390 1.26616
395 2.13064
400 49.5747
405 897.147
410 1421.08
415 359.67
420 46.828
425 10.0332
430 5.64412
435 5.23395
440 5.5414
445 5.38409
450 5.33416
455 5.07145
460 5.80774
465 7.6144
470 6.95014
475 5.69896
480 5.26849
485 4.52695
490 4.02105
495 3.76077
500 3.52234
505 3.43529
510 3.03547
515 2.85122
520 2.69883
525 2.47505
530 2.17341
535 2.09721
540 1.9528
545 1.67654
550 1.56136
555 1.37961
560 1.35367
565 1.22468
570 0.952608
575 0.948572
580 0.76437
585 0.620826
590 0.62971
595 0.475162
600 0.396269
Ex : 418
200 0.304191
205 0.207938
210 0.224789
215 0.201214
220 0.222763
225 0.203009
230 0.269601
235 0.287749
240 0.328822
245 0.301272
250 0.292517
255 0.241748
260 0.246636
265 0.320954
270 0.255542
275 0.246226
280 0.250948
285 0.244473
290 0.323431
295 0.301163
300 0.306949
305 0.269392
310 0.221315
315 0.270931
320 0.275185
325 0.302508
330 0.307433
335 0.375581
340 0.318336
345 0.328394
350 0.379842
355 0.407629
360 0.40237
365 0.466189
370 0.466851
375 0.484872
380 0.702347
385 0.747052
390 0.996034
395 1.27882
400 2.18903
405 48.2195
410 884.566
415 1417
420 369.858
425 46.5155
430 8.64725
435 4.29984
440 4.4577
445 4.30488
450 3.85754
455 3.37888
460 3.47261
465 4.22798
470 6.00023
475 6.10729
480 4.5404
485 4.07956
490 3.61605
495 3.237
500 3.0056
505 2.97984
510 2.72197
515 2.58209
520 2.4122
525 2.26738
530 1.9521
535 1.88113
540 1.74036
545 1.57062
550 1.42935
555 1.24602
560 1.19471
565 1.03524
570 1.0045
575 0.884466
580 0.802914
585 0.632274
590 0.557676
595 0.580245
600 0.208403
Ex : 423
200 0.329186
205 0.256873
210 0.256381
215 0.288414
220 0.255001
225 0.249822
230 0.177326
235 0.186557
240 0.174495
245 0.269186
250 0.275323
255 0.23873
260 0.328449
265 0.248815
270 0.268156
275 0.208269
280 0.30053
285 0.258031
290 0.330583
295 0.280312
300 0.251919
305 0.267904
310 0.316466
315 0.354119
320 0.309128
325 0.333703
330 0.268907
335 0.396149
340 0.416944
345 0.358386
350 0.373739
355 0.344857
360 0.40438
365 0.45173
370 0.431177
375 0.547185
380 0.521342
385 0.625559
390 0.719077
395 0.883774
400 1.13432
405 2.01193
410 48.7004
415 914.474
420 1409.12
425 350.449
430 43.2422
435 7.4171
440 3.33456
445 2.97308
450 2.86852
455 2.56726
460 2.61266
465 2.58173
470 3.12222
475 4.67418
480 5.35138
485 4.00659
490 3.54352
495 3.1787
500 2.77001
505 2.57365
510 2.55282
515 2.41658
520 2.21281
525 2.02575
530 1.9393
535 1.7072
540 1.70991
545 1.43804
550 1.28425
555 1.28112
560 1.24217
565 1.07892
570 0.954969
575 0.792636
580 0.724051
585 0.69129
590 0.558951
595 0.512973
600 0.594151
Ex : 428
200 0.242914
205 0.227811
210 0.274323
215 0.323883
220 0.28316
225 0.254651
230 0.217244
235 0.242165
240 0.236404
245 0.228694
250 0.289202
255 0.283451
260 0.29282
265 0.250095
270 0.247249
275 0.34429
280 0.221404
285 0.259434
290 0.2465
295 0.257108
300 0.272055
305 0.281257
310 0.280017
315 0.272969
320 0.329049
325 0.294582
330 0.250281
335 0.349555
340 0.425112
345 0.375731
350 0.36786
355 0.32804
360 0.430114
365 0.397273
370 0.363408
375 0.422513
380 0.496438
385 0.577083
390 0.694116
395 0.709975
400 0.955162
405 1.29018
410 2.05673
415 53.5619
420 911.221
425 1404.94
430 358.699
435 44.2457
440 7.25085
445 2.72548
450 2.64603
455 2.54916
460 2.17754
465 2.28786
470 2.04602
475 2.35741
480 3.82768
485 5.25442
490 3.96033
495 3.18023
500 3.00783
505 2.63613
510 2.35778
515 2.04693
520 1.88336
525 1.94754
530 1.93851
535 1.88593
540 1.56048
545 1.41302
550 1.35755
555 1.23874
560 1.19599
565 0.952045
570 0.848009
575 0.818608
580 0.773762
585 0.686569
590 0.585289
595 0.512201
600 0.350734
Ex : 433
200 0.213811
205 0.220039
210 0.302118
215 0.206087
220 0.199799
225 0.25634
230 0.210473
235 0.201047
240 0.256833
245 0.284242
250 0.263674
255 0.241977
260 0.249268
265 0.387222
270 0.264386
275 0.260342
280 0.263921
285 0.234064
290 0.256876
295 0.271292
300 0.234467
305 0.262236
310 0.290929
315 0.292307
320 0.305568
325 0.265549
330 0.331116
335 0.349086
340 0.378693
345 0.384175
350 0.315768
355 0.388303
360 0.449369
365 0.364204
370 0.441289
375 0.502605
380 0.479372
385 0.494883
390 0.665217
395 0.662763
400 0.695153
405 0.954146
410 1.32302
415 2.1347
420 58.9028
425 970.035
430 1420.01
435 349.603
440 42.6974
445 7.19204
450 2.76017
455 2.38152
460 2.42603
465 2.32734
470 1.99166
475 2.07621
480 2.11488
485 3.13002
490 4.9877
495 4.19816
500 3.07213
505 2.55488
510 2.23459
515 2.05108
520 1.93107
525 1.98547
530 1.81616
535 1.64698
540 1.50284
545 1.47427
550 1.40275
555 1.33389
560 1.23044
565 1.05424
570 0.895587
575 0.843733
580 0.702203
585 0.621143
590 0.581663
595 0.499133
600 0.120316
Ex : 438
200 0.202104
205 0.281672
210 0.269798
215 0.242021
220 0.282521
225 0.251576
230 0.293127
235 0.235523
240 0.26801
245 0.25022
250 0.323395
255 0.213524
260 0.235473
265 0.211667
270 0.272408
275 0.245967
280 0.271041
285 0.271463
290 0.284626
295 0.32019
300 0.307364
305 0.273504
310 0.276195
315 0.296461
320 0.288505
325 0.232766
330 0.331535
335 0.345338
340 0.298738
345 0.409628
350 0.353455
355 0.310636
360 0.307744
365 0.359913
370 0.381203
375 0.429403
380 0.475871
385 0.437362
390 0.494883
395 0.547555
400 0.612931
405 0.824501
410 1.04785
415 1.36165
420 1.91879
425 55.1551
430 949.278
435 1481.36
440 367.104
445 45.0986
450 7.53204
455 2.7833
460 2.50412
465 2.48146
470 2.19523
475 2.03837
480 2.05334
485 1.9257
490 2.36476
495 3.92689
500 4.49358
505 3.13564
510 2.70727
515 2.49143
520 2.08655
525 1.79527
530 1.68936
535 1.62761
540 1.56087
545 1.29423
550 1.24568
555 1.25082
560 1.02818
565 1.02369
570 0.943495
575 0.826479
580 0.802493
585 0.636788
590 0.546759
595 0.395102
600 0.50888
Ex : 443
200 0.222773
205 0.25705
210 0.262715
215 0.288602
220 0.274143
225 0.211426
230 0.25078
235 0.292114
240 0.274801
245 0.246627
250 0.249925
255 0.333985
260 0.26185
265 0.306873
270 0.242072
275 0.267411
280 0.30164
285 0.298268
290 0.3158
295 0.291919
300 0.283434
305 0.317364
310 0.235906
315 0.213576
320 0.296332
325 0.283247
330 0.338871
335 0.354965
340 0.335089
345 0.294111
350 0.346588
355 0.340529
360 0.351882
365 0.354163
370 0.326252
375 0.376452
380 0.452341
385 0.507993
390 0.47496
395 0.455645
400 0.579129
405 0.651133
410 0.79194
415 0.969783
420 1.35559
425 2.03633
430 61.4497
435 1008.1
440 1495.97
445 365.273
450 44.7061
455 7.5134
460 2.99646
465 2.48839
470 2.31401
475 2.08689
480 1.92637
485 1.79956
490 2.0968
495 2.17272
500 3.30192
505 4.35915
510 3.0812
515 2.34237
520 2.17628
525 1.85349
530 1.77943
535 1.68565
540 1.51177
545 1.53366
550 1.36744
555 1.2941
560 1.17751
565 1.03241
570 0.916963
575 0.860673
580 0.73983
585 0.584053
590 0.517953
595 0.500694
600 0.846063
Ex : 448
200 0.265926
205 0.273089
210 0.259091
215 0.279529
220 0.269603
225 0.269432
230 0.27479
235 0.325047
240 0.334834
245 0.280007
250 0.314197
255 0.277427
260 0.246427
265 0.249248
270 0.215972
275 0.255025
280 0.369941
285 0.3133
290 0.310793
295 0.325504
300 0.232865
305 0.30473
310 0.285811
315 0.333526
320 0.34103
325 0.334862
330 0.300073
335 0.367926
340 0.302517
345 0.286436
350 0.378912
355 0.328095
360 0.367754
365 0.401305
370 0.368376
375 0.365738
380 0.394469
385 0.436874
390 0.473443
395 0.514635
400 0.588978
405 0.595108
410 0.720671
415 0.808708
420 0.904508
425 1.36011
430 1.91139
435 64.4122
440 1068.82
445 1557.5
450 381.83
455 46.665
460 7.64978
465 2.90849
470 2.37395
475 2.30736
480 2.24361
485 1.99274
490 1.84119
495 1.87973
500 1.74241
505 2.81414
510 4.0589
515 3.40819
520 2.42622
525 2.17922
530 1.90486
535 1.74956
540 1.65369
545 1.523
550 1.31524
555 1.26886
560 1.08772
565 1.02783
570 0.925903
575 0.766369
580 0.771366
585 0.613771
590 0.533587
595 0.506111
600 0.526404
Ex : 453
200 0.279416
205 0.22321
210 0.195394
215 0.212644
220 0.237088
225 0.259737
230 0.243499
235 0.214297
240 0.32095
245 0.247972
250 0.260189
255 0.279484
260 0.253509
265 0.314835
270 0.266585
275 0.295709
280 0.340335
285 0.238417
290 0.322097
295 0.292173
300 0.224293
305 0.29931
310 0.274214
315 0.238883
320 0.352598
325 0.264138
330 0.328278
335 0.323647
340 0.291221
345 0.362397
350 0.345663
355 0.312956
360 0.319883
365 0.304362
370 0.354352
375 0.347252
380 0.372151
385 0.503373
390 0.428264
395 0.409733
400 0.442694
405 0.502167
410 0.522295
415 0.670579
420 0.773347
425 0.861689
430 1.38017
435 1.96637
440 66.3596
445 1125.37
450 1599.48
455 369.04
460 45.1418
465 7.58709
470 2.8668
475 2.31963
480 2.29104
485 2.13398
490 1.91062
495 1.75146
500 1.62079
505 1.79233
510 2.38556
515 3.35659
520 3.55563
525 2.44048
530 2.17393
535 1.94009
540 1.6374
545 1.33509
550 1.313
555 1.21911
560 1.12524
565 1.0945
570 0.953368
575 0.914805
580 0.73471
585 0.580649
590 0.520271
595 0.481017
600 0.551354
Ex : 458
200 0.287455
205 0.234835
210 0.246287
215 0.260777
220 0.235498
225 0.28639
230 0.229024
235 0.270859
240 0.196635
245 0.287939
250 0.287827
255 0.249958
260 0.260948
265 0.226243
270 0.258747
275 0.294031
280 0.251028
285 0.263081
290 0.282762
295 0.260099
300 0.249229
305 0.225768
310 0.274198
315 0.268637
320 0.319875
325 0.295734
330 0.358367
335 0.299991
340 0.320748
345 0.272538
350 0.356043
355 0.41229
360 0.330126
365 0.359525
370 0.427261
375 0.352921
380 0.396178
385 0.421726
390 0.443588
395 0.415428
400 0.513252
405 0.486772
410 0.564584
415 0.549938
420 0.63325
425 0.821872
430 1.00424
435 1.40653
440 2.05588
445 71.0943
450 1150.93
455 1673.35
460 398.2
465 48.7987
470 8.13092
475 2.96812
480 2.23951
485 2.34824
490 2.05998
495 1.86545
500 1.65317
505 1.54594
510 1.74174
515 1.96833
520 2.97031
525 3.65425
530 2.59345
535 2.12825
540 1.96109
545 1.68892
550 1.4457
555 1.26438
560 1.19776
565 1.08609
570 0.966862
575 0.940632
580 0.757558
585 0.592265
590 0.623443
595 0.608437
600 0.584955
Ex : 463
200 0.310619
205 0.238677
210 0.238222
215 0.226266
220 0.32907
225 0.238189
230 0.258087
235 0.275109
240 0.250699
245 0.201631
250 0.250791
255 0.259879
260 0.224745
265 0.217455
270 0.201045
275 0.288886
280 0.263707
285 0.275824
290 0.262861
295 0.262724
300 0.262694
305 0.223736
310 0.281228
315 0.282566
320 0.243565
325 0.251875
330 0.281124
335 0.253859
340 0.290353
345 0.341167
350 0.33314
355 0.319545
360 0.355206
365 0.347969
370 0.350795
375 0.349984
380 0.363328
385 0.415286
390 0.413443
395 0.418378
400 0.477553
405 0.457462
410 0.531011
415 0.569847
420 0.536555
425 0.662184
430 0.679767
435 0.940866
440 1.32599
445 2.126
450 69.2025
455 1193.35
460 1790.97
465 423.68
470 51.6395
475 8.1664
480 2.86048
485 2.09171
490 2.10949
495 2.01876
500 1.78123
505 1.52392
510 1.59093
515 1.65876
520 1.73458
525 2.38784
530 3.34293
535 2.87307
540 1.98904
545 1.89571
550 1.5912
555 1.3643
560 1.18826
565 1.04069
570 0.977778
575 0.885167
580 0.847163
585 0.740637
590 0.639907
595 0.521358
600 0.344479
Ex : 468
200 0.226003
205 0.221455
210 0.219162
215 0.213944
220 0.244982
225 0.212536
230 0.232524
235 0.208342
240 0.24678
245 0.172936
250 0.228975
255 0.283141
260 0.201951
265 0.251743
270 0.255125
275 0.192624
280 0.238129
285 0.264073
290 0.272938
295 0.317209
300 0.305577
305 0.249667
310 0.298917
315 0.275387
320 0.292339
325 0.229796
330 0.309865
335 0.253062
340 0.223511
345 0.268028
350 0.275729
355 0.30532
360 0.301556
365 0.335469
370 0.31742
375 0.327452
380 0.334539
385 0.374454
390 0.388623
395 0.374978
400 0.357349
405 0.456355
410 0.424862
415 0.43656
420 0.530682
425 0.530697
430 0.617273
435 0.661863
440 0.900377
445 1.35051
450 2.13568
455 75.1095
460 1208.03
465 1877.37
470 442.535
475 53.2112
480 8.28911
485 2.70383
490 1.8756
495 1.94914
500 1.93587
505 1.72172
510 1.59428
515 1.5107
520 1.64473
525 1.71067
530 1.93988
535 2.95454
540 3.12037
545 2.15899
550 1.79022
555 1.68939
560 1.38707
565 1.21139
570 1.03233
575 0.845422
580 0.768942
585 0.663055
590 0.629413
595 0.464569
600 0.779752
Ex : 473
200 0.233816
205 0.192314
210 0.253708
215 0.277199
220 0.223812
225 0.241731
230 0.20131
235 0.29534
240 0.261667
245 0.243083
250 0.225678
255 0.259754
260 0.242685
265 0.365553
270 0.29734
275 0.228748
280 0.267238
285 0.218845
290 0.283151
295 0.309088
300 0.301786
305 0.289837
310 0.260324
315 0.312169
320 0.247924
325 0.303472
330 0.327473
335 0.276378
340 0.30864
345 0.306581
350 0.298096
355 0.313012
360 0.322626
365 0.296039
370 0.284054
375 0.396786
380 0.386648
385 0.329571
390 0.392062
395 0.43533
400 0.382742
405 0.383978
410 0.473455
415 0.470881
420 0.450148
425 0.517902
430 0.583101
435 0.571166
440 0.795801
445 1.01519
450 1.3807
455 2.34638
460 87.7039
465 1328.03
470 1832.35
475 415.255
480 50.2645
485 7.81622
490 2.65881
495 1.88647
500 1.85913
505 1.78718
510 1.66254
515 1.49361
520 1.61614
525 1.4964
530 1.67859
535 1.83615
540 2.59036
545 3.30737
550 2.3882
555 1.68868
560 1.61276
565 1.35107
570 1.15914
575 0.905097
580 0.710214
585 0.702593
590 0.687019
595 0.547117
600 0.460256
Ex : 478
200 0.388836
205 0.290073
210 0.23207
215 0.231377
220 0.261209
225 0.272749
230 0.349751
235 0.262338
240 0.311177
245 0.286947
250 0.258106
255 0.323665
260 0.300748
265 0.34665
270 0.281294
275 0.33359
280 0.300503
285 0.305212
290 0.31062
295 0.304469
300 0.258873
305 0.31583
310 0.301236
315 0.302034
320 0.242497
325 0.31967
330 0.334503
335 0.394829
340 0.34655
345 0.34214
350 0.331424
355 0.336648
360 0.304077
365 0.360241
370 0.379618
375 0.440342
380 0.390493
385 0.41551
390 0.422547
395 0.54457
400 0.49883
405 0.523522
410 0.530704
415 0.478114
420 0.527039
425 0.609264
430 0.662467
435 0.678358
440 0.645751
445 0.860936
450 1.14552
455 1.63021
460 2.69933
465 96.0076
470 1360.85
475 1856.49
480 441.869
485 53.5234
490 8.5447
495 2.88161
500 2.0226
505 1.82122
510 1.99484
515 1.8725
520 1.72513
525 1.68992
530 1.72434
535 1.59397
540 1.53532
545 2.15897
550 3.10506
555 2.51191
560 1.71641
565 1.43893
570 1.24518
575 1.09952
580 0.884317
585 0.738834
590 0.650973
595 0.621232
600 0.351056
Ex : 483
200 0.256933
205 0.244855
210 0.238773
215 0.276597
220 0.250466
225 0.318364
230 0.275928
235 0.320794
240 0.245537
245 0.258288
250 0.258473
255 0.313072
260 0.307102
265 0.370078
270 0.3209
275 0.290574
280 0.308632
285 0.286256
290 0.301528
295 0.414103
300 0.218244
305 0.371998
310 0.275523
315 0.250187
320 0.270587
325 0.358223
330 0.319277
335 0.295332
340 0.33292
345 0.35921
350 0.320557
355 0.362383
360 0.439552
365 0.38173
370 0.29417
375 0.356149
380 0.377987
385 0.394049
390 0.410047
395 0.393644
400 0.372474
405 0.464076
410 0.490646
415 0.43738
420 0.455882
425 0.527921
430 0.613261
435 0.552087
440 0.674109
445 0.80374
450 0.828782
455 1.19331
460 1.74783
465 2.73671
470 75.043
475 1344.99
480 2000.78
485 471.109
490 56.6726
495 8.72472
500 2.57864
505 1.83419
510 1.70447
515 1.90959
520 1.98833
525 1.71787
530 1.62341
535 1.53722
540 1.55203
545 1.45646
550 1.71097
555 2.55148
560 2.63206
565 1.81703
570 1.28154
575 1.27894
580 0.995945
585 0.813623
590 0.747771
595 0.660216
600 0.348177
Ex : 488
200 0.303048
205 0.306445
210 0.251653
215 0.273359
220 0.295328
225 0.321871
230 0.301212
235 0.334497
240 0.322535
245 0.337242
250 0.387692
255 0.29363
260 0.336685
265 0.341958
270 0.307406
275 0.333263
280 0.293459
285 0.317499
290 0.385551
295 0.416234
300 0.333625
305 0.369264
310 0.325462
315 0.344937
320 0.396388
325 0.331909
330 0.410594
335 0.411877
340 0.421937
345 0.403436
350 0.330712
355 0.34856
360 0.378205
365 0.356118
370 0.331211
375 0.359215
380 0.383858
385 0.406165
390 0.43488
395 0.434193
400 0.513147
405 0.502134
410 0.48242
415 0.539325
420 0.545124
425 0.539068
430 0.488445
435 0.535303
440 0.617743
445 0.636561
450 0.852017
455 0.9969
460 1.25788
465 1.98348
470 2.78633
475 91.686
480 1447.01
485 1970.68
490 455.529
495 55.0626
500 8.54157
505 2.77101
510 1.81553
515 1.70842
520 1.92335
525 1.93382
530 1.79909
535 1.57779
540 1.5333
545 1.43235
550 1.44219
555 1.35338
560 2.07639
565 2.57407
570 1.78516
575 1.15738
580 1.04692
585 0.797252
590 0.861548
595 0.61649
600 0.601173
Ex : 493
200 0.315178
205 0.275562
210 0.398057
215 0.310972
220 0.284595
225 0.366361
230 0.313832
235 0.324465
240 0.354059
245 0.368944
250 0.292037
255 0.341252
260 0.382629
265 0.339169
270 0.329228
275 0.307345
280 0.306859
285 0.359849
290 0.313536
295 0.372636
300 0.343704
305 0.377464
310 0.365633
315 0.385712
320 0.375543
325 0.469018
330 0.336486
335 0.347187
340 0.391155
345 0.360217
350 0.415757
355 0.363396
360 0.470871
365 0.392379
370 0.432544
375 0.451849
380 0.385986
385 0.485164
390 0.497804
395 0.434157
400 0.398249
405 0.451549
410 0.393837
415 0.444455
420 0.466644
425 0.479615
430 0.575619
435 0.577293
440 0.610835
445 0.655159
450 0.75514
455 0.92348
460 1.04415
465 1.43354
470 1.91744
475 2.6854
480 84.4207
485 1424.85
490 2075.2
495 467.746
500 56.0141
505 8.51869
510 2.94015
515 1.84463
520 1.61275
525 1.84604
530 1.93256
535 1.75134
540 1.59046
545 1.49558
550 1.44045
555 1.35141
560 1.41453
565 1.53462
570 2.20435
575 1.88174
580 1.20429
585 1.06372
590 0.916877
595 0.717143
600 0.756981
Ex : 498
200 0.226397
205 0.317252
210 0.370976
215 0.334511
220 0.372303
225 0.34433
230 0.37705
235 0.366063
240 0.29234
245 0.368906
250 0.364365
255 0.417969
260 0.423854
265 0.352236
270 0.292171
275 0.354123
280 0.389813
285 0.379669
290 0.428103
295 0.353632
300 0.33825
305 0.342478
310 0.429556
315 0.297197
320 0.327715
325 0.361525
330 0.430464
335 0.457044
340 0.419005
345 0.462995
350 0.473383
355 0.353446
360 0.471169
365 0.416512
370 0.446608
375 0.447336
380 0.385112
385 0.373289
390 0.467996
395 0.448477
400 0.489574
405 0.579531
410 0.481551
415 0.499171
420 0.566144
425 0.595077
430 0.69828
435 0.53163
440 0.55187
445 0.704726
450 0.719774
455 0.647635
460 0.874601
465 1.07907
470 1.46941
475 1.80905
480 2.71734
485 100.393
490 1500.96
495 1999.56
500 454.063
505 54.8364
510 8.46673
515 3.16832
520 2.21761
525 2.08205
530 2.10774
535 2.03974
540 1.77989
545 1.65363
550 1.33146
555 1.36831
560 1.41333
565 1.17597
570 1.26701
575 1.75354
580 1.69693
585 1.32055
590 1.0074
595 0.813576
600 0.939399
Ex : 503
200 0.39325
205 0.348749
210 0.403185
215 0.372942
220 0.309728
225 0.348999
230 0.320333
235 0.345512
240 0.342637
245 0.3223
250 0.294356
255 0.342125
260 0.313899
265 0.279707
270 0.386972
275 0.346044
280 0.367569
285 0.312487
290 0.390757
295 0.308191
300 0.365868
305 0.384436
310 0.341807
315 0.408365
320 0.341905
325 0.361027
330 0.438505
335 0.396571
340 0.483967
345 0.38849
350 0.423725
355 0.42005
360 0.390336
365 0.475987
370 0.456558
375 0.442273
380 0.472574
385 0.430675
390 0.520155
395 0.52025
400 0.471721
405 0.431651
410 0.477633
415 0.558333
420 0.498534
425 0.513537
430 0.602514
435 0.587566
440 0.583175
445 0.630475
450 0.711418
455 0.791579
460 0.925109
465 1.1195
470 1.13977
475 1.44031
480 1.85863
485 2.90777
490 93.2605
495 1494.82
500 2059.19
505 466.457
510 56.2471
515 8.69949
520 2.94063
525 2.06585
530 1.83449
535 1.93473
540 1.78065
545 1.61569
550 1.51784
555 1.49727
560 1.27361
565 1.20087
570 1.17245
575 0.970513
580 1.24104
585 1.66321
590 1.19579
595 0.778123
600 0.652875
Ex : 508
200 0.359004
205 0.468086
210 0.418345
215 0.400449
220 0.438414
225 0.320296
230 0.355003
235 0.382653
240 0.362029
245 0.371252
250 0.390761
255 0.359061
260 0.397257
265 0.37862
270 0.370283
275 0.36788
280 0.379445
285 0.385953
290 0.381472
295 0.49531
300 0.376112
305 0.423501
310 0.444858
315 0.405001
320 0.453226
325 0.363463
330 0.365413
335 0.38531
340 0.414102
345 0.439818
350 0.497097
355 0.40042
360 0.428487
365 0.388314
370 0.461651
375 0.359166
380 0.513118
385 0.522672
390 0.459202
395 0.461064
400 0.49531
405 0.621701
410 0.539841
415 0.501167
420 0.501595
425 0.515763
430 0.470782
435 0.543798
440 0.590652
445 0.572992
450 0.633752
455 0.703727
460 0.736498
465 0.810614
470 0.902619
475 1.05722
480 1.23027
485 1.92062
490 3.0814
495 98.9365
500 1499.77
505 2049.23
510 488.26
515 59.0313
520 9.13449
525 3.07204
530 2.07769
535 1.99544
540 1.81626
545 1.66419
550 1.56943
555 1.42363
560 1.28377
565 1.10212
570 1.04899
575 1.00475
580 0.970114
585 1.02363
590 1.18499
595 1.25504
600 1.80338
Ex : 513
200 0.371149
205 0.454995
210 0.335362
215 0.488212
220 0.524125
225 0.483183
230 0.493288
235 0.426332
240 0.391851
245 0.404039
250 0.366303
255 0.448387
260 0.437211
265 0.447514
270 0.396046
275 0.396688
280 0.375346
285 0.515733
290 0.415057
295 0.405272
300 0.357755
305 0.408307
310 0.458152
315 0.351347
320 0.390234
325 0.380509
330 0.408549
335 0.474428
340 0.466258
345 0.469082
350 0.576122
355 0.487023
360 0.458378
365 0.484433
370 0.456908
375 0.533766
380 0.488171
385 0.539528
390 0.473821
395 0.515332
400 0.552831
405 0.52106
410 0.598323
415 0.518683
420 0.533164
425 0.589307
430 0.494297
435 0.530183
440 0.689016
445 0.574664
450 0.62864
455 0.598393
460 0.799884
465 0.82844
470 0.835266
475 0.987585
480 1.06858
485 1.41919
490 1.90337
495 2.82125
500 92.9063
505 1471.44
510 2077.64
515 497.969
520 60.0902
525 9.29241
530 3.26974
535 2.30336
540 1.87941
545 1.72231
550 1.80632
555 1.5033
560 1.38541
565 1.16741
570 1.05632
575 0.920579
580 0.868568
585 0.826801
590 0.925867
595 1.05149
600 0.697031
Ex : 518
200 0.319264
205 0.329675
210 0.361524
215 0.395424
220 0.414532
225 0.315702
230 0.373696
235 0.434544
240 0.356267
245 0.402458
250 0.345918
255 0.336085
260 0.354416
265 0.330599
270 0.408129
275 0.444873
280 0.384174
285 0.378294
290 0.451955
295 0.342952
300 0.400628
305 0.424287
310 0.360464
315 0.39029
320 0.395983
325 0.37183
330 0.319537
335 0.357734
340 0.504863
345 0.483575
350 0.439453
355 0.447234
360 0.479255
365 0.467031
370 0.41661
375 0.539512
380 0.448819
385 0.519494
390 0.51219
395 0.573405
400 0.437602
405 0.455259
410 0.537729
415 0.557095
420 0.552511
425 0.510205
430 0.644097
435 0.592404
440 0.579549
445 0.641977
450 0.633417
455 0.666161
460 0.728387
465 0.752479
470 0.810975
475 0.778924
480 0.847185
485 1.17566
490 1.47932
495 1.88693
500 2.81183
505 93.0643
510 1430.26
515 2063.29
520 499.439
525 60.3863
530 9.34653
535 3.08776
540 1.84262
545 1.54602
550 1.75972
555 1.56443
560 1.46017
565 1.37665
570 1.26074
575 1.10813
580 0.814708
585 0.746184
590 0.724091
595 0.777711
600 0.364004
Ex : 523
200 0.428608
205 0.364811
210 0.387004
215 0.401402
220 0.404398
225 0.398975
230 0.450533
235 0.538431
240 0.401079
245 0.477748
250 0.380174
255 0.365166
260 0.365664
265 0.393518
270 0.382746
275 0.373429
280 0.472297
285 0.374938
290 0.401892
295 0.402908
300 0.444994
305 0.375829
310 0.444844
315 0.41291
320 0.41076
325 0.478108
330 0.511773
335 0.390479
340 0.486455
345 0.48998
350 0.426992
355 0.52048
360 0.436199
365 0.5067
370 0.538033
375 0.449987
380 0.518377
385 0.473813
390 0.51228
395 0.562884
400 0.530125
405 0.515955
410 0.431493
415 0.413695
420 0.589774
425 0.604936
430 0.56617
435 0.660957
440 0.57645
445 0.621183
450 0.560078
455 0.600677
460 0.67259
465 0.637405
470 0.792099
475 0.858561
480 0.831688
485 0.966557
490 1.2049
495 1.50735
500 1.92419
505 2.62875
510 83.4952
515 1381.26
520 2034.51
525 509.511
530 61.4614
535 9.36381
540 2.88298
545 1.93339
550 1.59908
555 1.59065
560 1.3368
565 1.28286
570 1.1911
575 1.06661
580 0.924586
585 0.895934
590 0.779392
595 0.717692
600 0.720118
Ex : 528
200 0.466596
205 0.588512
210 0.484285
215 0.419143
220 0.374656
225 0.31051
230 0.545279
235 0.451159
240 0.41376
245 0.396198
250 0.326277
255 0.377057
260 0.405706
265 0.459408
270 0.376871
275 0.346397
280 0.384844
285 0.537957
290 0.493782
295 0.351631
300 0.383232
305 0.460891
310 0.391567
315 0.489418
320 0.385329
325 0.481167
330 0.454062
335 0.486919
340 0.455497
345 0.519137
350 0.403534
355 0.435249
360 0.524542
365 0.494368
370 0.431548
375 0.428018
380 0.405461
385 0.575021
390 0.557351
395 0.454189
400 0.698938
405 0.468913
410 0.41842
415 0.565434
420 0.575706
425 0.527404
430 0.501814
435 0.5368
440 0.534363
445 0.555461
450 0.625278
455 0.620638
460 0.749959
465 0.685527
470 0.789668
475 0.721856
480 0.79275
485 0.831458
490 1.14564
495 1.24472
500 1.41637
505 1.85641
510 2.77621
515 77.6469
520 1350.17
525 2007.99
530 498.502
535 60.198
540 8.96492
545 2.72831
550 1.85448
555 1.47122
560 1.19412
565 1.24503
570 1.23705
575 1.06677
580 0.944089
585 0.75499
590 0.810028
595 0.750196
600 0.411609
Ex : 533
200 0.37539
205 0.443565
210 0.429394
215 0.351911
220 0.367878
225 0.394841
230 0.405338
235 0.396601
240 0.372267
245 0.529193
250 0.343271
255 0.410256
260 0.462938
265 0.432084
270 0.373796
275 0.458436
280 0.469782
285 0.350317
290 0.39231
295 0.453726
300 0.45172
305 0.486187
310 0.500244
315 0.443307
320 0.484813
325 0.518105
330 0.405989
335 0.495899
340 0.445992
345 0.497794
350 0.548808
355 0.463233
360 0.53645
365 0.498396
370 0.590059
375 0.51274
380 0.482063
385 0.513322
390 0.548113
395 0.487722
400 0.500419
405 0.51252
410 0.582154
415 0.481246
420 0.539597
425 0.52942
430 0.514565
435 0.468718
440 0.595258
445 0.607156
450 0.648659
455 0.710064
460 0.700151
465 0.66874
470 0.828473
475 0.740346
480 0.687013
485 0.734945
490 0.733525
495 0.97065
500 1.20057
505 1.34078
510 1.892
515 2.59986
520 77.2131
525 1290.9
530 1963.83
535 501.767
540 60.1999
545 8.80545
550 2.7462
555 1.60791
560 1.44624
565 1.2288
570 1.14581
575 1.18629
580 1.11875
585 0.984179
590 0.797124
595 0.69376
600 0.281508
Ex : 538
200 0.39716
205 0.390302
210 0.383544
215 0.432478
220 0.489871
225 0.366769
230 0.480776
235 0.452308
240 0.443911
245 0.394675
250 0.39623
255 0.450405
260 0.529069
265 0.528299
270 0.420951
275 0.443588
280 0.562809
285 0.464319
290 0.447335
295 0.410102
300 0.407705
305 0.474509
310 0.31387
315 0.348178
320 0.459389
325 0.497012
330 0.445811
335 0.472864
340 0.428994
345 0.462697
350 0.418018
355 0.602055
360 0.545717
365 0.456974
370 0.544962
375 0.519616
380 0.504434
385 0.492021
390 0.512914
395 0.471722
400 0.476402
405 0.440959
410 0.483168
415 0.527289
420 0.619218
425 0.601085
430 0.563838
435 0.499006
440 0.595815
445 0.528412
450 0.630809
455 0.59415
460 0.694884
465 0.759715
470 0.697684
475 0.66381
480 0.826212
485 0.737449
490 0.926133
495 0.850929
500 0.987669
505 1.13433
510 1.42372
515 1.92915
520 2.61453
525 65.742
530 1228.83
535 1959.02
540 516.841
545 62.3325
550 9.07623
555 2.68507
560 1.70817
565 1.20534
570 0.982589
575 0.955531
580 0.955942
585 0.874299
590 0.703158
595 0.700711
600 0.872109
Ex : 543
200 0.542478
205 0.566623
210 0.385975
215 0.419121
220 0.393894
225 0.436486
230 0.408907
235 0.499103
240 0.428563
245 0.558278
250 0.568276
255 0.40829
260 0.380779
265 0.521122
270 0.588063
275 0.486727
280 0.43729
285 0.53346
290 0.444225
295 0.382236
300 0.449268
305 0.362162
310 0.551471
315 0.511498
320 0.423091
325 0.461537
330 0.403622
335 0.426046
340 0.457776
345 0.514175
350 0.397818
355 0.32797
360 0.471828
365 0.446673
370 0.476894
375 0.565674
380 0.555736
385 0.564708
390 0.652321
395 0.612357
400 0.641118
405 0.54866
410 0.530061
415 0.590549
420 0.715801
425 0.629856
430 0.538465
435 0.551386
440 0.577819
445 0.642721
450 0.547098
455 0.699185
460 0.675602
465 0.726181
470 0.702825
475 0.68381
480 0.686879
485 0.71089
490 0.681075
495 0.763481
500 0.793967
505 0.847031
510 1.04222
515 1.4682
520 1.82819
525 2.60702
530 60.1249
535 1172.63
540 1942.19
545 524.553
550 63.0319
555 9.00813
560 2.55836
565 1.5782
570 0.994448
575 0.947405
580 0.869926
585 0.982487
590 0.868863
595 0.824743
600 0.690026
Ex : 548
200 0.386548
205 0.4008
210 0.440542
215 0.348852
220 0.389289
225 0.470677
230 0.393012
235 0.412145
240 0.474586
245 0.431221
250 0.376054
255 0.396851
260 0.414345
265 0.486931
270 0.589597
275 0.501933
280 0.452603
285 0.494806
290 0.551221
295 0.380046
300 0.384116
305 0.471438
310 0.382122
315 0.505776
320 0.54232
325 0.489573
330 0.506285
335 0.525373
340 0.599612
345 0.502434
350 0.369611
355 0.388375
360 0.525712
365 0.404156
370 0.552148
375 0.497777
380 0.491137
385 0.507264
390 0.659682
395 0.550288
400 0.601249
405 0.461447
410 0.58131
415 0.476588
420 0.539656
425 0.560421
430 0.604414
435 0.63925
440 0.547026
445 0.532623
450 0.602768
455 0.691105
460 0.709722
465 0.719054
470 0.716684
475 0.832213
480 0.705388
485 0.807868
490 0.694546
495 0.839377
500 0.773102
505 0.810561
510 0.996767
515 1.01643
520 1.40919
525 1.78037
530 2.50954
535 65.9566
540 1169.98
545 1881.04
550 510.695
555 61.2864
560 8.8792
565 2.37554
570 1.58396
575 1.17607
580 0.923282
585 1.06207
590 0.865642
595 0.819124
600 0.18621
Ex : 553
200 0.419069
205 0.459459
210 0.50242
215 0.472207
220 0.390739
225 0.387991
230 0.458424
235 0.479842
240 0.460826
245 0.580383
250 0.522625
255 0.373143
260 0.562735
265 0.455062
270 0.419573
275 0.44075
280 0.394737
285 0.480679
290 0.453121
295 0.407413
300 0.45778
305 0.546871
310 0.451856
315 0.445576
320 0.471068
325 0.522732
330 0.413064
335 0.449327
340 0.553364
345 0.501289
350 0.535551
355 0.466756
360 0.500445
365 0.467555
370 0.647713
375 0.803013
380 0.589648
385 0.586203
390 0.580214
395 0.517763
400 0.558137
405 0.620845
410 0.67829
415 0.563328
420 0.661665
425 0.55735
430 0.634609
435 0.669384
440 0.625179
445 0.617487
450 0.741701
455 0.72853
460 0.710015
465 0.836685
470 0.720277
475 0.777508
480 0.656264
485 0.608189
490 0.75901
495 0.768425
500 0.685789
505 0.899788
510 0.900141
515 1.02965
520 1.17019
525 1.34156
530 1.71698
535 2.52009
540 56.639
545 1101.93
550 1839.64
555 506.933
560 61.1432
565 8.86561
570 2.3207
575 1.24469
580 1.01007
585 0.921933
590 0.857295
595 0.904613
600 0.926253
Ex : 558
200 0.544705
205 0.549101
210 0.556435
215 0.502059
220 0.487683
225 0.391246
230 0.442494
235 0.454925
240 0.490409
245 0.379698
250 0.461922
255 0.47381
260 0.365352
265 0.616717
270 0.470465
275 0.588342
280 0.554017
285 0.477674
290 0.528872
295 0.411961
300 0.423085
305 0.461396
310 0.554377
315 0.435471
320 0.453615
325 0.488144
330 0.407262
335 0.506486
340 0.471763
345 0.506082
350 0.466564
355 0.531371
360 0.521849
365 0.540527
370 0.676929
375 0.601183
380 0.561581
385 0.551678
390 0.426154
395 0.558832
400 0.559348
405 0.481576
410 0.479988
415 0.670268
420 0.605271
425 0.395396
430 0.510893
435 0.638778
440 0.621004
445 0.61849
450 0.592026
455 0.574499
460 0.616779
465 0.667935
470 0.687837
475 0.648562
480 0.663519
485 0.692431
490 0.69794
495 0.62926
500 0.6534
505 0.790113
510 0.954412
515 0.892855
520 0.898651
525 1.10369
530 1.25458
535 1.62593
540 2.38358
545 53.5952
550 1042.35
555 1795.86
560 501.522
565 60.4564
570 8.45739
575 2.22678
580 1.23631
585 0.924176
590 0.921752
595 0.801386
600 1.06722
Ex : 563
200 0.52269
205 0.38736
210 0.584241
215 0.627338
220 0.407661
225 0.423483
230 0.426336
235 0.452833
240 0.507526
245 0.435574
250 0.518973
255 0.445332
260 0.466758
265 0.497242
270 0.498232
275 0.401858
280 0.565855
285 0.549158
290 0.534127
295 0.474031
300 0.540297
305 0.615905
310 0.372658
315 0.494289
320 0.440696
325 0.451159
330 0.545382
335 0.507138
340 0.464221
345 0.567274
350 0.618613
355 0.534695
360 0.613975
365 0.669212
370 0.585889
375 0.499326
380 0.476434
385 0.542834
390 0.581755
395 0.548269
400 0.538612
405 0.536692
410 0.607883
415 0.553701
420 0.65595
425 0.697047
430 0.548281
435 0.672103
440 0.568026
445 0.583992
450 0.688737
455 0.623687
460 0.674076
465 0.829594
470 1.02452
475 0.680084
480 0.698271
485 0.655983
490 0.646416
495 0.647615
500 0.74523
505 0.798122
510 0.567999
515 0.909938
520 0.783973
525 0.807171
530 1.06628
535 1.34217
540 1.74507
545 2.34148
550 50.5135
555 1003.51
560 1726.86
565 491.535
570 59.035
575 8.28685
580 2.16271
585 1.18406
590 0.942354
595 0.821094
600 0.400896
Ex : 568
200 0.640483
205 0.412015
210 0.532961
215 0.509911
220 0.536285
225 0.520944
230 0.375869
235 0.610426
240 0.644067
245 0.501905
250 0.628709
255 0.54708
260 0.58951
265 0.503253
270 0.542022
275 0.442746
280 0.624872
285 0.455351
290 0.518122
295 0.548081
300 0.557588
305 0.511886
310 0.367511
315 0.40568
320 0.515596
325 0.500799
330 0.592732
335 0.473275
340 0.527333
345 0.525333
350 0.51479
355 0.597681
360 0.591086
365 0.45335
370 0.561636
375 0.610821
380 0.667855
385 0.535619
390 0.557485
395 0.600738
400 0.768512
405 0.464011
410 0.573025
415 0.675634
420 0.733716
425 0.488887
430 0.529551
435 0.547439
440 0.645788
445 0.635378
450 0.603755
455 0.648591
460 0.735707
465 0.588962
470 0.517489
475 0.601871
480 0.658242
485 0.750137
490 0.72971
495 0.802091
500 0.554583
505 0.675141
510 0.734335
515 0.948389
520 1.03417
525 0.8313
530 0.936372
535 0.984049
540 1.25813
545 1.5479
550 2.17685
555 37.612
560 904.514
565 1654.13
570 494.51
575 59.6587
580 8.33029
585 2.14481
590 1.38693
595 1.08799
600 0.706171
Ex : 573
200 0.540671
205 0.501221
210 0.498439
215 0.542964
220 0.476923
225 0.490696
230 0.607183
235 0.506707
240 0.523066
245 0.572834
250 0.645792
255 0.574077
260 0.51995
265 0.483859
270 0.434486
275 0.59857
280 0.463385
285 0.507302
290 0.443681
295 0.49336
300 0.64679
305 0.515926
310 0.540803
315 0.554865
320 0.511487
325 0.508373
330 0.630159
335 0.433173
340 0.549307
345 0.511255
350 0.503058
355 0.654245
360 0.576411
365 0.640428
370 0.514044
375 0.5115
380 0.582824
385 0.56353
390 0.457824
395 0.574105
400 0.645456
405 0.541619
410 0.587466
415 0.549727
420 0.482762
425 0.694912
430 0.551637
435 0.699505
440 0.556847
445 0.646229
450 0.5603
455 0.761022
460 0.798506
465 0.689691
470 0.612087
475 0.567475
480 0.648774
485 0.693107
490 0.833373
495 0.75196
500 0.767052
505 0.692103
510 0.710196
515 0.728272
520 0.798315
525 1.0019
530 0.963039
535 1.02537
540 1.1879
545 1.35862
550 1.71749
555 2.04241
560 32.9042
565 781.413
570 1523.98
575 463.391
580 55.9663
585 7.72329
590 2.02471
595 1.12857
600 0.527705
Ex : 578
200 0.572526
205 0.471802
210 0.482159
215 0.412028
220 0.449722
225 0.55913
230 0.449204
235 0.438872
240 0.483126
245 0.470376
250 0.666401
255 0.656102
260 0.639671
265 0.469814
270 0.461181
275 0.48685
280 0.502965
285 0.364987
290 0.417446
295 0.458152
300 0.439289
305 0.551893
310 0.610009
315 0.431439
320 0.556587
325 0.570013
330 0.517319
335 0.61032
340 0.506563
345 0.480835
350 0.591607
355 0.603204
360 0.627654
365 0.53121
370 0.585851
375 0.495074
380 0.617248
385 0.534397
390 0.498402
395 0.784218
400 0.525361
405 0.545417
410 0.515193
415 0.672831
420 0.514556
425 0.632958
430 0.515454
435 0.739308
440 0.622945
445 0.562797
450 0.612745
455 0.745365
460 0.591245
465 0.644577
470 0.66612
475 0.689671
480 0.730997
485 0.730777
490 0.648598
495 0.653701
500 0.586783
505 0.653692
510 0.545817
515 0.824333
520 0.760657
525 0.596468
530 0.983604
535 0.882196
540 1.07353
545 0.97895
550 1.20422
555 1.40754
560 1.7725
565 29.6149
570 698.363
575 1338.3
580 402.195
585 48.426
590 6.75329
595 1.899
600 1.62746
Ex : 583
200 0.536685
205 0.501629
210 0.585182
215 0.612225
220 0.51072
225 0.575084
230 0.580531
235 0.531163
240 0.550123
245 0.605169
250 0.536475
255 0.40486
260 0.459941
265 0.469279
270 0.542263
275 0.624059
280 0.507686
285 0.51309
290 0.591959
295 0.565026
300 0.563258
305 0.46732
310 0.466258
315 0.612827
320 0.622623
325 0.650591
330 0.735525
335 0.539288
340 0.426653
345 0.560922
350 0.524458
355 0.744047
360 0.630991
365 0.494973
370 0.523705
375 0.626066
380 0.485519
385 0.679314
390 0.606302
395 0.655152
400 0.55669
405 0.617866
410 0.58563
415 0.619454
420 0.552085
425 0.497171
430 0.730988
435 0.710404
440 0.706368
445 0.618552
450 0.683191
455 0.735977
460 0.652337
465 0.64763
470 0.613454
475 0.611159
480 0.817901
485 0.68327
490 0.621632
495 0.651754
500 0.668034
505 0.663794
510 0.852799
515 0.68598
520 0.64097
525 0.627312
530 0.790381
535 0.963448
540 0.841875
545 0.891861
550 1.01815
555 1.13031
560 1.38717
565 1.95075
570 24.8314
575 621.71
580 1160.35
585 327.717
590 39.6813
595 5.46997
600 1.06556
Ex : 588
200 0.537526
205 0.598437
210 0.535408
215 0.595052
220 0.567484
225 0.483917
230 0.533875
235 0.457876
240 0.46852
245 0.553798
250 0.544667
255 0.47109
260 0.527073
265 0.573458
270 0.586021
275 0.476884
280 0.532474
285 0.440081
290 0.456107
295 0.370664
300 0.467961
305 0.482571
310 0.530248
315 0.52312
320 0.50527
325 0.575859
330 0.509744
335 0.606335
340 0.592323
345 0.50275
350 0.515739
355 0.597372
360 0.470737
365 0.473438
370 0.581042
375 0.585455
380 0.771098
385 0.567499
390 0.524357
395 0.529855
400 0.667484
405 0.608189
410 0.649092
415 0.64738
420 0.556961
425 0.56088
430 0.670221
435 0.568851
440 0.688554
445 0.692914
450 0.687829
455 0.620739
460 0.613344
465 0.793943
470 0.626891
475 0.556078
480 0.537371
485 0.608767
490 0.693379
495 0.556325
500 0.793352
505 0.687254
510 0.713608
515 0.697232
520 0.800647
525 0.693476
530 0.69814
535 0.706595
540 0.734162
545 0.903505
550 0.959048
555 0.922962
560 1.0019
565 1.30738
570 1.73734
575 21.387
580 518.415
585 975.071
590 290.393
595 35.1771
600 5.38156
Ex : 593
200 0.818164
205 0.772699
210 0.625792
215 0.546624
220 0.499075
225 0.512519
230 0.630159
235 0.623114
240 0.642784
245 0.637466
250 0.577574
255 0.605848
260 0.547057
265 0.57254
270 0.680498
275 0.601453
280 0.530593
285 0.507907
290 0.505428
295 0.580294
300 0.609802
305 0.389848
310 0.463949
315 0.489483
320 0.451642
325 0.495828
330 0.523629
335 0.805826
340 0.654146
345 0.755589
350 0.836449
355 0.682381
360 0.562773
365 0.657101
370 0.549502
375 0.576941
380 0.537217
385 0.528469
390 0.602003
395 0.705766
400 0.567119
405 0.596543
410 0.55209
415 0.546307
420 0.620465
425 0.59926
430 0.601062
435 0.610687
440 0.576984
445 0.709976
450 0.773357
455 0.66867
460 0.725963
465 0.608628
470 0.709088
475 0.619277
480 0.764123
485 0.707743
490 0.830158
495 0.695688
500 0.646963
505 0.697511
510 0.699895
515 0.723207
520 0.785278
525 0.796765
530 0.75586
535 0.658143
540 0.785733
545 0.676911
550 0.76626
555 0.856248
560 1.00155
565 1.1877
570 1.51691
575 1.73216
580 19.0018
585 458.934
590 858.831
595 254.356
600 37.3302
Ex : 598
200 0.537948
205 0.534948
210 0.494414
215 0.541764
220 0.458066
225 0.623433
230 0.62195
235 0.585936
240 0.455114
245 0.460793
250 0.708395
255 0.672413
260 0.596519
265 0.625183
270 0.551976
275 0.582014
280 0.63086
285 0.653425
290 0.572742
295 0.49658
300 0.482909
305 0.490874
310 0.642115
315 0.583394
320 0.516494
325 0.610538
330 0.595807
335 0.6964
340 0.634334
345 0.756246
350 0.604312
355 0.572031
360 0.662946
365 0.656877
370 0.578607
375 0.688016
380 0.562831
385 0.607534
390 0.663114
395 0.654879
400 0.651811
405 0.71585
410 0.473779
415 0.588105
420 0.618651
425 0.738169
430 0.598498
435 0.596635
440 0.714245
445 0.623898
450 0.613165
455 0.894613
460 0.826388
465 0.708111
470 0.697484
475 0.593802
480 0.611814
485 0.530783
490 0.730126
495 0.592723
500 0.616221
505 0.742878
510 0.688843
515 0.782297
520 0.794437
525 0.66383
530 0.738132
535 0.728066
540 0.658116
545 0.866405
550 0.879026
555 0.76677
560 0.971042
565 0.992038
570 1.15234
575 1.30301
580 1.45339
585 18.4748
590 403.217
595 724.666
600 454.67
Ex : 603
200 0.499891
205 0.577367
210 0.556646
215 0.544905
220 0.736642
225 0.607057
230 0.51544
235 0.541879
240 0.636658
245 0.607795
250 0.536089
255 0.747515
260 0.560974
265 0.44633
270 0.567499
275 0.608399
280 0.446532
285 0.681246
290 0.565617
295 0.580067
300 0.376756
305 0.518856
310 0.576239
315 0.53119
320 0.567905
325 0.502382
330 0.581709
335 0.516986
340 0.591096
345 0.628611
350 0.541487
355 0.707075
360 0.590424
365 0.569241
370 0.703623
375 0.759434
380 0.641739
385 0.492829
390 0.73967
395 0.654387
400 0.896167
405 0.723436
410 0.536567
415 0.659164
420 0.654421
425 0.613984
430 0.631033
435 0.55367
440 0.60257
445 0.559217
450 0.584876
455 0.686977
460 0.66658
465 0.651178
470 0.697582
475 0.668167
480 0.670497
485 0.643972
490 0.71751
495 0.598082
500 0.642635
505 0.608928
510 0.557809
515 0.650379
520 0.737344
525 0.705205
530 0.735688
535 0.81491
540 0.991603
545 0.86588
550 0.937235
555 0.718011
560 0.905389
565 0.774892
570 1.06961
575 1.11748
580 1.09849
585 1.43102
590 16.1445
595 354.529
600 646.23
