File format V 1.0
ven. 9. déc. 23:54:01 2016
Operator : 
Comments : 

=============================================
SpectroFluorometer parameters
Mode : 3D measurement
Data : Fluorescence
Phospho. : Ordinary
Spectrum : Fluorescence

Scan speed : 2400 nm/mn
Response : 100 ms
PM Voltage : 700 V
Shutter : On

Lambda Ex. Start : 203
Lambda Ex. End : 603
Lambda Ex. Step : 5
Ex. Slit : 5 nm

Lambda Em. Start : 200
Lambda Em. End : 600
Lambda Em. Step : 5
Em. Slit : 5 nm

Repetition : 1
Decal lambda em : 10
=============================================
DATA
Ex : 203
200 12.8788
205 13.3396
210 13.5075
215 14.9859
220 13.2791
225 11.6277
230 15.2703
235 13.5464
240 12.984
245 12.8522
250 16.3335
255 13.0042
260 15.9123
265 13.6556
270 14.9652
275 14.7153
280 14.1249
285 12.8149
290 12.8633
295 13.8707
300 17.3685
305 15.2589
310 11.8924
315 15.9183
320 11.657
325 14.1629
330 15.0377
335 14.6969
340 15.8103
345 15.7718
350 16.627
355 15.78
360 14.998
365 12.1473
370 16.7318
375 15.3395
380 12.0933
385 13.6564
390 14.7574
395 14.1416
400 13.9749
405 15.7639
410 15.8228
415 15.1054
420 13.9135
425 17.1613
430 17.1384
435 10.8641
440 15.3638
445 18.9386
450 16.1541
455 13.1752
460 12.5252
465 20.5435
470 13.6968
475 16.6843
480 12.6546
485 13.9465
490 15.9865
495 14.1311
500 15.0642
505 10.5373
510 12.1058
515 12.3561
520 15.3114
525 14.2046
530 11.0622
535 11.383
540 17.091
545 13.8559
550 15.9137
555 17.3627
560 15.0938
565 13.918
570 12.7154
575 13.9325
580 13.3171
585 10.7904
590 12.8858
595 12.3139
600 10.2633
Ex : 208
200 20.4121
205 14.5368
210 12.9869
215 14.494
220 18.79
225 11.0798
230 13.8506
235 12.5771
240 19.8722
245 12.627
250 12.7099
255 13.9318
260 13.3209
265 12.8217
270 11.8972
275 15.9129
280 16.8443
285 19.5784
290 15.2041
295 14.3455
300 13.9836
305 12.9138
310 16.0665
315 13.8851
320 16.0275
325 13.8404
330 15.0148
335 17.3983
340 17.0453
345 14.6739
350 12.8988
355 12.5105
360 16.8128
365 19.496
370 14.6048
375 16.8548
380 22.5249
385 16.1015
390 14.8818
395 13.7364
400 15.705
405 11.6849
410 13.3289
415 15.7799
420 17.4004
425 15.539
430 13.4987
435 13.6791
440 15.1097
445 16.949
450 16.7448
455 13.0624
460 13.2479
465 14.0566
470 16.9873
475 15.0458
480 14.6254
485 14.3283
490 18.4394
495 14.5696
500 13.0175
505 12.2007
510 14.9669
515 17.7112
520 12.4684
525 14.4131
530 11.4674
535 11.8558
540 12.7731
545 19.2043
550 11.8888
555 15.7884
560 19.2106
565 15.5932
570 11.231
575 13.0746
580 14.3663
585 16.7733
590 19.6219
595 17.1037
600 1.94634
Ex : 213
200 15.8523
205 18.895
210 12.8324
215 15.8436
220 12.014
225 14.2974
230 14.007
235 20.3738
240 15.2811
245 10.8451
250 13.3588
255 13.5131
260 12.0784
265 13.382
270 10.6324
275 17.141
280 15.7403
285 14.4085
290 16.7321
295 15.739
300 11.6963
305 14.3881
310 13.619
315 21.306
320 18.0056
325 15.5245
330 10.2348
335 17.4961
340 17.9325
345 14.1261
350 13.0193
355 19.0921
360 16.7402
365 18.1487
370 14.4773
375 19.6082
380 12.4767
385 14.9358
390 14.5159
395 19.2032
400 16.6968
405 15.216
410 19.1515
415 14.3412
420 15.5141
425 14.4641
430 16.5473
435 13.6885
440 14.6151
445 17.8867
450 16.8818
455 12.615
460 16.6598
465 15.8914
470 13.8689
475 15.0015
480 13.578
485 17.0301
490 15.231
495 12.9535
500 15.5525
505 14.7816
510 15.6423
515 17.1409
520 14.1457
525 13.9376
530 20.5854
535 15.4775
540 16.2702
545 11.5695
550 15.7118
555 11.9276
560 15.6252
565 13.7445
570 12.3673
575 16.0754
580 15.6308
585 10.5892
590 16.1953
595 15.4161
600 9.06548
Ex : 218
200 10.731
205 13.1508
210 13.3182
215 12.4454
220 13.3433
225 16.2041
230 13.8101
235 18.4306
240 14.5909
245 12.4
250 15.8876
255 12.7088
260 11.8971
265 14.9301
270 14.3722
275 20.4251
280 14.9095
285 14.9642
290 16.8316
295 14.6588
300 17.4149
305 13.6219
310 14.5885
315 13.9252
320 12.6425
325 15.735
330 13.582
335 14.0821
340 18.4617
345 14.0646
350 15.5905
355 15.3001
360 19.9528
365 15.0183
370 13.042
375 12.756
380 14.3428
385 17.5988
390 15.3263
395 15.1808
400 18.2628
405 14.6462
410 19.5648
415 13.227
420 12.9111
425 14.4538
430 16.8905
435 14.8681
440 12.9859
445 13.8952
450 17.0287
455 15.5811
460 15.606
465 14.5744
470 12.8289
475 15.9296
480 16.8372
485 16.2016
490 16.443
495 18.0323
500 15.1628
505 15.2088
510 14.7643
515 11.0954
520 16.6532
525 17.8727
530 12.8188
535 13.0939
540 15.462
545 10.9834
550 15.3953
555 14.709
560 11.4069
565 13.505
570 13.0575
575 17.916
580 9.86181
585 15.5787
590 12.0384
595 13.415
600 1.52657
Ex : 223
200 10.4503
205 11.9789
210 13.7747
215 8.89746
220 15.5188
225 13.2661
230 18.0171
235 16.1015
240 12.3905
245 14.8994
250 15.5413
255 12.1245
260 10.3127
265 14.1378
270 10.8106
275 14.9637
280 10.9648
285 14.3059
290 10.907
295 14.9873
300 19.0723
305 11.6366
310 12.0027
315 16.8067
320 13.3347
325 14.0639
330 12.1014
335 15.301
340 10.9678
345 14.7936
350 16.2577
355 11.3923
360 12.762
365 13.2667
370 16.0403
375 13.2262
380 11.444
385 11.431
390 14.4687
395 13.1671
400 14.4579
405 17.0784
410 16.6225
415 16.1055
420 9.6437
425 14.7827
430 13.283
435 14.0125
440 14.1084
445 10.4728
450 12.3499
455 19.0779
460 14.2253
465 15.4213
470 14.1976
475 12.3387
480 13.973
485 12.3933
490 15.3214
495 11.7737
500 16.647
505 14.3335
510 15.1845
515 12.6746
520 10.766
525 16.092
530 12.4706
535 15.0354
540 11.0236
545 13.1798
550 12.0621
555 13.5754
560 16.8697
565 15.9521
570 13.5661
575 12.2422
580 15.0707
585 12.1241
590 13.3409
595 13.4846
600 67.3351
Ex : 228
200 14.8051
205 13.268
210 12.8978
215 13.3967
220 15.2351
225 12.7017
230 12.3663
235 13.5855
240 17.057
245 13.9186
250 14.5351
255 14.9963
260 13.6018
265 13.3955
270 11.7614
275 14.9587
280 14.471
285 12.6844
290 11.5695
295 8.93613
300 14.6196
305 16.4586
310 12.2795
315 11.5364
320 11.6071
325 14.8227
330 13.3385
335 15.6971
340 11.7118
345 18.1028
350 13.2804
355 11.2454
360 9.58391
365 10.2638
370 15.3472
375 12.4951
380 14.4353
385 11.9136
390 7.79166
395 12.0905
400 12.9833
405 15.2397
410 16.422
415 12.5313
420 15.675
425 16.6528
430 12.7522
435 11.5251
440 14.774
445 14.6692
450 9.71976
455 14.4745
460 13.7217
465 12.8269
470 15.3708
475 14.9914
480 12.5687
485 14.8424
490 12.7109
495 14.7678
500 11.7804
505 17.1635
510 17.0049
515 18.2624
520 15.2197
525 12.2377
530 13.8232
535 10.6588
540 12.4936
545 12.1047
550 14.9469
555 11.926
560 10.8838
565 16.7176
570 15.0203
575 13.1628
580 12.1845
585 12.9564
590 10.3921
595 13.0096
600 1.48045
Ex : 233
200 10.4393
205 10.068
210 9.77655
215 9.8497
220 10.1228
225 10.3418
230 10.1607
235 10.8306
240 14.3914
245 13.826
250 11.7267
255 11.2521
260 11.4368
265 13.9413
270 12.5205
275 8.68138
280 9.61971
285 12.3087
290 10.814
295 11.6207
300 11.1336
305 9.35357
310 9.14831
315 6.09199
320 11.7244
325 14.3126
330 9.11802
335 12.1671
340 13.3859
345 12.1007
350 10.5969
355 11.828
360 12.1602
365 10.5385
370 9.43645
375 13.2317
380 12.8941
385 12.2467
390 10.1073
395 12.2618
400 14.4216
405 9.26496
410 11.6933
415 10.0782
420 10.8748
425 12.9318
430 10.5742
435 12.4606
440 10.5725
445 11.8289
450 13.8519
455 8.88852
460 9.73004
465 11.8762
470 10.7326
475 12.144
480 9.42282
485 12.1392
490 14.3938
495 10.3322
500 13.8116
505 13.2059
510 10.1062
515 13.5442
520 11.9881
525 9.17928
530 11.5114
535 11.8007
540 14.6771
545 12.4325
550 10.7424
555 8.86595
560 7.69532
565 10.1871
570 10.1942
575 12.3021
580 12.7729
585 12.0162
590 13.652
595 10.7408
600 7.86879
Ex : 238
200 7.2437
205 11.6151
210 8.47927
215 8.31364
220 11.8518
225 10.0187
230 8.96945
235 10.9216
240 12.5309
245 12.5016
250 11.4258
255 8.83294
260 9.23627
265 7.46101
270 11.1931
275 8.57923
280 6.54419
285 8.93445
290 10.4733
295 11.4157
300 7.5402
305 10.7056
310 9.19409
315 8.82927
320 9.46912
325 8.44683
330 12.5655
335 7.42608
340 9.84171
345 10.1491
350 12.8843
355 11.7418
360 13.5673
365 10.1679
370 13.5017
375 10.2621
380 7.44569
385 9.04664
390 10.9079
395 9.36233
400 13.6827
405 10.7796
410 10.9315
415 12.4692
420 13.8183
425 10.8432
430 12.1885
435 9.88391
440 9.73306
445 8.99849
450 11.8365
455 7.52884
460 13.2672
465 10.4228
470 10.305
475 10.592
480 11.3057
485 13.8
490 11.4981
495 10.6118
500 11.5163
505 11.1144
510 10.9615
515 7.62051
520 8.9126
525 10.4258
530 10.7092
535 13.7129
540 8.50998
545 8.68941
550 8.22186
555 10.4861
560 12.1469
565 10.8611
570 10.9366
575 9.76238
580 11.0372
585 11.4907
590 10.3186
595 12.9763
600 10.8704
Ex : 243
200 9.0855
205 8.8092
210 8.07956
215 8.94279
220 11.3399
225 7.33609
230 7.82095
235 9.00113
240 9.86604
245 7.65928
250 7.38743
255 8.37505
260 9.24515
265 11.1926
270 10.236
275 7.71676
280 8.14973
285 8.14868
290 8.67387
295 8.95959
300 9.29187
305 8.94331
310 7.28931
315 9.03497
320 13.0798
325 10.6955
330 10.6387
335 11.5684
340 6.75523
345 10.9721
350 9.81851
355 10.0124
360 12.8283
365 9.03652
370 6.31248
375 8.02552
380 10.4646
385 12.1152
390 9.72539
395 7.58102
400 11.9274
405 9.27448
410 9.2593
415 10.615
420 8.78067
425 8.12723
430 6.98423
435 10.582
440 9.2814
445 10.7812
450 7.23081
455 9.28913
460 10.2709
465 12.6316
470 8.4355
475 8.34168
480 10.7458
485 10.0379
490 9.60356
495 7.46523
500 10.1062
505 11.4024
510 8.87443
515 9.81653
520 8.74441
525 7.96983
530 11.0865
535 7.79537
540 10.4871
545 7.74345
550 9.57045
555 8.74354
560 8.19659
565 6.89246
570 12.2371
575 9.30844
580 9.63692
585 8.16923
590 8.27971
595 11.0952
600 10.6563
Ex : 248
200 7.90303
205 8.11637
210 7.5099
215 8.15692
220 6.76735
225 7.16083
230 9.24071
235 6.95674
240 8.69243
245 8.57302
250 7.53293
255 7.37179
260 6.90313
265 7.08433
270 7.91257
275 5.51917
280 6.62546
285 6.27103
290 7.17575
295 8.7341
300 8.25208
305 6.28432
310 6.98127
315 6.58485
320 7.58418
325 7.83414
330 6.54978
335 9.00423
340 9.3783
345 8.92733
350 6.82235
355 9.01408
360 6.97875
365 8.34627
370 12.5328
375 7.61278
380 8.1854
385 8.80494
390 7.16067
395 7.67391
400 8.69876
405 6.13487
410 8.12185
415 6.82048
420 6.86638
425 9.4699
430 7.89224
435 9.4556
440 8.89047
445 7.68508
450 7.3457
455 7.71296
460 8.10161
465 6.72697
470 8.41218
475 6.98846
480 8.18209
485 6.80464
490 7.98905
495 9.20527
500 8.54023
505 7.44142
510 7.708
515 8.03638
520 6.77314
525 6.37801
530 8.34259
535 7.34447
540 9.22815
545 6.99957
550 5.76972
555 7.67487
560 7.08518
565 7.62213
570 6.62355
575 6.00341
580 5.33373
585 9.96849
590 7.69722
595 9.05716
600 3.94248
Ex : 253
200 4.91586
205 5.2585
210 4.84637
215 5.02984
220 5.28567
225 4.32882
230 5.88027
235 7.1823
240 6.19866
245 5.95808
250 6.41329
255 6.84245
260 6.09815
265 5.41599
270 6.36787
275 6.55538
280 5.39462
285 5.95894
290 7.05744
295 6.10225
300 6.68737
305 4.10767
310 6.20995
315 7.35981
320 6.4135
325 5.6377
330 6.14358
335 5.59105
340 7.05788
345 6.77617
350 6.68407
355 6.11973
360 5.48758
365 5.92444
370 5.8905
375 5.7744
380 5.31023
385 7.76021
390 6.97546
395 6.86624
400 6.62253
405 7.94366
410 10.1849
415 7.12351
420 6.13907
425 6.10173
430 5.8856
435 6.65709
440 6.47117
445 5.59173
450 7.01656
455 8.74155
460 7.87024
465 7.29984
470 6.22394
475 8.50119
480 7.3022
485 5.86741
490 5.78995
495 6.86454
500 5.85148
505 6.66649
510 5.58448
515 5.95052
520 6.04101
525 6.04634
530 6.63123
535 5.94772
540 7.05618
545 7.56381
550 7.89247
555 6.3407
560 6.07159
565 6.59304
570 6.33156
575 6.08402
580 6.72919
585 6.10711
590 7.60431
595 6.75319
600 7.95658
Ex : 258
200 5.90249
205 4.52184
210 5.12427
215 5.43889
220 4.15181
225 4.34531
230 3.45939
235 6.38756
240 5.01339
245 5.4929
250 5.29903
255 4.84208
260 4.57438
265 6.26697
270 4.68817
275 4.74074
280 4.74546
285 4.81752
290 5.611
295 4.0342
300 3.82388
305 3.9385
310 4.20037
315 3.78837
320 5.03208
325 4.89845
330 4.70246
335 4.74632
340 6.0065
345 5.04485
350 5.12477
355 5.19002
360 4.656
365 4.49996
370 5.22571
375 4.33507
380 4.85392
385 5.89239
390 5.70248
395 5.18112
400 6.2197
405 5.53521
410 5.35345
415 4.6979
420 4.86735
425 4.5183
430 4.57522
435 5.83614
440 5.17524
445 5.64591
450 4.66077
455 5.74574
460 4.93059
465 5.21278
470 4.14323
475 7.4924
480 5.18971
485 4.92235
490 4.44845
495 5.95447
500 5.61137
505 4.52984
510 4.12423
515 4.6957
520 6.66934
525 4.59628
530 5.05801
535 3.85731
540 4.81947
545 4.37168
550 5.47844
555 3.81833
560 4.17131
565 4.43468
570 4.52533
575 4.08642
580 4.55054
585 3.55144
590 4.3434
595 5.106
600 5.57601
Ex : 263
200 3.77811
205 3.50157
210 4.76142
215 3.25608
220 3.6128
225 3.87013
230 3.47919
235 4.1085
240 3.72099
245 3.21233
250 4.03278
255 3.22186
260 4.16276
265 3.09506
270 4.55592
275 4.67699
280 4.11123
285 4.89225
290 4.06047
295 4.86769
300 3.45621
305 4.44684
310 3.06078
315 3.45201
320 3.72175
325 4.17741
330 4.49994
335 3.89382
340 4.05568
345 5.20847
350 4.20549
355 4.35689
360 4.31596
365 3.96334
370 5.41216
375 4.4561
380 4.31121
385 4.35354
390 3.48145
395 4.43898
400 3.97419
405 3.89994
410 3.90294
415 4.51769
420 3.84797
425 5.34273
430 3.94059
435 4.6995
440 4.71298
445 3.81393
450 4.35063
455 4.01547
460 3.55122
465 3.95702
470 4.01783
475 3.95384
480 3.6887
485 3.25216
490 3.52752
495 4.23808
500 3.30805
505 4.12026
510 4.34046
515 4.82212
520 4.15273
525 4.76436
530 4.26184
535 3.79277
540 3.86564
545 3.62835
550 2.89817
555 3.52894
560 3.43902
565 3.186
570 3.25137
575 4.20309
580 3.29233
585 2.8958
590 3.31583
595 4.23578
600 3.73143
Ex : 268
200 3.98603
205 3.313
210 2.47148
215 2.54169
220 2.60304
225 3.15562
230 2.91658
235 3.66302
240 2.92078
245 2.19413
250 3.20575
255 4.7791
260 3.1704
265 3.21145
270 2.5893
275 3.05161
280 2.76268
285 3.56796
290 2.7534
295 3.22102
300 2.70073
305 2.71392
310 3.19849
315 3.51037
320 3.3282
325 3.16929
330 3.42954
335 3.47326
340 3.64223
345 3.40423
350 2.79129
355 4.09287
360 3.18629
365 3.06916
370 3.30883
375 3.25144
380 3.30217
385 3.43796
390 3.53657
395 3.94622
400 3.19546
405 3.78657
410 4.44031
415 3.42461
420 3.19567
425 4.70552
430 3.93501
435 3.3734
440 3.96258
445 3.65819
450 3.7343
455 2.9537
460 3.60777
465 3.08909
470 3.41851
475 2.92028
480 2.3182
485 3.14578
490 2.93687
495 3.16182
500 2.62019
505 2.21776
510 2.75844
515 2.86726
520 3.93447
525 2.49138
530 4.14685
535 3.31461
540 2.70308
545 2.80699
550 2.17437
555 2.82921
560 2.45173
565 3.43983
570 3.41789
575 3.04964
580 2.50841
585 2.72692
590 2.47855
595 2.87766
600 0.876069
Ex : 273
200 2.56595
205 2.1246
210 2.11748
215 1.72703
220 2.28211
225 2.33763
230 2.92123
235 2.42793
240 1.99607
245 2.6496
250 2.72341
255 2.69404
260 2.93706
265 2.0263
270 2.6517
275 2.52105
280 2.6068
285 2.41517
290 2.3737
295 2.82783
300 1.99044
305 2.22836
310 2.33792
315 2.0793
320 2.72949
325 2.38459
330 2.08178
335 2.70863
340 2.97102
345 2.20536
350 2.98984
355 2.95612
360 2.70741
365 2.52445
370 2.5261
375 3.0491
380 2.94922
385 3.25502
390 3.69133
395 3.16889
400 2.66813
405 2.49282
410 3.39846
415 2.72878
420 2.70612
425 2.14461
430 2.64287
435 3.16753
440 2.3711
445 3.06885
450 2.94848
455 2.56446
460 2.90583
465 2.98084
470 2.61934
475 2.43617
480 2.13967
485 2.48837
490 2.50839
495 2.26812
500 2.42568
505 2.28295
510 2.26017
515 2.29287
520 2.48308
525 1.79618
530 2.35466
535 2.81757
540 2.76002
545 3.27429
550 2.48153
555 3.11908
560 2.03433
565 2.36852
570 2.27735
575 1.69487
580 2.18683
585 2.45182
590 2.50838
595 2.29584
600 0.85206
Ex : 278
200 2.1596
205 1.68325
210 1.84887
215 2.07108
220 1.71131
225 1.60961
230 1.88097
235 1.84744
240 2.15338
245 1.66826
250 2.17635
255 1.98923
260 2.24774
265 2.10286
270 2.19952
275 2.14751
280 1.90809
285 2.13078
290 1.79524
295 1.56351
300 1.66636
305 1.63022
310 1.3579
315 2.19573
320 1.52831
325 2.08714
330 1.75112
335 2.29068
340 2.76471
345 2.24727
350 1.97568
355 2.03646
360 2.5694
365 2.21615
370 2.22176
375 2.26225
380 2.63266
385 2.21003
390 2.81902
395 2.12212
400 2.51853
405 2.69707
410 2.72693
415 2.52203
420 2.77551
425 2.32045
430 2.49518
435 2.42772
440 2.11552
445 2.19486
450 2.39462
455 2.51064
460 1.73935
465 3.2208
470 2.77804
475 2.36535
480 2.13033
485 2.31644
490 2.04969
495 2.26468
500 1.73012
505 2.40403
510 2.2043
515 1.96357
520 1.89323
525 1.90747
530 2.26182
535 2.0401
540 1.71077
545 2.88655
550 2.49683
555 2.307
560 1.5373
565 2.16393
570 2.03886
575 2.24586
580 1.66038
585 1.89671
590 1.52095
595 1.61377
600 1.24708
Ex : 283
200 1.7624
205 1.92668
210 1.91535
215 2.33609
220 1.46526
225 1.72092
230 1.91991
235 1.9052
240 1.41972
245 1.69671
250 1.94003
255 1.30188
260 1.56034
265 1.99676
270 1.71837
275 1.69328
280 1.72897
285 1.89174
290 1.71726
295 1.42445
300 1.59057
305 1.46715
310 1.64626
315 1.83753
320 2.23553
325 1.58199
330 1.71658
335 1.42181
340 1.45244
345 2.11964
350 1.72511
355 1.70723
360 2.01977
365 2.19002
370 1.66218
375 1.57466
380 1.69007
385 1.86013
390 2.12967
395 2.30726
400 2.02351
405 1.95491
410 2.23355
415 2.44797
420 2.42591
425 1.70054
430 1.72376
435 1.8455
440 2.1637
445 2.09589
450 1.61666
455 2.12504
460 2.15079
465 2.12613
470 2.12706
475 1.48113
480 1.67064
485 2.18091
490 1.63666
495 1.58521
500 1.68477
505 1.90235
510 1.33641
515 1.78067
520 2.138
525 1.1473
530 1.92527
535 1.53557
540 1.5161
545 1.39745
550 1.52299
555 2.11668
560 2.09867
565 1.87236
570 1.80119
575 1.78617
580 1.58327
585 1.89148
590 1.92689
595 1.70853
600 0.194424
Ex : 288
200 1.85365
205 1.42019
210 1.07567
215 1.39236
220 1.32351
225 1.33189
230 1.44442
235 1.32802
240 0.823001
245 1.0278
250 1.30813
255 1.32142
260 1.62706
265 1.28403
270 1.07752
275 1.57572
280 1.23732
285 1.43322
290 1.62366
295 1.48998
300 1.65315
305 1.39018
310 1.2231
315 1.51756
320 1.50415
325 1.39969
330 1.21741
335 1.24218
340 1.16393
345 1.33616
350 1.50115
355 1.67991
360 1.51376
365 2.0152
370 1.69675
375 1.63033
380 1.5849
385 1.75871
390 1.84188
395 2.18848
400 1.86724
405 1.94361
410 1.92911
415 1.94827
420 1.96288
425 2.0284
430 1.80306
435 1.64052
440 1.42101
445 1.71721
450 1.69436
455 1.95412
460 1.79548
465 1.49602
470 1.80823
475 1.78006
480 1.606
485 1.35383
490 1.62043
495 1.85802
500 1.41249
505 1.44162
510 1.32133
515 1.2793
520 1.38636
525 1.66465
530 1.77705
535 1.32382
540 1.44635
545 1.51863
550 1.26958
555 1.84412
560 1.07317
565 1.48421
570 2.04559
575 1.88504
580 1.88771
585 1.2604
590 1.35198
595 0.996249
600 7.36055
Ex : 293
200 1.07077
205 1.71197
210 1.15663
215 1.45825
220 0.851302
225 0.794516
230 0.874442
235 1.04338
240 1.16912
245 1.18677
250 1.37491
255 1.09647
260 1.42631
265 0.981174
270 1.19135
275 1.36921
280 0.931085
285 1.24108
290 1.60916
295 1.39267
300 1.53203
305 1.55493
310 1.10463
315 0.832506
320 1.33024
325 1.23208
330 1.01646
335 1.20768
340 1.30208
345 1.45525
350 1.37858
355 1.42312
360 1.10583
365 1.36809
370 1.47114
375 1.24882
380 1.73654
385 1.32388
390 1.29244
395 2.11347
400 1.64453
405 1.64767
410 1.55038
415 1.4966
420 1.59885
425 1.48042
430 1.68538
435 1.3964
440 1.60438
445 1.32293
450 1.34416
455 1.43796
460 1.55097
465 1.64811
470 1.81301
475 1.33766
480 1.46281
485 1.25167
490 1.45753
495 1.4796
500 1.23165
505 1.20268
510 1.00039
515 1.04307
520 1.29107
525 1.16403
530 1.19723
535 1.37201
540 1.05136
545 0.976429
550 0.88479
555 1.35816
560 1.44543
565 1.06881
570 1.24421
575 1.38991
580 1.44364
585 1.3463
590 1.43208
595 1.35221
600 1.3186
Ex : 298
200 0.832061
205 0.668769
210 1.12134
215 0.868623
220 1.14725
225 0.910871
230 1.15788
235 0.860586
240 0.916131
245 1.28934
250 0.894793
255 0.871781
260 1.02858
265 0.889821
270 0.928024
275 0.866231
280 1.01589
285 0.724507
290 1.12169
295 1.12237
300 1.17704
305 0.943887
310 0.831726
315 0.730896
320 1.4441
325 1.24807
330 0.983309
335 1.12631
340 1.34028
345 1.0866
350 1.10002
355 1.38914
360 1.34938
365 1.23428
370 1.44705
375 1.06419
380 1.71906
385 1.78964
390 1.55119
395 1.51158
400 1.52168
405 1.58865
410 1.43316
415 1.57025
420 1.46674
425 1.3446
430 1.54665
435 1.49676
440 1.81218
445 1.52497
450 1.46947
455 1.31704
460 1.28159
465 1.75141
470 1.25895
475 1.46987
480 1.09506
485 1.11434
490 1.1008
495 1.50557
500 1.32908
505 1.07837
510 1.07684
515 1.12559
520 0.990056
525 0.90642
530 1.06753
535 1.04823
540 0.855254
545 1.082
550 1.27076
555 1.19292
560 1.16001
565 0.6828
570 0.840072
575 1.30096
580 1.24456
585 1.2908
590 1.14041
595 0.92887
600 0.105702
Ex : 303
200 0.7507
205 0.852448
210 0.771508
215 1.01937
220 0.939862
225 0.730738
230 0.985201
235 0.974713
240 1.04067
245 0.912587
250 0.839695
255 0.8561
260 0.90787
265 0.984488
270 0.992562
275 0.940533
280 0.920163
285 0.972208
290 1.02548
295 1.03316
300 1.08266
305 0.902699
310 0.718459
315 0.735628
320 0.826375
325 0.883446
330 0.89545
335 1.05033
340 1.17169
345 1.13149
350 0.956153
355 1.22423
360 1.19536
365 1.37778
370 1.24096
375 1.1979
380 1.32983
385 1.00953
390 1.54528
395 1.26809
400 1.16649
405 1.45922
410 1.63023
415 1.39412
420 1.33837
425 1.06503
430 1.22593
435 1.22131
440 1.26974
445 1.17808
450 1.31233
455 1.09454
460 1.14477
465 1.07296
470 1.26326
475 0.916719
480 1.30678
485 0.990569
490 0.916051
495 1.07975
500 1.12865
505 0.866469
510 0.857354
515 0.760249
520 0.827857
525 1.14659
530 0.953359
535 1.01039
540 0.989813
545 0.899459
550 0.8959
555 1.07427
560 0.872473
565 1.0127
570 0.866214
575 0.916991
580 0.798078
585 0.789134
590 1.01809
595 1.19598
600 1.49147
Ex : 308
200 0.628316
205 0.716387
210 0.809268
215 0.695482
220 0.675483
225 0.752529
230 0.620691
235 0.995836
240 0.680504
245 0.738917
250 0.712284
255 0.750889
260 0.670636
265 0.765492
270 1.02488
275 0.903996
280 0.722469
285 0.850843
290 0.795513
295 0.791759
300 0.834011
305 0.883287
310 0.680626
315 0.837174
320 0.813922
325 1.18194
330 0.917103
335 0.879791
340 0.965122
345 0.868603
350 0.985601
355 0.889103
360 1.20487
365 1.10538
370 1.14044
375 1.15948
380 1.11034
385 1.4768
390 1.27519
395 1.36939
400 1.41722
405 1.3574
410 1.30072
415 1.36363
420 1.45678
425 1.46462
430 1.3081
435 1.16064
440 1.31707
445 1.5439
450 1.08491
455 1.18922
460 0.967297
465 1.11975
470 1.11521
475 1.09375
480 0.878902
485 0.923885
490 0.877871
495 0.721231
500 1.02385
505 0.685544
510 1.01931
515 1.07777
520 0.901805
525 0.756479
530 1.21249
535 0.826484
540 0.80857
545 0.820798
550 0.929896
555 0.78449
560 0.691429
565 0.771151
570 0.989896
575 0.728582
580 0.68136
585 0.666057
590 0.759193
595 0.718203
600 1.84248
Ex : 313
200 0.513454
205 0.530811
210 0.73422
215 0.831826
220 0.595768
225 0.678667
230 0.622453
235 0.674752
240 0.65937
245 0.615277
250 0.561321
255 0.747436
260 0.624781
265 0.773772
270 0.580009
275 0.59146
280 0.655511
285 0.590368
290 0.617239
295 0.851059
300 0.638525
305 0.859583
310 0.957425
315 0.800079
320 0.904837
325 1.00987
330 0.897445
335 1.13482
340 1.05865
345 0.840132
350 1.10659
355 0.970928
360 1.19495
365 1.34274
370 1.17701
375 1.17254
380 1.45458
385 1.42306
390 1.49576
395 1.37869
400 1.38146
405 1.68391
410 1.81089
415 1.53708
420 1.44873
425 1.83042
430 1.52945
435 1.56024
440 1.51248
445 1.35975
450 1.43679
455 1.27835
460 1.43266
465 1.36609
470 1.14321
475 1.16396
480 1.11862
485 1.2797
490 1.13065
495 0.855712
500 0.870266
505 0.840475
510 0.911684
515 0.785255
520 0.605625
525 0.794858
530 0.899884
535 0.907709
540 0.863972
545 0.705512
550 0.77685
555 0.654283
560 0.616443
565 0.73309
570 0.699617
575 0.671715
580 0.756269
585 0.585708
590 0.665826
595 0.693025
600 1.09598
Ex : 318
200 0.650377
205 0.744265
210 0.625676
215 0.638282
220 0.580856
225 0.61899
230 0.638315
235 0.580171
240 0.613737
245 0.611935
250 0.627665
255 0.741822
260 0.61508
265 0.638079
270 0.787611
275 0.484987
280 0.680732
285 0.463843
290 0.656359
295 0.582006
300 0.771612
305 0.729715
310 0.905549
315 1.51701
320 1.14609
325 1.07815
330 1.25435
335 1.58042
340 1.86678
345 2.23121
350 2.58485
355 3.27401
360 4.18624
365 4.63663
370 5.73789
375 6.63718
380 7.69918
385 8.04436
390 8.4173
395 9.08679
400 9.89695
405 9.67999
410 9.63698
415 9.74715
420 9.55677
425 9.34511
430 8.82971
435 8.20703
440 8.31037
445 8.24965
450 7.39412
455 7.07815
460 6.53047
465 6.34127
470 5.47208
475 5.43327
480 4.91337
485 4.64656
490 4.04867
495 3.34533
500 3.24792
505 3.08125
510 2.53243
515 2.26731
520 2.1337
525 1.78068
530 1.64471
535 1.58343
540 1.35163
545 1.24115
550 1.20429
555 1.23673
560 1.18473
565 1.07474
570 0.86889
575 0.966314
580 0.841959
585 0.666457
590 0.688418
595 0.4973
600 0.0565909
Ex : 323
200 0.554603
205 0.559465
210 0.485723
215 0.604148
220 0.550207
225 0.470706
230 0.494976
235 0.582054
240 0.460546
245 0.716663
250 0.583023
255 0.667586
260 0.606781
265 0.529441
270 0.458412
275 0.545439
280 0.731614
285 0.66105
290 0.62306
295 0.729444
300 0.674403
305 0.618951
310 0.740375
315 6.73393
320 30.0077
325 12.5294
330 3.48049
335 4.21194
340 4.78688
345 7.02089
350 9.32243
355 13.2179
360 15.7646
365 18.2318
370 21.3222
375 25.2305
380 28.3832
385 31.8328
390 34.3869
395 36.9897
400 37.6745
405 37.8123
410 39.4419
415 38.4014
420 37.1391
425 36.5642
430 35.1249
435 33.9992
440 31.8806
445 30.5451
450 28.4721
455 27.0729
460 26.0734
465 23.3371
470 21.5943
475 20.3609
480 17.8312
485 16.1359
490 14.491
495 13.5417
500 12.0949
505 10.2644
510 8.75667
515 7.49105
520 6.75917
525 6.10563
530 5.49445
535 4.65632
540 4.24624
545 3.74295
550 3.21191
555 2.85073
560 2.7498
565 2.04859
570 1.86898
575 1.57683
580 1.38704
585 1.07479
590 1.13562
595 0.908092
600 1.76808
Ex : 328
200 0.555976
205 0.621175
210 0.490308
215 0.540377
220 0.48553
225 0.504744
230 0.588511
235 0.543247
240 0.476072
245 0.452663
250 0.480521
255 0.556411
260 0.650777
265 0.626367
270 0.518769
275 0.634896
280 0.74167
285 0.577369
290 0.585982
295 0.431485
300 0.628446
305 0.50945
310 0.628324
315 2.02777
320 68.6666
325 161.052
330 48.1026
335 9.66908
340 6.80073
345 8.60822
350 10.3094
355 14.4155
360 19.4136
365 21.7531
370 25.0759
375 27.1052
380 31.5537
385 34.8792
390 38.0527
395 39.526
400 41.3448
405 42.5989
410 43.548
415 43.0746
420 40.9098
425 39.1626
430 37.8697
435 36.7845
440 35.0349
445 33.4227
450 31.431
455 29.4653
460 27.715
465 25.5877
470 23.1938
475 21.097
480 19.0139
485 17.7564
490 16.6514
495 14.1881
500 13.0929
505 11.3925
510 9.65013
515 8.28006
520 7.77137
525 6.57395
530 5.85412
535 5.56868
540 4.6336
545 4.08854
550 3.55031
555 3.24761
560 2.7726
565 2.35728
570 2.1544
575 1.74104
580 1.46268
585 1.27501
590 1.11245
595 0.966257
600 0.402854
Ex : 333
200 0.40193
205 0.460703
210 0.470893
215 0.704491
220 0.474091
225 0.404522
230 0.507509
235 0.440805
240 0.484493
245 0.512338
250 0.50246
255 0.469199
260 0.419434
265 0.647393
270 0.624288
275 0.53462
280 0.507439
285 0.497647
290 0.536739
295 0.686213
300 0.521847
305 0.562267
310 0.505137
315 0.71994
320 10.3158
325 192.397
330 315.294
335 81.1171
340 13.7749
345 7.1994
350 6.85556
355 7.74175
360 11.2979
365 16.4746
370 16.4204
375 17.1053
380 17.974
385 20.6861
390 23.2167
395 23.5648
400 24.3759
405 24.6349
410 25.0846
415 24.8493
420 24.1737
425 22.9552
430 22.1646
435 21.425
440 20.1371
445 18.7573
450 17.3549
455 16.4823
460 15.1203
465 14.1633
470 12.9072
475 12.1121
480 10.9567
485 10.1645
490 9.19303
495 8.52831
500 7.41203
505 6.88921
510 5.97184
515 5.35351
520 4.62142
525 4.12581
530 3.92525
535 3.32896
540 2.80703
545 3.14652
550 2.39659
555 2.51706
560 1.98312
565 1.82424
570 1.68405
575 1.1672
580 1.26431
585 0.968848
590 0.868762
595 0.948541
600 0.473246
Ex : 338
200 0.429408
205 0.400203
210 0.455512
215 0.346146
220 0.446512
225 0.450105
230 0.438325
235 0.411796
240 0.358029
245 0.355298
250 0.397312
255 0.443533
260 0.38237
265 0.490863
270 0.436875
275 0.498065
280 0.62015
285 0.56812
290 0.425856
295 0.471599
300 0.515112
305 0.555245
310 0.437327
315 0.659124
320 0.74364
325 18.0504
330 280.522
335 399.644
340 97.306
345 14.6271
350 6.07336
355 5.17304
360 5.23277
365 7.53081
370 11.0793
375 11.3243
380 11.0299
385 11.2923
390 12.4088
395 13.2494
400 13.5611
405 13.8027
410 14.362
415 14.6664
420 13.6428
425 12.988
430 12.304
435 11.7064
440 11.4752
445 11.1634
450 9.82973
455 9.69726
460 8.70018
465 8.29521
470 7.5459
475 7.14422
480 6.58276
485 6.10742
490 5.58927
495 5.36406
500 4.61025
505 4.30415
510 4.02732
515 3.67208
520 3.17432
525 2.83257
530 2.76324
535 2.40175
540 2.07472
545 2.00701
550 1.79309
555 1.60027
560 1.6319
565 1.30767
570 1.20206
575 1.19875
580 0.963099
585 0.980826
590 0.802358
595 0.819397
600 0.302487
Ex : 343
200 0.40129
205 0.435172
210 0.447341
215 0.46709
220 0.440644
225 0.482838
230 0.396418
235 0.43626
240 0.408009
245 0.439149
250 0.366367
255 0.41863
260 0.4775
265 0.471391
270 0.407904
275 0.486065
280 0.464298
285 0.457531
290 0.359641
295 0.377029
300 0.4763
305 0.510186
310 0.562556
315 0.442871
320 0.575957
325 0.913274
330 21.1837
335 314.008
340 441.787
345 105.33
350 15.173
355 4.91532
360 3.68614
365 3.17227
370 4.22319
375 8.23923
380 10.3639
385 9.77805
390 9.86987
395 9.90836
400 10.0248
405 9.9351
410 10.7837
415 11.3774
420 10.5562
425 10.0218
430 9.54766
435 9.39094
440 8.60481
445 8.34762
450 7.71819
455 7.63182
460 6.8866
465 6.46712
470 6.13677
475 6.04964
480 5.74451
485 5.03138
490 4.61355
495 4.19411
500 3.87033
505 3.81918
510 3.18457
515 3.18158
520 2.78327
525 2.39622
530 2.19668
535 2.23496
540 2.10496
545 1.7833
550 1.70612
555 1.68468
560 1.34422
565 1.18106
570 1.11916
575 1.04371
580 0.860689
585 0.972499
590 0.752363
595 0.757634
600 0.966665
Ex : 348
200 0.265709
205 0.335156
210 0.47278
215 0.48043
220 0.449843
225 0.365182
230 0.344958
235 0.395236
240 0.461984
245 0.398553
250 0.32847
255 0.434148
260 0.36502
265 0.432566
270 0.366096
275 0.352716
280 0.414806
285 0.376268
290 0.412206
295 0.445308
300 0.384128
305 0.393841
310 0.443134
315 0.418703
320 0.538456
325 0.603189
330 0.878249
335 20.4848
340 313.39
345 458.415
350 114.962
355 15.8763
360 4.65286
365 3.24491
370 2.64287
375 3.50562
380 7.3004
385 11.5794
390 12.363
395 11.2349
400 9.96537
405 10.3312
410 12.1085
415 12.4964
420 12.2014
425 10.8227
430 9.93602
435 9.64047
440 9.47859
445 8.92314
450 8.53217
455 7.52235
460 7.29479
465 6.91792
470 6.42092
475 6.08001
480 5.52957
485 5.24544
490 4.83063
495 4.73869
500 4.07152
505 3.82693
510 3.36761
515 2.9355
520 2.68162
525 2.47391
530 2.41082
535 2.21108
540 2.09085
545 1.7985
550 1.60083
555 1.56498
560 1.33093
565 1.15767
570 1.11278
575 1.03244
580 0.907284
585 0.812336
590 0.708626
595 0.679384
600 2.00892
Ex : 353
200 0.366565
205 0.459396
210 0.390784
215 0.390702
220 0.364576
225 0.416004
230 0.393005
235 0.316058
240 0.45592
245 0.359963
250 0.311461
255 0.403909
260 0.302941
265 0.425574
270 0.403969
275 0.290371
280 0.389219
285 0.420778
290 0.299772
295 0.355667
300 0.335522
305 0.463161
310 0.532361
315 0.521803
320 0.502776
325 0.502424
330 0.544864
335 0.908408
340 21.2844
345 318.804
350 449.869
355 109.446
360 15.0276
365 4.33633
370 3.17817
375 2.57334
380 3.63403
385 8.06107
390 13.4331
395 13.6547
400 11.1832
405 10.7059
410 11.708
415 12.7577
420 12.5153
425 11.322
430 10.2545
435 10.1162
440 9.88356
445 9.77961
450 9.18121
455 8.31063
460 7.77796
465 7.18914
470 6.95613
475 6.6085
480 6.17672
485 5.40972
490 5.13326
495 4.69066
500 4.282
505 3.96893
510 3.3248
515 3.26679
520 2.96618
525 2.48808
530 2.19934
535 2.2319
540 1.93866
545 1.83817
550 1.59964
555 1.44275
560 1.37399
565 1.396
570 1.05659
575 1.05151
580 0.936392
585 0.746574
590 0.774004
595 0.70623
600 0.932297
Ex : 358
200 0.318288
205 0.332242
210 0.27935
215 0.351922
220 0.299974
225 0.339059
230 0.345266
235 0.402715
240 0.352443
245 0.373596
250 0.333019
255 0.373329
260 0.29991
265 0.307461
270 0.427332
275 0.358261
280 0.327872
285 0.424098
290 0.352568
295 0.344047
300 0.286117
305 0.290994
310 0.247772
315 0.326826
320 0.414237
325 0.49858
330 0.43085
335 0.60746
340 0.874257
345 19.6779
350 301.511
355 448.559
360 110.308
365 14.7246
370 4.04862
375 3.08755
380 3.4412
385 5.14981
390 9.08288
395 13.7106
400 13.0347
405 11.3816
410 11.4161
415 12.2822
420 11.7741
425 11.0061
430 9.86757
435 9.67401
440 10.1088
445 9.29458
450 8.9102
455 7.82484
460 7.44747
465 6.9646
470 7.06398
475 6.57462
480 5.96426
485 5.47226
490 4.94991
495 4.66091
500 4.46602
505 3.91869
510 3.8536
515 3.38043
520 3.03563
525 2.74152
530 2.48281
535 2.28931
540 2.03248
545 1.8056
550 1.77995
555 1.56361
560 1.39116
565 1.34825
570 1.09847
575 1.01978
580 0.907566
585 0.674346
590 0.675138
595 0.757061
600 0.554507
Ex : 363
200 0.347861
205 0.306921
210 0.322632
215 0.295596
220 0.218357
225 0.321578
230 0.297789
235 0.283619
240 0.312532
245 0.27439
250 0.419844
255 0.349277
260 0.349331
265 0.32196
270 0.302816
275 0.344456
280 0.433981
285 0.347761
290 0.359002
295 0.378009
300 0.317516
305 0.280736
310 0.290126
315 0.394865
320 0.322922
325 0.412334
330 0.437051
335 0.59746
340 0.532581
345 1.09059
350 18.2007
355 290.913
360 443.927
365 113.935
370 15.3024
375 4.05182
380 4.10702
385 6.38409
390 8.14492
395 10.0006
400 12.7403
405 14.3211
410 14.0572
415 14.5332
420 12.6672
425 11.377
430 10.6468
435 10.4063
440 11.2161
445 10.7486
450 9.77083
455 8.95496
460 8.3243
465 7.80641
470 7.4177
475 7.0411
480 6.54383
485 5.6564
490 5.36562
495 4.9705
500 4.67309
505 4.33547
510 3.71457
515 3.34691
520 3.052
525 2.8553
530 2.72848
535 2.50225
540 2.07642
545 1.9543
550 1.59596
555 1.46053
560 1.48834
565 1.35694
570 1.12973
575 1.03324
580 0.821428
585 0.737051
590 0.576963
595 0.57197
600 0.479814
Ex : 368
200 0.327241
205 0.229796
210 0.316811
215 0.407704
220 0.318962
225 0.241034
230 0.252983
235 0.231166
240 0.404874
245 0.303708
250 0.308049
255 0.257109
260 0.252876
265 0.293824
270 0.29732
275 0.334738
280 0.343438
285 0.291501
290 0.435459
295 0.299442
300 0.243536
305 0.337093
310 0.321526
315 0.301836
320 0.334637
325 0.399162
330 0.527687
335 0.422272
340 0.43076
345 0.589525
350 0.898057
355 15.0895
360 277.71
365 447.022
370 117.644
375 15.8203
380 5.25165
385 7.38609
390 10.5159
395 11.6898
400 11.0218
405 14.3116
410 18.8865
415 18.6859
420 16.5477
425 13.7506
430 12.2194
435 12.9003
440 12.7742
445 12.009
450 10.8655
455 10.0577
460 9.15842
465 8.79979
470 8.14262
475 7.46939
480 7.08548
485 6.4051
490 5.91966
495 5.2875
500 5.04737
505 4.61517
510 4.13971
515 3.65738
520 3.09669
525 2.85632
530 2.50398
535 2.35192
540 2.32421
545 1.88061
550 1.6975
555 1.45744
560 1.47646
565 1.37242
570 1.14862
575 0.934494
580 0.702376
585 0.849493
590 0.668488
595 0.596122
600 0.472844
Ex : 373
200 0.331912
205 0.267959
210 0.274274
215 0.286066
220 0.253402
225 0.311787
230 0.312763
235 0.23679
240 0.269276
245 0.305323
250 0.277887
255 0.278954
260 0.316351
265 0.258532
270 0.243679
275 0.249782
280 0.225611
285 0.230161
290 0.296594
295 0.275278
300 0.357321
305 0.337763
310 0.285907
315 0.316576
320 0.285702
325 0.320539
330 0.353482
335 0.408112
340 0.44595
345 0.530611
350 0.665944
355 0.86884
360 16.8943
365 279.107
370 438.601
375 115.208
380 16.2196
385 6.78235
390 10.4389
395 12.2542
400 11.1955
405 10.5738
410 14.558
415 19.4856
420 17.7135
425 14.2023
430 12.2502
435 11.8384
440 11.9951
445 11.8217
450 10.8274
455 9.83234
460 8.96707
465 8.04334
470 7.89041
475 7.51591
480 6.66909
485 6.30925
490 5.55014
495 4.94971
500 4.81344
505 4.26469
510 3.90639
515 3.69537
520 3.17053
525 2.91162
530 2.58262
535 2.34354
540 2.20455
545 2.03957
550 1.87753
555 1.62332
560 1.51513
565 1.49229
570 1.13298
575 1.06118
580 0.9838
585 0.723009
590 0.613598
595 0.552994
600 0.66007
Ex : 378
200 0.319826
205 0.263153
210 0.26543
215 0.293622
220 0.244566
225 0.306631
230 0.284436
235 0.247352
240 0.332286
245 0.272921
250 0.244948
255 0.27752
260 0.248341
265 0.267537
270 0.253097
275 0.275471
280 0.293129
285 0.285729
290 0.230672
295 0.29376
300 0.293041
305 0.264131
310 0.287981
315 0.280058
320 0.340144
325 0.32043
330 0.339273
335 0.40739
340 0.446283
345 0.419713
350 0.419407
355 0.546876
360 0.807243
365 16.0861
370 278.4
375 441.873
380 117.014
385 17.8076
390 8.99356
395 9.52809
400 8.40702
405 8.356
410 9.55156
415 12.7324
420 15.0927
425 12.9286
430 11.0561
435 10.0772
440 10.0682
445 9.63703
450 8.55399
455 7.87712
460 7.20542
465 7.25755
470 6.93519
475 6.4806
480 6.01275
485 5.58573
490 5.19003
495 4.85053
500 4.59358
505 4.28754
510 3.8041
515 3.51951
520 3.0566
525 2.60079
530 2.38711
535 2.30457
540 2.10766
545 1.93748
550 1.76044
555 1.72963
560 1.3728
565 1.31535
570 1.16312
575 0.944849
580 0.79484
585 0.660935
590 0.669757
595 0.601251
600 0.778104
Ex : 383
200 0.212839
205 0.223723
210 0.252228
215 0.298781
220 0.241009
225 0.255902
230 0.241615
235 0.285899
240 0.27767
245 0.218795
250 0.276542
255 0.280587
260 0.32534
265 0.233726
270 0.203145
275 0.25736
280 0.203779
285 0.2827
290 0.290252
295 0.227098
300 0.261539
305 0.356115
310 0.23639
315 0.296589
320 0.269989
325 0.39141
330 0.383607
335 0.330276
340 0.327942
345 0.338017
350 0.462666
355 0.497238
360 0.550729
365 0.784406
370 14.3498
375 270.249
380 451.424
385 122.347
390 21.0482
395 9.43951
400 8.27371
405 8.71603
410 10.2805
415 11.2443
420 10.9511
425 12.5241
430 12.4771
435 11.0804
440 10.3873
445 9.70587
450 8.6397
455 7.80571
460 7.20833
465 6.99008
470 6.83006
475 6.50427
480 6.15071
485 5.61524
490 5.18785
495 4.8049
500 4.53137
505 4.1398
510 3.80452
515 3.18214
520 3.09022
525 2.81921
530 2.63562
535 2.35629
540 2.04868
545 1.86678
550 1.76202
555 1.57123
560 1.396
565 1.28831
570 1.14516
575 0.993993
580 0.782289
585 0.618476
590 0.592683
595 0.613627
600 0.500767
Ex : 388
200 0.234307
205 0.266349
210 0.202427
215 0.21958
220 0.223887
225 0.246163
230 0.263524
235 0.236734
240 0.259172
245 0.257831
250 0.251973
255 0.249904
260 0.263377
265 0.224804
270 0.244608
275 0.220655
280 0.266327
285 0.271119
290 0.238636
295 0.322637
300 0.277687
305 0.283511
310 0.244525
315 0.277255
320 0.258373
325 0.262976
330 0.261691
335 0.299016
340 0.245921
345 0.298106
350 0.249495
355 0.352432
360 0.4921
365 0.479428
370 0.844741
375 15.9824
380 276.716
385 448.616
390 122.715
395 22.6185
400 10.3112
405 10.3379
410 12.3103
415 13.243
420 12.5003
425 11.1667
430 12.5452
435 13.7903
440 12.3609
445 11.3631
450 9.84855
455 8.19884
460 7.64762
465 7.4091
470 7.28035
475 6.87813
480 6.11709
485 5.92883
490 5.33078
495 5.17662
500 4.73225
505 4.08884
510 3.86669
515 3.6049
520 3.16491
525 3.00019
530 2.38757
535 2.37657
540 2.19373
545 1.91788
550 1.71744
555 1.59883
560 1.43968
565 1.24741
570 1.12113
575 0.986361
580 0.740703
585 0.674135
590 0.584973
595 0.525935
600 0.54659
Ex : 393
200 0.225664
205 0.257269
210 0.217636
215 0.238777
220 0.256771
225 0.302593
230 0.24926
235 0.229953
240 0.190001
245 0.215263
250 0.256433
255 0.221443
260 0.262597
265 0.228392
270 0.293483
275 0.198465
280 0.214457
285 0.265428
290 0.232815
295 0.239788
300 0.231017
305 0.268262
310 0.232229
315 0.209392
320 0.251393
325 0.258083
330 0.286479
335 0.220553
340 0.246951
345 0.287044
350 0.346305
355 0.366341
360 0.353656
365 0.512044
370 0.505356
375 0.890184
380 13.9784
385 271.685
390 456.394
395 128.441
400 23.4639
405 10.4986
410 10.9168
415 13.3562
420 13.3258
425 10.9518
430 9.38369
435 10.198
440 13.0591
445 11.9356
450 10.1223
455 8.64728
460 7.57131
465 7.05629
470 6.78089
475 6.24249
480 5.93172
485 5.60451
490 5.01195
495 4.85466
500 4.57545
505 4.10742
510 3.79522
515 3.36296
520 2.97565
525 2.7727
530 2.57389
535 2.37048
540 2.00729
545 1.85686
550 1.79896
555 1.55638
560 1.3818
565 1.27803
570 0.98415
575 0.870992
580 0.747742
585 0.630856
590 0.556397
595 0.554886
600 0.38798
Ex : 398
200 0.147553
205 0.253825
210 0.214656
215 0.203001
220 0.239133
225 0.237195
230 0.179417
235 0.198435
240 0.18291
245 0.249102
250 0.194309
255 0.2569
260 0.270313
265 0.28389
270 0.298203
275 0.278648
280 0.204411
285 0.191785
290 0.216836
295 0.224682
300 0.244022
305 0.230044
310 0.328363
315 0.259402
320 0.207536
325 0.263876
330 0.276704
335 0.299385
340 0.293222
345 0.326462
350 0.260108
355 0.290096
360 0.289091
365 0.364427
370 0.488926
375 0.465788
380 0.933693
385 14.8539
390 274.187
395 459.287
400 123.889
405 19.3281
410 7.91326
415 8.46648
420 8.92762
425 7.72148
430 6.35148
435 6.32779
440 7.4666
445 9.98804
450 9.07887
455 7.28116
460 6.30115
465 5.40798
470 5.30848
475 5.34197
480 5.00334
485 4.79882
490 4.43751
495 4.25019
500 3.86002
505 3.68182
510 3.31361
515 2.95508
520 2.7544
525 2.50282
530 2.57414
535 2.18243
540 1.94997
545 1.71381
550 1.59274
555 1.5121
560 1.24278
565 1.01941
570 0.982313
575 0.92164
580 0.692133
585 0.632873
590 0.503141
595 0.405313
600 0.49953
Ex : 403
200 0.217685
205 0.216465
210 0.232425
215 0.232467
220 0.239091
225 0.257012
230 0.248274
235 0.189368
240 0.214575
245 0.217567
250 0.208807
255 0.218976
260 0.190304
265 0.253692
270 0.180641
275 0.299347
280 0.254843
285 0.194878
290 0.1897
295 0.234085
300 0.209757
305 0.258497
310 0.338205
315 0.274321
320 0.259849
325 0.224118
330 0.256271
335 0.247541
340 0.254519
345 0.304134
350 0.243098
355 0.258559
360 0.298005
365 0.309801
370 0.312166
375 0.3591
380 0.55811
385 0.932549
390 16.7075
395 278.318
400 448.809
405 120.475
410 17.2902
415 5.99085
420 5.13302
425 4.84367
430 4.09249
435 4.12598
440 4.5803
445 5.09741
450 7.29753
455 7.40608
460 5.97472
465 5.42973
470 4.81572
475 4.53489
480 4.27022
485 4.21615
490 4.06899
495 3.83404
500 3.32908
505 3.46243
510 3.09775
515 2.72186
520 2.66991
525 2.55791
530 2.27484
535 2.10638
540 1.95432
545 1.73627
550 1.56689
555 1.5093
560 1.34814
565 1.1215
570 1.06583
575 0.847077
580 0.710895
585 0.735927
590 0.546757
595 0.43359
600 0.0673349
Ex : 408
200 0.191277
205 0.213871
210 0.173245
215 0.252625
220 0.228496
225 0.214063
230 0.278079
235 0.203246
240 0.232214
245 0.230751
250 0.235477
255 0.270737
260 0.213635
265 0.213438
270 0.210082
275 0.259129
280 0.275612
285 0.193258
290 0.187868
295 0.247619
300 0.219526
305 0.219594
310 0.215166
315 0.270378
320 0.224873
325 0.199953
330 0.265598
335 0.249988
340 0.270401
345 0.336081
350 0.260732
355 0.343075
360 0.341038
365 0.302372
370 0.379638
375 0.323082
380 0.401947
385 0.586722
390 0.902019
395 15.0072
400 278.269
405 452.563
410 117.318
415 16.9871
420 5.53612
425 4.21971
430 4.22316
435 4.15721
440 4.32078
445 4.47696
450 4.64568
455 6.05826
460 7.47533
465 6.18218
470 5.32259
475 4.89104
480 4.3554
485 4.00053
490 3.90483
495 3.73649
500 3.63684
505 3.23967
510 3.08675
515 2.94248
520 2.8021
525 2.43582
530 2.27863
535 1.96615
540 2.03212
545 1.83388
550 1.58761
555 1.43384
560 1.29432
565 1.00007
570 0.918811
575 0.835936
580 0.735134
585 0.601025
590 0.624382
595 0.524497
600 0.699555
Ex : 413
200 0.185139
205 0.227914
210 0.169522
215 0.187117
220 0.183731
225 0.209781
230 0.202106
235 0.217294
240 0.209593
245 0.180389
250 0.203439
255 0.177883
260 0.275322
265 0.245715
270 0.249389
275 0.197523
280 0.210944
285 0.201946
290 0.290398
295 0.210965
300 0.268509
305 0.178338
310 0.151529
315 0.193048
320 0.185528
325 0.279826
330 0.273049
335 0.279822
340 0.222563
345 0.230395
350 0.250254
355 0.212954
360 0.268434
365 0.287942
370 0.296478
375 0.340577
380 0.381671
385 0.485301
390 0.531862
395 0.838293
400 16.7683
405 285.316
410 447.839
415 114.244
420 16.6286
425 4.81649
430 3.77812
435 4.1168
440 4.35131
445 4.14283
450 3.86293
455 3.91712
460 4.69507
465 6.67192
470 6.03802
475 4.80968
480 4.60969
485 4.06511
490 3.62211
495 3.49571
500 3.39692
505 3.15243
510 3.03606
515 2.72878
520 2.59551
525 2.42808
530 2.18904
535 1.9191
540 1.78034
545 1.56613
550 1.45624
555 1.35396
560 1.23989
565 1.07478
570 0.969351
575 0.857907
580 0.772087
585 0.655787
590 0.508402
595 0.411431
600 0.606217
Ex : 418
200 0.212268
205 0.200991
210 0.229322
215 0.19854
220 0.182452
225 0.24339
230 0.238339
235 0.266862
240 0.208069
245 0.191895
250 0.165595
255 0.175577
260 0.284275
265 0.18005
270 0.248817
275 0.183093
280 0.233502
285 0.189636
290 0.313618
295 0.228547
300 0.20528
305 0.203486
310 0.25343
315 0.239668
320 0.230175
325 0.184304
330 0.225017
335 0.206441
340 0.21095
345 0.213279
350 0.232395
355 0.272034
360 0.197632
365 0.279041
370 0.246202
375 0.310545
380 0.388409
385 0.360076
390 0.384994
395 0.462678
400 0.805421
405 15.3318
410 278.427
415 446.957
420 116.977
425 15.8325
430 4.01269
435 2.72935
440 3.17237
445 3.03161
450 2.80454
455 2.72656
460 2.85584
465 3.64518
470 5.31968
475 5.40778
480 4.43872
485 3.97288
490 3.54947
495 3.07734
500 2.841
505 2.88131
510 2.67133
515 2.43843
520 2.19615
525 2.2186
530 2.03405
535 1.9281
540 1.71657
545 1.62407
550 1.43011
555 1.22719
560 1.13224
565 1.03381
570 0.962131
575 0.828352
580 0.780815
585 0.57505
590 0.464955
595 0.442762
600 0.340943
Ex : 423
200 0.241417
205 0.284985
210 0.250579
215 0.27887
220 0.252604
225 0.228755
230 0.193341
235 0.274933
240 0.213785
245 0.196618
250 0.232217
255 0.219935
260 0.212616
265 0.222845
270 0.202808
275 0.193921
280 0.289868
285 0.221293
290 0.186633
295 0.189939
300 0.284198
305 0.239578
310 0.192022
315 0.20462
320 0.189944
325 0.313119
330 0.240784
335 0.204114
340 0.222773
345 0.245943
350 0.237132
355 0.321875
360 0.275323
365 0.246705
370 0.331328
375 0.334494
380 0.285901
385 0.331384
390 0.370899
395 0.443213
400 0.601459
405 0.892265
410 16.3805
415 287.644
420 442.757
425 109.196
430 14.3096
435 3.22677
440 2.20735
445 2.33848
450 2.25639
455 2.21258
460 2.10147
465 2.13268
470 2.73465
475 4.67531
480 5.15812
485 3.93159
490 3.49476
495 3.18278
500 2.70834
505 2.46628
510 2.4494
515 2.25302
520 2.23002
525 2.03633
530 1.79638
535 1.71346
540 1.5991
545 1.52222
550 1.33766
555 1.22505
560 1.11862
565 0.99697
570 0.892509
575 0.83793
580 0.780347
585 0.591725
590 0.528076
595 0.423257
600 0.51869
Ex : 428
200 0.207443
205 0.164712
210 0.233818
215 0.190507
220 0.269753
225 0.198635
230 0.25195
235 0.197847
240 0.209005
245 0.178113
250 0.226323
255 0.164969
260 0.240947
265 0.220025
270 0.198467
275 0.223177
280 0.219505
285 0.220109
290 0.202989
295 0.239276
300 0.241631
305 0.169632
310 0.240299
315 0.274354
320 0.224919
325 0.260703
330 0.267118
335 0.229065
340 0.232482
345 0.280046
350 0.174813
355 0.282158
360 0.224484
365 0.257721
370 0.267288
375 0.217458
380 0.267618
385 0.274983
390 0.337399
395 0.373833
400 0.409849
405 0.518792
410 0.840998
415 17.1336
420 283.215
425 437.703
430 111.363
435 14.4803
440 3.20159
445 1.83081
450 1.95263
455 2.17434
460 1.88007
465 1.81549
470 1.9543
475 2.20353
480 3.41736
485 4.9972
490 4.08658
495 3.2219
500 2.96774
505 2.52159
510 2.06272
515 2.11722
520 2.12124
525 1.90971
530 1.88971
535 1.61229
540 1.54858
545 1.47872
550 1.34566
555 1.20869
560 1.19933
565 1.07224
570 0.935829
575 0.817533
580 0.677116
585 0.519977
590 0.575272
595 0.485695
600 0.516215
Ex : 433
200 0.195887
205 0.210493
210 0.257908
215 0.179775
220 0.174678
225 0.236027
230 0.184484
235 0.247795
240 0.241664
245 0.189523
250 0.244114
255 0.196504
260 0.199038
265 0.228023
270 0.245469
275 0.296511
280 0.214281
285 0.213433
290 0.22913
295 0.229294
300 0.271589
305 0.203052
310 0.252169
315 0.33435
320 0.267678
325 0.289106
330 0.251909
335 0.238741
340 0.20282
345 0.227052
350 0.229688
355 0.249338
360 0.223713
365 0.289961
370 0.217689
375 0.227699
380 0.246992
385 0.292032
390 0.384057
395 0.353767
400 0.328949
405 0.46186
410 0.485776
415 0.894427
420 19.1949
425 305.991
430 448.793
435 109.755
440 14.1095
445 2.95621
450 1.76994
455 1.96624
460 2.0316
465 1.93384
470 1.70956
475 1.97859
480 2.16554
485 2.86988
490 4.70314
495 4.21763
500 2.89723
505 2.82378
510 2.36242
515 1.96856
520 2.02677
525 1.8134
530 1.83878
535 1.62912
540 1.59773
545 1.42579
550 1.39598
555 1.3058
560 1.20716
565 1.07353
570 0.943682
575 0.832549
580 0.728217
585 0.654134
590 0.474584
595 0.450147
600 0.619847
Ex : 438
200 0.23555
205 0.184597
210 0.197643
215 0.183671
220 0.196336
225 0.203482
230 0.206956
235 0.195438
240 0.253257
245 0.218391
250 0.212197
255 0.272667
260 0.264464
265 0.266002
270 0.304959
275 0.243369
280 0.195449
285 0.204316
290 0.257179
295 0.188109
300 0.242957
305 0.225196
310 0.183586
315 0.218676
320 0.180498
325 0.239678
330 0.181595
335 0.161427
340 0.26709
345 0.231823
350 0.213911
355 0.23982
360 0.252678
365 0.240372
370 0.256228
375 0.259913
380 0.260783
385 0.238254
390 0.300101
395 0.330916
400 0.355309
405 0.358827
410 0.427278
415 0.562347
420 0.804571
425 18.1046
430 296.187
435 459.776
440 112.185
445 14.4096
450 2.9574
455 1.55728
460 1.8424
465 1.98654
470 1.84119
475 1.69641
480 1.74166
485 1.89771
490 2.31304
495 3.91988
500 4.16482
505 2.90538
510 2.46703
515 2.33268
520 2.04329
525 1.73693
530 1.7557
535 1.67615
540 1.56929
545 1.49477
550 1.28985
555 1.35088
560 1.19344
565 1.08749
570 0.959219
575 0.83412
580 0.68589
585 0.643691
590 0.579765
595 0.511922
600 0.577961
Ex : 443
200 0.237839
205 0.20551
210 0.242186
215 0.263092
220 0.238723
225 0.199942
230 0.254892
235 0.235709
240 0.281922
245 0.251372
250 0.277334
255 0.250673
260 0.208799
265 0.24493
270 0.246363
275 0.215059
280 0.214909
285 0.214393
290 0.19395
295 0.207929
300 0.252062
305 0.20229
310 0.187768
315 0.265912
320 0.201865
325 0.194886
330 0.289269
335 0.227403
340 0.269757
345 0.248797
350 0.261276
355 0.245883
360 0.321973
365 0.342789
370 0.215973
375 0.20721
380 0.314257
385 0.281783
390 0.232817
395 0.327348
400 0.281836
405 0.31738
410 0.287565
415 0.506512
420 0.473947
425 0.85879
430 19.358
435 311.082
440 460.486
445 112.557
450 14.4196
455 3.0891
460 1.68367
465 1.74192
470 1.9846
475 1.90629
480 1.71016
485 1.70135
490 1.78975
495 2.04375
500 3.39401
505 4.21533
510 3.11867
515 2.5971
520 2.2845
525 1.81983
530 1.69708
535 1.59102
540 1.49293
545 1.35062
550 1.41257
555 1.21946
560 1.14619
565 1.05614
570 0.921597
575 0.902728
580 0.74604
585 0.587723
590 0.552359
595 0.472064
600 0.218169
Ex : 448
200 0.293468
205 0.252429
210 0.236334
215 0.232244
220 0.250163
225 0.254808
230 0.273784
235 0.260122
240 0.202658
245 0.223367
250 0.172232
255 0.22438
260 0.23738
265 0.271739
270 0.229086
275 0.222143
280 0.199547
285 0.223128
290 0.211918
295 0.225822
300 0.162998
305 0.136811
310 0.20738
315 0.21593
320 0.263822
325 0.216962
330 0.194106
335 0.204378
340 0.25281
345 0.180745
350 0.250292
355 0.276823
360 0.240945
365 0.251574
370 0.211624
375 0.224326
380 0.303338
385 0.287854
390 0.257442
395 0.375144
400 0.274212
405 0.339995
410 0.267386
415 0.474398
420 0.466808
425 0.60863
430 0.85271
435 19.8126
440 325.629
445 477.01
450 115.934
455 14.8132
460 3.07427
465 1.66675
470 1.75236
475 2.00089
480 1.82984
485 1.58277
490 1.56241
495 1.82413
500 1.84158
505 2.82272
510 3.80347
515 3.37405
520 2.51556
525 2.19371
530 2.05698
535 1.6692
540 1.4397
545 1.51699
550 1.26834
555 1.32305
560 1.09302
565 0.976227
570 0.949158
575 0.805022
580 0.702148
585 0.605806
590 0.524997
595 0.519662
600 0.671256
Ex : 453
200 0.246745
205 0.196507
210 0.204797
215 0.167945
220 0.217254
225 0.223261
230 0.24511
235 0.186639
240 0.205182
245 0.252752
250 0.201902
255 0.222337
260 0.259588
265 0.204649
270 0.262138
275 0.26068
280 0.184001
285 0.220448
290 0.217775
295 0.239617
300 0.263795
305 0.243014
310 0.175879
315 0.238863
320 0.23188
325 0.201938
330 0.220531
335 0.243743
340 0.224504
345 0.242572
350 0.2113
355 0.219722
360 0.224678
365 0.253937
370 0.231901
375 0.234421
380 0.293235
385 0.295971
390 0.269063
395 0.205475
400 0.281132
405 0.344078
410 0.348405
415 0.345909
420 0.344299
425 0.48923
430 0.573063
435 0.84252
440 20.5076
445 341.403
450 488.343
455 112.891
460 14.3369
465 3.08557
470 1.63724
475 1.76758
480 1.93282
485 1.90142
490 1.50093
495 1.58539
500 1.50235
505 1.61542
510 2.17287
515 3.44685
520 3.35681
525 2.19023
530 2.12763
535 1.89663
540 1.69134
545 1.42643
550 1.25241
555 1.24215
560 1.17653
565 0.999179
570 0.867034
575 0.767824
580 0.722423
585 0.625362
590 0.488637
595 0.443114
600 0.322003
Ex : 458
200 0.215582
205 0.229167
210 0.233841
215 0.241906
220 0.194615
225 0.232342
230 0.231186
235 0.204162
240 0.289144
245 0.274002
250 0.221854
255 0.195547
260 0.185115
265 0.247825
270 0.239027
275 0.208926
280 0.268155
285 0.277201
290 0.227239
295 0.172555
300 0.207076
305 0.222553
310 0.200707
315 0.22945
320 0.18641
325 0.181228
330 0.188984
335 0.203207
340 0.195615
345 0.264628
350 0.267119
355 0.240705
360 0.222699
365 0.190438
370 0.241159
375 0.210659
380 0.266471
385 0.331842
390 0.304341
395 0.28214
400 0.256545
405 0.309671
410 0.260446
415 0.306248
420 0.321174
425 0.369266
430 0.486812
435 0.521947
440 0.8714
445 22.1122
450 352.144
455 505.637
460 119.885
465 15.1795
470 3.23509
475 1.68162
480 1.62501
485 1.89954
490 1.78741
495 1.49019
500 1.40965
505 1.4279
510 1.45953
515 1.77151
520 2.73673
525 3.67783
530 2.68409
535 2.14955
540 1.9095
545 1.67575
550 1.2929
555 1.3104
560 1.17247
565 1.08701
570 0.986784
575 0.828116
580 0.728356
585 0.614891
590 0.564556
595 0.469255
600 0.291306
Ex : 463
200 0.237534
205 0.17693
210 0.258349
215 0.224527
220 0.169771
225 0.235665
230 0.173959
235 0.19713
240 0.242823
245 0.212558
250 0.180381
255 0.218246
260 0.200744
265 0.218804
270 0.210638
275 0.222984
280 0.177492
285 0.241432
290 0.202211
295 0.190481
300 0.211167
305 0.19189
310 0.217182
315 0.192767
320 0.235263
325 0.201005
330 0.205992
335 0.212124
340 0.232041
345 0.203553
350 0.220521
355 0.198782
360 0.21403
365 0.246373
370 0.236747
375 0.261222
380 0.203127
385 0.23716
390 0.216694
395 0.250979
400 0.27697
405 0.254321
410 0.277409
415 0.232851
420 0.334607
425 0.337916
430 0.403104
435 0.461645
440 0.623293
445 0.914615
450 21.6184
455 362.636
460 536.774
465 127.382
470 16.0733
475 3.2673
480 1.62712
485 1.49802
490 1.54653
495 1.71076
500 1.52766
505 1.37166
510 1.44492
515 1.5366
520 1.70111
525 2.35039
530 3.2891
535 2.83449
540 1.96312
545 1.79996
550 1.56321
555 1.36278
560 1.20662
565 1.013
570 0.968447
575 0.857823
580 0.713944
585 0.629016
590 0.515048
595 0.50328
600 1.22773
Ex : 468
200 0.198144
205 0.209515
210 0.19439
215 0.253671
220 0.219119
225 0.166914
230 0.212268
235 0.212973
240 0.165507
245 0.184769
250 0.209326
255 0.240049
260 0.224935
265 0.163604
270 0.177549
275 0.188832
280 0.193256
285 0.172469
290 0.195751
295 0.203302
300 0.234196
305 0.187654
310 0.205759
315 0.200847
320 0.199905
325 0.216412
330 0.176154
335 0.177201
340 0.206781
345 0.225161
350 0.162813
355 0.211472
360 0.225399
365 0.188127
370 0.215578
375 0.255214
380 0.22406
385 0.220955
390 0.22471
395 0.286353
400 0.303455
405 0.232767
410 0.267074
415 0.290145
420 0.295707
425 0.308017
430 0.344375
435 0.362022
440 0.417302
445 0.500127
450 0.886149
455 23.1207
460 362.071
465 555.49
470 131.452
475 16.5082
480 3.29693
485 1.59181
490 1.38647
495 1.66474
500 1.7219
505 1.3632
510 1.29883
515 1.44848
520 1.40611
525 1.44709
530 1.94105
535 2.77675
540 2.97603
545 2.01872
550 1.7786
555 1.62092
560 1.28611
565 1.14318
570 0.959617
575 0.868599
580 0.728969
585 0.6186
590 0.552268
595 0.465389
600 0.720102
Ex : 473
200 0.21403
205 0.268681
210 0.224444
215 0.191457
220 0.176537
225 0.207396
230 0.19534
235 0.20388
240 0.162446
245 0.212613
250 0.189288
255 0.185345
260 0.198066
265 0.220062
270 0.214094
275 0.215992
280 0.209192
285 0.269407
290 0.195506
295 0.192684
300 0.216943
305 0.203606
310 0.233997
315 0.245493
320 0.216603
325 0.221462
330 0.262125
335 0.171825
340 0.219397
345 0.221773
350 0.194475
355 0.213425
360 0.193118
365 0.227909
370 0.185514
375 0.273271
380 0.218126
385 0.244019
390 0.22692
395 0.241389
400 0.247462
405 0.242442
410 0.283605
415 0.2415
420 0.240885
425 0.293822
430 0.345236
435 0.322119
440 0.356575
445 0.414187
450 0.550656
455 0.842925
460 26.8763
465 395.608
470 535.975
475 122.267
480 15.4026
485 3.11311
490 1.6138
495 1.29618
500 1.42019
505 1.63524
510 1.50249
515 1.38505
520 1.38206
525 1.4286
530 1.6493
535 1.84347
540 2.53613
545 2.93285
550 2.17581
555 1.6559
560 1.52886
565 1.22775
570 1.09449
575 0.853498
580 0.705879
585 0.605098
590 0.582384
595 0.522762
600 0.362873
Ex : 478
200 0.248664
205 0.249
210 0.258258
215 0.216606
220 0.26487
225 0.251654
230 0.220129
235 0.304785
240 0.308204
245 0.217241
250 0.266224
255 0.224133
260 0.226404
265 0.22664
270 0.264292
275 0.246223
280 0.229429
285 0.273147
290 0.241848
295 0.252724
300 0.243278
305 0.275252
310 0.269141
315 0.277123
320 0.197969
325 0.280438
330 0.248404
335 0.26447
340 0.263863
345 0.296035
350 0.27166
355 0.265393
360 0.216132
365 0.215939
370 0.267324
375 0.226441
380 0.231428
385 0.246169
390 0.266651
395 0.251702
400 0.259305
405 0.270883
410 0.227493
415 0.320438
420 0.336714
425 0.29552
430 0.361769
435 0.338242
440 0.394828
445 0.417342
450 0.545962
455 0.62195
460 0.943069
465 28.5398
470 402.141
475 548.292
480 129.061
485 16.192
490 3.19509
495 1.56438
500 1.39697
505 1.5141
510 1.60256
515 1.63083
520 1.49486
525 1.48719
530 1.54681
535 1.44312
540 1.59703
545 2.15649
550 2.87872
555 2.36561
560 1.67148
565 1.29812
570 1.24305
575 1.01279
580 0.722714
585 0.629662
590 0.592356
595 0.495484
600 0.494652
Ex : 483
200 0.224339
205 0.297264
210 0.264774
215 0.262601
220 0.311794
225 0.231423
230 0.232176
235 0.23543
240 0.261686
245 0.261549
250 0.282251
255 0.275218
260 0.266192
265 0.25859
270 0.251305
275 0.260689
280 0.239709
285 0.27589
290 0.253579
295 0.231259
300 0.186019
305 0.21332
310 0.218399
315 0.234464
320 0.228213
325 0.211795
330 0.191282
335 0.289723
340 0.235151
345 0.221858
350 0.263881
355 0.253892
360 0.283321
365 0.29735
370 0.319516
375 0.231854
380 0.238796
385 0.289351
390 0.273589
395 0.299577
400 0.318931
405 0.301932
410 0.298058
415 0.292101
420 0.267552
425 0.289814
430 0.319895
435 0.298717
440 0.367956
445 0.392905
450 0.43417
455 0.51305
460 0.684908
465 1.05572
470 22.9015
475 391.867
480 581.96
485 135.739
490 16.9113
495 2.99484
500 1.51955
505 1.0248
510 1.36213
515 1.65582
520 1.64477
525 1.54709
530 1.591
535 1.51528
540 1.50722
545 1.49677
550 1.56982
555 2.3122
560 2.5392
565 1.67477
570 1.35485
575 1.12451
580 0.919583
585 0.779122
590 0.615827
595 0.557779
600 0.602209
Ex : 488
200 0.324907
205 0.272857
210 0.278845
215 0.356453
220 0.240279
225 0.285915
230 0.233537
235 0.251454
240 0.35126
245 0.33563
250 0.230999
255 0.301166
260 0.330951
265 0.224149
270 0.249187
275 0.342662
280 0.251577
285 0.287494
290 0.275497
295 0.302971
300 0.348903
305 0.277892
310 0.285375
315 0.251512
320 0.290715
325 0.308838
330 0.289626
335 0.248129
340 0.269408
345 0.259882
350 0.343779
355 0.276964
360 0.319987
365 0.296371
370 0.288965
375 0.25727
380 0.279266
385 0.259648
390 0.297032
395 0.319015
400 0.247047
405 0.215384
410 0.314286
415 0.310728
420 0.345799
425 0.314827
430 0.298865
435 0.289035
440 0.40054
445 0.481205
450 0.418978
455 0.501719
460 0.634075
465 0.765427
470 1.04778
475 27.733
480 424.35
485 569.679
490 130.979
495 16.4063
500 3.21483
505 1.54325
510 1.3577
515 1.50094
520 1.71348
525 1.79325
530 1.6117
535 1.4163
540 1.51312
545 1.40886
550 1.30148
555 1.43828
560 2.01766
565 2.27821
570 1.78697
575 1.23158
580 1.06076
585 0.857353
590 0.735623
595 0.655196
600 0.467633
Ex : 493
200 0.255479
205 0.332991
210 0.307041
215 0.249823
220 0.252402
225 0.275776
230 0.225105
235 0.254551
240 0.318994
245 0.30316
250 0.263525
255 0.297656
260 0.265471
265 0.314124
270 0.246852
275 0.259904
280 0.287429
285 0.279632
290 0.222852
295 0.292075
300 0.309593
305 0.25744
310 0.219676
315 0.233547
320 0.295154
325 0.258875
330 0.267386
335 0.285851
340 0.334213
345 0.295178
350 0.286088
355 0.270544
360 0.301888
365 0.343424
370 0.291677
375 0.298185
380 0.213136
385 0.341041
390 0.364441
395 0.32179
400 0.347839
405 0.349737
410 0.311671
415 0.34415
420 0.377576
425 0.308862
430 0.347271
435 0.330333
440 0.381219
445 0.34183
450 0.400395
455 0.455688
460 0.52668
465 0.65448
470 0.741981
475 0.944404
480 25.4837
485 408.888
490 589.756
495 133.021
500 16.417
505 3.23245
510 1.69347
515 1.31746
520 1.48368
525 1.80692
530 1.82805
535 1.66038
540 1.5194
545 1.46093
550 1.22709
555 1.2048
560 1.22502
565 1.49383
570 2.12665
575 1.90588
580 1.15604
585 0.890878
590 0.882458
595 0.67159
600 0.447147
Ex : 498
200 0.316874
205 0.338383
210 0.320756
215 0.254332
220 0.283765
225 0.257477
230 0.412392
235 0.306113
240 0.273955
245 0.364517
250 0.237669
255 0.282797
260 0.334072
265 0.301366
270 0.30237
275 0.234244
280 0.226482
285 0.312781
290 0.290383
295 0.262191
300 0.354585
305 0.292813
310 0.263521
315 0.312442
320 0.273474
325 0.311525
330 0.294931
335 0.304482
340 0.273998
345 0.290794
350 0.293806
355 0.338025
360 0.390658
365 0.27446
370 0.313585
375 0.313822
380 0.348161
385 0.30955
390 0.320319
395 0.396027
400 0.397282
405 0.298774
410 0.380505
415 0.365925
420 0.310743
425 0.3973
430 0.342508
435 0.398057
440 0.39558
445 0.41035
450 0.394166
455 0.44976
460 0.414747
465 0.513855
470 0.593201
475 0.678776
480 0.994841
485 30.1941
490 429.131
495 569.044
500 129.654
505 16.2023
510 3.07652
515 1.76939
520 1.52347
525 1.50734
530 1.70429
535 1.72
540 1.6087
545 1.37741
550 1.34969
555 1.39793
560 1.24865
565 1.22548
570 1.31174
575 1.66974
580 1.70339
585 1.1286
590 0.753488
595 0.614192
600 0.487393
Ex : 503
200 0.341942
205 0.235336
210 0.283329
215 0.305453
220 0.290954
225 0.331419
230 0.341081
235 0.332123
240 0.317443
245 0.397871
250 0.241107
255 0.353907
260 0.43879
265 0.339715
270 0.340771
275 0.344169
280 0.334966
285 0.346367
290 0.380501
295 0.348552
300 0.313275
305 0.325796
310 0.239242
315 0.277018
320 0.397182
325 0.306401
330 0.315866
335 0.349034
340 0.29195
345 0.308004
350 0.288982
355 0.340536
360 0.32495
365 0.421885
370 0.317311
375 0.301141
380 0.333582
385 0.361268
390 0.354148
395 0.350756
400 0.389134
405 0.288261
410 0.33775
415 0.344603
420 0.291513
425 0.300751
430 0.394758
435 0.358386
440 0.31116
445 0.394257
450 0.350483
455 0.426522
460 0.442037
465 0.535449
470 0.532046
475 0.589519
480 0.7965
485 1.07019
490 26.8695
495 423.565
500 587.801
505 133.529
510 16.7292
515 3.22149
520 1.75944
525 1.63803
530 1.62176
535 1.66888
540 1.75657
545 1.50466
550 1.44633
555 1.28556
560 1.30228
565 1.19104
570 1.09601
575 0.900876
580 1.11052
585 1.45739
590 1.01577
595 0.700439
600 1.23219
Ex : 508
200 0.259977
205 0.270013
210 0.310778
215 0.298692
220 0.295917
225 0.272595
230 0.273628
235 0.325329
240 0.457192
245 0.310004
250 0.351838
255 0.273708
260 0.298118
265 0.283183
270 0.270431
275 0.331212
280 0.276752
285 0.362986
290 0.433081
295 0.347859
300 0.363358
305 0.325339
310 0.254103
315 0.339354
320 0.357084
325 0.318839
330 0.285928
335 0.345786
340 0.359705
345 0.304786
350 0.29513
355 0.45075
360 0.304941
365 0.41856
370 0.338856
375 0.35258
380 0.283919
385 0.38932
390 0.345095
395 0.30991
400 0.324068
405 0.297928
410 0.452391
415 0.408704
420 0.356045
425 0.370206
430 0.52342
435 0.418248
440 0.344556
445 0.376603
450 0.406509
455 0.46398
460 0.445282
465 0.360174
470 0.47628
475 0.547208
480 0.64088
485 0.801112
490 1.09674
495 28.3799
500 422.162
505 571.813
510 135.876
515 17.0256
520 3.39223
525 1.8753
530 1.5071
535 1.47485
540 1.69721
545 1.64379
550 1.47943
555 1.39132
560 1.24341
565 1.11645
570 1.02728
575 0.878039
580 0.776989
585 0.878547
590 1.17853
595 1.16947
600 0.94813
Ex : 513
200 0.374896
205 0.311818
210 0.397432
215 0.343488
220 0.350297
225 0.32646
230 0.355205
235 0.262833
240 0.503566
245 0.351458
250 0.282365
255 0.281151
260 0.296483
265 0.337232
270 0.260674
275 0.387681
280 0.370969
285 0.396761
290 0.320215
295 0.294592
300 0.294537
305 0.356573
310 0.310593
315 0.401485
320 0.30856
325 0.37274
330 0.264911
335 0.417103
340 0.33514
345 0.331291
350 0.303411
355 0.309966
360 0.354358
365 0.351537
370 0.378419
375 0.429497
380 0.348056
385 0.30785
390 0.311329
395 0.36469
400 0.341545
405 0.422244
410 0.409076
415 0.433185
420 0.409808
425 0.387235
430 0.374032
435 0.332021
440 0.345636
445 0.359881
450 0.483358
455 0.417824
460 0.386842
465 0.361515
470 0.546252
475 0.51752
480 0.650014
485 0.65522
490 0.813906
495 1.05497
500 25.9975
505 415.945
510 584.706
515 140.698
520 17.5954
525 3.30095
530 1.98494
535 1.63719
540 1.49123
545 1.55692
550 1.56339
555 1.49443
560 1.17118
565 1.06263
570 1.01701
575 0.902823
580 0.74762
585 0.78347
590 0.926108
595 0.93327
600 1.71301
Ex : 518
200 0.44775
205 0.355344
210 0.376789
215 0.356766
220 0.395984
225 0.299512
230 0.311258
235 0.364525
240 0.332721
245 0.390426
250 0.392318
255 0.392741
260 0.333862
265 0.445229
270 0.375603
275 0.324447
280 0.329639
285 0.422505
290 0.353754
295 0.327793
300 0.428057
305 0.397661
310 0.398627
315 0.350423
320 0.340504
325 0.313762
330 0.369178
335 0.335128
340 0.38506
345 0.409127
350 0.394222
355 0.483442
360 0.427558
365 0.408582
370 0.438582
375 0.392771
380 0.310347
385 0.299501
390 0.328344
395 0.403571
400 0.50353
405 0.392137
410 0.373517
415 0.394796
420 0.373651
425 0.427936
430 0.425708
435 0.370971
440 0.394605
445 0.321664
450 0.399127
455 0.34273
460 0.462418
465 0.43491
470 0.453005
475 0.384596
480 0.474138
485 0.556435
490 0.678235
495 0.797733
500 1.02319
505 26.5134
510 401.171
515 580.624
520 140.222
525 17.5667
530 3.3136
535 1.7897
540 1.28978
545 1.49057
550 1.42529
555 1.40275
560 1.3605
565 1.04819
570 0.874646
575 0.993451
580 0.808018
585 0.69206
590 0.668047
595 0.588971
600 0.276076
Ex : 523
200 0.446938
205 0.43084
210 0.324928
215 0.387261
220 0.350634
225 0.28303
230 0.426419
235 0.388219
240 0.347007
245 0.340181
250 0.348188
255 0.380374
260 0.325306
265 0.415339
270 0.359747
275 0.381794
280 0.345962
285 0.394193
290 0.375189
295 0.342332
300 0.418418
305 0.284832
310 0.341453
315 0.33993
320 0.272744
325 0.453175
330 0.404462
335 0.398269
340 0.316695
345 0.464612
350 0.415878
355 0.323959
360 0.388952
365 0.303127
370 0.460274
375 0.379542
380 0.404853
385 0.413504
390 0.351574
395 0.415697
400 0.39321
405 0.44137
410 0.388184
415 0.393602
420 0.424461
425 0.399412
430 0.36402
435 0.354652
440 0.371
445 0.384522
450 0.524088
455 0.468062
460 0.453682
465 0.502156
470 0.430306
475 0.424514
480 0.466168
485 0.515104
490 0.465828
495 0.596303
500 0.821523
505 1.14699
510 24.3693
515 382.033
520 563.61
525 141.591
530 17.7546
535 3.55384
540 1.81428
545 1.44381
550 1.24983
555 1.37614
560 1.44992
565 1.11642
570 0.968243
575 0.912478
580 0.849815
585 0.879275
590 0.681526
595 0.692772
600 1.0321
Ex : 528
200 0.378852
205 0.388015
210 0.260845
215 0.522867
220 0.3214
225 0.383093
230 0.39192
235 0.338116
240 0.347333
245 0.313318
250 0.342801
255 0.338817
260 0.388153
265 0.355724
270 0.379444
275 0.36681
280 0.418722
285 0.275547
290 0.345019
295 0.3396
300 0.426278
305 0.368494
310 0.307453
315 0.420579
320 0.238466
325 0.401582
330 0.45255
335 0.32023
340 0.357269
345 0.418743
350 0.363395
355 0.407302
360 0.388869
365 0.446655
370 0.327401
375 0.43796
380 0.395349
385 0.452692
390 0.388503
395 0.457351
400 0.326838
405 0.348166
410 0.437438
415 0.452341
420 0.410823
425 0.407547
430 0.425636
435 0.374883
440 0.437856
445 0.348088
450 0.373761
455 0.442997
460 0.447756
465 0.410351
470 0.430941
475 0.569961
480 0.540169
485 0.593332
490 0.495596
495 0.44729
500 0.741453
505 0.848274
510 1.08743
515 23.146
520 379.713
525 559.687
530 137.109
535 17.1934
540 3.23288
545 1.65258
550 1.58501
555 1.20008
560 1.15365
565 1.20386
570 1.07873
575 0.799796
580 0.740598
585 0.633888
590 0.718868
595 0.538426
600 0.604744
Ex : 533
200 0.452394
205 0.350171
210 0.421105
215 0.403059
220 0.32373
225 0.341441
230 0.442845
235 0.331064
240 0.351464
245 0.352602
250 0.367176
255 0.356418
260 0.403799
265 0.322388
270 0.410726
275 0.485395
280 0.410931
285 0.362166
290 0.346951
295 0.421625
300 0.382719
305 0.346342
310 0.325113
315 0.363646
320 0.316166
325 0.340615
330 0.446828
335 0.366765
340 0.344133
345 0.382618
350 0.413199
355 0.267204
360 0.383604
365 0.429091
370 0.462828
375 0.40783
380 0.35893
385 0.391379
390 0.460605
395 0.426191
400 0.485281
405 0.488176
410 0.347201
415 0.332886
420 0.4625
425 0.427568
430 0.368312
435 0.347224
440 0.458311
445 0.411868
450 0.45611
455 0.415762
460 0.550801
465 0.4958
470 0.449586
475 0.435459
480 0.417129
485 0.414022
490 0.451012
495 0.572012
500 0.451443
505 0.735532
510 0.870255
515 1.11882
520 22.5051
525 357.735
530 545.447
535 138.267
540 17.1741
545 3.22601
550 1.47465
555 1.23698
560 1.38953
565 0.962439
570 1.10931
575 1.09848
580 0.94157
585 0.756916
590 0.6085
595 0.718748
600 0.765434
Ex : 538
200 0.339997
205 0.42029
210 0.440405
215 0.34707
220 0.377013
225 0.38249
230 0.421833
235 0.372184
240 0.421436
245 0.465522
250 0.434139
255 0.312944
260 0.421386
265 0.344936
270 0.397484
275 0.423379
280 0.446338
285 0.359358
290 0.458188
295 0.411314
300 0.395584
305 0.347108
310 0.406278
315 0.357318
320 0.368237
325 0.318905
330 0.357334
335 0.353625
340 0.288243
345 0.491234
350 0.444791
355 0.329889
360 0.342423
365 0.381689
370 0.409295
375 0.401384
380 0.423843
385 0.421482
390 0.443833
395 0.42495
400 0.443795
405 0.390955
410 0.475426
415 0.448881
420 0.35738
425 0.461137
430 0.306747
435 0.356546
440 0.345777
445 0.453482
450 0.456359
455 0.405211
460 0.410849
465 0.514608
470 0.436074
475 0.383793
480 0.311468
485 0.369168
490 0.598422
495 0.499678
500 0.529671
505 0.508478
510 0.69275
515 0.799501
520 1.12176
525 18.8508
530 338.83
535 538.38
540 142.823
545 17.7581
550 3.05005
555 1.36787
560 1.10093
565 1.08226
570 0.792262
575 0.994909
580 0.884552
585 0.682733
590 0.680993
595 0.665211
600 0.579104
Ex : 543
200 0.337236
205 0.453748
210 0.409797
215 0.306035
220 0.424185
225 0.334608
230 0.373292
235 0.502385
240 0.378644
245 0.357171
250 0.409077
255 0.325216
260 0.450047
265 0.454606
270 0.449515
275 0.358124
280 0.525455
285 0.412607
290 0.438389
295 0.383712
300 0.444975
305 0.349991
310 0.331025
315 0.398725
320 0.380247
325 0.397106
330 0.4314
335 0.387844
340 0.400163
345 0.458107
350 0.452344
355 0.451525
360 0.411595
365 0.409009
370 0.463164
375 0.515326
380 0.427087
385 0.444156
390 0.397001
395 0.404069
400 0.585994
405 0.375231
410 0.375828
415 0.435294
420 0.409126
425 0.47208
430 0.419736
435 0.438566
440 0.438695
445 0.492382
450 0.46176
455 0.498871
460 0.612387
465 0.524124
470 0.4751
475 0.439023
480 0.444473
485 0.426972
490 0.457407
495 0.523499
500 0.499783
505 0.537018
510 0.549784
515 0.621789
520 0.768808
525 0.92386
530 16.8902
535 324.779
540 531.5
545 144.43
550 18.1362
555 3.27182
560 1.33265
565 1.05513
570 0.827021
575 0.833019
580 0.769057
585 0.839216
590 0.614554
595 0.632593
600 0.464065
Ex : 548
200 0.365208
205 0.419026
210 0.532821
215 0.513363
220 0.547313
225 0.430081
230 0.44241
235 0.493911
240 0.360236
245 0.378286
250 0.38847
255 0.329171
260 0.364066
265 0.411123
270 0.286424
275 0.44024
280 0.349794
285 0.463733
290 0.47105
295 0.399062
300 0.488447
305 0.37562
310 0.34413
315 0.286446
320 0.420693
325 0.455983
330 0.509932
335 0.297241
340 0.353751
345 0.430909
350 0.388501
355 0.385596
360 0.345671
365 0.384749
370 0.404369
375 0.476905
380 0.470367
385 0.374418
390 0.443864
395 0.477396
400 0.526295
405 0.42371
410 0.39238
415 0.348186
420 0.419367
425 0.453529
430 0.450093
435 0.349877
440 0.437389
445 0.493208
450 0.451142
455 0.482625
460 0.522984
465 0.542066
470 0.516907
475 0.410234
480 0.40456
485 0.391107
490 0.497326
495 0.517298
500 0.599471
505 0.585917
510 0.61974
515 0.678865
520 0.596907
525 0.818015
530 1.06271
535 18.8792
540 324.381
545 513.488
550 140.774
555 17.4727
560 3.00892
565 1.15896
570 1.00275
575 0.826775
580 0.724644
585 0.710305
590 0.780967
595 0.824381
600 0.199048
Ex : 553
200 0.465787
205 0.358923
210 0.398626
215 0.546034
220 0.383247
225 0.459097
230 0.34398
235 0.358259
240 0.434408
245 0.495194
250 0.414903
255 0.500398
260 0.412985
265 0.495147
270 0.432982
275 0.400936
280 0.394224
285 0.431528
290 0.509379
295 0.393526
300 0.381926
305 0.413768
310 0.428744
315 0.489915
320 0.393234
325 0.390885
330 0.432954
335 0.404328
340 0.393814
345 0.384524
350 0.435447
355 0.405047
360 0.446926
365 0.38327
370 0.409196
375 0.483221
380 0.354622
385 0.481883
390 0.434814
395 0.548558
400 0.431128
405 0.445236
410 0.457719
415 0.411384
420 0.427689
425 0.427218
430 0.45689
435 0.493659
440 0.51175
445 0.590012
450 0.523774
455 0.45682
460 0.497469
465 0.478102
470 0.452333
475 0.397316
480 0.55546
485 0.419
490 0.489963
495 0.515289
500 0.568284
505 0.52757
510 0.537864
515 0.479171
520 0.590731
525 0.823034
530 0.813311
535 1.0952
540 16.0346
545 311.07
550 509.371
555 141.287
560 17.5132
565 3.06868
570 1.13999
575 0.842275
580 0.894019
585 0.599034
590 0.639383
595 0.70435
600 0.972073
Ex : 558
200 0.327924
205 0.328362
210 0.384111
215 0.397768
220 0.375588
225 0.354535
230 0.378259
235 0.511503
240 0.611181
245 0.435923
250 0.388545
255 0.403004
260 0.37267
265 0.41095
270 0.345374
275 0.346686
280 0.462013
285 0.550968
290 0.389654
295 0.415396
300 0.451737
305 0.499542
310 0.434586
315 0.577798
320 0.425183
325 0.327421
330 0.417955
335 0.443363
340 0.39982
345 0.31384
350 0.386109
355 0.369898
360 0.390546
365 0.433129
370 0.462463
375 0.390281
380 0.463007
385 0.441533
390 0.448311
395 0.554997
400 0.41043
405 0.471557
410 0.44839
415 0.387506
420 0.459447
425 0.39175
430 0.48704
435 0.449543
440 0.448658
445 0.433866
450 0.384198
455 0.38497
460 0.437284
465 0.509212
470 0.464973
475 0.545813
480 0.565031
485 0.455221
490 0.36658
495 0.489533
500 0.527698
505 0.525009
510 0.536192
515 0.530954
520 0.637651
525 0.690893
530 0.67626
535 0.844329
540 1.167
545 15.0717
550 282.263
555 482.641
560 136.149
565 16.8921
570 2.78185
575 1.05613
580 0.943006
585 0.700147
590 0.702848
595 0.501491
600 0.0629758
Ex : 563
200 0.382587
205 0.336117
210 0.409174
215 0.49003
220 0.44656
225 0.545324
230 0.370262
235 0.458818
240 0.373871
245 0.377281
250 0.45204
255 0.503442
260 0.372681
265 0.361566
270 0.458887
275 0.41239
280 0.495643
285 0.57661
290 0.350127
295 0.42562
300 0.467205
305 0.475424
310 0.413338
315 0.436393
320 0.326398
325 0.432164
330 0.546119
335 0.49164
340 0.326837
345 0.476426
350 0.528014
355 0.483498
360 0.452138
365 0.432251
370 0.37647
375 0.378586
380 0.343693
385 0.457372
390 0.466581
395 0.46274
400 0.503562
405 0.547171
410 0.40647
415 0.423462
420 0.542018
425 0.53681
430 0.427949
435 0.545435
440 0.52208
445 0.504857
450 0.435646
455 0.38852
460 0.419742
465 0.527167
470 0.496559
475 0.550027
480 0.548842
485 0.56195
490 0.520851
495 0.560327
500 0.581539
505 0.573038
510 0.60822
515 0.653518
520 0.602446
525 0.62991
530 0.673812
535 0.713645
540 0.765745
545 1.00816
550 15.0168
555 275.992
560 460.781
565 132.501
570 16.2362
575 2.76216
580 1.0844
585 0.813142
590 0.629196
595 0.674411
600 0.859049
Ex : 568
200 0.535936
205 0.380533
210 0.479868
215 0.50067
220 0.600888
225 0.52704
230 0.476986
235 0.44175
240 0.430714
245 0.500188
250 0.434274
255 0.515707
260 0.437243
265 0.513184
270 0.542633
275 0.47169
280 0.423229
285 0.479956
290 0.397925
295 0.443274
300 0.392963
305 0.386806
310 0.371911
315 0.473612
320 0.378021
325 0.513493
330 0.327546
335 0.541756
340 0.476818
345 0.496763
350 0.469971
355 0.48533
360 0.401689
365 0.444435
370 0.533304
375 0.443858
380 0.525952
385 0.416836
390 0.439748
395 0.415958
400 0.529982
405 0.453391
410 0.422809
415 0.45132
420 0.519952
425 0.54858
430 0.465465
435 0.510533
440 0.545516
445 0.469734
450 0.438283
455 0.4774
460 0.424959
465 0.455375
470 0.454803
475 0.421332
480 0.523691
485 0.48286
490 0.553259
495 0.562203
500 0.601326
505 0.66029
510 0.482647
515 0.593215
520 0.519107
525 0.45162
530 0.797123
535 0.653207
540 0.722251
545 0.668021
550 1.01517
555 11.465
560 250.814
565 443.634
570 134.117
575 16.5832
580 2.74015
585 1.05655
590 0.875274
595 0.821878
600 0.659189
Ex : 573
200 0.37574
205 0.573079
210 0.384559
215 0.426218
220 0.437789
225 0.441275
230 0.337421
235 0.473847
240 0.433834
245 0.314578
250 0.452389
255 0.426757
260 0.438159
265 0.561562
270 0.500496
275 0.529027
280 0.50485
285 0.413445
290 0.392452
295 0.421837
300 0.355421
305 0.53852
310 0.439668
315 0.449221
320 0.451341
325 0.514699
330 0.407596
335 0.463093
340 0.449631
345 0.339322
350 0.413486
355 0.48456
360 0.383707
365 0.464102
370 0.399365
375 0.490189
380 0.374976
385 0.468891
390 0.470823
395 0.307596
400 0.44812
405 0.595108
410 0.54696
415 0.528493
420 0.500682
425 0.483937
430 0.401453
435 0.448138
440 0.488045
445 0.458161
450 0.544266
455 0.580002
460 0.543967
465 0.617322
470 0.537153
475 0.541618
480 0.600519
485 0.511671
490 0.392239
495 0.558074
500 0.449035
505 0.498772
510 0.568143
515 0.416027
520 0.47766
525 0.501462
530 0.561567
535 0.602846
540 0.547858
545 0.611254
550 0.746194
555 0.807628
560 9.85003
565 216.46
570 415.672
575 126.375
580 15.6776
585 2.48789
590 0.932449
595 0.79758
600 0.752204
Ex : 578
200 0.410127
205 0.448215
210 0.485943
215 0.542382
220 0.558291
225 0.484765
230 0.460778
235 0.462765
240 0.477344
245 0.420958
250 0.438998
255 0.390546
260 0.487784
265 0.53093
270 0.583397
275 0.363075
280 0.476843
285 0.459649
290 0.50754
295 0.479445
300 0.461976
305 0.610758
310 0.455303
315 0.481895
320 0.452555
325 0.409358
330 0.464209
335 0.367109
340 0.389096
345 0.55834
350 0.512656
355 0.530874
360 0.433668
365 0.490933
370 0.559347
375 0.548988
380 0.409214
385 0.453978
390 0.55178
395 0.615604
400 0.561447
405 0.58967
410 0.521758
415 0.544775
420 0.617393
425 0.523712
430 0.416013
435 0.472553
440 0.473429
445 0.51803
450 0.484051
455 0.591667
460 0.584574
465 0.577831
470 0.51496
475 0.540487
480 0.584506
485 0.552035
490 0.605583
495 0.683152
500 0.545796
505 0.436039
510 0.582172
515 0.609329
520 0.665263
525 0.512461
530 0.543372
535 0.580482
540 0.68522
545 0.67468
550 0.856539
555 0.88324
560 0.827902
565 8.95927
570 197.21
575 359.529
580 108.939
585 13.3811
590 2.18977
595 1.19098
600 1.17615
Ex : 583
200 0.415805
205 0.3391
210 0.42591
215 0.43787
220 0.499352
225 0.395235
230 0.500833
235 0.595724
240 0.537114
245 0.602535
250 0.547742
255 0.572134
260 0.465253
265 0.456778
270 0.705785
275 0.466089
280 0.423912
285 0.481121
290 0.47168
295 0.362832
300 0.463306
305 0.321179
310 0.540175
315 0.456909
320 0.433635
325 0.334846
330 0.538431
335 0.506933
340 0.427076
345 0.510615
350 0.450947
355 0.55335
360 0.547583
365 0.509856
370 0.569832
375 0.556868
380 0.518314
385 0.406987
390 0.428662
395 0.600717
400 0.463547
405 0.52769
410 0.485566
415 0.554689
420 0.633538
425 0.651997
430 0.463199
435 0.483756
440 0.432641
445 0.537703
450 0.481955
455 0.503978
460 0.502103
465 0.491541
470 0.521969
475 0.563321
480 0.592041
485 0.615841
490 0.652287
495 0.478907
500 0.654003
505 0.500863
510 0.51215
515 0.606513
520 0.548102
525 0.454473
530 0.595704
535 0.773411
540 0.730736
545 0.625932
550 0.724282
555 0.626612
560 0.691418
565 0.941819
570 7.63136
575 174.037
580 317.534
585 92.0083
590 11.5765
595 1.94109
600 0.493566
Ex : 588
200 0.480685
205 0.416558
210 0.488887
215 0.508381
220 0.491118
225 0.587303
230 0.549921
235 0.547261
240 0.452983
245 0.494734
250 0.460848
255 0.493075
260 0.404085
265 0.611326
270 0.449587
275 0.547585
280 0.419552
285 0.491099
290 0.527822
295 0.491033
300 0.762114
305 0.516993
310 0.54079
315 0.571329
320 0.523836
325 0.509359
330 0.547134
335 0.560475
340 0.529629
345 0.512973
350 0.552463
355 0.441403
360 0.423953
365 0.503423
370 0.386415
375 0.505354
380 0.602811
385 0.394257
390 0.493144
395 0.481047
400 0.385182
405 0.386983
410 0.497217
415 0.480285
420 0.608277
425 0.593186
430 0.491898
435 0.582502
440 0.409448
445 0.464191
450 0.511251
455 0.554229
460 0.492247
465 0.64074
470 0.564645
475 0.518557
480 0.529503
485 0.554897
490 0.547785
495 0.607626
500 0.484145
505 0.454048
510 0.590061
515 0.578033
520 0.483799
525 0.579594
530 0.692056
535 0.526371
540 0.435206
545 0.546302
550 0.52173
555 0.585336
560 0.661043
565 0.769175
570 0.856449
575 6.76287
580 142.962
585 267.648
590 80.3473
595 10.156
600 1.9143
Ex : 593
200 0.559268
205 0.614632
210 0.518383
215 0.44666
220 0.436227
225 0.405406
230 0.432428
235 0.407061
240 0.457449
245 0.469313
250 0.585838
255 0.536467
260 0.463335
265 0.476308
270 0.523494
275 0.552618
280 0.488299
285 0.456494
290 0.41897
295 0.619622
300 0.43954
305 0.644149
310 0.518266
315 0.494673
320 0.385346
325 0.410108
330 0.418464
335 0.605606
340 0.587712
345 0.695792
350 0.556969
355 0.643273
360 0.509174
365 0.47097
370 0.424988
375 0.522633
380 0.614529
385 0.593313
390 0.488495
395 0.520846
400 0.632362
405 0.540699
410 0.635499
415 0.430998
420 0.490993
425 0.588522
430 0.474039
435 0.562349
440 0.560345
445 0.448716
450 0.6213
455 0.648948
460 0.554082
465 0.575022
470 0.639405
475 0.573837
480 0.612693
485 0.484798
490 0.557653
495 0.601752
500 0.538523
505 0.598132
510 0.619457
515 0.53509
520 0.423097
525 0.4315
530 0.545961
535 0.489386
540 0.571322
545 0.411859
550 0.609849
555 0.617072
560 0.638186
565 0.775554
570 0.852952
575 0.696339
580 5.66884
585 126.018
590 235.224
595 68.6251
600 11.8521
Ex : 598
200 0.668609
205 0.598987
210 0.676191
215 0.517245
220 0.526631
225 0.625638
230 0.738428
235 0.552372
240 0.53404
245 0.430224
250 0.493918
255 0.630039
260 0.455649
265 0.489632
270 0.512807
275 0.534125
280 0.619589
285 0.68409
290 0.475407
295 0.526927
300 0.527748
305 0.510465
310 0.407432
315 0.53457
320 0.580549
325 0.439457
330 0.403775
335 0.520693
340 0.656869
345 0.647523
350 0.519108
355 0.530663
360 0.50638
365 0.429077
370 0.46753
375 0.53635
380 0.631791
385 0.56002
390 0.645808
395 0.614905
400 0.649508
405 0.475385
410 0.559298
415 0.613813
420 0.493451
425 0.589925
430 0.606872
435 0.480284
440 0.478215
445 0.529051
450 0.575094
455 0.636598
460 0.53586
465 0.580741
470 0.613683
475 0.529002
480 0.488391
485 0.57092
490 0.512646
495 0.508405
500 0.583986
505 0.53097
510 0.737755
515 0.592465
520 0.634433
525 0.538855
530 0.614231
535 0.495558
540 0.635561
545 0.644781
550 0.682861
555 0.609914
560 0.710379
565 0.736521
570 0.725868
575 0.809853
580 0.76178
585 5.43757
590 111.082
595 201.382
600 120.99
Ex : 603
200 0.548014
205 0.416961
210 0.381267
215 0.640548
220 0.55968
225 0.548679
230 0.482135
235 0.608888
240 0.616593
245 0.524499
250 0.517737
255 0.672276
260 0.532565
265 0.544165
270 0.784328
275 0.538206
280 0.551907
285 0.555643
290 0.568237
295 0.638318
300 0.505095
305 0.53324
310 0.677994
315 0.574722
320 0.531311
325 0.50755
330 0.753261
335 0.666187
340 0.550311
345 0.45634
350 0.603489
355 0.729182
360 0.691816
365 0.575599
370 0.477974
375 0.634438
380 0.525276
385 0.415499
390 0.590862
395 0.651897
400 0.463191
405 0.520542
410 0.447949
415 0.558269
420 0.47438
425 0.568086
430 0.575283
435 0.480599
440 0.423893
445 0.786578
450 0.497776
455 0.519377
460 0.665155
465 0.769742
470 0.746033
475 0.660938
480 0.585024
485 0.654492
490 0.503545
495 0.677664
500 0.777735
505 0.570419
510 0.544025
515 0.578014
520 0.56446
525 0.575938
530 0.511883
535 0.648597
540 0.671079
545 0.52941
550 0.714639
555 0.644846
560 0.572348
565 0.618298
570 0.638369
575 0.834022
580 0.897527
585 0.869381
590 5.39311
595 97.2648
600 207.483
