File format V 1.0
sam. 10. déc. 02:46:27 2016
Operator : 
Comments : 

=============================================
SpectroFluorometer parameters
Mode : 3D measurement
Data : Fluorescence
Phospho. : Ordinary
Spectrum : Fluorescence

Scan speed : 2400 nm/mn
Response : 100 ms
PM Voltage : 700 V
Shutter : On

Lambda Ex. Start : 203
Lambda Ex. End : 603
Lambda Ex. Step : 5
Ex. Slit : 5 nm

Lambda Em. Start : 200
Lambda Em. End : 600
Lambda Em. Step : 5
Em. Slit : 5 nm

Repetition : 1
Decal lambda em : 10
=============================================
DATA
Ex : 203
200 13.6183
205 12.2045
210 11.2607
215 13.9748
220 13.6785
225 13.0533
230 14.5268
235 13.6318
240 16.5292
245 12.0191
250 12.8026
255 14.2254
260 13.4768
265 12.7219
270 12.5096
275 15.2974
280 15.8054
285 9.98496
290 11.9469
295 11.9258
300 16.8896
305 14.3182
310 11.3831
315 11.3961
320 12.1005
325 12.1306
330 15.3096
335 18.8422
340 15.593
345 13.879
350 15.7532
355 18.5228
360 19.7958
365 24.5904
370 15.8864
375 18.7862
380 16.3614
385 18.2752
390 18.601
395 17.7303
400 17.902
405 18.8644
410 18.6995
415 16.7691
420 17.3013
425 15.1662
430 23.1732
435 17.775
440 14.483
445 15.2569
450 15.3297
455 18.3647
460 20.0733
465 17.5123
470 18.2925
475 14.7009
480 14.9883
485 16.6872
490 18.0143
495 13.531
500 15.9322
505 19.4186
510 18.0218
515 15.1543
520 13.7844
525 15.9694
530 17.1558
535 17.0652
540 15.7421
545 12.2412
550 11.9903
555 14.0885
560 18.4757
565 15.9882
570 17.3869
575 19.154
580 14.7285
585 11.8929
590 14.7767
595 11.0889
600 9.68081
Ex : 208
200 11.2186
205 13.0482
210 13.6713
215 11.9742
220 13.8425
225 13.0002
230 13.8157
235 14.5767
240 18.5787
245 12.0179
250 14.8769
255 12.431
260 11.628
265 13.19
270 17.1994
275 14.4346
280 13.5553
285 12.8404
290 13.9683
295 12.4596
300 13.8855
305 14.7963
310 12.1017
315 15.2915
320 15.7111
325 16.7048
330 16.0387
335 14.7204
340 17.7512
345 16.6849
350 15.1581
355 16.0971
360 14.9826
365 17.4509
370 20.7167
375 15.862
380 19.3008
385 16.64
390 14.8895
395 13.6926
400 16.127
405 16.2294
410 19.4355
415 17.4554
420 17.7474
425 18.1455
430 19.456
435 15.7568
440 22.7159
445 21.2007
450 17.3653
455 18.1708
460 18.5652
465 17.6313
470 16.6554
475 16.4544
480 14.3311
485 16.1072
490 17.4929
495 18.0343
500 15.3834
505 11.9152
510 15.5093
515 16.3685
520 15.5012
525 12.9857
530 15.8566
535 15.3514
540 14.7464
545 17.9037
550 13.7255
555 14.3169
560 13.955
565 12.9221
570 13.1213
575 12.9216
580 12.6014
585 16.8297
590 14.4385
595 14.0654
600 36.8272
Ex : 213
200 14.5398
205 17.9702
210 15.7408
215 10.0815
220 13.3861
225 12.3855
230 14.6084
235 12.496
240 13.1666
245 17.7932
250 10.9466
255 11.0988
260 15.3645
265 12.1253
270 12.1144
275 14.5239
280 13.8792
285 13.5405
290 14.0379
295 17.3004
300 14.62
305 20.3005
310 12.718
315 9.77556
320 11.3307
325 12.0087
330 19.1836
335 16.0863
340 15.9949
345 12.0449
350 14.7719
355 16.4407
360 16.8013
365 17.3816
370 18.4724
375 17.6961
380 20.5485
385 15.6419
390 13.0871
395 15.2591
400 17.523
405 18.7318
410 14.2477
415 17.5068
420 15.941
425 17.279
430 19.3349
435 15.8368
440 15.4257
445 18.9722
450 18.8133
455 15.7834
460 16.7336
465 18.0405
470 14.7717
475 13.0342
480 16.7785
485 18.3192
490 13.5207
495 16.3104
500 15.7522
505 16.2846
510 13.8974
515 15.3868
520 17.0984
525 16.4442
530 15.0909
535 19.0385
540 12.8507
545 16.4978
550 16.9853
555 11.4647
560 18.9904
565 15.4886
570 17.6109
575 12.8601
580 11.796
585 13.5394
590 9.98988
595 13.1716
600 20.7738
Ex : 218
200 15.0699
205 11.8067
210 14.7706
215 16.4837
220 12.0273
225 13.4648
230 14.377
235 10.1713
240 12.3352
245 13.2248
250 16.9085
255 10.2438
260 14.7558
265 14.2702
270 14.8548
275 13.829
280 17.3368
285 13.7889
290 13.2277
295 10.0624
300 12.5342
305 11.3499
310 12.2422
315 17.2633
320 15.8484
325 14.6589
330 9.73856
335 16.4324
340 18.6231
345 10.1142
350 13.3582
355 18.8203
360 18.5086
365 16.7489
370 14.7208
375 19.9697
380 18.0689
385 12.8058
390 13.2497
395 15.8356
400 15.085
405 15.1435
410 12.2005
415 19.8195
420 25.4322
425 19.6186
430 13.1209
435 16.3703
440 15.1658
445 17.8116
450 16.7379
455 15.8763
460 15.7004
465 16.9358
470 15.2402
475 22.2244
480 18.361
485 16.8052
490 17.0899
495 12.9948
500 14.8174
505 13.0233
510 21.8438
515 15.0207
520 19.0441
525 13.7028
530 15.7774
535 15.3807
540 20.2957
545 14.202
550 15.9112
555 18.1701
560 15.5027
565 11.7476
570 11.6873
575 14.2986
580 13.4228
585 14.0616
590 12.1526
595 10.7648
600 12.7456
Ex : 223
200 13.0838
205 13.2841
210 9.43972
215 11.281
220 9.87796
225 15.0487
230 15.5996
235 16.9478
240 12.4561
245 10.7275
250 15.5211
255 11.0496
260 11.2829
265 8.61612
270 9.78625
275 11.1979
280 14.4736
285 14.921
290 12.0169
295 11.6632
300 12.8955
305 15.6229
310 12.6959
315 11.2396
320 11.3451
325 15.0344
330 11.9142
335 15.8759
340 13.2595
345 19.2963
350 13.4468
355 16.6703
360 17.3675
365 15.85
370 15.9494
375 13.6155
380 13.4762
385 13.5141
390 16.5095
395 14.7812
400 18.438
405 14.5196
410 14.7169
415 16.4545
420 17.3011
425 11.4917
430 19.9538
435 15.5392
440 18.2487
445 20.5244
450 11.5639
455 12.7657
460 13.7917
465 20.0777
470 17.7413
475 13.7375
480 13.9965
485 16.6682
490 10.5137
495 14.8006
500 15.7656
505 16.9665
510 12.134
515 13.4032
520 13.2734
525 14.3893
530 14.7413
535 16.3253
540 17.5927
545 11.4901
550 12.6237
555 14.341
560 14.8084
565 11.921
570 13.455
575 14.259
580 15.6226
585 13.0689
590 15.1826
595 15.2616
600 4.54302
Ex : 228
200 13.232
205 9.86729
210 11.473
215 9.78463
220 13.3214
225 10.6087
230 11.9427
235 9.28462
240 9.95867
245 11.5427
250 13.5011
255 12.2636
260 11.2338
265 9.44534
270 10.0642
275 14.3045
280 11.2424
285 13.3317
290 9.53815
295 13.0538
300 13.0425
305 11.6277
310 12.1837
315 12.9071
320 12.6893
325 11.4474
330 11.1128
335 12.5947
340 13.9245
345 13.0552
350 17.0324
355 16.1833
360 13.1453
365 17.1294
370 12.4792
375 18.4445
380 14.3005
385 14.475
390 13.7931
395 11.7931
400 15.8587
405 15.4355
410 13.9622
415 14.9973
420 13.49
425 15.2383
430 19.8341
435 14.5279
440 18.8022
445 15.1329
450 13.8562
455 17.7048
460 15.5983
465 12.3255
470 14.3489
475 12.6036
480 13.3744
485 17.1201
490 14.2133
495 14.2591
500 17.5923
505 13.7064
510 17.0753
515 9.66313
520 15.3694
525 13.8274
530 10.7293
535 12.2853
540 13.0748
545 12.3832
550 16.4152
555 14.0267
560 15.3161
565 10.1299
570 13.5137
575 15.9696
580 9.5792
585 12.9
590 11.7646
595 13.0594
600 1.92921
Ex : 233
200 15.9905
205 11.4827
210 10.1401
215 8.20213
220 12.1004
225 10.354
230 10.9468
235 8.84798
240 8.91164
245 10.3927
250 8.95171
255 11.1878
260 10.9401
265 8.87866
270 12.6481
275 12.7121
280 9.5098
285 9.69642
290 14.2488
295 11.9551
300 12.5347
305 9.42618
310 8.87285
315 9.04568
320 9.95957
325 13.4083
330 9.71265
335 15.0857
340 10.7278
345 10.9991
350 11.2912
355 13.2993
360 12.9201
365 13.7281
370 12.3169
375 14.4494
380 13.7401
385 11.7409
390 12.7786
395 13.4345
400 13.1413
405 11.2996
410 12.3818
415 14.2084
420 11.3692
425 14.4194
430 15.2731
435 11.5955
440 10.198
445 10.7949
450 14.2774
455 13.9608
460 13.89
465 13.0717
470 15.0445
475 13.4301
480 15.952
485 11.6795
490 12.0592
495 12.84
500 15.6159
505 14.8516
510 14.0342
515 14.3921
520 14.179
525 14.5688
530 13.4033
535 10.3538
540 11.5744
545 11.9401
550 8.00123
555 13.3255
560 11.4411
565 13.4727
570 10.7601
575 10.9896
580 12.2363
585 13.3261
590 11.0452
595 9.27704
600 16.4166
Ex : 238
200 9.79518
205 11.7377
210 10.9043
215 10.7167
220 11.2332
225 8.44147
230 9.17025
235 8.98841
240 11.2236
245 10.7947
250 9.09831
255 11.2248
260 9.4218
265 10.2066
270 10.3411
275 8.54131
280 6.60066
285 8.93881
290 8.10683
295 8.00139
300 8.70288
305 7.99136
310 10.6343
315 8.50169
320 8.94329
325 12.0683
330 11.918
335 12.2984
340 10.2803
345 13.0121
350 14.2442
355 12.2343
360 12.6175
365 16.5318
370 13.8562
375 11.8755
380 11.457
385 10.6771
390 9.26883
395 10.6591
400 11.9854
405 14.2482
410 10.551
415 12.4867
420 9.42252
425 13.791
430 12.4394
435 15.4719
440 11.3606
445 9.36668
450 12.5148
455 10.3928
460 14.8166
465 16.0478
470 11.701
475 12.0011
480 10.2761
485 9.61636
490 12.903
495 13.3165
500 9.89402
505 11.4612
510 13.4053
515 10.7341
520 13.4826
525 9.72338
530 8.99189
535 9.78967
540 8.65421
545 9.67615
550 12.2535
555 6.78038
560 9.94053
565 12.2826
570 10.4623
575 10.3759
580 12.8383
585 9.29217
590 7.27885
595 10.9401
600 7.70157
Ex : 243
200 7.67037
205 5.85816
210 7.7192
215 7.24267
220 10.6187
225 9.72906
230 9.19965
235 7.25347
240 8.64962
245 10.9033
250 9.38983
255 7.78119
260 6.89015
265 7.23795
270 8.7737
275 6.94456
280 6.17737
285 5.96805
290 8.0796
295 8.29516
300 8.27119
305 9.62988
310 7.8336
315 10.4306
320 10.4754
325 10.5114
330 10.0061
335 12.1673
340 13.1078
345 11.5353
350 11.4864
355 12.8244
360 8.59751
365 10.7654
370 13.7279
375 11.7404
380 10.7365
385 12.4599
390 12.5592
395 10.7507
400 12.8353
405 14.1401
410 12.2404
415 10.9797
420 10.1115
425 9.82018
430 10.6595
435 9.55077
440 9.57989
445 10.2739
450 11.0837
455 12.6716
460 15.1541
465 13.142
470 11.2694
475 10.8605
480 13.5896
485 11.504
490 12.0265
495 10.1013
500 9.18507
505 9.64172
510 12.0129
515 14.71
520 10.9034
525 10.187
530 10.3331
535 9.99161
540 11.1455
545 8.46619
550 9.12361
555 8.31987
560 8.31693
565 8.65372
570 9.29944
575 13.1549
580 11.1499
585 7.99053
590 9.60349
595 10.2214
600 4.04332
Ex : 248
200 8.94674
205 8.053
210 6.86358
215 6.4602
220 6.25231
225 5.71827
230 6.66996
235 5.38053
240 6.86434
245 6.2831
250 6.65124
255 6.66674
260 7.07042
265 6.60736
270 6.88432
275 5.5778
280 7.18202
285 6.64277
290 6.39565
295 8.90672
300 5.7546
305 7.08733
310 9.24834
315 8.43836
320 7.28093
325 8.7326
330 9.50449
335 9.01993
340 8.535
345 8.25423
350 9.16488
355 8.37032
360 8.1491
365 9.24971
370 10.12
375 8.05973
380 11.027
385 8.77067
390 9.01316
395 10.0259
400 9.61444
405 8.98717
410 10.6834
415 11.0106
420 10.9324
425 11.5813
430 10.5322
435 7.1593
440 8.97106
445 9.20224
450 7.38381
455 7.26388
460 8.98346
465 7.87798
470 7.22877
475 8.61855
480 9.05842
485 9.64326
490 11.0386
495 10.3292
500 8.01671
505 6.15278
510 10.5626
515 7.54396
520 8.53528
525 7.26175
530 10.1582
535 8.33448
540 9.28755
545 10.5615
550 9.29082
555 8.75197
560 7.05257
565 7.29785
570 7.38947
575 8.35147
580 9.34453
585 9.04801
590 9.11929
595 7.70896
600 9.14849
Ex : 253
200 6.4375
205 6.98194
210 4.13055
215 5.27835
220 6.80408
225 7.29682
230 6.34898
235 6.08009
240 5.07344
245 4.90461
250 5.25676
255 7.21724
260 5.60015
265 5.90079
270 5.60828
275 6.76586
280 4.15245
285 5.10317
290 4.79879
295 6.9716
300 5.63054
305 7.26997
310 7.86571
315 6.56287
320 4.79161
325 7.51169
330 6.46295
335 5.34372
340 5.95543
345 6.40378
350 6.99965
355 8.58703
360 6.84717
365 8.73738
370 8.35626
375 7.47084
380 7.84719
385 7.19415
390 5.97496
395 9.19054
400 7.6249
405 7.42387
410 9.38988
415 9.10625
420 7.28856
425 8.28001
430 6.04469
435 6.60306
440 7.47125
445 9.46155
450 8.01566
455 6.00569
460 8.24351
465 7.93693
470 8.91861
475 8.20803
480 5.86548
485 7.43142
490 6.54902
495 9.82665
500 8.65203
505 10.0951
510 7.04662
515 6.33627
520 5.88302
525 7.76576
530 7.21596
535 6.83377
540 5.2642
545 5.58314
550 5.71087
555 6.3422
560 6.01356
565 5.8553
570 7.64244
575 7.11894
580 7.22631
585 6.56632
590 4.83772
595 6.35912
600 0.723644
Ex : 258
200 4.49228
205 5.1538
210 5.25919
215 4.26192
220 5.09497
225 4.38435
230 4.5081
235 4.56843
240 4.07717
245 4.93581
250 4.99945
255 6.14739
260 4.94629
265 6.81267
270 4.88449
275 3.43817
280 4.72632
285 5.29175
290 5.20009
295 4.26388
300 5.34907
305 5.22692
310 4.68668
315 4.08863
320 4.42377
325 5.53989
330 5.0685
335 5.50476
340 5.18841
345 6.2105
350 6.3836
355 5.63676
360 5.39627
365 6.57379
370 6.53884
375 5.74018
380 5.51119
385 4.56394
390 5.90825
395 7.51696
400 7.35824
405 6.63763
410 6.58187
415 5.93328
420 5.94211
425 5.77443
430 5.9445
435 5.29414
440 5.80848
445 6.12901
450 5.30503
455 5.66434
460 5.62969
465 6.56554
470 5.45488
475 5.87685
480 5.25088
485 5.45685
490 7.20246
495 4.27706
500 5.79703
505 5.1406
510 8.58609
515 6.0818
520 5.95057
525 5.37925
530 5.84479
535 4.74371
540 5.85875
545 5.50462
550 5.21649
555 4.76513
560 5.08724
565 4.71338
570 4.42069
575 5.53908
580 5.31553
585 6.08892
590 4.89422
595 4.5364
600 0.516226
Ex : 263
200 2.27729
205 4.22939
210 3.46471
215 4.75021
220 3.86061
225 3.34447
230 3.86507
235 3.67773
240 3.97248
245 4.47322
250 2.94185
255 3.53502
260 3.15083
265 4.33662
270 3.6222
275 3.7848
280 3.80785
285 4.48845
290 3.45985
295 2.32037
300 3.53967
305 3.68814
310 4.2329
315 2.30824
320 3.27337
325 4.82458
330 4.38657
335 4.90922
340 4.06595
345 4.20488
350 5.72694
355 4.85385
360 4.86948
365 4.02996
370 4.57753
375 5.16021
380 5.79608
385 4.74859
390 5.37126
395 4.95057
400 5.09166
405 5.1803
410 5.01258
415 6.1447
420 4.77763
425 4.95334
430 5.32868
435 4.7603
440 4.96482
445 4.91956
450 5.56251
455 5.38675
460 4.69865
465 5.61131
470 5.35616
475 4.07072
480 4.65304
485 4.8264
490 3.79646
495 4.50298
500 5.02822
505 4.75322
510 3.44905
515 4.60697
520 5.57667
525 5.53782
530 6.71245
535 5.27496
540 4.68973
545 4.39736
550 4.59327
555 3.3989
560 2.79483
565 3.76365
570 3.83311
575 4.32401
580 3.4636
585 4.54872
590 4.19611
595 4.03814
600 3.61663
Ex : 268
200 3.08639
205 2.78023
210 2.49379
215 2.21246
220 2.66574
225 2.44196
230 2.16529
235 2.99456
240 2.33267
245 2.16083
250 2.7568
255 3.13651
260 2.39458
265 3.66606
270 2.4614
275 3.29526
280 3.16209
285 2.60468
290 2.38087
295 2.63345
300 2.81616
305 1.90614
310 2.64209
315 2.50521
320 2.77988
325 2.65749
330 3.99752
335 3.4542
340 3.24092
345 2.86827
350 3.53435
355 4.44511
360 4.83376
365 3.44145
370 4.39682
375 3.05401
380 4.31628
385 4.51414
390 4.29413
395 4.23428
400 4.32309
405 3.41663
410 4.1042
415 4.11379
420 4.666
425 3.86568
430 4.55456
435 4.16007
440 4.36096
445 4.45665
450 3.35787
455 4.06095
460 3.40617
465 4.19145
470 3.64598
475 2.70391
480 3.75519
485 3.84185
490 3.71984
495 3.65393
500 2.81868
505 3.33054
510 3.28082
515 2.8243
520 3.47142
525 3.75256
530 4.25405
535 3.41706
540 3.996
545 3.1011
550 3.48607
555 3.03987
560 3.19255
565 2.9543
570 3.57271
575 2.8696
580 2.79821
585 2.58156
590 3.72939
595 3.27416
600 3.19233
Ex : 273
200 2.30877
205 2.0945
210 2.37009
215 2.43663
220 2.02632
225 2.42384
230 2.32702
235 1.83767
240 2.25492
245 2.18515
250 2.60445
255 1.90533
260 2.54101
265 2.16411
270 2.41227
275 2.08475
280 1.83356
285 2.49198
290 1.91579
295 2.04633
300 1.89543
305 2.86343
310 2.87832
315 2.26229
320 2.03969
325 2.91219
330 2.96911
335 2.75587
340 4.0449
345 2.78989
350 2.60012
355 3.04278
360 3.33427
365 2.64818
370 3.40099
375 3.44695
380 3.23839
385 3.05875
390 3.49985
395 3.37196
400 3.55978
405 3.15948
410 2.99157
415 3.10837
420 3.51563
425 3.38548
430 3.08086
435 3.42609
440 3.70634
445 3.51058
450 4.64442
455 3.19715
460 3.26957
465 2.90062
470 2.9413
475 3.50222
480 3.06386
485 3.17343
490 2.7071
495 2.96333
500 2.79917
505 2.38718
510 2.98234
515 2.88226
520 2.49036
525 2.4469
530 3.05388
535 3.80602
540 4.58162
545 3.90985
550 2.37456
555 3.41154
560 2.56913
565 2.09981
570 2.10398
575 2.29768
580 1.95105
585 2.47888
590 2.21539
595 2.16149
600 0.494107
Ex : 278
200 1.62888
205 1.93832
210 1.67863
215 1.84682
220 1.91804
225 2.03972
230 1.53773
235 1.56289
240 1.52205
245 1.56034
250 1.69494
255 1.75213
260 1.70256
265 1.46131
270 1.62748
275 2.38947
280 2.17062
285 1.72448
290 1.41417
295 1.67197
300 1.9156
305 1.99727
310 1.95805
315 1.91687
320 1.90634
325 2.13614
330 2.19588
335 2.20785
340 2.77336
345 2.33661
350 2.58632
355 2.43557
360 2.74456
365 2.83947
370 2.69277
375 2.76864
380 3.30106
385 3.03084
390 3.25505
395 2.7927
400 2.8787
405 3.15104
410 2.84969
415 3.22607
420 3.18062
425 3.34777
430 3.00095
435 2.54917
440 2.76828
445 3.70553
450 2.62108
455 2.80748
460 2.87597
465 2.86912
470 2.8183
475 2.81062
480 2.80011
485 2.87555
490 1.94644
495 2.09816
500 2.31139
505 1.82217
510 2.35583
515 2.34971
520 2.80729
525 2.40177
530 2.50962
535 2.01099
540 2.08194
545 2.84878
550 3.58918
555 2.71133
560 2.3174
565 2.32541
570 1.80641
575 2.0429
580 1.97942
585 1.92575
590 2.25426
595 2.02479
600 1.11662
Ex : 283
200 1.54313
205 1.20579
210 1.46796
215 1.22623
220 1.28578
225 1.10447
230 1.49722
235 1.13129
240 1.49775
245 1.53774
250 2.1202
255 1.85104
260 1.69227
265 1.6276
270 1.62551
275 1.38691
280 2.32716
285 1.73107
290 1.71874
295 1.29404
300 1.14709
305 1.43034
310 1.34935
315 1.70156
320 1.54853
325 1.68242
330 1.98504
335 2.02772
340 2.25008
345 2.30909
350 2.8969
355 2.09567
360 2.55549
365 2.4788
370 2.38062
375 2.24914
380 2.71307
385 2.58622
390 2.73904
395 2.73275
400 2.5963
405 2.33747
410 2.39391
415 2.92409
420 2.43
425 3.09497
430 2.22982
435 2.27436
440 3.2734
445 2.06097
450 2.36635
455 2.55921
460 2.52321
465 2.10667
470 1.87837
475 2.73786
480 1.92429
485 1.88327
490 2.40161
495 1.63346
500 2.28144
505 2.08889
510 2.01126
515 1.84835
520 2.34332
525 2.22624
530 1.58293
535 1.69162
540 1.68372
545 1.56778
550 1.70804
555 2.29832
560 2.70961
565 2.55506
570 2.19526
575 1.74478
580 1.63485
585 1.51563
590 1.45939
595 1.81343
600 0.501763
Ex : 288
200 1.1559
205 1.30595
210 1.26196
215 1.25496
220 0.962729
225 1.37747
230 1.25665
235 1.07655
240 1.06252
245 1.18905
250 1.28526
255 1.40143
260 1.6873
265 1.21055
270 1.46971
275 1.05058
280 1.51202
285 1.54467
290 1.37658
295 1.38318
300 1.30586
305 1.46349
310 1.23479
315 1.33969
320 1.71925
325 1.47381
330 2.11152
335 2.26029
340 2.12537
345 1.80356
350 1.89533
355 1.82509
360 2.29186
365 2.14801
370 2.01587
375 2.04449
380 2.32571
385 1.99743
390 3.02591
395 2.58453
400 2.78722
405 2.44043
410 2.51636
415 2.24941
420 2.28606
425 2.17029
430 2.08788
435 2.24444
440 2.09296
445 2.47059
450 2.31102
455 2.45316
460 2.33997
465 2.07827
470 1.62624
475 1.75215
480 1.68101
485 1.65326
490 2.38409
495 1.73976
500 1.68717
505 1.41034
510 1.7568
515 1.48329
520 1.76944
525 1.55963
530 1.67418
535 1.27607
540 1.77416
545 1.61281
550 1.4008
555 1.35873
560 1.78988
565 2.12146
570 2.96541
575 2.60754
580 1.77565
585 1.48622
590 1.34516
595 1.05906
600 0.603901
Ex : 293
200 0.915974
205 0.776008
210 0.708281
215 1.05687
220 0.80835
225 1.09813
230 1.27339
235 1.34738
240 1.14579
245 0.938071
250 0.999911
255 1.13846
260 1.13386
265 1.07853
270 1.1169
275 1.14227
280 1.04318
285 1.42654
290 1.60247
295 1.39813
300 1.2209
305 1.31492
310 1.06962
315 1.18434
320 1.38238
325 1.72432
330 1.66109
335 1.76432
340 2.32873
345 1.45264
350 1.52176
355 1.59266
360 2.2595
365 1.97506
370 1.71461
375 1.50408
380 2.17351
385 2.11725
390 1.92497
395 1.60811
400 1.9802
405 1.92675
410 1.78529
415 1.8938
420 2.21285
425 1.56184
430 2.25118
435 2.06573
440 1.94903
445 1.87164
450 1.97233
455 1.57436
460 2.04335
465 2.29241
470 2.08244
475 1.90836
480 1.63435
485 1.35178
490 1.39154
495 1.70331
500 1.55295
505 1.39315
510 1.63896
515 1.27241
520 1.33159
525 1.10578
530 0.938187
535 1.13774
540 1.25194
545 1.0743
550 1.37667
555 1.1826
560 0.970371
565 1.17854
570 1.3569
575 1.93337
580 2.25031
585 2.17174
590 1.40876
595 1.10206
600 0.550788
Ex : 298
200 1.1203
205 1.03208
210 0.857915
215 0.959503
220 1.12655
225 0.765736
230 1.16487
235 0.980355
240 0.971236
245 0.98426
250 1.12149
255 1.08881
260 0.915143
265 0.843896
270 1.05401
275 0.932474
280 1.02725
285 1.02061
290 1.30287
295 1.21912
300 0.961404
305 0.938503
310 1.32994
315 0.9783
320 1.04821
325 1.20898
330 1.64815
335 1.4901
340 1.65135
345 1.31348
350 1.91439
355 1.53016
360 2.03778
365 1.65103
370 1.58273
375 1.46578
380 1.39916
385 1.84117
390 2.09203
395 1.9457
400 2.20204
405 1.90648
410 1.71607
415 2.04439
420 2.09621
425 1.872
430 1.92345
435 1.58925
440 1.64403
445 1.91843
450 1.42775
455 1.67143
460 1.54334
465 1.4949
470 1.3907
475 1.39851
480 1.84679
485 1.53197
490 1.34499
495 1.47899
500 1.00557
505 1.11913
510 1.01035
515 1.18228
520 0.932839
525 1.35336
530 1.16408
535 1.29071
540 1.0103
545 1.28623
550 1.1826
555 1.01542
560 1.08008
565 0.935083
570 1.06521
575 1.26801
580 0.995208
585 1.69088
590 1.99895
595 2.07177
600 2.80575
Ex : 303
200 0.994764
205 0.81161
210 0.765586
215 0.848863
220 0.752432
225 0.816067
230 0.750036
235 0.813896
240 0.758923
245 0.973505
250 0.869357
255 0.729545
260 0.948541
265 1.22323
270 0.785947
275 0.88699
280 0.89003
285 0.638687
290 0.658418
295 1.02939
300 1.5006
305 1.08395
310 1.04213
315 0.763216
320 0.969317
325 1.35772
330 1.51197
335 1.62676
340 1.77916
345 1.40404
350 1.52632
355 1.64328
360 1.79112
365 1.36331
370 1.48336
375 1.54098
380 1.70533
385 1.8459
390 1.89732
395 1.85789
400 1.51065
405 1.75312
410 1.99195
415 1.90621
420 1.72647
425 1.65091
430 1.492
435 1.70743
440 1.82807
445 1.52223
450 1.46996
455 1.63547
460 1.62915
465 1.53826
470 1.29881
475 1.2182
480 1.50156
485 1.49224
490 1.372
495 1.21652
500 1.17725
505 1.29566
510 1.09994
515 1.09429
520 1.12581
525 1.12564
530 1.0416
535 1.28312
540 1.23983
545 0.936774
550 1.06121
555 0.84449
560 0.991652
565 0.944419
570 0.680494
575 0.965512
580 0.85834
585 1.0124
590 1.12699
595 1.57997
600 1.31361
Ex : 308
200 0.706806
205 0.602987
210 0.893077
215 0.6178
220 0.619585
225 0.580362
230 0.798546
235 0.61908
240 0.7461
245 0.798491
250 0.74234
255 0.66085
260 0.806251
265 0.836816
270 0.745017
275 0.684817
280 0.527739
285 0.665133
290 0.658139
295 0.558027
300 1.30562
305 1.35723
310 0.912
315 0.516111
320 0.778635
325 1.19872
330 1.59095
335 1.54551
340 1.47876
345 1.53884
350 1.4458
355 1.82729
360 1.34325
365 1.29958
370 1.44513
375 1.46797
380 1.51467
385 1.63828
390 1.7366
395 1.63946
400 1.7886
405 1.77696
410 1.7519
415 1.44224
420 1.76838
425 1.68586
430 1.61993
435 1.49777
440 1.3567
445 1.56332
450 1.49854
455 1.60677
460 1.50447
465 1.49241
470 1.13075
475 1.25252
480 1.53502
485 1.14566
490 1.07361
495 0.920336
500 0.895307
505 1.0431
510 1.39585
515 0.894326
520 1.29001
525 0.920288
530 0.887747
535 0.957162
540 0.908291
545 0.914448
550 0.697715
555 0.717727
560 0.914938
565 0.707695
570 0.73954
575 0.854024
580 0.913563
585 0.719555
590 1.13001
595 0.968933
600 0.213843
Ex : 313
200 0.710719
205 0.759179
210 0.657038
215 0.696445
220 0.823527
225 0.654643
230 0.620608
235 0.730203
240 0.631523
245 0.632957
250 0.491165
255 0.462727
260 0.566768
265 0.567543
270 0.785204
275 0.727966
280 0.813415
285 0.583924
290 0.571177
295 0.537964
300 0.715985
305 1.05251
310 1.01524
315 0.735511
320 1.14851
325 1.27859
330 1.5624
335 1.67448
340 1.5097
345 1.52148
350 1.62432
355 1.44772
360 1.56584
365 1.38993
370 1.79942
375 1.70431
380 1.85618
385 1.96104
390 2.00331
395 1.88902
400 1.79577
405 2.01917
410 2.2329
415 1.93454
420 1.99304
425 1.72531
430 1.77124
435 1.86319
440 1.78293
445 1.65997
450 1.72365
455 1.95275
460 1.56959
465 1.49239
470 1.58482
475 1.27627
480 1.17652
485 1.23456
490 1.16948
495 1.3972
500 1.22058
505 1.02923
510 1.15927
515 0.856513
520 0.850471
525 0.825991
530 0.801735
535 0.743947
540 0.777156
545 0.900913
550 0.682901
555 0.690938
560 0.706404
565 0.797211
570 0.592331
575 0.737867
580 0.738401
585 0.633391
590 0.624805
595 0.85764
600 1.55056
Ex : 318
200 0.641219
205 0.524505
210 0.581613
215 0.533648
220 0.577679
225 0.735937
230 0.608987
235 0.588043
240 0.686361
245 0.750976
250 0.548796
255 0.483123
260 0.56385
265 0.538119
270 0.700163
275 0.684164
280 0.443228
285 0.901114
290 0.584228
295 0.479605
300 0.797866
305 0.833991
310 1.21953
315 4.28632
320 2.83438
325 1.84235
330 2.04867
335 2.47304
340 2.6021
345 3.23607
350 3.6792
355 4.00175
360 4.85559
365 6.08958
370 6.97819
375 7.98126
380 8.86801
385 9.3541
390 9.96037
395 10.1083
400 10.6526
405 10.9784
410 11.2263
415 11.0305
420 10.8291
425 10.2805
430 10.2393
435 10.0316
440 9.27701
445 9.008
450 8.55978
455 7.88075
460 7.80243
465 7.06367
470 6.65011
475 6.20419
480 5.56785
485 5.05483
490 4.4054
495 3.74107
500 3.60057
505 3.28231
510 3.01367
515 2.81092
520 2.44864
525 2.01534
530 1.84396
535 1.74005
540 1.62467
545 1.64033
550 1.12241
555 1.31831
560 1.18913
565 1.06738
570 1.18438
575 0.9185
580 0.780876
585 0.747946
590 0.769709
595 0.778521
600 0.227062
Ex : 323
200 0.404519
205 0.498671
210 0.591643
215 0.627437
220 0.591332
225 0.505217
230 0.557625
235 0.537806
240 0.707847
245 0.47742
250 0.526369
255 0.565354
260 0.495706
265 0.552133
270 0.519139
275 0.499045
280 0.546197
285 0.522133
290 0.548084
295 0.468489
300 0.637685
305 0.61762
310 0.900641
315 27.5669
320 123.009
325 50.5413
330 9.49901
335 5.33047
340 5.75912
345 7.37171
350 10.1485
355 13.5929
360 16.0952
365 18.4936
370 21.7178
375 25.3201
380 28.6759
385 31.946
390 34.5152
395 35.96
400 37.4967
405 38.6051
410 38.4228
415 39.2983
420 38.0195
425 35.927
430 35.3343
435 33.5648
440 32.635
445 31.2625
450 29.3346
455 27.6604
460 25.7826
465 23.4491
470 21.8297
475 20.1101
480 18.5276
485 16.9017
490 15.0873
495 13.1973
500 11.7414
505 10.0349
510 9.22678
515 8.3501
520 6.70709
525 6.20793
530 5.47756
535 4.86419
540 4.25494
545 4.02901
550 3.22501
555 2.99189
560 2.66761
565 2.16611
570 2.01402
575 1.82376
580 1.37402
585 1.21208
590 1.1718
595 1.00347
600 1.98692
Ex : 328
200 0.512433
205 0.706772
210 0.57611
215 0.529685
220 0.626874
225 0.557261
230 0.418075
235 0.628587
240 0.528616
245 0.551073
250 0.466421
255 0.493594
260 0.629218
265 0.687937
270 0.563297
275 0.574599
280 0.53822
285 0.586385
290 0.561251
295 0.604371
300 0.616005
305 0.741726
310 0.847762
315 7.66151
320 285.674
325 658.555
330 194.026
335 28.2283
340 10.4501
345 9.72348
350 11.2173
355 14.8846
360 19.2643
365 21.575
370 23.7137
375 27.1043
380 30.0461
385 34.2265
390 36.668
395 38.0265
400 39.5938
405 40.4248
410 41.901
415 41.0662
420 39.7354
425 38.607
430 36.904
435 35.5076
440 34.0813
445 31.9098
450 30.4303
455 29.0006
460 26.9903
465 25.3069
470 22.6292
475 21.2539
480 18.7773
485 17.159
490 15.6326
495 13.6356
500 12.6359
505 11.1451
510 9.68988
515 8.32179
520 7.54193
525 6.91906
530 5.81614
535 5.00628
540 4.29476
545 3.95092
550 3.6951
555 3.33011
560 2.81414
565 2.55632
570 2.14052
575 1.69743
580 1.7809
585 1.25579
590 1.41563
595 1.18364
600 1.00588
Ex : 333
200 0.594205
205 0.554251
210 0.575111
215 0.54317
220 0.476633
225 0.674108
230 0.51184
235 0.460563
240 0.612613
245 0.538545
250 0.59042
255 0.525468
260 0.650003
265 0.590085
270 0.594997
275 0.47898
280 0.625517
285 0.640022
290 0.635599
295 0.593425
300 0.803886
305 0.961674
310 0.910867
315 1.03079
320 39.6877
325 796.394
330 1347.72
335 340.253
340 45.6236
345 12.3698
350 8.77446
355 8.47521
360 11.5158
365 15.5487
370 16.4811
375 16.4645
380 17.0431
385 19.3117
390 20.7826
395 22.8011
400 22.9245
405 22.64
410 24.4106
415 23.4396
420 23.1924
425 21.6388
430 20.5466
435 19.628
440 19.4024
445 18.0756
450 16.9183
455 16.1637
460 14.9044
465 14.0573
470 12.547
475 12.1543
480 11.0972
485 10.0268
490 8.77035
495 8.05991
500 7.24758
505 6.56031
510 5.84836
515 5.46787
520 4.50558
525 4.36023
530 3.75849
535 3.29108
540 2.91214
545 2.99033
550 2.55078
555 2.07131
560 2.10255
565 1.83119
570 1.60697
575 1.3783
580 1.49959
585 1.21862
590 1.07256
595 1.07983
600 0.122881
Ex : 338
200 0.646028
205 0.534222
210 0.496878
215 0.611071
220 0.522032
225 0.512984
230 0.579707
235 0.628136
240 0.5033
245 0.529935
250 0.620376
255 0.502103
260 0.601326
265 0.471181
270 0.608746
275 0.577906
280 0.531713
285 0.773815
290 0.685466
295 0.736833
300 0.774995
305 0.98617
310 1.15523
315 1.13357
320 1.77152
325 74.8687
330 1192.55
335 1751.9
340 418.805
345 54.2031
350 11.9252
355 6.7547
360 5.82752
365 7.39224
370 11.7007
375 11.5174
380 10.6077
385 10.7722
390 12.4804
395 12.8482
400 12.9778
405 12.9858
410 13.8078
415 13.8171
420 13.4583
425 12.5218
430 11.7502
435 11.9162
440 11.5887
445 11.0272
450 10.0889
455 9.43952
460 8.7363
465 8.20672
470 7.58541
475 7.25536
480 6.34206
485 5.70342
490 5.55873
495 4.99309
500 4.62664
505 4.13292
510 3.60169
515 3.09917
520 3.19354
525 2.93102
530 2.70182
535 2.35946
540 2.50166
545 2.02261
550 2.09761
555 1.90429
560 1.56424
565 1.47935
570 1.39595
575 1.35044
580 1.3402
585 1.3003
590 1.07703
595 1.09858
600 1.40509
Ex : 343
200 0.482162
205 0.497695
210 0.518561
215 0.4169
220 0.589525
225 0.601604
230 0.59582
235 0.538058
240 0.533743
245 0.5066
250 0.739662
255 0.640442
260 0.483563
265 0.528679
270 0.526954
275 0.587474
280 0.572683
285 0.570457
290 0.619312
295 0.687877
300 0.827293
305 0.810905
310 0.901101
315 1.0203
320 1.3561
325 2.3853
330 90.0881
335 1384.02
340 1990.71
345 470.563
350 59.884
355 11.942
360 5.85215
365 4.28555
370 4.78488
375 9.12849
380 10.3555
385 9.54482
390 9.97513
395 9.1698
400 9.43426
405 9.76897
410 10.7843
415 11.2075
420 10.7564
425 10.0396
430 9.50803
435 9.15462
440 9.01266
445 8.6931
450 8.32722
455 7.7533
460 6.91433
465 6.6539
470 6.47626
475 5.84624
480 5.75053
485 5.13227
490 4.87539
495 4.33094
500 4.04996
505 3.7228
510 3.51895
515 3.31447
520 2.78192
525 2.34429
530 2.54307
535 2.33595
540 2.25005
545 1.96571
550 1.77807
555 1.70036
560 1.52652
565 1.53158
570 1.41594
575 1.24566
580 1.03992
585 1.05028
590 1.08768
595 0.919269
600 1.28042
Ex : 348
200 0.46041
205 0.48269
210 0.544536
215 0.47669
220 0.469467
225 0.462372
230 0.425969
235 0.488158
240 0.590902
245 0.568084
250 0.428108
255 0.532228
260 0.557229
265 0.457222
270 0.541519
275 0.576564
280 0.495339
285 0.558588
290 0.545076
295 0.602894
300 0.722537
305 0.763468
310 0.802177
315 0.702223
320 1.04084
325 1.69299
330 2.86265
335 93.6295
340 1418.71
345 2077.67
350 523.422
355 65.5903
360 12.0635
365 5.12403
370 3.76639
375 4.0712
380 8.08639
385 11.6388
390 12.2229
395 11.2987
400 9.62753
405 10.5812
410 11.5045
415 11.8097
420 11.4983
425 10.7056
430 10.0334
435 9.91563
440 9.6972
445 9.56522
450 8.74612
455 8.12542
460 7.25658
465 6.98905
470 6.6233
475 5.86719
480 5.69448
485 5.44081
490 5.09257
495 4.24591
500 4.02696
505 3.73128
510 3.43917
515 3.17041
520 2.89255
525 2.70531
530 2.15905
535 2.29645
540 1.99048
545 2.01037
550 1.79994
555 1.53742
560 1.62632
565 1.29512
570 1.34692
575 1.08497
580 1.1228
585 1.02795
590 0.904826
595 0.911005
600 0.515493
Ex : 353
200 0.372027
205 0.377352
210 0.491868
215 0.440862
220 0.517195
225 0.533253
230 0.411966
235 0.490743
240 0.462402
245 0.551758
250 0.534163
255 0.52814
260 0.498027
265 0.490725
270 0.539708
275 0.58931
280 0.591394
285 0.542765
290 0.531959
295 0.698578
300 0.522244
305 0.700141
310 0.670594
315 0.727523
320 0.848355
325 1.14748
330 1.81825
335 3.26149
340 95.6202
345 1472.84
350 2097.85
355 506.463
360 63.2316
365 11.309
370 5.28714
375 3.57265
380 4.19483
385 8.64707
390 13.8411
395 13.4777
400 11.2953
405 10.3984
410 11.4195
415 12.7673
420 12.6826
425 11.9034
430 10.2176
435 10.0949
440 10.1165
445 10.0669
450 9.10769
455 8.27681
460 7.6454
465 7.16961
470 6.42729
475 6.66608
480 6.03916
485 5.6189
490 5.00315
495 4.71924
500 4.30871
505 3.78553
510 3.78988
515 3.23249
520 3.0336
525 2.74117
530 2.23078
535 2.37333
540 1.94876
545 1.90116
550 1.68705
555 1.68368
560 1.42534
565 1.40107
570 1.11013
575 1.12398
580 1.154
585 1.05195
590 0.835379
595 0.678244
600 0.802257
Ex : 358
200 0.497795
205 0.461582
210 0.421504
215 0.458922
220 0.470715
225 0.418203
230 0.439112
235 0.460657
240 0.503512
245 0.49507
250 0.459376
255 0.536399
260 0.391827
265 0.56512
270 0.490018
275 0.470843
280 0.50861
285 0.541602
290 0.561477
295 0.517334
300 0.611624
305 0.568748
310 0.618133
315 0.701126
320 0.791861
325 0.992572
330 1.37308
335 1.87667
340 3.06516
345 90.2072
350 1411.26
355 2125.78
360 522.549
365 64.8619
370 11.4202
375 5.13345
380 4.49839
385 5.96137
390 9.52368
395 13.7207
400 12.9196
405 11.2626
410 11.6889
415 12.4853
420 11.9721
425 10.9795
430 9.73909
435 9.73603
440 9.7639
445 9.6471
450 9.03752
455 7.95755
460 7.89801
465 7.20765
470 7.05632
475 6.41142
480 6.20087
485 5.38083
490 5.31342
495 4.95453
500 4.23789
505 3.81781
510 3.81874
515 3.32961
520 3.22235
525 2.8143
530 2.61983
535 2.27057
540 2.01355
545 1.92909
550 1.75359
555 1.70241
560 1.56954
565 1.33385
570 1.20927
575 1.10394
580 0.900396
585 0.847199
590 0.859146
595 0.734148
600 0.38648
Ex : 363
200 0.305321
205 0.320142
210 0.414595
215 0.335404
220 0.342056
225 0.419325
230 0.465746
235 0.439473
240 0.422719
245 0.585135
250 0.581475
255 0.48531
260 0.40708
265 0.467151
270 0.433558
275 0.462564
280 0.438269
285 0.548892
290 0.456069
295 0.590483
300 0.511633
305 0.506437
310 0.530088
315 0.515781
320 0.64851
325 0.792073
330 0.972204
335 1.42568
340 1.87996
345 3.20792
350 83.659
355 1381.34
360 2127.72
365 543.303
370 67.2711
375 11.7359
380 6.22328
385 7.05088
390 8.93464
395 10.4125
400 12.9916
405 14.3213
410 14.0754
415 14.1124
420 12.993
425 11.5394
430 10.4057
435 10.8012
440 10.9263
445 10.5158
450 9.29977
455 8.67424
460 8.27902
465 7.90298
470 7.40043
475 7.02223
480 6.45123
485 6.05821
490 5.80084
495 5.13914
500 4.44403
505 4.11871
510 3.77982
515 3.41753
520 3.15161
525 3.01705
530 2.56794
535 2.38744
540 2.1976
545 1.98719
550 1.69783
555 1.61778
560 1.61311
565 1.28658
570 1.283
575 1.05018
580 0.950399
585 0.763708
590 0.780262
595 0.778644
600 0.752189
Ex : 368
200 0.43904
205 0.401266
210 0.446589
215 0.362578
220 0.345041
225 0.344158
230 0.311782
235 0.35194
240 0.435155
245 0.396191
250 0.354075
255 0.361192
260 0.389749
265 0.350234
270 0.412055
275 0.43757
280 0.419736
285 0.397079
290 0.584656
295 0.507675
300 0.450447
305 0.507704
310 0.543826
315 0.515594
320 0.545274
325 0.698277
330 0.838288
335 0.945088
340 1.32519
345 1.92607
350 3.02344
355 70.3421
360 1336.71
365 2181.46
370 574.297
375 71.2212
380 13.3064
385 9.0735
390 11.1697
395 11.8637
400 11.7354
405 14.5471
410 18.3862
415 18.4186
420 17.1655
425 14.1635
430 12.704
435 12.7863
440 12.827
445 12.981
450 11.5185
455 9.74192
460 9.59687
465 9.06086
470 8.25996
475 7.67748
480 7.17738
485 6.12766
490 5.71677
495 5.13267
500 4.82349
505 4.31241
510 3.97658
515 3.53365
520 3.26119
525 3.07531
530 2.65637
535 2.41072
540 2.22851
545 2.13867
550 2.10591
555 1.70418
560 1.56416
565 1.50466
570 1.24156
575 1.16773
580 0.905769
585 0.898819
590 0.727528
595 0.792192
600 0.36559
Ex : 373
200 0.326311
205 0.374345
210 0.351982
215 0.397699
220 0.375047
225 0.340984
230 0.359436
235 0.326662
240 0.354965
245 0.410756
250 0.326067
255 0.312942
260 0.337321
265 0.386775
270 0.449379
275 0.369724
280 0.390199
285 0.43722
290 0.4021
295 0.409118
300 0.447885
305 0.460788
310 0.439714
315 0.493004
320 0.479189
325 0.645151
330 0.755728
335 0.740794
340 0.995239
345 1.3332
350 1.75768
355 3.02053
360 81.6958
365 1371.94
370 2158.29
375 567.335
380 70.8083
385 14.5303
390 11.7604
395 12.7065
400 11.8917
405 11.1803
410 14.3927
415 19.4546
420 18.1003
425 15.3096
430 13.0546
435 11.9599
440 12.5994
445 12.6279
450 11.1682
455 10.0279
460 9.08779
465 8.69887
470 8.12968
475 7.5371
480 6.98965
485 6.37722
490 5.8495
495 5.32713
500 4.74143
505 4.27652
510 3.73504
515 3.83051
520 3.21859
525 2.97266
530 2.56778
535 2.25047
540 2.16209
545 1.87568
550 1.88349
555 1.65905
560 1.52124
565 1.4372
570 1.31591
575 1.08342
580 0.895523
585 0.757263
590 0.7336
595 0.642259
600 0.525616
Ex : 378
200 0.367921
205 0.271936
210 0.370753
215 0.376187
220 0.363821
225 0.327595
230 0.293977
235 0.302739
240 0.340863
245 0.331106
250 0.363527
255 0.346917
260 0.355837
265 0.315849
270 0.340589
275 0.384187
280 0.354807
285 0.330209
290 0.437156
295 0.377772
300 0.407003
305 0.448583
310 0.437234
315 0.52309
320 0.468224
325 0.567972
330 0.653657
335 0.763384
340 0.952662
345 1.04295
350 1.2962
355 1.89999
360 2.97371
365 76.3392
370 1382.83
375 2217.05
380 585.028
385 74.6022
390 16.8
395 10.9372
400 9.81244
405 9.14401
410 10.4489
415 13.0228
420 15.764
425 13.618
430 11.3569
435 11.059
440 10.5775
445 10.2795
450 9.25887
455 8.45104
460 7.62758
465 7.4431
470 7.05233
475 6.88866
480 6.36661
485 5.88919
490 5.38847
495 4.96207
500 4.30075
505 3.97397
510 3.86317
515 3.44442
520 3.13783
525 2.73524
530 2.40085
535 2.3128
540 2.19488
545 1.87748
550 1.75743
555 1.57624
560 1.54727
565 1.25687
570 1.11657
575 0.961953
580 0.922743
585 0.819054
590 0.73433
595 0.633851
600 1.94141
Ex : 383
200 0.349523
205 0.37924
210 0.332955
215 0.32989
220 0.329872
225 0.354502
230 0.321367
235 0.35836
240 0.347794
245 0.35185
250 0.328826
255 0.324742
260 0.31258
265 0.384915
270 0.415595
275 0.388243
280 0.368327
285 0.415297
290 0.349106
295 0.397642
300 0.438833
305 0.39615
310 0.415013
315 0.53107
320 0.488464
325 0.50472
330 0.594013
335 0.61915
340 0.614552
345 0.824538
350 1.09862
355 1.28396
360 1.85833
365 3.02533
370 72.2152
375 1375.26
380 2313.97
385 617.954
390 80.9054
395 18.1839
400 10.1687
405 9.85316
410 11.0049
415 12.2519
420 12.5389
425 13.0454
430 13.0577
435 12.0176
440 11.5613
445 10.5327
450 9.54145
455 8.99755
460 8.06362
465 7.85336
470 7.48335
475 6.71607
480 6.46155
485 5.87444
490 5.49359
495 4.9754
500 4.6714
505 4.42137
510 3.94673
515 3.47024
520 3.03771
525 2.84064
530 2.53003
535 2.2552
540 2.11102
545 1.90766
550 1.69711
555 1.60351
560 1.40207
565 1.24643
570 1.05147
575 0.880819
580 0.89546
585 0.718034
590 0.730567
595 0.602262
600 0.749696
Ex : 388
200 0.317688
205 0.342711
210 0.272643
215 0.31321
220 0.345492
225 0.300906
230 0.323588
235 0.273492
240 0.316562
245 0.352411
250 0.365116
255 0.299255
260 0.275382
265 0.381345
270 0.434484
275 0.362178
280 0.384374
285 0.44528
290 0.365574
295 0.352751
300 0.331769
305 0.384097
310 0.363811
315 0.416167
320 0.47173
325 0.415818
330 0.534155
335 0.578757
340 0.648335
345 0.851345
350 1.00483
355 1.09452
360 1.43435
365 1.85637
370 3.05379
375 77.5953
380 1419.5
385 2323.66
390 618.093
395 82.2998
400 18.7539
405 12.432
410 13.2652
415 14.1399
420 13.9179
425 12.7334
430 13.2364
435 14.3582
440 13.677
445 12.3981
450 10.7425
455 9.64394
460 8.78986
465 8.25676
470 7.69727
475 7.10802
480 6.65994
485 6.07183
490 5.43406
495 5.21462
500 4.7439
505 4.3974
510 3.83662
515 3.51059
520 3.26485
525 2.86553
530 2.55693
535 2.36846
540 2.20379
545 2.01568
550 1.81454
555 1.62895
560 1.55201
565 1.22185
570 1.1538
575 1.08842
580 0.860449
585 0.828183
590 0.713665
595 0.623871
600 0.897229
Ex : 393
200 0.370358
205 0.344166
210 0.367072
215 0.377482
220 0.318879
225 0.282689
230 0.296731
235 0.315928
240 0.338558
245 0.286396
250 0.293123
255 0.338889
260 0.332875
265 0.321611
270 0.309398
275 0.397173
280 0.370269
285 0.42861
290 0.34453
295 0.361068
300 0.41348
305 0.4752
310 0.360517
315 0.403622
320 0.406346
325 0.503619
330 0.531061
335 0.641373
340 0.636195
345 0.768121
350 0.800455
355 0.770254
360 0.974388
365 1.38598
370 1.84215
375 3.1937
380 69.1869
385 1418.4
390 2381.96
395 640.387
400 84.9989
405 19.6605
410 13.5437
415 14.6162
420 14.1891
425 12.133
430 10.7426
435 11.8917
440 14.229
445 12.9786
450 11.4157
455 9.38777
460 8.34589
465 7.60159
470 7.52746
475 6.83578
480 6.15915
485 5.90664
490 5.23485
495 4.93908
500 4.45154
505 4.09556
510 3.74583
515 3.5752
520 3.07536
525 2.81266
530 2.45079
535 2.25046
540 2.02208
545 1.8578
550 1.76157
555 1.57474
560 1.56905
565 1.27894
570 1.05384
575 1.08323
580 0.853508
585 0.776631
590 0.722547
595 0.626602
600 0.549222
Ex : 398
200 0.261464
205 0.267172
210 0.311296
215 0.332144
220 0.337167
225 0.365139
230 0.286382
235 0.31857
240 0.328643
245 0.325742
250 0.257128
255 0.371827
260 0.280191
265 0.296718
270 0.261187
275 0.356694
280 0.295042
285 0.394993
290 0.303989
295 0.37971
300 0.387159
305 0.395609
310 0.355422
315 0.34094
320 0.421539
325 0.488807
330 0.547583
335 0.515562
340 0.589173
345 0.639128
350 0.696924
355 0.672288
360 0.894148
365 1.04843
370 1.3977
375 1.88771
380 3.10033
385 73.277
390 1447.2
395 2445.57
400 644.108
405 81.9101
410 17.1503
415 10.8554
420 10.5455
425 8.68188
430 7.34347
435 7.2013
440 8.57376
445 10.7287
450 9.8664
455 7.90519
460 6.82884
465 6.00246
470 5.70497
475 5.36284
480 5.14047
485 4.76366
490 4.44855
495 4.3174
500 3.94997
505 3.79717
510 3.10447
515 3.00924
520 2.63394
525 2.52107
530 2.34031
535 2.16885
540 1.89794
545 1.81309
550 1.60577
555 1.62054
560 1.28755
565 1.16484
570 1.01298
575 0.919013
580 0.745825
585 0.699641
590 0.603302
595 0.601848
600 0.63542
Ex : 403
200 0.302382
205 0.32323
210 0.360759
215 0.364858
220 0.320006
225 0.308269
230 0.335515
235 0.352307
240 0.343281
245 0.33169
250 0.326704
255 0.254997
260 0.30964
265 0.356629
270 0.308389
275 0.289707
280 0.342205
285 0.364921
290 0.367733
295 0.287479
300 0.407036
305 0.375873
310 0.340126
315 0.388377
320 0.396204
325 0.373066
330 0.471905
335 0.504615
340 0.523922
345 0.577035
350 0.641708
355 0.66937
360 0.706967
365 0.883177
370 1.0451
375 1.35913
380 1.96238
385 3.17872
390 81.7678
395 1484.98
400 2423.92
405 645.413
410 80.4522
415 15.3064
420 7.54145
425 6.49262
430 5.5194
435 4.9724
440 5.38646
445 5.99992
450 7.88152
455 8.0976
460 6.44962
465 5.94602
470 5.22388
475 4.76183
480 4.64153
485 4.31754
490 4.2328
495 3.79981
500 3.47047
505 3.32556
510 3.06254
515 2.88582
520 2.66889
525 2.44219
530 2.34749
535 2.13305
540 1.90188
545 1.70736
550 1.51636
555 1.38188
560 1.33807
565 1.30955
570 1.01375
575 0.891522
580 0.773685
585 0.710148
590 0.601427
595 0.531263
600 0.0996415
Ex : 408
200 0.32712
205 0.294315
210 0.322285
215 0.291574
220 0.224278
225 0.259626
230 0.275789
235 0.258847
240 0.299105
245 0.398746
250 0.317838
255 0.358929
260 0.335385
265 0.346021
270 0.298781
275 0.32553
280 0.291746
285 0.307723
290 0.298984
295 0.301924
300 0.340732
305 0.345259
310 0.303742
315 0.329391
320 0.32213
325 0.367229
330 0.396835
335 0.440535
340 0.505093
345 0.501258
350 0.568975
355 0.619432
360 0.708447
365 0.743536
370 0.894716
375 0.988234
380 1.40093
385 1.88932
390 3.28472
395 79.1809
400 1525.35
405 2480.34
410 637.598
415 79.724
420 14.8403
425 6.74509
430 5.55619
435 5.6196
440 5.23862
445 5.54366
450 5.39254
455 7.05145
460 7.78882
465 6.31486
470 5.80072
475 5.09943
480 4.42839
485 4.26378
490 4.09516
495 3.70621
500 3.49877
505 3.26815
510 3.11187
515 2.93493
520 2.54027
525 2.2575
530 2.24733
535 2.01448
540 1.87035
545 1.51576
550 1.51138
555 1.44775
560 1.21002
565 1.15245
570 1.00558
575 0.956001
580 0.824017
585 0.682544
590 0.64287
595 0.604135
600 1.00939
Ex : 413
200 0.338226
205 0.344407
210 0.326379
215 0.269019
220 0.29389
225 0.295913
230 0.269001
235 0.291861
240 0.26115
245 0.302315
250 0.313352
255 0.307089
260 0.262583
265 0.328968
270 0.316306
275 0.339136
280 0.275864
285 0.321831
290 0.320526
295 0.324428
300 0.323218
305 0.323779
310 0.318915
315 0.306416
320 0.349277
325 0.34019
330 0.360359
335 0.454293
340 0.517746
345 0.601144
350 0.630024
355 0.51589
360 0.644684
365 0.707605
370 0.709632
375 0.931178
380 1.13921
385 1.42525
390 2.06627
395 3.29372
400 88.1895
405 1564.12
410 2479.97
415 623.26
420 77.8828
425 13.8995
430 6.04711
435 5.55046
440 5.38298
445 4.82777
450 4.86972
455 4.6363
460 5.68948
465 7.17016
470 6.31279
475 5.33763
480 4.71289
485 3.89378
490 3.86591
495 3.53867
500 3.2828
505 3.26272
510 2.9053
515 2.57506
520 2.44398
525 2.19311
530 1.99681
535 1.86664
540 1.75717
545 1.63584
550 1.55179
555 1.42911
560 1.34252
565 1.15976
570 0.990592
575 0.88484
580 0.774558
585 0.641589
590 0.608046
595 0.538588
600 0.335313
Ex : 418
200 0.30756
205 0.322572
210 0.285618
215 0.305471
220 0.367627
225 0.255535
230 0.276235
235 0.369082
240 0.27502
245 0.316729
250 0.252897
255 0.347227
260 0.320008
265 0.291583
270 0.29967
275 0.275692
280 0.290344
285 0.32409
290 0.348345
295 0.331983
300 0.273531
305 0.30486
310 0.310603
315 0.370403
320 0.390767
325 0.340939
330 0.398184
335 0.358048
340 0.490126
345 0.509246
350 0.465341
355 0.463175
360 0.569962
365 0.630198
370 0.813106
375 0.755586
380 0.873326
385 1.04273
390 1.40737
395 2.15861
400 3.30117
405 85.0595
410 1560.38
415 2519.03
420 651.553
425 79.919
430 13.1245
435 5.27298
440 4.45435
445 4.05184
450 3.65043
455 3.35892
460 3.36808
465 4.03781
470 5.93359
475 5.78906
480 4.41982
485 4.14396
490 3.75378
495 3.27989
500 2.82459
505 2.71457
510 2.65943
515 2.4563
520 2.30402
525 2.12713
530 1.99989
535 1.81945
540 1.67213
545 1.54616
550 1.49041
555 1.30813
560 1.28082
565 1.0584
570 1.02357
575 0.932966
580 0.80066
585 0.70923
590 0.6157
595 0.567015
600 0.507626
Ex : 423
200 0.286126
205 0.317326
210 0.238725
215 0.277746
220 0.291778
225 0.298123
230 0.296509
235 0.274119
240 0.27735
245 0.332392
250 0.307761
255 0.324021
260 0.286331
265 0.260288
270 0.270436
275 0.348549
280 0.301484
285 0.282748
290 0.314213
295 0.261653
300 0.360209
305 0.291186
310 0.285405
315 0.291686
320 0.330826
325 0.375126
330 0.322398
335 0.423792
340 0.44138
345 0.504187
350 0.459135
355 0.484154
360 0.468517
365 0.53788
370 0.56983
375 0.637268
380 0.808605
385 0.952993
390 1.15655
395 1.58098
400 2.01349
405 3.25661
410 86.7393
415 1632.27
420 2507.97
425 621.414
430 75.758
435 12.1723
440 4.24052
445 3.37889
450 3.16332
455 2.80081
460 2.56894
465 2.57411
470 2.89559
475 4.65864
480 5.40609
485 3.95938
490 3.56616
495 3.27803
500 2.73786
505 2.43028
510 2.4155
515 2.13196
520 2.05555
525 1.91383
530 1.86883
535 1.72696
540 1.66104
545 1.42652
550 1.45144
555 1.36501
560 1.16213
565 1.00182
570 0.951276
575 0.848231
580 0.743008
585 0.672864
590 0.550614
595 0.547711
600 0.861364
Ex : 428
200 0.255431
205 0.273601
210 0.285757
215 0.25282
220 0.283711
225 0.319115
230 0.384731
235 0.306307
240 0.276587
245 0.318209
250 0.291343
255 0.267444
260 0.333929
265 0.38147
270 0.368523
275 0.354288
280 0.329641
285 0.307548
290 0.321764
295 0.316572
300 0.34362
305 0.345729
310 0.335221
315 0.337303
320 0.314392
325 0.403122
330 0.412633
335 0.397555
340 0.378567
345 0.414
350 0.482943
355 0.507511
360 0.511587
365 0.544218
370 0.558988
375 0.641542
380 0.681302
385 0.78008
390 0.920409
395 1.12858
400 1.42833
405 2.03833
410 3.28945
415 96.2281
420 1637.32
425 2538.45
430 648.406
435 78.8731
440 12.144
445 3.94832
450 3.22721
455 2.78748
460 2.64753
465 2.31723
470 2.38696
475 2.62991
480 3.88946
485 4.98114
490 3.99072
495 3.15016
500 3.01559
505 2.45938
510 2.23406
515 2.20854
520 1.96198
525 1.92334
530 1.80109
535 1.72104
540 1.55188
545 1.50736
550 1.33013
555 1.24043
560 1.14241
565 1.01312
570 0.883194
575 0.836304
580 0.75344
585 0.667328
590 0.56171
595 0.641948
600 0.406121
Ex : 433
200 0.29352
205 0.312986
210 0.291284
215 0.259281
220 0.281148
225 0.304605
230 0.248391
235 0.296688
240 0.32593
245 0.384924
250 0.362752
255 0.302931
260 0.335279
265 0.252282
270 0.341202
275 0.339442
280 0.254801
285 0.299995
290 0.440149
295 0.3261
300 0.358418
305 0.366014
310 0.337101
315 0.284999
320 0.311312
325 0.318274
330 0.383139
335 0.403324
340 0.39288
345 0.422753
350 0.451153
355 0.546788
360 0.475389
365 0.451926
370 0.603842
375 0.658864
380 0.610242
385 0.830017
390 0.912108
395 1.0134
400 1.27105
405 1.49222
410 2.18298
415 3.51354
420 106.05
425 1752.13
430 2591.19
435 634.954
440 76.9502
445 12.0735
450 4.02819
455 3.17825
460 2.7781
465 2.56048
470 2.29727
475 2.3125
480 2.36698
485 3.02627
490 4.50352
495 4.25231
500 3.20652
505 2.76803
510 2.31074
515 2.04726
520 1.88595
525 1.80446
530 1.85415
535 1.62849
540 1.70179
545 1.45662
550 1.396
555 1.25242
560 1.18177
565 1.00717
570 0.892652
575 0.810558
580 0.687995
585 0.657122
590 0.614027
595 0.563609
600 0.552453
Ex : 438
200 0.296388
205 0.355854
210 0.279481
215 0.328313
220 0.321325
225 0.277757
230 0.30787
235 0.276491
240 0.280911
245 0.341377
250 0.301868
255 0.302726
260 0.292661
265 0.306678
270 0.341393
275 0.347
280 0.32423
285 0.287425
290 0.294147
295 0.378347
300 0.339984
305 0.370979
310 0.364452
315 0.441936
320 0.358595
325 0.423982
330 0.382269
335 0.358958
340 0.352965
345 0.442172
350 0.443234
355 0.46188
360 0.447826
365 0.507795
370 0.53148
375 0.669759
380 0.632345
385 0.72949
390 0.74055
395 0.791535
400 0.963053
405 1.22303
410 1.39974
415 2.17177
420 3.39473
425 100.64
430 1725.37
435 2724.32
440 667.257
445 80.7949
450 12.7129
455 4.14954
460 3.08274
465 2.7649
470 2.39508
475 2.27688
480 2.08912
485 2.21235
490 2.68043
495 4.10044
500 4.20806
505 3.25182
510 2.69241
515 2.37668
520 1.94156
525 1.69333
530 1.80181
535 1.58009
540 1.65165
545 1.38919
550 1.4677
555 1.2674
560 1.17639
565 1.20131
570 0.957495
575 0.757504
580 0.729365
585 0.689391
590 0.612373
595 0.585042
600 0.697885
Ex : 443
200 0.362006
205 0.315971
210 0.331769
215 0.377248
220 0.356861
225 0.292495
230 0.257119
235 0.367137
240 0.328101
245 0.300385
250 0.303385
255 0.321233
260 0.292375
265 0.347883
270 0.334989
275 0.361741
280 0.248421
285 0.332673
290 0.367282
295 0.328734
300 0.396148
305 0.396167
310 0.348067
315 0.375346
320 0.365988
325 0.43235
330 0.369832
335 0.412002
340 0.464789
345 0.396153
350 0.425132
355 0.441016
360 0.435109
365 0.488516
370 0.516793
375 0.577833
380 0.635776
385 0.642991
390 0.705406
395 0.776136
400 0.854445
405 1.01949
410 1.17949
415 1.57022
420 2.1269
425 3.47068
430 112.155
435 1842.15
440 2753.48
445 670.557
450 81.2954
455 12.7996
460 4.15384
465 3.11545
470 2.90061
475 2.48209
480 2.24794
485 2.05661
490 2.02038
495 2.20181
500 3.31013
505 4.2327
510 3.16749
515 2.50776
520 2.44358
525 2.01337
530 1.82299
535 1.71301
540 1.59505
545 1.48038
550 1.38201
555 1.23211
560 1.15556
565 1.1248
570 1.01289
575 0.913827
580 0.831628
585 0.711816
590 0.644673
595 0.538689
600 0.826107
Ex : 448
200 0.301836
205 0.298787
210 0.348945
215 0.282091
220 0.315323
225 0.294872
230 0.2915
235 0.303596
240 0.289405
245 0.308421
250 0.375252
255 0.313674
260 0.305318
265 0.334405
270 0.329356
275 0.258307
280 0.280269
285 0.345949
290 0.373738
295 0.382587
300 0.363945
305 0.351201
310 0.307706
315 0.335235
320 0.362894
325 0.384552
330 0.361612
335 0.428642
340 0.356915
345 0.442095
350 0.426527
355 0.405188
360 0.426667
365 0.490168
370 0.491428
375 0.546018
380 0.594221
385 0.603537
390 0.545567
395 0.683705
400 0.835348
405 0.915907
410 1.02814
415 1.19779
420 1.48936
425 2.11163
430 3.55682
435 113.548
440 1949.49
445 2904.63
450 705.933
455 85.3071
460 13.3234
465 4.44341
470 3.07355
475 2.85974
480 2.48911
485 2.09682
490 2.08397
495 2.03178
500 2.13866
505 2.79177
510 4.1425
515 3.24132
520 2.60733
525 2.45287
530 2.1169
535 1.64218
540 1.58378
545 1.52989
550 1.41278
555 1.15666
560 1.17935
565 1.03953
570 0.980137
575 0.825765
580 0.720951
585 0.654741
590 0.623631
595 0.543842
600 0.381651
Ex : 453
200 0.304291
205 0.301949
210 0.295065
215 0.361393
220 0.272541
225 0.311192
230 0.29905
235 0.282777
240 0.310518
245 0.317563
250 0.272902
255 0.341182
260 0.309202
265 0.339965
270 0.356247
275 0.329845
280 0.325323
285 0.350462
290 0.310879
295 0.310784
300 0.304887
305 0.356607
310 0.329651
315 0.372509
320 0.377276
325 0.424999
330 0.432431
335 0.427193
340 0.391349
345 0.41701
350 0.473531
355 0.432555
360 0.479763
365 0.470463
370 0.503848
375 0.479948
380 0.554843
385 0.623777
390 0.585252
395 0.657037
400 0.767141
405 0.769141
410 0.818518
415 0.994423
420 1.23647
425 1.45902
430 2.01763
435 3.42222
440 119.537
445 2096.7
450 3007.09
455 692.24
460 84.1806
465 13.4542
470 4.19781
475 2.96626
480 2.74364
485 2.48436
490 2.0431
495 1.993
500 1.93198
505 1.8088
510 2.31272
515 3.72698
520 3.52096
525 2.56009
530 2.12991
535 1.96588
540 1.69932
545 1.47833
550 1.41544
555 1.25234
560 1.22276
565 1.1989
570 1.13518
575 0.924971
580 0.802537
585 0.768694
590 0.630876
595 0.603334
600 0.40421
Ex : 458
200 0.326915
205 0.376835
210 0.306127
215 0.318708
220 0.30835
225 0.394058
230 0.263593
235 0.348545
240 0.264575
245 0.355243
250 0.380402
255 0.323033
260 0.359345
265 0.333903
270 0.345583
275 0.307189
280 0.293065
285 0.353453
290 0.373728
295 0.307842
300 0.326561
305 0.31321
310 0.343939
315 0.364059
320 0.381986
325 0.399381
330 0.359979
335 0.397604
340 0.364838
345 0.391926
350 0.485252
355 0.391459
360 0.504194
365 0.490242
370 0.459187
375 0.482673
380 0.499696
385 0.556932
390 0.590291
395 0.651771
400 0.659704
405 0.676083
410 0.804653
415 0.879966
420 1.00631
425 1.24386
430 1.65504
435 2.19104
440 3.70877
445 132.074
450 2159.73
455 3162.37
460 747.227
465 90.783
470 13.9609
475 4.24027
480 2.93717
485 2.7731
490 2.38229
495 1.9978
500 1.7928
505 1.83911
510 1.80391
515 2.05219
520 3.01066
525 3.67177
530 2.70991
535 2.06087
540 1.98659
545 1.68938
550 1.36088
555 1.33314
560 1.24014
565 1.08851
570 1.02872
575 0.953236
580 0.868058
585 0.740621
590 0.682572
595 0.611936
600 0.825428
Ex : 463
200 0.278879
205 0.337778
210 0.313411
215 0.299784
220 0.259169
225 0.282531
230 0.263662
235 0.323
240 0.33628
245 0.328857
250 0.262895
255 0.32024
260 0.305033
265 0.358289
270 0.304763
275 0.352987
280 0.358411
285 0.279069
290 0.35362
295 0.348998
300 0.375449
305 0.337591
310 0.359467
315 0.340976
320 0.359591
325 0.338669
330 0.414113
335 0.424206
340 0.452958
345 0.423099
350 0.413373
355 0.53601
360 0.468217
365 0.453335
370 0.491954
375 0.484439
380 0.528374
385 0.563231
390 0.508926
395 0.666611
400 0.697452
405 0.646714
410 0.750101
415 0.834124
420 0.91034
425 1.02834
430 1.29281
435 1.61385
440 2.25901
445 3.72913
450 130.062
455 2243.67
460 3372.91
465 798.202
470 96.1324
475 14.3494
480 4.26485
485 2.84127
490 2.60048
495 2.32629
500 1.94876
505 1.74497
510 1.8187
515 1.78212
520 1.81359
525 2.44391
530 3.56006
535 3.04352
540 2.10392
545 2.02605
550 1.71311
555 1.37908
560 1.14488
565 1.19071
570 1.0237
575 1.00616
580 0.83317
585 0.690734
590 0.745356
595 0.570668
600 0.459426
Ex : 468
200 0.391005
205 0.33538
210 0.352873
215 0.280519
220 0.326745
225 0.301767
230 0.299342
235 0.313327
240 0.322226
245 0.285102
250 0.330642
255 0.328982
260 0.341508
265 0.289544
270 0.321368
275 0.292988
280 0.3186
285 0.327901
290 0.374004
295 0.291526
300 0.291141
305 0.334811
310 0.389065
315 0.319974
320 0.347227
325 0.311546
330 0.390565
335 0.415433
340 0.363509
345 0.410122
350 0.394286
355 0.410602
360 0.373268
365 0.403523
370 0.517468
375 0.516861
380 0.679912
385 0.551155
390 0.468679
395 0.532972
400 0.638171
405 0.586926
410 0.598727
415 0.695788
420 0.779234
425 0.822841
430 1.03875
435 1.30692
440 1.47389
445 2.1644
450 3.4898
455 141.078
460 2270.2
465 3534.4
470 831.934
475 99.2744
480 14.5425
485 4.29012
490 2.63537
495 2.40027
500 2.17686
505 1.82495
510 1.81131
515 1.68525
520 1.54993
525 1.77955
530 2.13083
535 3.07161
540 3.27796
545 2.1181
550 1.77634
555 1.68236
560 1.4636
565 1.19953
570 1.05619
575 0.953685
580 0.856642
585 0.745561
590 0.635941
595 0.574784
600 0.487049
Ex : 473
200 0.295822
205 0.32556
210 0.357122
215 0.315637
220 0.316801
225 0.323515
230 0.306407
235 0.31734
240 0.326967
245 0.343652
250 0.29648
255 0.288076
260 0.372349
265 0.300931
270 0.293209
275 0.390472
280 0.414735
285 0.394082
290 0.364792
295 0.308621
300 0.411351
305 0.378729
310 0.351089
315 0.381987
320 0.386593
325 0.405585
330 0.316138
335 0.386418
340 0.409735
345 0.392642
350 0.423536
355 0.464428
360 0.467994
365 0.434878
370 0.445588
375 0.483246
380 0.452784
385 0.570075
390 0.500738
395 0.570034
400 0.531324
405 0.670704
410 0.638254
415 0.714546
420 0.700462
425 0.728015
430 0.951209
435 1.04324
440 1.28984
445 1.68578
450 2.23809
455 3.92373
460 164.749
465 2511.87
470 3452.24
475 776.789
480 93.0979
485 14.02
490 4.12933
495 2.45217
500 2.32729
505 2.20094
510 1.90738
515 1.81874
520 1.77842
525 1.79198
530 1.76961
535 1.99485
540 2.78677
545 3.14321
550 2.32836
555 1.78959
560 1.70052
565 1.51551
570 1.20122
575 1.04613
580 0.882537
585 0.722529
590 0.643134
595 0.667858
600 0.449556
Ex : 478
200 0.376321
205 0.376108
210 0.397111
215 0.376239
220 0.38859
225 0.422288
230 0.319799
235 0.401082
240 0.387792
245 0.364008
250 0.339021
255 0.381766
260 0.430607
265 0.439129
270 0.35226
275 0.385865
280 0.36126
285 0.498932
290 0.380134
295 0.340151
300 0.332845
305 0.428191
310 0.445076
315 0.395278
320 0.439792
325 0.400464
330 0.385855
335 0.448084
340 0.447157
345 0.402429
350 0.399796
355 0.520038
360 0.561121
365 0.495994
370 0.514272
375 0.488009
380 0.601181
385 0.613148
390 0.512837
395 0.624337
400 0.648716
405 0.655701
410 0.696357
415 0.673586
420 0.770837
425 0.831348
430 0.864545
435 1.0672
440 1.16757
445 1.47534
450 1.93611
455 2.94277
460 4.67935
465 179.738
470 2565.7
475 3512.19
480 831.382
485 99.6212
490 14.8768
495 4.30364
500 2.75676
505 2.28034
510 2.25895
515 1.99944
520 1.96789
525 1.91669
530 1.91985
535 1.74019
540 1.75083
545 2.20263
550 3.14936
555 2.59089
560 1.71026
565 1.68798
570 1.47001
575 1.14195
580 0.912036
585 0.858271
590 0.77096
595 0.66701
600 0.543174
Ex : 483
200 0.436154
205 0.421237
210 0.38155
215 0.351939
220 0.32181
225 0.402445
230 0.336167
235 0.311987
240 0.364411
245 0.342953
250 0.315349
255 0.39435
260 0.375084
265 0.339161
270 0.382188
275 0.366459
280 0.394514
285 0.396872
290 0.381871
295 0.373699
300 0.391569
305 0.339525
310 0.432496
315 0.390947
320 0.463652
325 0.35659
330 0.446884
335 0.459115
340 0.476802
345 0.424879
350 0.453662
355 0.458998
360 0.475622
365 0.439213
370 0.477325
375 0.511263
380 0.621848
385 0.630577
390 0.569217
395 0.662697
400 0.66847
405 0.664572
410 0.586347
415 0.625368
420 0.752683
425 0.745327
430 0.802064
435 0.863236
440 1.15118
445 1.12163
450 1.52719
455 1.91577
460 2.74652
465 4.89894
470 142.077
475 2528.79
480 3747.11
485 876.398
490 105.087
495 15.3853
500 4.23755
505 2.50757
510 2.26943
515 2.36362
520 2.38372
525 2.09385
530 1.8305
535 1.87986
540 1.8123
545 1.66755
550 1.88882
555 2.71173
560 2.80218
565 1.8918
570 1.36474
575 1.36989
580 1.14733
585 0.803071
590 0.723886
595 0.729295
600 0.747644
Ex : 488
200 0.408544
205 0.51826
210 0.428313
215 0.460022
220 0.46566
225 0.401626
230 0.352257
235 0.496357
240 0.379129
245 0.411013
250 0.473058
255 0.477467
260 0.411333
265 0.428155
270 0.413303
275 0.426358
280 0.381272
285 0.399715
290 0.492578
295 0.465677
300 0.408312
305 0.403971
310 0.459952
315 0.454459
320 0.462975
325 0.396763
330 0.412632
335 0.539007
340 0.583329
345 0.562788
350 0.474806
355 0.505326
360 0.556571
365 0.478354
370 0.459705
375 0.515711
380 0.512581
385 0.620108
390 0.632264
395 0.660369
400 0.71382
405 0.72978
410 0.651918
415 0.651318
420 0.708532
425 0.824486
430 0.87555
435 0.884214
440 0.966421
445 1.18681
450 1.34142
455 1.6272
460 2.14549
465 3.60037
470 4.94159
475 172.28
480 2712.46
485 3721.08
490 849.909
495 101.773
500 15.0317
505 4.37944
510 2.64649
515 2.30692
520 2.27027
525 2.2701
530 2.0179
535 1.97064
540 1.90851
545 1.70753
550 1.59587
555 1.69915
560 2.14191
565 2.57418
570 1.8748
575 1.30376
580 1.25234
585 1.1515
590 0.675129
595 0.649777
600 0.0739421
Ex : 493
200 0.431764
205 0.447726
210 0.406595
215 0.432851
220 0.409192
225 0.421448
230 0.365199
235 0.376625
240 0.404023
245 0.396628
250 0.406691
255 0.390609
260 0.372382
265 0.417043
270 0.453152
275 0.441225
280 0.401041
285 0.453791
290 0.388751
295 0.417879
300 0.379307
305 0.421694
310 0.405952
315 0.483344
320 0.43886
325 0.438181
330 0.4335
335 0.494499
340 0.48919
345 0.468832
350 0.548056
355 0.509955
360 0.533658
365 0.436536
370 0.601435
375 0.59124
380 0.588542
385 0.557191
390 0.542394
395 0.566992
400 0.625784
405 0.663002
410 0.779279
415 0.70716
420 0.69856
425 0.810711
430 0.815607
435 0.82433
440 0.844856
445 1.00326
450 1.00476
455 1.4344
460 1.75003
465 2.32325
470 3.12157
475 4.80803
480 159.162
485 2677.75
490 3899.04
495 877.329
500 104.461
505 15.298
510 4.3949
515 2.5167
520 2.39136
525 2.27647
530 2.08035
535 2.04006
540 1.84126
545 1.76464
550 1.50815
555 1.6333
560 1.42784
565 1.76717
570 2.27369
575 1.83365
580 1.22306
585 1.09887
590 0.913985
595 0.792126
600 0.611229
Ex : 498
200 0.352583
205 0.432429
210 0.43684
215 0.376613
220 0.386367
225 0.389118
230 0.45674
235 0.409136
240 0.486515
245 0.444715
250 0.470585
255 0.491152
260 0.578943
265 0.459097
270 0.420043
275 0.396082
280 0.470311
285 0.432078
290 0.425949
295 0.49129
300 0.51968
305 0.491182
310 0.53155
315 0.536507
320 0.480566
325 0.487678
330 0.484016
335 0.442234
340 0.460503
345 0.541088
350 0.468475
355 0.495848
360 0.560731
365 0.549475
370 0.656117
375 0.532792
380 0.487736
385 0.596207
390 0.625889
395 0.634862
400 0.557248
405 0.631761
410 0.637134
415 0.741344
420 0.733349
425 0.695447
430 0.740378
435 0.867287
440 0.907623
445 0.941437
450 1.06731
455 1.26826
460 1.52658
465 1.97059
470 2.18588
475 3.11135
480 4.95289
485 189.765
490 2818.29
495 3761.02
500 851.74
505 102.023
510 15.1182
515 4.52402
520 2.77239
525 2.67335
530 2.39882
535 2.28329
540 2.02744
545 1.8777
550 1.72186
555 1.53527
560 1.35965
565 1.40067
570 1.45923
575 1.68096
580 1.75408
585 1.2239
590 1.05735
595 0.953469
600 1.25351
Ex : 503
200 0.468419
205 0.501972
210 0.434005
215 0.428575
220 0.485324
225 0.40315
230 0.623241
235 0.509311
240 0.401577
245 0.423278
250 0.496671
255 0.465536
260 0.478976
265 0.496558
270 0.477193
275 0.386879
280 0.50281
285 0.54458
290 0.531026
295 0.449281
300 0.351878
305 0.474757
310 0.460781
315 0.487712
320 0.557531
325 0.50286
330 0.530424
335 0.526905
340 0.546515
345 0.610212
350 0.556212
355 0.503053
360 0.59936
365 0.492159
370 0.600599
375 0.583298
380 0.620355
385 0.627943
390 0.634388
395 0.661558
400 0.652367
405 0.653812
410 0.736647
415 0.839846
420 0.786351
425 0.807336
430 0.914905
435 0.893297
440 0.940565
445 0.919587
450 1.01445
455 1.06513
460 1.32486
465 1.64933
470 1.91786
475 2.52358
480 3.21592
485 4.91402
490 173.842
495 2794.14
500 3857.23
505 867.181
510 103.836
515 15.4421
520 4.61732
525 3.04666
530 2.48663
535 2.40038
540 2.05173
545 1.86469
550 1.70558
555 1.60101
560 1.61856
565 1.44465
570 1.25216
575 1.33036
580 1.37433
585 1.54792
590 1.39056
595 0.892319
600 0.610368
Ex : 508
200 0.378848
205 0.396928
210 0.424748
215 0.556328
220 0.456087
225 0.473303
230 0.511858
235 0.462609
240 0.484885
245 0.502904
250 0.479409
255 0.584944
260 0.391509
265 0.464049
270 0.54438
275 0.433277
280 0.408684
285 0.462467
290 0.581129
295 0.494242
300 0.46229
305 0.493682
310 0.550722
315 0.437216
320 0.545147
325 0.505968
330 0.447041
335 0.558825
340 0.586801
345 0.50556
350 0.553539
355 0.590185
360 0.719122
365 0.627269
370 0.603374
375 0.557803
380 0.551784
385 0.662221
390 0.536192
395 0.555366
400 0.623368
405 0.669822
410 0.697876
415 0.733233
420 0.821734
425 0.766328
430 0.868036
435 0.761204
440 0.923558
445 0.97633
450 0.908561
455 1.06101
460 1.16669
465 1.44742
470 1.6615
475 1.92995
480 2.34753
485 3.30481
490 5.06747
495 185.808
500 2792.04
505 3856.51
510 910.155
515 109.03
520 16.086
525 4.68452
530 2.97422
535 2.48458
540 2.36581
545 2.15358
550 1.90525
555 1.7671
560 1.58618
565 1.34086
570 1.33273
575 1.15924
580 1.18249
585 1.21708
590 1.36659
595 1.21825
600 0.849308
Ex : 513
200 0.598893
205 0.506904
210 0.463387
215 0.50015
220 0.457105
225 0.493291
230 0.431806
235 0.526333
240 0.49374
245 0.432782
250 0.439789
255 0.403862
260 0.459285
265 0.55281
270 0.446754
275 0.484001
280 0.536503
285 0.504475
290 0.511259
295 0.515016
300 0.451238
305 0.393255
310 0.420454
315 0.430564
320 0.487367
325 0.450709
330 0.450333
335 0.578636
340 0.509217
345 0.464511
350 0.502228
355 0.587121
360 0.656333
365 0.639779
370 0.595722
375 0.554651
380 0.5059
385 0.590812
390 0.586006
395 0.706638
400 0.809547
405 0.589453
410 0.709666
415 0.718696
420 0.664096
425 0.692675
430 0.785434
435 0.735536
440 0.815183
445 0.776899
450 0.975361
455 1.05621
460 1.05561
465 1.20326
470 1.49581
475 1.63615
480 1.88203
485 2.48985
490 3.28586
495 4.71322
500 168.748
505 2736.59
510 3889.63
515 928.028
520 111.19
525 16.2587
530 4.3922
535 3.02611
540 2.36356
545 2.11099
550 1.9292
555 1.8128
560 1.55694
565 1.49623
570 1.34188
575 1.33692
580 1.27314
585 1.06949
590 1.07807
595 1.13409
600 1.07824
Ex : 518
200 0.468928
205 0.445966
210 0.407223
215 0.392559
220 0.386221
225 0.530993
230 0.543141
235 0.439728
240 0.4415
245 0.379343
250 0.43507
255 0.422537
260 0.430747
265 0.477421
270 0.583468
275 0.508396
280 0.41388
285 0.443255
290 0.413273
295 0.473985
300 0.507885
305 0.492337
310 0.502699
315 0.469654
320 0.51199
325 0.477649
330 0.544442
335 0.538404
340 0.630789
345 0.568432
350 0.609038
355 0.513235
360 0.623186
365 0.568599
370 0.571296
375 0.628658
380 0.515354
385 0.645208
390 0.578104
395 0.697524
400 0.642542
405 0.619356
410 0.593014
415 0.661625
420 0.741875
425 0.704831
430 0.796341
435 0.79766
440 0.79958
445 0.774049
450 0.902035
455 0.938891
460 1.09546
465 1.20291
470 1.0769
475 1.35159
480 1.64826
485 1.84643
490 2.23875
495 3.08188
500 4.85106
505 171.136
510 2646.1
515 3841.81
520 924.911
525 110.616
530 16.2137
535 4.44968
540 2.54873
545 2.00213
550 1.88542
555 1.96479
560 1.60249
565 1.3841
570 1.3201
575 1.15469
580 0.973502
585 1.1173
590 0.878645
595 0.904106
600 0.401346
Ex : 523
200 0.379323
205 0.399955
210 0.446215
215 0.468719
220 0.469237
225 0.426953
230 0.561179
235 0.425464
240 0.477015
245 0.445819
250 0.478829
255 0.523032
260 0.511811
265 0.4607
270 0.415418
275 0.451142
280 0.474572
285 0.518467
290 0.504954
295 0.51938
300 0.471893
305 0.590411
310 0.419953
315 0.449938
320 0.434268
325 0.591038
330 0.557053
335 0.485088
340 0.557251
345 0.70063
350 0.620477
355 0.552556
360 0.564296
365 0.539883
370 0.643375
375 0.648957
380 0.582421
385 0.600213
390 0.51049
395 0.56271
400 0.598844
405 0.63528
410 0.637535
415 0.62896
420 0.590316
425 0.723581
430 0.742426
435 0.685586
440 0.789816
445 0.851093
450 0.899483
455 0.940867
460 0.925023
465 1.15048
470 1.03279
475 1.27027
480 1.29223
485 1.67939
490 1.91684
495 2.41626
500 3.09847
505 4.83121
510 155.386
515 2553.4
520 3786.69
525 949.265
530 113.785
535 16.3024
540 4.7273
545 2.7096
550 2.22287
555 1.86987
560 1.75137
565 1.65313
570 1.37991
575 1.18894
580 0.960254
585 0.991486
590 0.973672
595 0.853823
600 0.518938
Ex : 528
200 0.533386
205 0.340297
210 0.404921
215 0.376839
220 0.406047
225 0.60754
230 0.493758
235 0.548145
240 0.501834
245 0.656219
250 0.51449
255 0.560977
260 0.428876
265 0.475439
270 0.390584
275 0.524366
280 0.633788
285 0.608169
290 0.456209
295 0.455818
300 0.533864
305 0.476592
310 0.522542
315 0.480425
320 0.530412
325 0.578409
330 0.507322
335 0.517484
340 0.443602
345 0.525257
350 0.536183
355 0.554013
360 0.571543
365 0.593038
370 0.603032
375 0.687009
380 0.577
385 0.739237
390 0.736034
395 0.668323
400 0.784126
405 0.687489
410 0.610026
415 0.768905
420 0.713033
425 0.832786
430 0.641215
435 0.649971
440 0.762803
445 0.709233
450 0.758061
455 0.844594
460 1.01773
465 1.1288
470 1.12674
475 1.13949
480 1.11056
485 1.25997
490 1.4343
495 1.74319
500 2.26802
505 3.08551
510 4.50367
515 143.394
520 2487.31
525 3731.97
530 921.047
535 110.422
540 15.9271
545 4.36454
550 2.52891
555 2.16654
560 1.91235
565 1.77507
570 1.52453
575 1.32617
580 1.03947
585 1.08495
590 1.06913
595 0.875698
600 1.14654
Ex : 533
200 0.411356
205 0.507048
210 0.462314
215 0.4573
220 0.519328
225 0.560582
230 0.660451
235 0.578786
240 0.44103
245 0.542981
250 0.44945
255 0.498443
260 0.432602
265 0.514603
270 0.504954
275 0.522017
280 0.516697
285 0.477824
290 0.5169
295 0.627729
300 0.494831
305 0.482107
310 0.530593
315 0.603286
320 0.570162
325 0.582794
330 0.527361
335 0.537432
340 0.681025
345 0.569241
350 0.547021
355 0.537292
360 0.547996
365 0.599271
370 0.706383
375 0.776264
380 0.684213
385 0.555994
390 0.578215
395 0.587482
400 0.602126
405 0.766265
410 0.764063
415 0.777117
420 0.715106
425 0.784295
430 0.72072
435 0.781586
440 0.752261
445 0.774779
450 0.936864
455 0.869544
460 0.983458
465 1.08665
470 1.03051
475 1.0706
480 1.23371
485 1.27602
490 1.1597
495 1.46824
500 1.63572
505 2.22946
510 3.15487
515 4.81972
520 143.741
525 2394.08
530 3650.89
535 933.126
540 111.355
545 15.9257
550 4.31502
555 2.50909
560 1.94034
565 1.53483
570 1.4121
575 1.26315
580 1.25258
585 1.16824
590 0.964508
595 0.875033
600 0.465072
Ex : 538
200 0.618115
205 0.493897
210 0.536665
215 0.517539
220 0.533597
225 0.564223
230 0.476065
235 0.4766
240 0.521728
245 0.496014
250 0.481264
255 0.473978
260 0.664182
265 0.49618
270 0.531828
275 0.541573
280 0.652976
285 0.510442
290 0.619754
295 0.45593
300 0.421982
305 0.55266
310 0.53398
315 0.417226
320 0.489639
325 0.526621
330 0.489346
335 0.558643
340 0.580325
345 0.546605
350 0.613
355 0.608706
360 0.632725
365 0.64026
370 0.732011
375 0.707991
380 0.691291
385 0.828309
390 0.645618
395 0.61676
400 0.621899
405 0.779859
410 0.74303
415 0.672858
420 0.748072
425 0.856666
430 0.779874
435 0.962795
440 0.737773
445 0.761279
450 0.718213
455 0.847356
460 0.945877
465 1.00139
470 0.950611
475 1.11694
480 1.06055
485 1.32071
490 1.27814
495 1.31215
500 1.38583
505 1.72439
510 2.08595
515 2.96465
520 4.24137
525 121.775
530 2269.16
535 3600.39
540 956.115
545 114.314
550 15.9644
555 4.09997
560 2.21598
565 1.74721
570 1.35048
575 1.13663
580 1.30125
585 1.06532
590 1.08162
595 0.900513
600 0.459054
Ex : 543
200 0.608859
205 0.583016
210 0.482791
215 0.52636
220 0.564975
225 0.598022
230 0.463342
235 0.587639
240 0.615394
245 0.506749
250 0.439699
255 0.579586
260 0.506687
265 0.57105
270 0.572381
275 0.572017
280 0.462393
285 0.547748
290 0.61113
295 0.670601
300 0.505975
305 0.517626
310 0.538233
315 0.489572
320 0.445682
325 0.578036
330 0.589091
335 0.551063
340 0.531792
345 0.568863
350 0.728907
355 0.61026
360 0.631864
365 0.577993
370 0.827695
375 0.66378
380 0.63184
385 0.604803
390 0.664158
395 0.63515
400 0.624138
405 0.727262
410 0.740129
415 0.783757
420 0.731603
425 0.802208
430 0.711631
435 0.738842
440 0.886402
445 0.722991
450 0.780444
455 0.699031
460 0.951831
465 0.939268
470 0.822251
475 0.999609
480 0.939846
485 1.03695
490 1.17246
495 1.33404
500 1.26536
505 1.47029
510 1.81021
515 2.24205
520 2.8279
525 4.14282
530 108.851
535 2150.26
540 3572.81
545 967.975
550 116.246
555 16.2356
560 3.8449
565 2.26341
570 1.59928
575 1.50141
580 1.25765
585 1.19512
590 1.13181
595 1.05403
600 0.781929
Ex : 548
200 0.589809
205 0.582448
210 0.550242
215 0.559861
220 0.534556
225 0.665744
230 0.484241
235 0.430633
240 0.492239
245 0.559862
250 0.544379
255 0.578823
260 0.470506
265 0.574659
270 0.600056
275 0.491534
280 0.718303
285 0.478437
290 0.433697
295 0.576992
300 0.553631
305 0.47477
310 0.614041
315 0.504382
320 0.668005
325 0.554521
330 0.652701
335 0.73555
340 0.686742
345 0.679899
350 0.628038
355 0.742646
360 0.743995
365 0.672676
370 0.872515
375 0.828321
380 0.626354
385 0.722395
390 0.67908
395 0.642823
400 0.743464
405 0.680238
410 0.630042
415 0.629362
420 0.659719
425 0.716537
430 0.854958
435 0.707243
440 0.759528
445 0.859101
450 0.902967
455 0.854127
460 1.02868
465 0.923278
470 0.941607
475 0.952238
480 0.951368
485 0.97287
490 1.09087
495 1.02085
500 1.16893
505 1.44897
510 1.60569
515 1.79778
520 2.28895
525 2.83257
530 4.26124
535 122.305
540 2149.79
545 3419.6
550 942.741
555 112.409
560 15.6321
565 3.9467
570 2.26316
575 1.44684
580 1.30725
585 1.06181
590 1.11481
595 1.07959
600 1.63725
Ex : 553
200 0.444138
205 0.553152
210 0.464017
215 0.672751
220 0.489688
225 0.501016
230 0.538289
235 0.589351
240 0.558184
245 0.634132
250 0.570745
255 0.551361
260 0.421425
265 0.565766
270 0.580821
275 0.518834
280 0.604503
285 0.63709
290 0.566814
295 0.494176
300 0.598392
305 0.60089
310 0.635538
315 0.572988
320 0.59426
325 0.505786
330 0.62813
335 0.590236
340 0.564991
345 0.65473
350 0.677081
355 0.493396
360 0.619497
365 0.735456
370 0.634676
375 0.741549
380 0.601793
385 0.700062
390 0.770416
395 0.75663
400 0.709823
405 0.571423
410 0.603268
415 0.672755
420 0.707293
425 0.721597
430 0.742451
435 0.737314
440 0.72788
445 0.704567
450 0.818908
455 0.866883
460 0.917368
465 0.97859
470 0.831735
475 1.01014
480 1.04374
485 1.20721
490 1.05746
495 0.951134
500 1.14282
505 1.16007
510 1.18214
515 1.44248
520 1.82609
525 1.99357
530 2.75447
535 4.10055
540 103.193
545 2020.04
550 3359.1
555 943.252
560 113.204
565 15.2584
570 3.8464
575 1.86964
580 1.52165
585 1.0957
590 1.02461
595 1.07755
600 0.45995
Ex : 558
200 0.523892
205 0.549127
210 0.638315
215 0.56911
220 0.566162
225 0.51758
230 0.535331
235 0.613486
240 0.565269
245 0.559007
250 0.582594
255 0.546789
260 0.645786
265 0.606657
270 0.63068
275 0.571722
280 0.594978
285 0.524873
290 0.542635
295 0.601893
300 0.564886
305 0.529648
310 0.646985
315 0.58391
320 0.577322
325 0.54455
330 0.538352
335 0.856439
340 0.701064
345 0.670345
350 0.563786
355 0.633598
360 0.715083
365 0.549159
370 0.749251
375 0.607693
380 0.655006
385 0.758617
390 0.761598
395 0.620545
400 0.733287
405 0.637922
410 0.644556
415 0.663117
420 0.64993
425 0.725143
430 0.695826
435 0.728584
440 0.709785
445 0.674153
450 0.848498
455 0.977811
460 0.982347
465 1.02432
470 0.882822
475 0.855559
480 1.03724
485 0.905034
490 0.942842
495 1.00054
500 1.13402
505 1.03396
510 1.07012
515 1.12661
520 1.34945
525 1.61209
530 2.05643
535 2.66065
540 3.98007
545 95.2339
550 1909.38
555 3293.86
560 934.766
565 112.346
570 15.3252
575 3.61334
580 1.82914
585 1.26411
590 1.03796
595 1.04875
600 0.683843
Ex : 563
200 0.517501
205 0.564211
210 0.572021
215 0.60324
220 0.665543
225 0.566528
230 0.641655
235 0.614156
240 0.515405
245 0.72689
250 0.553106
255 0.708412
260 0.565337
265 0.655184
270 0.517952
275 0.632856
280 0.590542
285 0.554825
290 0.512367
295 0.632856
300 0.671229
305 0.573958
310 0.607111
315 0.663029
320 0.604715
325 0.633662
330 0.639793
335 0.590613
340 0.582944
345 0.580148
350 0.627906
355 0.654189
360 0.54737
365 0.611037
370 0.711469
375 0.683319
380 0.721966
385 0.813869
390 0.839069
395 0.780296
400 0.766643
405 0.773551
410 0.732313
415 0.573306
420 0.708238
425 0.890618
430 0.789704
435 0.717063
440 0.594141
445 0.731423
450 0.811165
455 0.86591
460 1.04605
465 0.942797
470 0.877548
475 0.997033
480 0.954475
485 1.05019
490 0.917793
495 1.01647
500 0.930804
505 0.99169
510 1.07445
515 1.2544
520 1.26424
525 1.65834
530 1.65863
535 2.02515
540 2.73284
545 4.06151
550 92.3537
555 1844.32
560 3133.79
565 903.709
570 107.836
575 14.6501
580 3.31913
585 1.7436
590 1.43578
595 1.06303
600 0.886601
Ex : 568
200 0.537758
205 0.625746
210 0.580043
215 0.560456
220 0.68677
225 0.538264
230 0.519602
235 0.474593
240 0.410685
245 0.674431
250 0.663886
255 0.566841
260 0.597618
265 0.545159
270 0.551797
275 0.655607
280 0.653746
285 0.698816
290 0.547891
295 0.617238
300 0.503914
305 0.627381
310 0.566923
315 0.457214
320 0.568216
325 0.723776
330 0.714779
335 0.576562
340 0.557313
345 0.739829
350 0.720152
355 0.635847
360 0.68268
365 0.541175
370 0.533109
375 0.666683
380 0.768019
385 0.680507
390 0.66774
395 0.721213
400 0.804174
405 0.806192
410 0.783835
415 0.746519
420 0.738555
425 0.845631
430 0.861996
435 0.700722
440 0.770329
445 0.805914
450 0.812296
455 0.689451
460 0.851762
465 1.08957
470 1.00612
475 0.999489
480 1.04495
485 1.04892
490 1.00496
495 0.944272
500 1.08664
505 0.942686
510 0.927249
515 1.10306
520 1.13665
525 1.27309
530 1.32901
535 1.75067
540 2.04594
545 2.59112
550 3.88745
555 71.2404
560 1671.52
565 3030.31
570 907.355
575 108.991
580 14.6377
585 3.166
590 1.61768
595 1.17173
600 0.95757
Ex : 573
200 0.549264
205 0.474882
210 0.495054
215 0.496173
220 0.616968
225 0.580003
230 0.684218
235 0.562613
240 0.650628
245 0.575389
250 0.564915
255 0.637338
260 0.49011
265 0.582805
270 0.579501
275 0.708021
280 0.667092
285 0.650476
290 0.546983
295 0.65449
300 0.603173
305 0.640368
310 0.645577
315 0.554059
320 0.531125
325 0.63352
330 0.565911
335 0.665779
340 0.690816
345 0.686631
350 0.622641
355 0.677278
360 0.596265
365 0.674252
370 0.672481
375 0.712011
380 0.803955
385 0.707862
390 0.776007
395 0.625901
400 0.68843
405 0.77683
410 0.600546
415 0.896298
420 0.83201
425 0.798844
430 0.722991
435 0.863616
440 0.746112
445 0.720757
450 0.9309
455 0.7673
460 0.871086
465 0.864127
470 0.74766
475 0.769274
480 0.846789
485 1.01266
490 0.761117
495 0.947735
500 0.979295
505 0.884339
510 1.08186
515 1.052
520 1.17033
525 1.21644
530 1.13998
535 1.44894
540 1.69103
545 2.05687
550 2.64619
555 3.60405
560 62.0347
565 1447.63
570 2806.45
575 864.19
580 103.72
585 13.6279
590 3.0569
595 1.50329
600 1.38717
Ex : 578
200 0.63021
205 0.526836
210 0.541875
215 0.616697
220 0.543993
225 0.628902
230 0.538422
235 0.498757
240 0.518733
245 0.636822
250 0.581652
255 0.753062
260 0.573861
265 0.568166
270 0.578991
275 0.602559
280 0.782215
285 0.698409
290 0.598589
295 0.594621
300 0.695822
305 0.546069
310 0.599963
315 0.609628
320 0.511755
325 0.60114
330 0.577336
335 0.694831
340 0.634674
345 0.769032
350 0.585852
355 0.5847
360 0.689604
365 0.781828
370 0.675435
375 0.546235
380 0.560191
385 0.713267
390 0.677821
395 0.682759
400 0.594833
405 0.663889
410 0.745491
415 0.7046
420 0.783258
425 0.71016
430 0.748327
435 0.758119
440 0.840484
445 0.769075
450 0.905993
455 0.844005
460 0.884687
465 0.762441
470 0.789939
475 1.0711
480 0.855511
485 0.936257
490 0.934763
495 0.927674
500 0.883443
505 0.880449
510 0.959706
515 0.921993
520 1.10166
525 1.11007
530 1.25017
535 1.20754
540 1.25012
545 1.52967
550 1.84445
555 2.4701
560 3.05269
565 52.3308
570 1289.72
575 2434.64
580 738.885
585 88.4867
590 11.9251
595 2.62946
600 1.15186
Ex : 583
200 0.462417
205 0.55609
210 0.628004
215 0.673557
220 0.505324
225 0.466775
230 0.657422
235 0.567532
240 0.607687
245 0.682729
250 0.525902
255 0.531069
260 0.493799
265 0.452413
270 0.622892
275 0.637483
280 0.583485
285 0.580963
290 0.564311
295 0.527939
300 0.482994
305 0.547317
310 0.579812
315 0.642483
320 0.699134
325 0.552595
330 0.558188
335 0.500766
340 0.669095
345 0.673096
350 0.650672
355 0.66182
360 0.751817
365 0.569658
370 0.714939
375 0.776842
380 0.629943
385 0.89915
390 0.787532
395 0.685965
400 0.613801
405 0.637347
410 0.669198
415 0.654025
420 0.84139
425 0.638193
430 0.768063
435 0.774646
440 0.692576
445 0.871315
450 0.70281
455 0.701505
460 0.946843
465 0.910092
470 0.74152
475 0.953943
480 0.879153
485 0.94193
490 1.05213
495 0.77895
500 0.851674
505 1.02073
510 0.889237
515 0.86646
520 0.866301
525 0.97869
530 0.981093
535 0.967603
540 1.20967
545 1.31541
550 1.52545
555 1.67202
560 2.13758
565 2.98913
570 44.9562
575 1150.76
580 2139.59
585 615.038
590 74.0531
595 10.0123
600 1.79709
Ex : 588
200 0.830293
205 0.617534
210 0.465274
215 0.575143
220 0.678883
225 0.765391
230 0.464956
235 0.556024
240 0.548197
245 0.511926
250 0.461492
255 0.581791
260 0.614719
265 0.512629
270 0.736779
275 0.598418
280 0.716245
285 0.493619
290 0.565922
295 0.545477
300 0.615929
305 0.543976
310 0.578199
315 0.632205
320 0.448211
325 0.561883
330 0.523642
335 0.581667
340 0.583144
345 0.730541
350 0.815526
355 0.768007
360 0.746142
365 0.688549
370 0.667178
375 0.581212
380 0.682095
385 0.579229
390 0.61302
395 0.72243
400 0.625027
405 0.664991
410 0.634745
415 0.768656
420 0.833756
425 0.708011
430 0.685417
435 0.718987
440 0.765121
445 0.800066
450 0.838
455 0.800141
460 0.864529
465 0.786116
470 0.715203
475 0.710487
480 0.732751
485 0.808877
490 0.666686
495 0.850975
500 0.723843
505 0.845438
510 0.851747
515 0.849436
520 0.954103
525 1.01616
530 0.986706
535 1.08146
540 1.07376
545 1.03688
550 1.17323
555 1.10571
560 1.38708
565 2.16509
570 2.84634
575 40.2682
580 957.775
585 1818.21
590 539.123
595 65.0286
600 8.45501
Ex : 593
200 0.62421
205 0.687907
210 0.525931
215 0.501156
220 0.511507
225 0.425402
230 0.587629
235 0.639458
240 0.666066
245 0.61034
250 0.533784
255 0.738761
260 0.560627
265 0.513949
270 0.6253
275 0.570456
280 0.518508
285 0.638425
290 0.491726
295 0.602862
300 0.699427
305 0.641085
310 0.536391
315 0.623079
320 0.534498
325 0.554165
330 0.483179
335 0.712759
340 0.54377
345 0.782913
350 0.800706
355 0.619103
360 0.713251
365 0.593812
370 0.574764
375 0.767364
380 0.591327
385 0.608236
390 0.713986
395 0.847401
400 0.811416
405 0.762249
410 0.630572
415 0.86013
420 0.772938
425 0.666714
430 0.746865
435 0.78515
440 0.686305
445 0.820781
450 0.755037
455 0.723639
460 0.912377
465 0.79495
470 0.902949
475 0.743274
480 0.833542
485 0.779187
490 0.981949
495 0.882734
500 1.04627
505 0.981883
510 0.893094
515 0.814551
520 0.92911
525 0.965176
530 0.730158
535 0.887791
540 0.956525
545 1.07807
550 1.14657
555 1.28806
560 1.49346
565 1.74643
570 2.05039
575 2.62821
580 35.1718
585 860.513
590 1567.5
595 462.785
600 68.8337
Ex : 598
200 0.621143
205 0.464531
210 0.623925
215 0.666173
220 0.608505
225 0.636707
230 0.708458
235 0.654767
240 0.807128
245 0.492069
250 0.665378
255 0.650269
260 0.725673
265 0.579311
270 0.639767
275 0.553219
280 0.739753
285 0.81563
290 0.62547
295 0.514092
300 0.498989
305 0.653922
310 0.583462
315 0.634213
320 0.784906
325 0.692222
330 0.596444
335 0.636297
340 0.547959
345 0.532355
350 0.749663
355 0.678353
360 0.648204
365 0.644491
370 0.646799
375 0.626757
380 0.669086
385 0.561888
390 0.640774
395 0.843885
400 0.68783
405 0.696445
410 0.767075
415 0.6154
420 0.723824
425 0.67056
430 0.709929
435 0.659863
440 0.822754
445 0.682691
450 0.672667
455 0.692044
460 0.783793
465 0.863214
470 0.952304
475 0.699918
480 0.696235
485 0.702306
490 0.760138
495 0.754092
500 0.774958
505 0.723536
510 0.912742
515 0.933241
520 0.882675
525 0.84589
530 1.01344
535 1.00621
540 0.961253
545 0.926763
550 0.817703
555 1.00621
560 1.46192
565 1.43191
570 1.78414
575 1.97692
580 2.29576
585 34.3624
590 765.561
595 1382.91
600 824.48
Ex : 603
200 0.493169
205 0.650357
210 0.686889
215 0.619918
220 0.42252
225 0.634522
230 0.503936
235 0.603257
240 0.64362
245 0.611113
250 0.553836
255 0.628503
260 0.67211
265 0.540639
270 0.624324
275 0.675515
280 0.577582
285 0.496129
290 0.633747
295 0.695191
300 0.609938
305 0.526577
310 0.658003
315 0.513583
320 0.682986
325 0.681011
330 0.619054
335 0.814381
340 0.542676
345 0.578869
350 0.53375
355 0.668405
360 0.730752
365 0.584793
370 0.574457
375 0.609781
380 0.77847
385 0.743531
390 0.702739
395 0.888671
400 0.75777
405 0.746917
410 0.704013
415 0.766163
420 0.802839
425 0.738392
430 0.675354
435 0.922748
440 0.856529
445 0.704424
450 0.633135
455 0.72227
460 0.712992
465 0.847183
470 0.834062
475 0.789226
480 0.795826
485 0.790977
490 0.894205
495 0.753748
500 0.680857
505 1.01305
510 0.973766
515 0.946926
520 0.88047
525 0.88191
530 0.730178
535 0.908016
540 0.827091
545 0.824096
550 1.15037
555 1.00971
560 0.985623
565 1.12238
570 1.25914
575 1.46247
580 1.49817
585 2.00203
590 29.822
595 649.289
600 1299.68
