File format V 1.0
ven. 9. déc. 23:37:11 2016
Operator : 
Comments : 

=============================================
SpectroFluorometer parameters
Mode : 3D measurement
Data : Fluorescence
Phospho. : Ordinary
Spectrum : Fluorescence

Scan speed : 2400 nm/mn
Response : 100 ms
PM Voltage : 700 V
Shutter : On

Lambda Ex. Start : 203
Lambda Ex. End : 603
Lambda Ex. Step : 5
Ex. Slit : 5 nm

Lambda Em. Start : 200
Lambda Em. End : 600
Lambda Em. Step : 5
Em. Slit : 5 nm

Repetition : 1
Decal lambda em : 10
=============================================
DATA
Ex : 203
200 16.6883
205 15.266
210 16.0312
215 11.124
220 13.9094
225 14.4071
230 14.1957
235 11.2132
240 16.4246
245 12.8864
250 17.5114
255 15.2803
260 11.6802
265 14.6386
270 16.2421
275 16.0748
280 13.2201
285 12.5422
290 10.5402
295 14.0465
300 18.4418
305 15.9077
310 14.854
315 17.4525
320 15.0445
325 11.5112
330 19.0022
335 16.2953
340 15.8668
345 11.8475
350 12.7338
355 11.3407
360 16.302
365 17.7727
370 13.6138
375 14.8766
380 16.8691
385 15.9105
390 12.618
395 14.2305
400 12.5847
405 15.7782
410 19.1508
415 18.1595
420 15.9375
425 15.3638
430 14.4543
435 16.1425
440 19.8524
445 14.4788
450 16.6088
455 13.5909
460 16.6121
465 18.2879
470 16.4737
475 12.7405
480 13.791
485 12.4707
490 17.9322
495 13.6452
500 16.965
505 15.1712
510 16.7746
515 14.133
520 19.0461
525 18.9869
530 17.0876
535 14.5179
540 14.6428
545 17.6652
550 14.1715
555 15.9387
560 14.21
565 17.2324
570 11.0279
575 17.1593
580 16.3756
585 12.9439
590 17.9416
595 24.144
600 18.6992
Ex : 208
200 18.7532
205 21.0362
210 19.3528
215 14.8238
220 16.3405
225 13.0364
230 16.9034
235 12.7808
240 12.1551
245 17.8798
250 15.101
255 15.1995
260 11.5671
265 13.9195
270 12.1884
275 13.3431
280 13.9359
285 14.1193
290 16.4532
295 10.9413
300 12.8211
305 20.5068
310 11.1505
315 15.421
320 14.1894
325 16.8123
330 14.9793
335 17.7219
340 16.05
345 14.1901
350 12.5151
355 13.4178
360 20.5773
365 16.5156
370 12.7502
375 14.3334
380 13.2409
385 13.754
390 15.3215
395 15.6472
400 12.6659
405 15.2042
410 14.7
415 13.9747
420 18.1437
425 15.7982
430 16.3499
435 14.1153
440 16.3905
445 11.8877
450 12.8009
455 15.2204
460 13.9298
465 14.3123
470 13.7966
475 13.7833
480 15.0701
485 17.5739
490 15.119
495 18.6893
500 14.3806
505 12.6221
510 13.4428
515 15.5868
520 14.1014
525 16.2437
530 17.9751
535 14.7766
540 18.2623
545 13.5039
550 10.7948
555 15.9682
560 14.6423
565 15.9968
570 15.1026
575 14.7475
580 10.7185
585 15.8532
590 13.4002
595 13.7403
600 13.0842
Ex : 213
200 13.2955
205 14.5454
210 10.156
215 10.8225
220 14.8135
225 17.0466
230 10.6708
235 12.8323
240 12.9157
245 14.9131
250 17.2725
255 16.7969
260 16.9297
265 12.0237
270 13.9967
275 14.3922
280 15.9728
285 14.4844
290 11.9014
295 15.2237
300 19.9927
305 13.1377
310 13.561
315 16.6427
320 17.9896
325 13.7496
330 14.4418
335 11.2742
340 21.7999
345 14.943
350 16.7316
355 16.0184
360 14.1242
365 15.5481
370 19.2114
375 16.0324
380 19.4433
385 16.2563
390 16.2026
395 13.1073
400 17.3065
405 15.2951
410 16.0722
415 17.2607
420 13.8265
425 15.1469
430 14.431
435 15.6065
440 16.9295
445 16.9011
450 12.5685
455 12.6538
460 12.6879
465 17.0157
470 19.9558
475 14.7616
480 14.6936
485 15.2068
490 16.8815
495 13.9369
500 12.2053
505 15.3363
510 18.7721
515 13.7319
520 13.5512
525 11.4558
530 15.2848
535 13.413
540 15.759
545 12.3721
550 15.117
555 14.8527
560 13.1322
565 14.0159
570 12.1547
575 16.7369
580 15.2201
585 14.3364
590 15.9727
595 11.7809
600 16.1107
Ex : 218
200 13.3187
205 13.7164
210 12.7474
215 12.5404
220 13.8764
225 14.0674
230 16.6034
235 16.5847
240 14.0267
245 11.5696
250 14.1995
255 14.3285
260 16.6801
265 13.4795
270 11.2122
275 12.3408
280 12.8883
285 11.5371
290 12.9569
295 13.1464
300 10.9539
305 15.7106
310 14.3381
315 13.8808
320 15.8072
325 11.7055
330 10.9173
335 14.6345
340 15.6157
345 13.6447
350 16.5803
355 16.3207
360 13.3622
365 20.3578
370 16.4907
375 17.6479
380 19.2576
385 12.411
390 12.0468
395 14.3478
400 13.5917
405 18.3846
410 17.1471
415 15.7969
420 16.4227
425 11.6071
430 11.6546
435 19.8627
440 16.434
445 15.3178
450 17.8855
455 13.3631
460 10.4641
465 17.2455
470 14.7314
475 14.2014
480 17.8857
485 16.562
490 13.133
495 14.0109
500 18.0676
505 14.2492
510 12.4462
515 13.2904
520 14.816
525 13.7562
530 13.695
535 16.1592
540 15.2401
545 17.1021
550 15.5937
555 13.1884
560 17.3283
565 13.6832
570 13.7283
575 16.0647
580 10.252
585 13.1836
590 14.8699
595 13.8731
600 5.78817
Ex : 223
200 11.6702
205 14.5912
210 13.1711
215 16.6178
220 13.3127
225 13.5198
230 14.1008
235 13.5073
240 13.6451
245 14.5587
250 13.5064
255 11.0857
260 15.612
265 16.3941
270 12.4901
275 14.6724
280 13.3994
285 11.7009
290 8.16726
295 12.7987
300 14.2806
305 15.7436
310 14.3243
315 11.5487
320 13.1372
325 10.9758
330 13.3063
335 18.8638
340 14.9991
345 16.8379
350 15.4455
355 17.7042
360 17.4408
365 15.8271
370 13.3463
375 16.3476
380 17.5295
385 14.7561
390 17.6214
395 15.2674
400 16.2437
405 12.3829
410 13.0882
415 15.264
420 13.4626
425 13.2446
430 12.9005
435 13.0702
440 14.1896
445 14.6174
450 18.0783
455 14.5968
460 13.8212
465 14.2236
470 12.7032
475 14.0349
480 12.391
485 14.208
490 12.3541
495 15.6603
500 14.0155
505 14.9721
510 10.7089
515 14.2216
520 12.663
525 14.8895
530 18.8006
535 14.2882
540 13.7408
545 12.2796
550 14.6599
555 12.5894
560 11.0475
565 12.0288
570 15.1133
575 18.5414
580 16.8513
585 14.5038
590 12.8328
595 13.7702
600 7.17963
Ex : 228
200 10.8723
205 10.6246
210 12.3167
215 12.3793
220 11.9823
225 12.079
230 15.5249
235 9.51987
240 10.9393
245 14.6312
250 15.7871
255 10.9216
260 11.3735
265 16.2393
270 11.7881
275 10.9286
280 12.9757
285 11.8347
290 11.0996
295 10.9832
300 12.2091
305 16.4548
310 12.4782
315 14.0877
320 15.0361
325 12.9393
330 17.0873
335 11.8597
340 14.1903
345 13.7423
350 15.7902
355 16.5623
360 19.2633
365 13.3504
370 11.9199
375 12.6744
380 11.9949
385 12.1673
390 14.0501
395 13.2343
400 10.711
405 10.098
410 16.8368
415 15.4802
420 10.8057
425 12.0367
430 13.9826
435 17.6518
440 12.1062
445 14.3361
450 13.5364
455 17.0371
460 14.0665
465 15.4846
470 15.5027
475 13.7905
480 14.0989
485 12.3084
490 11.8977
495 12.5159
500 11.2483
505 16.4216
510 12.097
515 11.7002
520 12.2071
525 16.0581
530 10.7485
535 17.2995
540 13.4465
545 14.1961
550 14.8162
555 13.3339
560 13.2595
565 12.6331
570 12.1021
575 12.5559
580 14.4297
585 11.8732
590 13.9607
595 15.843
600 1.80287
Ex : 233
200 7.90521
205 10.8109
210 10.2801
215 10.4668
220 13.2601
225 15.4809
230 12.6901
235 11.2217
240 11.3221
245 15.6203
250 12.4517
255 15.4572
260 10.5836
265 10.1534
270 11.1394
275 8.78348
280 12.9048
285 10.9613
290 11.5991
295 9.44931
300 11.5137
305 11.8511
310 10.9485
315 13.1383
320 10.4266
325 10.6222
330 10.128
335 12.474
340 12.7729
345 15.5225
350 15.1099
355 10.3663
360 12.1208
365 14.4968
370 10.7425
375 11.6863
380 10.7683
385 10.2259
390 11.5513
395 10.0915
400 12.0487
405 13.5458
410 8.86101
415 11.6873
420 11.1711
425 13.5333
430 10.5512
435 11.8908
440 13.646
445 11.9845
450 12.0945
455 11.3959
460 12.0703
465 12.9522
470 14.8735
475 11.5711
480 11.3815
485 12.6749
490 11.6357
495 13.4311
500 12.3236
505 12.6464
510 13.3307
515 13.3921
520 15.0258
525 11.9761
530 11.1654
535 11.7624
540 12.7448
545 13.5645
550 12.0359
555 11.3771
560 12.368
565 11.1053
570 9.38869
575 12.1693
580 10.4695
585 11.8756
590 8.98863
595 15.1135
600 1.8971
Ex : 238
200 15.3049
205 11.5308
210 7.38792
215 8.73933
220 11.9897
225 13.4809
230 11.9195
235 10.9981
240 11.3842
245 10.0569
250 11.1605
255 12.8947
260 9.36681
265 7.69064
270 12.2846
275 9.4243
280 7.76861
285 11.3154
290 9.22091
295 10.0907
300 10.0916
305 8.95475
310 12.6825
315 13.2844
320 11.9884
325 9.98676
330 11.6803
335 13.97
340 13.1952
345 10.8308
350 11.3135
355 12.3688
360 9.62744
365 8.47032
370 8.72983
375 10.1333
380 8.27158
385 12.1836
390 10.0995
395 9.12512
400 9.45535
405 10.0755
410 11.161
415 9.63072
420 9.79269
425 15.1024
430 13.5968
435 10.751
440 13.6891
445 12.0096
450 13.0574
455 9.57681
460 12.2396
465 11.2347
470 10.6939
475 12.6387
480 15.4185
485 15.9265
490 8.22409
495 14.9848
500 12.2374
505 9.96417
510 9.1693
515 9.28475
520 7.78129
525 9.88246
530 9.48573
535 10.5408
540 11.7698
545 9.97341
550 8.06142
555 11.4758
560 9.68423
565 9.54153
570 8.66211
575 11.791
580 11.2438
585 13.1306
590 13.0184
595 10.2086
600 1.33894
Ex : 243
200 7.879
205 8.18167
210 9.67008
215 9.05656
220 12.384
225 11.1609
230 7.44428
235 10.5985
240 8.61646
245 9.33325
250 8.23198
255 9.12582
260 9.70359
265 6.89941
270 8.96011
275 8.26024
280 7.2939
285 9.29568
290 7.54884
295 7.67649
300 7.58385
305 9.10841
310 7.14183
315 10.2142
320 7.5272
325 8.37636
330 7.46501
335 8.09026
340 10.8264
345 10.6565
350 9.68699
355 10.5274
360 11.8055
365 12.498
370 9.29706
375 8.84015
380 9.62001
385 11.5183
390 7.96855
395 9.02926
400 11.7437
405 10.8342
410 9.35314
415 9.56298
420 7.88132
425 10.0792
430 11.1684
435 10.5261
440 9.0879
445 10.9411
450 10.3438
455 8.93555
460 7.99116
465 10.9464
470 9.68272
475 9.76936
480 11.8304
485 10.0107
490 12.0568
495 10.9635
500 13.0875
505 8.04987
510 9.05764
515 9.69767
520 9.95924
525 10.7299
530 10.3223
535 7.554
540 9.68919
545 12.8977
550 10.0194
555 10.5306
560 8.75597
565 10.4547
570 10.8725
575 9.22622
580 9.85308
585 8.18299
590 8.32334
595 9.42375
600 4.7438
Ex : 248
200 9.26748
205 6.43037
210 7.73304
215 7.08879
220 6.47783
225 6.97434
230 5.95856
235 7.34906
240 7.31428
245 7.40775
250 5.0758
255 6.46857
260 8.11571
265 9.55451
270 9.68613
275 9.18313
280 5.83819
285 7.35616
290 7.68428
295 11.4717
300 6.65441
305 9.34492
310 8.08119
315 7.79533
320 9.5468
325 8.74145
330 8.58303
335 6.90201
340 7.64994
345 7.45256
350 9.07436
355 9.52681
360 6.17483
365 7.24015
370 6.59574
375 7.10215
380 7.57484
385 8.42499
390 8.40726
395 7.94111
400 10.4939
405 7.35369
410 10.7678
415 9.21515
420 9.65278
425 8.66767
430 8.09013
435 8.25268
440 7.33708
445 8.56295
450 8.74533
455 6.7072
460 6.38494
465 9.03241
470 7.64466
475 10.0063
480 7.79075
485 7.64564
490 7.41763
495 8.04908
500 7.94779
505 7.79473
510 7.88261
515 5.89695
520 8.49691
525 7.96074
530 7.70565
535 8.22396
540 8.11803
545 7.45068
550 8.29197
555 7.65693
560 9.69971
565 8.336
570 7.39546
575 7.61315
580 7.81008
585 8.9215
590 4.30572
595 7.3861
600 9.80101
Ex : 253
200 6.90355
205 6.60827
210 6.56879
215 6.82465
220 5.7855
225 5.66346
230 5.85783
235 5.51505
240 5.92527
245 5.30912
250 6.99975
255 5.6378
260 5.06158
265 4.69475
270 6.16556
275 6.87812
280 5.73011
285 3.90221
290 5.52437
295 6.29722
300 5.34403
305 6.25464
310 8.25207
315 8.04833
320 7.09264
325 6.44474
330 5.82051
335 7.1663
340 8.66345
345 6.76078
350 7.10423
355 7.69894
360 6.68018
365 5.68182
370 5.69638
375 6.76661
380 8.11511
385 6.3755
390 6.62909
395 6.85763
400 6.49616
405 7.72567
410 8.07044
415 8.3608
420 8.60053
425 8.6363
430 6.63662
435 6.06156
440 5.33953
445 5.81379
450 6.48707
455 5.18242
460 7.12979
465 7.05188
470 7.239
475 6.54542
480 6.75256
485 4.52289
490 4.6023
495 5.32623
500 7.16141
505 7.21654
510 6.85806
515 5.61892
520 5.86065
525 6.71888
530 6.72549
535 5.66407
540 6.5407
545 7.05905
550 6.23215
555 5.45845
560 7.22501
565 6.98491
570 6.6382
575 6.44689
580 6.79079
585 6.8077
590 4.55684
595 5.60004
600 6.44682
Ex : 258
200 3.61165
205 4.73704
210 5.10445
215 5.3542
220 3.6472
225 3.27789
230 3.84069
235 3.60973
240 4.99748
245 4.69974
250 4.30505
255 4.77293
260 4.9584
265 4.53198
270 4.06054
275 6.39403
280 4.38885
285 5.80971
290 4.63237
295 4.79546
300 6.14342
305 5.12136
310 4.56192
315 4.46739
320 4.91291
325 3.77178
330 4.07172
335 6.52372
340 7.29439
345 4.5176
350 5.61663
355 5.87613
360 5.79466
365 4.81121
370 6.4059
375 4.76421
380 6.96311
385 7.1168
390 5.44473
395 5.74691
400 5.92429
405 7.44012
410 5.43172
415 3.87431
420 4.45639
425 5.6308
430 5.24474
435 5.72693
440 5.47354
445 6.60342
450 5.47727
455 4.18182
460 4.51618
465 4.55933
470 4.97222
475 5.33849
480 4.27047
485 4.25362
490 5.32863
495 4.91528
500 6.79019
505 5.66056
510 4.44636
515 5.38184
520 5.43675
525 5.26004
530 4.03592
535 4.46056
540 7.74323
545 4.9422
550 5.37727
555 4.93431
560 5.45995
565 3.47839
570 4.24522
575 4.09621
580 3.47075
585 5.32392
590 3.76414
595 4.59749
600 2.36943
Ex : 263
200 3.53492
205 3.63318
210 4.40204
215 3.08682
220 4.84529
225 3.91489
230 3.56467
235 3.34186
240 4.23468
245 3.45074
250 3.33381
255 4.10731
260 3.87888
265 3.97686
270 3.99873
275 3.32471
280 3.43426
285 5.70271
290 3.20432
295 2.74073
300 3.6886
305 2.9932
310 3.7332
315 3.82465
320 4.48815
325 3.82495
330 3.80528
335 3.75563
340 3.74496
345 4.00632
350 4.37529
355 4.22453
360 4.1817
365 4.46923
370 4.06008
375 4.63834
380 5.83154
385 4.02549
390 4.42994
395 4.19884
400 4.09928
405 4.90154
410 4.20376
415 4.35737
420 3.9431
425 3.88209
430 4.01586
435 4.64101
440 5.31282
445 4.49291
450 4.19283
455 3.88961
460 4.33783
465 3.86722
470 4.74411
475 5.61225
480 4.47306
485 3.97375
490 4.38831
495 3.72788
500 4.50182
505 2.7541
510 3.59156
515 4.62976
520 5.09107
525 4.56927
530 4.3481
535 3.524
540 3.50812
545 3.80239
550 3.38806
555 3.81436
560 3.32698
565 3.47496
570 4.0659
575 3.52898
580 3.05343
585 3.27978
590 4.91032
595 3.66594
600 2.60314
Ex : 268
200 2.83489
205 2.69169
210 3.0593
215 3.10833
220 2.52069
225 2.82581
230 2.87455
235 2.98677
240 2.51756
245 3.51621
250 2.67129
255 2.59422
260 3.18164
265 3.41957
270 3.51428
275 2.64774
280 3.32611
285 2.94051
290 2.17275
295 3.06728
300 2.61308
305 2.89689
310 2.56457
315 3.60012
320 3.04552
325 2.34394
330 2.96587
335 2.76252
340 2.8265
345 3.757
350 3.61682
355 2.82465
360 3.17256
365 3.07207
370 3.56653
375 3.30494
380 3.09844
385 3.95299
390 3.19388
395 3.99158
400 3.11073
405 3.30868
410 4.10083
415 3.85072
420 3.01549
425 3.93017
430 3.43883
435 3.87816
440 3.47032
445 3.40107
450 3.62346
455 3.01641
460 3.56024
465 3.05643
470 3.76484
475 3.14836
480 2.88509
485 3.04523
490 2.99253
495 3.37971
500 2.87925
505 3.11643
510 3.23113
515 3.30709
520 3.14572
525 3.11179
530 3.63454
535 3.73074
540 3.3162
545 2.68046
550 2.94478
555 3.86862
560 2.83465
565 3.50548
570 3.38893
575 2.50228
580 2.87309
585 3.25816
590 2.76061
595 2.57312
600 0.292811
Ex : 273
200 2.78848
205 2.31507
210 2.74701
215 2.32127
220 2.7131
225 2.24513
230 2.27657
235 2.40136
240 2.48283
245 2.24587
250 1.7876
255 2.40299
260 2.52043
265 2.50945
270 2.49519
275 2.47779
280 2.17202
285 2.02293
290 2.14849
295 2.33393
300 2.41768
305 2.40539
310 2.12418
315 2.41148
320 2.66022
325 2.88237
330 2.63297
335 2.52731
340 1.90534
345 2.87374
350 2.3281
355 2.26056
360 2.59268
365 3.47529
370 2.83464
375 3.143
380 2.9832
385 2.46836
390 2.76076
395 3.6814
400 2.5244
405 2.88629
410 2.99964
415 2.82508
420 3.07382
425 2.57703
430 2.5458
435 2.36874
440 2.9917
445 3.11122
450 2.80523
455 2.36904
460 3.19894
465 2.45547
470 2.2922
475 2.58755
480 2.76917
485 2.53147
490 2.29408
495 2.87795
500 2.79158
505 2.60514
510 2.40129
515 2.96544
520 2.57651
525 2.09489
530 2.98984
535 2.26749
540 3.78773
545 3.26772
550 2.56662
555 2.67898
560 2.99279
565 1.92535
570 1.98981
575 2.22732
580 3.03208
585 2.24177
590 2.36684
595 2.45715
600 1.80389
Ex : 278
200 1.82833
205 1.84152
210 1.42877
215 1.70197
220 1.70637
225 2.17189
230 1.75384
235 1.96161
240 1.69792
245 2.51796
250 1.66127
255 1.57527
260 1.53677
265 1.65511
270 2.23354
275 2.11193
280 2.32152
285 2.50555
290 1.71397
295 1.21582
300 1.37793
305 2.48969
310 2.26907
315 2.08652
320 2.1446
325 1.84593
330 1.75851
335 2.19527
340 2.83631
345 2.14181
350 2.17204
355 2.14098
360 2.23092
365 2.45333
370 1.62604
375 2.90134
380 2.52297
385 2.33555
390 2.78243
395 2.76874
400 2.21719
405 2.07863
410 2.78325
415 2.44129
420 2.48185
425 2.90556
430 2.53784
435 2.51532
440 2.59822
445 2.44856
450 3.04179
455 2.73696
460 2.13942
465 2.37647
470 2.59611
475 2.55445
480 2.11187
485 2.25021
490 2.43393
495 2.56102
500 2.32354
505 2.27416
510 1.81154
515 2.422
520 1.82839
525 1.77909
530 1.58805
535 1.5746
540 1.83546
545 2.54811
550 2.71581
555 2.29556
560 2.41861
565 2.04285
570 2.01325
575 2.23093
580 2.5631
585 2.276
590 2.23661
595 1.46971
600 4.59827
Ex : 283
200 1.15449
205 1.79802
210 1.48727
215 1.46363
220 1.57172
225 1.60705
230 1.3192
235 1.66524
240 1.89369
245 1.20738
250 1.32567
255 1.2952
260 1.59844
265 1.26574
270 1.53975
275 1.81306
280 1.90077
285 1.70964
290 1.54065
295 1.57166
300 1.85082
305 1.30287
310 1.3063
315 1.30851
320 1.41996
325 1.54746
330 1.41782
335 1.57077
340 2.06989
345 1.79188
350 1.7636
355 1.76943
360 1.71567
365 2.31116
370 1.58771
375 2.01581
380 2.20245
385 1.97749
390 2.22328
395 2.44285
400 1.84615
405 2.42122
410 2.15937
415 2.4144
420 2.46087
425 1.78163
430 2.39317
435 2.51561
440 1.91435
445 2.22416
450 1.7796
455 1.72834
460 1.79451
465 1.75246
470 1.90005
475 1.64725
480 1.44728
485 1.72257
490 1.97645
495 1.94607
500 1.78494
505 1.86634
510 2.14998
515 1.96337
520 1.64973
525 1.63211
530 1.83333
535 1.90835
540 1.5456
545 1.41065
550 1.54065
555 2.15802
560 2.25598
565 2.42833
570 2.2348
575 1.51638
580 2.01523
585 1.76015
590 1.80157
595 1.28427
600 1.4016
Ex : 288
200 1.36751
205 1.26677
210 1.38781
215 1.02826
220 1.61556
225 1.50367
230 1.42849
235 1.31728
240 1.47535
245 1.29787
250 1.26445
255 1.50344
260 0.967701
265 1.34608
270 1.17713
275 1.306
280 1.26098
285 1.56026
290 1.59442
295 1.32153
300 1.06038
305 1.43411
310 1.10768
315 1.36063
320 1.38616
325 1.60171
330 1.43344
335 1.8173
340 1.61305
345 1.45338
350 1.58718
355 1.5157
360 1.71296
365 1.98925
370 1.60653
375 1.9528
380 1.86968
385 2.13801
390 1.96343
395 1.97491
400 2.06854
405 1.7417
410 1.72476
415 1.64725
420 1.94729
425 1.93834
430 2.0743
435 1.74724
440 1.55052
445 2.10567
450 1.55686
455 1.67652
460 1.71664
465 1.48455
470 1.88538
475 2.0677
480 1.53919
485 1.65732
490 1.53044
495 1.62827
500 1.33047
505 1.52914
510 1.89505
515 1.56347
520 1.54579
525 1.40351
530 1.45842
535 1.3713
540 1.37301
545 1.47075
550 1.59569
555 1.50464
560 1.40412
565 1.92109
570 2.10366
575 2.20239
580 1.83303
585 1.3471
590 1.40899
595 0.993677
600 0.360389
Ex : 293
200 0.995381
205 1.2016
210 1.1215
215 0.925122
220 1.69807
225 1.32643
230 0.986244
235 1.11014
240 1.40126
245 1.3169
250 1.52697
255 1.04042
260 0.86985
265 1.23651
270 1.18394
275 1.18847
280 1.21318
285 1.34599
290 1.45517
295 1.07172
300 1.33087
305 1.17218
310 1.08988
315 1.145
320 1.21607
325 0.987646
330 0.942537
335 1.44929
340 1.45068
345 1.35806
350 1.19256
355 1.58601
360 1.25948
365 1.57084
370 1.32942
375 1.62399
380 1.56796
385 1.42811
390 1.59934
395 1.54828
400 1.64905
405 1.60633
410 1.83176
415 1.52994
420 1.70687
425 1.61572
430 1.35475
435 1.53087
440 1.67171
445 1.75766
450 1.71946
455 1.67309
460 1.58465
465 1.33124
470 1.21675
475 1.43737
480 1.07423
485 1.45155
490 1.26572
495 1.43616
500 1.44764
505 1.68853
510 1.07918
515 1.34935
520 1.41727
525 1.34149
530 1.01051
535 1.02017
540 1.19772
545 1.13179
550 1.28568
555 1.40752
560 1.22604
565 0.887073
570 1.45892
575 1.48196
580 1.83963
585 1.81483
590 1.07573
595 1.21234
600 1.02416
Ex : 298
200 1.09339
205 1.20549
210 1.28571
215 0.78452
220 0.757281
225 0.884515
230 1.18026
235 1.26361
240 0.983489
245 0.815242
250 0.944752
255 0.7835
260 1.1638
265 0.842471
270 0.983517
275 0.874811
280 1.04632
285 1.25525
290 1.0725
295 1.23783
300 1.22992
305 1.175
310 0.903631
315 0.861507
320 0.927077
325 1.17748
330 1.17526
335 1.22539
340 1.06629
345 1.13963
350 1.16094
355 1.38504
360 1.50171
365 1.53007
370 1.64669
375 1.93826
380 1.68751
385 1.64781
390 1.61207
395 1.60752
400 1.55559
405 1.7083
410 1.74453
415 1.69406
420 1.6772
425 1.55866
430 1.37556
435 1.39298
440 1.67557
445 1.83978
450 1.57089
455 1.5354
460 1.45424
465 1.219
470 1.09226
475 1.03353
480 1.21851
485 1.37591
490 1.10935
495 1.05057
500 1.17954
505 1.19652
510 1.08769
515 0.880036
520 0.996825
525 1.23483
530 1.21911
535 1.20225
540 1.03484
545 0.974003
550 1.25296
555 1.04956
560 0.898864
565 0.945131
570 1.13455
575 1.16516
580 0.746862
585 1.26828
590 1.71972
595 1.7147
600 1.12564
Ex : 303
200 0.727241
205 0.641424
210 0.79071
215 0.721884
220 0.66643
225 0.681924
230 0.92331
235 0.830717
240 0.839032
245 1.05072
250 0.937386
255 0.773279
260 0.730922
265 0.933656
270 0.918053
275 0.724783
280 0.879121
285 0.807498
290 0.826944
295 1.10516
300 1.2607
305 1.07997
310 0.675763
315 0.756343
320 1.12714
325 0.844588
330 0.977931
335 1.17635
340 1.28909
345 1.26972
350 1.08521
355 1.19701
360 1.27142
365 1.25369
370 1.48001
375 1.50417
380 1.20293
385 1.44697
390 1.48741
395 1.47136
400 1.52722
405 1.35708
410 1.34919
415 1.43818
420 1.52361
425 1.41117
430 1.43006
435 1.71727
440 1.51625
445 1.29365
450 0.99602
455 1.4246
460 1.07056
465 1.16526
470 1.32561
475 1.03172
480 1.09154
485 1.08534
490 1.22305
495 1.24841
500 1.22562
505 0.754768
510 0.941772
515 0.741755
520 0.842218
525 0.834554
530 0.909395
535 0.972702
540 1.2589
545 1.113
550 0.797517
555 0.724293
560 0.93294
565 0.898401
570 0.902433
575 0.782022
580 0.974881
585 1.07807
590 0.91663
595 1.08954
600 0.557241
Ex : 308
200 0.724329
205 0.695443
210 0.880307
215 0.69991
220 0.911932
225 0.80239
230 0.772129
235 0.698337
240 0.754314
245 0.759968
250 0.70757
255 0.653619
260 0.860889
265 0.937382
270 0.772488
275 0.971351
280 0.716769
285 0.735179
290 0.914045
295 0.83795
300 1.41396
305 1.10731
310 0.778856
315 0.827548
320 0.708463
325 1.02706
330 0.868738
335 1.2429
340 1.03625
345 0.984141
350 1.05707
355 1.01722
360 1.13659
365 1.20548
370 1.30505
375 1.36826
380 1.24162
385 1.31321
390 1.42012
395 1.27012
400 1.15888
405 1.5846
410 1.33429
415 1.17256
420 1.34277
425 1.31408
430 1.49889
435 0.995692
440 1.55823
445 1.22865
450 1.41647
455 1.09613
460 1.14436
465 1.32589
470 1.14973
475 0.985585
480 1.06623
485 1.06647
490 0.927351
495 1.08356
500 0.839427
505 0.847763
510 0.932383
515 0.835267
520 0.93534
525 0.966022
530 0.879046
535 0.823802
540 0.940409
545 0.771529
550 0.793869
555 0.745921
560 0.695318
565 0.774143
570 0.78032
575 0.791927
580 0.595106
585 0.920726
590 0.676599
595 0.833862
600 0.272131
Ex : 313
200 0.693026
205 0.679069
210 0.994734
215 0.627997
220 0.867978
225 0.668718
230 0.692836
235 0.61553
240 0.714535
245 0.477034
250 0.686902
255 0.856117
260 0.649839
265 0.642503
270 0.706466
275 0.774135
280 0.594987
285 0.542249
290 0.684252
295 0.480508
300 0.658666
305 0.939191
310 0.983026
315 0.903285
320 0.871768
325 0.796031
330 0.85275
335 1.06321
340 0.922781
345 0.937317
350 0.857168
355 0.941662
360 1.05458
365 1.34153
370 1.00578
375 1.50422
380 1.25442
385 1.32816
390 1.67709
395 1.59859
400 1.49435
405 1.48403
410 1.2961
415 1.23896
420 1.29455
425 1.45821
430 1.53441
435 1.28703
440 1.27052
445 1.157
450 1.36148
455 1.36929
460 1.38403
465 1.44804
470 1.31383
475 1.16582
480 1.25284
485 0.907816
490 0.786635
495 0.987303
500 1.07228
505 0.862612
510 0.961817
515 0.854806
520 0.785044
525 0.873908
530 0.691649
535 0.752466
540 1.03722
545 0.675902
550 0.648604
555 0.831287
560 0.78987
565 0.532501
570 0.646599
575 0.732904
580 0.771231
585 0.703026
590 0.751972
595 0.640848
600 0.78395
Ex : 318
200 0.551961
205 0.430181
210 0.790098
215 0.655319
220 0.709931
225 0.745879
230 0.511305
235 0.563453
240 0.503816
245 0.739877
250 0.541117
255 0.649249
260 0.679631
265 0.750291
270 0.581109
275 0.673911
280 0.436049
285 0.741028
290 0.580849
295 0.529406
300 0.666433
305 0.561396
310 0.75447
315 1.42856
320 1.09397
325 0.929809
330 1.13312
335 1.1655
340 1.41199
345 1.66094
350 2.07123
355 2.51566
360 3.03471
365 3.47087
370 4.25357
375 4.41576
380 4.81347
385 5.61517
390 5.97139
395 5.98464
400 6.36105
405 6.49651
410 6.91665
415 6.79265
420 6.46724
425 6.01006
430 6.00557
435 5.51416
440 6.30371
445 5.40656
450 4.71839
455 4.82755
460 4.28115
465 4.22673
470 4.28813
475 3.63826
480 3.44565
485 2.8258
490 2.5814
495 2.34029
500 2.22623
505 2.00684
510 1.8652
515 2.04434
520 1.51325
525 1.3229
530 1.50806
535 1.45721
540 1.16818
545 1.14877
550 1.10498
555 0.738356
560 0.912287
565 0.77777
570 0.900275
575 0.766714
580 0.634669
585 0.715125
590 0.683786
595 0.603167
600 0.0686381
Ex : 323
200 0.652203
205 0.615919
210 0.555004
215 0.46125
220 0.536857
225 0.611123
230 0.420955
235 0.579272
240 0.547085
245 0.579768
250 0.513404
255 0.641152
260 0.580655
265 0.715384
270 0.497703
275 0.588003
280 0.564018
285 0.59922
290 0.555522
295 0.586461
300 0.611291
305 0.621695
310 0.624476
315 5.23786
320 23.9862
325 11.4558
330 3.4734
335 3.54085
340 4.42256
345 5.86996
350 8.98148
355 11.6999
360 13.1316
365 15.5377
370 18.9464
375 21.8069
380 24.8064
385 27.6522
390 29.3095
395 32.1616
400 33.5914
405 33.2711
410 33.3203
415 32.928
420 32.9265
425 31.7317
430 30.7302
435 29.8434
440 28.6734
445 26.6578
450 25.5851
455 23.9299
460 22.0725
465 20.1979
470 19.495
475 16.683
480 15.5112
485 14.3868
490 12.8411
495 11.1995
500 10.4669
505 8.86608
510 7.67016
515 6.66395
520 5.50918
525 5.16373
530 4.69219
535 3.7774
540 3.57016
545 3.05065
550 2.73405
555 2.45525
560 2.13171
565 1.70388
570 1.65212
575 1.42668
580 1.25936
585 1.08984
590 1.05141
595 0.803074
600 1.11972
Ex : 328
200 0.574208
205 0.563519
210 0.516561
215 0.489438
220 0.530883
225 0.478957
230 0.51837
235 0.530221
240 0.599129
245 0.666955
250 0.485835
255 0.756001
260 0.452673
265 0.46424
270 0.515856
275 0.449069
280 0.546899
285 0.541148
290 0.599613
295 0.510802
300 0.649108
305 0.593631
310 0.724007
315 2.08115
320 66.0587
325 173.972
330 53.1722
335 10.4716
340 6.97258
345 8.66942
350 10.5518
355 14.8506
360 19.8489
365 22.6082
370 25.7888
375 29.161
380 32.922
385 36.7174
390 39.9181
395 42.3805
400 44.4149
405 46.0712
410 45.8074
415 44.9337
420 43.652
425 41.6148
430 40.8225
435 37.5783
440 36.8433
445 35.0715
450 32.2371
455 30.7699
460 28.9006
465 25.9524
470 24.2088
475 22.0664
480 20.4779
485 18.0686
490 16.1836
495 15.1436
500 13.3849
505 11.7313
510 9.88052
515 8.80783
520 7.63137
525 6.56347
530 5.98079
535 5.17708
540 4.73875
545 3.69202
550 3.59295
555 3.3798
560 2.56792
565 2.45241
570 2.00776
575 1.78439
580 1.34113
585 1.14944
590 0.927166
595 0.956142
600 1.30518
Ex : 333
200 0.542992
205 0.460086
210 0.5988
215 0.520159
220 0.414619
225 0.390795
230 0.331319
235 0.563784
240 0.577006
245 0.462857
250 0.656162
255 0.469223
260 0.626573
265 0.470389
270 0.613599
275 0.592759
280 0.527783
285 0.583837
290 0.422032
295 0.549641
300 0.626006
305 0.705379
310 0.563609
315 0.649525
320 10.8072
325 227.289
330 389.176
335 103.334
340 16.5043
345 7.91651
350 8.37469
355 8.90891
360 12.5187
365 17.5289
370 18.7571
375 18.0474
380 19.9052
385 22.1387
390 24.157
395 25.6735
400 26.2933
405 27.1566
410 28.5288
415 27.3405
420 26.6837
425 25.6847
430 23.8824
435 23.6177
440 21.6068
445 20.9665
450 19.5837
455 17.7895
460 16.6868
465 14.9014
470 14.5568
475 13.449
480 12.2241
485 11.0658
490 9.72282
495 9.02777
500 8.24086
505 7.14234
510 6.17559
515 6.01462
520 4.83181
525 4.51822
530 3.89877
535 3.59944
540 2.91303
545 2.54219
550 2.72611
555 2.01736
560 1.95998
565 1.95656
570 1.70862
575 1.45065
580 1.18576
585 1.02814
590 0.930328
595 0.907468
600 0.103266
Ex : 338
200 0.448606
205 0.437692
210 0.420372
215 0.505873
220 0.46138
225 0.483361
230 0.436142
235 0.369595
240 0.425278
245 0.506202
250 0.461172
255 0.641793
260 0.478602
265 0.465798
270 0.555223
275 0.501191
280 0.511467
285 0.498312
290 0.398673
295 0.502868
300 0.495839
305 0.549344
310 0.565571
315 0.775478
320 0.804405
325 22.7914
330 361.855
335 528.533
340 128.806
345 18.9289
350 6.65521
355 5.29392
360 5.62982
365 7.74422
370 12.0795
375 12.2811
380 10.7277
385 11.3516
390 12.7197
395 13.1968
400 13.8096
405 14.3842
410 15.0454
415 15.5773
420 13.9727
425 13.2078
430 12.9189
435 13.1009
440 11.996
445 11.884
450 10.9103
455 10.3977
460 9.18897
465 8.47025
470 7.85738
475 7.25369
480 6.80546
485 6.26869
490 5.90276
495 5.09917
500 4.66183
505 4.50567
510 3.91493
515 3.46619
520 3.38034
525 2.74833
530 2.56473
535 2.24735
540 2.35919
545 2.01712
550 1.93846
555 1.61402
560 1.3197
565 1.18041
570 1.35396
575 0.927376
580 0.947671
585 0.970504
590 0.942099
595 0.832201
600 0.157553
Ex : 343
200 0.623571
205 0.386745
210 0.35164
215 0.425841
220 0.361229
225 0.459132
230 0.459901
235 0.501869
240 0.428041
245 0.537065
250 0.385053
255 0.426093
260 0.32033
265 0.433816
270 0.387014
275 0.450206
280 0.357131
285 0.461556
290 0.449551
295 0.563149
300 0.47291
305 0.634242
310 0.402817
315 0.59625
320 0.748123
325 0.902277
330 27.0664
335 422.028
340 602.853
345 143.669
350 19.7582
355 5.93018
360 3.85758
365 3.48268
370 4.50115
375 8.63819
380 9.98982
385 8.9607
390 8.7058
395 9.0088
400 8.96667
405 9.55108
410 10.8434
415 11.7062
420 10.9109
425 10.3036
430 10.0291
435 9.49507
440 9.52806
445 8.81671
450 8.83303
455 7.78843
460 7.38801
465 6.62297
470 6.51324
475 5.7785
480 5.55641
485 5.16337
490 4.67425
495 4.05743
500 3.62305
505 3.59217
510 3.13389
515 3.00961
520 2.47952
525 2.25667
530 1.93213
535 1.98391
540 1.92633
545 1.61744
550 1.53193
555 1.43262
560 1.36326
565 1.27008
570 0.994863
575 0.937571
580 0.917668
585 0.897092
590 0.770505
595 0.705927
600 0.84569
Ex : 348
200 0.466988
205 0.54801
210 0.38853
215 0.447809
220 0.352656
225 0.363593
230 0.488627
235 0.440723
240 0.482561
245 0.503806
250 0.483322
255 0.445613
260 0.394611
265 0.388834
270 0.363124
275 0.261758
280 0.419528
285 0.397338
290 0.440663
295 0.465926
300 0.43714
305 0.409725
310 0.425736
315 0.550595
320 0.636537
325 0.828814
330 1.17416
335 28.2995
340 423.081
345 621.352
350 156.758
355 20.8257
360 5.33753
365 3.43066
370 2.49997
375 3.18566
380 7.40383
385 11.5396
390 10.9444
395 10.3678
400 9.20647
405 10.0267
410 11.3305
415 12.5041
420 12.3365
425 10.862
430 10.2378
435 10.4709
440 10.3781
445 9.86424
450 9.12444
455 8.22424
460 7.6834
465 7.52607
470 6.78057
475 6.39955
480 5.8954
485 5.19727
490 4.88723
495 4.29192
500 3.89934
505 3.41683
510 3.33118
515 2.93288
520 2.69359
525 2.43548
530 2.25318
535 2.07569
540 1.83576
545 1.54447
550 1.6229
555 1.455
560 1.31841
565 1.18744
570 1.10167
575 0.881343
580 0.896705
585 0.771761
590 0.65767
595 0.701658
600 0.197295
Ex : 353
200 0.36783
205 0.35314
210 0.425394
215 0.343849
220 0.382508
225 0.367252
230 0.41028
235 0.329387
240 0.478875
245 0.38353
250 0.351115
255 0.405904
260 0.416583
265 0.442948
270 0.391526
275 0.36031
280 0.295994
285 0.340181
290 0.308472
295 0.443993
300 0.429385
305 0.552588
310 0.437969
315 0.451572
320 0.485463
325 0.525039
330 0.693293
335 1.0971
340 28.051
345 432.326
350 619.871
355 149.351
360 19.8331
365 4.93135
370 3.13177
375 2.57596
380 3.22584
385 7.86475
390 13.1829
395 12.4016
400 10.2384
405 9.82236
410 11.6085
415 13.0754
420 13.1939
425 11.6109
430 11.1631
435 10.7874
440 10.8048
445 10.5349
450 9.79566
455 8.86156
460 8.05918
465 7.42673
470 7.25615
475 6.63549
480 6.12231
485 5.60512
490 4.88882
495 4.26646
500 4.08098
505 3.74689
510 3.63277
515 3.05126
520 2.64235
525 2.33093
530 1.9962
535 1.98856
540 1.85027
545 1.67627
550 1.67425
555 1.26991
560 1.13367
565 1.11186
570 1.03795
575 0.866998
580 0.779044
585 0.692786
590 0.76005
595 0.717262
600 0.352406
Ex : 358
200 0.283515
205 0.319778
210 0.246219
215 0.322141
220 0.318219
225 0.371015
230 0.377359
235 0.367018
240 0.403188
245 0.407246
250 0.359781
255 0.373446
260 0.395684
265 0.351689
270 0.310457
275 0.427847
280 0.292338
285 0.319909
290 0.320876
295 0.292597
300 0.370955
305 0.323266
310 0.275085
315 0.39805
320 0.421475
325 0.457572
330 0.607529
335 0.81042
340 1.14978
345 26.5856
350 408.094
355 613.079
360 149.566
365 19.6388
370 4.8071
375 3.35925
380 3.35516
385 4.86866
390 8.66602
395 12.7821
400 11.6973
405 10.3551
410 10.9605
415 12.4795
420 12.4691
425 10.9971
430 10.5065
435 10.5372
440 10.7964
445 10.4912
450 9.6062
455 9.20688
460 8.09182
465 7.70069
470 7.58622
475 6.71657
480 6.05412
485 5.61449
490 5.11664
495 4.61836
500 4.49574
505 3.94164
510 3.69664
515 3.22458
520 2.8299
525 2.35774
530 2.30286
535 2.16968
540 1.84602
545 1.76303
550 1.48667
555 1.37647
560 1.29383
565 1.1724
570 1.06542
575 0.943588
580 0.803454
585 0.706974
590 0.517904
595 0.600309
600 0.497568
Ex : 363
200 0.386785
205 0.358834
210 0.327105
215 0.298353
220 0.278899
225 0.38924
230 0.346587
235 0.327681
240 0.325928
245 0.326422
250 0.263699
255 0.338004
260 0.249887
265 0.389032
270 0.295766
275 0.336328
280 0.299792
285 0.352536
290 0.31769
295 0.299607
300 0.363279
305 0.347236
310 0.474508
315 0.392519
320 0.439376
325 0.414901
330 0.51607
335 0.636885
340 0.825339
345 1.18264
350 24.5961
355 394.045
360 603.651
365 153.585
370 19.9704
375 4.87746
380 4.50483
385 5.78771
390 7.502
395 9.0878
400 12.2677
405 14.2957
410 14.1528
415 15.0002
420 13.785
425 12.2657
430 11.91
435 11.7129
440 12.3358
445 11.8566
450 10.745
455 10.2272
460 9.31267
465 8.6624
470 8.06316
475 7.34468
480 6.64453
485 6.09321
490 6.07465
495 5.09368
500 4.64845
505 4.30646
510 3.64016
515 3.18433
520 2.96345
525 2.72622
530 2.43803
535 2.18772
540 2.03325
545 1.86108
550 1.63315
555 1.34451
560 1.05816
565 1.14899
570 1.15152
575 0.922457
580 0.747758
585 0.685344
590 0.609159
595 0.576046
600 1.28625
Ex : 368
200 0.304739
205 0.246561
210 0.297726
215 0.292148
220 0.245201
225 0.276881
230 0.25371
235 0.219492
240 0.297374
245 0.25728
250 0.320854
255 0.32732
260 0.379012
265 0.407516
270 0.358012
275 0.397344
280 0.357516
285 0.267372
290 0.325827
295 0.259491
300 0.279263
305 0.314802
310 0.399058
315 0.389082
320 0.478827
325 0.349094
330 0.46102
335 0.521945
340 0.595064
345 0.670377
350 1.14359
355 20.119
360 376.122
365 610.143
370 160.13
375 21.2199
380 5.97047
385 6.95648
390 9.45978
395 9.68999
400 9.79476
405 14.4137
410 18.7145
415 18.6606
420 16.7171
425 14.7434
430 13.3623
435 14.4518
440 14.4082
445 13.6943
450 12.1343
455 11.0084
460 10.0527
465 9.44174
470 8.84584
475 8.20747
480 7.46153
485 6.59989
490 5.82463
495 5.53962
500 4.91222
505 4.43918
510 3.90455
515 3.50846
520 3.14512
525 2.66559
530 2.62717
535 2.2248
540 2.19941
545 1.84547
550 1.69358
555 1.47045
560 1.3678
565 1.22981
570 0.958455
575 0.799362
580 0.862555
585 0.597094
590 0.685961
595 0.606507
600 0.498085
Ex : 373
200 0.377037
205 0.355534
210 0.31273
215 0.254685
220 0.229982
225 0.230771
230 0.291672
235 0.256037
240 0.241589
245 0.265209
250 0.301783
255 0.304559
260 0.26019
265 0.308876
270 0.359765
275 0.307465
280 0.303924
285 0.307871
290 0.286402
295 0.269187
300 0.348605
305 0.350378
310 0.344311
315 0.287424
320 0.322131
325 0.391467
330 0.413653
335 0.440041
340 0.481181
345 0.540149
350 0.752649
355 1.07112
360 22.8272
365 380.928
370 602.134
375 155.943
380 21.1522
385 7.48735
390 9.14317
395 10.2264
400 9.62828
405 10.0435
410 14.7845
415 19.337
420 17.853
425 14.7176
430 12.9529
435 12.0571
440 13.0905
445 12.5548
450 11.4276
455 10.444
460 9.30717
465 8.32391
470 8.09642
475 7.46219
480 6.97739
485 6.2432
490 5.6248
495 5.62948
500 4.83032
505 4.36312
510 3.8556
515 3.54415
520 3.00013
525 2.86902
530 2.38755
535 2.22061
540 1.91905
545 1.79509
550 1.67338
555 1.62878
560 1.34197
565 1.15268
570 0.962472
575 0.86839
580 0.712178
585 0.68156
590 0.627407
595 0.54745
600 0.380422
Ex : 378
200 0.220145
205 0.226297
210 0.306639
215 0.268701
220 0.261595
225 0.252636
230 0.226261
235 0.221765
240 0.231433
245 0.257561
250 0.306286
255 0.339131
260 0.251729
265 0.2827
270 0.249444
275 0.286916
280 0.29034
285 0.274999
290 0.263259
295 0.35124
300 0.262757
305 0.313179
310 0.28815
315 0.25432
320 0.363123
325 0.284507
330 0.375314
335 0.352785
340 0.436849
345 0.444035
350 0.501207
355 0.736161
360 1.00692
365 21.2726
370 377.251
375 601.948
380 158.429
385 22.6613
390 8.7822
395 8.85474
400 7.81468
405 7.89479
410 9.67592
415 13.5077
420 15.8579
425 13.5592
430 11.1161
435 10.9329
440 10.6848
445 10.2428
450 9.52228
455 8.55679
460 7.97242
465 7.57358
470 7.23513
475 6.79722
480 6.46883
485 5.97039
490 5.32422
495 4.85406
500 4.258
505 4.15071
510 3.69743
515 3.27425
520 2.99898
525 2.72765
530 2.45248
535 2.10709
540 2.02556
545 1.77791
550 1.57208
555 1.41654
560 1.33371
565 1.11257
570 0.967947
575 0.81534
580 0.76336
585 0.692698
590 0.595627
595 0.529693
600 0.807118
Ex : 383
200 0.281798
205 0.264258
210 0.298477
215 0.255015
220 0.279901
225 0.258642
230 0.246528
235 0.261279
240 0.224043
245 0.240647
250 0.286626
255 0.274067
260 0.31783
265 0.211685
270 0.203124
275 0.229887
280 0.239082
285 0.349902
290 0.299808
295 0.303802
300 0.231192
305 0.242958
310 0.230926
315 0.219127
320 0.241687
325 0.388074
330 0.262446
335 0.359406
340 0.37117
345 0.314128
350 0.469604
355 0.514606
360 0.728631
365 0.909545
370 19.8285
375 369.591
380 617.316
385 165.709
390 25.3895
395 9.28099
400 7.69162
405 8.58994
410 11.1353
415 12.5177
420 13.0192
425 14.2373
430 14.1371
435 12.489
440 12.2823
445 11.3135
450 10.631
455 9.55323
460 8.97481
465 8.38611
470 8.12232
475 7.55878
480 7.23735
485 6.28015
490 5.87001
495 5.10139
500 4.72864
505 4.34626
510 3.91261
515 3.5614
520 3.12226
525 2.69255
530 2.64417
535 2.41826
540 1.95832
545 1.72929
550 1.54157
555 1.42231
560 1.13346
565 1.11467
570 1.0954
575 0.915571
580 0.655508
585 0.555553
590 0.554461
595 0.426351
600 0.209174
Ex : 388
200 0.281217
205 0.310516
210 0.283363
215 0.196372
220 0.262752
225 0.213056
230 0.327131
235 0.263062
240 0.198881
245 0.233279
250 0.331018
255 0.32326
260 0.316441
265 0.263854
270 0.216151
275 0.277752
280 0.260238
285 0.226406
290 0.240971
295 0.222334
300 0.296141
305 0.212396
310 0.270802
315 0.288479
320 0.217967
325 0.259917
330 0.290159
335 0.398651
340 0.383928
345 0.406034
350 0.390148
355 0.421062
360 0.511857
365 0.642006
370 1.05704
375 21.0525
380 376.626
385 612.154
390 165.292
395 27.2337
400 10.41
405 10.3407
410 13.3266
415 15.0962
420 14.8541
425 13.4509
430 14.471
435 16.4324
440 15.0775
445 14.014
450 12.2503
455 10.7621
460 9.76734
465 9.46828
470 8.90174
475 8.11696
480 7.36332
485 6.8941
490 6.03137
495 5.79706
500 5.23161
505 4.77811
510 4.00475
515 3.76832
520 3.35327
525 2.99962
530 2.42946
535 2.32951
540 2.08493
545 1.86648
550 1.68201
555 1.48871
560 1.31861
565 1.1119
570 0.892409
575 0.852456
580 0.703289
585 0.525335
590 0.543129
595 0.54389
600 0.888352
Ex : 393
200 0.214607
205 0.199685
210 0.19633
215 0.177939
220 0.203419
225 0.277194
230 0.237002
235 0.247934
240 0.174691
245 0.184457
250 0.287132
255 0.221243
260 0.202463
265 0.267606
270 0.287149
275 0.235355
280 0.239684
285 0.337772
290 0.263585
295 0.242742
300 0.26213
305 0.263519
310 0.273011
315 0.351039
320 0.281618
325 0.233018
330 0.214402
335 0.354458
340 0.254979
345 0.337185
350 0.498749
355 0.345603
360 0.408592
365 0.625926
370 0.641049
375 0.99647
380 19.319
385 370.769
390 621.479
395 171.759
400 27.8412
405 10.8457
410 11.8103
415 14.9413
420 14.5806
425 12.4852
430 11.0449
435 13.1607
440 15.8293
445 14.5014
450 12.3464
455 10.2202
460 9.17323
465 8.21715
470 8.12764
475 7.71493
480 7.37039
485 6.40483
490 5.4733
495 5.06333
500 4.72759
505 4.29792
510 3.8696
515 3.55718
520 3.22931
525 2.68123
530 2.64239
535 2.24479
540 1.95228
545 1.78019
550 1.71654
555 1.44958
560 1.28298
565 1.15368
570 0.991681
575 0.807742
580 0.68898
585 0.579473
590 0.450569
595 0.504553
600 0.495788
Ex : 398
200 0.202675
205 0.248096
210 0.240627
215 0.302972
220 0.233189
225 0.173167
230 0.272855
235 0.222805
240 0.236366
245 0.285517
250 0.309134
255 0.255125
260 0.200075
265 0.236162
270 0.242688
275 0.226288
280 0.191404
285 0.27718
290 0.220037
295 0.239193
300 0.240932
305 0.20603
310 0.229478
315 0.261756
320 0.228303
325 0.23548
330 0.287619
335 0.246624
340 0.251376
345 0.271566
350 0.341228
355 0.335158
360 0.346846
365 0.373678
370 0.545424
375 0.715952
380 1.15135
385 19.948
390 374.489
395 625.352
400 167.183
405 24.8081
410 9.4586
415 10.1512
420 10.4585
425 8.77433
430 7.79093
435 7.78535
440 9.56748
445 11.7584
450 10.9037
455 8.62719
460 7.46503
465 6.56168
470 6.52563
475 6.46736
480 5.88368
485 5.26008
490 4.97544
495 4.40655
500 4.11896
505 3.83533
510 3.44335
515 3.03805
520 2.79873
525 2.62459
530 2.26189
535 2.05173
540 1.79106
545 1.70859
550 1.5639
555 1.31092
560 1.23259
565 1.17522
570 0.935114
575 0.909102
580 0.641808
585 0.608721
590 0.456752
595 0.432441
600 0.225852
Ex : 403
200 0.201582
205 0.186473
210 0.196168
215 0.206847
220 0.257937
225 0.303717
230 0.230388
235 0.220805
240 0.201171
245 0.299091
250 0.30267
255 0.221235
260 0.245642
265 0.208841
270 0.241902
275 0.255663
280 0.240115
285 0.260845
290 0.308692
295 0.194449
300 0.279775
305 0.315742
310 0.267312
315 0.246608
320 0.255404
325 0.239952
330 0.242061
335 0.285645
340 0.25909
345 0.256193
350 0.287934
355 0.321371
360 0.338019
365 0.40669
370 0.384374
375 0.515807
380 0.717046
385 1.08067
390 21.6269
395 380.425
400 614.974
405 163.863
410 24.0386
415 8.69405
420 7.11284
425 6.77121
430 6.1264
435 6.60181
440 6.93875
445 7.5591
450 9.27066
455 9.2786
460 7.56742
465 6.73863
470 6.04055
475 5.79717
480 5.20299
485 4.98171
490 4.66333
495 4.17881
500 4.06859
505 3.63241
510 3.25339
515 3.01284
520 2.76979
525 2.46428
530 2.2397
535 1.90283
540 1.82438
545 1.68399
550 1.66309
555 1.38026
560 1.23604
565 1.13479
570 0.977639
575 0.850286
580 0.684115
585 0.528076
590 0.457973
595 0.363664
600 0.424199
Ex : 408
200 0.297113
205 0.229159
210 0.256805
215 0.214703
220 0.214671
225 0.202158
230 0.228153
235 0.197239
240 0.240794
245 0.216099
250 0.202565
255 0.210222
260 0.206102
265 0.243018
270 0.251311
275 0.192147
280 0.25168
285 0.227297
290 0.241848
295 0.230473
300 0.243107
305 0.256042
310 0.190121
315 0.263353
320 0.23563
325 0.214372
330 0.238373
335 0.270388
340 0.261402
345 0.334314
350 0.286054
355 0.355442
360 0.364947
365 0.363147
370 0.324527
375 0.415705
380 0.570303
385 0.697635
390 1.05542
395 20.9646
400 383.369
405 614.626
410 159.796
415 24.4429
420 8.72337
425 6.59237
430 6.86214
435 6.9237
440 7.33754
445 7.36014
450 7.57146
455 8.62661
460 9.49289
465 7.66358
470 6.97464
475 6.21666
480 5.60563
485 5.09667
490 4.73161
495 4.38858
500 4.00017
505 3.57965
510 3.45955
515 3.16461
520 2.80341
525 2.53971
530 2.3225
535 2.06366
540 1.94254
545 1.71185
550 1.49015
555 1.43477
560 1.16584
565 1.13212
570 0.977081
575 0.815504
580 0.658778
585 0.587787
590 0.520221
595 0.386791
600 0.600887
Ex : 413
200 0.230413
205 0.19413
210 0.240685
215 0.240376
220 0.20712
225 0.252967
230 0.312599
235 0.222747
240 0.293391
245 0.234669
250 0.282448
255 0.21301
260 0.248146
265 0.206649
270 0.224641
275 0.189412
280 0.202429
285 0.283411
290 0.180411
295 0.176475
300 0.24871
305 0.228497
310 0.262323
315 0.246133
320 0.211021
325 0.283638
330 0.259155
335 0.232769
340 0.244536
345 0.303921
350 0.324479
355 0.309267
360 0.298964
365 0.312117
370 0.277037
375 0.33831
380 0.393163
385 0.458659
390 0.674782
395 1.12271
400 23.2199
405 387.658
410 613.375
415 156.512
420 23.6444
425 7.72761
430 5.76182
435 6.35635
440 6.69324
445 6.67652
450 6.15523
455 5.83639
460 6.888
465 8.29899
470 7.12512
475 5.85734
480 5.47079
485 4.86993
490 4.27298
495 4.04331
500 3.60621
505 3.52699
510 3.0963
515 2.85421
520 2.52499
525 2.3057
530 2.09034
535 1.9519
540 1.78968
545 1.61976
550 1.50828
555 1.26033
560 1.25682
565 1.10067
570 0.866342
575 0.735356
580 0.61198
585 0.510637
590 0.530225
595 0.466617
600 0.380995
Ex : 418
200 0.204364
205 0.180531
210 0.237865
215 0.19007
220 0.257385
225 0.191143
230 0.230934
235 0.217324
240 0.18758
245 0.240157
250 0.261368
255 0.22713
260 0.210195
265 0.234473
270 0.249416
275 0.260128
280 0.19169
285 0.282273
290 0.272541
295 0.219507
300 0.237559
305 0.1842
310 0.23656
315 0.210511
320 0.230711
325 0.268136
330 0.258434
335 0.266301
340 0.230311
345 0.300585
350 0.295122
355 0.300113
360 0.264546
365 0.280552
370 0.284529
375 0.340089
380 0.368109
385 0.454071
390 0.492929
395 0.746347
400 1.08557
405 21.0312
410 380.74
415 604.137
420 158.546
425 21.9418
430 5.76454
435 4.07164
440 4.23028
445 4.46882
450 3.98345
455 3.59995
460 3.58849
465 4.35368
470 6.20079
475 6.29195
480 4.58433
485 4.24589
490 3.53376
495 3.28279
500 2.9039
505 2.73425
510 2.70354
515 2.45256
520 2.30545
525 2.15326
530 1.87209
535 1.66593
540 1.59424
545 1.39672
550 1.43386
555 1.34743
560 1.146
565 0.963418
570 0.898485
575 0.785357
580 0.634662
585 0.52053
590 0.483412
595 0.464604
600 0.55136
Ex : 423
200 0.227361
205 0.218816
210 0.242961
215 0.23794
220 0.242873
225 0.235573
230 0.175264
235 0.149002
240 0.172766
245 0.269928
250 0.191237
255 0.237038
260 0.189585
265 0.19181
270 0.226212
275 0.243037
280 0.23622
285 0.23696
290 0.213574
295 0.210903
300 0.222929
305 0.191271
310 0.224091
315 0.210094
320 0.168875
325 0.167069
330 0.256114
335 0.250556
340 0.239181
345 0.227653
350 0.225666
355 0.287909
360 0.313111
365 0.26267
370 0.285527
375 0.306655
380 0.308178
385 0.429185
390 0.435467
395 0.549427
400 0.747187
405 1.10631
410 21.8957
415 390.536
420 596.449
425 147.346
430 19.2964
435 4.39761
440 2.60536
445 2.86534
450 2.71865
455 2.45775
460 2.22585
465 2.6166
470 2.82491
475 4.70389
480 5.31382
485 3.95952
490 3.3742
495 3.0787
500 2.76132
505 2.54168
510 2.34381
515 2.21045
520 2.12837
525 1.8547
530 1.86508
535 1.61722
540 1.47284
545 1.30826
550 1.35373
555 1.13506
560 1.03155
565 0.973698
570 0.83008
575 0.725932
580 0.675365
585 0.55051
590 0.430632
595 0.356156
600 0.273741
Ex : 428
200 0.203478
205 0.239104
210 0.230741
215 0.194056
220 0.221561
225 0.233058
230 0.190142
235 0.229828
240 0.193889
245 0.276539
250 0.194584
255 0.20048
260 0.213261
265 0.257024
270 0.217967
275 0.209045
280 0.281076
285 0.235584
290 0.236237
295 0.280657
300 0.266144
305 0.251481
310 0.258204
315 0.255198
320 0.259213
325 0.242811
330 0.259693
335 0.248634
340 0.279272
345 0.257386
350 0.327887
355 0.275317
360 0.269547
365 0.270971
370 0.261963
375 0.336216
380 0.286226
385 0.352193
390 0.359278
395 0.464362
400 0.555693
405 0.711362
410 1.05367
415 23.5051
420 385.773
425 593.704
430 150.312
435 19.0483
440 3.84106
445 2.00282
450 2.08943
455 2.19572
460 1.97853
465 1.78753
470 1.98264
475 2.29947
480 3.59259
485 5.0196
490 3.92103
495 2.99253
500 2.80482
505 2.26023
510 2.06502
515 1.8648
520 1.93844
525 1.74493
530 1.69767
535 1.69778
540 1.50791
545 1.34082
550 1.24918
555 1.18989
560 1.13786
565 0.871823
570 0.763755
575 0.633537
580 0.568932
585 0.575689
590 0.470668
595 0.424697
600 0.0691458
Ex : 433
200 0.289359
205 0.220359
210 0.255249
215 0.191686
220 0.256083
225 0.22331
230 0.213642
235 0.21385
240 0.28018
245 0.292858
250 0.217834
255 0.259118
260 0.285054
265 0.232776
270 0.266658
275 0.203374
280 0.189452
285 0.237611
290 0.233352
295 0.200562
300 0.225001
305 0.256599
310 0.221533
315 0.205592
320 0.215688
325 0.269312
330 0.27784
335 0.299828
340 0.294328
345 0.26081
350 0.289259
355 0.257798
360 0.256516
365 0.284624
370 0.285807
375 0.231834
380 0.288822
385 0.324808
390 0.329804
395 0.323795
400 0.460169
405 0.532402
410 0.707159
415 0.99393
420 24.9771
425 406.806
430 590.377
435 145.158
440 18.3769
445 3.68953
450 1.85977
455 2.07023
460 1.94246
465 1.8115
470 1.85853
475 1.92028
480 2.03897
485 2.92454
490 4.68496
495 3.98974
500 2.78332
505 2.53526
510 2.27216
515 1.81163
520 1.84804
525 1.78187
530 1.68459
535 1.49079
540 1.49246
545 1.36733
550 1.18654
555 1.15894
560 1.08769
565 0.909311
570 0.893954
575 0.679605
580 0.598122
585 0.552307
590 0.461805
595 0.466316
600 0.493132
Ex : 438
200 0.230886
205 0.246724
210 0.19752
215 0.254496
220 0.292024
225 0.234984
230 0.199327
235 0.212244
240 0.265202
245 0.217511
250 0.23177
255 0.232116
260 0.187214
265 0.275934
270 0.211144
275 0.205661
280 0.252201
285 0.240082
290 0.246461
295 0.199946
300 0.218789
305 0.288071
310 0.207557
315 0.26509
320 0.217605
325 0.162813
330 0.219177
335 0.254842
340 0.284906
345 0.250218
350 0.293621
355 0.259902
360 0.278789
365 0.282951
370 0.29131
375 0.331037
380 0.28433
385 0.364204
390 0.345123
395 0.333069
400 0.412401
405 0.505781
410 0.634698
415 0.702958
420 1.03048
425 23.906
430 394.264
435 614.837
440 151.027
445 19.0774
450 3.65534
455 1.86653
460 2.00208
465 1.96285
470 1.79849
475 1.73002
480 1.66765
485 1.81391
490 2.30255
495 3.94908
500 4.58362
505 2.76085
510 2.27763
515 2.24975
520 1.86212
525 1.7342
530 1.63698
535 1.38289
540 1.34902
545 1.34593
550 1.24503
555 1.23079
560 0.905114
565 0.857409
570 0.856662
575 0.714065
580 0.592251
585 0.506987
590 0.463087
595 0.395165
600 0.441507
Ex : 443
200 0.178988
205 0.187078
210 0.155719
215 0.2045
220 0.2106
225 0.204782
230 0.229557
235 0.239176
240 0.230814
245 0.248689
250 0.201781
255 0.202551
260 0.215472
265 0.227992
270 0.164051
275 0.295612
280 0.213614
285 0.211169
290 0.276016
295 0.259347
300 0.273386
305 0.280455
310 0.221789
315 0.279156
320 0.221425
325 0.265093
330 0.242741
335 0.277399
340 0.260133
345 0.259219
350 0.219378
355 0.234855
360 0.397433
365 0.292942
370 0.302714
375 0.245694
380 0.351121
385 0.275161
390 0.328695
395 0.285056
400 0.297051
405 0.39075
410 0.442265
415 0.552819
420 0.634456
425 1.09153
430 26.0487
435 413.981
440 611.259
445 148.578
450 18.6851
455 3.61382
460 1.69144
465 1.87755
470 2.00759
475 1.89064
480 1.70047
485 1.62842
490 1.6891
495 1.89658
500 3.32729
505 4.14092
510 2.82149
515 2.09297
520 2.07299
525 1.90156
530 1.64418
535 1.43456
540 1.3823
545 1.19217
550 1.23044
555 1.13381
560 0.962814
565 0.907351
570 0.837638
575 0.638084
580 0.610155
585 0.585109
590 0.518976
595 0.504278
600 0.524934
Ex : 448
200 0.175767
205 0.197679
210 0.205783
215 0.211858
220 0.187951
225 0.279732
230 0.261998
235 0.273306
240 0.337766
245 0.276703
250 0.234445
255 0.251616
260 0.279374
265 0.237014
270 0.252885
275 0.228492
280 0.265932
285 0.297749
290 0.246921
295 0.238711
300 0.210419
305 0.222325
310 0.174685
315 0.258352
320 0.253286
325 0.250866
330 0.21193
335 0.231602
340 0.268503
345 0.268612
350 0.282449
355 0.257174
360 0.311404
365 0.270346
370 0.246378
375 0.261406
380 0.246913
385 0.262628
390 0.2969
395 0.286129
400 0.286531
405 0.330032
410 0.391032
415 0.510083
420 0.448048
425 0.664534
430 0.94037
435 26.5528
440 432.11
445 633.403
450 154.256
455 19.3627
460 3.85842
465 1.81311
470 1.77399
475 2.04727
480 1.91724
485 1.67434
490 1.67622
495 1.58623
500 1.70314
505 2.64775
510 4.17909
515 3.2584
520 2.21319
525 2.01242
530 1.76899
535 1.52938
540 1.38598
545 1.23653
550 1.28224
555 1.15118
560 1.09432
565 0.955983
570 0.861519
575 0.765968
580 0.631324
585 0.613921
590 0.564144
595 0.473768
600 0.979571
Ex : 453
200 0.227538
205 0.196848
210 0.227793
215 0.228587
220 0.185002
225 0.259988
230 0.213408
235 0.189669
240 0.221577
245 0.247347
250 0.185224
255 0.230089
260 0.227786
265 0.192242
270 0.205791
275 0.212296
280 0.190018
285 0.200963
290 0.221315
295 0.208048
300 0.2483
305 0.217622
310 0.219794
315 0.239722
320 0.277745
325 0.190492
330 0.206778
335 0.264813
340 0.184976
345 0.290674
350 0.258606
355 0.288582
360 0.212762
365 0.258447
370 0.272185
375 0.254855
380 0.291941
385 0.30247
390 0.279169
395 0.271602
400 0.351178
405 0.323724
410 0.348865
415 0.374629
420 0.499331
425 0.487447
430 0.655577
435 0.969721
440 27.0219
445 455.003
450 643.323
455 147.987
460 18.6057
465 3.71967
470 1.71938
475 1.71497
480 1.93352
485 1.81719
490 1.5598
495 1.58749
500 1.46409
505 1.51033
510 2.14959
515 3.56278
520 3.55906
525 2.43093
530 1.89746
535 1.74549
540 1.45836
545 1.34726
550 1.20523
555 1.07393
560 0.998149
565 0.961274
570 0.815346
575 0.715803
580 0.66663
585 0.565264
590 0.492715
595 0.415055
600 0.150479
Ex : 458
200 0.234716
205 0.255043
210 0.200618
215 0.215159
220 0.210256
225 0.214638
230 0.242335
235 0.186756
240 0.286076
245 0.192152
250 0.230669
255 0.239893
260 0.233702
265 0.245292
270 0.241727
275 0.222373
280 0.264509
285 0.216464
290 0.254158
295 0.221974
300 0.230009
305 0.241026
310 0.239266
315 0.241751
320 0.221259
325 0.225238
330 0.260725
335 0.24708
340 0.201248
345 0.272567
350 0.269884
355 0.318997
360 0.275222
365 0.283516
370 0.222265
375 0.311227
380 0.269914
385 0.249576
390 0.276779
395 0.366639
400 0.298894
405 0.376611
410 0.326695
415 0.39248
420 0.453168
425 0.467516
430 0.488703
435 0.651778
440 0.975093
445 29.3313
450 460.787
455 663.775
460 156.827
465 19.8332
470 3.91846
475 1.83502
480 1.6236
485 1.89489
490 1.76897
495 1.57456
500 1.4898
505 1.46461
510 1.4245
515 1.66472
520 2.83454
525 3.57632
530 2.37814
535 1.94181
540 1.80753
545 1.47278
550 1.3096
555 1.20674
560 1.06224
565 0.936959
570 0.798526
575 0.77534
580 0.637586
585 0.592189
590 0.423536
595 0.486128
600 0.434698
Ex : 463
200 0.208358
205 0.207663
210 0.236031
215 0.187685
220 0.152603
225 0.258074
230 0.254213
235 0.215431
240 0.210343
245 0.208848
250 0.183471
255 0.173808
260 0.195628
265 0.211809
270 0.169048
275 0.184847
280 0.22743
285 0.271294
290 0.1989
295 0.185687
300 0.222664
305 0.22361
310 0.222425
315 0.203125
320 0.235494
325 0.277898
330 0.241348
335 0.250385
340 0.241118
345 0.218511
350 0.295332
355 0.306045
360 0.260929
365 0.229469
370 0.276126
375 0.281332
380 0.306609
385 0.273896
390 0.360034
395 0.281458
400 0.302088
405 0.253838
410 0.243007
415 0.3227
420 0.340872
425 0.339551
430 0.41079
435 0.545715
440 0.706153
445 0.975763
450 27.9732
455 471.764
460 698.275
465 164.279
470 20.5717
475 3.96724
480 1.93423
485 1.6483
490 1.79278
495 1.76315
500 1.5547
505 1.39336
510 1.24214
515 1.52855
520 1.6194
525 2.45289
530 3.36326
535 2.80113
540 1.92176
545 1.61861
550 1.48259
555 1.17589
560 1.10638
565 1.03386
570 0.941058
575 0.789812
580 0.641631
585 0.609798
590 0.43885
595 0.342317
600 0.367797
Ex : 468
200 0.192886
205 0.186986
210 0.196727
215 0.212711
220 0.186541
225 0.19824
230 0.184682
235 0.180771
240 0.206961
245 0.192221
250 0.153128
255 0.210909
260 0.239749
265 0.207555
270 0.173737
275 0.202848
280 0.16666
285 0.21293
290 0.242347
295 0.195198
300 0.210083
305 0.188408
310 0.187659
315 0.182929
320 0.200524
325 0.197568
330 0.209398
335 0.252074
340 0.263282
345 0.236124
350 0.222338
355 0.243506
360 0.256137
365 0.237729
370 0.256523
375 0.213354
380 0.23422
385 0.237052
390 0.235606
395 0.260592
400 0.245996
405 0.299634
410 0.302204
415 0.241172
420 0.310505
425 0.399643
430 0.355664
435 0.416121
440 0.443915
445 0.597863
450 0.902459
455 30.5256
460 475.171
465 718.611
470 168.424
475 20.8281
480 3.81138
485 1.6747
490 1.42506
495 1.54996
500 1.5999
505 1.62918
510 1.32538
515 1.35011
520 1.40833
525 1.43452
530 1.83098
535 2.86307
540 2.96808
545 2.01875
550 1.60277
555 1.46906
560 1.1921
565 1.01467
570 0.91413
575 0.764029
580 0.651628
585 0.534261
590 0.50339
595 0.414895
600 0.192411
Ex : 473
200 0.200868
205 0.211872
210 0.203023
215 0.20337
220 0.232755
225 0.253783
230 0.182095
235 0.232737
240 0.232589
245 0.194797
250 0.240407
255 0.188103
260 0.237423
265 0.274001
270 0.187922
275 0.212897
280 0.266539
285 0.262675
290 0.208761
295 0.19572
300 0.191164
305 0.251884
310 0.230969
315 0.19496
320 0.225649
325 0.26833
330 0.231942
335 0.263867
340 0.223259
345 0.187216
350 0.240498
355 0.238014
360 0.223112
365 0.218637
370 0.24805
375 0.243818
380 0.242159
385 0.218977
390 0.313916
395 0.240251
400 0.292673
405 0.251497
410 0.250858
415 0.329523
420 0.274617
425 0.390044
430 0.430079
435 0.424758
440 0.424222
445 0.473173
450 0.704597
455 0.977587
460 34.5714
465 513.89
470 698.72
475 158.772
480 19.5791
485 3.82687
490 1.7457
495 1.42317
500 1.52072
505 1.63209
510 1.52749
515 1.25883
520 1.33995
525 1.45286
530 1.454
535 1.70003
540 2.60229
545 3.17424
550 2.07997
555 1.55044
560 1.34488
565 1.22386
570 0.914731
575 0.877841
580 0.660211
585 0.606188
590 0.583531
595 0.367892
600 0.285969
Ex : 478
200 0.234884
205 0.245971
210 0.304667
215 0.277389
220 0.265826
225 0.300462
230 0.210948
235 0.236091
240 0.245775
245 0.279735
250 0.270257
255 0.253835
260 0.305805
265 0.246529
270 0.189829
275 0.243443
280 0.222407
285 0.289253
290 0.261581
295 0.243545
300 0.273038
305 0.312545
310 0.29453
315 0.265505
320 0.277526
325 0.278176
330 0.255871
335 0.286507
340 0.218882
345 0.299462
350 0.231253
355 0.263988
360 0.342864
365 0.318386
370 0.255858
375 0.294008
380 0.255957
385 0.259828
390 0.297035
395 0.28506
400 0.388904
405 0.3236
410 0.379519
415 0.327729
420 0.337823
425 0.396505
430 0.352016
435 0.363477
440 0.383026
445 0.421311
450 0.611506
455 0.759587
460 1.22695
465 37.9678
470 523.046
475 703.485
480 165.359
485 20.6573
490 3.74885
495 1.71547
500 1.31572
505 1.40433
510 1.57043
515 1.53743
520 1.57228
525 1.3372
530 1.50081
535 1.36885
540 1.49493
545 2.14498
550 2.85045
555 2.23911
560 1.68801
565 1.24894
570 1.12474
575 0.974015
580 0.681283
585 0.655268
590 0.575825
595 0.428005
600 0.823337
Ex : 483
200 0.234441
205 0.257518
210 0.291199
215 0.2544
220 0.286482
225 0.242714
230 0.211262
235 0.197457
240 0.267535
245 0.241617
250 0.204798
255 0.182755
260 0.270659
265 0.254821
270 0.270634
275 0.406909
280 0.263221
285 0.290642
290 0.334347
295 0.23593
300 0.241849
305 0.249766
310 0.248149
315 0.218902
320 0.255297
325 0.257683
330 0.259201
335 0.33362
340 0.277878
345 0.278717
350 0.387944
355 0.256026
360 0.208706
365 0.319767
370 0.253316
375 0.356316
380 0.320843
385 0.250858
390 0.27468
395 0.292937
400 0.290116
405 0.297183
410 0.319594
415 0.308887
420 0.354141
425 0.343944
430 0.411993
435 0.463378
440 0.409221
445 0.484645
450 0.551675
455 0.588905
460 0.938472
465 1.26527
470 29.888
475 509.405
480 743.057
485 173.812
490 21.3743
495 3.75522
500 1.84818
505 1.36928
510 1.49624
515 1.66391
520 1.6331
525 1.53375
530 1.54945
535 1.34248
540 1.4127
545 1.32383
550 1.7067
555 2.52597
560 2.61278
565 1.66187
570 1.205
575 1.04298
580 0.743581
585 0.686021
590 0.575056
595 0.499141
600 0.469509
Ex : 488
200 0.282929
205 0.274794
210 0.335267
215 0.278309
220 0.239191
225 0.263734
230 0.279195
235 0.306286
240 0.32383
245 0.250966
250 0.327191
255 0.270899
260 0.252442
265 0.253151
270 0.302353
275 0.248584
280 0.224927
285 0.24644
290 0.262592
295 0.26759
300 0.23446
305 0.29813
310 0.265533
315 0.285925
320 0.226365
325 0.260122
330 0.274416
335 0.325202
340 0.381864
345 0.335871
350 0.309574
355 0.352803
360 0.337005
365 0.298508
370 0.290717
375 0.378716
380 0.291499
385 0.329911
390 0.353731
395 0.447895
400 0.359247
405 0.287177
410 0.399816
415 0.366992
420 0.392601
425 0.36621
430 0.29129
435 0.394988
440 0.497034
445 0.451387
450 0.429899
455 0.518027
460 0.610837
465 0.939661
470 1.32922
475 35.8895
480 543.332
485 731.3
490 168.081
495 20.6344
500 3.7114
505 1.70631
510 1.38875
515 1.6281
520 1.81143
525 1.7571
530 1.7193
535 1.48007
540 1.30814
545 1.32794
550 1.16833
555 1.49044
560 2.0469
565 2.47999
570 1.59411
575 1.14474
580 0.895667
585 0.771915
590 0.583859
595 0.583535
600 0.823965
Ex : 493
200 0.26146
205 0.287167
210 0.296269
215 0.290953
220 0.196814
225 0.266664
230 0.231947
235 0.265447
240 0.271244
245 0.281848
250 0.242621
255 0.273439
260 0.256382
265 0.260828
270 0.315751
275 0.26158
280 0.281432
285 0.291246
290 0.260786
295 0.284137
300 0.225843
305 0.238643
310 0.27739
315 0.292214
320 0.362504
325 0.286395
330 0.357424
335 0.373551
340 0.316143
345 0.354798
350 0.305234
355 0.331129
360 0.364506
365 0.283809
370 0.290656
375 0.304868
380 0.354555
385 0.351835
390 0.337527
395 0.332511
400 0.349029
405 0.316593
410 0.316438
415 0.353876
420 0.342593
425 0.341947
430 0.340128
435 0.30832
440 0.40619
445 0.419124
450 0.405637
455 0.421526
460 0.60228
465 0.766061
470 0.868861
475 1.10778
480 32.0969
485 532.319
490 764.092
495 171.196
500 21.1285
505 3.62528
510 1.76552
515 1.27582
520 1.4733
525 1.69806
530 1.70271
535 1.52502
540 1.47633
545 1.32213
550 1.20801
555 1.20875
560 1.1593
565 1.45666
570 2.09095
575 1.65115
580 1.05014
585 0.728242
590 0.690655
595 0.561709
600 0.44676
Ex : 498
200 0.265743
205 0.325516
210 0.289465
215 0.269565
220 0.303731
225 0.299385
230 0.291214
235 0.313038
240 0.329543
245 0.322865
250 0.243147
255 0.347232
260 0.297497
265 0.251068
270 0.26918
275 0.219608
280 0.260763
285 0.269791
290 0.372707
295 0.332575
300 0.331544
305 0.26595
310 0.289433
315 0.322953
320 0.352182
325 0.287416
330 0.315391
335 0.317851
340 0.339538
345 0.348461
350 0.330203
355 0.277806
360 0.277671
365 0.30535
370 0.303713
375 0.317364
380 0.31418
385 0.364237
390 0.387894
395 0.361497
400 0.428774
405 0.462191
410 0.343811
415 0.372444
420 0.396452
425 0.368594
430 0.338006
435 0.339474
440 0.402592
445 0.489432
450 0.493915
455 0.500818
460 0.425221
465 0.604139
470 0.750408
475 0.923445
480 1.26669
485 38.7825
490 559.38
495 735.252
500 165.741
505 20.4587
510 3.78792
515 1.83384
520 1.41444
525 1.52858
530 1.72749
535 1.79041
540 1.53664
545 1.34576
550 1.2457
555 1.11503
560 1.17191
565 0.998485
570 1.2317
575 1.67519
580 1.73062
585 1.00354
590 0.705596
595 0.63075
600 0.232364
Ex : 503
200 0.272279
205 0.339212
210 0.338727
215 0.255191
220 0.399061
225 0.343988
230 0.354437
235 0.318658
240 0.263219
245 0.279939
250 0.335118
255 0.324901
260 0.289279
265 0.314598
270 0.278066
275 0.313239
280 0.329911
285 0.316236
290 0.320416
295 0.325422
300 0.348371
305 0.329977
310 0.304727
315 0.381404
320 0.352251
325 0.408894
330 0.374353
335 0.355223
340 0.337656
345 0.316575
350 0.315821
355 0.29847
360 0.30516
365 0.329157
370 0.279827
375 0.373244
380 0.398893
385 0.428813
390 0.360158
395 0.360408
400 0.32457
405 0.335313
410 0.404226
415 0.417517
420 0.415347
425 0.393709
430 0.343204
435 0.318792
440 0.324699
445 0.455014
450 0.414412
455 0.496434
460 0.53816
465 0.519166
470 0.731002
475 0.684142
480 0.812814
485 1.3462
490 35.8847
495 552.137
500 754.953
505 170.992
510 21.369
515 3.73888
520 1.92227
525 1.55
530 1.69423
535 1.63704
540 1.64207
545 1.50431
550 1.25785
555 1.24635
560 1.10539
565 1.06476
570 0.945716
575 0.978823
580 1.12607
585 1.45022
590 1.11765
595 0.68512
600 0.178764
Ex : 508
200 0.219977
205 0.267726
210 0.333831
215 0.258915
220 0.341307
225 0.374672
230 0.303001
235 0.295503
240 0.25891
245 0.284013
250 0.297276
255 0.256519
260 0.332516
265 0.362777
270 0.312786
275 0.279472
280 0.330747
285 0.333798
290 0.350201
295 0.313684
300 0.256262
305 0.325667
310 0.302289
315 0.309198
320 0.313582
325 0.253554
330 0.342363
335 0.320067
340 0.385587
345 0.425482
350 0.397585
355 0.291861
360 0.30501
365 0.295185
370 0.409083
375 0.33159
380 0.292601
385 0.339948
390 0.378997
395 0.414903
400 0.373804
405 0.328533
410 0.445114
415 0.339566
420 0.400435
425 0.41847
430 0.418156
435 0.317074
440 0.387237
445 0.349178
450 0.383431
455 0.441351
460 0.499498
465 0.576212
470 0.485614
475 0.680431
480 0.841911
485 0.988238
490 1.36893
495 38.0949
500 551.261
505 749.283
510 177.442
515 21.9167
520 3.98357
525 1.8876
530 1.67857
535 1.51659
540 1.64022
545 1.65248
550 1.54246
555 1.25701
560 1.09057
565 1.04108
570 0.895895
575 0.788607
580 0.70538
585 0.921301
590 1.07446
595 0.979718
600 0.8804
Ex : 513
200 0.321112
205 0.297278
210 0.345131
215 0.336203
220 0.356021
225 0.34307
230 0.324682
235 0.319501
240 0.314096
245 0.357843
250 0.380868
255 0.288885
260 0.326181
265 0.273546
270 0.357552
275 0.408245
280 0.364521
285 0.355581
290 0.256053
295 0.279249
300 0.372028
305 0.281633
310 0.34757
315 0.335348
320 0.360982
325 0.336799
330 0.347963
335 0.327841
340 0.366034
345 0.439197
350 0.298489
355 0.294199
360 0.315487
365 0.439101
370 0.352946
375 0.422263
380 0.397785
385 0.363166
390 0.411442
395 0.373783
400 0.446453
405 0.338109
410 0.403892
415 0.32219
420 0.456366
425 0.381867
430 0.397119
435 0.490056
440 0.362705
445 0.377214
450 0.437868
455 0.436204
460 0.402582
465 0.593673
470 0.493863
475 0.686451
480 0.607645
485 0.687836
490 0.944355
495 1.16524
500 33.8149
505 533.594
510 749.277
515 180.159
520 22.4072
525 4.09814
530 2.02615
535 1.47316
540 1.43864
545 1.47528
550 1.36798
555 1.27604
560 1.20889
565 1.03831
570 0.921148
575 0.738833
580 0.689736
585 0.76114
590 0.71767
595 0.970221
600 1.35552
Ex : 518
200 0.351192
205 0.411495
210 0.399162
215 0.329283
220 0.346258
225 0.283995
230 0.355572
235 0.330489
240 0.321318
245 0.341601
250 0.297983
255 0.334483
260 0.270059
265 0.218409
270 0.388442
275 0.376158
280 0.273047
285 0.283569
290 0.335763
295 0.371351
300 0.324723
305 0.35259
310 0.306821
315 0.356549
320 0.365847
325 0.335924
330 0.397728
335 0.370289
340 0.303186
345 0.294733
350 0.398512
355 0.410983
360 0.291075
365 0.355639
370 0.403795
375 0.431564
380 0.431528
385 0.476765
390 0.383522
395 0.419323
400 0.510707
405 0.383724
410 0.379794
415 0.402755
420 0.37309
425 0.306038
430 0.439786
435 0.542381
440 0.345469
445 0.425858
450 0.476497
455 0.381994
460 0.465555
465 0.602017
470 0.492085
475 0.558711
480 0.666061
485 0.659976
490 0.79196
495 0.838381
500 1.42564
505 34.4705
510 516.534
515 749.708
520 180.859
525 22.5645
530 4.11519
535 2.02741
540 1.50869
545 1.45882
550 1.34533
555 1.29069
560 1.19358
565 1.01118
570 0.852083
575 0.773593
580 0.673757
585 0.72823
590 0.587163
595 0.630705
600 0.921804
Ex : 523
200 0.307115
205 0.277086
210 0.301667
215 0.335974
220 0.409395
225 0.40546
230 0.367541
235 0.310012
240 0.439693
245 0.343876
250 0.412228
255 0.319387
260 0.335355
265 0.31503
270 0.356022
275 0.324962
280 0.365325
285 0.322748
290 0.378944
295 0.304365
300 0.398857
305 0.281074
310 0.304471
315 0.289505
320 0.37093
325 0.375219
330 0.404576
335 0.350263
340 0.363189
345 0.407284
350 0.429558
355 0.41879
360 0.399791
365 0.35736
370 0.339821
375 0.460115
380 0.369882
385 0.416849
390 0.419392
395 0.358266
400 0.464828
405 0.446613
410 0.404962
415 0.406896
420 0.361106
425 0.486566
430 0.400916
435 0.386733
440 0.361325
445 0.45665
450 0.469821
455 0.470226
460 0.450813
465 0.441675
470 0.520193
475 0.554555
480 0.521668
485 0.618537
490 0.651648
495 0.814519
500 0.834836
505 1.31871
510 30.9285
515 497.634
520 730.477
525 183.783
530 22.7649
535 4.02727
540 1.86887
545 1.42724
550 1.24407
555 1.08417
560 1.1837
565 1.13513
570 1.03432
575 0.796921
580 0.712245
585 0.760168
590 0.627403
595 0.559736
600 0.412521
Ex : 528
200 0.320777
205 0.405345
210 0.401008
215 0.359326
220 0.387062
225 0.409418
230 0.44121
235 0.352586
240 0.32122
245 0.377928
250 0.355354
255 0.414195
260 0.358045
265 0.321587
270 0.357474
275 0.471552
280 0.353661
285 0.338239
290 0.307761
295 0.399763
300 0.510528
305 0.385317
310 0.364154
315 0.350394
320 0.335119
325 0.371992
330 0.399718
335 0.342413
340 0.343627
345 0.428657
350 0.374749
355 0.464675
360 0.348084
365 0.436769
370 0.440042
375 0.478709
380 0.379307
385 0.370099
390 0.462304
395 0.383631
400 0.373757
405 0.409521
410 0.442523
415 0.452975
420 0.408173
425 0.382998
430 0.537724
435 0.415579
440 0.465228
445 0.473574
450 0.432411
455 0.422649
460 0.502274
465 0.487575
470 0.553351
475 0.419595
480 0.534342
485 0.578396
490 0.495608
495 0.662076
500 0.831986
505 1.03551
510 1.26341
515 29.7616
520 489.301
525 721.866
530 177.101
535 21.8756
540 3.76914
545 1.67419
550 1.11606
555 0.988343
560 1.01013
565 1.11585
570 0.970367
575 0.814873
580 0.677154
585 0.548164
590 0.543887
595 0.537468
600 0.0611618
Ex : 533
200 0.381481
205 0.45544
210 0.378215
215 0.368707
220 0.283837
225 0.381741
230 0.391238
235 0.458899
240 0.373163
245 0.352563
250 0.389257
255 0.332327
260 0.374556
265 0.394868
270 0.333396
275 0.338622
280 0.294233
285 0.468889
290 0.399522
295 0.328854
300 0.342892
305 0.292761
310 0.318406
315 0.41709
320 0.385639
325 0.316216
330 0.54879
335 0.38535
340 0.448483
345 0.4107
350 0.360385
355 0.358469
360 0.411161
365 0.430531
370 0.344394
375 0.331231
380 0.417372
385 0.327106
390 0.504854
395 0.414652
400 0.339711
405 0.529717
410 0.487825
415 0.499161
420 0.452732
425 0.413919
430 0.40389
435 0.391042
440 0.485304
445 0.42093
450 0.518875
455 0.560749
460 0.475454
465 0.45388
470 0.490942
475 0.566831
480 0.525334
485 0.494701
490 0.465153
495 0.620965
500 0.586613
505 0.662702
510 0.84097
515 1.40569
520 28.1055
525 463.193
530 706.275
535 177.967
540 22.0352
545 3.70828
550 1.49971
555 1.19458
560 0.990982
565 0.863369
570 0.975614
575 0.911058
580 0.787335
585 0.663976
590 0.444789
595 0.478647
600 0.354963
Ex : 538
200 0.407777
205 0.49514
210 0.414534
215 0.360671
220 0.370283
225 0.347094
230 0.401485
235 0.42075
240 0.445347
245 0.351623
250 0.36983
255 0.360418
260 0.343577
265 0.323129
270 0.326737
275 0.373651
280 0.358139
285 0.449453
290 0.316856
295 0.382712
300 0.486027
305 0.280298
310 0.359473
315 0.319528
320 0.361579
325 0.353872
330 0.555993
335 0.516531
340 0.303685
345 0.360239
350 0.515566
355 0.372808
360 0.311876
365 0.470965
370 0.424823
375 0.363591
380 0.419492
385 0.422442
390 0.43599
395 0.367851
400 0.465686
405 0.416873
410 0.343763
415 0.341373
420 0.343841
425 0.466232
430 0.469661
435 0.586468
440 0.507957
445 0.446434
450 0.476714
455 0.398737
460 0.461821
465 0.498921
470 0.427814
475 0.412753
480 0.635303
485 0.500727
490 0.456459
495 0.604467
500 0.663848
505 0.546217
510 0.743379
515 0.754819
520 1.3165
525 24.3593
530 440.885
535 698.898
540 183.733
545 22.563
550 3.66519
555 1.50407
560 1.11396
565 0.881507
570 0.840485
575 0.721925
580 0.679649
585 0.61774
590 0.638163
595 0.559265
600 0.341869
Ex : 543
200 0.457176
205 0.389301
210 0.544629
215 0.340689
220 0.391612
225 0.427342
230 0.421126
235 0.380394
240 0.566396
245 0.672645
250 0.51521
255 0.32937
260 0.345748
265 0.407771
270 0.44885
275 0.475813
280 0.456977
285 0.376698
290 0.433358
295 0.311604
300 0.385729
305 0.437706
310 0.408882
315 0.419586
320 0.388297
325 0.406265
330 0.308949
335 0.388967
340 0.365014
345 0.392128
350 0.391476
355 0.49055
360 0.438557
365 0.506839
370 0.442122
375 0.60048
380 0.491226
385 0.408238
390 0.390595
395 0.400086
400 0.352424
405 0.429905
410 0.530484
415 0.434069
420 0.407853
425 0.479287
430 0.639545
435 0.490676
440 0.463395
445 0.425284
450 0.45054
455 0.512333
460 0.589095
465 0.493289
470 0.535865
475 0.53575
480 0.414547
485 0.488728
490 0.493522
495 0.406425
500 0.586122
505 0.687865
510 0.591647
515 0.722588
520 0.802292
525 1.2406
530 22.0463
535 417.99
540 692.57
545 188.842
550 23.2334
555 3.74083
560 1.52185
565 0.999032
570 0.763964
575 0.737292
580 0.72677
585 0.817802
590 0.586832
595 0.574611
600 0.0707271
Ex : 548
200 0.348512
205 0.400032
210 0.421427
215 0.399252
220 0.432965
225 0.428448
230 0.399159
235 0.344009
240 0.378138
245 0.409051
250 0.323976
255 0.389446
260 0.483758
265 0.398545
270 0.416867
275 0.35773
280 0.334508
285 0.527157
290 0.44838
295 0.449033
300 0.438012
305 0.482589
310 0.393203
315 0.421018
320 0.55539
325 0.382005
330 0.38625
335 0.376346
340 0.450982
345 0.408923
350 0.565817
355 0.418257
360 0.52978
365 0.373593
370 0.460057
375 0.583196
380 0.512723
385 0.417104
390 0.418838
395 0.43664
400 0.341608
405 0.480849
410 0.398056
415 0.533022
420 0.44023
425 0.471721
430 0.495105
435 0.479791
440 0.498759
445 0.360572
450 0.336521
455 0.492288
460 0.477374
465 0.433218
470 0.465039
475 0.583577
480 0.518011
485 0.473366
490 0.53928
495 0.574266
500 0.649604
505 0.712755
510 0.541002
515 0.719074
520 0.84338
525 0.850206
530 1.32922
535 24.7546
540 420.321
545 668.426
550 181.472
555 22.0423
560 3.45961
565 1.42389
570 0.934958
575 0.721247
580 0.638735
585 0.628972
590 0.622462
595 0.529297
600 1.05721
Ex : 553
200 0.43276
205 0.471627
210 0.335207
215 0.392216
220 0.482478
225 0.505375
230 0.493559
235 0.418348
240 0.437525
245 0.422142
250 0.4613
255 0.393911
260 0.373561
265 0.475441
270 0.533678
275 0.608635
280 0.490272
285 0.360929
290 0.3455
295 0.394071
300 0.484809
305 0.413643
310 0.453864
315 0.486137
320 0.38281
325 0.443518
330 0.322393
335 0.506685
340 0.465183
345 0.450501
350 0.451913
355 0.449949
360 0.36838
365 0.576181
370 0.404527
375 0.597909
380 0.453673
385 0.459546
390 0.435403
395 0.454879
400 0.416309
405 0.570263
410 0.467552
415 0.593587
420 0.45359
425 0.545
430 0.553001
435 0.415878
440 0.535945
445 0.400752
450 0.498308
455 0.425729
460 0.470682
465 0.445667
470 0.460343
475 0.498777
480 0.478298
485 0.489268
490 0.47788
495 0.392792
500 0.486086
505 0.506888
510 0.439515
515 0.6545
520 0.772398
525 0.752
530 0.732848
535 1.16158
540 21.1432
545 391.848
550 650.853
555 179.503
560 22.0621
565 3.44661
570 1.18977
575 1.00614
580 0.72887
585 0.522351
590 0.614327
595 0.510948
600 0.829999
Ex : 558
200 0.548407
205 0.375608
210 0.422867
215 0.49087
220 0.445405
225 0.404912
230 0.524262
235 0.399507
240 0.395783
245 0.469237
250 0.490288
255 0.463261
260 0.514323
265 0.495699
270 0.460637
275 0.405063
280 0.413731
285 0.496765
290 0.517803
295 0.422719
300 0.344493
305 0.390015
310 0.355747
315 0.499473
320 0.338786
325 0.405899
330 0.361851
335 0.548251
340 0.417409
345 0.373929
350 0.475467
355 0.454483
360 0.385945
365 0.537607
370 0.39709
375 0.444779
380 0.407408
385 0.346919
390 0.432549
395 0.35011
400 0.40828
405 0.521086
410 0.487736
415 0.541485
420 0.569756
425 0.551882
430 0.471514
435 0.491808
440 0.573864
445 0.555148
450 0.437226
455 0.505157
460 0.48439
465 0.578923
470 0.52449
475 0.521881
480 0.585145
485 0.557303
490 0.598589
495 0.567882
500 0.501356
505 0.565086
510 0.609606
515 0.656631
520 0.585021
525 0.594909
530 0.836552
535 0.920434
540 1.06769
545 19.7266
550 376.244
555 639.868
560 179.06
565 22.025
570 3.25063
575 1.14124
580 1.04849
585 0.706868
590 0.682018
595 0.579972
600 0.851766
Ex : 563
200 0.391675
205 0.494131
210 0.389231
215 0.451664
220 0.407455
225 0.337968
230 0.36401
235 0.465018
240 0.388717
245 0.449568
250 0.491421
255 0.340579
260 0.459648
265 0.485374
270 0.330177
275 0.441858
280 0.386332
285 0.288826
290 0.30379
295 0.522525
300 0.404809
305 0.371168
310 0.424886
315 0.407931
320 0.40374
325 0.41584
330 0.463162
335 0.40445
340 0.523525
345 0.447335
350 0.483196
355 0.571561
360 0.368833
365 0.484927
370 0.555897
375 0.544592
380 0.42581
385 0.529084
390 0.497538
395 0.43444
400 0.598831
405 0.440537
410 0.529642
415 0.470955
420 0.408924
425 0.430619
430 0.39894
435 0.538832
440 0.55075
445 0.502998
450 0.412013
455 0.534872
460 0.572082
465 0.449751
470 0.579387
475 0.46468
480 0.482726
485 0.441369
490 0.594692
495 0.570721
500 0.480354
505 0.498348
510 0.532764
515 0.551827
520 0.668293
525 0.652403
530 0.626128
535 0.928444
540 0.930128
545 1.15707
550 19.2007
555 356.665
560 607.137
565 173.799
570 21.0611
575 3.24159
580 1.15053
585 1.09201
590 0.764546
595 0.572712
600 0.702511
Ex : 568
200 0.436667
205 0.466986
210 0.475078
215 0.38858
220 0.420874
225 0.469438
230 0.43017
235 0.369346
240 0.498423
245 0.424327
250 0.422043
255 0.421711
260 0.36341
265 0.49308
270 0.365882
275 0.474251
280 0.514848
285 0.42103
290 0.410784
295 0.503403
300 0.45159
305 0.540427
310 0.467499
315 0.496528
320 0.471382
325 0.527773
330 0.412373
335 0.434065
340 0.513181
345 0.694532
350 0.461025
355 0.51596
360 0.471252
365 0.364225
370 0.444172
375 0.460038
380 0.423509
385 0.323838
390 0.473691
395 0.509718
400 0.427243
405 0.547861
410 0.542673
415 0.471478
420 0.495697
425 0.518925
430 0.624508
435 0.590628
440 0.59588
445 0.592535
450 0.441944
455 0.664278
460 0.546167
465 0.429263
470 0.387393
475 0.451536
480 0.595367
485 0.520009
490 0.491757
495 0.46912
500 0.516613
505 0.533127
510 0.544147
515 0.50864
520 0.419542
525 0.541347
530 0.706005
535 0.809979
540 0.766409
545 0.914458
550 0.969309
555 15.2181
560 323.244
565 581.549
570 171.569
575 21.1221
580 3.13181
585 0.951771
590 0.724732
595 0.622162
600 0.301712
Ex : 573
200 0.525541
205 0.44349
210 0.429257
215 0.411666
220 0.404264
225 0.514788
230 0.502935
235 0.458115
240 0.456414
245 0.431012
250 0.416096
255 0.42106
260 0.515189
265 0.472126
270 0.597083
275 0.39356
280 0.49233
285 0.397362
290 0.538431
295 0.59386
300 0.421158
305 0.463553
310 0.479045
315 0.488003
320 0.513195
325 0.478828
330 0.436199
335 0.379007
340 0.367377
345 0.476832
350 0.473798
355 0.437592
360 0.507327
365 0.48801
370 0.370787
375 0.546778
380 0.477547
385 0.534312
390 0.527942
395 0.403601
400 0.574248
405 0.51202
410 0.575464
415 0.560936
420 0.502845
425 0.598903
430 0.626598
435 0.628365
440 0.542742
445 0.50269
450 0.491033
455 0.562236
460 0.570693
465 0.502085
470 0.510325
475 0.535581
480 0.625119
485 0.546464
490 0.502331
495 0.504441
500 0.569002
505 0.539126
510 0.535273
515 0.589462
520 0.51835
525 0.577902
530 0.457204
535 0.654245
540 0.708894
545 0.841356
550 0.854488
555 1.12089
560 13.2279
565 279.418
570 529.253
575 163.998
580 20.0999
585 2.93891
590 0.986496
595 0.768066
600 0.74554
Ex : 578
200 0.621236
205 0.622603
210 0.536493
215 0.455626
220 0.541398
225 0.40992
230 0.485145
235 0.492676
240 0.480514
245 0.468296
250 0.46317
255 0.431361
260 0.433702
265 0.422383
270 0.55278
275 0.459482
280 0.537322
285 0.414731
290 0.400719
295 0.55182
300 0.541089
305 0.319102
310 0.519653
315 0.464793
320 0.476472
325 0.550744
330 0.42302
335 0.496032
340 0.542014
345 0.604178
350 0.594367
355 0.501934
360 0.523196
365 0.45947
370 0.557275
375 0.51845
380 0.593561
385 0.529494
390 0.460053
395 0.518463
400 0.51625
405 0.612545
410 0.502886
415 0.548339
420 0.529435
425 0.533348
430 0.432783
435 0.374409
440 0.429778
445 0.50085
450 0.583663
455 0.435085
460 0.56661
465 0.529222
470 0.484395
475 0.627991
480 0.499236
485 0.565244
490 0.521954
495 0.577833
500 0.475576
505 0.463408
510 0.423871
515 0.578996
520 0.462406
525 0.522511
530 0.537907
535 0.660886
540 0.613596
545 0.723287
550 0.745597
555 0.865443
560 1.06318
565 11.6671
570 250.88
575 458.699
580 140.516
585 17.1812
590 2.73586
595 0.922123
600 0.124774
Ex : 583
200 0.53686
205 0.532551
210 0.506339
215 0.592321
220 0.428114
225 0.403691
230 0.532993
235 0.533173
240 0.443183
245 0.536607
250 0.512219
255 0.41594
260 0.435244
265 0.487743
270 0.601063
275 0.497308
280 0.50979
285 0.545003
290 0.491483
295 0.421701
300 0.676306
305 0.439022
310 0.407757
315 0.456176
320 0.431831
325 0.599085
330 0.480523
335 0.552564
340 0.681743
345 0.519118
350 0.491794
355 0.523247
360 0.544622
365 0.49198
370 0.432328
375 0.526244
380 0.561422
385 0.423944
390 0.668142
395 0.517736
400 0.496255
405 0.577082
410 0.451198
415 0.419181
420 0.669628
425 0.487464
430 0.584776
435 0.603149
440 0.497418
445 0.58077
450 0.366165
455 0.519817
460 0.499459
465 0.511012
470 0.571962
475 0.564794
480 0.49883
485 0.499208
490 0.51033
495 0.579672
500 0.641419
505 0.617376
510 0.696372
515 0.498799
520 0.689929
525 0.436946
530 0.557687
535 0.588031
540 0.692365
545 0.563568
550 0.75057
555 0.663899
560 0.733226
565 0.959278
570 10.0185
575 221.168
580 400.263
585 116.495
590 14.4093
595 2.36561
600 1.02588
Ex : 588
200 0.594517
205 0.575204
210 0.492961
215 0.44346
220 0.48184
225 0.440814
230 0.531279
235 0.394653
240 0.550586
245 0.56401
250 0.364008
255 0.519959
260 0.49843
265 0.475077
270 0.437271
275 0.568601
280 0.503374
285 0.421529
290 0.475932
295 0.526065
300 0.624137
305 0.532252
310 0.51752
315 0.526172
320 0.559447
325 0.477292
330 0.512826
335 0.554918
340 0.487975
345 0.684959
350 0.519015
355 0.465665
360 0.575361
365 0.535101
370 0.536716
375 0.495427
380 0.631883
385 0.546755
390 0.485373
395 0.506417
400 0.423323
405 0.398986
410 0.556714
415 0.710432
420 0.760927
425 0.644634
430 0.513789
435 0.564821
440 0.49598
445 0.510659
450 0.530798
455 0.51859
460 0.477622
465 0.575497
470 0.514842
475 0.547197
480 0.565596
485 0.59218
490 0.458051
495 0.554045
500 0.463439
505 0.56359
510 0.55242
515 0.579589
520 0.570312
525 0.579701
530 0.53774
535 0.458803
540 0.545732
545 0.596339
550 0.494242
555 0.656918
560 0.890835
565 0.835136
570 0.87238
575 8.60585
580 185.126
585 342.635
590 102.553
595 12.8527
600 2.43526
Ex : 593
200 0.513325
205 0.439942
210 0.634509
215 0.514153
220 0.624915
225 0.551259
230 0.591007
235 0.656869
240 0.640517
245 0.437167
250 0.461886
255 0.604993
260 0.525542
265 0.439479
270 0.394041
275 0.550657
280 0.484504
285 0.627497
290 0.420083
295 0.476939
300 0.456024
305 0.50247
310 0.457967
315 0.543639
320 0.569843
325 0.469375
330 0.480722
335 0.600663
340 0.570488
345 0.525431
350 0.698501
355 0.530033
360 0.513961
365 0.501767
370 0.556479
375 0.600537
380 0.488363
385 0.554329
390 0.539857
395 0.676848
400 0.624091
405 0.517867
410 0.816281
415 0.600661
420 0.433155
425 0.540618
430 0.579266
435 0.508398
440 0.497144
445 0.539909
450 0.508721
455 0.542325
460 0.700792
465 0.546274
470 0.549958
475 0.508888
480 0.635923
485 0.531159
490 0.733539
495 0.643135
500 0.471514
505 0.498183
510 0.662107
515 0.569585
520 0.527052
525 0.546972
530 0.499236
535 0.508978
540 0.554855
545 0.566232
550 0.55677
555 0.72244
560 0.68889
565 0.731151
570 0.931385
575 0.885564
580 7.17264
585 162.024
590 294.77
595 86.4352
600 13.7836
Ex : 598
200 0.431691
205 0.558812
210 0.56909
215 0.551638
220 0.485964
225 0.335418
230 0.52517
235 0.545522
240 0.480838
245 0.415596
250 0.501417
255 0.522344
260 0.565069
265 0.508151
270 0.424647
275 0.547619
280 0.59348
285 0.693332
290 0.433679
295 0.532325
300 0.59712
305 0.566708
310 0.472961
315 0.433008
320 0.463684
325 0.520033
330 0.658952
335 0.645556
340 0.655706
345 0.766605
350 0.584571
355 0.484041
360 0.658601
365 0.579772
370 0.559745
375 0.624112
380 0.533559
385 0.42015
390 0.43015
395 0.605607
400 0.6383
405 0.537847
410 0.632031
415 0.826119
420 0.587839
425 0.564696
430 0.642544
435 0.575923
440 0.564504
445 0.636722
450 0.539523
455 0.572013
460 0.704922
465 0.607134
470 0.561363
475 0.506703
480 0.631435
485 0.717855
490 0.741521
495 0.613034
500 0.568122
505 0.546767
510 0.616819
515 0.533193
520 0.529325
525 0.605433
530 0.637598
535 0.739809
540 0.61714
545 0.637961
550 0.599621
555 0.601786
560 0.585308
565 0.690625
570 0.704851
575 0.714499
580 0.745727
585 7.44228
590 145.183
595 257.963
600 167.742
Ex : 603
200 0.641546
205 0.477167
210 0.56963
215 0.566093
220 0.508588
225 0.643479
230 0.645586
235 0.61484
240 0.62778
245 0.606605
250 0.559398
255 0.587261
260 0.632943
265 0.489862
270 0.56248
275 0.624075
280 0.471106
285 0.374521
290 0.528173
295 0.51974
300 0.466948
305 0.619518
310 0.459076
315 0.620005
320 0.519446
325 0.637912
330 0.491245
335 0.554526
340 0.616786
345 0.494372
350 0.602154
355 0.63263
360 0.524171
365 0.496614
370 0.667104
375 0.53137
380 0.551761
385 0.637187
390 0.462377
395 0.539512
400 0.436978
405 0.601393
410 0.648348
415 0.557818
420 0.796052
425 0.657703
430 0.527793
435 0.593773
440 0.579598
445 0.47162
450 0.582298
455 0.476862
460 0.534438
465 0.686878
470 0.536965
475 0.576003
480 0.726232
485 0.686003
490 0.68157
495 0.604418
500 0.610898
505 0.576423
510 0.526874
515 0.756454
520 0.611275
525 0.561659
530 0.496784
535 0.592544
540 0.586187
545 0.74305
550 0.53211
555 0.80723
560 0.576466
565 0.728251
570 0.657929
575 0.721617
580 0.737604
585 0.662142
590 6.62853
595 126.968
600 253.772
