File format V 1.0
ven. 9. déc. 21:32:04 2016
Operator : 
Comments : 

=============================================
SpectroFluorometer parameters
Mode : 3D measurement
Data : Fluorescence
Phospho. : Ordinary
Spectrum : Fluorescence

Scan speed : 2400 nm/mn
Response : 100 ms
PM Voltage : 700 V
Shutter : On

Lambda Ex. Start : 203
Lambda Ex. End : 603
Lambda Ex. Step : 5
Ex. Slit : 5 nm

Lambda Em. Start : 200
Lambda Em. End : 600
Lambda Em. Step : 5
Em. Slit : 5 nm

Repetition : 1
Decal lambda em : 10
=============================================
DATA
Ex : 203
200 13.3274
205 13.0106
210 15.0545
215 12.4145
220 13.2269
225 14.2198
230 13.5875
235 14.0061
240 16.4893
245 17.3794
250 16.368
255 13.9515
260 13.1132
265 16.2467
270 19.2534
275 14.4026
280 16.2513
285 11.7165
290 13.478
295 14.1116
300 13.8217
305 17.7191
310 18.8599
315 15.8152
320 15.4371
325 19.1585
330 16.2808
335 14.5158
340 13.0422
345 14.5049
350 17.2905
355 12.8767
360 14.6257
365 11.4914
370 13.0003
375 17.7212
380 16.201
385 15.9299
390 18.9478
395 17.0808
400 15.094
405 11.2068
410 14.4095
415 10.9499
420 17.8216
425 21.1454
430 18.6287
435 15.6359
440 10.4006
445 11.7179
450 16.2397
455 13.7724
460 15.3737
465 15.6202
470 14.0905
475 18.9845
480 16.524
485 14.8267
490 18.5092
495 14.7774
500 20.3487
505 17.3059
510 15.725
515 20.2922
520 16.8451
525 15.0046
530 16.0754
535 10.7926
540 14.7067
545 13.7059
550 15.4881
555 14.4247
560 10.8886
565 11.5225
570 16.6686
575 16.6614
580 14.9879
585 10.5784
590 16.2098
595 13.2478
600 5.64317
Ex : 208
200 14.1812
205 14.1519
210 15.4646
215 12.6373
220 12.2444
225 14.0355
230 11.7284
235 19.4991
240 11.2339
245 16.1273
250 16.8479
255 13.5493
260 14.7182
265 12.7445
270 13.4534
275 12.9395
280 19.0417
285 18.3644
290 18.9986
295 16.6862
300 12.7986
305 20.5693
310 14.1723
315 15.1668
320 17.0019
325 18.0816
330 14.5001
335 18.3498
340 14.3519
345 16.9489
350 15.2329
355 16.0673
360 14.9925
365 13.7975
370 11.5072
375 16.8207
380 12.543
385 15.7277
390 13.3211
395 17.2873
400 18.1238
405 13.0237
410 16.2159
415 15.1954
420 19.1766
425 19.0572
430 15.056
435 17.3253
440 13.0773
445 13.7198
450 16.2022
455 18.997
460 13.9528
465 18.9762
470 13.8365
475 14.0705
480 20.7452
485 10.7207
490 16.6421
495 13.4945
500 14.7042
505 15.701
510 16.8577
515 14.7285
520 16.6275
525 17.8913
530 14.912
535 18.5079
540 20.2579
545 15.6313
550 15.0138
555 16.1355
560 15.9429
565 15.1643
570 13.6652
575 18.3544
580 13.3003
585 17.873
590 22.8942
595 16.0242
600 7.80537
Ex : 213
200 13.2768
205 15.1664
210 13.5829
215 13.8424
220 12.7655
225 15.7694
230 13.5287
235 18.5208
240 13.8405
245 19.0762
250 14.1941
255 14.519
260 14.2818
265 12.9144
270 15.9767
275 17.2706
280 16.6722
285 14.5914
290 12.4647
295 14.3303
300 11.8861
305 12.8483
310 9.98246
315 12.194
320 12.6689
325 15.0394
330 13.5478
335 17.7364
340 13.0932
345 16.4338
350 12.7021
355 17.3868
360 16.8769
365 13.4772
370 15.451
375 15.1357
380 16.3692
385 14.744
390 14.221
395 11.8952
400 14.7435
405 18.6595
410 16.2818
415 24.2945
420 15.7688
425 20.0711
430 15.3717
435 16.8873
440 17.0883
445 19.7937
450 16.2283
455 17.9646
460 15.1475
465 18.1265
470 16.5247
475 14.3714
480 15.7098
485 20.2826
490 15.9244
495 15.1795
500 14.159
505 15.3917
510 15.5795
515 12.8403
520 19.0104
525 14.8179
530 14.028
535 14.1878
540 11.8935
545 14.0657
550 16.5682
555 17.6858
560 15.209
565 15.8115
570 12.9553
575 13.533
580 16.8631
585 15.0495
590 14.0045
595 12.3335
600 10.6453
Ex : 218
200 14.1257
205 17.2762
210 15.6996
215 12.5644
220 12.5228
225 14.9027
230 15.7365
235 12.7797
240 15.7044
245 15.718
250 14.1322
255 15.3525
260 13.0065
265 16.7124
270 13.917
275 15.8193
280 17.5092
285 13.8349
290 11.3073
295 14.7697
300 16.3219
305 16.5033
310 12.4555
315 13.5651
320 16.1338
325 13.5484
330 16.0371
335 20.3128
340 12.0496
345 9.39235
350 12.946
355 15.5369
360 17.5658
365 17.3795
370 14.2234
375 15.1157
380 13.9197
385 17.8479
390 14.8335
395 14.2308
400 15.0998
405 16.5735
410 23.1284
415 14.296
420 12.4942
425 20.24
430 13.91
435 11.1229
440 12.5042
445 11.8664
450 13.8633
455 12.7927
460 17.1751
465 12.3885
470 17.4367
475 16.5098
480 11.9805
485 13.0695
490 15.7595
495 13.8101
500 12.9555
505 16.7421
510 16.7028
515 12.7974
520 13.9627
525 18.7414
530 14.7769
535 12.6754
540 17.2553
545 16.6715
550 16.4862
555 16.0064
560 13.7524
565 13.5035
570 14.8142
575 13.7954
580 17.0259
585 14.8729
590 14.2398
595 13.9224
600 6.67999
Ex : 223
200 15.3086
205 15.5739
210 14.8626
215 15.4604
220 13.4381
225 14.3766
230 14.6511
235 13.3737
240 14.4515
245 12.6017
250 15.8361
255 16.7933
260 11.1514
265 13.458
270 12.789
275 15.5627
280 15.2474
285 12.6649
290 14.4783
295 15.7472
300 10.8961
305 20.3646
310 15.7725
315 13.5715
320 14.1601
325 15.3054
330 14.0339
335 13.3273
340 17.0225
345 14.5964
350 15.5281
355 22.2094
360 13.6997
365 10.4648
370 15.0156
375 16.1048
380 13.6642
385 15.5139
390 18.6566
395 16.5431
400 14.454
405 17.8952
410 14.2469
415 12.6988
420 14.157
425 12.4683
430 11.7147
435 15.1498
440 16.063
445 14.7635
450 15.272
455 14.1998
460 11.6319
465 15.9924
470 13.7982
475 12.5895
480 14.2096
485 14.8437
490 14.7521
495 13.4455
500 15.4591
505 16.752
510 11.9171
515 15.8544
520 15.2838
525 12.8369
530 13.1929
535 13.1291
540 14.1598
545 14.583
550 14.6103
555 11.0755
560 13.3245
565 15.4482
570 13.171
575 14.536
580 14.1328
585 16.5967
590 16.0281
595 17.8827
600 8.01686
Ex : 228
200 17.5693
205 17.5245
210 11.5546
215 16.1496
220 16.0319
225 12.8831
230 9.60465
235 10.9039
240 11.1855
245 11.1284
250 15.5948
255 14.1863
260 14.7266
265 11.151
270 17.2607
275 16.0004
280 13.5113
285 13.5652
290 12.3997
295 13.7425
300 11.2983
305 13.8178
310 16.123
315 12.6672
320 10.5658
325 13.7864
330 11.2393
335 12.6064
340 12.5581
345 10.9709
350 12.4293
355 11.2107
360 14.3897
365 17.4139
370 17.4641
375 13.7606
380 11.8205
385 15.0186
390 12.939
395 15.053
400 10.3839
405 13.4927
410 13.9181
415 12.168
420 15.5994
425 17.0254
430 13.9973
435 15.1813
440 18.0241
445 12.9005
450 11.0981
455 16.3564
460 13.1801
465 15.0354
470 12.7442
475 13.6903
480 13.4157
485 12.3096
490 11.3753
495 10.4461
500 14.1959
505 9.67057
510 12.3169
515 11.2514
520 19.6725
525 14.1501
530 12.3932
535 16.0872
540 15.5191
545 18.7412
550 16.214
555 17.2602
560 14.9458
565 15.2937
570 13.7205
575 14.0962
580 12.5948
585 15.9964
590 13.2394
595 15.458
600 13.0582
Ex : 233
200 13.9327
205 15.0185
210 11.3089
215 11.1712
220 11.9265
225 8.66516
230 10.4178
235 14.6397
240 10.5444
245 14.6221
250 14.8618
255 13.892
260 12.3377
265 12.189
270 12.005
275 11.3485
280 11.1062
285 15.9636
290 11.2763
295 12.4477
300 12.7534
305 12.4323
310 14.0866
315 10.1041
320 10.8895
325 13.4827
330 13.7497
335 10.4586
340 9.44891
345 12.6569
350 13.4978
355 9.77298
360 10.9453
365 11.4696
370 10.6821
375 12.0332
380 12.2295
385 14.663
390 12.1627
395 11.1936
400 9.30637
405 13.0228
410 15.8595
415 14.2471
420 11.6108
425 12.3432
430 12.5618
435 18.5543
440 11.3345
445 14.2005
450 12.8787
455 12.5616
460 10.6713
465 13.3668
470 16.0304
475 15.3926
480 13.9594
485 13.2439
490 12.4604
495 12.9342
500 14.0214
505 17.2154
510 9.76946
515 11.4523
520 14.3329
525 10.6394
530 14.0696
535 14.1706
540 11.96
545 14.6127
550 11.1671
555 16.7253
560 14.8467
565 16.3161
570 12.8056
575 12.1707
580 11.738
585 13.5155
590 10.9409
595 9.06977
600 8.8307
Ex : 238
200 11.6
205 9.84211
210 11.0147
215 9.79501
220 10.8922
225 10.3213
230 12.8339
235 11.8521
240 9.4358
245 12.2422
250 11.4368
255 13.7269
260 11.0088
265 11.2292
270 9.29533
275 9.38731
280 10.4426
285 11.7592
290 8.80551
295 9.93193
300 10.9338
305 9.99132
310 10.0361
315 10.1924
320 11.6055
325 8.86251
330 8.57648
335 11.4369
340 10.5686
345 12.4691
350 10.6943
355 9.75607
360 8.79967
365 11.6735
370 14.1069
375 10.2056
380 9.63987
385 11.3649
390 12.3103
395 10.2932
400 11.085
405 11.5414
410 9.85681
415 10.5944
420 12.3513
425 12.1731
430 9.8181
435 10.8144
440 11.801
445 13.2385
450 13.2776
455 12.2676
460 10.4659
465 13.5464
470 9.46079
475 12.5552
480 11.0764
485 11.0354
490 9.19894
495 9.15085
500 12.2954
505 14.0071
510 8.26422
515 10.0095
520 9.75055
525 14.056
530 12.4518
535 14.1962
540 10.7302
545 10.7042
550 11.9633
555 9.05677
560 12.0137
565 11.8395
570 12.0079
575 12.1537
580 9.99242
585 11.2636
590 10.2801
595 10.6
600 6.67116
Ex : 243
200 9.98851
205 10.7103
210 7.85266
215 7.98659
220 8.58503
225 7.77898
230 8.86764
235 9.25609
240 9.98157
245 9.00292
250 11.2858
255 6.12302
260 11.6153
265 10.1704
270 9.75556
275 9.57581
280 8.44946
285 10.8945
290 10.4232
295 12.4071
300 7.73615
305 7.33124
310 9.36355
315 8.81397
320 9.03547
325 9.40981
330 7.08386
335 9.56565
340 8.30476
345 10.5918
350 12.9193
355 11.1862
360 11.9074
365 9.402
370 7.75377
375 11.2961
380 6.86755
385 9.72441
390 11.9369
395 9.64097
400 9.60197
405 8.47339
410 9.27892
415 10.1808
420 10.0735
425 11.2189
430 10.132
435 13.1399
440 12.4069
445 11.5451
450 9.76249
455 9.48959
460 9.25446
465 10.0464
470 7.52591
475 8.25108
480 10.5814
485 9.69773
490 8.6982
495 9.09177
500 9.71341
505 10.4865
510 8.54542
515 8.60742
520 9.80488
525 9.89781
530 10.2009
535 9.90187
540 8.88593
545 9.81616
550 9.64472
555 10.2861
560 11.7626
565 10.1715
570 8.47883
575 10.3171
580 8.84452
585 7.57672
590 8.74475
595 7.57738
600 3.39429
Ex : 248
200 6.81115
205 6.4986
210 7.52634
215 8.768
220 9.96921
225 7.88451
230 5.92741
235 8.9865
240 11.1008
245 6.33876
250 8.86895
255 11.2091
260 8.70051
265 8.39875
270 9.483
275 9.94953
280 9.92524
285 6.61319
290 6.85662
295 8.60608
300 9.46319
305 8.41971
310 7.69609
315 5.548
320 8.19858
325 9.25948
330 10.853
335 8.29836
340 6.4913
345 5.46965
350 9.21029
355 9.24895
360 9.10334
365 8.53519
370 8.09657
375 9.10397
380 8.57009
385 11.0785
390 10.563
395 8.52649
400 10.0546
405 8.20047
410 9.2335
415 8.86007
420 7.97471
425 8.21867
430 8.08206
435 10.3277
440 6.51416
445 7.30448
450 7.59347
455 6.75238
460 7.39964
465 7.29438
470 8.50169
475 9.45328
480 7.42911
485 7.09868
490 7.68217
495 7.96093
500 7.15003
505 7.78443
510 9.07293
515 7.31161
520 6.12545
525 6.88947
530 7.81806
535 6.81268
540 8.79011
545 8.05668
550 7.00057
555 7.33964
560 7.96944
565 7.98844
570 7.39061
575 7.06696
580 7.34761
585 9.87822
590 6.49637
595 7.45428
600 1.29137
Ex : 253
200 6.89231
205 5.55464
210 5.67613
215 5.93181
220 5.77809
225 7.72751
230 5.57472
235 6.33434
240 7.25368
245 4.26142
250 5.74277
255 5.78498
260 7.10864
265 6.78229
270 6.21498
275 6.67633
280 8.04998
285 6.87716
290 7.10403
295 5.39815
300 6.90201
305 4.82599
310 4.60229
315 5.61665
320 8.01194
325 6.84997
330 6.93593
335 6.07778
340 6.74555
345 6.98821
350 7.72562
355 7.86026
360 6.26991
365 7.09819
370 7.2777
375 5.91739
380 7.60412
385 8.15895
390 6.86694
395 7.6153
400 4.74993
405 8.53179
410 6.34557
415 7.35125
420 6.15817
425 7.64491
430 8.44622
435 5.41176
440 6.58769
445 7.09128
450 6.2495
455 6.47811
460 8.08915
465 5.88815
470 6.23023
475 6.17907
480 8.06278
485 7.14332
490 5.21531
495 7.93923
500 6.70216
505 7.83445
510 8.52068
515 7.8878
520 6.31481
525 7.46859
530 6.76454
535 6.92256
540 5.7322
545 5.67412
550 6.16473
555 6.70095
560 6.51173
565 8.0976
570 6.48119
575 6.77494
580 7.1084
585 5.27094
590 5.31885
595 5.83905
600 3.22461
Ex : 258
200 4.76031
205 4.41016
210 4.87815
215 4.93996
220 5.20864
225 3.88713
230 4.84672
235 4.13881
240 5.99245
245 5.87727
250 4.11689
255 6.30135
260 4.5126
265 3.91423
270 5.21186
275 4.85531
280 4.41943
285 5.45074
290 4.34935
295 5.40342
300 6.25452
305 6.55895
310 6.10365
315 6.32436
320 3.58427
325 4.72855
330 6.13592
335 4.76334
340 4.90224
345 4.9568
350 4.81161
355 5.49684
360 5.5983
365 5.62929
370 6.81638
375 5.37759
380 4.4607
385 3.88221
390 4.52986
395 5.43574
400 5.12515
405 4.80413
410 5.24802
415 4.83032
420 3.97609
425 5.04286
430 4.85776
435 5.95828
440 4.93993
445 6.03241
450 6.37747
455 4.67758
460 6.36119
465 5.43695
470 6.01586
475 5.42125
480 5.40905
485 6.4181
490 6.69145
495 3.80845
500 3.70214
505 5.00118
510 5.24151
515 4.25784
520 4.65348
525 3.11862
530 4.90002
535 5.02291
540 5.67381
545 7.24099
550 4.92442
555 5.49508
560 5.2273
565 5.48431
570 4.5477
575 5.29462
580 5.80538
585 4.95254
590 4.96624
595 3.71744
600 0.423031
Ex : 263
200 3.51908
205 3.08082
210 3.06311
215 3.90426
220 3.41287
225 4.57322
230 3.91304
235 3.17709
240 4.53386
245 3.0373
250 4.50148
255 3.90619
260 3.37342
265 4.04748
270 5.32132
275 3.86927
280 3.77399
285 4.05036
290 3.12354
295 3.84091
300 3.04594
305 3.40328
310 4.48906
315 3.34856
320 4.41185
325 5.27422
330 4.7872
335 4.46881
340 4.06131
345 3.78611
350 4.94427
355 5.25202
360 5.36963
365 3.8836
370 3.23618
375 4.67038
380 3.61439
385 4.17665
390 3.59177
395 6.18527
400 4.18537
405 4.7108
410 4.36409
415 4.5921
420 4.03673
425 3.49147
430 4.74875
435 4.61026
440 4.58917
445 4.29226
450 4.68532
455 4.88132
460 3.77889
465 5.56672
470 3.83033
475 4.15928
480 4.30942
485 4.22856
490 4.25511
495 3.92605
500 4.23266
505 3.56125
510 3.86038
515 3.22413
520 4.82358
525 5.44108
530 4.39897
535 5.16056
540 5.11599
545 4.06526
550 3.77083
555 2.6832
560 3.39569
565 3.93123
570 4.60436
575 3.54779
580 2.56178
585 4.22076
590 4.35119
595 4.97473
600 0.774624
Ex : 268
200 2.60739
205 3.5764
210 3.15727
215 2.59324
220 2.29684
225 3.82706
230 3.3996
235 3.60237
240 2.92955
245 3.90478
250 3.20956
255 3.6974
260 4.00652
265 3.53151
270 3.74177
275 2.64762
280 2.58409
285 2.37608
290 3.25405
295 2.85103
300 2.97377
305 2.56955
310 2.88914
315 2.69617
320 3.12028
325 3.21295
330 3.62412
335 2.57869
340 2.76118
345 2.14521
350 2.84393
355 2.83734
360 3.59965
365 3.96279
370 3.15071
375 4.03237
380 3.45399
385 3.50825
390 2.45563
395 3.86621
400 3.86591
405 3.51355
410 3.53886
415 3.63777
420 4.03561
425 4.14031
430 3.6796
435 3.8824
440 2.80256
445 3.073
450 3.21257
455 3.1568
460 3.73115
465 4.53032
470 2.80819
475 4.0119
480 3.3934
485 3.523
490 2.96254
495 2.97923
500 2.96067
505 2.31479
510 3.58642
515 3.12923
520 2.43693
525 3.28381
530 3.42974
535 3.85293
540 3.6042
545 3.21173
550 3.04938
555 3.63204
560 3.14427
565 2.78839
570 3.389
575 3.21501
580 3.36916
585 2.55718
590 2.50079
595 2.47359
600 0.37477
Ex : 273
200 2.38541
205 2.83908
210 2.69244
215 2.42234
220 1.69107
225 2.29425
230 2.62143
235 2.16564
240 2.66766
245 2.80824
250 2.5061
255 2.31477
260 2.60353
265 2.53024
270 2.90138
275 2.57369
280 2.15238
285 3.28431
290 2.52923
295 2.38968
300 2.55688
305 2.67813
310 2.13198
315 2.53907
320 2.57463
325 2.71511
330 2.41051
335 2.56022
340 2.79182
345 2.50525
350 2.49214
355 2.42455
360 2.59128
365 3.57158
370 2.7324
375 2.76822
380 2.85507
385 3.54272
390 2.67362
395 3.36245
400 3.61477
405 2.72762
410 3.1558
415 3.4243
420 3.52385
425 3.84427
430 2.97573
435 2.77443
440 3.45132
445 2.99729
450 2.51562
455 2.19978
460 2.50459
465 2.91677
470 2.73344
475 2.41833
480 2.07215
485 2.80352
490 2.8615
495 2.88176
500 2.41879
505 2.59301
510 2.45264
515 2.69348
520 2.25582
525 2.55713
530 2.74214
535 2.84321
540 3.56347
545 4.08308
550 2.68641
555 2.51952
560 2.5443
565 2.72024
570 2.849
575 2.60594
580 2.13699
585 2.91864
590 3.07776
595 2.46414
600 4.08587
Ex : 278
200 1.80558
205 2.56519
210 2.23975
215 2.15578
220 1.90214
225 2.94851
230 1.74021
235 1.95146
240 2.22918
245 2.31871
250 2.09992
255 1.95572
260 1.99355
265 1.75037
270 1.80984
275 1.78989
280 1.82932
285 1.9339
290 2.37989
295 2.32872
300 1.7222
305 1.90867
310 2.162
315 2.47248
320 1.95538
325 2.42153
330 2.51941
335 1.63914
340 2.44826
345 2.10067
350 2.28605
355 2.17418
360 2.1
365 2.71238
370 2.20984
375 2.22144
380 2.51498
385 2.58432
390 2.21905
395 3.03128
400 2.31649
405 2.05557
410 2.47623
415 2.40854
420 2.45837
425 2.54788
430 2.13721
435 2.55917
440 2.18161
445 2.34561
450 2.21671
455 2.2288
460 2.14841
465 2.0004
470 2.46112
475 2.70517
480 2.2781
485 2.4713
490 2.59646
495 2.25448
500 1.49922
505 2.20448
510 1.94757
515 2.20881
520 2.25497
525 1.98025
530 2.41413
535 2.11396
540 1.75729
545 2.17435
550 2.94569
555 2.3248
560 2.244
565 2.1932
570 2.337
575 1.95455
580 1.83523
585 1.65559
590 2.11651
595 1.33875
600 0.595446
Ex : 283
200 2.01285
205 1.94355
210 2.17187
215 1.55552
220 1.95879
225 1.85617
230 2.79838
235 1.77692
240 1.68483
245 1.7138
250 1.90673
255 2.17055
260 1.65318
265 1.79278
270 1.50181
275 1.76327
280 1.85922
285 1.80639
290 1.80385
295 1.78966
300 1.47115
305 1.54653
310 1.98459
315 1.41603
320 1.33454
325 1.42221
330 2.51004
335 2.24179
340 1.60202
345 1.50931
350 1.96833
355 1.52314
360 1.84947
365 1.74065
370 2.09725
375 2.1955
380 2.04667
385 2.49304
390 2.15251
395 2.68244
400 1.90554
405 2.00074
410 2.0806
415 2.57338
420 1.95764
425 2.40198
430 2.4253
435 2.45011
440 2.08716
445 2.34414
450 1.42528
455 1.78728
460 1.72768
465 1.80899
470 1.75352
475 1.54338
480 2.07867
485 1.52567
490 2.09824
495 2.22417
500 1.82439
505 1.96044
510 1.66674
515 1.76849
520 1.54015
525 1.87144
530 2.07492
535 1.54807
540 2.23591
545 1.96819
550 1.95465
555 1.80535
560 2.27803
565 2.18222
570 1.74231
575 1.40936
580 2.28646
585 2.29226
590 3.00791
595 1.9299
600 1.17967
Ex : 288
200 1.95115
205 1.29921
210 1.07128
215 1.28541
220 1.47438
225 1.0251
230 1.41584
235 1.57176
240 1.85911
245 1.27175
250 1.42007
255 1.65058
260 1.31705
265 1.72912
270 1.47539
275 1.64749
280 1.95747
285 1.60467
290 1.12508
295 1.48982
300 1.16827
305 1.27901
310 1.3669
315 1.41088
320 1.00269
325 1.206
330 1.92801
335 1.44463
340 1.49515
345 1.49848
350 1.69617
355 1.87406
360 1.58263
365 1.60937
370 1.46419
375 2.07544
380 2.10024
385 1.85076
390 1.80227
395 1.70686
400 2.20763
405 1.68282
410 2.10181
415 2.0636
420 1.97452
425 2.31953
430 2.33466
435 1.652
440 2.26453
445 2.11331
450 1.96817
455 1.88475
460 1.66804
465 1.584
470 1.66269
475 1.75335
480 1.6477
485 1.81028
490 1.41564
495 1.18086
500 1.25813
505 1.08936
510 1.47763
515 1.75531
520 1.20053
525 1.55152
530 1.50853
535 1.62699
540 1.81617
545 1.25576
550 1.33585
555 1.68193
560 1.45594
565 1.60522
570 1.95653
575 1.72523
580 1.74574
585 1.35617
590 1.38149
595 1.23757
600 0.181113
Ex : 293
200 1.10685
205 1.10544
210 1.1222
215 1.11402
220 1.14102
225 1.01853
230 1.072
235 1.60024
240 1.08655
245 1.02514
250 1.11218
255 1.13342
260 0.91376
265 0.9906
270 1.12524
275 1.28932
280 1.29501
285 1.2547
290 1.30768
295 0.919439
300 1.18896
305 1.52513
310 1.35102
315 1.08646
320 1.39799
325 0.843842
330 1.41825
335 1.42036
340 1.27713
345 1.05592
350 1.30025
355 1.46528
360 1.33298
365 1.75902
370 1.80113
375 1.68142
380 1.80183
385 1.60376
390 1.64547
395 1.86589
400 1.86677
405 1.77015
410 1.68899
415 2.04883
420 1.70177
425 1.76659
430 1.40503
435 2.04046
440 2.02116
445 1.78427
450 1.79564
455 1.4607
460 1.4818
465 1.80377
470 1.50628
475 1.79841
480 1.35958
485 1.27812
490 1.32197
495 1.88736
500 1.53744
505 1.22214
510 1.23439
515 1.28212
520 1.07825
525 1.11173
530 1.31664
535 1.30231
540 1.40686
545 1.14211
550 1.2132
555 0.800016
560 1.2431
565 1.32694
570 1.40708
575 1.17494
580 1.53256
585 1.52402
590 1.2407
595 1.42149
600 0.324532
Ex : 298
200 1.11331
205 1.23868
210 1.07507
215 1.06862
220 1.00274
225 0.983821
230 0.791573
235 1.07862
240 1.09544
245 0.893284
250 0.956464
255 1.00618
260 1.06301
265 1.01404
270 1.09503
275 1.22921
280 1.00054
285 0.854782
290 1.07583
295 0.88327
300 1.03264
305 1.10764
310 1.3888
315 1.05769
320 1.07972
325 1.0264
330 1.43185
335 1.075
340 1.08766
345 0.931631
350 1.22
355 1.45882
360 1.23575
365 1.0826
370 1.10496
375 1.19851
380 1.25853
385 1.58614
390 1.57445
395 1.23966
400 1.53048
405 1.62255
410 1.47438
415 1.21282
420 1.76568
425 1.39091
430 1.46148
435 1.69572
440 1.40034
445 1.45552
450 1.68607
455 1.84503
460 1.34561
465 1.20794
470 1.49517
475 1.48082
480 1.3118
485 1.32487
490 1.2137
495 1.09346
500 1.12761
505 1.14955
510 1.21618
515 1.21809
520 0.992859
525 1.52745
530 1.18667
535 1.05929
540 0.760981
545 1.2813
550 1.01271
555 1.52813
560 1.34989
565 1.22217
570 0.848331
575 1.0614
580 1.16635
585 1.28619
590 1.77035
595 1.30352
600 1.61057
Ex : 303
200 0.949033
205 0.909092
210 0.896818
215 0.766156
220 0.861441
225 0.874245
230 0.864615
235 0.795097
240 0.840658
245 0.85052
250 1.08595
255 1.00853
260 0.768436
265 0.914925
270 0.876613
275 0.816561
280 1.11979
285 0.822385
290 0.826129
295 0.853523
300 1.17886
305 0.873747
310 0.812477
315 1.00943
320 0.867604
325 1.14988
330 1.15044
335 1.02468
340 1.11023
345 0.866844
350 1.00201
355 1.24899
360 0.921536
365 1.28742
370 1.10461
375 1.18656
380 1.38196
385 1.33981
390 1.41437
395 1.70322
400 1.3198
405 1.81332
410 1.33219
415 1.37427
420 1.38702
425 1.05154
430 1.47179
435 1.08666
440 1.33726
445 1.27293
450 1.21361
455 1.24719
460 1.14882
465 1.42916
470 1.21617
475 1.03686
480 1.06304
485 0.787823
490 0.833092
495 1.05446
500 1.04958
505 0.823391
510 1.04151
515 0.851963
520 0.938326
525 0.939234
530 0.950615
535 0.878802
540 0.948865
545 1.31661
550 1.0675
555 0.792169
560 0.886748
565 0.861496
570 0.88794
575 0.983122
580 0.932737
585 0.818041
590 1.20186
595 1.2131
600 0.138046
Ex : 308
200 0.861705
205 1.01059
210 0.80727
215 0.827845
220 0.80024
225 0.695344
230 0.97062
235 0.8939
240 0.819628
245 1.07665
250 0.828337
255 1.101
260 0.788619
265 0.983196
270 0.980303
275 0.966722
280 0.842858
285 0.761258
290 0.720149
295 0.766706
300 0.931066
305 1.04425
310 0.725007
315 0.73847
320 0.92821
325 0.880778
330 1.0909
335 0.847403
340 0.820876
345 1.38259
350 0.995476
355 1.28362
360 0.86691
365 1.0024
370 1.0872
375 1.18461
380 1.12786
385 1.44099
390 1.32049
395 1.09214
400 1.36424
405 1.24084
410 1.28737
415 1.29095
420 1.39427
425 1.21682
430 1.51577
435 1.44648
440 1.22833
445 1.38213
450 1.23291
455 1.28738
460 1.41084
465 1.2169
470 1.08623
475 1.29245
480 1.09616
485 1.31858
490 1.03069
495 0.949986
500 0.824891
505 1.03912
510 1.00944
515 0.912426
520 0.836045
525 0.925556
530 0.919213
535 0.838814
540 0.867139
545 0.864591
550 1.15131
555 0.783527
560 0.883738
565 0.997316
570 0.762706
575 0.595139
580 0.75331
585 0.739299
590 0.789191
595 0.681255
600 1.03462
Ex : 313
200 0.789127
205 0.696977
210 0.85401
215 0.795968
220 0.798659
225 0.733547
230 0.643858
235 0.87178
240 0.841337
245 0.770026
250 0.583743
255 0.780253
260 0.763702
265 0.66513
270 0.658647
275 0.748055
280 0.608536
285 0.591424
290 0.680357
295 0.840124
300 0.731637
305 0.920391
310 0.886553
315 0.733889
320 0.879103
325 0.883412
330 0.949445
335 0.962115
340 1.16686
345 1.11082
350 1.0865
355 1.12694
360 1.03653
365 1.26699
370 1.47312
375 1.32404
380 1.75824
385 2.092
390 1.86889
395 1.95036
400 2.10264
405 2.14203
410 2.12958
415 2.11473
420 2.06046
425 2.08638
430 2.07659
435 1.82032
440 1.85473
445 1.65583
450 2.04803
455 1.36532
460 1.76446
465 1.64746
470 1.23274
475 1.36505
480 1.50506
485 1.31959
490 1.21522
495 0.990028
500 0.946462
505 1.04449
510 0.964078
515 0.963054
520 0.970832
525 0.934482
530 0.835052
535 0.625914
540 0.780043
545 0.809778
550 0.907487
555 0.676752
560 0.974474
565 0.861096
570 0.941689
575 0.726645
580 0.758066
585 0.633583
590 0.697163
595 0.716164
600 0.264849
Ex : 318
200 0.597627
205 0.946326
210 0.77317
215 0.61454
220 0.753387
225 0.576884
230 0.596789
235 0.608313
240 0.61458
245 0.477493
250 0.612782
255 0.737012
260 0.692748
265 0.677894
270 0.797292
275 0.616204
280 0.584393
285 0.655483
290 0.6201
295 0.461927
300 0.601596
305 0.46945
310 0.79575
315 1.30041
320 1.21022
325 1.07883
330 1.347
335 1.92768
340 2.13655
345 3.1208
350 3.94443
355 4.86076
360 5.36137
365 6.67002
370 8.04055
375 9.16589
380 10.7603
385 11.781
390 12.8798
395 13.3341
400 13.7234
405 15.0769
410 14.8852
415 14.2612
420 14.6008
425 13.8164
430 13.7732
435 13.1676
440 12.2757
445 11.9221
450 11.0174
455 10.8696
460 10.0275
465 9.15252
470 8.70512
475 7.81993
480 6.94663
485 6.30706
490 6.04287
495 5.29578
500 4.82289
505 3.86995
510 3.68002
515 2.97549
520 2.90014
525 2.84457
530 2.59407
535 2.18916
540 1.97226
545 1.81889
550 1.80814
555 1.60397
560 1.26927
565 1.09489
570 1.18892
575 0.852877
580 0.932624
585 1.07565
590 0.804881
595 0.730406
600 0.433906
Ex : 323
200 0.797572
205 0.57735
210 0.672476
215 0.700587
220 0.516248
225 0.552797
230 0.486777
235 0.559575
240 0.52548
245 0.684955
250 0.773135
255 0.819615
260 0.612435
265 0.55288
270 0.429539
275 0.56101
280 0.737214
285 0.602943
290 0.480893
295 0.570823
300 0.606845
305 0.698376
310 0.752964
315 3.65068
320 13.5184
325 5.98967
330 2.86041
335 4.03359
340 5.16094
345 7.55549
350 11.0819
355 14.1442
360 17.4392
365 21.0525
370 24.5953
375 28.1035
380 31.1191
385 34.622
390 38.6398
395 40.8537
400 43.2334
405 43.3685
410 45.542
415 44.7896
420 43.697
425 42.2962
430 39.947
435 38.5336
440 36.3268
445 35.427
450 34.1174
455 32.2848
460 28.9688
465 27.9265
470 24.632
475 22.9497
480 21.2295
485 19.3054
490 16.7438
495 15.2384
500 13.9472
505 11.6767
510 10.621
515 9.38124
520 8.13584
525 7.55704
530 6.52402
535 5.53177
540 4.5459
545 4.3794
550 3.64129
555 3.34232
560 2.97194
565 2.55469
570 2.31995
575 1.67698
580 1.70255
585 1.56838
590 1.02525
595 1.09214
600 0.79714
Ex : 328
200 0.493003
205 0.604074
210 0.593687
215 0.572477
220 0.582799
225 0.522174
230 0.536978
235 0.483142
240 0.408276
245 0.557491
250 0.553616
255 0.51955
260 0.583349
265 0.562628
270 0.626819
275 0.563228
280 0.52336
285 0.517733
290 0.621335
295 0.580545
300 0.567794
305 0.645931
310 0.607812
315 1.31042
320 26.4363
325 58.1617
330 19.4441
335 6.29462
340 5.90565
345 7.96198
350 10.0263
355 14.156
360 19.4191
365 22.2722
370 24.2842
375 28.1769
380 31.153
385 35.5255
390 37.8089
395 41.2486
400 42.1381
405 42.9026
410 42.8576
415 42.5383
420 41.8579
425 40.2708
430 38.7334
435 38.4835
440 35.3777
445 33.7097
450 32.6192
455 30.3455
460 28.4536
465 26.4486
470 24.2418
475 22.5242
480 20.4315
485 18.548
490 16.7581
495 14.7762
500 13.7477
505 12.5222
510 10.949
515 9.85856
520 8.87326
525 7.34923
530 6.93189
535 6.32321
540 5.52016
545 4.65929
550 4.49707
555 3.94433
560 3.20784
565 3.17971
570 2.54386
575 2.36554
580 1.81677
585 1.33298
590 1.38558
595 1.11505
600 1.22357
Ex : 333
200 0.59233
205 0.389215
210 0.543848
215 0.488966
220 0.470572
225 0.515909
230 0.451825
235 0.474989
240 0.439969
245 0.604914
250 0.548379
255 0.568031
260 0.552594
265 0.427675
270 0.47806
275 0.647547
280 0.467776
285 0.483373
290 0.443617
295 0.516931
300 0.614183
305 0.482345
310 0.515223
315 0.54592
320 3.93482
325 65.7433
330 112.797
335 31.5923
340 7.3809
345 5.83422
350 6.74441
355 7.78701
360 10.9024
365 16.391
370 17.3047
375 17.4601
380 18.1555
385 20.7787
390 22.9881
395 25.3003
400 25.4119
405 26.5485
410 26.1834
415 26.2499
420 25.6798
425 24.2687
430 23.6245
435 22.5128
440 22.4226
445 20.7064
450 19.5698
455 18.2141
460 17.0281
465 16.1759
470 15.0377
475 13.8508
480 13.1342
485 12.2536
490 10.9109
495 10.2342
500 9.63216
505 8.59614
510 7.72019
515 6.97858
520 6.61375
525 5.95714
530 5.60811
535 4.77695
540 4.61497
545 3.85433
550 3.40573
555 3.12992
560 2.96656
565 2.44799
570 2.08634
575 1.90354
580 1.57973
585 1.36007
590 1.14303
595 1.00359
600 1.35764
Ex : 338
200 0.641164
205 0.413591
210 0.363864
215 0.565711
220 0.383248
225 0.427204
230 0.454489
235 0.400898
240 0.43
245 0.441439
250 0.447642
255 0.441281
260 0.536844
265 0.37533
270 0.394746
275 0.385711
280 0.338099
285 0.54426
290 0.399579
295 0.495108
300 0.50979
305 0.436824
310 0.435857
315 0.652343
320 0.560651
325 6.71812
330 97.078
335 142.698
340 36.7677
345 7.22861
350 4.77316
355 4.6579
360 4.77409
365 7.31181
370 12.3509
375 13.0988
380 12.6987
385 13.6173
390 14.7362
395 16.6355
400 16.835
405 16.9733
410 17.0161
415 17.9813
420 17.6141
425 16.6232
430 15.3121
435 15.6423
440 14.5603
445 13.8986
450 12.9498
455 12.308
460 11.7767
465 10.8981
470 10.7083
475 10.2961
480 9.03495
485 8.97815
490 8.82944
495 7.56734
500 6.97585
505 6.81606
510 6.28858
515 5.83336
520 5.38052
525 5.12328
530 4.47141
535 4.02349
540 3.54979
545 3.57583
550 3.34982
555 3.02831
560 2.55802
565 2.32965
570 2.06052
575 1.74868
580 1.52644
585 1.4694
590 1.2293
595 1.021
600 1.24123
Ex : 343
200 0.462306
205 0.440897
210 0.507814
215 0.448131
220 0.379321
225 0.444535
230 0.582003
235 0.534355
240 0.401613
245 0.42003
250 0.531966
255 0.541939
260 0.483956
265 0.4212
270 0.387443
275 0.454036
280 0.466709
285 0.436889
290 0.463278
295 0.511654
300 0.323052
305 0.479589
310 0.613472
315 0.498508
320 0.556002
325 0.635505
330 8.03332
335 107.931
340 156.238
345 39.6611
350 6.97564
355 3.84585
360 3.74112
365 4.13244
370 5.50285
375 9.67276
380 11.9629
385 12.463
390 13.3509
395 13.4702
400 13.4253
405 13.7586
410 15.2695
415 15.3973
420 15.0602
425 14.0908
430 13.1833
435 13.0364
440 13.0133
445 12.6296
450 11.478
455 11.1483
460 10.8102
465 10.0366
470 9.54473
475 9.37778
480 8.82364
485 8.03426
490 7.84662
495 7.8405
500 6.93407
505 6.25475
510 6.09352
515 5.55753
520 5.20321
525 4.66178
530 4.4232
535 4.02811
540 3.79441
545 3.48848
550 3.31125
555 2.75323
560 2.46765
565 2.42041
570 1.94988
575 1.58903
580 1.66075
585 1.22023
590 1.03692
595 0.999938
600 1.07042
Ex : 348
200 0.380429
205 0.443916
210 0.377728
215 0.481837
220 0.387935
225 0.390921
230 0.560873
235 0.428665
240 0.35543
245 0.339701
250 0.354237
255 0.388399
260 0.402788
265 0.312853
270 0.449848
275 0.498177
280 0.340026
285 0.328544
290 0.404416
295 0.398647
300 0.469234
305 0.493332
310 0.324029
315 0.374171
320 0.387426
325 0.448312
330 0.553502
335 7.97266
340 107.281
345 161.412
350 42.4777
355 6.8339
360 3.6323
365 3.70154
370 3.60295
375 4.60326
380 8.98921
385 13.9662
390 15.1661
395 15.1752
400 14.0115
405 14.8621
410 16.2166
415 17.0086
420 16.4389
425 14.8172
430 14.3292
435 13.4744
440 13.046
445 12.9446
450 11.756
455 11.0499
460 10.7912
465 10.2782
470 9.98219
475 9.51322
480 8.61727
485 9.03291
490 8.03927
495 7.89671
500 7.38024
505 6.91068
510 6.44126
515 5.74121
520 5.33228
525 5.03258
530 4.72248
535 4.04795
540 3.8177
545 3.5423
550 3.15094
555 2.93146
560 2.50367
565 2.45057
570 1.96239
575 1.63905
580 1.40238
585 1.1783
590 1.13837
595 1.04696
600 0.957584
Ex : 353
200 0.359567
205 0.333118
210 0.397747
215 0.385665
220 0.284154
225 0.312933
230 0.384664
235 0.399576
240 0.313028
245 0.380766
250 0.376478
255 0.452626
260 0.358019
265 0.382116
270 0.367223
275 0.375394
280 0.349794
285 0.390085
290 0.36068
295 0.301491
300 0.30084
305 0.415419
310 0.442942
315 0.474844
320 0.437166
325 0.394017
330 0.371396
335 0.509678
340 7.73875
345 110.555
350 160.42
355 40.9065
360 6.60277
365 3.50204
370 3.74919
375 3.81865
380 5.08552
385 10.7454
390 16.6825
395 18.0887
400 15.87
405 15.0677
410 16.277
415 17.7319
420 16.733
425 15.3846
430 13.7421
435 14.3239
440 14.0702
445 13.1815
450 12.2241
455 11.4785
460 11.1695
465 10.5681
470 10.0289
475 9.80711
480 9.28274
485 8.80113
490 8.33617
495 7.91828
500 7.51584
505 6.94937
510 6.54808
515 6.21553
520 5.77316
525 5.52134
530 4.61225
535 4.16556
540 3.83652
545 3.62691
550 3.19647
555 2.96325
560 2.68051
565 2.38484
570 2.08066
575 1.69962
580 1.4921
585 1.27422
590 1.04408
595 0.895406
600 0.914247
Ex : 358
200 0.269448
205 0.317301
210 0.301287
215 0.3975
220 0.354698
225 0.360546
230 0.369817
235 0.336935
240 0.427568
245 0.391848
250 0.32858
255 0.374642
260 0.306669
265 0.273499
270 0.312362
275 0.345206
280 0.410701
285 0.369151
290 0.378332
295 0.375585
300 0.28837
305 0.38058
310 0.337654
315 0.439036
320 0.317821
325 0.436377
330 0.391849
335 0.395854
340 0.629466
345 7.75861
350 106.528
355 158.752
360 40.5172
365 6.63439
370 3.51678
375 3.81777
380 4.58034
385 6.7948
390 11.5915
395 17.4595
400 17.0765
405 15.6375
410 15.5562
415 15.7119
420 15.6794
425 13.796
430 13.2201
435 13.1339
440 12.9272
445 13.0503
450 12.1529
455 10.9343
460 10.5955
465 10.3368
470 10.5812
475 9.75559
480 9.67321
485 8.91921
490 8.93842
495 8.26884
500 8.03516
505 7.615
510 6.73908
515 6.62466
520 5.71345
525 5.25882
530 4.9778
535 4.60474
540 4.21439
545 4.042
550 3.355
555 3.13931
560 2.72225
565 2.68136
570 2.23462
575 1.89384
580 1.6168
585 1.29337
590 1.15633
595 0.883772
600 0.810437
Ex : 363
200 0.245398
205 0.306599
210 0.269055
215 0.333741
220 0.252411
225 0.285908
230 0.312883
235 0.298574
240 0.34529
245 0.406939
250 0.385211
255 0.347966
260 0.447154
265 0.419812
270 0.399096
275 0.323934
280 0.317653
285 0.323496
290 0.268313
295 0.33702
300 0.292507
305 0.307722
310 0.35346
315 0.3158
320 0.366198
325 0.361317
330 0.400413
335 0.481942
340 0.519109
345 0.4982
350 6.77537
355 103.007
360 159.791
365 42.344
370 6.88208
375 3.65797
380 4.77359
385 7.9583
390 10.5871
395 13.2856
400 16.6429
405 17.5759
410 18.0292
415 17.1678
420 15.7633
425 14.5122
430 13.6531
435 13.6355
440 13.2062
445 13.0413
450 12.0178
455 11.5533
460 10.9163
465 10.6894
470 10.4732
475 9.84396
480 9.58727
485 9.18961
490 8.77595
495 8.45177
500 8.03678
505 7.49149
510 7.25949
515 6.5692
520 5.87398
525 5.35197
530 4.97922
535 4.68551
540 4.15752
545 3.72762
550 3.47069
555 3.10234
560 2.98757
565 2.5935
570 2.25914
575 1.84196
580 1.70542
585 1.27619
590 1.07647
595 1.04497
600 0.360606
Ex : 368
200 0.2549
205 0.298214
210 0.302876
215 0.250951
220 0.301508
225 0.247371
230 0.403153
235 0.343328
240 0.290408
245 0.34764
250 0.343935
255 0.303884
260 0.297288
265 0.3738
270 0.314008
275 0.27787
280 0.326798
285 0.239097
290 0.332306
295 0.334046
300 0.354253
305 0.3595
310 0.278147
315 0.255312
320 0.30104
325 0.344611
330 0.293163
335 0.330394
340 0.492988
345 0.472026
350 0.529115
355 5.52935
360 99.126
365 161.712
370 44.2267
375 7.39987
380 4.97705
385 8.42274
390 12.6165
395 14.6478
400 14.9735
405 17.8254
410 21.312
415 21.2118
420 19.896
425 16.7219
430 15.1382
435 14.8158
440 15.0579
445 14.0492
450 12.949
455 12.3504
460 11.7984
465 11.4716
470 10.9315
475 10.9571
480 10.3983
485 9.97955
490 9.29547
495 8.90018
500 8.68466
505 8.14159
510 7.56075
515 7.30638
520 6.5786
525 6.27173
530 5.34774
535 4.71394
540 4.50361
545 4.19796
550 3.84835
555 3.29303
560 3.16689
565 2.74712
570 2.25392
575 2.01208
580 1.55349
585 1.30788
590 1.08535
595 0.930811
600 0.907917
Ex : 373
200 0.344702
205 0.252588
210 0.272944
215 0.354069
220 0.299284
225 0.306519
230 0.295335
235 0.289134
240 0.323759
245 0.403315
250 0.320542
255 0.294407
260 0.311915
265 0.323266
270 0.24937
275 0.281384
280 0.275889
285 0.3264
290 0.265671
295 0.293204
300 0.276871
305 0.27063
310 0.291429
315 0.267739
320 0.337464
325 0.38852
330 0.327937
335 0.324526
340 0.290959
345 0.364272
350 0.434986
355 0.481499
360 6.77002
365 99.82
370 160.174
375 43.9278
380 7.98664
385 6.72701
390 12.6522
395 15.3129
400 14.5979
405 14.0423
410 17.6294
415 22.2154
420 21.0308
425 17.7826
430 14.7467
435 14.0165
440 13.9207
445 13.4903
450 12.6083
455 11.8063
460 11.4151
465 11.1606
470 10.9156
475 10.9713
480 10.7009
485 10.1147
490 9.62342
495 9.16321
500 9.12082
505 8.40893
510 7.97998
515 7.37383
520 6.7333
525 6.27731
530 5.66924
535 5.44627
540 4.96204
545 4.50181
550 4.05473
555 3.60136
560 3.28939
565 2.81809
570 2.33414
575 2.02734
580 1.64476
585 1.38345
590 1.26219
595 1.01083
600 0.664172
Ex : 378
200 0.293746
205 0.30169
210 0.280993
215 0.322562
220 0.298334
225 0.321106
230 0.28229
235 0.293236
240 0.291081
245 0.220763
250 0.259504
255 0.333061
260 0.288014
265 0.314866
270 0.258856
275 0.321376
280 0.222011
285 0.320463
290 0.364123
295 0.288619
300 0.318772
305 0.300753
310 0.301125
315 0.291985
320 0.264041
325 0.289972
330 0.380261
335 0.321351
340 0.387575
345 0.34922
350 0.292667
355 0.376696
360 0.564826
365 6.45085
370 102.383
375 164.669
380 45.6568
385 10.1856
390 9.40924
395 11.8516
400 11.364
405 10.683
410 12.3392
415 14.749
420 16.9591
425 15.4935
430 13.4627
435 12.0443
440 11.2172
445 11.1948
450 10.7438
455 10.169
460 10.1479
465 9.88219
470 10.0747
475 10.0855
480 9.67649
485 9.80601
490 9.54658
495 9.30372
500 8.88189
505 8.35295
510 7.88834
515 7.54305
520 7.19919
525 6.78273
530 6.36508
535 5.41947
540 4.71046
545 5.04561
550 4.27503
555 3.69758
560 3.27731
565 3.04613
570 2.49737
575 2.04391
580 1.65932
585 1.40891
590 1.1162
595 1.01679
600 0.534343
Ex : 383
200 0.174773
205 0.235327
210 0.280335
215 0.34211
220 0.234132
225 0.274073
230 0.34436
235 0.301855
240 0.26156
245 0.190306
250 0.258808
255 0.273996
260 0.264025
265 0.337635
270 0.248843
275 0.303252
280 0.226019
285 0.279123
290 0.305848
295 0.239142
300 0.239734
305 0.249849
310 0.255896
315 0.277029
320 0.260654
325 0.274271
330 0.254115
335 0.316565
340 0.380062
345 0.33931
350 0.277699
355 0.322158
360 0.404473
365 0.485534
370 6.01505
375 101.231
380 172.412
385 51.7354
390 13.9835
395 10.6255
400 10.2373
405 10.9904
410 11.5418
415 12.8703
420 12.5118
425 13.9981
430 13.8931
435 12.6485
440 11.67
445 10.8149
450 9.92907
455 9.67523
460 9.92716
465 9.62706
470 9.72095
475 9.88324
480 9.90077
485 9.65828
490 9.45621
495 8.93363
500 9.07033
505 8.4182
510 7.91294
515 7.44359
520 7.13918
525 6.18112
530 6.10111
535 5.28559
540 4.97682
545 4.71159
550 3.99449
555 3.60388
560 3.31199
565 2.74759
570 2.31932
575 2.09957
580 1.68197
585 1.44607
590 1.11866
595 0.980119
600 0.848883
Ex : 388
200 0.267458
205 0.209341
210 0.241703
215 0.284636
220 0.276791
225 0.217154
230 0.329596
235 0.34672
240 0.347714
245 0.290713
250 0.272963
255 0.245479
260 0.206378
265 0.256459
270 0.227516
275 0.285685
280 0.294363
285 0.214515
290 0.270463
295 0.268794
300 0.263286
305 0.270511
310 0.227023
315 0.294924
320 0.320767
325 0.265928
330 0.295726
335 0.246885
340 0.246258
345 0.303784
350 0.270126
355 0.362795
360 0.368468
365 0.395086
370 0.49745
375 6.59227
380 107.781
385 176.79
390 55.5002
395 16.9423
400 11.7464
405 11.8445
410 13.7241
415 14.5162
420 13.6401
425 12.7268
430 13.5735
435 14.4549
440 13.556
445 12.7333
450 11.1325
455 10.4366
460 9.93433
465 9.91386
470 10.2047
475 9.83985
480 9.97597
485 10.1455
490 9.78272
495 9.597
500 9.15508
505 8.64201
510 8.01639
515 7.64368
520 6.9334
525 6.14211
530 5.81234
535 5.34632
540 4.79078
545 4.34237
550 4.12628
555 3.76163
560 3.45835
565 2.9635
570 2.36239
575 2.10802
580 1.6605
585 1.34045
590 1.18538
595 1.01622
600 1.10179
Ex : 393
200 0.221638
205 0.291939
210 0.317433
215 0.240794
220 0.22359
225 0.255567
230 0.227102
235 0.257304
240 0.211614
245 0.211278
250 0.200283
255 0.227579
260 0.232497
265 0.256042
270 0.241007
275 0.202449
280 0.217857
285 0.297812
290 0.256605
295 0.222247
300 0.292298
305 0.260112
310 0.222358
315 0.281476
320 0.261917
325 0.251223
330 0.249261
335 0.269514
340 0.26044
345 0.262403
350 0.338293
355 0.303206
360 0.312253
365 0.386642
370 0.453261
375 0.568128
380 6.25621
385 107.659
390 183.888
395 58.7548
400 16.7348
405 11.3243
410 12.1779
415 14.7536
420 14.5921
425 12.6544
430 10.8969
435 11.9243
440 14.2619
445 13.4305
450 12.1109
455 10.6463
460 9.71765
465 9.56197
470 10.0489
475 9.96695
480 9.81858
485 9.70188
490 9.63889
495 9.70144
500 8.84102
505 8.75836
510 8.16445
515 7.77146
520 7.11353
525 6.46899
530 5.96536
535 5.50927
540 5.12849
545 4.51042
550 4.14311
555 3.89212
560 3.46658
565 2.94773
570 2.61354
575 2.0516
580 1.72403
585 1.34041
590 1.13283
595 0.943563
600 1.36754
Ex : 398
200 0.229787
205 0.253769
210 0.254156
215 0.23438
220 0.24415
225 0.229112
230 0.29649
235 0.295351
240 0.234184
245 0.304089
250 0.247727
255 0.249221
260 0.288
265 0.230348
270 0.28087
275 0.24916
280 0.30368
285 0.239177
290 0.151095
295 0.202072
300 0.252303
305 0.288193
310 0.192039
315 0.241604
320 0.235579
325 0.250812
330 0.209723
335 0.267541
340 0.265518
345 0.238213
350 0.253337
355 0.246328
360 0.219349
365 0.277853
370 0.346926
375 0.45356
380 0.754768
385 7.15342
390 110.911
395 185.142
400 55.0898
405 11.7303
410 7.15623
415 8.57437
420 9.31628
425 8.15805
430 7.17049
435 6.94477
440 8.26919
445 11.0081
450 10.4416
455 9.27191
460 8.94725
465 8.32518
470 8.32399
475 8.87812
480 8.98713
485 9.23051
490 9.16743
495 8.93586
500 8.85777
505 8.50726
510 8.09183
515 7.61693
520 6.98705
525 6.37099
530 6.02622
535 5.56938
540 5.1268
545 4.59434
550 4.03906
555 3.91016
560 3.48014
565 3.08128
570 2.48646
575 2.14813
580 1.74603
585 1.37726
590 1.15737
595 1.01085
600 1.13989
Ex : 403
200 0.252874
205 0.271086
210 0.269016
215 0.218354
220 0.2989
225 0.213083
230 0.200379
235 0.214252
240 0.267933
245 0.202729
250 0.194989
255 0.233826
260 0.26867
265 0.214028
270 0.225239
275 0.209386
280 0.231513
285 0.294552
290 0.252305
295 0.194969
300 0.20773
305 0.177742
310 0.26986
315 0.278264
320 0.190119
325 0.264682
330 0.263305
335 0.234143
340 0.249498
345 0.261919
350 0.271406
355 0.271828
360 0.322298
365 0.302653
370 0.274871
375 0.382019
380 0.430738
385 0.726065
390 7.72955
395 112.186
400 180.366
405 51.0903
410 8.75547
415 4.11731
420 4.13192
425 4.42017
430 3.99278
435 3.86752
440 4.42186
445 5.36381
450 7.57803
455 8.73927
460 7.96989
465 7.93571
470 8.07388
475 8.00426
480 8.22036
485 8.73061
490 8.70163
495 8.59668
500 8.67468
505 8.3192
510 7.89652
515 7.80699
520 7.14482
525 6.53682
530 6.16665
535 5.59187
540 4.92676
545 4.81267
550 4.27962
555 3.84319
560 3.2454
565 2.99166
570 2.47397
575 2.02291
580 1.65012
585 1.34244
590 1.12223
595 1.00929
600 2.87294
Ex : 408
200 0.23908
205 0.228171
210 0.282666
215 0.249771
220 0.260187
225 0.220246
230 0.209737
235 0.213686
240 0.217214
245 0.300342
250 0.258076
255 0.218808
260 0.255295
265 0.227347
270 0.183818
275 0.227191
280 0.251409
285 0.227069
290 0.195598
295 0.206117
300 0.286111
305 0.214672
310 0.168297
315 0.248288
320 0.247517
325 0.229073
330 0.193218
335 0.278586
340 0.24288
345 0.198836
350 0.267493
355 0.256794
360 0.218856
365 0.254543
370 0.3045
375 0.311292
380 0.413567
385 0.420886
390 0.660864
395 6.4736
400 113.196
405 183.896
410 50.2735
415 7.8844
420 3.10288
425 2.81345
430 3.18904
435 3.24623
440 3.52188
445 3.88763
450 4.52331
455 6.80891
460 8.80495
465 8.21562
470 8.17567
475 8.20827
480 8.30771
485 8.3599
490 8.77247
495 8.66523
500 8.59232
505 8.15681
510 7.64143
515 7.55208
520 7.03779
525 6.47213
530 6.02109
535 5.79433
540 5.22304
545 4.93332
550 4.25238
555 3.81471
560 3.47587
565 3.05501
570 2.72725
575 2.3244
580 1.71989
585 1.32472
590 1.19352
595 1.07276
600 0.712879
Ex : 413
200 0.210207
205 0.196101
210 0.179765
215 0.238869
220 0.226373
225 0.283846
230 0.259142
235 0.215263
240 0.278965
245 0.25603
250 0.239482
255 0.218632
260 0.222378
265 0.22464
270 0.20703
275 0.236762
280 0.252063
285 0.188859
290 0.222153
295 0.251745
300 0.162764
305 0.228702
310 0.224021
315 0.235491
320 0.249757
325 0.24823
330 0.213337
335 0.312754
340 0.226102
345 0.215524
350 0.246394
355 0.250747
360 0.233918
365 0.228536
370 0.326963
375 0.256514
380 0.317046
385 0.320135
390 0.412626
395 0.607133
400 7.2245
405 116.448
410 185.303
415 48.811
420 7.53195
425 2.83479
430 2.60292
435 3.02826
440 3.13448
445 3.5265
450 3.88666
455 4.58078
460 6.59422
465 8.90381
470 8.90706
475 8.61314
480 8.73864
485 8.52347
490 8.37535
495 8.58692
500 8.48811
505 8.11068
510 7.92801
515 7.58288
520 7.05205
525 6.75227
530 6.12718
535 5.68521
540 5.16954
545 4.63855
550 4.18014
555 3.83017
560 3.36834
565 2.99044
570 2.64627
575 2.24243
580 1.62895
585 1.36625
590 1.2433
595 0.91767
600 0.923139
Ex : 418
200 0.285951
205 0.213023
210 0.212547
215 0.240055
220 0.215152
225 0.249291
230 0.194249
235 0.266411
240 0.247649
245 0.263906
250 0.287931
255 0.186973
260 0.26975
265 0.26461
270 0.260314
275 0.23757
280 0.256345
285 0.218408
290 0.191253
295 0.265452
300 0.242341
305 0.213314
310 0.220874
315 0.286094
320 0.34641
325 0.244589
330 0.236534
335 0.227362
340 0.256901
345 0.207879
350 0.236096
355 0.288453
360 0.282627
365 0.309984
370 0.237347
375 0.271249
380 0.296876
385 0.279205
390 0.314168
395 0.492737
400 0.492167
405 6.77935
410 118.766
415 191.472
420 52.0047
425 7.73946
430 2.79597
435 2.43642
440 2.90557
445 3.12066
450 3.52976
455 4.02312
460 4.73201
465 6.05198
470 8.5258
475 9.17685
480 8.99733
485 8.71346
490 8.59096
495 7.9297
500 7.99123
505 8.02667
510 7.72825
515 7.22149
520 6.61112
525 6.46207
530 5.87119
535 5.29516
540 5.08968
545 4.78469
550 4.16502
555 3.92987
560 3.45257
565 3.02597
570 2.4562
575 2.03107
580 1.60061
585 1.41367
590 1.13123
595 1.04653
600 1.60581
Ex : 423
200 0.189361
205 0.200546
210 0.243763
215 0.21035
220 0.228671
225 0.219229
230 0.233409
235 0.234014
240 0.166354
245 0.216388
250 0.207045
255 0.234094
260 0.170626
265 0.172533
270 0.210877
275 0.245513
280 0.246369
285 0.241692
290 0.253577
295 0.222127
300 0.214636
305 0.258831
310 0.216649
315 0.255035
320 0.275431
325 0.210265
330 0.245617
335 0.257324
340 0.174823
345 0.250777
350 0.239821
355 0.222206
360 0.294997
365 0.284997
370 0.31268
375 0.270827
380 0.279842
385 0.349441
390 0.320434
395 0.314956
400 0.487436
405 0.594576
410 7.38956
415 124.617
420 190.625
425 49.3431
430 7.32023
435 2.65369
440 2.27131
445 2.98373
450 3.36921
455 3.72835
460 4.09253
465 4.92421
470 5.97288
475 8.21945
480 9.17585
485 8.72429
490 8.70908
495 8.60496
500 7.65169
505 7.58684
510 7.53991
515 7.00967
520 6.43623
525 6.19908
530 5.71532
535 5.29464
540 4.79811
545 4.48585
550 4.15182
555 3.79689
560 3.20795
565 2.72052
570 2.50871
575 2.16093
580 1.76741
585 1.36613
590 1.13898
595 1.02888
600 1.01197
Ex : 428
200 0.241655
205 0.240491
210 0.219251
215 0.231738
220 0.237599
225 0.293078
230 0.219162
235 0.266224
240 0.268457
245 0.244433
250 0.200409
255 0.318874
260 0.255369
265 0.212097
270 0.266671
275 0.207672
280 0.23317
285 0.206937
290 0.30595
295 0.202253
300 0.247487
305 0.210766
310 0.242687
315 0.248287
320 0.214437
325 0.212216
330 0.204646
335 0.237251
340 0.330809
345 0.234316
350 0.298004
355 0.275013
360 0.311082
365 0.288693
370 0.218608
375 0.240148
380 0.245677
385 0.257561
390 0.314598
395 0.40918
400 0.360865
405 0.44754
410 0.511516
415 7.78509
420 125.695
425 198.666
430 53.1757
435 7.72502
440 2.62607
445 2.30939
450 3.08243
455 3.49681
460 4.00627
465 4.41724
470 5.16476
475 6.12511
480 8.03954
485 9.31477
490 8.65023
495 8.26424
500 8.02978
505 7.57136
510 7.27978
515 6.41517
520 6.30301
525 5.80831
530 5.4945
535 5.27079
540 4.79146
545 4.38319
550 4.07465
555 3.63207
560 3.43829
565 2.71453
570 2.226
575 2.01864
580 1.71443
585 1.49237
590 1.06597
595 0.983455
600 0.402906
Ex : 433
200 0.260785
205 0.332675
210 0.281323
215 0.232925
220 0.257819
225 0.191712
230 0.202208
235 0.237824
240 0.253784
245 0.244527
250 0.301352
255 0.232036
260 0.228201
265 0.240962
270 0.237548
275 0.276114
280 0.250952
285 0.254036
290 0.201016
295 0.327127
300 0.203664
305 0.216908
310 0.224916
315 0.23147
320 0.278258
325 0.212067
330 0.324681
335 0.324853
340 0.285655
345 0.252017
350 0.297685
355 0.287231
360 0.308149
365 0.284145
370 0.261035
375 0.234431
380 0.329291
385 0.306246
390 0.302715
395 0.28275
400 0.254975
405 0.402565
410 0.438296
415 0.594719
420 8.82198
425 139.844
430 203.9
435 52.3625
440 7.60961
445 2.86413
450 2.42777
455 3.17309
460 3.78385
465 4.09947
470 4.46818
475 5.15341
480 5.71079
485 6.90017
490 8.63326
495 8.51635
500 7.83067
505 7.41267
510 6.79087
515 6.08267
520 5.78638
525 5.37521
530 5.08955
535 4.66486
540 4.49121
545 4.12003
550 3.88806
555 3.44694
560 2.98219
565 2.59042
570 2.27035
575 2.01571
580 1.71963
585 1.27027
590 1.14964
595 0.862887
600 0.62871
Ex : 438
200 0.229478
205 0.250117
210 0.267305
215 0.27657
220 0.258714
225 0.235972
230 0.210238
235 0.20652
240 0.24808
245 0.259948
250 0.262547
255 0.27132
260 0.319134
265 0.254352
270 0.27193
275 0.319259
280 0.240204
285 0.170645
290 0.240898
295 0.253644
300 0.221802
305 0.273672
310 0.287302
315 0.28404
320 0.303333
325 0.240247
330 0.279974
335 0.215468
340 0.192607
345 0.282592
350 0.289828
355 0.287347
360 0.191939
365 0.182618
370 0.297038
375 0.251125
380 0.274961
385 0.237957
390 0.283853
395 0.265089
400 0.29109
405 0.271713
410 0.348689
415 0.423648
420 0.578818
425 8.92998
430 139.565
435 218.323
440 55.4402
445 8.17222
450 2.97561
455 2.55624
460 3.43039
465 3.93172
470 4.1919
475 4.81027
480 5.20807
485 5.47222
490 6.09008
495 8.039
500 8.20143
505 7.2661
510 6.67177
515 6.01146
520 5.38415
525 4.86768
530 4.67859
535 4.39697
540 4.03386
545 3.74899
550 3.39999
555 3.32393
560 2.67023
565 2.61801
570 2.17555
575 1.79859
580 1.72986
585 1.22876
590 1.00653
595 0.74788
600 0.6769
Ex : 443
200 0.250326
205 0.242518
210 0.2025
215 0.236066
220 0.254548
225 0.269926
230 0.245616
235 0.232487
240 0.23719
245 0.240603
250 0.250874
255 0.180954
260 0.25053
265 0.277096
270 0.228
275 0.169224
280 0.29067
285 0.266706
290 0.221869
295 0.220063
300 0.224729
305 0.211217
310 0.281773
315 0.267002
320 0.275773
325 0.331466
330 0.282454
335 0.358975
340 0.27548
345 0.255234
350 0.258391
355 0.332435
360 0.22136
365 0.291116
370 0.292576
375 0.250728
380 0.224566
385 0.314052
390 0.313663
395 0.266047
400 0.239043
405 0.328542
410 0.277488
415 0.353081
420 0.469044
425 0.624132
430 9.91896
435 148.868
440 221.105
445 56.5536
450 8.30336
455 3.16349
460 2.80013
465 3.27955
470 4.00849
475 4.51866
480 4.6328
485 4.7135
490 4.93815
495 5.49677
500 7.01204
505 7.64321
510 6.35526
515 5.88381
520 5.28079
525 4.8456
530 4.46334
535 4.11873
540 3.84136
545 3.54782
550 3.19055
555 2.92701
560 2.64093
565 2.35359
570 1.92702
575 1.71913
580 1.42039
585 1.14431
590 0.998792
595 0.88347
600 0.286303
Ex : 448
200 0.27865
205 0.20154
210 0.258212
215 0.247268
220 0.192749
225 0.203779
230 0.263648
235 0.273054
240 0.309005
245 0.259087
250 0.209527
255 0.205336
260 0.207819
265 0.240427
270 0.226327
275 0.221907
280 0.241583
285 0.262476
290 0.272098
295 0.245255
300 0.225463
305 0.268075
310 0.216056
315 0.245046
320 0.258757
325 0.215315
330 0.186824
335 0.207435
340 0.256828
345 0.289565
350 0.251146
355 0.224565
360 0.261895
365 0.224427
370 0.296469
375 0.27
380 0.281665
385 0.249516
390 0.217526
395 0.296711
400 0.266892
405 0.308333
410 0.294731
415 0.367159
420 0.314922
425 0.43539
430 0.612017
435 9.99683
440 157.972
445 234.15
450 59.1815
455 8.67563
460 3.26185
465 2.85876
470 3.33485
475 4.03961
480 4.13043
485 4.39015
490 4.32397
495 4.61146
500 4.56436
505 5.29858
510 6.44567
515 5.95748
520 5.04893
525 4.60737
530 4.39413
535 3.6267
540 3.32508
545 3.1628
550 2.93298
555 2.815
560 2.48592
565 2.05355
570 1.74965
575 1.57003
580 1.32632
585 1.18716
590 0.937364
595 0.773694
600 0.890133
Ex : 453
200 0.2678
205 0.202807
210 0.284382
215 0.281176
220 0.305327
225 0.248176
230 0.251331
235 0.238688
240 0.313642
245 0.270955
250 0.213173
255 0.222034
260 0.276106
265 0.277664
270 0.278074
275 0.255617
280 0.240461
285 0.279051
290 0.218556
295 0.20914
300 0.219541
305 0.276821
310 0.254408
315 0.219137
320 0.284926
325 0.243509
330 0.241626
335 0.213438
340 0.261758
345 0.210565
350 0.267805
355 0.266682
360 0.245785
365 0.243703
370 0.283699
375 0.30428
380 0.218087
385 0.292407
390 0.253369
395 0.252036
400 0.2542
405 0.316698
410 0.297311
415 0.327726
420 0.410544
425 0.43798
430 0.472834
435 0.540121
440 10.3684
445 166.815
450 239.217
455 57.4664
460 8.51421
465 3.21035
470 2.76206
475 3.10906
480 3.63184
485 3.86755
490 3.81984
495 3.79272
500 3.84764
505 3.85702
510 4.32012
515 5.75027
520 5.30458
525 4.45835
530 4.19583
535 3.92004
540 3.2638
545 2.95569
550 2.67206
555 2.47772
560 2.44132
565 2.08366
570 1.83896
575 1.54074
580 1.20745
585 1.05826
590 0.853661
595 0.777271
600 0.926056
Ex : 458
200 0.226585
205 0.237931
210 0.263283
215 0.266116
220 0.311928
225 0.224435
230 0.193468
235 0.268333
240 0.287057
245 0.268007
250 0.258046
255 0.243572
260 0.282228
265 0.21262
270 0.24348
275 0.223426
280 0.221547
285 0.29294
290 0.208669
295 0.257558
300 0.21114
305 0.226784
310 0.222655
315 0.179441
320 0.205705
325 0.257655
330 0.195138
335 0.206291
340 0.294736
345 0.294967
350 0.284313
355 0.230957
360 0.315275
365 0.242334
370 0.276684
375 0.348347
380 0.258497
385 0.257462
390 0.243178
395 0.281127
400 0.293079
405 0.301812
410 0.405412
415 0.293422
420 0.305021
425 0.385158
430 0.403398
435 0.497663
440 0.730605
445 11.4859
450 171.519
455 249.69
460 61.5341
465 9.08279
470 3.31506
475 2.6123
480 2.89366
485 3.2854
490 3.5221
495 3.26064
500 3.36064
505 3.34181
510 3.3498
515 3.547
520 4.6427
525 5.23872
530 4.24933
535 3.63086
540 3.386
545 2.84501
550 2.60089
555 2.51949
560 2.02239
565 2.03942
570 1.74474
575 1.39627
580 1.28371
585 1.02351
590 0.820327
595 0.781887
600 0.432787
Ex : 463
200 0.208199
205 0.239273
210 0.274157
215 0.249781
220 0.23193
225 0.220728
230 0.242405
235 0.265464
240 0.244646
245 0.208498
250 0.270128
255 0.316702
260 0.246211
265 0.285746
270 0.23084
275 0.252569
280 0.226632
285 0.204216
290 0.2669
295 0.228994
300 0.254739
305 0.253857
310 0.232696
315 0.236827
320 0.22074
325 0.272249
330 0.244626
335 0.241499
340 0.223409
345 0.250819
350 0.262017
355 0.219077
360 0.181813
365 0.265088
370 0.281088
375 0.249598
380 0.30024
385 0.25645
390 0.259185
395 0.264716
400 0.262855
405 0.256492
410 0.24281
415 0.300038
420 0.327057
425 0.318242
430 0.395538
435 0.398827
440 0.485655
445 0.627728
450 11.23
455 177.165
460 266.31
465 64.6132
470 9.38469
475 3.10768
480 2.43065
485 2.64237
490 2.95239
495 2.99159
500 2.92503
505 2.77572
510 2.97588
515 3.0381
520 2.87754
525 3.46601
530 4.49532
535 4.13389
540 3.3013
545 2.99238
550 2.62317
555 2.25666
560 2.0752
565 1.78481
570 1.65725
575 1.39378
580 1.13028
585 0.971131
590 0.860488
595 0.624852
600 0.590129
Ex : 468
200 0.217642
205 0.219121
210 0.224986
215 0.18975
220 0.205953
225 0.202603
230 0.228168
235 0.203492
240 0.227896
245 0.236435
250 0.167535
255 0.18248
260 0.196497
265 0.181296
270 0.1755
275 0.225157
280 0.187849
285 0.25335
290 0.234941
295 0.246421
300 0.242734
305 0.213047
310 0.186061
315 0.203216
320 0.225425
325 0.223818
330 0.216031
335 0.243149
340 0.25633
345 0.237431
350 0.201665
355 0.271086
360 0.201743
365 0.205044
370 0.227589
375 0.190213
380 0.227172
385 0.233062
390 0.237423
395 0.239083
400 0.215298
405 0.262278
410 0.220768
415 0.220255
420 0.298208
425 0.252436
430 0.227103
435 0.24337
440 0.333582
445 0.447768
450 0.603966
455 12.3885
460 177.093
465 273.768
470 67.1071
475 9.52459
480 3.10089
485 2.2464
490 2.28673
495 2.65682
500 2.69203
505 2.63255
510 2.51727
515 2.38469
520 2.54778
525 2.68734
530 2.9065
535 3.89579
540 3.92255
545 2.90149
550 2.6113
555 2.33121
560 2.02155
565 1.70422
570 1.57403
575 1.20827
580 1.05534
585 0.865904
590 0.79676
595 0.756892
600 0.794594
Ex : 473
200 0.254956
205 0.245987
210 0.239103
215 0.217455
220 0.198237
225 0.236766
230 0.229774
235 0.20377
240 0.209314
245 0.240457
250 0.211375
255 0.248852
260 0.23292
265 0.202867
270 0.256488
275 0.245386
280 0.213016
285 0.235556
290 0.226126
295 0.226135
300 0.232652
305 0.199438
310 0.209508
315 0.228809
320 0.258705
325 0.251278
330 0.230028
335 0.266907
340 0.198999
345 0.248146
350 0.249997
355 0.210575
360 0.284059
365 0.274836
370 0.29845
375 0.25072
380 0.271165
385 0.246011
390 0.265545
395 0.251562
400 0.247718
405 0.247947
410 0.320034
415 0.275881
420 0.26475
425 0.257051
430 0.256997
435 0.311651
440 0.335347
445 0.382852
450 0.514241
455 0.631566
460 14.1658
465 194.101
470 265.118
475 62.2111
480 8.88517
485 2.62474
490 2.04154
495 2.05414
500 2.16302
505 2.46594
510 2.32198
515 2.32097
520 2.40134
525 2.4768
530 2.33006
535 2.41452
540 3.29811
545 3.97367
550 3.00794
555 2.36563
560 2.20062
565 1.81788
570 1.50304
575 1.1838
580 1.06442
585 0.845547
590 0.880648
595 0.653694
600 0.606642
Ex : 478
200 0.230035
205 0.291642
210 0.325583
215 0.218486
220 0.269018
225 0.272206
230 0.249399
235 0.228516
240 0.291365
245 0.286744
250 0.288839
255 0.241346
260 0.212267
265 0.275931
270 0.258376
275 0.279405
280 0.268664
285 0.250269
290 0.280897
295 0.295172
300 0.267352
305 0.261516
310 0.245752
315 0.280339
320 0.252078
325 0.344235
330 0.313431
335 0.256001
340 0.270417
345 0.296017
350 0.250066
355 0.32435
360 0.267694
365 0.294507
370 0.406097
375 0.260222
380 0.29421
385 0.259551
390 0.306619
395 0.246203
400 0.321127
405 0.322951
410 0.272295
415 0.294308
420 0.348028
425 0.440666
430 0.334633
435 0.325395
440 0.322265
445 0.344998
450 0.496829
455 0.609396
460 0.767273
465 14.9134
470 198.186
475 271.398
480 66.2829
485 9.14773
490 2.71756
495 1.96853
500 1.72911
505 2.04998
510 2.19974
515 2.24768
520 2.28861
525 2.11262
530 2.17175
535 2.22354
540 2.24604
545 2.62471
550 3.57896
555 3.01159
560 2.23006
565 2.07134
570 1.66539
575 1.30398
580 1.14571
585 0.882444
590 0.76967
595 0.712678
600 0.509805
Ex : 483
200 0.293438
205 0.261074
210 0.282381
215 0.373986
220 0.268953
225 0.276671
230 0.253767
235 0.306989
240 0.273539
245 0.248138
250 0.292082
255 0.236233
260 0.275957
265 0.287611
270 0.31253
275 0.279424
280 0.288383
285 0.269292
290 0.330995
295 0.236016
300 0.235079
305 0.218111
310 0.321378
315 0.237095
320 0.232325
325 0.28748
330 0.293281
335 0.269947
340 0.297363
345 0.236962
350 0.226227
355 0.27091
360 0.271443
365 0.30164
370 0.270996
375 0.306517
380 0.289705
385 0.309027
390 0.316676
395 0.252415
400 0.288581
405 0.409413
410 0.340708
415 0.3157
420 0.274127
425 0.330597
430 0.277913
435 0.337513
440 0.292015
445 0.298976
450 0.423887
455 0.412157
460 0.589796
465 0.752053
470 12.123
475 192.564
480 283.83
485 68.7266
490 9.20044
495 2.54534
500 1.74773
505 1.75181
510 1.96369
515 2.26252
520 2.09899
525 2.01562
530 1.87868
535 2.05821
540 1.92273
545 1.93377
550 1.9917
555 2.78747
560 3.06019
565 2.17198
570 1.62382
575 1.43443
580 1.22166
585 1.00086
590 0.747687
595 0.697401
600 1.21945
Ex : 488
200 0.340521
205 0.345191
210 0.232771
215 0.279787
220 0.327325
225 0.31585
230 0.28697
235 0.249251
240 0.323339
245 0.351378
250 0.251811
255 0.292006
260 0.303424
265 0.367699
270 0.283231
275 0.322621
280 0.37384
285 0.30881
290 0.309381
295 0.328203
300 0.319923
305 0.285747
310 0.288955
315 0.299993
320 0.371642
325 0.371141
330 0.351393
335 0.320401
340 0.249998
345 0.274373
350 0.330886
355 0.290304
360 0.335206
365 0.312442
370 0.377511
375 0.317324
380 0.353732
385 0.351248
390 0.328603
395 0.348407
400 0.290806
405 0.240873
410 0.307184
415 0.277928
420 0.358546
425 0.302109
430 0.348442
435 0.384514
440 0.349164
445 0.454949
450 0.374967
455 0.4766
460 0.465485
465 0.537641
470 0.866534
475 14.0548
480 209.562
485 287.644
490 68.4716
495 9.25261
500 2.50241
505 1.70902
510 1.63612
515 1.86324
520 2.23072
525 2.29135
530 2.0804
535 1.99576
540 1.89744
545 2.03188
550 1.80902
555 1.90716
560 2.38784
565 2.58695
570 2.14013
575 1.51546
580 1.36288
585 1.10312
590 0.891899
595 0.7871
600 0.748905
Ex : 493
200 0.262149
205 0.328625
210 0.330791
215 0.374421
220 0.353312
225 0.281226
230 0.305344
235 0.25182
240 0.260062
245 0.321163
250 0.268936
255 0.30776
260 0.311812
265 0.264225
270 0.300694
275 0.267769
280 0.207118
285 0.234341
290 0.3165
295 0.285893
300 0.315846
305 0.312897
310 0.263337
315 0.304814
320 0.29525
325 0.327246
330 0.260208
335 0.354027
340 0.323127
345 0.398981
350 0.315996
355 0.280537
360 0.276907
365 0.331584
370 0.332428
375 0.308529
380 0.304824
385 0.376388
390 0.313642
395 0.307127
400 0.343805
405 0.307146
410 0.328662
415 0.300695
420 0.308507
425 0.372164
430 0.297884
435 0.322575
440 0.318955
445 0.440243
450 0.359915
455 0.352305
460 0.432214
465 0.485183
470 0.568754
475 0.755612
480 12.9767
485 202.379
490 291.662
495 68.093
500 9.16404
505 2.4657
510 1.78457
515 1.72757
520 1.89421
525 2.06757
530 2.15709
535 1.88251
540 1.9
545 1.74714
550 1.70539
555 1.60701
560 1.57862
565 1.83325
570 2.47381
575 2.0518
580 1.25853
585 0.954712
590 0.98398
595 0.908863
600 0.8943
Ex : 498
200 0.323681
205 0.39822
210 0.405161
215 0.387824
220 0.325207
225 0.352919
230 0.341752
235 0.29392
240 0.267051
245 0.279942
250 0.371665
255 0.392908
260 0.3617
265 0.367542
270 0.436949
275 0.46159
280 0.354208
285 0.400676
290 0.377441
295 0.320617
300 0.30574
305 0.399527
310 0.340395
315 0.290057
320 0.376191
325 0.380455
330 0.404717
335 0.349031
340 0.341058
345 0.31309
350 0.278429
355 0.309588
360 0.350921
365 0.382907
370 0.306833
375 0.395176
380 0.291587
385 0.380027
390 0.348703
395 0.325355
400 0.415911
405 0.362315
410 0.379892
415 0.403842
420 0.347878
425 0.377162
430 0.344727
435 0.397347
440 0.376298
445 0.397133
450 0.353376
455 0.352886
460 0.364694
465 0.537203
470 0.627383
475 0.713877
480 0.795755
485 15.1738
490 212.641
495 283.999
500 66.2396
505 8.995
510 2.49894
515 1.8574
520 1.78789
525 1.79367
530 2.12132
535 1.9948
540 1.87045
545 1.76397
550 1.69519
555 1.68095
560 1.52036
565 1.34483
570 1.46298
575 1.81054
580 1.70989
585 1.21565
590 0.968042
595 0.862976
600 2.76072
Ex : 503
200 0.360711
205 0.322894
210 0.288312
215 0.290632
220 0.368874
225 0.310711
230 0.295273
235 0.366415
240 0.325534
245 0.311805
250 0.416849
255 0.341535
260 0.358616
265 0.279302
270 0.334461
275 0.318747
280 0.284801
285 0.296661
290 0.299952
295 0.297925
300 0.310099
305 0.36492
310 0.322958
315 0.300282
320 0.392492
325 0.26882
330 0.27095
335 0.386851
340 0.349985
345 0.357748
350 0.350631
355 0.270261
360 0.347877
365 0.251529
370 0.357122
375 0.304459
380 0.35283
385 0.380868
390 0.408532
395 0.440057
400 0.359141
405 0.369686
410 0.384733
415 0.442553
420 0.428686
425 0.321261
430 0.34869
435 0.400422
440 0.451731
445 0.407228
450 0.423902
455 0.346472
460 0.343954
465 0.43972
470 0.487743
475 0.485865
480 0.562149
485 0.732463
490 13.4423
495 210.711
500 291.067
505 67.881
510 9.07799
515 2.46084
520 1.90288
525 1.69252
530 1.8181
535 2.05815
540 1.94406
545 1.90078
550 1.72625
555 1.61752
560 1.30295
565 1.32161
570 1.3224
575 1.23893
580 1.38504
585 1.73536
590 1.27118
595 0.836833
600 0.58243
Ex : 508
200 0.384553
205 0.445235
210 0.411886
215 0.370892
220 0.414176
225 0.331445
230 0.301888
235 0.397433
240 0.356949
245 0.394955
250 0.365139
255 0.393993
260 0.318164
265 0.312494
270 0.402895
275 0.416307
280 0.293196
285 0.417777
290 0.340835
295 0.427392
300 0.363242
305 0.422789
310 0.345627
315 0.328172
320 0.425001
325 0.382528
330 0.453602
335 0.442517
340 0.456637
345 0.373945
350 0.363854
355 0.386446
360 0.347546
365 0.500172
370 0.407477
375 0.332648
380 0.331099
385 0.427163
390 0.365208
395 0.43928
400 0.407337
405 0.31391
410 0.331331
415 0.357775
420 0.43142
425 0.471254
430 0.420336
435 0.364497
440 0.35992
445 0.434756
450 0.440648
455 0.340696
460 0.406314
465 0.444595
470 0.477207
475 0.592405
480 0.509629
485 0.6686
490 0.903326
495 14.5657
500 209.069
505 287.615
510 69.8768
515 9.46497
520 2.62169
525 1.92018
530 1.81639
535 1.82847
540 1.99767
545 2.01531
550 1.74449
555 1.60548
560 1.53699
565 1.44695
570 1.24571
575 1.24056
580 1.01998
585 1.09714
590 1.41368
595 1.29571
600 0.908925
Ex : 513
200 0.405655
205 0.3836
210 0.431814
215 0.470999
220 0.382218
225 0.361408
230 0.381504
235 0.373518
240 0.36645
245 0.381808
250 0.406127
255 0.432718
260 0.358106
265 0.39301
270 0.384436
275 0.371401
280 0.351086
285 0.362725
290 0.365381
295 0.339555
300 0.348978
305 0.362668
310 0.324298
315 0.399117
320 0.338855
325 0.328915
330 0.405666
335 0.356425
340 0.368174
345 0.414137
350 0.370546
355 0.353097
360 0.358744
365 0.307441
370 0.307936
375 0.340218
380 0.357847
385 0.385452
390 0.324523
395 0.309781
400 0.438911
405 0.406225
410 0.354323
415 0.375517
420 0.373559
425 0.371162
430 0.483665
435 0.511624
440 0.447027
445 0.414848
450 0.418807
455 0.419369
460 0.390917
465 0.41339
470 0.492714
475 0.52617
480 0.542909
485 0.630428
490 0.718017
495 0.795272
500 13.8879
505 209.265
510 296.91
515 73.5815
520 9.89743
525 2.70148
530 1.9287
535 1.79079
540 1.63128
545 1.53626
550 1.77258
555 1.43667
560 1.4808
565 1.36908
570 1.16285
575 1.06015
580 1.03461
585 1.0579
590 0.899554
595 1.15527
600 0.919203
Ex : 518
200 0.348619
205 0.299486
210 0.34944
215 0.342876
220 0.36404
225 0.342839
230 0.329665
235 0.39451
240 0.447096
245 0.371347
250 0.439894
255 0.360584
260 0.392168
265 0.27818
270 0.415992
275 0.535415
280 0.43919
285 0.493688
290 0.402015
295 0.394609
300 0.460337
305 0.400879
310 0.338189
315 0.313551
320 0.294345
325 0.306021
330 0.530467
335 0.377239
340 0.422509
345 0.419415
350 0.41131
355 0.461924
360 0.349111
365 0.41338
370 0.262887
375 0.308559
380 0.412864
385 0.373003
390 0.283255
395 0.319621
400 0.384006
405 0.432013
410 0.418514
415 0.377101
420 0.409843
425 0.473215
430 0.415708
435 0.420055
440 0.493222
445 0.416113
450 0.461215
455 0.528327
460 0.361009
465 0.45889
470 0.44823
475 0.490648
480 0.582965
485 0.487523
490 0.608886
495 0.62289
500 0.798035
505 13.8833
510 200.588
515 292.957
520 73.0364
525 9.83764
530 2.56946
535 1.91132
540 1.56671
545 1.37088
550 1.61305
555 1.5785
560 1.4041
565 1.44384
570 1.06809
575 0.967481
580 0.980219
585 0.912902
590 0.759886
595 0.678266
600 0.399853
Ex : 523
200 0.416086
205 0.359122
210 0.439043
215 0.429876
220 0.369242
225 0.397863
230 0.380466
235 0.426654
240 0.382357
245 0.426752
250 0.368609
255 0.369716
260 0.387659
265 0.385067
270 0.355429
275 0.414543
280 0.367394
285 0.52775
290 0.456
295 0.411203
300 0.359411
305 0.369132
310 0.445083
315 0.379989
320 0.325267
325 0.345447
330 0.427499
335 0.403698
340 0.388806
345 0.408582
350 0.42493
355 0.464603
360 0.418456
365 0.555374
370 0.304943
375 0.418029
380 0.41152
385 0.420123
390 0.360144
395 0.341921
400 0.368905
405 0.352151
410 0.397246
415 0.385826
420 0.376588
425 0.428635
430 0.548976
435 0.475935
440 0.36837
445 0.351479
450 0.521471
455 0.524681
460 0.436567
465 0.387799
470 0.444931
475 0.528387
480 0.558839
485 0.505898
490 0.546913
495 0.600492
500 0.773603
505 0.841885
510 12.4809
515 189.389
520 281.593
525 73.4607
530 9.78664
535 2.43485
540 1.63568
545 1.48347
550 1.25867
555 1.21584
560 1.43652
565 1.37281
570 1.14551
575 1.06744
580 0.935072
585 0.730985
590 0.661734
595 0.719763
600 0.308171
Ex : 528
200 0.381423
205 0.409675
210 0.406056
215 0.387154
220 0.520349
225 0.344376
230 0.380254
235 0.332451
240 0.294818
245 0.415984
250 0.385
255 0.383606
260 0.48267
265 0.374921
270 0.318792
275 0.427779
280 0.435589
285 0.400301
290 0.443921
295 0.423003
300 0.404687
305 0.435982
310 0.472174
315 0.444915
320 0.423284
325 0.337835
330 0.399681
335 0.373958
340 0.455507
345 0.407791
350 0.358318
355 0.471422
360 0.391716
365 0.347485
370 0.424558
375 0.421223
380 0.461111
385 0.476627
390 0.412428
395 0.454675
400 0.355137
405 0.454555
410 0.407596
415 0.374097
420 0.439705
425 0.459306
430 0.427326
435 0.388245
440 0.462095
445 0.466107
450 0.406913
455 0.489466
460 0.433584
465 0.460675
470 0.392635
475 0.368398
480 0.465437
485 0.419411
490 0.510443
495 0.562745
500 0.574625
505 0.610367
510 0.779551
515 12.1869
520 189.377
525 283.434
530 71.0325
535 9.38595
540 2.26403
545 1.58263
550 1.3737
555 0.999419
560 1.19319
565 1.20151
570 1.16039
575 1.18785
580 0.982449
585 0.844252
590 0.800973
595 0.718256
600 0.913782
Ex : 533
200 0.363306
205 0.333551
210 0.450248
215 0.471981
220 0.418781
225 0.384734
230 0.304987
235 0.397863
240 0.528516
245 0.417989
250 0.430871
255 0.411257
260 0.386367
265 0.475673
270 0.36705
275 0.36107
280 0.385797
285 0.369558
290 0.299883
295 0.386167
300 0.423989
305 0.445751
310 0.448746
315 0.44031
320 0.363348
325 0.400942
330 0.401761
335 0.370737
340 0.426242
345 0.376386
350 0.342496
355 0.397424
360 0.408756
365 0.386317
370 0.442484
375 0.359404
380 0.359473
385 0.397158
390 0.407892
395 0.506493
400 0.491092
405 0.468033
410 0.4932
415 0.512795
420 0.51414
425 0.420419
430 0.385007
435 0.495458
440 0.424886
445 0.403075
450 0.47731
455 0.458866
460 0.504337
465 0.458472
470 0.443633
475 0.562699
480 0.418052
485 0.539652
490 0.484302
495 0.536874
500 0.602602
505 0.575497
510 0.710167
515 0.809003
520 12.1427
525 179.602
530 277.026
535 72.7841
540 9.56237
545 2.2301
550 1.5186
555 1.31329
560 1.11812
565 0.954734
570 1.09038
575 1.02383
580 0.999917
585 0.935422
590 0.80388
595 0.625183
600 2.00127
Ex : 538
200 0.372789
205 0.452708
210 0.434184
215 0.359442
220 0.326779
225 0.468459
230 0.396975
235 0.451738
240 0.409185
245 0.39618
250 0.370163
255 0.513891
260 0.376949
265 0.371351
270 0.401371
275 0.476364
280 0.408089
285 0.420572
290 0.42115
295 0.424027
300 0.328133
305 0.531269
310 0.358999
315 0.407135
320 0.446214
325 0.433206
330 0.488672
335 0.387606
340 0.358855
345 0.446044
350 0.446184
355 0.36947
360 0.42544
365 0.518877
370 0.449001
375 0.429677
380 0.477797
385 0.508035
390 0.440109
395 0.418299
400 0.401856
405 0.321178
410 0.346192
415 0.435214
420 0.488369
425 0.484552
430 0.39669
435 0.409118
440 0.362806
445 0.458115
450 0.512908
455 0.47213
460 0.514063
465 0.45273
470 0.473044
475 0.466436
480 0.443626
485 0.493396
490 0.486026
495 0.460091
500 0.496083
505 0.571996
510 0.6277
515 0.787089
520 0.843973
525 10.1185
530 173.409
535 281.377
540 76.6952
545 9.93912
550 2.16902
555 1.19004
560 1.17487
565 1.09174
570 0.962469
575 1.10155
580 0.974808
585 0.870318
590 0.831033
595 0.747018
600 0.75748
Ex : 543
200 0.446655
205 0.496434
210 0.389156
215 0.463452
220 0.533399
225 0.464493
230 0.363378
235 0.542243
240 0.386142
245 0.429113
250 0.408696
255 0.464444
260 0.449046
265 0.325349
270 0.466276
275 0.382207
280 0.448762
285 0.514517
290 0.39901
295 0.440866
300 0.340211
305 0.402071
310 0.430674
315 0.315397
320 0.425923
325 0.417183
330 0.458074
335 0.414876
340 0.342484
345 0.414434
350 0.380879
355 0.385944
360 0.497126
365 0.467788
370 0.311972
375 0.3967
380 0.329592
385 0.50953
390 0.463789
395 0.480114
400 0.476723
405 0.406742
410 0.514549
415 0.567944
420 0.522971
425 0.493579
430 0.411639
435 0.429896
440 0.447976
445 0.500628
450 0.47907
455 0.556031
460 0.391455
465 0.451374
470 0.497745
475 0.488508
480 0.384944
485 0.440194
490 0.517701
495 0.447971
500 0.425304
505 0.495687
510 0.60231
515 0.554755
520 0.712496
525 0.706142
530 9.47704
535 169.407
540 284.321
545 78.8265
550 10.1226
555 2.04613
560 1.14189
565 0.984842
570 1.02283
575 0.968104
580 0.995595
585 0.98786
590 0.675078
595 0.756514
600 0.545206
Ex : 548
200 0.478643
205 0.499495
210 0.444
215 0.390157
220 0.381103
225 0.445123
230 0.58861
235 0.422843
240 0.386677
245 0.517432
250 0.514765
255 0.44517
260 0.474138
265 0.469898
270 0.425175
275 0.473788
280 0.308498
285 0.418778
290 0.516347
295 0.400322
300 0.475944
305 0.439022
310 0.52276
315 0.439727
320 0.574519
325 0.437324
330 0.506018
335 0.400151
340 0.47862
345 0.447329
350 0.360008
355 0.445747
360 0.362931
365 0.485664
370 0.475068
375 0.506944
380 0.457776
385 0.444326
390 0.484497
395 0.362779
400 0.380829
405 0.502375
410 0.442503
415 0.405103
420 0.489268
425 0.52203
430 0.414609
435 0.442482
440 0.48336
445 0.45861
450 0.5213
455 0.509432
460 0.435441
465 0.506879
470 0.458573
475 0.561144
480 0.52416
485 0.537281
490 0.474995
495 0.46431
500 0.51627
505 0.479184
510 0.650554
515 0.599731
520 0.732666
525 0.708398
530 0.806789
535 10.3904
540 173.138
545 282.387
550 79.1766
555 10.1451
560 2.0818
565 1.11292
570 1.11656
575 0.912048
580 0.895807
585 0.751177
590 0.751322
595 0.827325
600 0.545505
Ex : 553
200 0.342739
205 0.318698
210 0.441115
215 0.508866
220 0.483959
225 0.441071
230 0.383259
235 0.447515
240 0.630929
245 0.537041
250 0.45095
255 0.527187
260 0.538128
265 0.554883
270 0.458565
275 0.432729
280 0.487891
285 0.424829
290 0.496913
295 0.431032
300 0.522533
305 0.42304
310 0.389294
315 0.344889
320 0.498679
325 0.484145
330 0.639009
335 0.482617
340 0.444462
345 0.511322
350 0.502793
355 0.555185
360 0.451123
365 0.397322
370 0.401833
375 0.490677
380 0.537544
385 0.520222
390 0.496186
395 0.463661
400 0.593604
405 0.463612
410 0.593648
415 0.541491
420 0.683281
425 0.429284
430 0.413127
435 0.425619
440 0.573592
445 0.460425
450 0.559694
455 0.565053
460 0.508639
465 0.495986
470 0.477378
475 0.478815
480 0.455233
485 0.511332
490 0.431362
495 0.468167
500 0.537765
505 0.577568
510 0.525648
515 0.605954
520 0.662779
525 0.580142
530 0.644918
535 0.91443
540 9.45825
545 159.184
550 267.342
555 76.3478
560 9.79264
565 2.04225
570 1.07514
575 1.09209
580 0.882434
585 0.870709
590 0.721992
595 0.711957
600 0.16678
Ex : 558
200 0.45913
205 0.461362
210 0.458028
215 0.509117
220 0.441438
225 0.512429
230 0.381126
235 0.49626
240 0.459727
245 0.406115
250 0.397975
255 0.361891
260 0.45579
265 0.44561
270 0.504893
275 0.560967
280 0.524917
285 0.516993
290 0.564387
295 0.386778
300 0.451529
305 0.550887
310 0.494877
315 0.423741
320 0.462253
325 0.503342
330 0.455163
335 0.454255
340 0.516303
345 0.490055
350 0.616175
355 0.559249
360 0.560745
365 0.452862
370 0.541036
375 0.599994
380 0.535772
385 0.491415
390 0.519387
395 0.44712
400 0.420344
405 0.412898
410 0.557101
415 0.450579
420 0.540292
425 0.488404
430 0.543076
435 0.415433
440 0.447638
445 0.39753
450 0.396729
455 0.503254
460 0.470849
465 0.610696
470 0.47826
475 0.45419
480 0.567801
485 0.48461
490 0.529411
495 0.52643
500 0.556083
505 0.551025
510 0.444419
515 0.552123
520 0.631735
525 0.670449
530 0.618196
535 0.633516
540 0.854757
545 8.22303
550 154.619
555 267.435
560 76.0667
565 9.80764
570 1.96121
575 0.996421
580 0.883701
585 0.786946
590 0.78223
595 0.816932
600 0.683766
Ex : 563
200 0.356126
205 0.477726
210 0.490225
215 0.584945
220 0.451458
225 0.456095
230 0.531671
235 0.473199
240 0.389844
245 0.412411
250 0.514723
255 0.593118
260 0.48935
265 0.604829
270 0.513169
275 0.446853
280 0.476707
285 0.497277
290 0.544735
295 0.602624
300 0.473418
305 0.418154
310 0.558333
315 0.418338
320 0.486766
325 0.445585
330 0.649085
335 0.51134
340 0.539827
345 0.512978
350 0.574754
355 0.478127
360 0.491878
365 0.439598
370 0.48592
375 0.421996
380 0.523467
385 0.452935
390 0.45374
395 0.63567
400 0.557117
405 0.603741
410 0.524407
415 0.509473
420 0.482353
425 0.540275
430 0.451746
435 0.391528
440 0.596422
445 0.614986
450 0.542032
455 0.427951
460 0.57265
465 0.537681
470 0.436366
475 0.546852
480 0.49485
485 0.611505
490 0.607977
495 0.522254
500 0.501875
505 0.575612
510 0.738137
515 0.62517
520 0.567457
525 0.667005
530 0.660777
535 0.745854
540 0.70618
545 0.820517
550 8.351
555 150.833
560 255.466
565 74.5958
570 9.57122
575 1.95861
580 0.968498
585 0.814921
590 0.681449
595 0.688426
600 0.327206
Ex : 568
200 0.4952
205 0.484664
210 0.436093
215 0.498416
220 0.600162
225 0.477965
230 0.454582
235 0.666748
240 0.440188
245 0.545691
250 0.639073
255 0.551769
260 0.525124
265 0.473349
270 0.502382
275 0.637697
280 0.492761
285 0.43809
290 0.514234
295 0.439397
300 0.382158
305 0.537497
310 0.483872
315 0.554092
320 0.471792
325 0.4459
330 0.637009
335 0.453107
340 0.506106
345 0.448565
350 0.53885
355 0.769495
360 0.614989
365 0.533608
370 0.457423
375 0.470471
380 0.654766
385 0.563002
390 0.619376
395 0.613722
400 0.558057
405 0.530285
410 0.586816
415 0.516423
420 0.427042
425 0.618051
430 0.503337
435 0.622863
440 0.488872
445 0.436014
450 0.576143
455 0.503312
460 0.667559
465 0.571904
470 0.489648
475 0.418176
480 0.506988
485 0.548216
490 0.426681
495 0.490605
500 0.560046
505 0.712972
510 0.646164
515 0.550166
520 0.549115
525 0.550871
530 0.574766
535 0.686411
540 0.714402
545 0.800343
550 0.774407
555 6.55074
560 135.639
565 246.907
570 74.6771
575 9.63699
580 1.8672
585 0.872807
590 0.830976
595 0.790682
600 0.40202
Ex : 573
200 0.56185
205 0.479461
210 0.47274
215 0.41918
220 0.411869
225 0.370066
230 0.508256
235 0.502485
240 0.486917
245 0.804147
250 0.666427
255 0.531741
260 0.533173
265 0.662561
270 0.506171
275 0.53329
280 0.509845
285 0.421107
290 0.492718
295 0.510239
300 0.431397
305 0.6202
310 0.471367
315 0.512683
320 0.555024
325 0.465206
330 0.637343
335 0.457176
340 0.716948
345 0.671663
350 0.560322
355 0.605375
360 0.606502
365 0.512888
370 0.495834
375 0.460177
380 0.62033
385 0.492549
390 0.567952
395 0.585262
400 0.663504
405 0.516668
410 0.480826
415 0.539123
420 0.515588
425 0.481125
430 0.560772
435 0.591471
440 0.529963
445 0.593358
450 0.553045
455 0.56618
460 0.526716
465 0.58965
470 0.585521
475 0.570635
480 0.514453
485 0.436126
490 0.504065
495 0.548889
500 0.54437
505 0.478145
510 0.607281
515 0.503289
520 0.561817
525 0.587802
530 0.515622
535 0.606989
540 0.601135
545 0.665368
550 0.825617
555 0.866968
560 5.90224
565 119.392
570 232.655
575 71.9391
580 9.36141
585 1.85379
590 0.846635
595 0.816666
600 2.62122
Ex : 578
200 0.493803
205 0.644599
210 0.568923
215 0.450736
220 0.565293
225 0.566983
230 0.569678
235 0.522726
240 0.47571
245 0.585215
250 0.545906
255 0.499767
260 0.600892
265 0.721204
270 0.514856
275 0.356498
280 0.461975
285 0.549979
290 0.437144
295 0.411526
300 0.415133
305 0.514915
310 0.426327
315 0.52153
320 0.54033
325 0.436191
330 0.389571
335 0.58235
340 0.496816
345 0.501721
350 0.596696
355 0.509963
360 0.535925
365 0.570007
370 0.615027
375 0.456396
380 0.48676
385 0.693137
390 0.505525
395 0.470194
400 0.555261
405 0.500048
410 0.522188
415 0.626734
420 0.494194
425 0.541018
430 0.609031
435 0.577555
440 0.613061
445 0.632524
450 0.775056
455 0.626708
460 0.581783
465 0.534757
470 0.550846
475 0.600136
480 0.572178
485 0.505419
490 0.540884
495 0.429695
500 0.528112
505 0.55639
510 0.627438
515 0.586063
520 0.506837
525 0.688862
530 0.569347
535 0.589002
540 0.702732
545 0.720173
550 0.744608
555 0.822199
560 0.988432
565 5.38768
570 105.465
575 201.274
580 61.4573
585 7.90318
590 1.58449
595 0.735869
600 1.28739
Ex : 583
200 0.600441
205 0.522779
210 0.608768
215 0.481092
220 0.485602
225 0.536384
230 0.688745
235 0.607365
240 0.557954
245 0.474133
250 0.47805
255 0.600912
260 0.714822
265 0.665567
270 0.616594
275 0.614052
280 0.574743
285 0.661969
290 0.486275
295 0.520254
300 0.568316
305 0.586413
310 0.397102
315 0.556562
320 0.600293
325 0.473177
330 0.520881
335 0.652214
340 0.53494
345 0.45294
350 0.596201
355 0.465605
360 0.477222
365 0.524748
370 0.469982
375 0.460968
380 0.688072
385 0.53972
390 0.563793
395 0.549424
400 0.532228
405 0.631374
410 0.492358
415 0.550413
420 0.638552
425 0.633452
430 0.628588
435 0.592256
440 0.587884
445 0.605433
450 0.595921
455 0.598547
460 0.402312
465 0.538392
470 0.55491
475 0.527442
480 0.543435
485 0.784341
490 0.609598
495 0.56884
500 0.63838
505 0.657355
510 0.647479
515 0.548315
520 0.473511
525 0.638093
530 0.624766
535 0.725981
540 0.650668
545 0.588826
550 0.744915
555 0.575764
560 0.742962
565 0.770303
570 4.73133
575 95.5063
580 177.698
585 51.9125
590 6.84905
595 1.48872
600 0.911349
Ex : 588
200 0.647595
205 0.510765
210 0.520194
215 0.580692
220 0.707515
225 0.597153
230 0.553507
235 0.591618
240 0.527504
245 0.54475
250 0.418301
255 0.512095
260 0.563994
265 0.450039
270 0.544413
275 0.544379
280 0.436776
285 0.651556
290 0.460846
295 0.552195
300 0.585785
305 0.491271
310 0.448963
315 0.536152
320 0.557674
325 0.483969
330 0.578296
335 0.60902
340 0.601299
345 0.424738
350 0.59548
355 0.533928
360 0.412654
365 0.605046
370 0.523411
375 0.601348
380 0.495723
385 0.513818
390 0.447519
395 0.427199
400 0.597167
405 0.490038
410 0.515284
415 0.553477
420 0.434298
425 0.608477
430 0.56529
435 0.515168
440 0.621101
445 0.509003
450 0.663781
455 0.522971
460 0.630829
465 0.695153
470 0.521272
475 0.49153
480 0.43935
485 0.488912
490 0.511389
495 0.542027
500 0.522439
505 0.595315
510 0.62367
515 0.598502
520 0.570385
525 0.577257
530 0.544188
535 0.604177
540 0.567073
545 0.886838
550 0.794418
555 0.6085
560 0.603486
565 0.805531
570 0.857952
575 3.89031
580 83.4727
585 154.173
590 45.5332
595 6.10754
600 1.87898
Ex : 593
200 0.572511
205 0.519959
210 0.493493
215 0.535562
220 0.570321
225 0.502294
230 0.530505
235 0.701846
240 0.64537
245 0.659965
250 0.490559
255 0.51315
260 0.549845
265 0.63432
270 0.701516
275 0.574815
280 0.571407
285 0.601751
290 0.515677
295 0.573528
300 0.542918
305 0.528411
310 0.475045
315 0.446566
320 0.553501
325 0.536907
330 0.625813
335 0.572128
340 0.634174
345 0.651148
350 0.671122
355 0.733756
360 0.663592
365 0.546371
370 0.507307
375 0.445333
380 0.64852
385 0.431443
390 0.477446
395 0.662126
400 0.546132
405 0.769121
410 0.730598
415 0.668412
420 0.674371
425 0.580626
430 0.704993
435 0.665801
440 0.548027
445 0.539206
450 0.51076
455 0.542333
460 0.637302
465 0.597331
470 0.462913
475 0.517464
480 0.570294
485 0.530074
490 0.713934
495 0.66538
500 0.487336
505 0.732065
510 0.596991
515 0.566269
520 0.693592
525 0.526292
530 0.644655
535 0.517174
540 0.600875
545 0.69341
550 0.612757
555 0.635964
560 0.82402
565 0.698382
570 0.827997
575 0.797025
580 3.64308
585 68.7584
590 130.821
595 40.4501
600 5.97669
Ex : 598
200 0.49076
205 0.585888
210 0.459339
215 0.700126
220 0.680858
225 0.583082
230 0.723931
235 0.597542
240 0.596243
245 0.54883
250 0.531676
255 0.513618
260 0.42198
265 0.589599
270 0.606143
275 0.484817
280 0.508459
285 0.711283
290 0.541157
295 0.632769
300 0.534227
305 0.49887
310 0.487233
315 0.597799
320 0.519352
325 0.435116
330 0.622266
335 0.503461
340 0.663809
345 0.527173
350 0.612756
355 0.638096
360 0.730288
365 0.583977
370 0.567482
375 0.557328
380 0.565975
385 0.644334
390 0.521286
395 0.658734
400 0.596998
405 0.590733
410 0.659639
415 0.470554
420 0.574622
425 0.509428
430 0.616955
435 0.569816
440 0.638929
445 0.613537
450 0.877702
455 0.584583
460 0.436383
465 0.625794
470 0.591279
475 0.665031
480 0.648685
485 0.617361
490 0.527127
495 0.38081
500 0.490092
505 0.560445
510 0.585128
515 0.734511
520 0.503925
525 0.665086
530 0.644809
535 0.626719
540 0.600275
545 0.61286
550 0.637427
555 0.632284
560 0.543126
565 0.656336
570 0.526256
575 0.812394
580 0.674629
585 3.47385
590 62.1136
595 114.694
600 75.9267
Ex : 603
200 0.657379
205 0.599641
210 0.645859
215 0.776281
220 0.643845
225 0.527451
230 0.568254
235 0.595143
240 0.594941
245 0.555629
250 0.618565
255 0.517968
260 0.482006
265 0.599621
270 0.621375
275 0.598361
280 0.674605
285 0.618087
290 0.680272
295 0.642891
300 0.499553
305 0.639426
310 0.543804
315 0.747573
320 0.573479
325 0.540765
330 0.564866
335 0.494108
340 0.657461
345 0.588713
350 0.552989
355 0.693014
360 0.61874
365 0.648948
370 0.608309
375 0.598875
380 0.479109
385 0.553546
390 0.652039
395 0.726865
400 0.604183
405 0.67742
410 0.707757
415 0.753626
420 0.665987
425 0.591622
430 0.670492
435 0.517254
440 0.603186
445 0.672249
450 0.529004
455 0.501458
460 0.513458
465 0.510698
470 0.551885
475 0.627211
480 0.775107
485 0.49297
490 0.669819
495 0.582234
500 0.645449
505 0.640816
510 0.6256
515 0.577844
520 0.727479
525 0.697953
530 0.62999
535 0.555855
540 0.544036
545 0.627787
550 0.692622
555 0.617992
560 0.64
565 0.682711
570 0.622072
575 0.659896
580 0.877184
585 0.830611
590 2.84824
595 53.9582
600 100.481
