File format V 1.0
sam. 10. déc. 01:28:39 2016
Operator : 
Comments : 

=============================================
SpectroFluorometer parameters
Mode : 3D measurement
Data : Fluorescence
Phospho. : Ordinary
Spectrum : Fluorescence

Scan speed : 2400 nm/mn
Response : 100 ms
PM Voltage : 700 V
Shutter : On

Lambda Ex. Start : 203
Lambda Ex. End : 603
Lambda Ex. Step : 5
Ex. Slit : 5 nm

Lambda Em. Start : 200
Lambda Em. End : 600
Lambda Em. Step : 5
Em. Slit : 5 nm

Repetition : 1
Decal lambda em : 10
=============================================
DATA
Ex : 203
200 12.6463
205 13.3337
210 11.8132
215 15.9334
220 13.402
225 10.4358
230 16.6753
235 13.4672
240 15.7561
245 13.6637
250 12.293
255 13.2525
260 12.9275
265 18.0625
270 12.1819
275 12.7438
280 13.1226
285 12.6616
290 14.5667
295 15.5667
300 12.9878
305 14.0067
310 10.3965
315 12.3184
320 12.2003
325 15.5518
330 13.9177
335 13.7007
340 16.9916
345 19.9566
350 13.2451
355 17.3745
360 17.9746
365 15.931
370 14.3078
375 14.6997
380 16.4465
385 16.4623
390 15.6246
395 19.3833
400 15.4038
405 20.2929
410 14.4739
415 17.2711
420 14.1843
425 17.2253
430 16.6542
435 16.8264
440 14.0517
445 12.9372
450 13.6281
455 15.7043
460 17.3918
465 14.3068
470 18.568
475 15.5985
480 16.2689
485 14.2058
490 17.867
495 17.6734
500 14.7
505 14.7832
510 13.5038
515 17.7572
520 17.3377
525 16.8435
530 13.7441
535 15.9583
540 18.1065
545 13.8939
550 15.1258
555 14.1858
560 12.4485
565 19.504
570 14.1116
575 15.0528
580 14.3945
585 11.7756
590 13.2225
595 16.7699
600 7.66868
Ex : 208
200 14.1813
205 13.174
210 14.3405
215 16.8756
220 14.7604
225 13.5432
230 14.562
235 13.935
240 15.5736
245 19.4531
250 15.7802
255 10.561
260 13.3783
265 15.4738
270 12.6105
275 13.3123
280 11.7898
285 10.8329
290 9.91649
295 12.7734
300 16.9489
305 15.0606
310 15.2645
315 14.224
320 17.4028
325 14.1745
330 13.8178
335 18.5667
340 17.8467
345 12.8541
350 14.1198
355 15.5439
360 18.3498
365 15.205
370 12.4402
375 12.1322
380 15.1092
385 19.2652
390 19.1036
395 19.0884
400 17.6247
405 16.6253
410 20.6038
415 19.825
420 13.3181
425 18.0337
430 16.2675
435 16.4529
440 14.9005
445 14.0265
450 17.1213
455 15.0955
460 15.3993
465 16.7145
470 19.0592
475 16.9811
480 14.6887
485 15.2002
490 15.8077
495 20.3491
500 19.6217
505 13.6149
510 21.3467
515 16.5869
520 15.0698
525 17.9845
530 16.1769
535 10.7623
540 15.1605
545 12.762
550 17.75
555 15.1909
560 17.6628
565 12.463
570 15.2687
575 13.3817
580 9.75032
585 10.4011
590 12.2664
595 11.9086
600 7.11548
Ex : 213
200 12.1429
205 12.2964
210 11.1367
215 11.2463
220 15.9857
225 12.7839
230 15.8645
235 13.2709
240 13.2249
245 13.9955
250 15.3397
255 13.5687
260 11.0605
265 14.8271
270 11.8659
275 9.66498
280 11.1962
285 10.7203
290 18.1165
295 13.3071
300 16.1837
305 11.5849
310 11.5915
315 13.689
320 10.583
325 13.2822
330 17.1077
335 18.5506
340 13.2318
345 16.718
350 16.8336
355 14.606
360 15.466
365 20.8566
370 21.0191
375 14.9173
380 15.4636
385 16.5757
390 13.9271
395 14.5934
400 16.1043
405 15.2963
410 18.3914
415 14.6111
420 15.9664
425 14.9051
430 15.3712
435 15.4632
440 22.6199
445 17.2067
450 17.4409
455 15.1188
460 18.9439
465 21.6741
470 14.0125
475 14.5107
480 17.131
485 17.4711
490 18.1537
495 16.1171
500 15.9773
505 14.5973
510 15.7468
515 16.7869
520 17.3313
525 13.712
530 15.6569
535 15.7984
540 18.4262
545 15.8251
550 18.0971
555 11.1417
560 14.4669
565 18.6647
570 20.4855
575 12.8934
580 15.5049
585 17.1996
590 15.7977
595 14.1616
600 25.539
Ex : 218
200 13.3976
205 14.6528
210 13.7669
215 13.6024
220 12.713
225 12.1406
230 13.0784
235 10.814
240 12.3336
245 13.6782
250 12.8226
255 16.82
260 13.0616
265 13.2464
270 9.80782
275 16.2189
280 14.6174
285 13.5698
290 13.0058
295 12.5163
300 11.7012
305 12.8161
310 14.1682
315 15.4778
320 17.8281
325 11.6608
330 14.999
335 15.3471
340 16.5326
345 11.5542
350 11.8016
355 14.9175
360 18.3702
365 15.9539
370 15.6631
375 14.3252
380 16.7114
385 14.591
390 15.4226
395 22.3655
400 16.4456
405 14.4593
410 22.6604
415 15.8922
420 15.6783
425 19.3136
430 15.8691
435 15.6217
440 18.0931
445 14.7681
450 17.0673
455 19.1739
460 16.2382
465 17.277
470 19.1815
475 16.6371
480 15.3534
485 19.6453
490 15.8912
495 16.2995
500 14.7658
505 17.2697
510 13.4377
515 15.8906
520 14.4474
525 17.3598
530 15.2586
535 16.8295
540 14.5656
545 13.2663
550 14.0037
555 11.2281
560 15.5521
565 12.5845
570 19.3105
575 14.0102
580 17.4308
585 12.7171
590 14.2037
595 15.9293
600 389.97
Ex : 223
200 12.1467
205 10.191
210 10.1219
215 13.2124
220 13.8768
225 12.4942
230 11.5556
235 15.6411
240 14.6807
245 12.8274
250 14.4145
255 11.7215
260 12.0696
265 13.4005
270 10.7808
275 12.8869
280 14.1984
285 11.6641
290 11.3007
295 11.5838
300 9.62893
305 11.3102
310 14.9265
315 13.0733
320 13.0328
325 15.9393
330 19.632
335 16.1857
340 16.1528
345 15.2915
350 15.6611
355 16.9154
360 14.9718
365 15.556
370 14.603
375 15.9745
380 16.2465
385 13.9171
390 12.4743
395 13.7868
400 15.9584
405 19.7532
410 15.3266
415 14.755
420 16.9028
425 14.4299
430 13.0901
435 14.9064
440 17.5717
445 14.1613
450 15.003
455 16.1885
460 17.4422
465 18.5171
470 16.7482
475 18.1641
480 18.4154
485 17.0167
490 17.6978
495 19.8675
500 11.1764
505 13.4347
510 13.7211
515 12.9327
520 12.1254
525 12.9963
530 13.0136
535 10.301
540 11.772
545 12.6721
550 18.7538
555 10.9339
560 15.5808
565 14.6994
570 15.4671
575 12.2476
580 15.7552
585 14.7795
590 12.8644
595 10.5857
600 18.4856
Ex : 228
200 14.8969
205 13.1931
210 11.422
215 11.8223
220 11.3046
225 8.98092
230 11.2362
235 9.78261
240 8.73003
245 13.2685
250 12.904
255 12.7937
260 13.6331
265 13.815
270 10.4212
275 16.7929
280 11.5333
285 10.8316
290 13.3736
295 9.57535
300 10.3849
305 13.1455
310 10.921
315 12.4205
320 13.142
325 14.5414
330 13.018
335 12.0159
340 13.4757
345 16.6944
350 17.6733
355 12.1445
360 12.4944
365 18.6729
370 14.9771
375 13.8218
380 14.987
385 11.8064
390 16.2797
395 15.1692
400 10.941
405 17.8844
410 16.1767
415 18.1743
420 13.396
425 14.7868
430 12.1865
435 19.0844
440 13.6644
445 14.5428
450 17.2643
455 13.7945
460 12.9948
465 15.7411
470 15.3601
475 14.2385
480 11.9728
485 12.2891
490 14.7288
495 12.7112
500 14.6373
505 11.7485
510 13.9887
515 16.8317
520 15.0464
525 13.8173
530 14.2213
535 14.4793
540 17.161
545 12.5828
550 12.3959
555 15.9425
560 12.712
565 11.8652
570 13.1766
575 12.3174
580 9.07602
585 10.7628
590 10.1768
595 13.706
600 33.2415
Ex : 233
200 11.4636
205 10.0429
210 10.6633
215 10.6635
220 10.9108
225 14.6011
230 10.7451
235 9.51861
240 11.0935
245 10.9815
250 11.2162
255 11.2451
260 14.4684
265 13.0172
270 9.54235
275 11.3988
280 10.0009
285 11.0275
290 11.4566
295 8.43151
300 7.95243
305 13.1881
310 10.6888
315 11.6476
320 8.30021
325 8.45616
330 15.013
335 12.2305
340 14.5277
345 14.7814
350 12.9478
355 11.1041
360 12.478
365 12.6313
370 12.2821
375 13.9299
380 15.3213
385 11.8525
390 14.4435
395 12.8878
400 11.575
405 12.8166
410 13.8294
415 12.9453
420 12.6066
425 12.6397
430 13.6278
435 14.3528
440 18.195
445 15.6875
450 14.2705
455 13.6272
460 14.6133
465 12.6639
470 13.0126
475 13.1045
480 15.9728
485 14.0523
490 15.4789
495 14.5885
500 11.9587
505 11.1513
510 14.5792
515 13.108
520 10.7032
525 11.4885
530 13.0176
535 11.6516
540 10.7085
545 13.0987
550 12.3118
555 13.3982
560 10.4031
565 9.66547
570 11.5537
575 12.7099
580 9.74804
585 10.2913
590 12.5976
595 12.6835
600 13.3185
Ex : 238
200 10.4792
205 7.64694
210 9.4149
215 9.04357
220 9.22461
225 8.72228
230 10.6854
235 11.0521
240 9.49526
245 10.9155
250 8.80517
255 10.4905
260 11.6572
265 9.0745
270 6.84542
275 11.1145
280 12.9694
285 10.6151
290 8.92064
295 9.20086
300 11.7753
305 9.34256
310 10.3792
315 9.51216
320 10.7314
325 11.3077
330 13.5973
335 11.8132
340 10.0864
345 9.52336
350 11.9159
355 11.5455
360 8.85923
365 11.0456
370 10.2739
375 14.8462
380 13.6571
385 10.442
390 10.9168
395 11.7398
400 13.4063
405 11.0503
410 11.7544
415 13.8858
420 12.1047
425 11.8782
430 12.8685
435 12.4253
440 11.7777
445 14.9427
450 14.2838
455 14.8916
460 11.9753
465 16.9309
470 14.027
475 15.3252
480 12.65
485 10.511
490 9.14588
495 10.8501
500 13.5275
505 10.6921
510 11.7892
515 11.3776
520 11.8667
525 8.43631
530 8.18571
535 10.0755
540 8.31512
545 13.0148
550 12.3568
555 12.4259
560 12.2134
565 12.0206
570 8.44597
575 10.0447
580 10.1608
585 9.91819
590 12.2977
595 8.92472
600 32.21
Ex : 243
200 7.38806
205 8.22359
210 8.90176
215 6.33995
220 8.07983
225 8.5047
230 6.40838
235 9.63758
240 10.3938
245 9.81124
250 9.52257
255 8.64614
260 11.3452
265 12.9354
270 9.35254
275 8.08803
280 9.75928
285 9.60579
290 7.83173
295 6.38039
300 7.61197
305 9.82205
310 9.02291
315 7.25251
320 8.8742
325 10.0348
330 10.3921
335 8.57947
340 8.93208
345 12.8188
350 10.2464
355 9.32754
360 9.91356
365 10.6588
370 8.48843
375 9.83759
380 9.47923
385 12.2058
390 8.90106
395 10.4625
400 11.1846
405 13.3725
410 11.2267
415 11.2374
420 10.224
425 14.3881
430 11.8586
435 8.71686
440 11.3205
445 11.9485
450 12.8995
455 11.3473
460 9.28666
465 9.27546
470 8.54949
475 10.11
480 12.7876
485 10.3744
490 11.1471
495 10.4985
500 8.98244
505 9.66917
510 9.61314
515 9.10816
520 10.4399
525 8.146
530 9.70584
535 10.9348
540 7.98865
545 10.8928
550 7.58084
555 7.59589
560 8.65698
565 9.86408
570 9.26941
575 8.50936
580 10.3015
585 11.7713
590 9.26225
595 7.50071
600 11.7095
Ex : 248
200 7.97264
205 7.90031
210 7.85232
215 9.41203
220 6.68191
225 8.13916
230 7.53803
235 9.49018
240 10.1076
245 6.51744
250 7.54136
255 7.1589
260 5.37847
265 5.56162
270 7.24192
275 7.93355
280 6.73787
285 6.9898
290 8.77668
295 7.0272
300 7.159
305 7.21289
310 7.46034
315 7.00916
320 7.14874
325 6.28162
330 9.42463
335 7.37135
340 7.77256
345 8.09496
350 8.62245
355 9.82708
360 9.24729
365 8.17486
370 9.66532
375 10.1908
380 8.62372
385 10.819
390 7.46404
395 9.93366
400 8.43015
405 10.0615
410 9.81412
415 9.03777
420 6.91187
425 9.67953
430 8.39542
435 9.08437
440 9.02038
445 6.86956
450 12.9101
455 9.42327
460 6.72254
465 10.193
470 9.48265
475 7.58053
480 7.84485
485 9.50116
490 10.0547
495 10.498
500 7.32555
505 7.44036
510 7.62177
515 5.7895
520 8.54907
525 8.9598
530 7.36979
535 7.44413
540 7.3986
545 6.87695
550 8.74974
555 7.73842
560 8.79193
565 6.27685
570 7.53103
575 8.44145
580 7.11158
585 7.00162
590 6.63512
595 7.00413
600 8.13987
Ex : 253
200 6.37129
205 5.36988
210 5.23465
215 5.78475
220 6.49562
225 6.01285
230 6.94915
235 6.16407
240 5.54767
245 6.18863
250 5.14628
255 4.2785
260 4.35214
265 5.92523
270 5.431
275 6.63386
280 6.02771
285 7.70876
290 6.53859
295 6.42762
300 5.53226
305 4.71408
310 4.7937
315 3.97141
320 5.52154
325 7.34683
330 7.72947
335 7.20657
340 7.17859
345 7.83502
350 8.20716
355 6.72289
360 5.79687
365 8.62453
370 8.6203
375 7.26827
380 7.9101
385 6.95732
390 6.30515
395 5.81596
400 8.64889
405 8.03082
410 6.355
415 7.93111
420 6.95971
425 4.63439
430 6.9699
435 7.3035
440 7.39072
445 7.83195
450 7.81292
455 9.1068
460 7.7396
465 6.44205
470 9.13544
475 8.60213
480 7.69492
485 7.55558
490 6.9783
495 7.83767
500 7.04597
505 8.03661
510 6.97354
515 7.11876
520 5.7283
525 7.41826
530 8.31233
535 7.74303
540 6.59977
545 6.62486
550 7.4933
555 7.56379
560 7.00706
565 6.72676
570 6.60706
575 6.04559
580 4.97522
585 4.65633
590 7.93663
595 4.68018
600 5.47001
Ex : 258
200 4.22543
205 4.09041
210 3.69454
215 5.32968
220 5.46104
225 4.01458
230 3.51237
235 3.56944
240 3.34984
245 3.4803
250 3.72412
255 4.59804
260 5.14615
265 5.4787
270 4.4279
275 4.4322
280 4.4593
285 4.40878
290 4.36421
295 4.58321
300 4.84728
305 4.09305
310 3.14645
315 5.98929
320 5.55483
325 5.0889
330 5.01721
335 6.05177
340 6.1726
345 5.34278
350 5.80513
355 6.72465
360 5.69267
365 5.99944
370 6.88267
375 7.10412
380 6.58968
385 6.41395
390 5.72786
395 5.32499
400 6.79417
405 7.23681
410 6.8325
415 6.22011
420 6.76471
425 6.88859
430 6.52677
435 6.49266
440 5.28274
445 6.09012
450 4.99995
455 4.85916
460 5.68731
465 4.84726
470 4.80641
475 6.00611
480 6.54696
485 5.75339
490 6.71015
495 5.93458
500 6.03012
505 5.28778
510 6.05715
515 6.93417
520 6.0488
525 6.08284
530 6.01665
535 5.32865
540 4.08802
545 5.62318
550 5.25392
555 4.97425
560 4.6971
565 4.51648
570 4.95726
575 4.36856
580 4.97059
585 5.9796
590 6.30524
595 5.26126
600 7.98374
Ex : 263
200 3.14137
205 3.51515
210 3.66822
215 2.95138
220 3.64203
225 4.02125
230 2.9498
235 2.99971
240 3.62747
245 2.79862
250 3.51947
255 3.2329
260 3.02258
265 3.44033
270 3.77628
275 4.08434
280 2.94218
285 3.9909
290 3.84226
295 3.87178
300 3.47766
305 2.87119
310 3.88082
315 4.14416
320 4.24553
325 3.74309
330 3.58062
335 4.44243
340 5.49918
345 4.77157
350 4.94118
355 4.29804
360 4.36111
365 5.76232
370 5.00497
375 5.14804
380 5.17774
385 3.92139
390 5.76885
395 4.20919
400 4.09954
405 4.90157
410 4.81426
415 5.9662
420 4.80445
425 4.46683
430 4.75761
435 3.9306
440 3.80866
445 4.51556
450 4.65303
455 4.78009
460 4.62314
465 5.08503
470 4.24932
475 4.90659
480 5.56171
485 4.83645
490 4.80602
495 4.83022
500 4.27172
505 5.12368
510 4.62979
515 4.89208
520 4.45464
525 3.90763
530 4.38542
535 4.02263
540 3.51629
545 3.67657
550 3.95784
555 3.82452
560 3.86045
565 3.81671
570 3.33714
575 4.44563
580 2.61181
585 3.98436
590 3.43089
595 3.31147
600 6.81658
Ex : 268
200 2.45475
205 2.61967
210 2.70968
215 2.62803
220 2.34854
225 2.912
230 2.15436
235 3.0344
240 2.27129
245 2.3025
250 3.34068
255 2.19383
260 2.69686
265 2.97159
270 2.53208
275 2.42144
280 2.63014
285 2.44287
290 2.33121
295 1.94237
300 3.37969
305 3.00331
310 2.70325
315 2.82909
320 3.05431
325 3.17313
330 2.85184
335 2.80899
340 3.3313
345 4.17458
350 4.06058
355 3.75547
360 4.19951
365 3.67448
370 3.40014
375 4.57967
380 4.09505
385 3.44601
390 3.13979
395 3.70065
400 3.72415
405 3.33891
410 3.65274
415 3.8966
420 3.80913
425 3.59415
430 3.11458
435 3.60727
440 3.88978
445 4.23752
450 4.44313
455 3.59743
460 4.1005
465 4.43001
470 4.83621
475 3.52635
480 3.23464
485 3.41493
490 3.22982
495 3.35341
500 3.18706
505 3.81781
510 3.4039
515 3.5113
520 3.71873
525 4.11025
530 5.90304
535 3.65055
540 2.62002
545 2.90295
550 3.27918
555 2.81603
560 3.70821
565 3.67826
570 3.52758
575 1.93661
580 3.79286
585 3.14107
590 3.31111
595 2.53217
600 6.11178
Ex : 273
200 3.07963
205 2.61694
210 1.9197
215 3.0484
220 2.52845
225 1.94399
230 2.20652
235 2.06897
240 2.04151
245 1.96292
250 2.64249
255 2.32405
260 2.09651
265 2.55456
270 1.82013
275 1.87011
280 1.97589
285 2.07007
290 2.66714
295 2.19914
300 1.75689
305 2.81818
310 2.06623
315 1.82424
320 3.05922
325 2.81036
330 2.86235
335 3.28636
340 3.24768
345 3.14651
350 3.31066
355 3.9693
360 2.94894
365 2.72061
370 2.76952
375 3.03414
380 3.15694
385 2.83829
390 3.4886
395 3.34209
400 2.92221
405 3.11604
410 3.93486
415 3.95998
420 3.48212
425 3.43657
430 3.49194
435 3.39517
440 3.29165
445 2.97749
450 3.29339
455 2.45773
460 3.84953
465 2.99997
470 2.58932
475 2.99165
480 3.04591
485 3.29287
490 3.24199
495 2.76367
500 2.76449
505 2.38577
510 3.38912
515 2.46271
520 2.61162
525 2.7334
530 3.00918
535 2.45786
540 3.44747
545 3.04339
550 2.64995
555 2.2079
560 2.47259
565 2.04544
570 2.69099
575 2.45234
580 1.59332
585 2.3174
590 2.43793
595 2.13086
600 1.43545
Ex : 278
200 1.33179
205 1.37605
210 2.18092
215 2.2051
220 1.68419
225 1.89085
230 2.53549
235 2.3874
240 1.57799
245 2.19699
250 1.37513
255 1.74149
260 1.68348
265 2.02369
270 1.74428
275 1.69491
280 1.93259
285 1.55886
290 1.58685
295 1.99548
300 2.2626
305 1.73703
310 1.68776
315 1.86129
320 1.84451
325 1.57049
330 2.71495
335 1.85964
340 2.63169
345 2.57691
350 2.35152
355 2.72691
360 2.45341
365 2.43179
370 2.81636
375 3.10776
380 2.25638
385 2.59269
390 2.55564
395 2.80014
400 2.57355
405 2.70672
410 2.07974
415 2.46313
420 2.80716
425 2.82261
430 2.85803
435 2.93713
440 2.22815
445 2.90194
450 2.96631
455 3.3298
460 2.6776
465 2.25908
470 2.29617
475 2.03166
480 2.15256
485 2.36772
490 2.06093
495 2.21181
500 3.09938
505 2.53609
510 2.01436
515 1.80657
520 2.44517
525 2.23816
530 3.15518
535 1.85131
540 2.27366
545 2.73899
550 2.86669
555 3.28482
560 2.46646
565 1.91564
570 1.80795
575 1.76147
580 2.06618
585 1.90546
590 1.95041
595 1.93473
600 1.53518
Ex : 283
200 1.55035
205 1.34007
210 1.46516
215 1.87808
220 1.69472
225 1.73054
230 2.00539
235 1.96633
240 1.80864
245 1.49793
250 1.79987
255 1.47287
260 1.27863
265 1.2769
270 1.43365
275 2.05735
280 1.77462
285 1.47612
290 1.88792
295 1.59104
300 1.41461
305 1.54163
310 1.44366
315 1.49301
320 2.31322
325 1.69655
330 1.84967
335 2.07703
340 2.321
345 2.13834
350 2.19642
355 2.40339
360 2.03151
365 2.13043
370 2.48099
375 2.44159
380 2.12624
385 2.23577
390 2.84442
395 2.89001
400 2.35912
405 2.21536
410 2.47535
415 2.41248
420 2.42962
425 1.855
430 2.13292
435 2.06695
440 1.94003
445 2.35886
450 2.08652
455 2.54662
460 2.12931
465 2.11591
470 2.31766
475 2.07298
480 1.96477
485 2.09259
490 1.70517
495 1.80522
500 2.18375
505 1.74214
510 1.84169
515 2.2638
520 1.4998
525 1.74319
530 1.83578
535 1.61893
540 1.74411
545 2.11117
550 1.67953
555 1.8774
560 2.46622
565 1.97489
570 2.0516
575 1.86376
580 1.3991
585 1.65137
590 1.28386
595 1.36847
600 0.995288
Ex : 288
200 1.0534
205 1.30964
210 1.20921
215 1.26646
220 1.4996
225 1.60688
230 1.44169
235 2.08473
240 1.33549
245 1.3937
250 1.56334
255 1.4001
260 1.17887
265 1.32784
270 1.08949
275 1.47178
280 1.1736
285 1.40087
290 1.71389
295 1.2432
300 1.4744
305 0.990102
310 1.41631
315 1.333
320 1.79038
325 1.38917
330 1.6815
335 2.13074
340 1.71322
345 1.35259
350 2.08935
355 1.93175
360 2.16765
365 2.30322
370 1.99258
375 1.98481
380 2.17464
385 2.59672
390 2.54933
395 2.44142
400 2.20987
405 2.44885
410 2.10216
415 2.34281
420 1.78723
425 2.22092
430 2.38254
435 2.31809
440 2.15148
445 2.12228
450 1.74238
455 2.03011
460 2.11151
465 1.94656
470 1.77152
475 2.02079
480 2.05165
485 2.63525
490 1.80691
495 1.55207
500 1.71086
505 1.40008
510 1.65175
515 1.27035
520 1.54424
525 1.9055
530 1.58153
535 1.28458
540 1.26509
545 1.3468
550 1.49757
555 1.2354
560 1.41157
565 1.88751
570 2.01372
575 1.986
580 1.53126
585 1.46363
590 1.4766
595 1.09946
600 0.125114
Ex : 293
200 1.13327
205 1.2948
210 1.06043
215 0.983879
220 1.16183
225 1.10683
230 1.13722
235 1.26327
240 1.42442
245 1.24039
250 1.2312
255 1.04769
260 0.999293
265 0.99207
270 1.23301
275 0.878883
280 0.913841
285 1.27864
290 1.65139
295 1.25584
300 1.00918
305 1.16803
310 1.20279
315 0.845671
320 1.25704
325 1.30247
330 1.29615
335 1.57605
340 1.83622
345 1.94251
350 1.98277
355 1.62312
360 2.04966
365 1.70214
370 1.77196
375 2.01098
380 2.08921
385 1.73099
390 1.95084
395 1.90628
400 2.00631
405 2.30356
410 2.12553
415 1.83467
420 2.07352
425 2.01903
430 2.00175
435 1.81885
440 1.67112
445 2.18126
450 1.56278
455 1.68603
460 1.64501
465 1.64145
470 1.7103
475 1.29756
480 1.85806
485 1.69559
490 1.68125
495 1.47699
500 1.48519
505 1.4009
510 1.61808
515 0.955853
520 1.24073
525 1.32375
530 1.28669
535 1.29543
540 1.50798
545 1.39967
550 1.15275
555 1.56381
560 1.09101
565 1.12087
570 1.24176
575 1.57104
580 1.9516
585 1.62422
590 1.75817
595 1.10883
600 2.58414
Ex : 298
200 1.05856
205 0.788345
210 0.832805
215 0.795249
220 0.751303
225 1.05663
230 0.771092
235 0.827385
240 1.02951
245 0.917747
250 0.77205
255 0.846173
260 0.986464
265 1.07423
270 0.69756
275 0.850865
280 0.765529
285 1.09646
290 1.3601
295 1.44878
300 1.22509
305 1.03821
310 1.17745
315 0.815903
320 0.86077
325 1.29035
330 1.48668
335 1.61234
340 1.6224
345 1.35956
350 1.6086
355 1.8476
360 1.84726
365 1.89026
370 1.68426
375 1.65702
380 1.67331
385 1.87417
390 2.15653
395 2.14268
400 1.96326
405 2.18796
410 2.18864
415 1.57981
420 1.96298
425 1.93968
430 1.83599
435 1.41038
440 1.66977
445 1.62268
450 1.62941
455 1.81043
460 1.46828
465 1.51133
470 1.62797
475 1.58086
480 1.56287
485 1.59592
490 1.43518
495 1.09394
500 1.19658
505 1.28859
510 1.33913
515 1.34876
520 1.06416
525 1.01985
530 1.24052
535 0.957236
540 1.32473
545 1.26964
550 1.21981
555 1.18026
560 1.00799
565 0.976629
570 1.03993
575 1.09472
580 0.842217
585 1.16344
590 1.3629
595 1.31673
600 1.26523
Ex : 303
200 0.613516
205 0.765044
210 0.785508
215 0.859363
220 0.805695
225 0.741943
230 1.03332
235 0.928822
240 0.742518
245 0.858876
250 0.900722
255 0.698411
260 1.0133
265 0.757823
270 0.70955
275 0.839946
280 0.74988
285 0.618945
290 0.834541
295 1.03888
300 1.0649
305 0.84347
310 0.911775
315 1.00554
320 0.835464
325 1.32773
330 1.53056
335 1.72885
340 1.55888
345 1.35153
350 1.42088
355 1.44863
360 1.5974
365 1.57756
370 1.48274
375 1.81984
380 1.60224
385 1.61218
390 1.81838
395 1.75395
400 1.73907
405 1.79936
410 2.06604
415 1.6308
420 1.5873
425 1.35518
430 1.66249
435 1.76633
440 2.03898
445 1.5154
450 1.78988
455 1.39248
460 1.7259
465 1.64248
470 1.43877
475 1.1545
480 1.26342
485 1.34818
490 1.17894
495 1.24843
500 1.05932
505 1.17013
510 0.962115
515 1.32399
520 1.24159
525 0.717196
530 1.15363
535 1.06998
540 1.04362
545 1.15451
550 1.0126
555 0.98347
560 0.873258
565 1.11124
570 0.979147
575 1.20744
580 0.877054
585 0.714671
590 0.667551
595 1.23123
600 2.16764
Ex : 308
200 0.608974
205 0.548937
210 0.693019
215 0.651415
220 0.688118
225 0.706644
230 0.884771
235 0.623798
240 0.70057
245 0.586085
250 0.626912
255 0.722013
260 0.826968
265 0.657502
270 0.870204
275 0.801327
280 0.677146
285 0.879947
290 0.894815
295 0.740126
300 1.00235
305 1.27383
310 0.91397
315 0.664351
320 0.836229
325 1.25828
330 1.29645
335 1.4365
340 1.75338
345 1.63
350 1.41277
355 1.37851
360 1.37444
365 1.59293
370 1.25655
375 1.46981
380 1.61921
385 1.59983
390 1.65246
395 1.96623
400 1.90322
405 1.70528
410 1.64138
415 1.69517
420 1.65756
425 1.76725
430 1.48901
435 1.66336
440 1.83372
445 1.52371
450 1.31012
455 1.56449
460 1.33516
465 1.49352
470 1.2996
475 1.43362
480 1.00448
485 1.20169
490 1.12699
495 0.960608
500 1.217
505 1.02856
510 0.898959
515 0.842919
520 0.716319
525 0.941952
530 0.744747
535 0.776811
540 0.719911
545 0.837738
550 0.879704
555 0.973713
560 1.0378
565 0.831034
570 0.847481
575 0.838615
580 0.799843
585 0.924249
590 0.587519
595 0.674988
600 0.675286
Ex : 313
200 0.924719
205 0.625191
210 0.885114
215 0.551903
220 0.657257
225 0.615872
230 0.524775
235 0.641342
240 0.685811
245 0.550424
250 0.616302
255 0.848463
260 0.667493
265 0.566141
270 0.577897
275 0.639102
280 0.693459
285 0.656395
290 0.669581
295 0.717963
300 0.582969
305 1.02182
310 1.15128
315 0.784401
320 0.786016
325 1.07509
330 1.52878
335 1.48722
340 1.56448
345 1.55341
350 1.46698
355 1.66999
360 1.50522
365 1.41081
370 1.65055
375 1.71535
380 1.86173
385 1.89698
390 1.89437
395 1.93028
400 2.04478
405 2.02023
410 2.41557
415 2.18155
420 1.62483
425 1.78423
430 1.80023
435 1.70444
440 1.73659
445 1.72604
450 1.55628
455 1.77721
460 1.55848
465 1.48284
470 1.35868
475 1.53084
480 1.46811
485 1.3602
490 1.22241
495 1.16756
500 1.10179
505 0.914505
510 0.991716
515 0.991995
520 1.17302
525 0.909278
530 0.826571
535 0.919626
540 0.692207
545 1.0447
550 0.719472
555 0.917947
560 0.941551
565 0.673189
570 0.742603
575 0.596502
580 0.667977
585 0.638197
590 0.56659
595 0.587146
600 1.71973
Ex : 318
200 0.511176
205 0.73565
210 0.521995
215 0.497217
220 0.689397
225 0.551767
230 0.491172
235 0.708565
240 0.716429
245 0.525067
250 0.621798
255 0.84533
260 0.721493
265 0.711114
270 0.522277
275 0.661038
280 0.634954
285 0.663204
290 0.655681
295 0.609942
300 0.566354
305 0.628337
310 1.14836
315 3.47304
320 2.74294
325 1.74837
330 2.19894
335 2.59815
340 2.50127
345 3.17005
350 3.44606
355 4.13153
360 4.94509
365 5.41403
370 6.62884
375 7.52407
380 8.10013
385 9.20487
390 9.88256
395 10.1061
400 11.0123
405 11.4327
410 11.5336
415 11.2872
420 10.823
425 10.2318
430 9.81485
435 9.23157
440 8.77816
445 8.63239
450 8.48708
455 7.75623
460 7.40042
465 7.64243
470 6.48833
475 5.31247
480 5.03117
485 5.05394
490 4.30791
495 3.88435
500 3.65844
505 3.34906
510 2.87144
515 2.80165
520 2.4821
525 2.10855
530 1.98056
535 1.56851
540 1.41808
545 1.29735
550 1.42744
555 1.23276
560 1.25984
565 1.09292
570 1.00529
575 0.873158
580 0.752124
585 0.821735
590 0.778644
595 0.598606
600 0.511221
Ex : 323
200 0.538714
205 0.545026
210 0.622216
215 0.537958
220 0.5182
225 0.574016
230 0.498406
235 0.624321
240 0.645342
245 0.691106
250 0.503629
255 0.520496
260 0.606314
265 0.599652
270 0.524767
275 0.634731
280 0.601412
285 0.42139
290 0.667054
295 0.731691
300 0.555067
305 0.491676
310 0.782956
315 24.46
320 106.336
325 44.5318
330 8.66385
335 5.33578
340 6.00393
345 7.49285
350 10.4411
355 13.7474
360 16.4936
365 19.1759
370 22.2145
375 26.3091
380 29.4134
385 32.2074
390 35.5245
395 36.9334
400 38.7542
405 40.4334
410 39.3509
415 39.0485
420 38.3436
425 37.0938
430 35.7181
435 34.8038
440 33.4347
445 31.5873
450 30.2727
455 27.768
460 26.4902
465 24.6362
470 22.388
475 20.6518
480 18.8646
485 17.1541
490 15.3813
495 13.8165
500 11.8327
505 10.6055
510 9.49216
515 8.68981
520 7.3298
525 6.67428
530 5.29487
535 4.64355
540 4.24041
545 4.05773
550 3.31507
555 3.11259
560 2.35829
565 2.25427
570 1.89073
575 1.41316
580 1.40822
585 1.38171
590 0.990997
595 0.882629
600 0.10044
Ex : 328
200 0.564957
205 0.595656
210 0.518697
215 0.622665
220 0.562777
225 0.620161
230 0.525077
235 0.528253
240 0.493151
245 0.593206
250 0.687041
255 0.561096
260 0.642629
265 0.702355
270 0.586098
275 0.606955
280 0.576161
285 0.521567
290 0.635707
295 0.654561
300 0.746712
305 0.708929
310 0.752843
315 7.2205
320 255.494
325 588.304
330 174.443
335 26.1573
340 10.1772
345 8.82841
350 10.9653
355 14.907
360 20.7367
365 22.3666
370 24.5771
375 27.8707
380 30.8665
385 34.9919
390 37.654
395 39.7158
400 40.6318
405 42.1653
410 42.4053
415 42.4718
420 41.2879
425 40.2843
430 37.6348
435 36.8956
440 34.5375
445 31.9375
450 30.694
455 29.8574
460 26.9702
465 25.3023
470 22.9645
475 20.939
480 19.3787
485 17.6222
490 16.1794
495 13.9479
500 12.547
505 10.8294
510 9.88367
515 8.68302
520 7.48739
525 7.00188
530 5.90635
535 5.35143
540 4.69448
545 4.06147
550 3.48859
555 3.36291
560 3.0052
565 2.4449
570 2.35429
575 1.869
580 1.66657
585 1.30854
590 1.08292
595 0.941832
600 0.254877
Ex : 333
200 0.55296
205 0.505459
210 0.453855
215 0.534883
220 0.569273
225 0.475333
230 0.497683
235 0.664266
240 0.715156
245 0.579697
250 0.49941
255 0.567252
260 0.669549
265 0.659333
270 0.570517
275 0.655834
280 0.532547
285 0.60379
290 0.604908
295 0.720595
300 0.72191
305 0.971767
310 0.861137
315 1.25411
320 35.7242
325 718.604
330 1217.26
335 307.794
340 41.8346
345 11.4869
350 8.18195
355 8.12225
360 10.9233
365 16.0788
370 16.8587
375 16.4729
380 18.1557
385 19.7879
390 21.8461
395 22.5265
400 23.8578
405 23.7106
410 24.9081
415 24.6316
420 23.804
425 22.522
430 21.4959
435 20.0552
440 19.6754
445 18.3311
450 17.3388
455 16.2423
460 14.4737
465 13.9525
470 12.7279
475 12.088
480 10.6622
485 9.43666
490 8.88117
495 8.47572
500 7.40438
505 6.17851
510 5.85876
515 5.34678
520 4.6855
525 3.96792
530 3.59974
535 3.24718
540 2.97978
545 2.59455
550 2.35528
555 2.19053
560 2.18102
565 1.91677
570 1.67639
575 1.516
580 1.35108
585 1.19027
590 1.03525
595 0.969102
600 1.03739
Ex : 338
200 0.700685
205 0.537907
210 0.470674
215 0.545348
220 0.480893
225 0.464948
230 0.461543
235 0.586805
240 0.558716
245 0.625512
250 0.667422
255 0.617054
260 0.576557
265 0.551905
270 0.537147
275 0.611358
280 0.658574
285 0.735884
290 0.668635
295 0.720654
300 0.744491
305 0.816795
310 0.913926
315 1.21584
320 1.90326
325 68.732
330 1082.56
335 1582.11
340 379.893
345 49.1767
350 11.1726
355 6.29233
360 5.37667
365 7.25852
370 11.6402
375 11.8292
380 10.2526
385 10.452
390 12.1834
395 12.6215
400 12.5447
405 12.3585
410 13.5308
415 13.4574
420 13.0668
425 12.7222
430 11.738
435 11.2186
440 10.7175
445 10.2253
450 9.86605
455 8.67193
460 8.26606
465 8.03013
470 7.26562
475 6.60625
480 5.97924
485 5.92751
490 5.28267
495 4.81675
500 4.45051
505 3.82219
510 3.74029
515 3.24495
520 2.80458
525 2.57433
530 2.52545
535 2.37888
540 2.18308
545 2.07752
550 1.76867
555 1.74425
560 1.68753
565 1.40692
570 1.56283
575 1.3401
580 1.34246
585 1.13729
590 1.22967
595 1.12881
600 1.11381
Ex : 343
200 0.505199
205 0.618986
210 0.402438
215 0.601737
220 0.52495
225 0.482424
230 0.634898
235 0.563194
240 0.540019
245 0.514349
250 0.542102
255 0.622321
260 0.485508
265 0.4495
270 0.615224
275 0.666752
280 0.626299
285 0.521035
290 0.629271
295 0.758382
300 0.797564
305 0.685039
310 0.90761
315 0.928193
320 1.03533
325 2.07689
330 80.8601
335 1232.23
340 1771.16
345 414.842
350 53.0992
355 10.8938
360 5.48019
365 4.05309
370 4.91674
375 8.59277
380 9.13883
385 8.94306
390 9.07761
395 9.13619
400 9.22258
405 9.21534
410 10.1749
415 10.3603
420 9.78121
425 9.02423
430 8.80369
435 8.71985
440 8.24175
445 7.85019
450 6.96293
455 7.3365
460 6.53263
465 6.27463
470 5.77133
475 5.70814
480 5.24192
485 4.6518
490 4.30849
495 3.97721
500 3.69018
505 3.90948
510 3.0094
515 2.85415
520 2.78741
525 2.50768
530 2.19571
535 2.03515
540 1.88165
545 1.94616
550 1.97741
555 1.55988
560 1.60517
565 1.41874
570 1.30482
575 1.15917
580 1.12867
585 1.04719
590 1.12613
595 0.910442
600 1.09272
Ex : 348
200 0.525596
205 0.569065
210 0.47176
215 0.528895
220 0.533369
225 0.382367
230 0.663702
235 0.5252
240 0.445413
245 0.33585
250 0.513832
255 0.616321
260 0.501833
265 0.563436
270 0.655978
275 0.47337
280 0.486323
285 0.579031
290 0.511607
295 0.563059
300 0.643807
305 0.608667
310 0.724589
315 0.877898
320 1.03456
325 1.35177
330 2.43847
335 80.4689
340 1256.66
345 1865.37
350 467.161
355 58.3021
360 10.8277
365 4.94369
370 3.56637
375 3.79463
380 7.64785
385 11.1532
390 11.3986
395 10.3928
400 9.38689
405 9.55472
410 10.4339
415 10.9486
420 10.3662
425 9.64138
430 8.84578
435 8.91959
440 8.9251
445 8.54162
450 7.21862
455 7.14177
460 6.43336
465 6.30356
470 6.15929
475 5.53541
480 5.04889
485 4.90595
490 4.4105
495 4.29695
500 3.87145
505 3.48165
510 3.15656
515 2.91911
520 2.65692
525 2.45477
530 2.24255
535 2.18433
540 1.78573
545 1.95164
550 1.86431
555 1.48486
560 1.37142
565 1.25501
570 1.29475
575 1.20923
580 0.994015
585 0.949695
590 0.96839
595 0.902544
600 1.25002
Ex : 353
200 0.454283
205 0.464324
210 0.317012
215 0.473574
220 0.430527
225 0.502506
230 0.448505
235 0.414724
240 0.42086
245 0.536747
250 0.409711
255 0.447154
260 0.531114
265 0.485312
270 0.435599
275 0.520186
280 0.560452
285 0.486507
290 0.460555
295 0.553282
300 0.56619
305 0.60173
310 0.661947
315 0.766961
320 0.832481
325 1.12013
330 1.62934
335 2.8479
340 83.8072
345 1307.94
350 1870.45
355 452.058
360 56.4604
365 10.2987
370 4.63631
375 3.36164
380 3.9983
385 8.02871
390 12.9343
395 12.7487
400 10.9518
405 10.1149
410 10.8369
415 11.7813
420 11.674
425 10.1223
430 9.77003
435 8.73314
440 9.02257
445 8.38412
450 7.97414
455 7.19834
460 6.80652
465 6.35768
470 6.39063
475 5.55132
480 4.93325
485 4.68555
490 4.52816
495 4.10953
500 3.84898
505 3.60675
510 3.32306
515 2.93167
520 2.8387
525 2.44542
530 2.41989
535 1.9637
540 1.92812
545 1.92128
550 1.65498
555 1.48267
560 1.42725
565 1.26832
570 1.22739
575 1.17663
580 1.09355
585 0.772413
590 0.730132
595 0.756422
600 0.840086
Ex : 358
200 0.479248
205 0.327535
210 0.350479
215 0.424279
220 0.362291
225 0.402411
230 0.346872
235 0.44719
240 0.440497
245 0.472045
250 0.466854
255 0.486124
260 0.426472
265 0.48692
270 0.466869
275 0.47154
280 0.438529
285 0.456662
290 0.525112
295 0.455749
300 0.493264
305 0.664371
310 0.641947
315 0.588431
320 0.592413
325 0.881917
330 1.10934
335 1.84142
340 2.85111
345 80.2067
350 1269.28
355 1901.04
360 466.82
365 57.991
370 10.1954
375 4.65953
380 4.19521
385 5.50916
390 8.74161
395 12.939
400 11.834
405 10.3496
410 10.5614
415 10.9606
420 10.3576
425 9.36031
430 8.74903
435 8.26781
440 8.59822
445 8.08055
450 7.30507
455 6.88665
460 6.66883
465 6.03772
470 6.17139
475 5.95383
480 5.25535
485 5.0899
490 4.66007
495 4.20635
500 3.85987
505 3.63734
510 3.5253
515 2.968
520 2.6995
525 2.67535
530 2.30494
535 2.13916
540 1.85547
545 1.77141
550 1.62544
555 1.40564
560 1.41529
565 1.31909
570 1.21784
575 1.02033
580 1.07396
585 0.860369
590 0.849503
595 0.715112
600 2.60751
Ex : 363
200 0.467488
205 0.388091
210 0.363348
215 0.339715
220 0.385309
225 0.359762
230 0.34428
235 0.379196
240 0.405549
245 0.374636
250 0.419356
255 0.462746
260 0.470364
265 0.295931
270 0.448864
275 0.428532
280 0.365806
285 0.424288
290 0.492718
295 0.454984
300 0.474471
305 0.467091
310 0.54013
315 0.491374
320 0.600958
325 0.730242
330 0.920659
335 1.23255
340 1.60486
345 2.86144
350 73.5863
355 1233.01
360 1897.84
365 486.716
370 60.4984
375 10.8267
380 5.84244
385 6.5459
390 8.35699
395 9.34417
400 12.0905
405 13.2002
410 12.7718
415 12.4701
420 10.9964
425 9.73333
430 9.13245
435 9.64633
440 9.12954
445 8.72735
450 7.97929
455 7.3366
460 6.99702
465 6.9082
470 6.48713
475 6.01633
480 5.19987
485 5.24399
490 4.70679
495 4.59441
500 3.95692
505 3.6704
510 3.57422
515 3.39025
520 3.0285
525 2.48953
530 2.39264
535 2.17411
540 2.07161
545 1.94556
550 1.58019
555 1.43289
560 1.46477
565 1.33279
570 1.26615
575 1.01311
580 0.933024
585 0.897805
590 0.727015
595 0.816702
600 1.00044
Ex : 368
200 0.301569
205 0.314434
210 0.407882
215 0.298815
220 0.310871
225 0.374706
230 0.426277
235 0.42924
240 0.393014
245 0.399071
250 0.407561
255 0.44651
260 0.327414
265 0.501954
270 0.411927
275 0.386297
280 0.402961
285 0.330963
290 0.410193
295 0.50729
300 0.486034
305 0.503598
310 0.493854
315 0.494605
320 0.520705
325 0.520214
330 0.826171
335 0.905809
340 1.28433
345 1.58795
350 2.73397
355 61.9532
360 1195.45
365 1947.97
370 512.35
375 63.6123
380 12.1253
385 8.4836
390 10.4003
395 10.9573
400 10.5662
405 13.3575
410 16.7063
415 16.4207
420 14.6937
425 11.8785
430 10.6286
435 10.9364
440 10.7363
445 10.01
450 9.40351
455 8.4312
460 7.75561
465 7.46617
470 7.13025
475 6.51238
480 6.14385
485 5.77458
490 5.2311
495 4.76128
500 4.39828
505 4.1473
510 3.58801
515 3.19347
520 2.97395
525 2.87993
530 2.40323
535 2.23957
540 2.07967
545 1.90609
550 1.7439
555 1.62281
560 1.57552
565 1.43133
570 1.23255
575 1.08467
580 0.982823
585 0.727804
590 0.728315
595 0.69037
600 0.753194
Ex : 373
200 0.360821
205 0.330075
210 0.319247
215 0.365872
220 0.372959
225 0.345844
230 0.326055
235 0.407771
240 0.374771
245 0.364862
250 0.450509
255 0.363352
260 0.391111
265 0.404436
270 0.30203
275 0.419672
280 0.344193
285 0.372096
290 0.438964
295 0.451597
300 0.42487
305 0.41906
310 0.392743
315 0.44899
320 0.483226
325 0.610521
330 0.685361
335 0.783987
340 0.86727
345 1.22475
350 1.69739
355 2.66339
360 72.2495
365 1223.6
370 1935.67
375 505.233
380 63.3468
385 13.4058
390 11.1304
395 12.1415
400 10.4751
405 10.095
410 13.4707
415 17.5695
420 15.8246
425 13.1257
430 10.9409
435 9.96498
440 10.0701
445 9.64275
450 9.1819
455 7.97063
460 7.65129
465 7.12837
470 6.60587
475 6.37046
480 5.79602
485 5.50937
490 5.17248
495 4.70668
500 4.42559
505 3.97844
510 3.53452
515 3.32754
520 2.92647
525 2.61974
530 2.63272
535 2.18636
540 2.008
545 1.80888
550 1.66662
555 1.42445
560 1.29196
565 1.38682
570 1.08606
575 0.950356
580 0.868399
585 0.74062
590 0.755094
595 0.562414
600 0.829014
Ex : 378
200 0.360373
205 0.364444
210 0.352874
215 0.29401
220 0.322955
225 0.404331
230 0.309617
235 0.331763
240 0.3048
245 0.374359
250 0.335454
255 0.242876
260 0.449414
265 0.33534
270 0.326988
275 0.432928
280 0.323879
285 0.315298
290 0.305703
295 0.381458
300 0.377867
305 0.353658
310 0.40787
315 0.460906
320 0.481599
325 0.542974
330 0.605361
335 0.764657
340 0.831894
345 0.986849
350 1.14763
355 1.58941
360 2.87049
365 68.7191
370 1237.17
375 1982.14
380 522.13
385 66.4018
390 15.4706
395 10.2888
400 8.93746
405 8.18109
410 8.98953
415 11.1835
420 13.1996
425 11.8192
430 9.7459
435 8.92852
440 8.5721
445 8.0028
450 7.38254
455 6.75927
460 6.36976
465 6.23258
470 6.28163
475 5.66326
480 5.47595
485 5.1719
490 4.78257
495 4.33527
500 4.05243
505 3.90716
510 3.65157
515 3.19613
520 2.8196
525 2.65553
530 2.4981
535 2.2137
540 1.94258
545 1.87562
550 1.778
555 1.53345
560 1.51488
565 1.2404
570 1.07262
575 1.0379
580 0.867575
585 0.736568
590 0.704723
595 0.614684
600 0.264481
Ex : 383
200 0.385753
205 0.281347
210 0.294352
215 0.273761
220 0.319713
225 0.28709
230 0.303494
235 0.380744
240 0.295075
245 0.32691
250 0.367334
255 0.339693
260 0.300917
265 0.295372
270 0.371936
275 0.37722
280 0.290386
285 0.355646
290 0.354299
295 0.346215
300 0.423043
305 0.40514
310 0.421628
315 0.493691
320 0.486488
325 0.477256
330 0.51036
335 0.572065
340 0.694713
345 0.790721
350 1.00626
355 1.20463
360 1.74516
365 2.62335
370 64.4578
375 1226.19
380 2049.19
385 548.628
390 72.108
395 16.3458
400 9.48919
405 8.8719
410 9.51048
415 9.81452
420 10.5023
425 11.5507
430 10.9153
435 9.79655
440 9.25023
445 8.3231
450 7.34103
455 7.11922
460 6.71828
465 6.49998
470 6.04749
475 6.10076
480 5.51268
485 5.24688
490 4.90355
495 4.63838
500 4.14776
505 3.90533
510 3.53185
515 3.20414
520 2.82916
525 2.79453
530 2.52515
535 2.23748
540 2.153
545 1.9274
550 1.75726
555 1.51637
560 1.34882
565 1.25406
570 1.10614
575 0.954326
580 0.858789
585 0.668921
590 0.5988
595 0.563334
600 0.634298
Ex : 388
200 0.409144
205 0.290938
210 0.315559
215 0.358245
220 0.28378
225 0.376493
230 0.33194
235 0.27036
240 0.335476
245 0.360641
250 0.38134
255 0.340554
260 0.372243
265 0.283296
270 0.225996
275 0.300007
280 0.344924
285 0.344592
290 0.437198
295 0.407312
300 0.31654
305 0.365371
310 0.404257
315 0.459891
320 0.439124
325 0.513792
330 0.459245
335 0.550378
340 0.58831
345 0.723442
350 0.743024
355 1.00771
360 1.32418
365 1.70848
370 2.75635
375 70.2175
380 1265.58
385 2063.51
390 550.123
395 73.6316
400 17.2399
405 10.7127
410 11.6614
415 12.013
420 11.5337
425 10.3811
430 11.7087
435 12.2953
440 11.4455
445 10.1879
450 9.08855
455 7.66091
460 7.19031
465 6.78404
470 6.58211
475 6.32593
480 5.91521
485 5.35794
490 5.00786
495 4.63746
500 4.20507
505 4.05161
510 3.60371
515 3.34644
520 3.12643
525 2.65243
530 2.56009
535 2.39494
540 2.14467
545 1.78613
550 1.72222
555 1.47166
560 1.31242
565 1.2402
570 1.09009
575 1.01906
580 0.696851
585 0.790368
590 0.646986
595 0.55164
600 0.8219
Ex : 393
200 0.36447
205 0.298166
210 0.259655
215 0.293394
220 0.283649
225 0.323863
230 0.350899
235 0.302799
240 0.258536
245 0.334552
250 0.318321
255 0.323725
260 0.297602
265 0.303669
270 0.298243
275 0.315772
280 0.292904
285 0.303695
290 0.375517
295 0.274536
300 0.310696
305 0.429772
310 0.314903
315 0.349106
320 0.418616
325 0.472009
330 0.50559
335 0.514463
340 0.679546
345 0.661486
350 0.632194
355 0.743161
360 0.88875
365 1.17561
370 1.5988
375 2.6877
380 62.808
385 1268.74
390 2134.91
395 575.532
400 76.4974
405 17.6125
410 12.1149
415 13.2159
420 12.5822
425 10.6307
430 9.12126
435 10.2038
440 12.2838
445 11.3905
450 9.24551
455 8.06007
460 6.99992
465 6.68835
470 6.35034
475 6.03533
480 5.77242
485 5.16927
490 4.84146
495 4.53083
500 4.09766
505 3.7988
510 3.52793
515 3.37012
520 2.996
525 2.70154
530 2.42749
535 2.18777
540 1.9981
545 1.73118
550 1.76411
555 1.6277
560 1.43653
565 1.27646
570 1.09016
575 1.0157
580 0.763097
585 0.724198
590 0.593339
595 0.565773
600 0.165303
Ex : 398
200 0.321103
205 0.288999
210 0.330819
215 0.331566
220 0.278283
225 0.304942
230 0.265639
235 0.260826
240 0.268187
245 0.316382
250 0.313457
255 0.276088
260 0.256964
265 0.322586
270 0.274051
275 0.281406
280 0.346207
285 0.346135
290 0.3578
295 0.341946
300 0.319114
305 0.350068
310 0.377271
315 0.371648
320 0.323453
325 0.425018
330 0.379498
335 0.422895
340 0.468306
345 0.564348
350 0.632229
355 0.690157
360 0.776289
365 0.950401
370 1.21855
375 1.62973
380 2.85993
385 65.671
390 1295.44
395 2185.16
400 579.776
405 73.5206
410 15.2342
415 9.75357
420 9.19862
425 7.28949
430 6.14717
435 5.83999
440 7.32143
445 9.58035
450 8.81602
455 7.04846
460 6.28763
465 5.32057
470 5.204
475 5.01841
480 4.79479
485 4.41086
490 4.21564
495 3.77465
500 3.71071
505 3.52233
510 3.18704
515 2.88337
520 2.73878
525 2.49135
530 2.22862
535 2.03989
540 1.92917
545 1.82533
550 1.6786
555 1.47795
560 1.38873
565 1.35156
570 1.15567
575 0.914516
580 0.758398
585 0.787235
590 0.641852
595 0.475289
600 0.324453
Ex : 403
200 0.276497
205 0.30914
210 0.321669
215 0.308743
220 0.262521
225 0.303431
230 0.280818
235 0.229954
240 0.252984
245 0.313266
250 0.318366
255 0.267216
260 0.350844
265 0.303262
270 0.293396
275 0.340134
280 0.288765
285 0.301217
290 0.27712
295 0.376214
300 0.306829
305 0.343556
310 0.32909
315 0.372372
320 0.384979
325 0.359434
330 0.39054
335 0.464975
340 0.510881
345 0.472526
350 0.52162
355 0.547242
360 0.626111
365 0.805668
370 0.951204
375 1.14455
380 1.74018
385 2.8671
390 73.7891
395 1337.51
400 2188.61
405 584.926
410 72.7959
415 13.4306
420 6.3159
425 5.10011
430 4.59419
435 4.37972
440 4.43848
445 5.14651
450 6.81643
455 7.2244
460 5.8567
465 5.20016
470 4.64677
475 4.53424
480 4.14884
485 3.88726
490 3.70422
495 3.67838
500 3.53202
505 3.29738
510 3.11845
515 2.90867
520 2.78532
525 2.26072
530 2.31873
535 1.95946
540 1.79541
545 1.69754
550 1.53982
555 1.53005
560 1.14394
565 1.21218
570 1.03706
575 1.0171
580 0.808637
585 0.64849
590 0.685937
595 0.593716
600 0.38105
Ex : 408
200 0.276985
205 0.287139
210 0.246156
215 0.283172
220 0.309064
225 0.244039
230 0.317559
235 0.370104
240 0.348435
245 0.281336
250 0.255017
255 0.249516
260 0.302201
265 0.282172
270 0.310605
275 0.239211
280 0.306245
285 0.249337
290 0.297988
295 0.276441
300 0.37814
305 0.310192
310 0.395718
315 0.366546
320 0.431718
325 0.364232
330 0.418646
335 0.382009
340 0.405676
345 0.454824
350 0.498575
355 0.620474
360 0.624521
365 0.625615
370 0.705333
375 0.965036
380 1.25771
385 1.99986
390 2.86808
395 69.6514
400 1367.16
405 2228.94
410 574.21
415 71.6195
420 12.7664
425 5.49032
430 4.58886
435 4.26598
440 4.11564
445 4.19407
450 4.62063
455 5.85117
460 6.93232
465 5.87337
470 5.16085
475 4.653
480 4.28311
485 3.99234
490 3.5933
495 3.57481
500 3.32673
505 2.93532
510 2.99622
515 2.67471
520 2.58972
525 2.45
530 2.11613
535 1.8653
540 1.91551
545 1.8065
550 1.52936
555 1.35209
560 1.25515
565 1.11035
570 1.00624
575 0.892253
580 0.774423
585 0.616519
590 0.576129
595 0.473729
600 0.520643
Ex : 413
200 0.376822
205 0.278188
210 0.249772
215 0.301874
220 0.283981
225 0.258654
230 0.220174
235 0.28714
240 0.278002
245 0.259063
250 0.243382
255 0.25078
260 0.272942
265 0.271528
270 0.270116
275 0.282001
280 0.295587
285 0.300531
290 0.298608
295 0.30273
300 0.365969
305 0.393232
310 0.325571
315 0.315304
320 0.351205
325 0.279395
330 0.439066
335 0.428881
340 0.440724
345 0.490041
350 0.492244
355 0.525645
360 0.529119
365 0.641699
370 0.690306
375 0.852634
380 1.06054
385 1.17509
390 1.94932
395 2.92918
400 80.3095
405 1422.57
410 2237.54
415 562.51
420 69.9583
425 12.1798
430 5.15768
435 4.39656
440 4.42877
445 3.94996
450 3.94153
455 3.67987
460 4.91122
465 6.85697
470 5.87599
475 4.89994
480 4.41871
485 3.94306
490 3.67851
495 3.51103
500 3.24672
505 3.15315
510 2.91883
515 2.69625
520 2.43705
525 2.28038
530 2.1598
535 1.93477
540 1.75977
545 1.68023
550 1.5136
555 1.34814
560 1.31298
565 1.13029
570 1.04509
575 0.913249
580 0.820371
585 0.695487
590 0.617091
595 0.532869
600 0.711306
Ex : 418
200 0.270807
205 0.28183
210 0.286978
215 0.322571
220 0.300162
225 0.279736
230 0.261816
235 0.252148
240 0.268984
245 0.246796
250 0.317671
255 0.277363
260 0.308914
265 0.26546
270 0.347401
275 0.296294
280 0.269642
285 0.302319
290 0.266941
295 0.311596
300 0.344514
305 0.357503
310 0.27705
315 0.323007
320 0.296733
325 0.369976
330 0.362284
335 0.358383
340 0.409116
345 0.467131
350 0.500022
355 0.491335
360 0.604244
365 0.589032
370 0.590473
375 0.723319
380 0.871189
385 0.998356
390 1.20998
395 1.81658
400 2.82585
405 75.9937
410 1406.72
415 2256.66
420 583.969
425 71.401
430 11.6841
435 4.47578
440 3.83752
445 3.50337
450 3.04126
455 2.85137
460 3.04701
465 3.59552
470 5.62146
475 5.65621
480 4.3716
485 3.99023
490 3.37306
495 3.07729
500 2.93919
505 2.80884
510 2.73002
515 2.47312
520 2.36866
525 2.21018
530 2.20236
535 1.82362
540 1.72498
545 1.64657
550 1.42806
555 1.46376
560 1.27001
565 1.07699
570 0.895903
575 0.779235
580 0.726858
585 0.664788
590 0.684584
595 0.525506
600 0.590357
Ex : 423
200 0.289336
205 0.241757
210 0.263591
215 0.278949
220 0.273909
225 0.230088
230 0.283022
235 0.28306
240 0.329193
245 0.285322
250 0.298962
255 0.323704
260 0.304205
265 0.315638
270 0.306081
275 0.291043
280 0.346418
285 0.352641
290 0.316337
295 0.285645
300 0.3222
305 0.259084
310 0.319412
315 0.303437
320 0.371052
325 0.362782
330 0.380509
335 0.414954
340 0.430207
345 0.44428
350 0.450682
355 0.420105
360 0.443078
365 0.516155
370 0.556525
375 0.602237
380 0.728426
385 0.82282
390 0.927491
395 1.26292
400 1.88819
405 2.8038
410 78.3805
415 1459.9
420 2245.44
425 555.048
430 67.5307
435 10.797
440 3.81226
445 3.18595
450 2.91289
455 2.463
460 2.55234
465 2.60847
470 3.04497
475 4.67492
480 5.41301
485 4.20909
490 3.7192
495 3.27965
500 2.82763
505 2.41867
510 2.55764
515 2.16709
520 2.03648
525 2.12182
530 1.94644
535 1.91523
540 1.70673
545 1.52792
550 1.37105
555 1.3535
560 1.18539
565 1.04914
570 0.998896
575 0.865706
580 0.720998
585 0.690617
590 0.540425
595 0.504147
600 0.217703
Ex : 428
200 0.292632
205 0.306466
210 0.277442
215 0.278184
220 0.341799
225 0.283531
230 0.256972
235 0.253443
240 0.256237
245 0.303403
250 0.282523
255 0.264215
260 0.306646
265 0.244812
270 0.323284
275 0.315589
280 0.332353
285 0.302759
290 0.319863
295 0.322817
300 0.338837
305 0.278916
310 0.23711
315 0.354435
320 0.347941
325 0.292714
330 0.38216
335 0.342376
340 0.406712
345 0.423608
350 0.458141
355 0.363562
360 0.486837
365 0.550233
370 0.455448
375 0.565307
380 0.639711
385 0.760756
390 0.803794
395 1.01905
400 1.36332
405 1.96318
410 2.97826
415 86.2467
420 1463
425 2271.72
430 577.319
435 70.0918
440 10.9888
445 3.78076
450 3.0194
455 2.91325
460 2.45977
465 2.25962
470 2.38939
475 2.63915
480 3.82714
485 5.15603
490 4.00595
495 3.3438
500 2.97066
505 2.40531
510 2.37636
515 2.254
520 2.09207
525 1.93741
530 1.84298
535 1.76856
540 1.51977
545 1.49924
550 1.4698
555 1.29953
560 1.206
565 1.12838
570 0.986268
575 0.869211
580 0.792712
585 0.600133
590 0.589132
595 0.501805
600 0.666553
Ex : 433
200 0.288409
205 0.226711
210 0.324138
215 0.28006
220 0.25485
225 0.253393
230 0.242475
235 0.293245
240 0.27443
245 0.293824
250 0.317753
255 0.318996
260 0.331917
265 0.288047
270 0.382504
275 0.287416
280 0.353833
285 0.330818
290 0.358628
295 0.262977
300 0.31662
305 0.299356
310 0.332327
315 0.290977
320 0.325998
325 0.364956
330 0.378057
335 0.395781
340 0.385981
345 0.436192
350 0.45404
355 0.441999
360 0.388926
365 0.438545
370 0.452784
375 0.507568
380 0.530112
385 0.688149
390 0.812403
395 0.920254
400 1.01044
405 1.41771
410 1.85914
415 3.0485
420 91.8708
425 1536.44
430 2282
435 558.699
440 67.82
445 10.6655
450 3.49192
455 2.82466
460 2.64099
465 2.23266
470 2.19387
475 2.10963
480 2.36273
485 3.22806
490 5.01394
495 4.24084
500 3.22522
505 3.05261
510 2.58186
515 2.11107
520 1.89404
525 2.00835
530 1.95466
535 1.83088
540 1.73108
545 1.55102
550 1.33911
555 1.16889
560 1.28436
565 1.18522
570 0.902585
575 0.83395
580 0.78409
585 0.622734
590 0.630206
595 0.481461
600 0.0547885
Ex : 438
200 0.330425
205 0.330726
210 0.281597
215 0.264741
220 0.229064
225 0.248709
230 0.334616
235 0.270302
240 0.296512
245 0.330442
250 0.276878
255 0.341386
260 0.322901
265 0.307365
270 0.359602
275 0.303463
280 0.325478
285 0.264631
290 0.314978
295 0.327664
300 0.282836
305 0.255453
310 0.285373
315 0.354201
320 0.34469
325 0.347407
330 0.33414
335 0.408614
340 0.470182
345 0.404098
350 0.46211
355 0.453766
360 0.432694
365 0.46849
370 0.486331
375 0.564946
380 0.596097
385 0.578548
390 0.720296
395 0.818099
400 0.837755
405 1.0908
410 1.39159
415 1.81022
420 3.10504
425 89.0146
430 1535.92
435 2400.04
440 587.161
445 71.3465
450 11.3361
455 3.59155
460 2.83621
465 2.91749
470 2.53674
475 2.16448
480 2.23646
485 2.19182
490 2.59054
495 4.24109
500 4.40218
505 3.14969
510 2.68584
515 2.64237
520 2.16573
525 1.91401
530 1.87915
535 1.69259
540 1.58565
545 1.53268
550 1.37346
555 1.22152
560 1.20127
565 1.02632
570 0.999907
575 0.86365
580 0.777352
585 0.637319
590 0.651763
595 0.564963
600 0.751914
Ex : 443
200 0.266894
205 0.240975
210 0.303303
215 0.349145
220 0.30217
225 0.26734
230 0.382739
235 0.362643
240 0.277361
245 0.26099
250 0.335071
255 0.322424
260 0.358203
265 0.367763
270 0.300776
275 0.285355
280 0.289365
285 0.308985
290 0.347486
295 0.359358
300 0.277811
305 0.276181
310 0.309497
315 0.31321
320 0.324759
325 0.400479
330 0.418466
335 0.432245
340 0.415895
345 0.466745
350 0.383553
355 0.478274
360 0.381717
365 0.464396
370 0.542862
375 0.495351
380 0.501648
385 0.620068
390 0.595052
395 0.67118
400 0.762715
405 0.834206
410 1.03069
415 1.28118
420 1.96224
425 3.08253
430 97.7412
435 1623.41
440 2422.69
445 589.649
450 71.5495
455 11.2379
460 3.85501
465 2.89893
470 2.82774
475 2.39934
480 2.12208
485 2.02818
490 2.03053
495 2.10491
500 3.44791
505 4.11093
510 3.09391
515 2.39665
520 2.4108
525 2.10824
530 1.88525
535 1.66852
540 1.54767
545 1.39913
550 1.35725
555 1.29132
560 1.15094
565 1.06566
570 0.935453
575 0.904892
580 0.706411
585 0.685076
590 0.57724
595 0.53458
600 0.0608332
Ex : 448
200 0.292657
205 0.28667
210 0.304202
215 0.306569
220 0.255129
225 0.220388
230 0.30483
235 0.315945
240 0.349655
245 0.324053
250 0.355623
255 0.303214
260 0.30054
265 0.353173
270 0.268864
275 0.279137
280 0.284655
285 0.316292
290 0.282415
295 0.295969
300 0.315181
305 0.251266
310 0.296257
315 0.342399
320 0.310525
325 0.345003
330 0.366724
335 0.40342
340 0.391899
345 0.382395
350 0.381732
355 0.432976
360 0.458801
365 0.485531
370 0.409154
375 0.435671
380 0.561529
385 0.516973
390 0.574124
395 0.643642
400 0.620144
405 0.852327
410 0.952556
415 1.16016
420 1.56495
425 1.98706
430 3.18488
435 100.066
440 1708.19
445 2530.94
450 614.621
455 74.4755
460 11.6982
465 4.15064
470 2.84578
475 2.78581
480 2.43179
485 2.09363
490 2.0407
495 1.90502
500 2.04882
505 2.77497
510 4.09219
515 3.56568
520 2.61301
525 2.44385
530 2.23503
535 1.64515
540 1.63225
545 1.43858
550 1.40871
555 1.20139
560 1.16448
565 1.14365
570 0.919957
575 0.88635
580 0.851329
585 0.683404
590 0.633484
595 0.560768
600 0.523438
Ex : 453
200 0.256764
205 0.284184
210 0.324645
215 0.290702
220 0.275364
225 0.289851
230 0.282397
235 0.271992
240 0.288687
245 0.297263
250 0.2829
255 0.281156
260 0.329197
265 0.290994
270 0.287854
275 0.304883
280 0.34315
285 0.285361
290 0.315381
295 0.323626
300 0.297261
305 0.285188
310 0.258939
315 0.303922
320 0.315531
325 0.30969
330 0.311874
335 0.343467
340 0.436575
345 0.371843
350 0.368843
355 0.408131
360 0.430557
365 0.424118
370 0.403088
375 0.453582
380 0.439664
385 0.47323
390 0.544229
395 0.574142
400 0.607845
405 0.704788
410 0.83433
415 0.862743
420 1.104
425 1.45391
430 1.80329
435 2.87525
440 103.316
445 1819.74
450 2597.44
455 598.037
460 72.6808
465 11.8131
470 3.84672
475 2.76328
480 2.54439
485 2.33083
490 1.96865
495 1.74163
500 1.79969
505 1.89085
510 2.2515
515 3.7838
520 3.58122
525 2.54432
530 2.4217
535 2.00088
540 1.64596
545 1.50276
550 1.35617
555 1.21663
560 1.24531
565 1.09711
570 0.976851
575 0.914795
580 0.77392
585 0.618521
590 0.589674
595 0.549476
600 0.454173
Ex : 458
200 0.278543
205 0.369316
210 0.352376
215 0.279263
220 0.273909
225 0.285633
230 0.234109
235 0.357918
240 0.317468
245 0.307178
250 0.356347
255 0.238574
260 0.323969
265 0.298279
270 0.354147
275 0.404497
280 0.298702
285 0.298722
290 0.424217
295 0.379378
300 0.339191
305 0.314703
310 0.303475
315 0.323114
320 0.375261
325 0.340264
330 0.362277
335 0.417667
340 0.374802
345 0.304113
350 0.430253
355 0.406937
360 0.397098
365 0.349489
370 0.428686
375 0.457146
380 0.458252
385 0.534138
390 0.595669
395 0.613977
400 0.592456
405 0.593082
410 0.720344
415 0.855962
420 0.868313
425 1.04013
430 1.33365
435 2.01334
440 3.17216
445 115.966
450 1871.67
455 2730.51
460 645.808
465 78.5822
470 12.2959
475 3.68535
480 2.59432
485 2.5925
490 2.33339
495 2.15587
500 1.77947
505 1.74289
510 1.8192
515 1.96357
520 3.13968
525 3.86679
530 2.77507
535 2.17125
540 2.00221
545 1.82548
550 1.52867
555 1.36803
560 1.27102
565 0.988743
570 0.897868
575 0.926821
580 0.780245
585 0.732403
590 0.633564
595 0.524904
600 0.623146
Ex : 463
200 0.298486
205 0.258092
210 0.315051
215 0.312565
220 0.374628
225 0.34292
230 0.263193
235 0.311716
240 0.345826
245 0.272341
250 0.28984
255 0.252571
260 0.331094
265 0.288033
270 0.31059
275 0.276604
280 0.320514
285 0.264643
290 0.261467
295 0.276722
300 0.362733
305 0.279953
310 0.268973
315 0.32939
320 0.348991
325 0.304831
330 0.351434
335 0.412468
340 0.334978
345 0.368181
350 0.369442
355 0.407298
360 0.413289
365 0.387115
370 0.471418
375 0.410302
380 0.432442
385 0.525134
390 0.495965
395 0.482066
400 0.536681
405 0.579215
410 0.682552
415 0.707261
420 0.764069
425 0.8807
430 1.06145
435 1.41801
440 2.0364
445 3.08724
450 111.743
455 1932.35
460 2894.01
465 684.032
470 82.5948
475 12.4749
480 3.75271
485 2.31338
490 2.38496
495 2.15435
500 2.1096
505 1.72788
510 1.78809
515 1.67555
520 1.73754
525 2.52083
530 3.51637
535 2.88052
540 2.11444
545 1.96521
550 1.79915
555 1.44565
560 1.19269
565 1.14723
570 0.950458
575 0.977445
580 0.876978
585 0.742161
590 0.63345
595 0.579764
600 0.306912
Ex : 468
200 0.34104
205 0.347887
210 0.28341
215 0.286206
220 0.235575
225 0.254877
230 0.292032
235 0.277263
240 0.277268
245 0.245691
250 0.29321
255 0.26707
260 0.265785
265 0.280271
270 0.322173
275 0.296526
280 0.324249
285 0.313096
290 0.249919
295 0.323761
300 0.327976
305 0.344206
310 0.311898
315 0.30571
320 0.320881
325 0.357876
330 0.296102
335 0.3246
340 0.336279
345 0.360164
350 0.385444
355 0.4191
360 0.462498
365 0.353809
370 0.416822
375 0.444474
380 0.442971
385 0.471493
390 0.466471
395 0.587462
400 0.477171
405 0.529981
410 0.542422
415 0.639359
420 0.607185
425 0.767718
430 0.808513
435 1.06762
440 1.21727
445 1.97509
450 2.96997
455 122.409
460 1953.32
465 3016.53
470 710.628
475 85.1076
480 12.8588
485 3.79559
490 2.34111
495 2.30632
500 1.95281
505 1.77881
510 1.51981
515 1.66386
520 1.69161
525 1.77836
530 2.12303
535 3.05149
540 3.07848
545 2.18964
550 1.8974
555 1.67289
560 1.4747
565 1.21952
570 0.981166
575 0.853997
580 0.800641
585 0.783172
590 0.641288
595 0.586432
600 0.663312
Ex : 473
200 0.296528
205 0.311456
210 0.367315
215 0.286106
220 0.329406
225 0.264346
230 0.293674
235 0.282666
240 0.245232
245 0.288532
250 0.303391
255 0.27606
260 0.353305
265 0.322283
270 0.300626
275 0.279807
280 0.259448
285 0.266108
290 0.290844
295 0.301087
300 0.317822
305 0.387921
310 0.357823
315 0.303732
320 0.3901
325 0.339793
330 0.339231
335 0.307121
340 0.341478
345 0.319553
350 0.403914
355 0.319823
360 0.448504
365 0.416944
370 0.423235
375 0.419564
380 0.427783
385 0.381364
390 0.465406
395 0.477598
400 0.480006
405 0.547666
410 0.531088
415 0.587211
420 0.594163
425 0.750143
430 0.703212
435 0.881534
440 1.06909
445 1.39993
450 2.02814
455 3.40303
460 140.025
465 2140.29
470 2929.48
475 660.023
480 79.1273
485 11.9192
490 3.68043
495 2.31363
500 2.17319
505 2.11758
510 1.87249
515 1.6748
520 1.63351
525 1.70141
530 1.83967
535 1.90591
540 2.70888
545 3.22482
550 2.32051
555 1.76843
560 1.75068
565 1.45252
570 1.18504
575 0.945604
580 0.75349
585 0.757504
590 0.686736
595 0.563863
600 0.708919
Ex : 478
200 0.308856
205 0.397217
210 0.305477
215 0.378413
220 0.255566
225 0.258664
230 0.293847
235 0.345442
240 0.388973
245 0.314133
250 0.321674
255 0.29626
260 0.279997
265 0.35944
270 0.326492
275 0.366107
280 0.291646
285 0.321864
290 0.317793
295 0.31119
300 0.264042
305 0.412057
310 0.331406
315 0.352842
320 0.401814
325 0.388917
330 0.361537
335 0.339376
340 0.434917
345 0.47222
350 0.41502
355 0.346362
360 0.546805
365 0.450263
370 0.450154
375 0.50122
380 0.428373
385 0.480282
390 0.494738
395 0.557961
400 0.582712
405 0.569858
410 0.563694
415 0.580726
420 0.66552
425 0.654312
430 0.847845
435 0.94764
440 0.970238
445 1.25613
450 1.6009
455 2.43842
460 4.14878
465 155.434
470 2182.81
475 2978.88
480 701.578
485 84.4525
490 12.7834
495 3.90986
500 2.42818
505 2.22095
510 1.92277
515 1.8215
520 1.70941
525 1.78671
530 1.81998
535 1.73235
540 1.72974
545 2.29093
550 3.22804
555 2.7157
560 1.75458
565 1.53415
570 1.34204
575 1.15216
580 0.893372
585 0.706263
590 0.77289
595 0.633416
600 0.58769
Ex : 483
200 0.301701
205 0.32275
210 0.313223
215 0.338343
220 0.339328
225 0.305657
230 0.359796
235 0.323689
240 0.310837
245 0.318185
250 0.257528
255 0.338734
260 0.317436
265 0.310558
270 0.392267
275 0.341322
280 0.326921
285 0.307061
290 0.338075
295 0.375124
300 0.312059
305 0.285547
310 0.360972
315 0.376416
320 0.375219
325 0.36501
330 0.470617
335 0.397976
340 0.467727
345 0.385081
350 0.477644
355 0.412117
360 0.430525
365 0.40102
370 0.451035
375 0.443873
380 0.53073
385 0.433525
390 0.585809
395 0.534711
400 0.533782
405 0.582165
410 0.66052
415 0.652721
420 0.711523
425 0.664568
430 0.669213
435 0.760049
440 0.887649
445 1.05159
450 1.30568
455 1.62268
460 2.43688
465 4.06028
470 120.721
475 2151.58
480 3186.94
485 741.883
490 88.9535
495 13.043
500 3.59736
505 2.31631
510 2.07718
515 2.01802
520 2.01602
525 1.85855
530 1.67673
535 1.82731
540 1.79443
545 1.52188
550 1.81827
555 2.65672
560 2.65525
565 1.91113
570 1.31273
575 1.21798
580 1.07852
585 0.812249
590 0.748548
595 0.611452
600 0.477617
Ex : 488
200 0.28747
205 0.265555
210 0.326962
215 0.313484
220 0.337734
225 0.300142
230 0.390729
235 0.345374
240 0.311882
245 0.263399
250 0.308324
255 0.352092
260 0.397532
265 0.394795
270 0.30965
275 0.357772
280 0.450966
285 0.381548
290 0.350083
295 0.327399
300 0.434094
305 0.387702
310 0.400581
315 0.278805
320 0.347612
325 0.415288
330 0.437747
335 0.449762
340 0.449398
345 0.475745
350 0.471405
355 0.516713
360 0.484514
365 0.440453
370 0.427625
375 0.525875
380 0.404535
385 0.507921
390 0.530145
395 0.554017
400 0.523349
405 0.591397
410 0.594261
415 0.607731
420 0.680839
425 0.688354
430 0.624012
435 0.775674
440 0.91086
445 1.00414
450 1.03776
455 1.39434
460 1.96541
465 3.01678
470 4.27969
475 147.534
480 2300.04
485 3133.62
490 720.212
495 86.3786
500 12.4366
505 3.85592
510 2.29008
515 2.25814
520 2.14173
525 2.13874
530 1.94464
535 1.849
540 1.64098
545 1.55295
550 1.70534
555 1.58536
560 2.20834
565 2.54082
570 1.75704
575 1.33686
580 1.18686
585 1.02998
590 0.763174
595 0.682103
600 0.874848
Ex : 493
200 0.366601
205 0.35938
210 0.331332
215 0.376544
220 0.31314
225 0.330838
230 0.297306
235 0.330926
240 0.438747
245 0.370064
250 0.343396
255 0.37698
260 0.342209
265 0.442916
270 0.326729
275 0.385426
280 0.279843
285 0.339724
290 0.365726
295 0.37632
300 0.317841
305 0.369586
310 0.357564
315 0.382025
320 0.375321
325 0.414486
330 0.396935
335 0.420999
340 0.436121
345 0.373418
350 0.448444
355 0.397272
360 0.420376
365 0.447669
370 0.495185
375 0.534866
380 0.535952
385 0.5015
390 0.564297
395 0.595072
400 0.584796
405 0.554184
410 0.653007
415 0.624309
420 0.65706
425 0.721062
430 0.659378
435 0.704291
440 0.903381
445 0.883738
450 1.00693
455 1.20903
460 1.50538
465 1.99375
470 2.51167
475 3.90159
480 134.682
485 2263.82
490 3267.26
495 731.241
500 87.5702
505 12.7317
510 3.78462
515 2.58505
520 2.29691
525 2.22515
530 2.04165
535 1.93499
540 1.68796
545 1.55921
550 1.60214
555 1.64672
560 1.48747
565 1.67637
570 2.20268
575 1.89036
580 1.30439
585 1.0211
590 0.857468
595 0.94643
600 0.839085
Ex : 498
200 0.374354
205 0.359816
210 0.435421
215 0.375361
220 0.360967
225 0.328708
230 0.348764
235 0.332194
240 0.31872
245 0.339002
250 0.349562
255 0.439327
260 0.360296
265 0.374279
270 0.398245
275 0.415776
280 0.489851
285 0.457209
290 0.503422
295 0.446431
300 0.356321
305 0.314392
310 0.450069
315 0.487261
320 0.444337
325 0.395854
330 0.454914
335 0.539717
340 0.536029
345 0.479496
350 0.441609
355 0.472574
360 0.501986
365 0.492424
370 0.490376
375 0.473173
380 0.406687
385 0.511719
390 0.542501
395 0.559916
400 0.671107
405 0.554177
410 0.609335
415 0.666415
420 0.648562
425 0.622032
430 0.673278
435 0.796233
440 0.746022
445 0.888116
450 0.983394
455 0.946547
460 1.3027
465 1.77693
470 2.06534
475 2.76529
480 4.09759
485 160.529
490 2373.42
495 3160
500 713.752
505 85.7245
510 12.8436
515 3.89107
520 2.54855
525 2.3577
530 2.23568
535 2.11907
540 1.99849
545 1.84101
550 1.60182
555 1.55463
560 1.46427
565 1.35722
570 1.43824
575 1.71426
580 1.7307
585 1.12648
590 0.876328
595 0.821951
600 0.462133
Ex : 503
200 0.431357
205 0.424813
210 0.411341
215 0.364365
220 0.406394
225 0.340014
230 0.357906
235 0.386991
240 0.42816
245 0.406727
250 0.471173
255 0.395446
260 0.360496
265 0.402477
270 0.439981
275 0.400495
280 0.345214
285 0.405886
290 0.53759
295 0.47787
300 0.438355
305 0.404146
310 0.469666
315 0.440334
320 0.464459
325 0.402553
330 0.429423
335 0.385877
340 0.429165
345 0.438224
350 0.453189
355 0.542323
360 0.466067
365 0.470221
370 0.503577
375 0.543504
380 0.559853
385 0.574548
390 0.52031
395 0.522977
400 0.554918
405 0.594091
410 0.651125
415 0.603794
420 0.761206
425 0.731589
430 0.647767
435 0.730194
440 0.730155
445 0.744279
450 0.882249
455 1.00524
460 1.09485
465 1.54202
470 1.77542
475 1.96099
480 2.52847
485 4.20861
490 146.361
495 2346.3
500 3238.19
505 730.737
510 87.8582
515 13.1134
520 3.8536
525 2.55811
530 2.03065
535 1.98665
540 2.27615
545 1.73942
550 1.65847
555 1.46065
560 1.32368
565 1.27569
570 1.32007
575 1.1947
580 1.30185
585 1.61222
590 1.24769
595 0.91583
600 0.746095
Ex : 508
200 0.409916
205 0.467482
210 0.376301
215 0.487166
220 0.442162
225 0.407456
230 0.454472
235 0.427077
240 0.394814
245 0.346252
250 0.395733
255 0.452362
260 0.514155
265 0.442652
270 0.45064
275 0.389727
280 0.410259
285 0.383503
290 0.414316
295 0.422156
300 0.420707
305 0.511799
310 0.450398
315 0.381832
320 0.476383
325 0.468542
330 0.451319
335 0.517388
340 0.525109
345 0.481309
350 0.613047
355 0.59349
360 0.481914
365 0.562044
370 0.548125
375 0.595257
380 0.561679
385 0.556345
390 0.524385
395 0.622166
400 0.618864
405 0.593196
410 0.700106
415 0.673026
420 0.649075
425 0.659119
430 0.816116
435 0.751396
440 0.699734
445 0.762736
450 0.823168
455 0.962902
460 1.08372
465 1.17165
470 1.28326
475 1.74288
480 2.20634
485 2.77479
490 4.26778
495 155.447
500 2339.07
505 3203.9
510 757.451
515 90.7812
520 13.453
525 3.93517
530 2.55737
535 2.30507
540 2.0779
545 1.93841
550 1.84761
555 1.56327
560 1.33551
565 1.416
570 1.17539
575 1.02913
580 1.09195
585 1.05379
590 1.36965
595 1.25176
600 3.30252
Ex : 513
200 0.410898
205 0.434526
210 0.425565
215 0.409331
220 0.420158
225 0.479536
230 0.362824
235 0.455177
240 0.42066
245 0.424594
250 0.469076
255 0.474969
260 0.50009
265 0.463361
270 0.421164
275 0.448259
280 0.42607
285 0.426245
290 0.426744
295 0.391459
300 0.365297
305 0.480492
310 0.524837
315 0.410131
320 0.416859
325 0.502921
330 0.441414
335 0.44882
340 0.544166
345 0.4777
350 0.539645
355 0.475663
360 0.586129
365 0.488578
370 0.476673
375 0.511488
380 0.522423
385 0.491319
390 0.531731
395 0.601726
400 0.673015
405 0.639534
410 0.563717
415 0.629332
420 0.638425
425 0.582843
430 0.623395
435 0.784328
440 0.815494
445 0.826047
450 0.817205
455 0.748062
460 0.999574
465 1.13062
470 1.22719
475 1.33496
480 1.58373
485 1.94665
490 2.82305
495 4.24431
500 142.727
505 2294.03
510 3228.94
515 773.264
520 92.7608
525 13.7184
530 3.98825
535 2.65417
540 2.10307
545 1.86837
550 1.90031
555 1.68641
560 1.58123
565 1.39868
570 1.2146
575 1.12509
580 0.999042
585 0.859783
590 0.993086
595 1.00822
600 0.739505
Ex : 518
200 0.366063
205 0.397853
210 0.410123
215 0.388809
220 0.483784
225 0.480136
230 0.450182
235 0.43006
240 0.383543
245 0.448114
250 0.479848
255 0.409064
260 0.429386
265 0.324047
270 0.39317
275 0.471053
280 0.373285
285 0.441375
290 0.501307
295 0.445595
300 0.464078
305 0.420965
310 0.463934
315 0.450088
320 0.375488
325 0.491115
330 0.460924
335 0.48728
340 0.594942
345 0.522839
350 0.479243
355 0.422789
360 0.545092
365 0.469347
370 0.519752
375 0.559525
380 0.559017
385 0.502912
390 0.461808
395 0.468973
400 0.534646
405 0.672248
410 0.623847
415 0.631471
420 0.611397
425 0.626696
430 0.791488
435 0.789616
440 0.728963
445 0.71916
450 0.696223
455 0.784713
460 1.02716
465 0.88367
470 1.14146
475 1.32456
480 1.3439
485 1.69021
490 2.06718
495 2.53112
500 4.20872
505 145.062
510 2212.67
515 3196.01
520 779.51
525 93.3017
530 13.4834
535 3.97899
540 2.5334
545 2.11261
550 1.8912
555 1.75438
560 1.57993
565 1.54831
570 1.19299
575 1.14837
580 1.11396
585 0.999194
590 0.795163
595 0.818118
600 5.67824
Ex : 523
200 0.481119
205 0.452465
210 0.406333
215 0.446347
220 0.409475
225 0.459795
230 0.390126
235 0.326833
240 0.346552
245 0.511524
250 0.473632
255 0.392843
260 0.528386
265 0.494104
270 0.398319
275 0.495721
280 0.515259
285 0.416317
290 0.444213
295 0.398762
300 0.385243
305 0.5184
310 0.388787
315 0.417696
320 0.381103
325 0.554517
330 0.517109
335 0.448005
340 0.481932
345 0.581789
350 0.449205
355 0.512725
360 0.548711
365 0.587036
370 0.570698
375 0.557127
380 0.682892
385 0.587794
390 0.641339
395 0.580293
400 0.60166
405 0.565993
410 0.642476
415 0.663004
420 0.625219
425 0.756999
430 0.634336
435 0.63072
440 0.719726
445 0.797241
450 0.678271
455 0.885475
460 0.935825
465 1.0148
470 0.90995
475 0.997593
480 1.11515
485 1.23852
490 1.54388
495 1.92612
500 2.77022
505 4.20929
510 130.446
515 2124.28
520 3149.96
525 788.353
530 94.5612
535 13.687
540 4.03824
545 2.41947
550 1.94484
555 1.71356
560 1.76352
565 1.6415
570 1.24079
575 1.03844
580 1.1159
585 0.92806
590 0.803755
595 0.802365
600 0.806904
Ex : 528
200 0.549154
205 0.442997
210 0.411588
215 0.46014
220 0.498356
225 0.449945
230 0.379299
235 0.396681
240 0.419807
245 0.586666
250 0.518345
255 0.524424
260 0.440686
265 0.474917
270 0.449481
275 0.532363
280 0.453797
285 0.30767
290 0.473365
295 0.47017
300 0.511364
305 0.448305
310 0.411584
315 0.513624
320 0.408188
325 0.429197
330 0.360032
335 0.495539
340 0.49679
345 0.415993
350 0.565577
355 0.52952
360 0.553951
365 0.596782
370 0.455376
375 0.489742
380 0.515991
385 0.570209
390 0.61709
395 0.530154
400 0.610064
405 0.582861
410 0.687209
415 0.529999
420 0.582661
425 0.704971
430 0.651356
435 0.684003
440 0.698168
445 0.711242
450 0.793743
455 0.74807
460 0.666856
465 0.924669
470 0.818807
475 0.996769
480 1.08857
485 1.15397
490 1.36664
495 1.59625
500 1.98521
505 2.73795
510 4.06193
515 122.771
520 2081.58
525 3103.49
530 772.929
535 92.3377
540 13.1899
545 3.83357
550 2.21769
555 1.64628
560 1.53444
565 1.49593
570 1.20593
575 1.09842
580 1.04593
585 0.864905
590 0.821637
595 0.801966
600 1.01707
Ex : 533
200 0.430895
205 0.462401
210 0.475564
215 0.375255
220 0.421306
225 0.370996
230 0.383254
235 0.480539
240 0.4113
245 0.55413
250 0.483786
255 0.410672
260 0.42174
265 0.497109
270 0.447388
275 0.518711
280 0.449616
285 0.427621
290 0.462038
295 0.449675
300 0.414336
305 0.520391
310 0.453019
315 0.413303
320 0.537702
325 0.436847
330 0.655233
335 0.533045
340 0.575613
345 0.555518
350 0.651954
355 0.538583
360 0.583773
365 0.581866
370 0.564189
375 0.547719
380 0.583889
385 0.648065
390 0.558057
395 0.611685
400 0.593627
405 0.506656
410 0.458361
415 0.629423
420 0.578063
425 0.618189
430 0.648709
435 0.609828
440 0.808685
445 0.710219
450 0.922519
455 0.718262
460 0.76817
465 0.847626
470 1.10287
475 0.823935
480 0.969855
485 0.975302
490 1.07348
495 1.30921
500 1.43535
505 1.99732
510 2.52764
515 3.95938
520 119.982
525 1996.54
530 3015.41
535 771.422
540 92.2263
545 13.3054
550 3.71728
555 2.33672
560 1.52125
565 1.47572
570 1.41808
575 1.26955
580 1.08288
585 0.998583
590 0.873916
595 0.877383
600 1.18861
Ex : 538
200 0.580342
205 0.481542
210 0.484863
215 0.484224
220 0.508547
225 0.421702
230 0.532011
235 0.575784
240 0.387022
245 0.412934
250 0.462666
255 0.56844
260 0.542269
265 0.556058
270 0.422597
275 0.521314
280 0.573026
285 0.592782
290 0.577105
295 0.631844
300 0.468649
305 0.579663
310 0.460711
315 0.461117
320 0.332802
325 0.455307
330 0.497619
335 0.579865
340 0.532892
345 0.474017
350 0.531341
355 0.531491
360 0.510335
365 0.638201
370 0.626549
375 0.44715
380 0.484848
385 0.474547
390 0.509025
395 0.483685
400 0.606613
405 0.573978
410 0.625703
415 0.601619
420 0.532902
425 0.574973
430 0.646133
435 0.676863
440 0.740105
445 0.730456
450 0.711973
455 0.705875
460 0.759037
465 0.762742
470 0.783136
475 0.918143
480 0.836988
485 0.892628
490 1.04795
495 1.10618
500 1.25832
505 1.50348
510 1.98486
515 2.53023
520 3.76659
525 102.166
530 1897.37
535 2952.48
540 781.952
545 93.547
550 13.332
555 3.319
560 1.8933
565 1.51022
570 1.37472
575 1.3259
580 1.15261
585 0.985654
590 0.969207
595 0.762052
600 1.20365
Ex : 543
200 0.413857
205 0.529517
210 0.534097
215 0.475048
220 0.497225
225 0.474773
230 0.435923
235 0.418053
240 0.492542
245 0.489327
250 0.564705
255 0.555291
260 0.365636
265 0.438907
270 0.475457
275 0.393877
280 0.426228
285 0.396402
290 0.466223
295 0.476818
300 0.568477
305 0.582781
310 0.394967
315 0.476149
320 0.451147
325 0.538925
330 0.584443
335 0.566259
340 0.504
345 0.522981
350 0.543202
355 0.539755
360 0.549665
365 0.550869
370 0.522075
375 0.548115
380 0.605244
385 0.610005
390 0.491473
395 0.631165
400 0.724104
405 0.666146
410 0.792373
415 0.686281
420 0.71414
425 0.691289
430 0.683486
435 0.639165
440 0.822263
445 0.751658
450 0.702423
455 0.712991
460 0.836288
465 0.883232
470 0.779631
475 0.77626
480 0.993438
485 0.855194
490 0.944735
495 0.887222
500 1.04743
505 1.39434
510 1.62873
515 1.99979
520 2.77074
525 3.66891
530 91.9194
535 1807.01
540 2960.49
545 802.99
550 95.8875
555 13.5714
560 3.44001
565 2.01197
570 1.38611
575 1.29951
580 1.10858
585 1.16124
590 0.962672
595 0.899306
600 0.493545
Ex : 548
200 0.514307
205 0.537501
210 0.538024
215 0.455876
220 0.50459
225 0.473259
230 0.494676
235 0.555065
240 0.493978
245 0.504761
250 0.519002
255 0.415421
260 0.385497
265 0.496124
270 0.39588
275 0.474012
280 0.558564
285 0.46254
290 0.578569
295 0.463656
300 0.445516
305 0.617148
310 0.605478
315 0.472986
320 0.43797
325 0.675481
330 0.586478
335 0.590102
340 0.491694
345 0.585749
350 0.581286
355 0.515131
360 0.563639
365 0.593246
370 0.562562
375 0.575452
380 0.583517
385 0.656895
390 0.696601
395 0.671976
400 0.672165
405 0.590854
410 0.612899
415 0.673489
420 0.675231
425 0.573903
430 0.651498
435 0.639837
440 0.724081
445 0.667776
450 0.783316
455 0.702214
460 0.80832
465 0.7702
470 0.720838
475 0.828514
480 0.869129
485 0.923958
490 0.970942
495 0.96971
500 0.992843
505 1.18536
510 1.16284
515 1.60535
520 1.96759
525 2.63024
530 3.63873
535 102.714
540 1797.27
545 2853.25
550 781.327
555 93.5979
560 12.8728
565 3.17682
570 1.8875
575 1.34644
580 1.11622
585 1.08876
590 0.988286
595 0.917432
600 0.325951
Ex : 553
200 0.57853
205 0.483121
210 0.423393
215 0.434351
220 0.427869
225 0.46311
230 0.514977
235 0.552929
240 0.505337
245 0.472768
250 0.570308
255 0.437814
260 0.456284
265 0.566737
270 0.565456
275 0.508202
280 0.480192
285 0.569501
290 0.587098
295 0.527493
300 0.514392
305 0.57902
310 0.542108
315 0.55724
320 0.499861
325 0.593226
330 0.499795
335 0.557005
340 0.710559
345 0.567389
350 0.735544
355 0.568206
360 0.567869
365 0.573242
370 0.520051
375 0.645911
380 0.623536
385 0.568125
390 0.623489
395 0.588176
400 0.510788
405 0.629329
410 0.738183
415 0.676987
420 0.666284
425 0.681954
430 0.725778
435 0.574941
440 0.617086
445 0.626905
450 0.823603
455 0.740042
460 0.939774
465 0.794743
470 0.867187
475 0.736376
480 0.952049
485 0.959308
490 0.90202
495 0.884397
500 0.928875
505 1.09891
510 1.05012
515 1.33545
520 1.47352
525 1.88848
530 2.47515
535 3.49124
540 85.6736
545 1696.76
550 2805.88
555 781.284
560 93.6921
565 12.889
570 3.1633
575 1.73221
580 1.40722
585 1.19315
590 0.917913
595 0.923154
600 0.430367
Ex : 558
200 0.533048
205 0.60972
210 0.501661
215 0.640502
220 0.571403
225 0.437998
230 0.486094
235 0.535472
240 0.561925
245 0.561232
250 0.481708
255 0.463845
260 0.532728
265 0.585154
270 0.550447
275 0.548858
280 0.549417
285 0.674013
290 0.562916
295 0.559879
300 0.509431
305 0.508591
310 0.52353
315 0.57334
320 0.602235
325 0.557745
330 0.594049
335 0.564311
340 0.518752
345 0.690664
350 0.602504
355 0.663603
360 0.50308
365 0.625866
370 0.509862
375 0.779264
380 0.559394
385 0.606572
390 0.632201
395 0.678151
400 0.684902
405 0.600315
410 0.741062
415 0.729008
420 0.772023
425 0.698833
430 0.719941
435 0.626672
440 0.61728
445 0.714987
450 0.638329
455 0.563264
460 0.856674
465 0.771624
470 0.806884
475 0.788093
480 0.977723
485 0.871531
490 0.884957
495 0.861036
500 0.926514
505 0.950547
510 1.09322
515 1.19778
520 1.20825
525 1.52016
530 1.65959
535 2.38143
540 3.47652
545 81.6116
550 1602.81
555 2739.99
560 771.742
565 92.4856
570 12.5968
575 3.02529
580 1.71007
585 1.34523
590 1.03633
595 0.81935
600 1.29222
Ex : 563
200 0.536064
205 0.577881
210 0.525529
215 0.408175
220 0.503562
225 0.723119
230 0.543749
235 0.531386
240 0.657579
245 0.536434
250 0.724822
255 0.546455
260 0.48566
265 0.477205
270 0.521986
275 0.697682
280 0.47692
285 0.547874
290 0.498535
295 0.499394
300 0.511978
305 0.503111
310 0.57312
315 0.538524
320 0.479836
325 0.464701
330 0.616723
335 0.577664
340 0.519238
345 0.657117
350 0.411675
355 0.714577
360 0.629056
365 0.551325
370 0.671758
375 0.567466
380 0.557833
385 0.565666
390 0.592443
395 0.723439
400 0.617251
405 0.671116
410 0.681182
415 0.781033
420 0.633609
425 0.803359
430 0.718773
435 0.728902
440 0.708657
445 0.649714
450 0.742793
455 0.814316
460 0.79128
465 0.935403
470 0.855532
475 0.701007
480 0.805655
485 0.797291
490 1.03169
495 0.744966
500 0.813395
505 0.942513
510 0.934223
515 0.95463
520 1.08782
525 1.44262
530 1.44081
535 1.70907
540 2.23431
545 3.1627
550 77.668
555 1546.08
560 2623.63
565 751.483
570 90.059
575 12.2174
580 2.9716
585 1.52569
590 1.14182
595 1.00277
600 0.211899
Ex : 568
200 0.578752
205 0.436339
210 0.530044
215 0.660188
220 0.455401
225 0.520202
230 0.60144
235 0.667706
240 0.575854
245 0.56561
250 0.482686
255 0.458624
260 0.382432
265 0.437104
270 0.557328
275 0.542071
280 0.554172
285 0.457383
290 0.424022
295 0.629039
300 0.497039
305 0.531038
310 0.420106
315 0.765009
320 0.584175
325 0.678046
330 0.418484
335 0.574099
340 0.71333
345 0.600275
350 0.688035
355 0.628592
360 0.589184
365 0.527307
370 0.64794
375 0.671465
380 0.619967
385 0.684133
390 0.604232
395 0.731677
400 0.723415
405 0.554572
410 0.646177
415 0.638175
420 0.504073
425 0.605526
430 0.608176
435 0.623747
440 0.728331
445 0.603455
450 0.714742
455 0.935538
460 0.779174
465 0.80505
470 0.704872
475 0.802348
480 0.868328
485 0.697489
490 0.891901
495 0.756064
500 0.799957
505 0.778467
510 0.83069
515 1.00616
520 0.992167
525 0.998659
530 1.18988
535 1.56336
540 1.71257
545 2.34049
550 3.17347
555 59.7711
560 1391.36
565 2527.69
570 749.685
575 90.1602
580 12.0466
585 2.71468
590 1.48374
595 1.26646
600 1.19649
Ex : 573
200 0.558135
205 0.544905
210 0.563443
215 0.47893
220 0.413124
225 0.505826
230 0.581255
235 0.519562
240 0.559336
245 0.55166
250 0.444633
255 0.566187
260 0.444851
265 0.55957
270 0.666426
275 0.620491
280 0.570297
285 0.523991
290 0.441444
295 0.524826
300 0.512325
305 0.563667
310 0.597505
315 0.60572
320 0.619955
325 0.504947
330 0.624663
335 0.724003
340 0.548379
345 0.604255
350 0.705126
355 0.696946
360 0.632645
365 0.541341
370 0.589498
375 0.58503
380 0.713805
385 0.698984
390 0.661113
395 0.576649
400 0.764367
405 0.81395
410 0.664054
415 0.671021
420 0.597127
425 0.550503
430 0.696316
435 0.595815
440 0.654408
445 0.682718
450 0.75866
455 0.711069
460 0.955769
465 0.737561
470 0.954009
475 0.812322
480 0.902294
485 0.924481
490 1.01877
495 0.888782
500 0.792736
505 0.773712
510 0.810166
515 1.02709
520 0.988186
525 1.08277
530 1.09248
535 1.23297
540 1.41268
545 1.65383
550 1.89421
555 2.84363
560 51.0601
565 1211.85
570 2341.95
575 715.491
580 85.8892
585 11.3405
590 2.6361
595 1.40216
600 2.82469
Ex : 578
200 0.605909
205 0.569247
210 0.444215
215 0.598725
220 0.671226
225 0.51095
230 0.534773
235 0.77504
240 0.503879
245 0.485888
250 0.523781
255 0.465602
260 0.626663
265 0.561491
270 0.489466
275 0.420295
280 0.617129
285 0.608108
290 0.570988
295 0.530935
300 0.441322
305 0.49236
310 0.491547
315 0.578651
320 0.628875
325 0.526085
330 0.535359
335 0.519474
340 0.503014
345 0.667519
350 0.562406
355 0.553921
360 0.558561
365 0.61167
370 0.684267
375 0.660326
380 0.670042
385 0.633532
390 0.624511
395 0.721153
400 0.757549
405 0.648205
410 0.572323
415 0.714401
420 0.655289
425 0.767207
430 0.705534
435 0.672471
440 0.731309
445 0.729866
450 0.680329
455 0.688131
460 0.711929
465 0.841784
470 0.690212
475 0.861663
480 0.825613
485 0.755369
490 0.814209
495 0.712069
500 0.87677
505 0.680411
510 0.829985
515 0.933436
520 0.757786
525 0.864984
530 0.903175
535 1.12188
540 1.27891
545 1.46376
550 1.63374
555 2.17103
560 2.83621
565 46.0766
570 1082.49
575 2039.93
580 611.521
585 73.2376
590 9.88911
595 2.23174
600 1.34158
Ex : 583
200 0.565426
205 0.532716
210 0.588119
215 0.544873
220 0.518758
225 0.474518
230 0.537337
235 0.557913
240 0.382292
245 0.555104
250 0.557062
255 0.402592
260 0.533028
265 0.67551
270 0.573362
275 0.628818
280 0.629763
285 0.529927
290 0.601005
295 0.639223
300 0.524842
305 0.46553
310 0.596112
315 0.537571
320 0.519481
325 0.435995
330 0.503698
335 0.557494
340 0.666656
345 0.639347
350 0.643505
355 0.703454
360 0.650224
365 0.672373
370 0.482465
375 0.576315
380 0.654736
385 0.706354
390 0.66679
395 0.655237
400 0.723265
405 0.630899
410 0.660345
415 0.610699
420 0.652191
425 0.604091
430 0.733272
435 0.676999
440 0.701879
445 0.629849
450 0.649971
455 0.689471
460 0.693111
465 0.723055
470 0.671005
475 0.762898
480 0.970867
485 0.798927
490 0.706302
495 0.813972
500 1.02511
505 0.684657
510 0.816387
515 0.694343
520 0.935238
525 0.825462
530 0.94015
535 1.16689
540 0.962717
545 1.19488
550 1.19126
555 1.35975
560 1.87809
565 2.45373
570 37.8649
575 953.956
580 1762.39
585 502.753
590 60.2666
595 8.24118
600 2.33238
Ex : 588
200 0.480564
205 0.687109
210 0.604157
215 0.446432
220 0.52048
225 0.482726
230 0.46387
235 0.60677
240 0.486854
245 0.43805
250 0.458199
255 0.525249
260 0.438068
265 0.478373
270 0.558902
275 0.471525
280 0.455192
285 0.578137
290 0.539427
295 0.522238
300 0.572252
305 0.590535
310 0.547037
315 0.866326
320 0.525757
325 0.595318
330 0.540376
335 0.601707
340 0.806748
345 0.60364
350 0.670786
355 0.733883
360 0.566943
365 0.564421
370 0.555151
375 0.530624
380 0.673213
385 0.715623
390 0.72479
395 0.611121
400 0.706093
405 0.774294
410 0.858938
415 0.648136
420 0.742486
425 0.661402
430 0.68203
435 0.651208
440 0.792796
445 0.599619
450 0.791818
455 0.782097
460 0.675481
465 0.665412
470 0.711557
475 0.799282
480 0.709883
485 0.812057
490 0.898958
495 0.701469
500 0.756485
505 0.761652
510 1.01369
515 0.647111
520 0.734594
525 0.983584
530 0.763433
535 1.00404
540 0.9116
545 1.02104
550 1.07007
555 1.30502
560 1.37308
565 1.75694
570 2.52894
575 33.5173
580 801.86
585 1524.15
590 448.351
595 53.947
600 7.4789
Ex : 593
200 0.556289
205 0.679731
210 0.668568
215 0.553034
220 0.51209
225 0.598385
230 0.58711
235 0.522076
240 0.565023
245 0.503388
250 0.508578
255 0.626027
260 0.542753
265 0.698999
270 0.464857
275 0.538607
280 0.598956
285 0.528159
290 0.424707
295 0.564408
300 0.544492
305 0.649976
310 0.458853
315 0.471277
320 0.665253
325 0.598135
330 0.588435
335 0.624731
340 0.647258
345 0.606799
350 0.587
355 0.711147
360 0.47217
365 0.606207
370 0.727342
375 0.766169
380 0.710865
385 0.579973
390 0.501093
395 0.594466
400 0.600363
405 0.661737
410 0.629047
415 0.641909
420 0.641505
425 0.554664
430 0.633296
435 0.724512
440 0.746167
445 0.791169
450 0.679524
455 0.678705
460 0.788078
465 0.724998
470 0.692754
475 0.713925
480 1.01642
485 0.900094
490 0.731352
495 0.729847
500 0.745934
505 0.634285
510 0.733239
515 0.732906
520 0.863689
525 0.896682
530 0.816534
535 0.7493
540 0.823089
545 0.898767
550 0.947649
555 0.969214
560 1.17438
565 1.4152
570 1.84401
575 2.35095
580 29.663
585 711.66
590 1296.72
595 383.829
600 55.9965
Ex : 598
200 0.508255
205 0.605995
210 0.51262
215 0.71028
220 0.580819
225 0.582381
230 0.565715
235 0.54558
240 0.51415
245 0.579087
250 0.445566
255 0.643554
260 0.590559
265 0.504041
270 0.53205
275 0.601753
280 0.494476
285 0.660482
290 0.451974
295 0.39939
300 0.581375
305 0.606344
310 0.572414
315 0.604915
320 0.486568
325 0.641232
330 0.506994
335 0.553677
340 0.67502
345 0.670728
350 0.627048
355 0.679166
360 0.55247
365 0.593997
370 0.596008
375 0.678137
380 0.626605
385 0.52476
390 0.725625
395 0.595951
400 0.605455
405 0.717686
410 0.629864
415 0.745974
420 0.687641
425 0.803429
430 0.879918
435 0.696346
440 0.645889
445 0.556765
450 0.586397
455 0.691003
460 0.82122
465 0.784922
470 0.810883
475 0.684873
480 0.651924
485 0.790203
490 0.940168
495 0.785441
500 0.790974
505 0.829729
510 0.839242
515 0.803045
520 0.787339
525 0.805556
530 0.80259
535 0.904911
540 0.901627
545 0.881998
550 1.11726
555 0.985272
560 0.917319
565 1.15343
570 1.30517
575 1.42722
580 1.93258
585 27.3407
590 635.1
595 1134.11
600 692.108
Ex : 603
200 0.515847
205 0.597546
210 0.595937
215 0.624106
220 0.64363
225 0.559629
230 0.567619
235 0.65572
240 0.742098
245 0.619286
250 0.549744
255 0.705988
260 0.598607
265 0.812358
270 0.510211
275 0.525725
280 0.590143
285 0.555779
290 0.702523
295 0.651625
300 0.609093
305 0.554545
310 0.438172
315 0.56271
320 0.632164
325 0.764628
330 0.857948
335 0.704022
340 0.689955
345 0.735005
350 0.943854
355 0.611913
360 0.623511
365 0.71047
370 0.788518
375 0.715378
380 0.681431
385 0.704196
390 0.70918
395 0.761267
400 0.639897
405 0.891273
410 0.69203
415 0.660855
420 0.648086
425 0.818542
430 0.673418
435 0.813995
440 0.682845
445 0.627614
450 0.507753
455 0.802059
460 0.843061
465 0.6494
470 0.716916
475 1.06536
480 0.739122
485 0.795837
490 0.762243
495 0.732671
500 0.546393
505 0.775686
510 0.860753
515 0.668434
520 0.757117
525 0.740153
530 0.679997
535 0.758823
540 0.786848
545 0.817696
550 0.723331
555 0.792561
560 1.13627
565 1.02078
570 1.0235
575 1.10841
580 1.26961
585 1.95066
590 24.0297
595 543.475
600 1131.86
