File format V 1.0
sam. 10. déc. 00:09:16 2016
Operator : 
Comments : 

=============================================
SpectroFluorometer parameters
Mode : 3D measurement
Data : Fluorescence
Phospho. : Ordinary
Spectrum : Fluorescence

Scan speed : 2400 nm/mn
Response : 100 ms
PM Voltage : 700 V
Shutter : On

Lambda Ex. Start : 203
Lambda Ex. End : 603
Lambda Ex. Step : 5
Ex. Slit : 5 nm

Lambda Em. Start : 200
Lambda Em. End : 600
Lambda Em. Step : 5
Em. Slit : 5 nm

Repetition : 1
Decal lambda em : 10
=============================================
DATA
Ex : 203
200 12.2471
205 16.0793
210 14.796
215 15.5427
220 14.8359
225 14.0471
230 18.4885
235 12.9417
240 15.3619
245 12.3336
250 17.0368
255 13.8206
260 13.0504
265 12.0422
270 15.5338
275 11.5589
280 15.2026
285 12.2218
290 15.3994
295 19.8186
300 15.2173
305 12.3296
310 13.8419
315 10.9809
320 15.5615
325 13.1102
330 15.0498
335 15.2431
340 15.3162
345 12.7363
350 14.2072
355 14.894
360 12.4339
365 16.1055
370 15.4287
375 15.3125
380 20.7541
385 16.4144
390 17.3684
395 17.6327
400 11.5318
405 16.9535
410 19.0644
415 14.8447
420 16.3764
425 17.9739
430 13.2115
435 15.8238
440 14.8888
445 13.8167
450 16.1419
455 16.7984
460 11.4795
465 14.142
470 13.0709
475 13.5591
480 15.6886
485 16.4439
490 16.4107
495 16.2479
500 12.7094
505 12.4918
510 11.4377
515 14.1983
520 17.6188
525 12.7055
530 14.6274
535 14.0612
540 12.1258
545 12.3657
550 12.5334
555 15.0042
560 16.1881
565 17.9434
570 17.6283
575 15.7247
580 17.2385
585 13.3256
590 11.997
595 9.99376
600 2.90966
Ex : 208
200 14.431
205 15.759
210 12.9716
215 16.1542
220 10.4802
225 10.4764
230 14.201
235 14.099
240 14.7717
245 11.2852
250 14.5829
255 12.3721
260 15.425
265 12.7432
270 15.3938
275 17.3001
280 18.2442
285 15.8926
290 16.6499
295 14.7199
300 17.1864
305 12.5091
310 11.0887
315 13.5579
320 13.6927
325 15.035
330 18.1921
335 13.6656
340 12.471
345 19.2038
350 14.9287
355 15.8237
360 15.9901
365 17.6413
370 18.9605
375 16.8844
380 14.8991
385 13.4125
390 11.5125
395 17.2143
400 14.8062
405 16.2629
410 18.5435
415 13.805
420 16.3137
425 14.0029
430 10.6862
435 10.4623
440 13.9016
445 15.0677
450 21.261
455 16.8849
460 19.1204
465 17.0419
470 13.8176
475 13.2494
480 12.381
485 15.249
490 11.5461
495 11.2809
500 15.9265
505 15.319
510 12.614
515 13.6097
520 17.9754
525 11.5846
530 15.9433
535 13.381
540 15.5669
545 16.0328
550 12.3645
555 14.0382
560 12.0799
565 16.8537
570 13.8896
575 14.6464
580 12.4827
585 18.9978
590 12.9618
595 13.4077
600 1.52575
Ex : 213
200 15.8361
205 10.8883
210 12.694
215 11.9131
220 12.6076
225 13.9964
230 12.603
235 15.8139
240 12.9879
245 15.9136
250 14.583
255 17.0687
260 16.2284
265 13.9043
270 13.2615
275 15.7581
280 13.1873
285 14.4911
290 16.5221
295 16.3807
300 16.1028
305 14.3886
310 16.2908
315 11.6858
320 13.1184
325 9.09806
330 14.3174
335 18.2393
340 16.8708
345 14.7903
350 10.7976
355 14.7532
360 14.9866
365 17.1742
370 14.9681
375 16.3425
380 14.2772
385 14.4035
390 15.5298
395 15.0858
400 15.0409
405 16.3393
410 14.6959
415 12.6249
420 15.82
425 13.5597
430 13.3416
435 16.9605
440 15.2706
445 14.4659
450 15.1833
455 14.6706
460 16.4596
465 14.0505
470 12.836
475 19.7436
480 15.7427
485 13.088
490 13.3626
495 17.7677
500 16.0656
505 15.7447
510 17.0721
515 19.6502
520 16.9948
525 12.7838
530 11.9281
535 16.6783
540 14.2507
545 16.9433
550 14.1064
555 15.2735
560 12.0285
565 16.3665
570 18.1558
575 15.1891
580 16.3703
585 13.357
590 13.138
595 15.4852
600 16.5322
Ex : 218
200 11.0058
205 14.3099
210 11.5325
215 9.70667
220 15.3736
225 13.5419
230 12.3828
235 13.9705
240 15.2114
245 14.2453
250 14.4794
255 13.8317
260 12.3259
265 13.7
270 11.5679
275 12.3777
280 14.1968
285 12.2358
290 13.4291
295 14.3126
300 13.9613
305 12.5005
310 14.0706
315 11.4274
320 15.5057
325 11.582
330 12.4453
335 17.4106
340 15.7226
345 12.3546
350 15.5747
355 16.6947
360 11.215
365 16.9999
370 16.0657
375 12.0569
380 18.1494
385 15.0799
390 15.9647
395 15.4344
400 14.6476
405 11.551
410 14.8662
415 10.3528
420 15.3679
425 13.4786
430 16.6785
435 17.755
440 13.9239
445 13.5403
450 17.0571
455 16.162
460 13.068
465 15.8518
470 16.1452
475 14.8049
480 14.8805
485 13.3342
490 18.0929
495 11.2131
500 14.8541
505 15.925
510 17.1783
515 15.7298
520 14.8765
525 12.836
530 15.0684
535 14.028
540 17.8863
545 13.6606
550 14.7418
555 14.3898
560 14.9846
565 12.5337
570 18.855
575 15.0151
580 14.0269
585 14.9463
590 18.4558
595 16.3572
600 2.08294
Ex : 223
200 13.1173
205 15.3947
210 12.2688
215 15.3949
220 10.8302
225 13.3183
230 14.7205
235 14.2387
240 10.4445
245 12.1503
250 12.4935
255 12.8259
260 13.8203
265 13.5637
270 14.1372
275 11.8906
280 15.9985
285 17.8988
290 15.0361
295 13.9087
300 13.3493
305 13.2574
310 13.5434
315 8.86431
320 12.5441
325 13.5423
330 19.9392
335 12.1587
340 13.6436
345 16.8476
350 17.8962
355 13.2027
360 17.7477
365 17.9965
370 11.3845
375 15.7233
380 13.4181
385 15.9912
390 11.7759
395 13.812
400 14.0701
405 13.8807
410 10.709
415 12.2442
420 11.3779
425 14.4713
430 16.4314
435 17.5178
440 20.2186
445 15.7034
450 13.7142
455 11.2035
460 18.1779
465 15.6363
470 14.1808
475 16.8131
480 15.6693
485 12.2805
490 12.2692
495 12.7676
500 12.8116
505 16.7526
510 14.1432
515 16.1596
520 13.1465
525 13.6222
530 12.282
535 13.6304
540 14.1758
545 12.1116
550 13.5612
555 13.9297
560 14.5077
565 14.6056
570 14.4361
575 13.3293
580 9.52079
585 12.264
590 12.3347
595 14.2661
600 2.28808
Ex : 228
200 11.6269
205 12.5837
210 15.3276
215 11.1677
220 14.2377
225 12.2225
230 11.0433
235 11.3778
240 14.5489
245 13.1156
250 12.2478
255 15.846
260 16.5809
265 15.965
270 13.1158
275 14.051
280 15.4228
285 12.2076
290 12.0575
295 12.5458
300 12.5429
305 13.3477
310 13.6584
315 10.577
320 13.3459
325 11.2159
330 15.7879
335 12.4264
340 13.1809
345 14.2603
350 16.0121
355 13.4967
360 11.7483
365 12.3876
370 12.6812
375 17.7632
380 12.9665
385 13.2758
390 12.2513
395 12.0511
400 11.3792
405 14.7067
410 13.4133
415 13.0994
420 12.2826
425 15.4093
430 10.344
435 17.7196
440 13.5507
445 14.5764
450 11.6949
455 13.4661
460 16.175
465 16.5767
470 13.0984
475 10.8377
480 14.7912
485 12.5243
490 12.6887
495 14.0072
500 13.444
505 13.7001
510 12.1151
515 14.196
520 12.8344
525 11.1317
530 12.916
535 16.9096
540 14.5705
545 14.3121
550 15.8818
555 15.8063
560 14.741
565 14.5993
570 15.6533
575 13.1648
580 11.6156
585 14.6103
590 14.2725
595 11.4809
600 8.90252
Ex : 233
200 14.0474
205 8.87152
210 11.7509
215 15.0734
220 12.5542
225 12.0489
230 10.4761
235 8.17648
240 12.0749
245 10.4906
250 16.095
255 14.4139
260 9.82059
265 10.5548
270 11.3291
275 12.988
280 12.4078
285 14.0449
290 12.9255
295 10.1744
300 11.3202
305 10.5804
310 12.3955
315 10.9193
320 11.3724
325 10.6987
330 11.6304
335 10.1539
340 12.8154
345 11.0176
350 11.0659
355 17.6888
360 14.9818
365 13.0995
370 9.30501
375 13.1446
380 10.8206
385 13.6161
390 9.62862
395 11.0169
400 12.931
405 16.4986
410 9.99459
415 11.459
420 13.2542
425 9.88501
430 9.70298
435 14.5106
440 13.4257
445 12.1665
450 9.61234
455 12.592
460 9.14506
465 10.2135
470 15.1668
475 12.3834
480 14.7576
485 13.2682
490 12.9069
495 13.0674
500 10.4508
505 12.6648
510 11.9907
515 13.412
520 8.59078
525 15.1524
530 9.19725
535 12.9209
540 11.0681
545 12.4942
550 12.6881
555 13.4161
560 17.5411
565 14.9836
570 10.8759
575 9.06779
580 11.2822
585 11.1352
590 14.3057
595 10.7967
600 10.4705
Ex : 238
200 10.5581
205 9.23149
210 8.49462
215 8.45233
220 9.36366
225 10.4323
230 11.4202
235 13.0341
240 10.1543
245 11.477
250 11.3043
255 9.21558
260 11.3018
265 11.2657
270 9.11809
275 9.32966
280 10.8876
285 13.0047
290 9.34683
295 9.7958
300 11.5218
305 8.36981
310 13.0041
315 10.3854
320 10.2387
325 9.67645
330 12.4624
335 11.705
340 9.80655
345 9.27137
350 9.96049
355 10.0217
360 14.1841
365 13.3627
370 9.84174
375 14.7722
380 10.5356
385 11.6481
390 8.93601
395 10.0822
400 11.8302
405 16.075
410 11.521
415 11.6923
420 12.7296
425 13.9023
430 11.8312
435 10.7713
440 10.3668
445 9.90201
450 10.4171
455 11.3728
460 9.36889
465 10.5018
470 10.5802
475 12.5789
480 12.0541
485 16.4026
490 10.7286
495 13.3458
500 12.2529
505 10.8309
510 11.0143
515 10.9197
520 10.9718
525 10.1731
530 12.9528
535 11.7162
540 13.1166
545 10.4551
550 10.8826
555 9.45483
560 12.3979
565 9.00187
570 9.43965
575 9.13943
580 9.42173
585 8.25942
590 11.4197
595 11.4015
600 3.95605
Ex : 243
200 9.19923
205 8.20049
210 10.8206
215 9.34095
220 8.63984
225 9.55317
230 8.72055
235 8.56111
240 7.81503
245 7.78761
250 7.713
255 8.86966
260 10.3291
265 9.92953
270 9.92004
275 9.3082
280 7.68935
285 8.63092
290 9.53885
295 11.1314
300 11.3862
305 8.34443
310 9.63017
315 8.05842
320 7.55882
325 8.52701
330 10.5198
335 9.03738
340 8.12808
345 8.02424
350 9.68171
355 8.84299
360 10.1941
365 10.1301
370 10.3984
375 9.75444
380 8.47741
385 9.36775
390 11.809
395 7.77943
400 8.11732
405 7.66152
410 8.14719
415 8.24555
420 8.39884
425 9.4144
430 7.70233
435 8.21036
440 8.70796
445 8.22883
450 8.28332
455 10.0426
460 10.5901
465 7.2365
470 9.04895
475 8.6391
480 7.8812
485 7.55681
490 7.54055
495 9.99643
500 11.3651
505 11.3246
510 13.0653
515 11.1211
520 9.1353
525 8.21155
530 7.81193
535 10.0661
540 8.77365
545 10.8322
550 9.32129
555 8.37022
560 10.1055
565 7.22063
570 9.26031
575 10.7273
580 10.196
585 11.3814
590 8.46335
595 9.62481
600 1.09527
Ex : 248
200 7.66869
205 11.5882
210 6.37845
215 8.55635
220 10.6087
225 7.45884
230 8.40456
235 7.45523
240 6.33613
245 6.31072
250 7.01879
255 7.74558
260 7.45828
265 7.87385
270 5.99782
275 6.89414
280 6.76086
285 6.9648
290 7.56992
295 6.64848
300 5.92609
305 7.25436
310 7.4597
315 7.59849
320 6.60849
325 8.37111
330 7.77581
335 7.23148
340 7.24581
345 6.42204
350 9.64965
355 7.98873
360 6.9299
365 6.81257
370 8.03649
375 7.77238
380 7.5832
385 8.01567
390 7.06263
395 6.86033
400 7.5655
405 6.47091
410 7.81538
415 7.71146
420 7.84825
425 10.0005
430 10.2044
435 10.1859
440 8.84609
445 6.8705
450 8.00591
455 9.15913
460 7.05657
465 7.46492
470 7.55536
475 9.84686
480 8.75158
485 6.32705
490 7.30628
495 8.35373
500 10.1295
505 7.84906
510 6.974
515 9.13847
520 8.87523
525 7.16126
530 7.84145
535 6.66633
540 8.73444
545 6.07173
550 7.4216
555 6.15357
560 6.36866
565 6.91175
570 7.89278
575 8.35952
580 6.24381
585 6.32315
590 6.70212
595 9.08565
600 14.327
Ex : 253
200 7.40806
205 6.55757
210 7.88581
215 6.42746
220 4.63958
225 7.07004
230 7.13266
235 6.71356
240 4.67055
245 6.30695
250 6.73422
255 5.00586
260 6.03384
265 5.52615
270 5.8639
275 6.62345
280 4.31848
285 4.67493
290 6.66691
295 4.96699
300 6.79774
305 7.63492
310 6.59194
315 10.209
320 7.18265
325 6.51599
330 5.72068
335 6.94458
340 5.37688
345 7.01843
350 6.30961
355 7.01028
360 6.89839
365 6.3221
370 4.77251
375 4.37675
380 6.90309
385 5.79283
390 8.11902
395 6.19807
400 6.93992
405 6.2072
410 8.55494
415 7.74554
420 6.45499
425 7.98511
430 6.99333
435 5.75469
440 6.63674
445 6.05917
450 7.1381
455 6.9175
460 6.49531
465 7.46969
470 6.84362
475 7.9577
480 6.82512
485 6.06566
490 6.34956
495 6.80524
500 8.11434
505 8.55768
510 4.80062
515 5.08591
520 6.83743
525 5.2624
530 8.34761
535 6.91249
540 6.14945
545 6.07198
550 7.04396
555 5.29095
560 6.41612
565 6.73295
570 5.20156
575 6.66874
580 6.57083
585 7.10558
590 5.49717
595 5.89802
600 5.81115
Ex : 258
200 3.92731
205 4.83925
210 5.83113
215 4.22033
220 4.95718
225 4.78355
230 3.89165
235 3.34079
240 5.52325
245 4.59927
250 4.58751
255 5.71913
260 5.28011
265 4.09039
270 5.54463
275 4.5589
280 5.03686
285 4.43763
290 5.04895
295 3.49084
300 4.20722
305 5.02864
310 7.11085
315 5.31981
320 5.95225
325 4.31736
330 4.50549
335 5.94786
340 4.50941
345 5.64625
350 5.42562
355 5.00361
360 6.43983
365 4.12286
370 5.3564
375 4.609
380 4.21406
385 4.29968
390 5.69616
395 7.89218
400 5.07894
405 4.5118
410 5.08567
415 6.7982
420 4.69797
425 5.37158
430 4.31689
435 5.25122
440 5.45018
445 5.38571
450 5.14274
455 4.6467
460 5.41092
465 5.35271
470 5.66757
475 6.19465
480 5.75013
485 5.66474
490 4.8346
495 5.14294
500 4.96393
505 5.74642
510 4.58282
515 5.20775
520 3.66609
525 5.78068
530 5.31603
535 5.37258
540 5.99731
545 6.30273
550 5.55421
555 5.33958
560 5.19677
565 4.86827
570 3.12122
575 3.95079
580 4.79988
585 3.83881
590 5.75934
595 5.70061
600 3.78451
Ex : 263
200 4.0416
205 3.02503
210 2.44378
215 4.06472
220 3.14106
225 4.09216
230 3.13098
235 4.22967
240 4.91903
245 4.65947
250 4.85667
255 4.23859
260 3.08223
265 3.95145
270 3.49649
275 3.16355
280 3.46039
285 4.38103
290 4.34454
295 3.42071
300 4.47882
305 3.31359
310 3.6721
315 3.53514
320 3.2882
325 3.23352
330 4.28918
335 5.24314
340 3.03015
345 4.22112
350 3.72798
355 3.72504
360 3.66571
365 3.80627
370 4.57451
375 4.01811
380 4.12675
385 3.72608
390 3.87693
395 3.79781
400 4.69517
405 4.11636
410 3.66035
415 4.11993
420 4.19062
425 3.3333
430 3.73006
435 3.08965
440 3.7744
445 3.62589
450 4.81827
455 3.92855
460 4.25935
465 3.7835
470 4.27121
475 3.71253
480 3.64899
485 5.07862
490 4.88792
495 5.39554
500 4.14161
505 3.4415
510 4.39026
515 4.0658
520 5.14879
525 4.6836
530 4.94534
535 3.397
540 4.46099
545 3.34565
550 3.9534
555 4.12391
560 2.64965
565 3.57888
570 3.77103
575 3.07682
580 3.61315
585 2.68544
590 3.53314
595 3.49974
600 3.89094
Ex : 268
200 3.19377
205 3.22744
210 2.74999
215 1.86013
220 2.58253
225 2.8025
230 3.15918
235 3.77963
240 3.34192
245 2.77961
250 2.38412
255 2.49885
260 3.59493
265 2.82938
270 2.84271
275 2.79088
280 2.58337
285 3.71114
290 3.33606
295 2.98617
300 3.08506
305 2.18235
310 2.75506
315 2.86353
320 2.5325
325 2.85545
330 4.28579
335 3.77887
340 2.33156
345 2.03358
350 2.50218
355 3.6601
360 3.08548
365 2.90106
370 3.26744
375 2.87908
380 3.46432
385 4.07771
390 3.82869
395 3.50964
400 3.10706
405 3.32557
410 3.55971
415 3.92999
420 2.80071
425 3.77553
430 2.62693
435 2.78485
440 3.24892
445 3.46522
450 2.69073
455 3.21402
460 3.24193
465 3.27791
470 4.1321
475 3.55198
480 2.77265
485 2.57863
490 2.92567
495 3.37494
500 3.56132
505 2.96206
510 3.0549
515 3.49433
520 3.57743
525 3.69961
530 2.96688
535 2.40023
540 3.14995
545 2.12036
550 3.50636
555 2.30792
560 2.67148
565 3.63871
570 3.49957
575 2.65696
580 3.82226
585 3.00211
590 2.95839
595 3.3673
600 3.4638
Ex : 273
200 1.66292
205 1.70403
210 2.28078
215 2.60958
220 2.40382
225 2.74648
230 2.98385
235 2.33058
240 2.62814
245 2.55509
250 2.15112
255 2.65238
260 2.68718
265 2.76133
270 2.20128
275 2.77698
280 2.28497
285 2.11897
290 1.65001
295 1.93167
300 1.79455
305 1.93042
310 2.0609
315 2.42845
320 2.50152
325 3.30744
330 2.59829
335 2.66028
340 2.20126
345 2.56303
350 2.23311
355 2.24892
360 2.76302
365 2.83909
370 2.23448
375 2.86655
380 2.21034
385 2.79068
390 3.84038
395 2.59466
400 2.25131
405 3.03097
410 2.43219
415 3.06874
420 3.01033
425 3.02864
430 2.9855
435 2.91262
440 3.15749
445 2.69971
450 2.30658
455 3.55012
460 3.60635
465 3.21853
470 3.02238
475 2.79784
480 2.10176
485 3.12745
490 2.92418
495 2.24229
500 2.32991
505 2.50318
510 1.71337
515 2.69437
520 3.18635
525 3.81812
530 2.80416
535 2.19341
540 3.26746
545 2.36036
550 2.59886
555 2.6237
560 2.48347
565 2.04482
570 2.54142
575 2.35361
580 2.15795
585 1.91262
590 2.4298
595 2.54143
600 0.357375
Ex : 278
200 1.57604
205 1.75352
210 1.71787
215 1.4083
220 1.76105
225 1.79693
230 1.76103
235 2.17258
240 2.11964
245 2.14031
250 1.64534
255 1.67462
260 1.86533
265 1.79408
270 1.911
275 1.91654
280 2.19273
285 2.03852
290 2.38606
295 1.84092
300 1.94391
305 2.09788
310 2.39596
315 2.20442
320 1.71571
325 2.12018
330 2.19036
335 2.01751
340 2.42439
345 2.16416
350 2.09356
355 2.47263
360 2.5423
365 2.29088
370 2.3831
375 1.9358
380 2.18397
385 1.96998
390 2.32111
395 2.57579
400 2.28655
405 2.35117
410 1.80635
415 2.77813
420 2.67821
425 2.34179
430 2.31838
435 2.64571
440 2.46979
445 2.78082
450 2.45984
455 2.32931
460 1.85954
465 2.74006
470 2.54265
475 2.55004
480 1.85297
485 2.55989
490 3.38429
495 2.16661
500 2.23946
505 2.25452
510 1.9123
515 1.69139
520 1.68544
525 1.9369
530 2.12203
535 1.7171
540 2.12793
545 2.17468
550 2.29686
555 2.2744
560 1.9721
565 2.03211
570 2.13006
575 1.85865
580 2.0046
585 1.5723
590 1.92561
595 1.42075
600 1.26943
Ex : 283
200 1.66276
205 1.34868
210 1.91723
215 1.68442
220 1.74803
225 1.63514
230 1.7047
235 1.41426
240 1.63909
245 1.33588
250 1.31054
255 1.63041
260 1.22809
265 1.32831
270 1.92882
275 2.131
280 1.52996
285 1.29094
290 1.92337
295 1.78398
300 1.41353
305 1.65843
310 1.698
315 1.32352
320 1.68616
325 1.55567
330 1.71931
335 1.92476
340 1.55122
345 1.7629
350 2.07374
355 1.93661
360 2.01126
365 2.36116
370 1.91466
375 1.49795
380 2.27182
385 1.90441
390 1.5802
395 1.91513
400 2.39201
405 2.77926
410 2.12988
415 2.4968
420 1.87312
425 1.94931
430 1.85059
435 2.32985
440 2.18128
445 1.65205
450 1.97884
455 1.85721
460 1.7967
465 1.99718
470 1.52627
475 1.7828
480 1.56951
485 1.69541
490 1.63083
495 1.92417
500 1.43251
505 1.7442
510 1.9952
515 1.17445
520 1.37502
525 1.9537
530 2.13356
535 1.79638
540 2.15187
545 1.79445
550 1.43249
555 1.93313
560 1.7893
565 2.08824
570 2.06102
575 2.04964
580 1.6404
585 1.37331
590 1.36077
595 1.70904
600 2.01753
Ex : 288
200 1.21246
205 1.40412
210 1.29441
215 1.22233
220 1.12628
225 1.41876
230 1.1425
235 1.232
240 1.2527
245 1.15901
250 1.06783
255 1.44866
260 1.57258
265 1.62377
270 1.07683
275 1.39498
280 1.38073
285 1.66473
290 1.35001
295 1.21169
300 1.23388
305 1.37802
310 1.24704
315 1.31934
320 1.27763
325 1.27017
330 1.38648
335 1.55804
340 1.44959
345 1.13177
350 1.31104
355 1.47077
360 1.25416
365 1.30216
370 2.00843
375 1.24191
380 1.52262
385 1.78258
390 1.9406
395 1.92291
400 1.90813
405 1.78761
410 1.97101
415 2.06752
420 1.93004
425 1.96893
430 1.71812
435 1.56872
440 2.01368
445 1.57935
450 2.08533
455 1.68069
460 1.77431
465 2.1249
470 1.91559
475 1.45557
480 1.63292
485 1.77087
490 1.59206
495 1.34199
500 1.28863
505 1.60678
510 1.41094
515 1.14111
520 1.44396
525 1.18587
530 1.35463
535 1.68697
540 1.34466
545 1.34942
550 1.60041
555 1.51599
560 1.30317
565 1.37738
570 1.57534
575 1.68843
580 1.51537
585 1.93759
590 1.72857
595 1.47357
600 0.167687
Ex : 293
200 0.909216
205 1.08864
210 1.16539
215 1.11221
220 1.0377
225 1.06806
230 1.01104
235 1.4458
240 1.21999
245 1.11431
250 1.24883
255 1.39131
260 1.33733
265 1.09393
270 1.13841
275 1.06681
280 1.19827
285 1.01348
290 1.56691
295 1.14757
300 0.899592
305 0.928914
310 1.04268
315 1.08195
320 1.63456
325 1.11912
330 1.24443
335 1.25009
340 1.11262
345 1.08832
350 1.19977
355 1.32818
360 1.82094
365 1.46541
370 1.90233
375 1.76631
380 1.57656
385 1.61182
390 1.51723
395 1.74491
400 1.53449
405 1.47552
410 1.32743
415 1.4845
420 1.69217
425 1.78516
430 1.54748
435 2.0839
440 1.65118
445 1.53423
450 1.53737
455 1.50901
460 1.49305
465 1.70088
470 1.44766
475 1.68038
480 1.19453
485 1.48257
490 1.68739
495 1.19575
500 1.18446
505 1.21373
510 1.26882
515 1.13485
520 1.00048
525 0.935897
530 1.14736
535 0.990401
540 1.22834
545 1.18453
550 1.31654
555 1.36321
560 1.21291
565 1.03327
570 1.1693
575 1.13537
580 1.6747
585 1.47778
590 1.42025
595 0.898957
600 0.102298
Ex : 298
200 0.834137
205 0.931391
210 0.930256
215 0.848345
220 0.746924
225 0.773907
230 1.095
235 0.788172
240 0.899176
245 0.789041
250 0.949685
255 0.988844
260 1.0294
265 0.924548
270 0.947122
275 0.817818
280 1.04104
285 0.808696
290 1.03577
295 1.02244
300 1.02721
305 0.949953
310 0.914561
315 0.59597
320 0.711124
325 1.06169
330 1.15843
335 1.09107
340 1.20622
345 1.08391
350 1.20109
355 1.20769
360 1.27006
365 1.48461
370 1.13902
375 1.19573
380 1.54605
385 1.26807
390 1.73583
395 1.48324
400 1.55059
405 1.43305
410 1.53122
415 1.41537
420 1.30663
425 1.80172
430 1.41134
435 1.39853
440 1.52243
445 1.46119
450 1.26888
455 1.14232
460 1.17637
465 1.51277
470 1.38296
475 1.36078
480 1.03096
485 1.27659
490 0.875511
495 1.22153
500 1.02949
505 1.33828
510 1.09772
515 0.841421
520 0.934197
525 0.998229
530 0.944164
535 1.43459
540 1.2331
545 0.926343
550 1.13728
555 1.17863
560 0.853336
565 0.860682
570 0.832174
575 1.05322
580 0.812323
585 1.16707
590 1.52849
595 1.4841
600 0.168885
Ex : 303
200 1.13761
205 0.934403
210 0.722807
215 0.865817
220 0.788606
225 0.630239
230 0.775618
235 0.750336
240 0.842585
245 0.773863
250 0.854602
255 1.0312
260 0.885473
265 0.814746
270 0.845926
275 0.917194
280 0.726057
285 0.804089
290 1.05448
295 0.917264
300 1.09115
305 0.897213
310 1.10478
315 0.952696
320 0.943959
325 1.01703
330 1.0508
335 1.01776
340 1.2242
345 1.13086
350 1.07341
355 1.28978
360 1.17292
365 1.16873
370 1.25446
375 1.07451
380 1.31637
385 1.52043
390 1.34501
395 1.25902
400 1.51409
405 1.22634
410 1.46588
415 1.35227
420 1.17614
425 1.39967
430 1.22974
435 1.13625
440 1.31797
445 1.24708
450 1.40471
455 1.20784
460 1.13608
465 0.86893
470 1.14967
475 1.023
480 1.18886
485 1.11428
490 1.09924
495 0.981764
500 1.19489
505 0.96268
510 1.03307
515 1.05829
520 1.11329
525 1.17439
530 0.86305
535 0.928811
540 0.644836
545 0.895407
550 0.784918
555 0.698566
560 1.00536
565 0.990867
570 0.91709
575 0.954159
580 0.882749
585 0.87545
590 0.838907
595 0.856045
600 0.110642
Ex : 308
200 0.512165
205 0.713242
210 0.875701
215 0.762445
220 0.583226
225 0.942284
230 0.657564
235 0.848374
240 0.777241
245 0.626243
250 0.943881
255 0.868831
260 1.00387
265 0.730045
270 0.702368
275 0.67036
280 0.911927
285 0.771682
290 0.767044
295 0.567256
300 0.691762
305 0.7357
310 0.752928
315 0.584598
320 0.82676
325 0.903105
330 0.947502
335 0.790177
340 0.839911
345 0.746202
350 1.03412
355 1.07371
360 1.09739
365 1.15938
370 1.2052
375 1.38641
380 1.28183
385 1.10698
390 1.47761
395 1.16305
400 1.13651
405 1.09647
410 1.35785
415 1.53565
420 1.14786
425 0.848896
430 1.12421
435 1.36007
440 1.19926
445 0.986886
450 1.09461
455 1.37487
460 0.984724
465 1.22874
470 1.36276
475 1.05826
480 1.02839
485 0.83674
490 0.848449
495 0.902821
500 1.02262
505 0.983625
510 0.718211
515 0.804007
520 0.923937
525 0.790161
530 1.28187
535 0.878515
540 0.754107
545 0.799739
550 0.840448
555 0.704505
560 0.987599
565 0.693887
570 0.838369
575 0.849736
580 0.768684
585 0.538421
590 0.756961
595 0.769042
600 1.82539
Ex : 313
200 0.632418
205 0.573471
210 0.603493
215 0.615835
220 0.778062
225 0.777755
230 0.511579
235 0.573456
240 0.634298
245 0.59653
250 0.676475
255 0.73639
260 0.804448
265 0.73193
270 0.741649
275 0.781693
280 0.665903
285 0.60652
290 0.863925
295 0.565805
300 0.859497
305 0.975006
310 0.821378
315 0.593236
320 0.937554
325 0.773434
330 0.86421
335 0.872952
340 0.871933
345 0.98105
350 1.0516
355 0.976315
360 1.11774
365 1.05762
370 1.62407
375 1.24245
380 1.24107
385 1.32537
390 1.4149
395 1.58829
400 1.49769
405 1.68484
410 1.65079
415 1.68061
420 1.34768
425 1.57949
430 1.36537
435 1.35782
440 1.41191
445 1.48545
450 1.46532
455 1.24408
460 1.07027
465 1.11491
470 1.10253
475 1.02199
480 1.01522
485 0.919951
490 1.05991
495 0.846637
500 1.06136
505 0.926912
510 0.836213
515 0.918909
520 0.969929
525 0.934097
530 1.05463
535 0.801122
540 0.796516
545 0.825589
550 0.72601
555 0.836293
560 0.830074
565 0.591322
570 0.682567
575 0.682157
580 0.530412
585 0.72114
590 0.713352
595 0.847796
600 0.0964759
Ex : 318
200 0.628164
205 0.487281
210 0.642752
215 0.506756
220 0.507518
225 0.770536
230 0.529237
235 0.558701
240 0.509518
245 0.495404
250 0.746528
255 0.590664
260 0.638776
265 0.580122
270 0.464051
275 0.49889
280 0.650597
285 0.71155
290 0.642438
295 0.615107
300 0.542122
305 0.580618
310 0.782855
315 1.22664
320 1.01875
325 0.973796
330 1.17536
335 1.24321
340 1.66491
345 2.19094
350 2.72972
355 3.25671
360 4.05599
365 5.02864
370 5.6501
375 6.90712
380 7.16278
385 7.81991
390 8.61242
395 9.5296
400 9.94735
405 9.89493
410 9.63731
415 9.62457
420 9.22176
425 8.88039
430 9.06999
435 8.24636
440 8.05516
445 7.69852
450 7.2098
455 6.71937
460 6.6185
465 5.77652
470 6.22193
475 5.41384
480 5.01538
485 4.62366
490 4.29581
495 3.25953
500 2.89884
505 2.82473
510 2.82693
515 2.48829
520 2.03337
525 1.91037
530 1.84763
535 1.49338
540 1.48695
545 1.3662
550 1.17325
555 1.09831
560 1.10354
565 1.10118
570 0.981267
575 0.927042
580 0.9157
585 0.720712
590 0.789655
595 0.798823
600 0.687924
Ex : 323
200 0.675322
205 0.770007
210 0.462973
215 0.469094
220 0.664767
225 0.712694
230 0.759307
235 0.56376
240 0.585928
245 0.536169
250 0.589423
255 0.549508
260 0.701363
265 0.555399
270 0.49886
275 0.495029
280 0.683391
285 0.63248
290 0.639019
295 0.523901
300 0.588881
305 0.614619
310 0.690244
315 6.49114
320 28.3241
325 12.3586
330 3.92823
335 3.87975
340 4.72863
345 6.9278
350 9.93761
355 12.4657
360 15.4772
365 18.8608
370 21.8277
375 24.7774
380 28.0438
385 31.5254
390 34.406
395 35.9752
400 37.3885
405 38.3253
410 38.8868
415 37.9753
420 37.7321
425 36.5748
430 35.4624
435 32.4789
440 31.9151
445 30.7206
450 28.4323
455 27.4811
460 25.6553
465 23.1436
470 21.3649
475 19.5522
480 17.904
485 16.5922
490 14.2014
495 12.602
500 11.1328
505 9.76818
510 9.25735
515 8.22049
520 6.8608
525 6.24201
530 5.36015
535 4.72495
540 3.98181
545 3.44432
550 3.06937
555 2.68524
560 2.41018
565 2.14921
570 1.89455
575 1.40221
580 1.4132
585 1.32093
590 1.09179
595 0.877623
600 0.755418
Ex : 328
200 0.58746
205 0.499727
210 0.410349
215 0.742466
220 0.650178
225 0.420833
230 0.430667
235 0.491308
240 0.628382
245 0.592083
250 0.638621
255 0.547559
260 0.549426
265 0.398706
270 0.400101
275 0.600638
280 0.536307
285 0.409188
290 0.539038
295 0.434311
300 0.473127
305 0.48783
310 0.622755
315 2.25668
320 66.3971
325 155.383
330 46.3768
335 9.42103
340 7.12866
345 8.00527
350 10.1952
355 14.4483
360 19.799
365 22.6317
370 23.8586
375 27.176
380 31.2986
385 35.1001
390 37.9901
395 39.8555
400 40.6493
405 42.0256
410 42.54
415 42.7864
420 41.6462
425 40.5353
430 38.3927
435 36.5698
440 34.3949
445 33.487
450 31.895
455 30.1572
460 28.3527
465 25.6807
470 23.5546
475 21.5054
480 19.8595
485 17.16
490 15.9949
495 14.1568
500 12.8321
505 11.1973
510 9.75296
515 8.65362
520 7.6557
525 6.59242
530 5.82284
535 5.19693
540 4.63648
545 3.80851
550 3.72391
555 3.13838
560 2.89748
565 2.26086
570 2.12174
575 1.63013
580 1.25555
585 1.21427
590 1.29929
595 1.04575
600 0.830995
Ex : 333
200 0.691203
205 0.453878
210 0.504935
215 0.448018
220 0.512581
225 0.422225
230 0.354944
235 0.598287
240 0.610114
245 0.482631
250 0.494758
255 0.482364
260 0.463128
265 0.506886
270 0.498178
275 0.40128
280 0.405725
285 0.483976
290 0.445888
295 0.504901
300 0.661365
305 0.605065
310 0.554299
315 0.600056
320 10.119
325 186.864
330 306.604
335 78.4805
340 13.4731
345 7.0946
350 6.83834
355 7.92069
360 11.0912
365 15.9495
370 16.566
375 16.8578
380 18.1328
385 20.4832
390 23.1561
395 23.4534
400 24.3277
405 24.5723
410 25.4642
415 25.1556
420 24.2938
425 23.7448
430 21.5513
435 21.03
440 19.9263
445 19.1162
450 17.8392
455 17.2392
460 15.1694
465 13.8692
470 13.4526
475 12.2432
480 11.5583
485 10.3599
490 9.38254
495 8.1414
500 7.53442
505 6.49872
510 6.00624
515 5.61784
520 4.87585
525 4.23024
530 4.03471
535 3.37361
540 2.89098
545 2.69997
550 2.47343
555 2.04535
560 2.04394
565 1.75736
570 1.62866
575 1.61437
580 1.27944
585 1.12843
590 1.02544
595 1.01141
600 0.776339
Ex : 338
200 0.490314
205 0.418375
210 0.442057
215 0.604461
220 0.482845
225 0.527758
230 0.443096
235 0.480007
240 0.526681
245 0.522908
250 0.449141
255 0.477452
260 0.571903
265 0.35347
270 0.389018
275 0.528317
280 0.393893
285 0.612354
290 0.471974
295 0.627965
300 0.621059
305 0.477372
310 0.625652
315 0.532029
320 0.802349
325 18.6819
330 271.913
335 389.615
340 95.3886
345 14.6783
350 5.94191
355 4.66737
360 4.91226
365 6.98925
370 11.56
375 11.5927
380 11.0016
385 11.7969
390 13.0491
395 13.6616
400 12.832
405 13.8185
410 14.4892
415 14.8454
420 14.2688
425 13.4647
430 12.5745
435 12.2783
440 11.875
445 11.2704
450 10.3314
455 9.68151
460 8.87528
465 8.13302
470 7.21582
475 7.01261
480 6.68866
485 6.35808
490 5.82284
495 5.18181
500 4.4732
505 4.62139
510 4.00416
515 3.41179
520 3.0834
525 3.07815
530 2.74997
535 2.30566
540 2.11299
545 2.08843
550 2.16712
555 1.69303
560 1.68923
565 1.3918
570 1.3952
575 1.08824
580 1.0279
585 0.829953
590 0.823201
595 0.791492
600 0.102463
Ex : 343
200 0.389606
205 0.359342
210 0.337584
215 0.276998
220 0.364434
225 0.335315
230 0.363201
235 0.435659
240 0.355547
245 0.267234
250 0.374769
255 0.359769
260 0.37759
265 0.437782
270 0.515625
275 0.49559
280 0.336509
285 0.348499
290 0.678546
295 0.470702
300 0.493924
305 0.541994
310 0.342104
315 0.444448
320 0.443321
325 0.754361
330 20.5605
335 305.256
340 428.602
345 102.108
350 15.0659
355 5.00737
360 3.79142
365 3.24821
370 4.20912
375 8.36808
380 9.76744
385 9.51975
390 9.65301
395 9.77297
400 9.76619
405 10.0071
410 11.0995
415 11.6015
420 11.4473
425 10.4118
430 9.3263
435 9.61247
440 9.56408
445 9.10233
450 8.44881
455 7.88675
460 7.52006
465 7.12822
470 6.43851
475 6.10922
480 6.08464
485 5.12479
490 4.97342
495 4.48527
500 4.01547
505 3.69886
510 3.53058
515 3.04634
520 2.71951
525 2.4245
530 2.30815
535 2.15232
540 1.94621
545 1.71903
550 1.80611
555 1.50953
560 1.44777
565 1.45067
570 1.20587
575 0.992926
580 1.02712
585 0.909201
590 0.720383
595 0.844665
600 0.570668
Ex : 348
200 0.333666
205 0.442469
210 0.335871
215 0.384035
220 0.320194
225 0.318198
230 0.37863
235 0.303487
240 0.412122
245 0.415513
250 0.379372
255 0.39961
260 0.456104
265 0.462839
270 0.492159
275 0.327168
280 0.503137
285 0.314663
290 0.370661
295 0.336606
300 0.390286
305 0.417531
310 0.426969
315 0.397279
320 0.570432
325 0.716048
330 0.950935
335 20.5713
340 305.246
345 446.061
350 112.431
355 15.3507
360 4.75219
365 3.29212
370 2.59205
375 3.51382
380 7.48418
385 11.549
390 11.9302
395 11.1422
400 10.2478
405 10.3113
410 11.6825
415 12.5661
420 12.1757
425 11.3341
430 10.6111
435 10.1752
440 10.0731
445 9.84301
450 8.87466
455 8.19665
460 7.53051
465 7.00298
470 6.85238
475 6.29763
480 5.90254
485 5.38536
490 4.95881
495 4.52292
500 4.25032
505 3.7183
510 3.60699
515 3.34851
520 3.03448
525 2.51991
530 2.24878
535 2.10063
540 2.07082
545 1.89854
550 1.64325
555 1.53437
560 1.56619
565 1.26589
570 1.29519
575 0.991808
580 1.06733
585 0.97122
590 0.828003
595 0.683152
600 0.652717
Ex : 353
200 0.301294
205 0.356841
210 0.278715
215 0.319029
220 0.256032
225 0.291548
230 0.348567
235 0.332712
240 0.327229
245 0.38392
250 0.386417
255 0.36467
260 0.435406
265 0.436819
270 0.343811
275 0.344099
280 0.351317
285 0.443787
290 0.354464
295 0.389766
300 0.312505
305 0.35579
310 0.489817
315 0.415367
320 0.38089
325 0.495698
330 0.724992
335 1.09597
340 20.0368
345 311.25
350 439.059
355 106.12
360 14.6807
365 4.35684
370 3.09277
375 2.5651
380 3.49609
385 8.17649
390 14.2067
395 13.6883
400 11.5914
405 11.2297
410 11.948
415 13.5935
420 12.9364
425 11.7121
430 11.0444
435 10.5809
440 10.5658
445 10.1867
450 9.54859
455 8.63653
460 7.92186
465 7.23288
470 6.91093
475 6.44828
480 6.02807
485 5.45916
490 5.12371
495 4.79306
500 4.33316
505 4.01551
510 3.52525
515 3.29855
520 3.00435
525 2.89726
530 2.52795
535 2.27504
540 1.93492
545 1.78945
550 1.61007
555 1.546
560 1.46845
565 1.28546
570 1.15579
575 0.923185
580 0.949601
585 0.753313
590 0.750613
595 0.637759
600 0.325068
Ex : 358
200 0.336125
205 0.284709
210 0.29637
215 0.309839
220 0.372156
225 0.341313
230 0.249962
235 0.275663
240 0.469574
245 0.32497
250 0.368362
255 0.337429
260 0.421974
265 0.407303
270 0.318132
275 0.344091
280 0.387116
285 0.337228
290 0.396842
295 0.251055
300 0.435129
305 0.366755
310 0.320839
315 0.381774
320 0.443397
325 0.376867
330 0.534865
335 0.690148
340 0.789586
345 19.3151
350 291.639
355 439.669
360 109.064
365 14.6826
370 3.99638
375 3.24499
380 3.43312
385 5.17962
390 9.10192
395 13.4661
400 12.6244
405 11.1607
410 11.6591
415 12.4419
420 12.6374
425 11.0522
430 10.2516
435 10.2166
440 10.3001
445 10.2764
450 9.38379
455 8.46464
460 7.8543
465 7.34537
470 7.20769
475 6.59066
480 6.05995
485 5.49143
490 5.00576
495 4.824
500 4.45787
505 4.00614
510 3.77467
515 3.25881
520 2.94073
525 2.55418
530 2.50246
535 2.34002
540 2.06746
545 1.77199
550 1.70265
555 1.75274
560 1.49403
565 1.40846
570 1.23318
575 0.998483
580 0.909256
585 0.811078
590 0.681485
595 0.576397
600 0.184361
Ex : 363
200 0.385544
205 0.234794
210 0.283583
215 0.307611
220 0.254862
225 0.292366
230 0.302324
235 0.349636
240 0.276602
245 0.34581
250 0.2967
255 0.345633
260 0.383187
265 0.28251
270 0.410872
275 0.368397
280 0.388388
285 0.341312
290 0.290285
295 0.389855
300 0.396359
305 0.335555
310 0.367635
315 0.320412
320 0.380213
325 0.384587
330 0.511417
335 0.5923
340 0.600723
345 0.898176
350 17.7135
355 278.334
360 428.936
365 109.415
370 14.5871
375 4.09757
380 4.42499
385 6.16106
390 8.44541
395 9.68495
400 12.5676
405 14.164
410 14.5453
415 14.5475
420 12.9733
425 11.6073
430 11.1459
435 11.1921
440 11.4335
445 10.7029
450 9.88528
455 8.98608
460 8.54995
465 8.05818
470 7.96066
475 7.04073
480 6.99976
485 5.94946
490 5.40444
495 5.0448
500 4.71275
505 4.39506
510 3.90696
515 3.55239
520 3.18443
525 2.70769
530 2.44559
535 2.11892
540 2.17492
545 2.03741
550 1.82009
555 1.57815
560 1.55547
565 1.13392
570 1.04942
575 0.986855
580 0.940759
585 0.775225
590 0.618131
595 0.607341
600 0.480106
Ex : 368
200 0.235363
205 0.285156
210 0.285334
215 0.322092
220 0.225688
225 0.273547
230 0.236265
235 0.244436
240 0.305215
245 0.305057
250 0.326307
255 0.353139
260 0.282252
265 0.298201
270 0.299229
275 0.35279
280 0.303485
285 0.370051
290 0.419914
295 0.289145
300 0.281121
305 0.327392
310 0.350345
315 0.338509
320 0.294555
325 0.362982
330 0.471681
335 0.492302
340 0.4974
345 0.636971
350 0.958115
355 14.0108
360 269.559
365 434.615
370 112.727
375 15.1632
380 5.11801
385 7.04566
390 10.2992
395 11.5986
400 11.1442
405 14.2589
410 18.5379
415 18.3629
420 17.2973
425 14.3831
430 12.7705
435 13.1706
440 13.4114
445 13.4026
450 11.8048
455 10.1993
460 9.61487
465 8.99631
470 8.49794
475 8.21127
480 7.48664
485 6.6004
490 6.02722
495 5.23666
500 4.84996
505 4.66051
510 4.07613
515 3.73715
520 3.29604
525 3.01472
530 2.79812
535 2.4084
540 2.01833
545 2.13303
550 1.79608
555 1.6945
560 1.48685
565 1.40609
570 1.1927
575 1.01743
580 0.86577
585 0.749598
590 0.657437
595 0.671033
600 0.46888
Ex : 373
200 0.328893
205 0.345443
210 0.273779
215 0.244461
220 0.287589
225 0.399733
230 0.268034
235 0.300948
240 0.243135
245 0.306521
250 0.274017
255 0.303335
260 0.255025
265 0.359309
270 0.269932
275 0.216755
280 0.232211
285 0.264938
290 0.306456
295 0.311738
300 0.297695
305 0.305631
310 0.255806
315 0.299673
320 0.319607
325 0.3215
330 0.321589
335 0.365799
340 0.428484
345 0.433853
350 0.536391
355 0.78833
360 16.563
365 272.652
370 426.399
375 111.277
380 15.693
385 6.95833
390 10.193
395 11.9885
400 10.9605
405 11.0021
410 15.0677
415 19.9682
420 19.0572
425 15.3816
430 12.9327
435 12.4024
440 13.2076
445 12.2845
450 11.4016
455 10.1774
460 9.24188
465 8.82911
470 8.37557
475 7.84255
480 7.06277
485 6.3287
490 6.23638
495 5.49215
500 5.14203
505 4.71422
510 4.17886
515 3.87715
520 3.45065
525 2.94256
530 2.70437
535 2.52516
540 2.31071
545 2.01772
550 1.9282
555 1.58753
560 1.40366
565 1.30494
570 1.02791
575 1.0382
580 0.876836
585 0.678537
590 0.605562
595 0.662152
600 0.826083
Ex : 378
200 0.241049
205 0.318885
210 0.234539
215 0.250234
220 0.329203
225 0.338598
230 0.262804
235 0.27214
240 0.302435
245 0.341069
250 0.232702
255 0.288095
260 0.250649
265 0.25544
270 0.293144
275 0.241407
280 0.262823
285 0.28571
290 0.336315
295 0.317258
300 0.25386
305 0.203578
310 0.259436
315 0.220311
320 0.277143
325 0.339305
330 0.326308
335 0.344288
340 0.330101
345 0.42063
350 0.454844
355 0.591177
360 0.785646
365 15.1664
370 266.168
375 424.819
380 112.836
385 17.1525
390 8.87367
395 9.54081
400 8.5631
405 8.55791
410 10.3941
415 13.4344
420 16.0155
425 14.0623
430 11.4664
435 11.3625
440 10.7275
445 10.6087
450 9.89573
455 8.81645
460 8.3178
465 8.06044
470 7.77993
475 7.42501
480 6.61088
485 6.11636
490 5.74418
495 5.1408
500 4.61857
505 4.24967
510 4.14928
515 3.64422
520 3.15636
525 3.05981
530 2.72277
535 2.56792
540 2.20121
545 1.95649
550 1.95147
555 1.66014
560 1.50697
565 1.36114
570 1.11552
575 0.848107
580 0.851336
585 0.607047
590 0.602213
595 0.550685
600 0.687367
Ex : 383
200 0.232045
205 0.24387
210 0.245517
215 0.225075
220 0.169225
225 0.285825
230 0.268673
235 0.187768
240 0.301548
245 0.230799
250 0.209713
255 0.19046
260 0.288481
265 0.186577
270 0.262307
275 0.290979
280 0.272798
285 0.235802
290 0.263742
295 0.247341
300 0.237971
305 0.2184
310 0.266718
315 0.285544
320 0.275975
325 0.306345
330 0.282068
335 0.366722
340 0.370734
345 0.364707
350 0.378491
355 0.472947
360 0.567325
365 0.776043
370 13.8504
375 261.601
380 441.847
385 120.421
390 20.8915
395 9.60166
400 8.32353
405 9.13723
410 11.4478
415 12.8681
420 13.2061
425 14.0087
430 13.6792
435 12.7241
440 12.7265
445 11.4162
450 10.6583
455 9.55437
460 8.71217
465 8.35187
470 8.02408
475 7.83085
480 7.0745
485 6.63586
490 5.70186
495 5.35426
500 5.04394
505 4.62295
510 4.16731
515 3.74548
520 3.45722
525 2.98458
530 2.76538
535 2.36522
540 2.1019
545 2.1056
550 1.83624
555 1.60988
560 1.46252
565 1.22668
570 1.08208
575 0.918401
580 0.825119
585 0.743241
590 0.574039
595 0.465604
600 0.459595
Ex : 388
200 0.22035
205 0.261775
210 0.243097
215 0.299875
220 0.17503
225 0.228365
230 0.244516
235 0.231203
240 0.320564
245 0.316022
250 0.189185
255 0.289726
260 0.261685
265 0.2265
270 0.325424
275 0.298839
280 0.238128
285 0.234089
290 0.208268
295 0.230666
300 0.218113
305 0.288226
310 0.267065
315 0.229747
320 0.266595
325 0.283985
330 0.291969
335 0.229415
340 0.412082
345 0.32695
350 0.355999
355 0.518765
360 0.479028
365 0.60289
370 0.914885
375 15.3837
380 268.247
385 437.946
390 120.734
395 22.8526
400 10.5333
405 10.603
410 13.0672
415 15.3682
420 15.082
425 13.7497
430 14.5752
435 15.8768
440 15.3226
445 14.1502
450 12.0022
455 10.6502
460 9.53774
465 8.99428
470 8.66576
475 8.38467
480 7.51646
485 6.85948
490 6.07972
495 5.77586
500 5.15295
505 4.70507
510 4.25903
515 3.90267
520 3.43618
525 3.1747
530 2.82184
535 2.44724
540 2.13168
545 1.98387
550 1.88234
555 1.72095
560 1.59033
565 1.40242
570 1.19721
575 1.04436
580 0.85704
585 0.719833
590 0.523304
595 0.535843
600 0.439812
Ex : 393
200 0.244869
205 0.233282
210 0.199653
215 0.281629
220 0.264645
225 0.208814
230 0.210685
235 0.268646
240 0.243081
245 0.238555
250 0.262758
255 0.287245
260 0.256682
265 0.242083
270 0.247944
275 0.241906
280 0.257211
285 0.209951
290 0.263402
295 0.271397
300 0.273172
305 0.272255
310 0.26235
315 0.223609
320 0.247472
325 0.301222
330 0.247705
335 0.295741
340 0.302844
345 0.270804
350 0.326697
355 0.35125
360 0.336055
365 0.414899
370 0.462167
375 0.724039
380 14.056
385 267.911
390 445.486
395 125.83
400 23.1903
405 10.8545
410 11.7598
415 15.265
420 14.4755
425 12.5206
430 11.3742
435 12.6834
440 14.5443
445 13.8328
450 11.9968
455 9.77508
460 8.68605
465 8.02235
470 7.7266
475 7.06642
480 6.55318
485 6.19529
490 5.56405
495 5.04561
500 4.87186
505 4.58486
510 4.08206
515 3.71087
520 3.12676
525 3.01791
530 2.63013
535 2.41105
540 2.16526
545 1.88021
550 1.76003
555 1.61888
560 1.36656
565 1.23725
570 1.06241
575 0.949994
580 0.860305
585 0.675687
590 0.589525
595 0.602565
600 0.290121
Ex : 398
200 0.168893
205 0.292354
210 0.25131
215 0.229293
220 0.202762
225 0.243569
230 0.2689
235 0.208887
240 0.259607
245 0.172756
250 0.227207
255 0.237569
260 0.200986
265 0.232142
270 0.264771
275 0.248522
280 0.226491
285 0.274958
290 0.233102
295 0.28799
300 0.265556
305 0.250469
310 0.236713
315 0.191326
320 0.177157
325 0.217852
330 0.253286
335 0.317982
340 0.233199
345 0.291068
350 0.317033
355 0.304495
360 0.257667
365 0.401985
370 0.368958
375 0.464036
380 0.833231
385 14.6056
390 269.076
395 446.131
400 119.992
405 19.2202
410 8.57645
415 9.53323
420 9.87471
425 8.78497
430 7.33188
435 7.39018
440 8.66643
445 11.0971
450 10.0507
455 8.34359
460 6.8983
465 6.53338
470 5.88899
475 5.92518
480 5.63145
485 5.20785
490 4.83807
495 4.48026
500 4.07739
505 3.85101
510 3.62327
515 3.21822
520 2.9175
525 2.69304
530 2.37704
535 2.13875
540 1.93488
545 1.78798
550 1.62301
555 1.50722
560 1.41575
565 1.15251
570 1.01491
575 0.961444
580 0.779228
585 0.709772
590 0.619979
595 0.502255
600 0.325701
Ex : 403
200 0.23798
205 0.176323
210 0.212696
215 0.195324
220 0.181469
225 0.209606
230 0.231681
235 0.221681
240 0.234654
245 0.263529
250 0.241988
255 0.164979
260 0.170744
265 0.251835
270 0.240939
275 0.233416
280 0.196759
285 0.263397
290 0.236383
295 0.221886
300 0.25075
305 0.246158
310 0.245619
315 0.25561
320 0.171787
325 0.251701
330 0.232606
335 0.274312
340 0.26617
345 0.288361
350 0.38708
355 0.271991
360 0.310439
365 0.290261
370 0.420511
375 0.402449
380 0.513701
385 0.961936
390 15.8312
395 270.887
400 435.333
405 117.009
410 17.3732
415 7.1054
420 5.94431
425 5.4471
430 5.19548
435 5.13639
440 5.59289
445 6.27256
450 8.28379
455 8.16756
460 6.29011
465 6.02884
470 5.54369
475 5.06417
480 4.90903
485 4.43088
490 4.17463
495 4.12658
500 3.96905
505 3.80369
510 3.32123
515 2.82987
520 2.72111
525 2.60219
530 2.17755
535 2.22295
540 2.01425
545 1.96256
550 1.64081
555 1.47445
560 1.38402
565 1.18567
570 1.04804
575 0.90919
580 0.660329
585 0.586234
590 0.487716
595 0.493243
600 0.137239
Ex : 408
200 0.202351
205 0.19748
210 0.181555
215 0.188378
220 0.217376
225 0.196213
230 0.188252
235 0.202701
240 0.208374
245 0.217392
250 0.213783
255 0.257513
260 0.226637
265 0.195102
270 0.191688
275 0.224933
280 0.228512
285 0.213142
290 0.194495
295 0.183838
300 0.205947
305 0.203854
310 0.291143
315 0.220808
320 0.203505
325 0.238506
330 0.302757
335 0.249296
340 0.240972
345 0.216633
350 0.288561
355 0.270867
360 0.288602
365 0.305746
370 0.366187
375 0.368453
380 0.427275
385 0.542166
390 0.913339
395 14.844
400 271.48
405 437.68
410 114.006
415 17.5108
420 6.65305
425 5.28696
430 5.09753
435 5.32864
440 5.55047
445 5.88
450 5.84361
455 7.12949
460 8.34411
465 7.06851
470 6.14763
475 5.56458
480 4.87003
485 4.69919
490 4.33586
495 3.94376
500 3.77825
505 3.79793
510 3.24012
515 2.94106
520 2.80182
525 2.51002
530 2.40809
535 2.08525
540 1.9388
545 1.66102
550 1.62812
555 1.3394
560 1.24191
565 1.16268
570 1.00831
575 0.836112
580 0.708777
585 0.607753
590 0.490849
595 0.429926
600 1.22755
Ex : 413
200 0.203607
205 0.184093
210 0.200908
215 0.248102
220 0.261882
225 0.197492
230 0.227289
235 0.284815
240 0.266818
245 0.187331
250 0.194471
255 0.191266
260 0.247152
265 0.235177
270 0.234438
275 0.238305
280 0.2123
285 0.229862
290 0.237895
295 0.239989
300 0.226454
305 0.209069
310 0.22472
315 0.196817
320 0.210373
325 0.216391
330 0.275892
335 0.267529
340 0.253154
345 0.217706
350 0.28091
355 0.271439
360 0.351567
365 0.263607
370 0.265429
375 0.307209
380 0.385262
385 0.422344
390 0.612073
395 0.818391
400 16.5162
405 276.547
410 435.985
415 112.019
420 16.9385
425 5.69381
430 4.58233
435 4.90304
440 5.01724
445 5.2133
450 5.07472
455 4.76461
460 5.73196
465 7.69042
470 6.36328
475 5.53883
480 5.01763
485 4.42825
490 4.01878
495 3.90763
500 3.63052
505 3.2139
510 3.1658
515 2.82482
520 2.72414
525 2.42924
530 2.20939
535 2.17612
540 2.01976
545 1.80041
550 1.50201
555 1.33758
560 1.26617
565 1.09446
570 0.987188
575 0.754192
580 0.73668
585 0.558004
590 0.522549
595 0.408538
600 0.594111
Ex : 418
200 0.232201
205 0.185543
210 0.215122
215 0.222422
220 0.211034
225 0.240787
230 0.215101
235 0.214752
240 0.181847
245 0.235915
250 0.164204
255 0.168507
260 0.200399
265 0.20779
270 0.18875
275 0.174362
280 0.184202
285 0.235616
290 0.174652
295 0.214564
300 0.186874
305 0.24017
310 0.28254
315 0.20145
320 0.218417
325 0.194137
330 0.285386
335 0.187323
340 0.223721
345 0.233952
350 0.276306
355 0.290693
360 0.30204
365 0.281754
370 0.247686
375 0.286779
380 0.342553
385 0.362752
390 0.451506
395 0.490403
400 0.87434
405 15.5774
410 271.089
415 436.378
420 114.484
425 15.9991
430 4.59973
435 3.28279
440 3.60545
445 3.74457
450 3.24232
455 3.29607
460 3.24559
465 3.90522
470 5.76162
475 5.89069
480 4.60118
485 4.06064
490 3.53964
495 3.07647
500 2.98153
505 3.09168
510 2.79438
515 2.65205
520 2.41419
525 2.17326
530 1.95511
535 1.97626
540 1.6974
545 1.63559
550 1.48709
555 1.3121
560 1.16574
565 1.06641
570 0.945706
575 0.799759
580 0.624148
585 0.673725
590 0.537505
595 0.420515
600 0.143424
Ex : 423
200 0.188319
205 0.224542
210 0.180385
215 0.200254
220 0.144173
225 0.190183
230 0.228234
235 0.338791
240 0.274023
245 0.200642
250 0.188765
255 0.167047
260 0.171156
265 0.186074
270 0.223984
275 0.1755
280 0.261682
285 0.198648
290 0.195879
295 0.219263
300 0.22409
305 0.186597
310 0.226795
315 0.186412
320 0.207353
325 0.232839
330 0.256859
335 0.198668
340 0.230014
345 0.21754
350 0.275753
355 0.243126
360 0.209987
365 0.2222
370 0.259552
375 0.285687
380 0.296911
385 0.360638
390 0.433676
395 0.415558
400 0.525897
405 0.912709
410 15.756
415 276.678
420 427.443
425 107.14
430 14.2988
435 3.5441
440 2.42689
445 2.44737
450 2.5415
455 2.24829
460 2.30951
465 2.41244
470 2.79364
475 4.75871
480 5.43964
485 4.15536
490 3.4882
495 3.28476
500 2.82114
505 2.62695
510 2.49061
515 2.33563
520 2.20521
525 1.97102
530 1.89362
535 1.70808
540 1.67015
545 1.5135
550 1.39539
555 1.27026
560 1.10183
565 1.05947
570 0.900462
575 0.825012
580 0.714677
585 0.548401
590 0.470997
595 0.476987
600 0.380089
Ex : 428
200 0.228834
205 0.217523
210 0.186529
215 0.225729
220 0.187184
225 0.192356
230 0.201625
235 0.212393
240 0.253682
245 0.243893
250 0.260812
255 0.238517
260 0.257191
265 0.223066
270 0.247419
275 0.182284
280 0.230972
285 0.189968
290 0.170802
295 0.258148
300 0.199163
305 0.246964
310 0.242321
315 0.256487
320 0.228674
325 0.217095
330 0.247553
335 0.300865
340 0.217756
345 0.242148
350 0.236259
355 0.276859
360 0.254025
365 0.296827
370 0.299675
375 0.304706
380 0.268549
385 0.34813
390 0.317833
395 0.319839
400 0.431175
405 0.493913
410 0.814111
415 17.0909
420 276.622
425 428.418
430 109.564
435 14.1966
440 3.23303
445 1.7997
450 2.03102
455 2.12166
460 1.87925
465 1.79736
470 2.0146
475 2.34098
480 3.46226
485 4.94266
490 3.8944
495 3.26805
500 3.07009
505 2.61038
510 2.45268
515 2.26192
520 2.09964
525 2.01533
530 1.83868
535 1.75602
540 1.50579
545 1.46726
550 1.36334
555 1.29743
560 1.1803
565 0.90303
570 0.916103
575 0.844702
580 0.662107
585 0.563871
590 0.483748
595 0.423111
600 0.391291
Ex : 433
200 0.216871
205 0.248284
210 0.30315
215 0.207686
220 0.182566
225 0.228478
230 0.265284
235 0.231222
240 0.210148
245 0.239247
250 0.193116
255 0.22169
260 0.202613
265 0.324399
270 0.220438
275 0.208072
280 0.229858
285 0.225744
290 0.212136
295 0.197573
300 0.280223
305 0.232908
310 0.212477
315 0.243026
320 0.221576
325 0.189117
330 0.206491
335 0.217319
340 0.197556
345 0.26718
350 0.206561
355 0.350346
360 0.330408
365 0.317705
370 0.246249
375 0.240413
380 0.321375
385 0.330955
390 0.304968
395 0.351396
400 0.362678
405 0.422059
410 0.584065
415 0.878391
420 18.7232
425 294.015
430 431.619
435 106.801
440 13.6922
445 2.94038
450 1.67209
455 1.86183
460 2.01198
465 1.84786
470 1.78823
475 1.78199
480 2.05001
485 2.99718
490 4.83803
495 4.11633
500 2.92598
505 2.84426
510 2.3608
515 2.14839
520 1.80798
525 1.88909
530 1.7807
535 1.71759
540 1.56385
545 1.42061
550 1.30112
555 1.24065
560 1.16125
565 1.04651
570 0.978456
575 0.815029
580 0.6464
585 0.610462
590 0.532921
595 0.46778
600 0.470799
Ex : 438
200 0.202756
205 0.228688
210 0.174179
215 0.185993
220 0.184933
225 0.19628
230 0.219432
235 0.251281
240 0.250182
245 0.225053
250 0.209408
255 0.222206
260 0.191301
265 0.191981
270 0.199951
275 0.249736
280 0.139625
285 0.233822
290 0.259511
295 0.210394
300 0.208547
305 0.231702
310 0.200118
315 0.202073
320 0.224953
325 0.238889
330 0.297921
335 0.214934
340 0.272087
345 0.246035
350 0.294857
355 0.234373
360 0.208839
365 0.198727
370 0.268089
375 0.259597
380 0.325855
385 0.288694
390 0.312547
395 0.340925
400 0.397988
405 0.342317
410 0.363608
415 0.519447
420 0.752152
425 17.2423
430 287.387
435 449.075
440 109.828
445 14.037
450 2.94517
455 1.73879
460 1.80828
465 1.99612
470 1.88751
475 1.81078
480 1.74613
485 2.03251
490 2.36703
495 3.94421
500 4.11281
505 3.00049
510 2.44968
515 2.35203
520 1.96849
525 1.77773
530 1.64224
535 1.60365
540 1.64427
545 1.4076
550 1.22238
555 1.24316
560 1.14621
565 1.03263
570 0.891911
575 0.738127
580 0.667769
585 0.535918
590 0.465647
595 0.466305
600 0.143493
Ex : 443
200 0.233845
205 0.187094
210 0.174559
215 0.270335
220 0.201251
225 0.158246
230 0.209949
235 0.328819
240 0.237249
245 0.220474
250 0.226264
255 0.237977
260 0.299548
265 0.215166
270 0.1681
275 0.256647
280 0.207931
285 0.2095
290 0.214067
295 0.2122
300 0.210992
305 0.165928
310 0.220341
315 0.213687
320 0.21937
325 0.236137
330 0.253915
335 0.228323
340 0.250971
345 0.262812
350 0.218322
355 0.29048
360 0.217347
365 0.300567
370 0.20726
375 0.258948
380 0.230712
385 0.282277
390 0.305582
395 0.282
400 0.26576
405 0.392394
410 0.482282
415 0.43407
420 0.505176
425 0.801342
430 19.2687
435 305.849
440 453.97
445 111.57
450 14.3595
455 3.28204
460 1.71156
465 1.9834
470 1.9925
475 1.91649
480 1.63879
485 1.69954
490 1.80775
495 1.93876
500 3.48236
505 4.25941
510 3.02844
515 2.65875
520 2.23764
525 1.85044
530 1.62453
535 1.44904
540 1.55779
545 1.54731
550 1.52705
555 1.24391
560 1.13797
565 1.00549
570 0.973663
575 0.763803
580 0.705805
585 0.548823
590 0.488536
595 0.501152
600 0.551725
Ex : 448
200 0.236804
205 0.214583
210 0.229883
215 0.264443
220 0.251806
225 0.240308
230 0.278364
235 0.199494
240 0.184772
245 0.183625
250 0.247306
255 0.193645
260 0.229948
265 0.239063
270 0.199546
275 0.261549
280 0.256248
285 0.240748
290 0.197467
295 0.218538
300 0.193317
305 0.220825
310 0.241395
315 0.227493
320 0.199032
325 0.199104
330 0.252686
335 0.275949
340 0.241839
345 0.238431
350 0.207317
355 0.219088
360 0.234424
365 0.288369
370 0.286454
375 0.309258
380 0.280762
385 0.251648
390 0.268333
395 0.351888
400 0.295431
405 0.304667
410 0.374526
415 0.430873
420 0.44732
425 0.568732
430 0.795943
435 19.0812
440 316.753
445 464.528
450 112.528
455 14.3253
460 3.1286
465 1.60968
470 1.77164
475 2.00784
480 1.66645
485 1.68703
490 1.5275
495 1.65786
500 1.80693
505 2.67241
510 3.67798
515 3.25571
520 2.47289
525 2.21408
530 1.96699
535 1.70285
540 1.45159
545 1.47766
550 1.25785
555 1.31212
560 1.12144
565 1.03631
570 0.853225
575 0.788191
580 0.690217
585 0.581796
590 0.56366
595 0.433666
600 0.75771
Ex : 453
200 0.201315
205 0.214398
210 0.22937
215 0.205238
220 0.217765
225 0.19262
230 0.22036
235 0.243566
240 0.229255
245 0.239644
250 0.188467
255 0.193038
260 0.191186
265 0.219065
270 0.252296
275 0.227359
280 0.187323
285 0.164456
290 0.238297
295 0.206662
300 0.22647
305 0.291598
310 0.234435
315 0.17673
320 0.259041
325 0.230686
330 0.227188
335 0.205708
340 0.211146
345 0.207963
350 0.195697
355 0.285802
360 0.23881
365 0.231869
370 0.270529
375 0.260932
380 0.283061
385 0.292168
390 0.254696
395 0.262152
400 0.287906
405 0.32549
410 0.250124
415 0.341815
420 0.387557
425 0.42691
430 0.527131
435 0.770099
440 19.8985
445 338.185
450 475.332
455 109.404
460 14.0174
465 3.14312
470 1.63252
475 1.64609
480 1.84248
485 1.86696
490 1.74622
495 1.46132
500 1.43785
505 1.52865
510 2.00171
515 3.28869
520 3.44862
525 2.39909
530 2.17209
535 1.99231
540 1.43379
545 1.3866
550 1.33729
555 1.23416
560 1.16023
565 1.00412
570 0.838735
575 0.741191
580 0.71858
585 0.629914
590 0.554692
595 0.424208
600 0.0940128
Ex : 458
200 0.240096
205 0.180602
210 0.224465
215 0.195686
220 0.176746
225 0.186405
230 0.154233
235 0.227719
240 0.210631
245 0.164351
250 0.205865
255 0.245832
260 0.19159
265 0.203335
270 0.226377
275 0.226827
280 0.226856
285 0.198521
290 0.245709
295 0.212877
300 0.189898
305 0.180614
310 0.202782
315 0.210024
320 0.23265
325 0.281095
330 0.176887
335 0.156949
340 0.161117
345 0.233282
350 0.236663
355 0.252974
360 0.257985
365 0.309448
370 0.261414
375 0.309983
380 0.212516
385 0.239943
390 0.294664
395 0.294323
400 0.308168
405 0.262947
410 0.32049
415 0.338957
420 0.374006
425 0.40113
430 0.389576
435 0.546609
440 0.793183
445 22.2779
450 339.881
455 491.927
460 117.646
465 14.9935
470 3.14006
475 1.80938
480 1.68985
485 1.78048
490 1.82452
495 1.60921
500 1.5252
505 1.389
510 1.48449
515 1.83766
520 2.80142
525 3.51637
530 2.49357
535 2.21025
540 1.96683
545 1.6226
550 1.36138
555 1.26761
560 1.08137
565 0.973365
570 0.925392
575 0.760778
580 0.726151
585 0.563831
590 0.51825
595 0.46059
600 0.753133
Ex : 463
200 0.21016
205 0.219649
210 0.253287
215 0.197422
220 0.170044
225 0.211628
230 0.202116
235 0.199829
240 0.266556
245 0.197504
250 0.217133
255 0.188682
260 0.273188
265 0.262756
270 0.22708
275 0.217727
280 0.252504
285 0.221306
290 0.214717
295 0.210617
300 0.176841
305 0.26444
310 0.236766
315 0.19274
320 0.190067
325 0.205873
330 0.220183
335 0.234899
340 0.165835
345 0.222385
350 0.243983
355 0.240283
360 0.219599
365 0.280732
370 0.263069
375 0.279552
380 0.252815
385 0.275444
390 0.232657
395 0.225408
400 0.255091
405 0.220541
410 0.29322
415 0.267292
420 0.326506
425 0.385345
430 0.365906
435 0.456951
440 0.631172
445 0.836533
450 21.0122
455 351.234
460 521.821
465 123.297
470 15.612
475 3.23571
480 1.70923
485 1.52068
490 1.80736
495 1.63885
500 1.48545
505 1.38996
510 1.45669
515 1.479
520 1.5446
525 2.37211
530 3.27602
535 2.90561
540 2.08407
545 1.88779
550 1.54986
555 1.32568
560 1.21115
565 1.05837
570 0.93251
575 0.813444
580 0.822728
585 0.655224
590 0.449438
595 0.40758
600 0.91029
Ex : 468
200 0.17587
205 0.223726
210 0.202413
215 0.233488
220 0.196045
225 0.158188
230 0.181299
235 0.179017
240 0.189757
245 0.194103
250 0.231355
255 0.224003
260 0.233825
265 0.235345
270 0.246819
275 0.174398
280 0.168855
285 0.181815
290 0.18197
295 0.195614
300 0.246846
305 0.192997
310 0.149437
315 0.155204
320 0.183795
325 0.188056
330 0.239732
335 0.216134
340 0.194529
345 0.161215
350 0.176985
355 0.193099
360 0.207253
365 0.255269
370 0.232216
375 0.167407
380 0.211534
385 0.221266
390 0.227854
395 0.25424
400 0.228934
405 0.232815
410 0.255628
415 0.277823
420 0.274337
425 0.300201
430 0.287969
435 0.329231
440 0.41482
445 0.496438
450 0.817844
455 22.9437
460 350.904
465 538.774
470 126.576
475 15.7581
480 3.01598
485 1.54411
490 1.39672
495 1.57572
500 1.67559
505 1.47662
510 1.40598
515 1.27536
520 1.4595
525 1.61614
530 1.86871
535 2.91846
540 3.17042
545 2.11854
550 1.72735
555 1.5318
560 1.28676
565 1.15556
570 0.930113
575 0.82142
580 0.696235
585 0.661153
590 0.595079
595 0.485188
600 0.641008
Ex : 473
200 0.170966
205 0.177401
210 0.230715
215 0.210657
220 0.205585
225 0.222453
230 0.221719
235 0.202892
240 0.252378
245 0.240284
250 0.182838
255 0.181205
260 0.232148
265 0.18184
270 0.183408
275 0.180311
280 0.191762
285 0.251342
290 0.207285
295 0.209197
300 0.176165
305 0.197211
310 0.194866
315 0.276602
320 0.192737
325 0.255684
330 0.196948
335 0.194024
340 0.242677
345 0.241435
350 0.2518
355 0.234731
360 0.243792
365 0.238941
370 0.191253
375 0.273694
380 0.252792
385 0.226946
390 0.228688
395 0.263699
400 0.234717
405 0.238733
410 0.269953
415 0.240593
420 0.252833
425 0.280477
430 0.319579
435 0.273122
440 0.378601
445 0.45027
450 0.617969
455 0.791772
460 25.9562
465 385.82
470 521.475
475 117.569
480 14.7271
485 3.07975
490 1.55933
495 1.27573
500 1.43445
505 1.61096
510 1.53424
515 1.35558
520 1.38371
525 1.40217
530 1.42743
535 1.61735
540 2.40644
545 2.94837
550 2.12478
555 1.59079
560 1.51164
565 1.22659
570 1.02209
575 0.750387
580 0.75687
585 0.703769
590 0.533978
595 0.498729
600 0.20225
Ex : 478
200 0.237984
205 0.21696
210 0.254113
215 0.266015
220 0.278685
225 0.276893
230 0.295761
235 0.293591
240 0.250046
245 0.250083
250 0.209394
255 0.203248
260 0.212925
265 0.17511
270 0.248283
275 0.272678
280 0.229518
285 0.225756
290 0.279563
295 0.306074
300 0.272552
305 0.220126
310 0.211663
315 0.224458
320 0.22679
325 0.244577
330 0.27975
335 0.230335
340 0.287863
345 0.281754
350 0.30248
355 0.23108
360 0.246992
365 0.27803
370 0.227843
375 0.275713
380 0.239003
385 0.253804
390 0.257231
395 0.242925
400 0.247518
405 0.239028
410 0.2866
415 0.291659
420 0.2812
425 0.271402
430 0.380209
435 0.34533
440 0.359166
445 0.447113
450 0.605354
455 0.676918
460 1.0315
465 28.3595
470 389.274
475 526.159
480 125.016
485 15.8646
490 3.24291
495 1.53524
500 1.24054
505 1.39352
510 1.61807
515 1.54421
520 1.38508
525 1.55388
530 1.50368
535 1.58949
540 1.51007
545 1.96428
550 2.76637
555 2.30222
560 1.57582
565 1.44618
570 1.15495
575 1.03858
580 0.754239
585 0.623644
590 0.638719
595 0.534446
600 0.271819
Ex : 483
200 0.256309
205 0.252083
210 0.260675
215 0.26917
220 0.217719
225 0.248527
230 0.222209
235 0.250121
240 0.178192
245 0.267003
250 0.233347
255 0.205453
260 0.300978
265 0.241861
270 0.315861
275 0.256689
280 0.315779
285 0.286962
290 0.208129
295 0.272408
300 0.312668
305 0.290487
310 0.237447
315 0.195872
320 0.233199
325 0.235219
330 0.246358
335 0.284066
340 0.344391
345 0.279261
350 0.276429
355 0.269585
360 0.22204
365 0.298422
370 0.192452
375 0.249871
380 0.299508
385 0.253996
390 0.295847
395 0.284243
400 0.275877
405 0.28809
410 0.257458
415 0.363978
420 0.237577
425 0.254165
430 0.281571
435 0.357106
440 0.334447
445 0.32107
450 0.436592
455 0.502764
460 0.770795
465 0.946834
470 22.3196
475 381.448
480 566.092
485 132.675
490 16.5205
495 3.12127
500 1.5102
505 1.24804
510 1.5072
515 1.54581
520 1.68392
525 1.62327
530 1.4904
535 1.50425
540 1.39614
545 1.44135
550 1.54517
555 2.49978
560 2.34629
565 1.69988
570 1.31331
575 1.2411
580 0.874284
585 0.798534
590 0.539792
595 0.536695
600 0.262629
Ex : 488
200 0.221076
205 0.279431
210 0.304642
215 0.274355
220 0.226199
225 0.241444
230 0.17644
235 0.324887
240 0.286596
245 0.256041
250 0.319066
255 0.284207
260 0.29983
265 0.230169
270 0.225765
275 0.216257
280 0.246951
285 0.203211
290 0.281323
295 0.270587
300 0.258129
305 0.247346
310 0.235237
315 0.304584
320 0.238898
325 0.255864
330 0.329639
335 0.216478
340 0.255025
345 0.355819
350 0.272553
355 0.233764
360 0.212973
365 0.222158
370 0.284046
375 0.332928
380 0.250756
385 0.245512
390 0.276926
395 0.246503
400 0.266595
405 0.319991
410 0.278635
415 0.261674
420 0.284435
425 0.276925
430 0.293065
435 0.383391
440 0.385815
445 0.339676
450 0.393752
455 0.420832
460 0.560278
465 0.707948
470 1.07865
475 27.1069
480 410.722
485 554.368
490 128.122
495 15.9173
500 3.19752
505 1.5372
510 1.41623
515 1.42598
520 1.7707
525 1.62196
530 1.55824
535 1.53016
540 1.47216
545 1.45901
550 1.37769
555 1.45955
560 1.87675
565 2.32869
570 1.70423
575 1.2275
580 1.05278
585 0.88313
590 0.646049
595 0.5919
600 0.273781
Ex : 493
200 0.248258
205 0.204069
210 0.253656
215 0.293574
220 0.316871
225 0.280931
230 0.300342
235 0.320138
240 0.292943
245 0.292919
250 0.26151
255 0.272586
260 0.264892
265 0.251673
270 0.208577
275 0.272694
280 0.281115
285 0.372648
290 0.31528
295 0.283508
300 0.238348
305 0.199294
310 0.268102
315 0.223975
320 0.277599
325 0.26959
330 0.297123
335 0.29443
340 0.298653
345 0.272615
350 0.318097
355 0.311861
360 0.293484
365 0.352665
370 0.303085
375 0.288657
380 0.226295
385 0.279549
390 0.319737
395 0.310213
400 0.277407
405 0.301032
410 0.291832
415 0.325665
420 0.360069
425 0.358456
430 0.258112
435 0.324632
440 0.378444
445 0.365538
450 0.430409
455 0.40829
460 0.416489
465 0.524078
470 0.708817
475 1.02767
480 24.3716
485 400.823
490 581.133
495 130.792
500 16.3396
505 3.15415
510 1.54319
515 1.44918
520 1.62371
525 1.7913
530 1.61426
535 1.54603
540 1.47351
545 1.35972
550 1.32909
555 1.31243
560 1.19404
565 1.43918
570 1.98492
575 1.68087
580 1.14192
585 0.952916
590 0.825975
595 0.70228
600 0.442135
Ex : 498
200 0.300538
205 0.358377
210 0.261601
215 0.366945
220 0.301124
225 0.32926
230 0.319044
235 0.226085
240 0.30158
245 0.338573
250 0.345567
255 0.382502
260 0.289318
265 0.254545
270 0.263599
275 0.353747
280 0.331843
285 0.239864
290 0.273938
295 0.256615
300 0.275149
305 0.354177
310 0.290827
315 0.240661
320 0.313745
325 0.351956
330 0.297877
335 0.336732
340 0.275378
345 0.341095
350 0.223234
355 0.270954
360 0.297818
365 0.298454
370 0.264951
375 0.268758
380 0.264647
385 0.304401
390 0.315022
395 0.261204
400 0.208414
405 0.223405
410 0.311325
415 0.320677
420 0.316286
425 0.274391
430 0.361661
435 0.30605
440 0.312949
445 0.342854
450 0.383096
455 0.442674
460 0.443402
465 0.549639
470 0.538774
475 0.782766
480 1.06362
485 29.751
490 421.196
495 559.138
500 126.619
505 15.8828
510 2.98514
515 1.528
520 1.45854
525 1.46016
530 1.82137
535 1.78206
540 1.68899
545 1.54614
550 1.2256
555 1.13453
560 1.12437
565 1.13425
570 1.29495
575 1.63407
580 1.53599
585 1.10694
590 0.835644
595 0.822693
600 0.668667
Ex : 503
200 0.336877
205 0.39583
210 0.360063
215 0.281452
220 0.308541
225 0.30707
230 0.31594
235 0.296913
240 0.288552
245 0.374997
250 0.349175
255 0.329751
260 0.240692
265 0.339626
270 0.256337
275 0.305018
280 0.408329
285 0.369005
290 0.239059
295 0.29747
300 0.263119
305 0.23777
310 0.307856
315 0.326264
320 0.296098
325 0.330063
330 0.3517
335 0.348171
340 0.394482
345 0.41753
350 0.274142
355 0.293964
360 0.39241
365 0.24617
370 0.327876
375 0.469169
380 0.372167
385 0.404589
390 0.412987
395 0.379896
400 0.428355
405 0.267796
410 0.357034
415 0.36358
420 0.289511
425 0.382839
430 0.384987
435 0.334068
440 0.336733
445 0.394281
450 0.412683
455 0.422282
460 0.44617
465 0.537075
470 0.532128
475 0.665784
480 0.79362
485 1.01616
490 26.4114
495 420.227
500 576.814
505 130.192
510 16.366
515 3.33327
520 1.81757
525 1.52658
530 1.54052
535 1.67054
540 1.66396
545 1.53526
550 1.43717
555 1.47615
560 1.16058
565 1.19435
570 0.957762
575 0.971864
580 1.14023
585 1.4056
590 1.15417
595 0.785954
600 0.662127
Ex : 508
200 0.298626
205 0.361075
210 0.305587
215 0.284756
220 0.331752
225 0.383875
230 0.373392
235 0.325198
240 0.310124
245 0.271737
250 0.33978
255 0.31152
260 0.282673
265 0.36191
270 0.319468
275 0.320655
280 0.274942
285 0.369486
290 0.313272
295 0.269388
300 0.320655
305 0.388465
310 0.398021
315 0.350852
320 0.304621
325 0.324687
330 0.266728
335 0.377296
340 0.358226
345 0.341108
350 0.388148
355 0.356208
360 0.374606
365 0.353546
370 0.349666
375 0.38394
380 0.391081
385 0.339835
390 0.345523
395 0.33203
400 0.395388
405 0.339771
410 0.409334
415 0.407827
420 0.384085
425 0.398355
430 0.363686
435 0.362791
440 0.344747
445 0.392213
450 0.369376
455 0.397701
460 0.554834
465 0.480783
470 0.530932
475 0.497862
480 0.52328
485 0.753568
490 0.998458
495 28.2996
500 415.397
505 564.361
510 134.121
515 16.9138
520 3.26605
525 1.97974
530 1.58296
535 1.62259
540 1.76765
545 1.6068
550 1.44884
555 1.3113
560 1.28971
565 1.07286
570 1.09312
575 0.968525
580 0.790303
585 1.00886
590 1.2411
595 1.04569
600 1.03531
Ex : 513
200 0.319756
205 0.231176
210 0.297109
215 0.355639
220 0.323636
225 0.364649
230 0.452659
235 0.387298
240 0.352053
245 0.257783
250 0.297025
255 0.26034
260 0.260165
265 0.367151
270 0.301649
275 0.395955
280 0.367519
285 0.320285
290 0.364974
295 0.312412
300 0.297375
305 0.324722
310 0.394498
315 0.283998
320 0.358926
325 0.353428
330 0.345903
335 0.385797
340 0.294648
345 0.285663
350 0.453502
355 0.374311
360 0.366976
365 0.285191
370 0.36061
375 0.448589
380 0.32892
385 0.374249
390 0.421439
395 0.37575
400 0.432877
405 0.296986
410 0.268206
415 0.357454
420 0.401094
425 0.414626
430 0.392226
435 0.380478
440 0.384886
445 0.532087
450 0.431208
455 0.420472
460 0.371824
465 0.396965
470 0.419427
475 0.527189
480 0.559085
485 0.583435
490 0.897048
495 1.05899
500 25.8965
505 401.114
510 566.675
515 135.527
520 17.0957
525 3.54765
530 1.85258
535 1.51742
540 1.48857
545 1.62582
550 1.47034
555 1.4683
560 1.21164
565 1.09072
570 0.998523
575 0.901269
580 0.801148
585 0.751672
590 0.71023
595 0.94394
600 0.41024
Ex : 518
200 0.242957
205 0.331849
210 0.392333
215 0.267217
220 0.368673
225 0.286826
230 0.309934
235 0.278026
240 0.33444
245 0.332103
250 0.346171
255 0.343426
260 0.361777
265 0.363005
270 0.307137
275 0.266591
280 0.314064
285 0.419846
290 0.313638
295 0.290068
300 0.357445
305 0.341492
310 0.293557
315 0.37812
320 0.351654
325 0.250939
330 0.396511
335 0.381043
340 0.396713
345 0.394825
350 0.388899
355 0.325284
360 0.358334
365 0.26634
370 0.338327
375 0.412617
380 0.357758
385 0.368255
390 0.475102
395 0.359052
400 0.492271
405 0.473146
410 0.347922
415 0.371108
420 0.281587
425 0.414016
430 0.524052
435 0.517478
440 0.476546
445 0.500701
450 0.464224
455 0.344934
460 0.538813
465 0.402797
470 0.48982
475 0.500612
480 0.507157
485 0.600079
490 0.71416
495 0.763616
500 1.00763
505 26.6102
510 390.073
515 576.277
520 138.437
525 17.2825
530 3.35999
535 1.86042
540 1.59419
545 1.47967
550 1.51742
555 1.43691
560 1.22846
565 1.16876
570 1.07465
575 0.966358
580 0.862012
585 0.826315
590 0.688932
595 0.788527
600 0.259625
Ex : 523
200 0.224188
205 0.351829
210 0.329598
215 0.281648
220 0.272988
225 0.356935
230 0.288122
235 0.328416
240 0.416607
245 0.394614
250 0.31237
255 0.379847
260 0.303259
265 0.389538
270 0.34768
275 0.399474
280 0.378324
285 0.383309
290 0.396212
295 0.322296
300 0.334082
305 0.312633
310 0.331281
315 0.334199
320 0.326035
325 0.306332
330 0.284832
335 0.375404
340 0.386986
345 0.346735
350 0.333528
355 0.368744
360 0.433318
365 0.371132
370 0.369699
375 0.383983
380 0.386702
385 0.41407
390 0.398248
395 0.304762
400 0.315092
405 0.541362
410 0.395286
415 0.420844
420 0.509888
425 0.444338
430 0.377342
435 0.460534
440 0.424214
445 0.344206
450 0.448528
455 0.553828
460 0.468873
465 0.548
470 0.488216
475 0.512703
480 0.459232
485 0.549572
490 0.703647
495 0.668256
500 0.901916
505 1.00674
510 24.1594
515 371.585
520 546.127
525 138.709
530 17.2925
535 3.3157
540 1.97341
545 1.50347
550 1.24121
555 1.16701
560 1.35135
565 1.17227
570 0.924454
575 0.805945
580 0.822541
585 0.668843
590 0.66824
595 0.653933
600 0.454217
Ex : 528
200 0.400475
205 0.370008
210 0.315108
215 0.283948
220 0.378156
225 0.325992
230 0.385528
235 0.270436
240 0.349037
245 0.322662
250 0.382775
255 0.310399
260 0.319199
265 0.345273
270 0.352887
275 0.323314
280 0.279331
285 0.397234
290 0.342014
295 0.364761
300 0.375384
305 0.280097
310 0.335006
315 0.401377
320 0.340803
325 0.407398
330 0.33609
335 0.333177
340 0.436108
345 0.336908
350 0.314656
355 0.337823
360 0.465238
365 0.421206
370 0.364357
375 0.286797
380 0.441357
385 0.431574
390 0.4549
395 0.419693
400 0.438638
405 0.379308
410 0.345167
415 0.319959
420 0.37656
425 0.435673
430 0.36477
435 0.42369
440 0.415777
445 0.38206
450 0.469784
455 0.435363
460 0.569739
465 0.508289
470 0.599764
475 0.511117
480 0.568334
485 0.507659
490 0.517977
495 0.613867
500 0.774192
505 0.77284
510 1.18185
515 21.8859
520 363.173
525 538.554
530 133.81
535 16.8487
540 3.15803
545 1.68107
550 1.54043
555 1.20418
560 1.11134
565 1.29124
570 0.977309
575 0.940084
580 0.792351
585 0.658433
590 0.739756
595 0.669052
600 0.275775
Ex : 533
200 0.359235
205 0.294706
210 0.408057
215 0.603728
220 0.346674
225 0.427583
230 0.342841
235 0.303915
240 0.317731
245 0.409659
250 0.423206
255 0.431196
260 0.411623
265 0.332929
270 0.398104
275 0.402834
280 0.289245
285 0.355204
290 0.389886
295 0.38356
300 0.36608
305 0.364511
310 0.469349
315 0.365908
320 0.371516
325 0.408974
330 0.548999
335 0.370954
340 0.40845
345 0.436303
350 0.290914
355 0.311581
360 0.4414
365 0.417517
370 0.443426
375 0.487088
380 0.363325
385 0.416964
390 0.412028
395 0.34887
400 0.427019
405 0.541903
410 0.442055
415 0.454518
420 0.544963
425 0.427574
430 0.368444
435 0.436518
440 0.376107
445 0.484747
450 0.417472
455 0.52531
460 0.429809
465 0.614449
470 0.446947
475 0.449183
480 0.472748
485 0.429449
490 0.509276
495 0.587155
500 0.64269
505 0.659506
510 0.944999
515 1.06581
520 21.9117
525 348.225
530 528.802
535 134.435
540 16.8822
545 3.20428
550 1.36871
555 1.15489
560 1.13176
565 1.023
570 1.07601
575 1.0244
580 0.830328
585 0.8035
590 0.636716
595 0.715141
600 0.881985
Ex : 538
200 0.340874
205 0.392995
210 0.347542
215 0.382043
220 0.377461
225 0.364013
230 0.356218
235 0.412827
240 0.36339
245 0.39942
250 0.361326
255 0.313786
260 0.451018
265 0.416158
270 0.482977
275 0.406836
280 0.380661
285 0.348146
290 0.286467
295 0.321286
300 0.564938
305 0.347598
310 0.382578
315 0.469275
320 0.327858
325 0.406487
330 0.378567
335 0.343304
340 0.359008
345 0.489017
350 0.387535
355 0.407533
360 0.419554
365 0.353409
370 0.430036
375 0.378731
380 0.403146
385 0.342701
390 0.478521
395 0.366819
400 0.414046
405 0.423922
410 0.363269
415 0.435782
420 0.419879
425 0.411824
430 0.384287
435 0.395956
440 0.478555
445 0.428559
450 0.394895
455 0.459193
460 0.369943
465 0.555455
470 0.465892
475 0.391001
480 0.427946
485 0.399706
490 0.546454
495 0.50151
500 0.641518
505 0.607962
510 0.680419
515 0.849901
520 0.965969
525 18.1505
530 333.557
535 517.73
540 138.463
545 17.3447
550 3.13856
555 1.47854
560 1.19901
565 0.962415
570 0.944753
575 0.954281
580 0.952291
585 0.797245
590 0.688992
595 0.583287
600 0.727096
Ex : 543
200 0.49455
205 0.359704
210 0.332859
215 0.392489
220 0.456134
225 0.350884
230 0.376208
235 0.359761
240 0.341632
245 0.363515
250 0.384493
255 0.367899
260 0.400058
265 0.31852
270 0.387119
275 0.456493
280 0.54678
285 0.426864
290 0.412714
295 0.368429
300 0.412832
305 0.360816
310 0.399764
315 0.410859
320 0.369988
325 0.42444
330 0.353687
335 0.389998
340 0.548926
345 0.612231
350 0.426207
355 0.471013
360 0.462557
365 0.45939
370 0.385054
375 0.402021
380 0.353304
385 0.289883
390 0.410416
395 0.454907
400 0.426387
405 0.452757
410 0.471032
415 0.475628
420 0.508532
425 0.324053
430 0.391926
435 0.515343
440 0.518865
445 0.523491
450 0.355911
455 0.475995
460 0.426573
465 0.446427
470 0.410434
475 0.45388
480 0.426503
485 0.5119
490 0.504385
495 0.425639
500 0.503183
505 0.466327
510 0.576697
515 0.775521
520 0.660145
525 0.956578
530 16.6161
535 314.099
540 519.829
545 139.615
550 17.5605
555 3.02746
560 1.25189
565 1.1951
570 0.781142
575 0.942619
580 0.688705
585 0.724614
590 0.645452
595 0.735364
600 0.400764
Ex : 548
200 0.521379
205 0.375708
210 0.363064
215 0.404646
220 0.377445
225 0.390509
230 0.450421
235 0.377562
240 0.409794
245 0.465694
250 0.329908
255 0.446856
260 0.34973
265 0.450768
270 0.464126
275 0.37426
280 0.377472
285 0.44748
290 0.312835
295 0.318617
300 0.380366
305 0.328074
310 0.438833
315 0.42691
320 0.442611
325 0.369464
330 0.312088
335 0.381454
340 0.418468
345 0.40279
350 0.441995
355 0.413854
360 0.371056
365 0.497364
370 0.409137
375 0.471214
380 0.39123
385 0.387769
390 0.446293
395 0.510854
400 0.443387
405 0.433267
410 0.357699
415 0.391549
420 0.467355
425 0.37752
430 0.507232
435 0.510871
440 0.367279
445 0.42154
450 0.443158
455 0.422662
460 0.452123
465 0.400042
470 0.436972
475 0.500183
480 0.606466
485 0.485926
490 0.339728
495 0.47007
500 0.564733
505 0.577728
510 0.700129
515 0.578178
520 0.878446
525 0.713794
530 1.09084
535 18.4187
540 312.888
545 492.609
550 135.253
555 16.7267
560 2.8569
565 1.30251
570 1.12831
575 0.802553
580 0.693312
585 0.627941
590 0.861927
595 0.721069
600 0.755121
Ex : 553
200 0.359246
205 0.435115
210 0.500043
215 0.361167
220 0.380198
225 0.6028
230 0.455758
235 0.465818
240 0.455503
245 0.387373
250 0.440257
255 0.486989
260 0.459081
265 0.436199
270 0.45357
275 0.377837
280 0.358158
285 0.320445
290 0.407065
295 0.478297
300 0.457721
305 0.369273
310 0.450892
315 0.411961
320 0.416336
325 0.446101
330 0.438798
335 0.449965
340 0.467331
345 0.456684
350 0.488627
355 0.375428
360 0.504959
365 0.360152
370 0.479436
375 0.43434
380 0.39288
385 0.409407
390 0.521973
395 0.438907
400 0.450985
405 0.515256
410 0.404927
415 0.438883
420 0.432622
425 0.380411
430 0.478564
435 0.545527
440 0.504496
445 0.516097
450 0.580348
455 0.545732
460 0.467609
465 0.48069
470 0.486227
475 0.394926
480 0.562968
485 0.451065
490 0.400739
495 0.600643
500 0.425651
505 0.494413
510 0.451017
515 0.525155
520 0.652616
525 0.841635
530 0.840935
535 0.897095
540 15.4672
545 296.604
550 493.445
555 138.11
560 17.0992
565 2.85966
570 1.17934
575 0.880604
580 0.681338
585 0.633994
590 0.736114
595 0.587743
600 0.541431
Ex : 558
200 0.381807
205 0.363234
210 0.482384
215 0.421403
220 0.406441
225 0.483071
230 0.445386
235 0.461516
240 0.398776
245 0.472557
250 0.404283
255 0.522943
260 0.411303
265 0.418714
270 0.412397
275 0.405925
280 0.409839
285 0.369701
290 0.528625
295 0.451057
300 0.387018
305 0.422356
310 0.412571
315 0.360292
320 0.542513
325 0.483085
330 0.39888
335 0.392827
340 0.412449
345 0.464047
350 0.436103
355 0.409916
360 0.518059
365 0.419989
370 0.45387
375 0.46208
380 0.449441
385 0.379023
390 0.51986
395 0.585045
400 0.610788
405 0.409137
410 0.470031
415 0.420392
420 0.554765
425 0.361645
430 0.436055
435 0.563472
440 0.406351
445 0.392614
450 0.471327
455 0.39812
460 0.575863
465 0.553337
470 0.37961
475 0.477434
480 0.612384
485 0.578329
490 0.481776
495 0.466034
500 0.564756
505 0.54166
510 0.610543
515 0.659385
520 0.683367
525 0.486477
530 0.612095
535 0.774036
540 0.975702
545 14.9895
550 278.119
555 469.963
560 132.554
565 16.4008
570 2.78194
575 1.07855
580 0.885907
585 0.73128
590 0.567052
595 0.781427
600 0.476271
Ex : 563
200 0.432163
205 0.462456
210 0.370934
215 0.500511
220 0.509449
225 0.528938
230 0.579593
235 0.498446
240 0.491244
245 0.47569
250 0.505753
255 0.60829
260 0.405357
265 0.517988
270 0.48359
275 0.566235
280 0.49257
285 0.55928
290 0.352924
295 0.41195
300 0.452679
305 0.453749
310 0.399028
315 0.515291
320 0.609915
325 0.637089
330 0.478084
335 0.453437
340 0.45462
345 0.542962
350 0.444131
355 0.55826
360 0.450656
365 0.510283
370 0.513174
375 0.623209
380 0.470932
385 0.408189
390 0.428195
395 0.490143
400 0.465991
405 0.474702
410 0.522172
415 0.496025
420 0.380161
425 0.478569
430 0.436694
435 0.299195
440 0.422942
445 0.591654
450 0.537905
455 0.524611
460 0.452739
465 0.469884
470 0.457804
475 0.512864
480 0.482065
485 0.5656
490 0.50994
495 0.526937
500 0.436505
505 0.452506
510 0.469934
515 0.521042
520 0.540333
525 0.610565
530 0.636585
535 0.740368
540 0.845021
545 0.897504
550 14.5913
555 269.972
560 453.238
565 131.106
570 16.287
575 2.82606
580 0.892841
585 0.83772
590 0.701809
595 0.574386
600 0.169984
Ex : 568
200 0.466329
205 0.535958
210 0.510409
215 0.418117
220 0.45982
225 0.414508
230 0.506058
235 0.426564
240 0.33988
245 0.443064
250 0.581028
255 0.426987
260 0.483354
265 0.488313
270 0.474784
275 0.409932
280 0.488327
285 0.523034
290 0.514491
295 0.48545
300 0.434635
305 0.540037
310 0.493554
315 0.456726
320 0.37059
325 0.404227
330 0.416652
335 0.509473
340 0.653854
345 0.593336
350 0.518919
355 0.420773
360 0.583835
365 0.386573
370 0.509536
375 0.458982
380 0.5044
385 0.424661
390 0.527521
395 0.515895
400 0.560043
405 0.411904
410 0.409766
415 0.436686
420 0.42764
425 0.449147
430 0.566381
435 0.434601
440 0.405442
445 0.495657
450 0.413058
455 0.424721
460 0.556618
465 0.545454
470 0.53059
475 0.638489
480 0.564859
485 0.459887
490 0.520437
495 0.481117
500 0.539548
505 0.480728
510 0.399432
515 0.665932
520 0.581989
525 0.553467
530 0.639992
535 0.659218
540 0.75055
545 0.73121
550 0.982579
555 11.3691
560 240.458
565 433.904
570 129.528
575 15.947
580 2.58487
585 0.918663
590 0.72577
595 0.664806
600 0.999567
Ex : 573
200 0.478903
205 0.44068
210 0.501935
215 0.32352
220 0.514026
225 0.47097
230 0.498967
235 0.486848
240 0.482161
245 0.421333
250 0.479448
255 0.556953
260 0.442298
265 0.503102
270 0.547969
275 0.379179
280 0.524677
285 0.50095
290 0.498018
295 0.524891
300 0.4122
305 0.495659
310 0.507359
315 0.455053
320 0.42159
325 0.3678
330 0.449618
335 0.531639
340 0.485439
345 0.562661
350 0.515828
355 0.529616
360 0.528103
365 0.40055
370 0.571828
375 0.617164
380 0.576457
385 0.433072
390 0.59416
395 0.39442
400 0.431503
405 0.536376
410 0.504603
415 0.477416
420 0.604241
425 0.521636
430 0.398884
435 0.552813
440 0.445703
445 0.44666
450 0.508214
455 0.476946
460 0.410091
465 0.524116
470 0.438112
475 0.456901
480 0.433997
485 0.524548
490 0.602749
495 0.527041
500 0.560469
505 0.434418
510 0.540112
515 0.545058
520 0.67763
525 0.526111
530 0.614254
535 0.568205
540 0.490285
545 0.618114
550 0.79924
555 0.945891
560 9.4332
565 209.386
570 402.032
575 126.26
580 15.5134
585 2.45725
590 0.997103
595 0.773987
600 0.614662
Ex : 578
200 0.448368
205 0.603743
210 0.515386
215 0.466082
220 0.412358
225 0.575925
230 0.560025
235 0.492372
240 0.423313
245 0.442928
250 0.453615
255 0.588606
260 0.431681
265 0.453295
270 0.447475
275 0.458122
280 0.428521
285 0.460095
290 0.371262
295 0.455491
300 0.540189
305 0.492818
310 0.434851
315 0.474811
320 0.552471
325 0.543291
330 0.512379
335 0.51032
340 0.486271
345 0.464884
350 0.485247
355 0.521022
360 0.418644
365 0.445251
370 0.477359
375 0.480174
380 0.497182
385 0.546279
390 0.524873
395 0.466539
400 0.494593
405 0.519235
410 0.516208
415 0.529022
420 0.467193
425 0.537426
430 0.640081
435 0.546698
440 0.646634
445 0.558848
450 0.589868
455 0.444825
460 0.491398
465 0.472203
470 0.444491
475 0.575775
480 0.497858
485 0.465229
490 0.595861
495 0.611522
500 0.562493
505 0.591322
510 0.499924
515 0.542566
520 0.58196
525 0.462478
530 0.653969
535 0.632731
540 0.747677
545 0.70557
550 0.744545
555 0.624371
560 0.79296
565 8.79116
570 187.237
575 355.22
580 107.76
585 13.378
590 2.13699
595 0.829985
600 0.431736
Ex : 583
200 0.581795
205 0.607693
210 0.613777
215 0.488363
220 0.600665
225 0.449098
230 0.449997
235 0.443352
240 0.449786
245 0.454842
250 0.466298
255 0.564524
260 0.401421
265 0.528346
270 0.474943
275 0.457602
280 0.541212
285 0.501227
290 0.398699
295 0.388449
300 0.441824
305 0.462727
310 0.514025
315 0.528748
320 0.399518
325 0.557321
330 0.434359
335 0.429773
340 0.398971
345 0.468022
350 0.60509
355 0.467304
360 0.563441
365 0.440758
370 0.508254
375 0.449144
380 0.517829
385 0.55007
390 0.531056
395 0.510559
400 0.592918
405 0.403312
410 0.461509
415 0.422113
420 0.47892
425 0.449645
430 0.486821
435 0.597962
440 0.608624
445 0.538185
450 0.589163
455 0.595524
460 0.424327
465 0.543581
470 0.735557
475 0.674561
480 0.564513
485 0.533745
490 0.532777
495 0.691041
500 0.505912
505 0.531625
510 0.583176
515 0.540897
520 0.51722
525 0.763778
530 0.57729
535 0.558304
540 0.589655
545 0.509792
550 0.654258
555 0.697234
560 0.693223
565 0.889602
570 7.59712
575 170.501
580 301.563
585 86.3952
590 10.8656
595 1.9439
600 0.544089
Ex : 588
200 0.589935
205 0.339403
210 0.504177
215 0.500646
220 0.526258
225 0.479542
230 0.522698
235 0.50045
240 0.553918
245 0.490733
250 0.661917
255 0.54454
260 0.433265
265 0.486028
270 0.513537
275 0.508019
280 0.434193
285 0.467601
290 0.377527
295 0.424937
300 0.449489
305 0.573469
310 0.587337
315 0.480478
320 0.455784
325 0.486974
330 0.4321
335 0.56827
340 0.591861
345 0.574557
350 0.512225
355 0.472996
360 0.482035
365 0.615145
370 0.430479
375 0.424906
380 0.547569
385 0.54366
390 0.467299
395 0.519959
400 0.492212
405 0.620629
410 0.488093
415 0.51427
420 0.45877
425 0.558099
430 0.541396
435 0.570195
440 0.493475
445 0.531791
450 0.592882
455 0.641774
460 0.59085
465 0.459257
470 0.491805
475 0.577412
480 0.637343
485 0.544488
490 0.608113
495 0.538108
500 0.580488
505 0.490204
510 0.566833
515 0.511778
520 0.506096
525 0.552178
530 0.503877
535 0.644628
540 0.51027
545 0.542566
550 0.443502
555 0.52857
560 0.769045
565 0.532237
570 0.715587
575 6.65037
580 140.842
585 261.628
590 76.9245
595 9.88925
600 2.04701
Ex : 593
200 0.492222
205 0.459574
210 0.416046
215 0.517912
220 0.467831
225 0.506855
230 0.612951
235 0.430344
240 0.478112
245 0.443533
250 0.579597
255 0.454048
260 0.417907
265 0.473858
270 0.512739
275 0.405401
280 0.417251
285 0.427156
290 0.571781
295 0.585268
300 0.518114
305 0.515489
310 0.619091
315 0.495821
320 0.444747
325 0.470456
330 0.561782
335 0.481343
340 0.469522
345 0.566355
350 0.529982
355 0.533569
360 0.470614
365 0.613749
370 0.414398
375 0.627263
380 0.5955
385 0.462446
390 0.623177
395 0.471538
400 0.557946
405 0.730867
410 0.606738
415 0.514283
420 0.615439
425 0.436249
430 0.528503
435 0.436484
440 0.641066
445 0.536553
450 0.508332
455 0.632561
460 0.596442
465 0.618901
470 0.570025
475 0.650976
480 0.543949
485 0.631104
490 0.57957
495 0.649568
500 0.474757
505 0.578866
510 0.58436
515 0.571606
520 0.589961
525 0.520819
530 0.550808
535 0.678821
540 0.703243
545 0.661042
550 0.557754
555 0.623618
560 0.684286
565 0.813196
570 0.755717
575 0.716262
580 5.71584
585 127.135
590 226.852
595 66.7869
600 10.5275
Ex : 598
200 0.416632
205 0.308892
210 0.563264
215 0.52496
220 0.68025
225 0.482751
230 0.605285
235 0.61382
240 0.642925
245 0.530817
250 0.572562
255 0.581796
260 0.608723
265 0.561855
270 0.514125
275 0.437693
280 0.512792
285 0.547417
290 0.502215
295 0.591154
300 0.757227
305 0.457004
310 0.548422
315 0.459303
320 0.576835
325 0.546702
330 0.443333
335 0.398347
340 0.621045
345 0.614181
350 0.614284
355 0.514033
360 0.384302
365 0.617921
370 0.385933
375 0.668915
380 0.542081
385 0.522625
390 0.527916
395 0.631892
400 0.523933
405 0.648739
410 0.651775
415 0.539859
420 0.663196
425 0.779219
430 0.684756
435 0.649872
440 0.655027
445 0.638216
450 0.454062
455 0.603585
460 0.517396
465 0.501419
470 0.665231
475 0.557028
480 0.480512
485 0.537438
490 0.514248
495 0.487587
500 0.735132
505 0.611725
510 0.514012
515 0.656461
520 0.655093
525 0.491342
530 0.489922
535 0.626943
540 0.545541
545 0.573115
550 0.538048
555 0.644379
560 0.488637
565 0.565367
570 0.544549
575 0.819619
580 0.94056
585 5.87489
590 111.108
595 195.869
600 126.938
Ex : 603
200 0.700263
205 0.429248
210 0.609178
215 0.561571
220 0.475
225 0.53841
230 0.552102
235 0.620714
240 0.63985
245 0.713468
250 0.545978
255 0.52954
260 0.480123
265 0.535612
270 0.450145
275 0.550315
280 0.720338
285 0.484827
290 0.577075
295 0.485573
300 0.564352
305 0.418781
310 0.392943
315 0.531501
320 0.551997
325 0.610924
330 0.617084
335 0.574529
340 0.502635
345 0.63762
350 0.593077
355 0.707396
360 0.62316
365 0.436899
370 0.60571
375 0.544917
380 0.479335
385 0.687688
390 0.530856
395 0.626434
400 0.682427
405 0.695066
410 0.673945
415 0.566642
420 0.636679
425 0.604681
430 0.564871
435 0.571824
440 0.582461
445 0.63353
450 0.468177
455 0.719347
460 0.534068
465 0.643132
470 0.557902
475 0.638254
480 0.371742
485 0.482377
490 0.466782
495 0.571519
500 0.637474
505 0.659579
510 0.547765
515 0.633139
520 0.71188
525 0.652477
530 0.738358
535 0.584596
540 0.509529
545 0.516781
550 0.75268
555 0.724349
560 0.721174
565 0.666543
570 0.665155
575 0.75616
580 0.707326
585 0.919612
590 4.94424
595 92.2869
600 172
