File format V 1.0
ven. 9. déc. 18:05:58 2016
Operator : 
Comments : 

=============================================
SpectroFluorometer parameters
Mode : 3D measurement
Data : Fluorescence
Phospho. : Ordinary
Spectrum : Fluorescence

Scan speed : 2400 nm/mn
Response : 100 ms
PM Voltage : 700 V
Shutter : On

Lambda Ex. Start : 203
Lambda Ex. End : 603
Lambda Ex. Step : 5
Ex. Slit : 5 nm

Lambda Em. Start : 200
Lambda Em. End : 600
Lambda Em. Step : 5
Em. Slit : 5 nm

Repetition : 1
Decal lambda em : 10
=============================================
DATA
Ex : 203
200 17.2516
205 14.9608
210 14.5617
215 23.3893
220 17.2536
225 13.8232
230 15.6392
235 18.5933
240 13.0457
245 19.0552
250 14.4305
255 16.5045
260 16.6667
265 21.6176
270 18.5454
275 15.9255
280 15.8883
285 19.1672
290 17.6035
295 20.7869
300 23.011
305 17.5768
310 17.6101
315 16.5672
320 16.8364
325 17.9197
330 17.073
335 23.5907
340 23.6094
345 18.9376
350 15.6253
355 16.1789
360 22.0664
365 22.417
370 18.8377
375 17.8615
380 21.1068
385 18.2315
390 19.962
395 17.6344
400 20.6829
405 18.9223
410 14.0225
415 18.9933
420 16.3885
425 23.4108
430 24.9104
435 15.1462
440 19.4532
445 22.5524
450 20.1084
455 19.6129
460 20.3892
465 25.2197
470 20.8816
475 18.6836
480 18.8512
485 15.5505
490 15.5086
495 20.1567
500 21.2863
505 19.1631
510 18.5755
515 19.759
520 16.5791
525 14.0403
530 18.1274
535 15.6328
540 19.0235
545 22.1452
550 18.32
555 19.7379
560 13.9589
565 13.8817
570 19.6969
575 14.5699
580 19.2705
585 19.8205
590 13.441
595 13.4484
600 12.1648
Ex : 208
200 12.4477
205 13.1928
210 15.9094
215 18.556
220 15.2696
225 13.2297
230 12.316
235 16.1413
240 15.6492
245 12.8451
250 17.3795
255 16.8672
260 20.3956
265 17.376
270 18.4807
275 14.3924
280 15.6569
285 17.0576
290 11.1742
295 16.661
300 15.8613
305 18.6001
310 14.1382
315 20.6344
320 20.4682
325 14.0628
330 14.1395
335 13.6214
340 21.9918
345 21.1413
350 19.3015
355 17.1308
360 18.9905
365 17.3341
370 18.9233
375 17.6217
380 18.4092
385 22.6548
390 18.7629
395 19.5083
400 16.7145
405 19.6443
410 14.9792
415 18.84
420 19.6989
425 20.8578
430 18.6146
435 22.3053
440 18.1554
445 18.4258
450 17.3642
455 20.7329
460 18.8359
465 18.5977
470 17.2634
475 15.3949
480 13.931
485 18.9025
490 18.595
495 14.763
500 18.3383
505 18.8839
510 13.1356
515 19.7144
520 18.5401
525 19.4532
530 16.7599
535 16.3523
540 14.6597
545 20.8409
550 17.3657
555 15.8381
560 17.6131
565 15.1156
570 18.7234
575 18.245
580 23.1119
585 18.1353
590 17.681
595 18.0634
600 5.60036
Ex : 213
200 20.2901
205 20.7261
210 17.9157
215 15.7958
220 20.5294
225 14.4678
230 14.1953
235 10.7804
240 18.2678
245 14.2382
250 18.7461
255 22.5713
260 21.0339
265 19.6604
270 19.8833
275 15.0904
280 17.1671
285 12.9996
290 12.0803
295 18.3196
300 14.3616
305 24.3059
310 14.4595
315 18.0694
320 17.2589
325 20.3056
330 15.7415
335 24.3278
340 19.9316
345 14.1511
350 19.3618
355 19.1037
360 21.4198
365 22.3771
370 22.9755
375 23.0215
380 18.2169
385 20.1687
390 20.8107
395 15.3832
400 18.5359
405 19.0845
410 16.4586
415 18.5248
420 18.5731
425 19.473
430 17.3603
435 22.4182
440 17.3421
445 17.9089
450 19.5218
455 20.3229
460 21.2977
465 21.0845
470 19.8056
475 19.1837
480 15.9564
485 17.2803
490 18.9116
495 20.5875
500 16.3776
505 20.5937
510 18.0095
515 16.6603
520 15.7661
525 21.1874
530 14.318
535 16.6101
540 17.4565
545 18.66
550 12.9103
555 13.1012
560 15.936
565 17.9491
570 16.5396
575 16.0799
580 15.0884
585 15.439
590 15.558
595 15.3332
600 1.74486
Ex : 218
200 18.2333
205 16.1243
210 16.8432
215 16.4248
220 20.0363
225 15.0873
230 17.6004
235 11.9832
240 11.0416
245 12.7715
250 18.6188
255 16.7552
260 18.039
265 17.3706
270 12.9104
275 17.1979
280 13.1681
285 15.9397
290 15.8481
295 14.915
300 17.7428
305 16.3697
310 17.0905
315 20.9432
320 13.8559
325 15.3017
330 14.9843
335 13.896
340 19.0174
345 13.7337
350 21.6803
355 18.6488
360 16.3987
365 16.8441
370 20.4368
375 18.3867
380 18.3668
385 17.7869
390 16.8614
395 18.1794
400 22.1468
405 19.5039
410 15.825
415 17.7017
420 18.7954
425 21.4279
430 22.0273
435 18.7438
440 16.1223
445 16.7251
450 20.8873
455 19.0604
460 19.0239
465 21.6297
470 20.5629
475 16.329
480 15.3628
485 19.0238
490 20.7984
495 20.7124
500 19.8552
505 18.4972
510 18.7644
515 14.6509
520 16.3246
525 19.2144
530 13.1354
535 14.7042
540 16.5615
545 15.3368
550 17.3378
555 21.1602
560 21.4613
565 19.1903
570 19.5968
575 20.8736
580 18.4355
585 20.9942
590 16.29
595 13.9953
600 12.6702
Ex : 223
200 17.436
205 14.9422
210 13.2049
215 13.1039
220 12.3403
225 17.6709
230 14.5939
235 21.3411
240 16.7604
245 13.7663
250 21.7775
255 17.024
260 15.7458
265 13.4199
270 18.1298
275 12.982
280 15.8998
285 14.988
290 16.7933
295 16.615
300 15.2719
305 14.7998
310 20.1354
315 18.3403
320 16.9063
325 18.4994
330 16.5142
335 14.3325
340 14.8677
345 15.5156
350 17.4202
355 15.936
360 21.7888
365 19.7731
370 15.7407
375 13.472
380 20.9232
385 13.9852
390 17.3871
395 19.9964
400 19.5963
405 18.4552
410 21.0801
415 13.4873
420 17.8454
425 16.4664
430 13.4756
435 15.0454
440 18.0617
445 18.1604
450 12.339
455 16.429
460 15.0557
465 20.7952
470 17.1417
475 14.6686
480 17.92
485 20.0832
490 17.3858
495 13.5098
500 18.2318
505 17.4778
510 17.1091
515 18.1413
520 16.1611
525 17.9384
530 13.8519
535 19.9003
540 12.5046
545 19.495
550 17.3403
555 13.6925
560 17.6659
565 20.0036
570 14.1595
575 14.6222
580 13.6128
585 20.032
590 18.939
595 16.1981
600 116.518
Ex : 228
200 14.523
205 16.5044
210 14.5648
215 13.0812
220 10.4943
225 18.9027
230 15.2153
235 16.7719
240 13.4935
245 13.335
250 15.9939
255 18.96
260 17.8512
265 12.1082
270 14.2765
275 15.4051
280 14.1878
285 22.9988
290 15.0807
295 15.1834
300 15.2829
305 12.3188
310 13.8709
315 17.6884
320 16.1621
325 12.4174
330 14.9094
335 14.45
340 17.7372
345 15.2707
350 16.625
355 18.7717
360 15.5159
365 16.0959
370 17.4795
375 14.8802
380 16.8528
385 16.4915
390 12.8446
395 14.7499
400 11.8953
405 14.8611
410 13.4916
415 14.771
420 15.4146
425 15.2699
430 15.9225
435 19.8858
440 20.419
445 17.0804
450 12.99
455 20.2143
460 17.804
465 16.0733
470 18.7404
475 20.8716
480 22.0424
485 12.9881
490 13.1171
495 16.3881
500 16.002
505 11.5336
510 16.5166
515 19.1159
520 16.3158
525 9.14381
530 14.7574
535 16.0801
540 13.1944
545 13.8278
550 14.4565
555 16.3602
560 11.2172
565 12.4088
570 14.1193
575 11.4838
580 15.2542
585 15.1253
590 16.5585
595 13.2337
600 15.9068
Ex : 233
200 9.78972
205 15.476
210 16.2885
215 14.3777
220 10.9987
225 14.057
230 12.2124
235 11.4195
240 12.8718
245 11.953
250 13.3306
255 14.0273
260 12.0423
265 11.398
270 16.141
275 16.8932
280 17.6416
285 13.9577
290 13.4562
295 13.7004
300 12.6882
305 16.3446
310 12.6146
315 13.5088
320 15.1506
325 10.599
330 9.37276
335 13.4205
340 15.1262
345 14.3283
350 16.9065
355 18.2242
360 13.8883
365 14.6589
370 13.0531
375 15.1628
380 13.1704
385 15.4176
390 17.2415
395 12.1718
400 13.6525
405 13.6171
410 15.1174
415 15.4959
420 17.5151
425 17.5964
430 12.6145
435 13.8423
440 15.2953
445 14.6447
450 14.5779
455 13.8176
460 13.4927
465 17.6804
470 15.9948
475 10.4396
480 20.0017
485 16.5449
490 16.4799
495 13.3822
500 14.2098
505 16.9415
510 12.1699
515 12.5726
520 14.0095
525 13.0315
530 16.374
535 10.8095
540 11.3588
545 14.053
550 12.3948
555 13.692
560 13.4123
565 12.8186
570 14.8696
575 18.4633
580 10.8885
585 16.4836
590 14.168
595 12.7907
600 75.6012
Ex : 238
200 9.46413
205 13.8431
210 11.3967
215 11.7369
220 15.0921
225 10.1008
230 10.9402
235 11.2205
240 9.21156
245 10.9775
250 10.9262
255 15.8493
260 11.93
265 13.3274
270 11.4357
275 13.666
280 13.4921
285 10.9337
290 12.6365
295 11.5471
300 14.0551
305 11.9493
310 10.9877
315 12.4197
320 15.4369
325 12.3832
330 11.7589
335 16.1241
340 13.8677
345 14.4058
350 15.5559
355 14.8973
360 14.2076
365 15.3648
370 11.2402
375 11.3254
380 13.2834
385 15.6909
390 15.6057
395 14.7643
400 14.2506
405 14.8908
410 13.2836
415 15.6623
420 14.6083
425 11.178
430 10.3485
435 10.8982
440 10.4849
445 12.5693
450 12.5233
455 16.6477
460 10.8344
465 13.3524
470 12.9313
475 14.5585
480 15.2257
485 13.8071
490 12.4157
495 10.5138
500 13.6264
505 15.6608
510 11.6996
515 15.9054
520 10.3453
525 13.1834
530 13.154
535 12.4875
540 11.312
545 9.72376
550 13.6999
555 17.0223
560 16.3106
565 13.3688
570 13.6978
575 9.78541
580 11.9323
585 15.0474
590 13.0263
595 13.5426
600 22.81
Ex : 243
200 9.23188
205 10.2685
210 12.1344
215 10.1765
220 9.44064
225 9.17674
230 7.84406
235 7.91012
240 9.7489
245 8.73905
250 12.0232
255 12.1992
260 8.42957
265 7.14577
270 8.67266
275 10.1932
280 11.0264
285 11.7326
290 13.0116
295 9.63033
300 10.7468
305 9.92712
310 8.28185
315 10.1258
320 8.08959
325 9.21613
330 10.0267
335 10.9768
340 11.5964
345 9.74195
350 11.4592
355 11.7389
360 14.0736
365 16.4454
370 11.0035
375 11.4222
380 7.81148
385 10.3935
390 11.5767
395 13.5257
400 12.4198
405 12.0929
410 11.9793
415 10.3364
420 9.78265
425 14.6721
430 11.8717
435 11.7044
440 13.1572
445 14.7657
450 15.7259
455 12.0616
460 7.74683
465 8.65097
470 10.1491
475 9.96135
480 10.6411
485 8.61655
490 10.5509
495 10.5232
500 11.8182
505 11.7848
510 13.4392
515 12.5107
520 9.50021
525 13.2313
530 11.0026
535 9.27598
540 9.63627
545 12.0204
550 10.4974
555 9.8241
560 14.8471
565 10.8784
570 12.116
575 8.77082
580 9.26699
585 9.68119
590 9.48627
595 11.8818
600 1.3521
Ex : 248
200 7.82298
205 8.5438
210 12.0469
215 7.73853
220 10.5453
225 8.82194
230 6.96819
235 8.41665
240 7.15844
245 9.60304
250 8.15627
255 6.19532
260 11.3777
265 7.66751
270 10.2207
275 7.63295
280 7.03409
285 8.13415
290 10.4643
295 7.96715
300 8.43079
305 9.3855
310 8.83095
315 11.747
320 7.76757
325 7.76733
330 8.04948
335 8.91392
340 8.31623
345 8.8991
350 7.85725
355 8.81783
360 8.59475
365 7.57152
370 8.20899
375 13.3553
380 7.50382
385 11.8377
390 10.3778
395 10.0227
400 7.76866
405 9.04007
410 9.75375
415 8.77448
420 10.0156
425 11.167
430 8.62739
435 9.50716
440 12.2984
445 8.51003
450 6.19617
455 11.6726
460 9.49465
465 8.66498
470 9.0958
475 8.24394
480 10.7513
485 10.1271
490 10.5957
495 8.50075
500 6.98833
505 9.00126
510 8.58809
515 9.38472
520 10.942
525 9.79745
530 10.1227
535 8.08731
540 8.31394
545 7.8164
550 9.46357
555 9.60053
560 9.59598
565 9.93482
570 8.42902
575 10.3823
580 9.76049
585 7.40727
590 7.26649
595 8.34386
600 14.6224
Ex : 253
200 6.46212
205 7.10222
210 6.23822
215 6.99007
220 7.61596
225 6.91329
230 6.57747
235 7.91528
240 5.86574
245 6.27617
250 9.15706
255 5.40207
260 8.06913
265 6.11885
270 6.15477
275 5.44272
280 7.9799
285 8.76422
290 8.28848
295 6.2924
300 6.1572
305 5.17355
310 5.4376
315 5.17307
320 8.69308
325 5.61873
330 6.7505
335 8.81556
340 6.70151
345 8.4221
350 6.11366
355 7.16019
360 8.87647
365 8.73534
370 7.62651
375 6.38075
380 6.53979
385 8.82695
390 8.13018
395 9.68059
400 7.42704
405 7.84139
410 8.37709
415 7.77728
420 7.33777
425 8.7861
430 9.03813
435 5.90927
440 7.54633
445 6.81127
450 8.70928
455 6.33157
460 6.74209
465 7.85022
470 5.79776
475 6.85641
480 7.88346
485 8.8894
490 5.89611
495 7.86991
500 7.05235
505 7.4803
510 6.84114
515 7.13565
520 7.15621
525 8.98587
530 7.54318
535 7.96421
540 6.09462
545 8.17755
550 6.58299
555 7.94694
560 6.64109
565 8.45576
570 6.52497
575 5.58887
580 5.4982
585 7.50196
590 6.57288
595 4.92348
600 4.54819
Ex : 258
200 4.58621
205 4.65342
210 4.67358
215 4.88493
220 3.72918
225 5.3437
230 5.44062
235 5.38201
240 5.87291
245 4.37751
250 6.17236
255 5.37938
260 5.23559
265 5.35086
270 5.61703
275 5.44744
280 6.5201
285 5.97616
290 4.63783
295 4.58894
300 4.66197
305 5.06917
310 4.92859
315 6.61505
320 5.73136
325 4.39275
330 5.97921
335 8.46815
340 5.43834
345 5.79807
350 6.44479
355 5.75703
360 4.9941
365 5.91085
370 7.07664
375 5.89243
380 5.16986
385 6.27434
390 7.32671
395 7.17475
400 5.82544
405 7.30414
410 4.89103
415 4.5916
420 6.25112
425 5.80568
430 6.35484
435 5.74915
440 4.47432
445 5.13869
450 6.673
455 6.48232
460 6.16296
465 5.7113
470 6.25656
475 4.75986
480 6.1411
485 6.29133
490 5.49178
495 5.04155
500 5.80072
505 7.34451
510 7.47163
515 5.86015
520 6.02487
525 6.22348
530 6.20119
535 5.58505
540 4.66009
545 4.71017
550 6.38568
555 4.0348
560 5.31962
565 5.14179
570 5.52883
575 3.94021
580 5.8408
585 6.10744
590 6.06415
595 6.02348
600 3.4804
Ex : 263
200 4.16179
205 4.00445
210 4.49795
215 3.07604
220 4.17571
225 4.57024
230 4.15686
235 4.86997
240 4.06476
245 3.47873
250 4.47546
255 3.6538
260 3.40725
265 3.28574
270 3.19415
275 4.61808
280 3.84369
285 3.96989
290 4.1344
295 4.0594
300 4.44008
305 4.60004
310 4.16362
315 4.11847
320 3.63795
325 4.64609
330 4.75744
335 4.35067
340 4.45565
345 4.75257
350 4.5384
355 5.58916
360 5.93799
365 6.26691
370 5.98661
375 4.3719
380 5.60809
385 4.37932
390 4.30656
395 5.05595
400 4.89645
405 5.10906
410 4.35834
415 4.42058
420 4.35568
425 5.10974
430 4.49849
435 4.48553
440 4.68048
445 4.74104
450 4.70523
455 4.11961
460 5.80006
465 4.94005
470 4.41368
475 5.99033
480 4.67376
485 4.24699
490 4.43505
495 4.19884
500 4.01569
505 4.53433
510 3.49862
515 3.59178
520 4.83425
525 5.17014
530 3.77005
535 4.09771
540 4.0222
545 3.99831
550 3.71865
555 4.02432
560 3.37175
565 4.00944
570 3.27167
575 4.82452
580 4.48359
585 3.69219
590 3.9636
595 4.87924
600 13.785
Ex : 268
200 3.60932
205 2.95389
210 4.19684
215 3.25549
220 2.29882
225 3.02176
230 2.93687
235 2.3444
240 3.07662
245 3.73905
250 3.9638
255 3.99802
260 2.9223
265 2.94502
270 2.83124
275 3.53145
280 3.54126
285 2.45591
290 2.74302
295 3.02955
300 3.24525
305 3.50175
310 2.60821
315 2.89524
320 3.19653
325 3.72856
330 3.29483
335 3.56359
340 4.01079
345 3.96962
350 4.69009
355 3.53877
360 3.99507
365 4.03336
370 4.05757
375 4.1645
380 3.92283
385 4.20365
390 4.04244
395 4.54189
400 3.6633
405 3.26277
410 3.55655
415 3.43214
420 3.64645
425 3.40871
430 3.85987
435 4.03293
440 4.43135
445 3.93495
450 3.64375
455 3.99184
460 3.13513
465 3.80347
470 4.44417
475 3.9485
480 3.49268
485 3.29055
490 2.95075
495 3.206
500 4.04268
505 3.44735
510 3.99005
515 3.0871
520 3.64713
525 3.43578
530 3.04209
535 3.30202
540 4.20294
545 2.7663
550 3.23336
555 3.20253
560 2.83737
565 2.21013
570 3.71015
575 3.09039
580 3.08226
585 3.55972
590 3.69424
595 3.29736
600 2.36919
Ex : 273
200 2.32892
205 2.4927
210 2.61938
215 2.2849
220 2.35878
225 2.49378
230 3.24441
235 3.08544
240 2.26045
245 2.83837
250 2.29985
255 2.55748
260 2.11501
265 3.62094
270 3.81046
275 2.90282
280 2.48569
285 2.90025
290 2.33688
295 2.43721
300 2.49843
305 1.76276
310 2.87808
315 2.55695
320 2.87004
325 3.23816
330 3.12877
335 3.05505
340 3.01324
345 3.17701
350 3.17553
355 2.78394
360 2.04664
365 3.8653
370 3.13938
375 3.49838
380 3.05151
385 2.40463
390 2.87767
395 3.19904
400 3.16594
405 3.51432
410 2.92797
415 3.95222
420 3.8665
425 3.8986
430 3.48478
435 3.50733
440 2.59663
445 3.13858
450 2.80735
455 3.45038
460 2.62749
465 3.16714
470 2.68089
475 3.08539
480 2.23333
485 2.05398
490 2.59694
495 3.55896
500 3.35727
505 2.68907
510 2.50659
515 2.4557
520 2.37963
525 2.70206
530 2.75207
535 3.13479
540 2.52966
545 2.70486
550 3.13444
555 3.09217
560 2.61046
565 2.71537
570 2.41158
575 3.47687
580 3.23886
585 2.57807
590 2.44997
595 2.32004
600 3.49605
Ex : 278
200 1.78203
205 1.73542
210 2.32719
215 1.82437
220 2.30335
225 1.77519
230 1.70379
235 2.53463
240 2.00162
245 1.97637
250 1.89892
255 2.12824
260 1.45052
265 2.02015
270 1.9022
275 2.30202
280 1.83455
285 2.39417
290 2.03001
295 2.47386
300 2.06654
305 1.88067
310 1.6154
315 1.65521
320 2.46965
325 2.26324
330 2.77508
335 2.81873
340 2.24748
345 2.36727
350 2.90202
355 2.85894
360 2.619
365 2.9136
370 2.49548
375 2.62381
380 2.48719
385 2.31368
390 2.26271
395 3.14505
400 2.31695
405 2.62337
410 3.0072
415 2.82287
420 2.31414
425 2.77296
430 2.76933
435 2.71285
440 2.43418
445 2.906
450 2.54231
455 2.41704
460 2.54289
465 2.29354
470 3.61276
475 2.80035
480 2.78321
485 2.47437
490 2.2184
495 2.43442
500 2.2808
505 2.22857
510 2.30038
515 2.17628
520 2.19269
525 2.23893
530 2.24733
535 2.15567
540 2.55607
545 2.74944
550 3.02486
555 2.81173
560 1.57629
565 2.84502
570 2.42214
575 2.60498
580 1.99388
585 2.56465
590 1.92533
595 2.08308
600 0.237047
Ex : 283
200 1.57199
205 1.4668
210 1.2434
215 1.80254
220 1.55654
225 1.71078
230 1.23877
235 1.52095
240 1.48571
245 1.61772
250 1.56024
255 1.55811
260 1.64881
265 2.0755
270 1.63465
275 1.57896
280 1.35913
285 1.93356
290 1.94669
295 1.4562
300 1.83743
305 1.37764
310 2.02975
315 1.92368
320 1.90619
325 1.93125
330 2.20666
335 1.987
340 2.36308
345 2.24914
350 2.71245
355 2.77926
360 2.51541
365 1.8277
370 2.41197
375 1.96287
380 2.12005
385 1.91552
390 2.56357
395 2.30073
400 2.03071
405 2.63675
410 2.78795
415 2.25539
420 2.03611
425 2.21969
430 2.52275
435 2.39943
440 2.31998
445 2.23477
450 2.57809
455 1.8697
460 2.48559
465 2.37255
470 2.37003
475 1.84427
480 1.96772
485 1.75805
490 1.88767
495 2.2343
500 1.91382
505 2.21393
510 2.13963
515 2.19908
520 2.28372
525 2.08929
530 2.04511
535 1.63803
540 2.31901
545 2.21685
550 2.17923
555 2.28696
560 2.5617
565 2.25982
570 2.26769
575 1.77777
580 2.04012
585 2.38495
590 1.84654
595 1.7172
600 1.94387
Ex : 288
200 1.05277
205 1.35048
210 1.3567
215 1.90668
220 1.87709
225 1.28751
230 1.22332
235 1.55714
240 1.19282
245 1.2699
250 1.3656
255 1.65023
260 1.75029
265 1.58405
270 1.24459
275 1.49483
280 1.50038
285 1.68536
290 1.73415
295 1.00847
300 1.32558
305 1.15086
310 1.2316
315 1.20123
320 1.04537
325 1.24148
330 1.63334
335 1.63469
340 2.0505
345 1.7487
350 1.80302
355 2.26188
360 2.06266
365 1.99446
370 2.10374
375 2.1755
380 2.04306
385 2.02203
390 2.35914
395 2.06479
400 2.10262
405 1.9832
410 2.11564
415 2.04125
420 2.25789
425 2.37599
430 2.77485
435 2.19694
440 2.22324
445 1.96298
450 1.72439
455 1.66312
460 1.67131
465 1.67643
470 1.83413
475 1.51576
480 1.43821
485 1.43962
490 1.92409
495 1.92959
500 1.79053
505 1.54187
510 1.60717
515 1.70771
520 1.10592
525 1.53734
530 1.24213
535 1.39243
540 1.95239
545 1.38302
550 1.58173
555 1.93124
560 1.60315
565 1.5978
570 2.07615
575 1.74658
580 1.38705
585 1.36907
590 1.54061
595 1.50925
600 0.563325
Ex : 293
200 1.27341
205 0.959293
210 1.34149
215 1.3059
220 1.13328
225 1.29158
230 0.939427
235 1.4246
240 1.24665
245 1.10126
250 1.06637
255 0.976067
260 1.08241
265 1.33156
270 1.50922
275 1.42769
280 1.27861
285 1.32557
290 1.23578
295 0.896148
300 1.37427
305 1.79519
310 1.41585
315 1.396
320 1.35239
325 1.27852
330 1.39312
335 1.84408
340 2.0211
345 2.0159
350 1.55324
355 2.03318
360 2.00461
365 1.33052
370 1.78354
375 1.64162
380 1.80224
385 2.32442
390 1.81996
395 2.02896
400 1.70242
405 2.10141
410 1.814
415 2.10418
420 1.74416
425 2.1385
430 1.8483
435 2.09499
440 1.62325
445 1.92306
450 1.45606
455 1.64702
460 1.62996
465 1.81173
470 1.75134
475 1.74785
480 1.19771
485 1.55764
490 1.53366
495 1.66723
500 1.63341
505 1.47913
510 1.78257
515 1.41929
520 1.28133
525 1.30057
530 1.75078
535 1.37677
540 1.2861
545 1.29695
550 1.16262
555 1.53696
560 1.16902
565 1.74499
570 1.36954
575 1.79846
580 1.75174
585 1.66466
590 0.993441
595 1.22039
600 4.26244
Ex : 298
200 1.16701
205 0.940961
210 1.16573
215 0.845739
220 1.31
225 1.16786
230 0.904271
235 1.60716
240 0.959549
245 1.0416
250 0.97704
255 1.27673
260 1.02748
265 0.817761
270 0.728821
275 1.22454
280 1.111
285 1.15352
290 1.40525
295 0.959454
300 1.12897
305 1.26897
310 1.07124
315 0.986261
320 1.35843
325 1.48682
330 1.22025
335 1.63628
340 1.84756
345 1.58428
350 1.47283
355 2.06348
360 1.61842
365 1.7835
370 1.73145
375 1.80734
380 1.86634
385 1.86479
390 1.40439
395 1.59272
400 1.86901
405 1.72485
410 1.39336
415 1.80739
420 2.13712
425 1.68182
430 2.1478
435 1.64473
440 1.46813
445 1.78637
450 1.82981
455 1.50765
460 1.56991
465 1.73234
470 1.58021
475 1.73159
480 1.50463
485 1.55162
490 1.63312
495 1.32148
500 1.10855
505 1.60364
510 1.44216
515 1.71078
520 1.25495
525 0.908565
530 1.42902
535 0.914503
540 1.01143
545 1.11399
550 0.960949
555 1.23785
560 1.33369
565 1.20603
570 1.06616
575 1.03517
580 1.05932
585 1.46617
590 1.45307
595 1.63236
600 2.3313
Ex : 303
200 0.965652
205 1.13439
210 0.811103
215 0.89656
220 0.968268
225 0.924252
230 0.720525
235 1.04549
240 0.838137
245 0.727924
250 0.861134
255 1.02088
260 0.752692
265 0.781499
270 0.985966
275 0.769462
280 1.32952
285 1.05564
290 0.868308
295 1.07518
300 1.199
305 0.959391
310 0.764251
315 0.702414
320 0.80055
325 1.35629
330 1.32711
335 1.52864
340 1.51407
345 1.27186
350 1.39534
355 1.25746
360 1.28601
365 1.50808
370 1.60425
375 1.39547
380 1.52461
385 1.47417
390 1.56799
395 1.59993
400 1.53412
405 1.59677
410 1.6773
415 1.56393
420 1.56237
425 1.91041
430 1.68048
435 1.56676
440 1.56428
445 1.50589
450 1.25666
455 1.40357
460 1.34451
465 1.36361
470 1.18342
475 1.05539
480 0.960881
485 1.41752
490 1.18522
495 1.6204
500 1.43491
505 1.1631
510 1.59297
515 1.17061
520 0.913511
525 0.975186
530 1.21328
535 1.12769
540 1.0386
545 0.775531
550 1.16651
555 1.06901
560 1.10424
565 1.05704
570 0.886339
575 0.955302
580 0.831037
585 1.15801
590 1.34955
595 1.24983
600 0.758715
Ex : 308
200 0.812112
205 0.795044
210 1.16736
215 0.995406
220 0.913751
225 0.937232
230 0.716771
235 0.922043
240 0.798365
245 0.831918
250 0.705776
255 0.782233
260 0.785258
265 0.91328
270 0.772075
275 0.754115
280 0.657776
285 0.860249
290 0.770099
295 1.02749
300 0.919592
305 0.938096
310 0.804532
315 0.87038
320 1.00027
325 1.18607
330 1.38182
335 1.3207
340 1.41958
345 1.00066
350 1.31975
355 1.49668
360 1.29392
365 1.24529
370 1.45137
375 1.10626
380 1.13607
385 1.42289
390 1.4044
395 1.47839
400 1.35688
405 1.27613
410 1.51906
415 1.50441
420 1.63554
425 1.35355
430 1.46645
435 1.55697
440 1.2463
445 1.3308
450 1.63959
455 1.55497
460 1.37038
465 1.32576
470 1.36577
475 1.13503
480 1.01452
485 1.08156
490 1.12254
495 1.3578
500 1.18217
505 1.02639
510 1.00694
515 0.931847
520 0.80594
525 1.12571
530 1.03727
535 1.10015
540 0.808343
545 1.06419
550 0.855471
555 1.19655
560 0.882041
565 0.985176
570 0.884611
575 0.791119
580 0.835186
585 1.21657
590 0.854565
595 0.866918
600 3.00214
Ex : 313
200 0.743109
205 0.668753
210 0.881381
215 0.872455
220 0.619493
225 0.560105
230 0.729014
235 0.578865
240 0.595379
245 0.824897
250 0.924363
255 0.795227
260 0.616515
265 0.68473
270 0.681992
275 0.862068
280 0.716117
285 0.783204
290 0.700769
295 0.614088
300 0.964224
305 1.24962
310 1.0534
315 0.759937
320 0.867827
325 1.14389
330 1.3157
335 1.28304
340 1.16719
345 1.31312
350 1.3446
355 1.15257
360 1.40114
365 1.23018
370 1.37821
375 1.48762
380 1.45256
385 1.45756
390 1.54114
395 1.70708
400 1.35989
405 1.76434
410 1.6268
415 1.3635
420 1.72141
425 1.56465
430 1.59038
435 1.64221
440 1.37922
445 1.35632
450 1.14657
455 1.21096
460 1.18507
465 1.26725
470 1.09885
475 1.04286
480 1.39532
485 1.06107
490 0.987256
495 1.01986
500 1.07249
505 0.960752
510 1.05809
515 0.870176
520 0.949483
525 0.910227
530 0.650023
535 0.891093
540 0.793462
545 0.675163
550 1.20011
555 0.939783
560 0.682458
565 0.613787
570 0.718427
575 0.66549
580 0.638258
585 0.748574
590 0.836654
595 0.799379
600 0.111818
Ex : 318
200 0.817958
205 0.637669
210 0.560577
215 0.598585
220 0.853621
225 0.857945
230 0.581506
235 0.619464
240 0.628341
245 0.62311
250 0.558154
255 0.700961
260 0.712004
265 0.685527
270 0.635091
275 0.699325
280 0.701709
285 0.625568
290 0.547173
295 0.590359
300 0.67549
305 0.756142
310 1.059
315 1.67583
320 1.2918
325 1.29427
330 1.49476
335 1.84508
340 2.01642
345 2.07596
350 2.28301
355 2.83566
360 3.27751
365 4.15415
370 4.42496
375 5.23789
380 5.63251
385 5.71985
390 6.43656
395 6.73512
400 6.78311
405 7.13288
410 6.85526
415 6.76818
420 6.63678
425 6.86216
430 6.33779
435 6.13954
440 5.57456
445 5.51679
450 5.69471
455 5.31914
460 4.3528
465 4.8372
470 4.0795
475 4.18575
480 3.62957
485 3.11659
490 3.28987
495 2.85889
500 2.40482
505 2.43153
510 1.94461
515 1.78869
520 1.61648
525 1.50478
530 1.35976
535 1.41032
540 1.3727
545 1.27047
550 1.27779
555 0.891614
560 0.930413
565 0.725198
570 0.894748
575 0.883139
580 0.650279
585 0.896043
590 0.689311
595 0.703632
600 0.957043
Ex : 323
200 0.419262
205 0.499045
210 0.498205
215 0.544815
220 0.574937
225 0.573929
230 0.78842
235 0.514731
240 0.567387
245 0.485161
250 0.498709
255 0.617066
260 0.607597
265 0.665884
270 0.605157
275 0.750636
280 0.602223
285 0.621488
290 0.584228
295 0.670369
300 0.498704
305 0.486173
310 0.651282
315 10.3858
320 51.3
325 23.0915
330 5.64318
335 4.44396
340 4.89294
345 6.61004
350 8.70168
355 11.3455
360 13.4822
365 16.6735
370 18.8283
375 21.9812
380 25.4568
385 28.1984
390 29.7712
395 30.616
400 32.6334
405 32.9061
410 34.6221
415 33.6088
420 31.625
425 30.768
430 29.7585
435 29.3813
440 28.4501
445 26.0106
450 25.4857
455 22.6659
460 21.8282
465 20.4083
470 18.7862
475 17.4523
480 16.3467
485 13.9346
490 12.8286
495 11.4661
500 10.2217
505 8.76461
510 8.22151
515 7.22867
520 6.16925
525 5.51882
530 4.89837
535 4.43441
540 3.87362
545 3.37037
550 2.92924
555 2.77885
560 2.13391
565 2.36901
570 1.78475
575 1.48121
580 1.51477
585 1.18995
590 1.11457
595 0.906986
600 1.72654
Ex : 328
200 0.609045
205 0.486972
210 0.6074
215 0.637875
220 0.599627
225 0.64372
230 0.602685
235 0.578648
240 0.785708
245 0.590963
250 0.764193
255 0.624307
260 0.662389
265 0.469807
270 0.499992
275 0.561994
280 0.543545
285 0.562648
290 0.4209
295 0.553071
300 0.578868
305 0.612737
310 0.897261
315 3.48198
320 141.621
325 352.768
330 106.797
335 17.3256
340 8.34306
345 8.74196
350 10.8527
355 14.6996
360 18.5938
365 21.7659
370 24.4301
375 27.9846
380 31.3381
385 35.028
390 37.6602
395 39.2527
400 41.1139
405 42.3296
410 43.4895
415 42.3693
420 41.6808
425 39.656
430 38.7161
435 37.0842
440 35.1855
445 33.3612
450 31.5593
455 29.3075
460 27.9068
465 26.0937
470 23.3571
475 20.9871
480 19.1334
485 18.2288
490 16.6184
495 14.3069
500 13.1148
505 11.3039
510 10.1823
515 9.01702
520 7.96425
525 6.89557
530 6.27683
535 5.59959
540 4.92822
545 4.58167
550 4.09993
555 3.38035
560 2.94918
565 2.56017
570 2.3021
575 1.98627
580 1.66006
585 1.37921
590 1.30328
595 0.971352
600 0.944169
Ex : 333
200 0.559875
205 0.5478
210 0.473266
215 0.629552
220 0.467695
225 0.484496
230 0.54561
235 0.463793
240 0.559982
245 0.54855
250 0.642142
255 0.527325
260 0.550864
265 0.628776
270 0.65971
275 0.544103
280 0.642942
285 0.668506
290 0.57242
295 0.737906
300 0.737763
305 0.800344
310 0.918189
315 1.00236
320 20.5161
325 444.7
330 762.906
335 198.13
340 28.4771
345 9.61628
350 7.71311
355 8.67595
360 11.7102
365 16.5442
370 17.1869
375 17.3817
380 18.9098
385 21.138
390 23.3207
395 24.5583
400 25.0986
405 25.3306
410 26.8846
415 26.3167
420 25.6126
425 24.8229
430 22.5569
435 21.8518
440 21.8349
445 20.5075
450 18.5691
455 17.1435
460 16.4765
465 16.0875
470 14.8036
475 12.8283
480 11.9225
485 10.987
490 10.0263
495 9.59594
500 8.34771
505 7.67985
510 6.8304
515 6.06196
520 5.27578
525 4.89929
530 4.3693
535 3.88259
540 3.5033
545 2.90697
550 2.72449
555 2.49989
560 2.27729
565 2.13855
570 1.90272
575 1.61479
580 1.55479
585 1.28859
590 1.2684
595 1.06966
600 1.65059
Ex : 338
200 0.492125
205 0.532041
210 0.497669
215 0.474283
220 0.492477
225 0.596589
230 0.702033
235 0.547162
240 0.544677
245 0.542754
250 0.581179
255 0.506749
260 0.46154
265 0.581356
270 0.613407
275 0.555543
280 0.557991
285 0.673016
290 0.602765
295 0.637319
300 0.804717
305 0.738923
310 0.855052
315 0.895937
320 1.15164
325 43.1092
330 688.873
335 1014.05
340 243.394
345 32.6804
350 8.99407
355 6.25868
360 5.33997
365 7.80723
370 11.5511
375 12.5623
380 10.8969
385 11.5353
390 13.4459
395 13.7189
400 13.2346
405 13.8786
410 14.6842
415 15.4349
420 14.7886
425 13.7588
430 12.6399
435 12.0567
440 12.0561
445 11.5119
450 10.7932
455 10.3264
460 9.51178
465 9.25904
470 8.37194
475 7.61313
480 7.4685
485 6.68589
490 6.17145
495 5.41095
500 5.41703
505 4.71937
510 4.37012
515 4.26055
520 3.76272
525 3.1967
530 3.16203
535 2.88219
540 2.6926
545 2.53402
550 2.31106
555 1.9776
560 1.93395
565 1.81128
570 1.7747
575 1.58597
580 1.25013
585 1.12789
590 0.941092
595 1.06983
600 1.05823
Ex : 343
200 0.451156
205 0.540971
210 0.465872
215 0.386294
220 0.361403
225 0.564279
230 0.730636
235 0.552286
240 0.459983
245 0.415379
250 0.451019
255 0.520039
260 0.549595
265 0.606182
270 0.572172
275 0.438972
280 0.406563
285 0.600435
290 0.543824
295 0.627544
300 0.64343
305 0.64226
310 0.672037
315 0.786799
320 1.06517
325 1.54713
330 49.4882
335 779.988
340 1129.19
345 264.609
350 34.5242
355 8.11598
360 4.87817
365 3.60172
370 4.426
375 8.63295
380 10.0115
385 9.22845
390 9.71994
395 10.0098
400 9.57341
405 9.97927
410 10.7851
415 11.5877
420 11.0301
425 10.869
430 9.75864
435 9.7212
440 9.54646
445 8.85684
450 8.46014
455 7.94626
460 8.15067
465 7.24406
470 6.76491
475 6.39526
480 6.29488
485 5.71772
490 5.38123
495 5.09518
500 4.30287
505 3.98859
510 3.89118
515 3.36768
520 3.40618
525 2.81529
530 2.71427
535 2.51141
540 2.28026
545 2.08462
550 2.07044
555 1.91486
560 1.596
565 1.71904
570 1.62744
575 1.29229
580 1.11483
585 1.07646
590 1.0022
595 1.01118
600 0.613924
Ex : 348
200 0.29373
205 0.47191
210 0.363886
215 0.413293
220 0.428393
225 0.554894
230 0.393146
235 0.469548
240 0.430223
245 0.559623
250 0.53769
255 0.483056
260 0.489788
265 0.467015
270 0.479431
275 0.397534
280 0.499714
285 0.562322
290 0.600712
295 0.562121
300 0.661863
305 0.556564
310 0.600459
315 0.612166
320 0.678546
325 1.10698
330 1.66747
335 49.0639
340 779.069
345 1166.29
350 288.628
355 36.8799
360 8.00535
365 4.33939
370 3.36894
375 3.64869
380 7.76024
385 11.5844
390 11.4536
395 10.6982
400 9.52247
405 10.1133
410 11.5883
415 12.49
420 11.5329
425 11.13
430 10.1511
435 10.1897
440 10.0425
445 9.58082
450 8.62452
455 7.77056
460 7.52735
465 6.99831
470 6.9881
475 6.24401
480 6.27527
485 5.75916
490 5.27887
495 4.71024
500 4.60803
505 4.22524
510 3.71078
515 3.83516
520 3.19922
525 3.03557
530 2.60455
535 2.41608
540 2.29678
545 2.1481
550 1.94373
555 1.75104
560 1.73193
565 1.66143
570 1.45225
575 1.45531
580 1.1172
585 1.03932
590 0.907645
595 0.915908
600 0.775593
Ex : 353
200 0.447354
205 0.482097
210 0.472085
215 0.419338
220 0.454231
225 0.456737
230 0.373036
235 0.432705
240 0.387249
245 0.416066
250 0.503826
255 0.325772
260 0.448727
265 0.578297
270 0.435277
275 0.530188
280 0.374643
285 0.542205
290 0.58434
295 0.496614
300 0.56266
305 0.641282
310 0.501063
315 0.466191
320 0.551069
325 0.894392
330 1.16184
335 1.92027
340 50.5081
345 793.095
350 1143.13
355 273.383
360 34.5753
365 7.15272
370 3.97787
375 3.06518
380 3.83444
385 8.17407
390 13.3694
395 13.4634
400 10.8961
405 10.63
410 11.7868
415 12.6036
420 12.523
425 10.9142
430 10.346
435 10.1329
440 10.4725
445 9.95545
450 9.29004
455 8.81331
460 8.083
465 7.5211
470 7.13082
475 6.71212
480 6.06538
485 5.53097
490 5.2528
495 5.14692
500 4.57527
505 4.34223
510 3.96547
515 3.58738
520 3.18164
525 2.86034
530 2.6778
535 2.37226
540 2.2032
545 2.05838
550 1.95429
555 1.65753
560 1.72873
565 1.62415
570 1.20354
575 1.15039
580 1.02375
585 0.940221
590 0.869672
595 0.922948
600 1.3945
Ex : 358
200 0.456514
205 0.370443
210 0.412383
215 0.401782
220 0.551777
225 0.440712
230 0.473162
235 0.465308
240 0.470751
245 0.438132
250 0.467876
255 0.337112
260 0.432795
265 0.425791
270 0.478161
275 0.43969
280 0.3763
285 0.455846
290 0.464665
295 0.489366
300 0.478669
305 0.562905
310 0.500759
315 0.489387
320 0.508132
325 0.707802
330 0.788868
335 1.13805
340 1.88291
345 47.4937
350 746.855
355 1132.37
360 275.114
365 34.7331
370 7.05509
375 3.94936
380 3.97843
385 5.49012
390 8.93471
395 13.8471
400 12.7733
405 10.8795
410 11.1847
415 12.0469
420 11.8124
425 10.5523
430 9.41658
435 9.93722
440 10.1454
445 9.96633
450 9.0527
455 8.45017
460 7.70762
465 7.31826
470 7.08248
475 6.79158
480 6.11894
485 5.75648
490 5.0941
495 4.82378
500 4.46175
505 4.3759
510 4.00157
515 3.85173
520 3.45928
525 2.90937
530 2.84985
535 2.31572
540 2.16389
545 2.13537
550 1.83104
555 1.7685
560 1.50673
565 1.41455
570 1.44991
575 1.27055
580 1.02672
585 0.942261
590 0.836554
595 0.720184
600 1.74016
Ex : 363
200 0.348861
205 0.412659
210 0.344317
215 0.43422
220 0.380336
225 0.389254
230 0.349531
235 0.334798
240 0.446421
245 0.304032
250 0.403024
255 0.428326
260 0.481855
265 0.372025
270 0.510056
275 0.373565
280 0.374579
285 0.416911
290 0.48874
295 0.46735
300 0.396915
305 0.426196
310 0.411748
315 0.490576
320 0.619923
325 0.631986
330 0.666373
335 0.869756
340 1.3442
345 1.76211
350 42.9075
355 717.862
360 1106.73
365 279.536
370 35.1662
375 7.09389
380 4.82462
385 6.46348
390 8.16773
395 9.87346
400 12.5462
405 14.1194
410 13.6046
415 13.6767
420 12.8479
425 11.5171
430 10.9142
435 10.967
440 10.5402
445 10.7828
450 9.8446
455 8.88882
460 8.08694
465 7.8898
470 7.4891
475 7.01448
480 6.50126
485 5.95526
490 5.5997
495 5.13385
500 4.70928
505 4.46156
510 3.99201
515 3.74758
520 3.41168
525 3.15179
530 2.72417
535 2.68625
540 2.34285
545 2.23846
550 1.97217
555 1.81157
560 1.58172
565 1.42778
570 1.36775
575 1.11932
580 1.00359
585 0.958921
590 0.814133
595 0.740335
600 0.302587
Ex : 368
200 0.300837
205 0.312528
210 0.353369
215 0.326205
220 0.408422
225 0.388178
230 0.408449
235 0.356709
240 0.412703
245 0.297173
250 0.313717
255 0.408995
260 0.388874
265 0.345569
270 0.378283
275 0.42906
280 0.35429
285 0.403043
290 0.378337
295 0.365843
300 0.477682
305 0.379854
310 0.396915
315 0.428145
320 0.572688
325 0.532512
330 0.595215
335 0.642386
340 0.905604
345 1.21238
350 1.83535
355 35.0879
360 682.252
365 1110.23
370 287.965
375 36.386
380 8.22804
385 7.69849
390 10.1119
395 10.8835
400 10.5886
405 14.0214
410 17.7262
415 17.7349
420 16.2153
425 14.1419
430 12.2351
435 12.901
440 12.8272
445 12.378
450 11.4854
455 10.2941
460 9.38794
465 8.98722
470 8.34949
475 7.75301
480 7.24569
485 6.68225
490 6.20238
495 5.72415
500 5.31199
505 4.8595
510 4.57603
515 4.06989
520 3.68763
525 3.17403
530 2.85619
535 2.53046
540 2.3681
545 2.081
550 1.97705
555 1.73719
560 1.78267
565 1.55326
570 1.31352
575 1.12046
580 0.960851
585 0.833165
590 0.784037
595 0.804328
600 0.845404
Ex : 373
200 0.224388
205 0.398962
210 0.382568
215 0.338237
220 0.298688
225 0.338325
230 0.351392
235 0.393017
240 0.304401
245 0.321055
250 0.385519
255 0.40931
260 0.304853
265 0.343725
270 0.330688
275 0.374721
280 0.403255
285 0.353054
290 0.392334
295 0.399712
300 0.275306
305 0.375979
310 0.417223
315 0.406284
320 0.382693
325 0.407604
330 0.599676
335 0.611815
340 0.823714
345 0.874374
350 1.15499
355 1.70687
360 39.4421
365 682.078
370 1085.17
375 280.523
380 36.1992
385 9.68762
390 10.2849
395 11.3948
400 10.3556
405 10.5029
410 14.4911
415 18.8752
420 18.2267
425 14.5636
430 12.2873
435 12.0172
440 12.6229
445 11.9388
450 11.1263
455 10.0668
460 9.06185
465 8.47723
470 8.18097
475 7.87469
480 7.25751
485 6.5803
490 6.12491
495 5.66659
500 5.15003
505 4.77596
510 4.19179
515 3.84023
520 3.61724
525 3.12682
530 2.84188
535 2.52032
540 2.35984
545 2.17847
550 1.97065
555 1.61415
560 1.68435
565 1.37616
570 1.10694
575 1.09393
580 0.939666
585 0.770129
590 0.832819
595 0.699501
600 0.471793
Ex : 378
200 0.289811
205 0.304544
210 0.289148
215 0.306928
220 0.273825
225 0.325634
230 0.306843
235 0.304215
240 0.282679
245 0.385048
250 0.333627
255 0.319112
260 0.368138
265 0.396653
270 0.363793
275 0.411154
280 0.386109
285 0.436945
290 0.387935
295 0.316971
300 0.270443
305 0.362634
310 0.342128
315 0.390347
320 0.389538
325 0.354717
330 0.422154
335 0.458048
340 0.52913
345 0.666531
350 0.776451
355 0.991095
360 1.61917
365 36.7837
370 679.415
375 1090.02
380 283.531
385 37.854
390 11.2391
395 9.38802
400 8.54628
405 8.14574
410 9.56292
415 12.7697
420 15.2198
425 13.2255
430 11.0344
435 10.1543
440 10.2026
445 9.96984
450 9.09312
455 8.73621
460 7.85484
465 7.64071
470 7.55606
475 7.05824
480 6.66917
485 6.18821
490 5.64836
495 5.18301
500 4.87522
505 4.62692
510 4.12266
515 3.6271
520 3.29713
525 2.92705
530 2.70511
535 2.51535
540 2.23117
545 2.12121
550 1.86989
555 1.59019
560 1.55158
565 1.29104
570 1.27513
575 0.968226
580 0.973464
585 0.756866
590 0.70615
595 0.614952
600 0.720104
Ex : 383
200 0.359304
205 0.317043
210 0.317262
215 0.318292
220 0.256812
225 0.28171
230 0.355705
235 0.272375
240 0.292026
245 0.330326
250 0.2875
255 0.293933
260 0.305846
265 0.324806
270 0.325811
275 0.316764
280 0.325753
285 0.320081
290 0.342237
295 0.321826
300 0.333993
305 0.338468
310 0.387278
315 0.342527
320 0.379177
325 0.342306
330 0.487994
335 0.440813
340 0.523728
345 0.6532
350 0.671386
355 0.766581
360 1.04859
365 1.65599
370 34.5421
375 655.969
380 1111.76
385 296.587
390 41.7241
395 12.0763
400 8.43425
405 8.84568
410 10.136
415 11.6301
420 11.7645
425 13.2977
430 12.8882
435 11.4919
440 11.5643
445 10.2018
450 9.5128
455 8.68099
460 8.29865
465 7.81133
470 7.65371
475 7.10637
480 6.83357
485 6.05811
490 5.83198
495 5.45449
500 4.91276
505 4.44971
510 4.27397
515 3.91152
520 3.41794
525 3.07493
530 2.71609
535 2.70656
540 2.28579
545 2.30989
550 1.89573
555 1.71221
560 1.65845
565 1.38775
570 1.29804
575 1.10849
580 0.970996
585 0.812091
590 0.699974
595 0.668021
600 0.176408
Ex : 388
200 0.200933
205 0.324119
210 0.371312
215 0.342411
220 0.282427
225 0.321021
230 0.279445
235 0.286904
240 0.303297
245 0.30543
250 0.292741
255 0.31233
260 0.359678
265 0.276538
270 0.294592
275 0.316038
280 0.391652
285 0.292503
290 0.268651
295 0.342195
300 0.333324
305 0.37962
310 0.328782
315 0.270994
320 0.327337
325 0.386672
330 0.338565
335 0.420084
340 0.504195
345 0.48339
350 0.521756
355 0.663516
360 0.831907
365 1.02145
370 1.52643
375 37.3547
380 663.487
385 1095.66
390 292.931
395 42.6105
400 13.2717
405 10.2591
410 12.366
415 13.8915
420 13.5215
425 12.3549
430 13.2839
435 14.8864
440 13.5199
445 12.4427
450 11.0153
455 9.75697
460 8.92236
465 8.59754
470 8.35273
475 7.69574
480 7.03476
485 6.59332
490 5.92439
495 5.56701
500 5.37561
505 4.74865
510 4.17324
515 3.85569
520 3.62143
525 3.26208
530 3.01129
535 2.81096
540 2.32041
545 2.21835
550 1.96549
555 1.91019
560 1.49419
565 1.3284
570 1.28929
575 1.01892
580 0.897215
585 0.844342
590 0.652823
595 0.589913
600 0.312179
Ex : 393
200 0.293358
205 0.281748
210 0.267145
215 0.278696
220 0.270823
225 0.269313
230 0.325488
235 0.307593
240 0.308623
245 0.322085
250 0.306772
255 0.360592
260 0.278682
265 0.265946
270 0.292466
275 0.297611
280 0.261557
285 0.240574
290 0.259601
295 0.29023
300 0.316579
305 0.319189
310 0.286912
315 0.406392
320 0.363548
325 0.325919
330 0.380125
335 0.392467
340 0.437069
345 0.43582
350 0.461273
355 0.55251
360 0.636264
365 0.759755
370 1.00159
375 1.67347
380 31.7499
385 656.975
390 1102.63
395 299.403
400 43.3764
405 13.4463
410 11.8286
415 13.8998
420 13.5332
425 11.8042
430 10.7205
435 11.7707
440 14.301
445 12.9913
450 10.9788
455 9.37022
460 8.27418
465 7.76086
470 7.5661
475 7.05234
480 6.59622
485 6.35768
490 5.63926
495 5.3171
500 4.69294
505 4.8162
510 4.24754
515 3.68789
520 3.31629
525 3.16938
530 2.76178
535 2.65031
540 2.36305
545 2.11906
550 1.95339
555 1.73215
560 1.58796
565 1.42873
570 1.16427
575 0.95619
580 0.917162
585 0.719191
590 0.698718
595 0.587304
600 0.63837
Ex : 398
200 0.258049
205 0.233111
210 0.281328
215 0.251024
220 0.327732
225 0.314215
230 0.280177
235 0.245348
240 0.288453
245 0.277741
250 0.234546
255 0.251808
260 0.2733
265 0.30202
270 0.298061
275 0.261917
280 0.283998
285 0.311115
290 0.292379
295 0.331193
300 0.270491
305 0.348626
310 0.28943
315 0.338556
320 0.374108
325 0.339224
330 0.308399
335 0.350029
340 0.430034
345 0.362726
350 0.432351
355 0.541591
360 0.565141
365 0.667964
370 0.729308
375 1.05173
380 1.70207
385 33.2971
390 657.074
395 1108.99
400 293.225
405 39.7629
410 11.0027
415 9.32224
420 9.7501
425 8.48088
430 7.21394
435 7.11766
440 8.55639
445 10.8004
450 10.0294
455 7.96389
460 6.97512
465 6.49374
470 6.12519
475 5.91242
480 5.78736
485 5.33085
490 5.09054
495 4.41984
500 4.43244
505 4.04058
510 3.81269
515 3.6211
520 3.05542
525 2.938
530 2.7214
535 2.41559
540 2.2048
545 2.05198
550 1.86356
555 1.75429
560 1.55289
565 1.3438
570 1.15279
575 1.06252
580 0.81822
585 0.647105
590 0.61976
595 0.502847
600 1.2198
Ex : 403
200 0.223665
205 0.254941
210 0.284028
215 0.264317
220 0.24147
225 0.355825
230 0.298379
235 0.259779
240 0.302118
245 0.26425
250 0.251114
255 0.286552
260 0.27983
265 0.244323
270 0.321755
275 0.28874
280 0.312253
285 0.183185
290 0.297739
295 0.255142
300 0.324025
305 0.268286
310 0.300131
315 0.271228
320 0.29604
325 0.272343
330 0.33604
335 0.317873
340 0.33934
345 0.435655
350 0.412778
355 0.398098
360 0.471842
365 0.527764
370 0.567248
375 0.803042
380 1.05558
385 1.82116
390 36.4977
395 665.141
400 1082.77
405 288.122
410 37.8246
415 9.60494
420 6.37926
425 5.84613
430 5.24938
435 5.13029
440 5.61387
445 6.00389
450 8.22513
455 8.54271
460 6.95192
465 6.1664
470 5.71271
475 5.38815
480 4.90021
485 4.72418
490 4.36259
495 4.26435
500 4.0118
505 3.83706
510 3.49647
515 3.26658
520 2.8993
525 2.84615
530 2.6381
535 2.30047
540 2.19813
545 1.93756
550 1.82894
555 1.68393
560 1.50646
565 1.19939
570 1.16629
575 0.890901
580 0.780014
585 0.803229
590 0.697359
595 0.618227
600 1.40577
Ex : 408
200 0.224822
205 0.301692
210 0.307667
215 0.268082
220 0.294757
225 0.213325
230 0.276258
235 0.291245
240 0.301122
245 0.298939
250 0.27065
255 0.279669
260 0.288971
265 0.283235
270 0.287508
275 0.376885
280 0.29144
285 0.310809
290 0.279169
295 0.252146
300 0.3286
305 0.295375
310 0.318082
315 0.310941
320 0.273686
325 0.313867
330 0.32522
335 0.32099
340 0.354342
345 0.394085
350 0.313523
355 0.463662
360 0.407186
365 0.514029
370 0.464129
375 0.571268
380 0.719289
385 1.10892
390 1.68043
395 33.9485
400 671.486
405 1088.49
410 281.078
415 37.6934
420 9.25992
425 5.60982
430 5.5214
435 5.33058
440 5.56416
445 5.71238
450 5.808
455 7.28898
460 8.54991
465 6.98826
470 5.89864
475 5.54479
480 5.05587
485 4.81914
490 4.3421
495 4.23919
500 3.94929
505 3.61005
510 3.52676
515 3.12032
520 2.78498
525 2.74399
530 2.52574
535 2.28249
540 2.10468
545 1.82978
550 1.73298
555 1.61169
560 1.54415
565 1.31793
570 1.17711
575 0.990249
580 0.88551
585 0.740563
590 0.754321
595 0.581703
600 0.49724
Ex : 413
200 0.296308
205 0.193743
210 0.242054
215 0.310988
220 0.223129
225 0.247704
230 0.261772
235 0.234852
240 0.250478
245 0.271999
250 0.179124
255 0.277584
260 0.285225
265 0.280897
270 0.291098
275 0.224165
280 0.240489
285 0.315865
290 0.289682
295 0.312718
300 0.22152
305 0.233067
310 0.246773
315 0.285971
320 0.310437
325 0.251577
330 0.252749
335 0.299738
340 0.32125
345 0.339167
350 0.3646
355 0.446541
360 0.41131
365 0.381048
370 0.47352
375 0.591761
380 0.616107
385 0.693762
390 1.04881
395 1.61864
400 37.7436
405 675.579
410 1074.62
415 270.594
420 35.7491
425 8.2517
430 5.12799
435 5.14479
440 5.34802
445 5.18536
450 4.90495
455 4.70726
460 5.94054
465 7.74725
470 7.18511
475 5.67416
480 5.09594
485 4.47644
490 3.95625
495 3.81652
500 3.78703
505 3.56868
510 3.21455
515 3.07775
520 2.88759
525 2.49507
530 2.43301
535 2.11649
540 2.01844
545 1.84521
550 1.82522
555 1.45192
560 1.35528
565 1.26571
570 1.1368
575 0.969365
580 0.868764
585 0.699645
590 0.666253
595 0.567522
600 0.156462
Ex : 418
200 0.294612
205 0.30622
210 0.277932
215 0.242941
220 0.265474
225 0.253503
230 0.246511
235 0.29283
240 0.297107
245 0.293659
250 0.285727
255 0.248418
260 0.233443
265 0.253327
270 0.282646
275 0.313925
280 0.230965
285 0.277175
290 0.18982
295 0.269771
300 0.231862
305 0.187833
310 0.273186
315 0.245697
320 0.305752
325 0.314351
330 0.351428
335 0.31478
340 0.280039
345 0.342849
350 0.326007
355 0.366832
360 0.463176
365 0.467687
370 0.466298
375 0.479009
380 0.479912
385 0.677198
390 0.74366
395 1.08596
400 1.69967
405 35.8911
410 662.261
415 1064.76
420 279.648
425 35.4666
430 7.12963
435 3.79771
440 3.96881
445 3.7825
450 3.54964
455 3.36643
460 3.36208
465 4.22209
470 6.30186
475 6.14655
480 4.87567
485 4.41028
490 3.73845
495 3.44009
500 3.32623
505 3.046
510 2.85965
515 2.60915
520 2.52939
525 2.42688
530 2.18757
535 2.22289
540 1.9424
545 1.7655
550 1.63933
555 1.50339
560 1.45327
565 1.23563
570 0.987305
575 0.877435
580 0.8294
585 0.792623
590 0.668855
595 0.586065
600 0.207779
Ex : 423
200 0.277904
205 0.308808
210 0.227243
215 0.259983
220 0.233856
225 0.269834
230 0.22729
235 0.238888
240 0.227322
245 0.28838
250 0.206904
255 0.185519
260 0.227648
265 0.251305
270 0.280014
275 0.220789
280 0.286392
285 0.246429
290 0.20937
295 0.256557
300 0.301743
305 0.319795
310 0.285435
315 0.268667
320 0.261537
325 0.260796
330 0.35853
335 0.299778
340 0.307545
345 0.339488
350 0.382718
355 0.343782
360 0.35429
365 0.467602
370 0.413648
375 0.423341
380 0.469735
385 0.558714
390 0.6769
395 0.719406
400 1.03077
405 1.56836
410 35.8607
415 675.146
420 1042.01
425 258.521
430 32.332
435 6.02753
440 2.88479
445 2.83153
450 2.64532
455 2.54127
460 2.4452
465 2.5973
470 3.07935
475 4.72559
480 5.43419
485 4.32939
490 3.69175
495 3.45739
500 3.13337
505 2.70486
510 2.70412
515 2.5367
520 2.21804
525 2.25451
530 2.03554
535 2.05684
540 1.87469
545 1.66424
550 1.51135
555 1.4348
560 1.36235
565 1.10831
570 1.08249
575 0.98291
580 0.832469
585 0.688226
590 0.631642
595 0.525743
600 0.491192
Ex : 428
200 0.213845
205 0.2539
210 0.275272
215 0.251692
220 0.329437
225 0.303951
230 0.21385
235 0.263521
240 0.356048
245 0.25362
250 0.239448
255 0.299597
260 0.262221
265 0.310807
270 0.284975
275 0.295967
280 0.229454
285 0.303301
290 0.266049
295 0.231335
300 0.256877
305 0.277252
310 0.311212
315 0.312815
320 0.305424
325 0.287242
330 0.272393
335 0.292868
340 0.268157
345 0.252712
350 0.427417
355 0.324892
360 0.372118
365 0.412702
370 0.405061
375 0.434221
380 0.376591
385 0.489862
390 0.50933
395 0.649431
400 0.76193
405 1.00535
410 1.57466
415 39.7794
420 668.302
425 1036.9
430 263.409
435 32.6046
440 5.88261
445 2.71703
450 2.4329
455 2.49426
460 2.43879
465 2.23025
470 2.39217
475 2.74265
480 4.11697
485 5.35074
490 4.15946
495 3.20256
500 3.02113
505 2.73634
510 2.46498
515 2.48667
520 2.30711
525 2.32196
530 2.02772
535 1.85886
540 1.84658
545 1.58344
550 1.50492
555 1.36365
560 1.26482
565 1.11826
570 1.05137
575 0.970381
580 0.823771
585 0.670161
590 0.572461
595 0.497042
600 0.771533
Ex : 433
200 0.320442
205 0.273087
210 0.267697
215 0.21297
220 0.236612
225 0.233995
230 0.278275
235 0.276959
240 0.289515
245 0.277418
250 0.330062
255 0.253748
260 0.310519
265 0.284024
270 0.330234
275 0.228921
280 0.312402
285 0.297415
290 0.255323
295 0.213135
300 0.211893
305 0.249005
310 0.285162
315 0.269372
320 0.254647
325 0.301857
330 0.290075
335 0.346032
340 0.331192
345 0.279117
350 0.348705
355 0.310225
360 0.321102
365 0.406276
370 0.32596
375 0.396272
380 0.388202
385 0.409816
390 0.484111
395 0.564365
400 0.622479
405 0.763424
410 1.14917
415 1.74418
420 43.1031
425 703.011
430 1035.1
435 254.049
440 31.3257
445 5.67968
450 2.41063
455 2.26481
460 2.44616
465 2.35256
470 2.05532
475 2.41008
480 2.34481
485 3.25129
490 5.00819
495 4.35586
500 3.07514
505 2.90241
510 2.54278
515 2.40241
520 2.26747
525 2.15449
530 1.92596
535 1.82329
540 1.64013
545 1.75754
550 1.46577
555 1.44706
560 1.28092
565 1.05398
570 1.06877
575 0.925028
580 0.818161
585 0.714499
590 0.651795
595 0.584748
600 0.491434
Ex : 438
200 0.290993
205 0.310899
210 0.23005
215 0.325312
220 0.22658
225 0.276465
230 0.192116
235 0.236564
240 0.273807
245 0.324784
250 0.283448
255 0.260997
260 0.265739
265 0.269868
270 0.300424
275 0.262412
280 0.301949
285 0.330774
290 0.2734
295 0.221527
300 0.260249
305 0.254502
310 0.25323
315 0.260916
320 0.262205
325 0.2804
330 0.26947
335 0.298609
340 0.274379
345 0.360368
350 0.326277
355 0.329463
360 0.315501
365 0.327872
370 0.393914
375 0.335876
380 0.45699
385 0.473617
390 0.424577
395 0.500783
400 0.580499
405 0.607259
410 0.860604
415 1.04083
420 1.45067
425 40.0031
430 685.608
435 1072.96
440 263.603
445 32.562
450 5.74742
455 2.33131
460 2.29938
465 2.39654
470 2.2848
475 2.08467
480 2.07042
485 2.16254
490 2.68076
495 4.45826
500 4.53061
505 3.13322
510 2.75895
515 2.61259
520 2.22627
525 1.98298
530 1.79775
535 1.65539
540 1.51505
545 1.61806
550 1.53935
555 1.49781
560 1.25206
565 1.19272
570 1.05483
575 0.989945
580 0.912177
585 0.709532
590 0.586154
595 0.609266
600 0.276614
Ex : 443
200 0.291408
205 0.253819
210 0.235254
215 0.218471
220 0.262324
225 0.250491
230 0.285638
235 0.231823
240 0.259615
245 0.278268
250 0.215805
255 0.301288
260 0.269417
265 0.226707
270 0.32052
275 0.27959
280 0.270894
285 0.264088
290 0.242459
295 0.336007
300 0.287783
305 0.272018
310 0.260473
315 0.255102
320 0.357764
325 0.28061
330 0.339265
335 0.307067
340 0.322311
345 0.398136
350 0.330748
355 0.382654
360 0.368235
365 0.33619
370 0.339864
375 0.314572
380 0.351909
385 0.378403
390 0.494626
395 0.476033
400 0.480636
405 0.590331
410 0.605529
415 0.741404
420 0.87687
425 1.59128
430 42.6705
435 713.405
440 1064.12
445 258.666
450 31.9275
455 5.71394
460 2.55576
465 2.31335
470 2.2473
475 2.28122
480 2.0687
485 2.09214
490 2.17331
495 2.37506
500 3.62412
505 4.57263
510 3.30537
515 2.78015
520 2.48994
525 2.25473
530 2.14495
535 1.75095
540 1.76303
545 1.66648
550 1.52924
555 1.44683
560 1.31469
565 1.222
570 0.97946
575 0.995478
580 0.806148
585 0.758103
590 0.650164
595 0.541353
600 0.85002
Ex : 448
200 0.348403
205 0.305668
210 0.309219
215 0.290898
220 0.217653
225 0.31205
230 0.292299
235 0.222866
240 0.304893
245 0.273373
250 0.238053
255 0.289971
260 0.264653
265 0.257639
270 0.297838
275 0.359893
280 0.275734
285 0.358248
290 0.26168
295 0.239492
300 0.355612
305 0.248477
310 0.278784
315 0.238912
320 0.335046
325 0.275199
330 0.276641
335 0.316145
340 0.342535
345 0.367591
350 0.29281
355 0.324442
360 0.287496
365 0.424654
370 0.436011
375 0.340168
380 0.386814
385 0.4765
390 0.426056
395 0.402205
400 0.45408
405 0.505851
410 0.530568
415 0.642787
420 0.788854
425 0.931008
430 1.5922
435 42.8939
440 740.072
445 1097.34
450 266.829
455 32.6901
460 5.86156
465 2.59381
470 2.153
475 2.47077
480 2.28102
485 2.02086
490 1.96705
495 2.01533
500 2.0594
505 2.77205
510 4.38645
515 3.59658
520 2.64166
525 2.4477
530 2.14846
535 1.83933
540 1.73001
545 1.69926
550 1.55576
555 1.41449
560 1.39981
565 1.19068
570 1.08041
575 0.978064
580 0.824934
585 0.716833
590 0.720906
595 0.596421
600 0.439406
Ex : 453
200 0.25123
205 0.193204
210 0.290737
215 0.296622
220 0.249249
225 0.309235
230 0.271219
235 0.229298
240 0.276885
245 0.260095
250 0.254988
255 0.242568
260 0.306138
265 0.248436
270 0.254067
275 0.269519
280 0.258995
285 0.29508
290 0.235949
295 0.193446
300 0.218488
305 0.318429
310 0.275806
315 0.29831
320 0.336189
325 0.345434
330 0.245995
335 0.278028
340 0.252743
345 0.325587
350 0.331945
355 0.269327
360 0.34515
365 0.372812
370 0.352803
375 0.338448
380 0.285173
385 0.364881
390 0.41353
395 0.386461
400 0.325462
405 0.409551
410 0.513297
415 0.55878
420 0.606487
425 0.813609
430 0.982061
435 1.49651
440 44.9295
445 777.83
450 1112.61
455 256.069
460 31.6906
465 5.79166
470 2.49157
475 2.09478
480 2.28017
485 2.15427
490 1.95222
495 1.93782
500 1.84408
505 1.90591
510 2.50055
515 3.82203
520 3.65408
525 2.64987
530 2.34742
535 2.27745
540 1.73757
545 1.63427
550 1.52135
555 1.42146
560 1.27641
565 1.12173
570 1.03564
575 0.976054
580 0.855869
585 0.772529
590 0.751843
595 0.615594
600 0.810461
Ex : 458
200 0.277995
205 0.239486
210 0.245869
215 0.225143
220 0.253763
225 0.234764
230 0.252733
235 0.234022
240 0.24022
245 0.196035
250 0.247983
255 0.286503
260 0.272666
265 0.205301
270 0.289688
275 0.315121
280 0.324195
285 0.330959
290 0.263637
295 0.292996
300 0.251301
305 0.272688
310 0.265898
315 0.346193
320 0.253092
325 0.321245
330 0.363664
335 0.317064
340 0.24312
345 0.277815
350 0.248853
355 0.330967
360 0.403815
365 0.380349
370 0.300878
375 0.324503
380 0.385125
385 0.360701
390 0.349495
395 0.317631
400 0.409499
405 0.413881
410 0.446832
415 0.510287
420 0.530065
425 0.679846
430 0.82683
435 1.05792
440 1.57168
445 48.7194
450 789.877
455 1156.18
460 274.188
465 33.8676
470 5.91239
475 2.48191
480 2.05169
485 2.31271
490 2.15199
495 1.90304
500 1.8974
505 1.79608
510 1.91503
515 2.116
520 3.28094
525 3.94357
530 2.94928
535 2.27543
540 2.20386
545 1.76234
550 1.44737
555 1.38869
560 1.35049
565 1.2318
570 1.07519
575 0.978532
580 0.927637
585 0.821309
590 0.67221
595 0.511919
600 0.44356
Ex : 463
200 0.290713
205 0.286855
210 0.294665
215 0.234676
220 0.184039
225 0.219726
230 0.273605
235 0.322763
240 0.279022
245 0.245285
250 0.258604
255 0.265308
260 0.357993
265 0.262056
270 0.266204
275 0.279086
280 0.273336
285 0.268341
290 0.277303
295 0.322424
300 0.270377
305 0.26692
310 0.320415
315 0.274785
320 0.354306
325 0.269899
330 0.260515
335 0.282638
340 0.262018
345 0.301708
350 0.335566
355 0.341326
360 0.363906
365 0.361902
370 0.335717
375 0.343968
380 0.386151
385 0.387728
390 0.344041
395 0.39083
400 0.335603
405 0.381714
410 0.408494
415 0.436519
420 0.497055
425 0.504321
430 0.706499
435 0.660834
440 0.941818
445 1.59784
450 46.6801
455 807.291
460 1199.16
465 283.631
470 34.9417
475 5.97636
480 2.47605
485 1.96094
490 2.19385
495 1.98132
500 1.8301
505 1.61595
510 1.66009
515 1.75686
520 1.94595
525 2.51738
530 3.75049
535 3.31686
540 2.30217
545 1.99979
550 1.72419
555 1.55575
560 1.3711
565 1.13858
570 1.09898
575 1.04916
580 0.830653
585 0.634596
590 0.682708
595 0.577524
600 0.625868
Ex : 468
200 0.212676
205 0.288038
210 0.26132
215 0.251648
220 0.246805
225 0.243601
230 0.243759
235 0.286508
240 0.202474
245 0.218308
250 0.267244
255 0.248206
260 0.260293
265 0.196118
270 0.256938
275 0.260591
280 0.257003
285 0.213341
290 0.214272
295 0.276155
300 0.247392
305 0.219099
310 0.24241
315 0.226048
320 0.233173
325 0.260561
330 0.234909
335 0.293866
340 0.272182
345 0.257741
350 0.253813
355 0.291362
360 0.307817
365 0.314287
370 0.329247
375 0.254268
380 0.342393
385 0.359626
390 0.323155
395 0.29558
400 0.28091
405 0.350317
410 0.407049
415 0.362564
420 0.38783
425 0.464003
430 0.495754
435 0.592801
440 0.75919
445 0.964184
450 1.46269
455 50.318
460 806.251
465 1241.32
470 294.203
475 35.8217
480 6.04359
485 2.3313
490 1.84686
495 1.94032
500 2.11868
505 1.83246
510 1.7016
515 1.74005
520 1.73723
525 1.97948
530 2.38663
535 3.40554
540 3.3754
545 2.17316
550 2.0161
555 1.75124
560 1.58551
565 1.29499
570 1.20756
575 1.01393
580 0.807386
585 0.712316
590 0.656169
595 0.576361
600 0.718975
Ex : 473
200 0.243968
205 0.229353
210 0.228116
215 0.329427
220 0.31892
225 0.264426
230 0.26722
235 0.285736
240 0.26727
245 0.25962
250 0.283503
255 0.231239
260 0.292381
265 0.287956
270 0.268732
275 0.216372
280 0.230053
285 0.280086
290 0.273222
295 0.2869
300 0.222274
305 0.293827
310 0.245559
315 0.25738
320 0.278789
325 0.256943
330 0.260515
335 0.29605
340 0.29215
345 0.233524
350 0.266877
355 0.32479
360 0.388589
365 0.349162
370 0.292103
375 0.31027
380 0.336731
385 0.365755
390 0.355313
395 0.353519
400 0.424962
405 0.333322
410 0.433654
415 0.364585
420 0.440213
425 0.491053
430 0.543577
435 0.526959
440 0.656554
445 0.750326
450 1.02755
455 1.6013
460 58.0431
465 875.391
470 1199.21
475 272.534
480 33.386
485 5.59872
490 2.30669
495 1.76445
500 1.86369
505 2.03688
510 1.73147
515 1.68047
520 1.72131
525 1.77849
530 1.90296
535 1.8709
540 2.63506
545 3.36987
550 2.36977
555 1.69424
560 1.64291
565 1.48069
570 1.09648
575 0.932098
580 0.880794
585 0.806152
590 0.653875
595 0.599773
600 0.2749
Ex : 478
200 0.268618
205 0.279754
210 0.274439
215 0.338828
220 0.303619
225 0.325681
230 0.305139
235 0.356675
240 0.325095
245 0.273067
250 0.285936
255 0.308631
260 0.320603
265 0.294704
270 0.328937
275 0.308274
280 0.255106
285 0.23689
290 0.298892
295 0.312307
300 0.229764
305 0.322733
310 0.355293
315 0.263673
320 0.291204
325 0.30606
330 0.287098
335 0.338781
340 0.339234
345 0.365617
350 0.334578
355 0.404026
360 0.317043
365 0.360937
370 0.385179
375 0.387728
380 0.354994
385 0.372587
390 0.323831
395 0.374338
400 0.351847
405 0.380457
410 0.414057
415 0.453828
420 0.484441
425 0.501573
430 0.508463
435 0.524119
440 0.60569
445 0.779734
450 0.902823
455 1.08409
460 1.8243
465 62.3686
470 885.601
475 1211.8
480 286.47
485 35.0111
490 5.98506
495 2.38553
500 1.79008
505 1.75035
510 2.09579
515 1.8359
520 1.74583
525 1.63854
530 1.81555
535 1.77409
540 1.80225
545 2.42757
550 3.06867
555 2.53425
560 1.92437
565 1.58337
570 1.50871
575 1.13856
580 0.913516
585 0.919396
590 0.713173
595 0.632287
600 0.563925
Ex : 483
200 0.315599
205 0.296267
210 0.30294
215 0.276326
220 0.292987
225 0.346128
230 0.369895
235 0.324682
240 0.380862
245 0.339488
250 0.303053
255 0.322123
260 0.286206
265 0.313849
270 0.294126
275 0.304765
280 0.288323
285 0.292981
290 0.295636
295 0.301906
300 0.284321
305 0.333713
310 0.271171
315 0.364148
320 0.323536
325 0.291256
330 0.260344
335 0.331422
340 0.270566
345 0.32596
350 0.394482
355 0.382573
360 0.361282
365 0.375945
370 0.309341
375 0.364317
380 0.322932
385 0.357021
390 0.392075
395 0.346062
400 0.42044
405 0.463608
410 0.490682
415 0.406375
420 0.473189
425 0.422133
430 0.423722
435 0.497261
440 0.500111
445 0.569353
450 0.665373
455 0.851136
460 1.14486
465 1.94719
470 47.7276
475 864.541
480 1282.99
485 300.58
490 36.4998
495 5.97607
500 2.38669
505 1.70107
510 1.70265
515 1.83969
520 2.04579
525 1.8346
530 1.62373
535 1.62976
540 1.61612
545 1.70723
550 1.77536
555 2.75712
560 2.8314
565 1.92254
570 1.42732
575 1.37923
580 0.992109
585 0.790724
590 0.74336
595 0.722986
600 0.152657
Ex : 488
200 0.32626
205 0.314981
210 0.349611
215 0.342096
220 0.305679
225 0.347109
230 0.292921
235 0.352425
240 0.333389
245 0.260156
250 0.417957
255 0.383956
260 0.245871
265 0.427933
270 0.31376
275 0.403808
280 0.317204
285 0.332984
290 0.354778
295 0.28806
300 0.308687
305 0.352915
310 0.313979
315 0.285157
320 0.31073
325 0.287098
330 0.32582
335 0.438529
340 0.400351
345 0.419686
350 0.396202
355 0.462875
360 0.438606
365 0.379331
370 0.479119
375 0.43752
380 0.456441
385 0.383291
390 0.419342
395 0.405511
400 0.374486
405 0.431848
410 0.493315
415 0.468836
420 0.458305
425 0.480895
430 0.431707
435 0.524517
440 0.509348
445 0.520296
450 0.633991
455 0.858851
460 0.969336
465 1.34546
470 1.92327
475 57.7748
480 918.55
485 1260.86
490 290.544
495 35.3681
500 5.92383
505 2.21497
510 1.63632
515 1.76801
520 1.90692
525 1.92653
530 1.83614
535 1.62816
540 1.64749
545 1.57766
550 1.55009
555 1.54176
560 2.18245
565 2.68244
570 1.91951
575 1.30072
580 1.11571
585 1.00186
590 0.798642
595 0.616228
600 0.581121
Ex : 493
200 0.302414
205 0.310206
210 0.316196
215 0.295812
220 0.311273
225 0.27159
230 0.340652
235 0.312066
240 0.325289
245 0.334905
250 0.327444
255 0.33374
260 0.331827
265 0.355806
270 0.291281
275 0.312012
280 0.249123
285 0.325882
290 0.317997
295 0.292612
300 0.313044
305 0.371144
310 0.395764
315 0.388247
320 0.300745
325 0.295309
330 0.317404
335 0.366959
340 0.395679
345 0.303673
350 0.309753
355 0.382743
360 0.360732
365 0.340259
370 0.377505
375 0.366823
380 0.356982
385 0.379908
390 0.416828
395 0.389691
400 0.430039
405 0.384918
410 0.471292
415 0.373976
420 0.409206
425 0.421138
430 0.529218
435 0.566491
440 0.556499
445 0.547204
450 0.638859
455 0.678781
460 0.828838
465 0.971622
470 1.25817
475 1.83505
480 53.5262
485 901.534
490 1304.4
495 294.851
500 35.8054
505 5.91754
510 2.54468
515 1.82898
520 2.04695
525 2.1534
530 2.0828
535 1.96098
540 1.69483
545 1.76578
550 1.69412
555 1.65359
560 1.43871
565 1.68806
570 2.55109
575 2.0841
580 1.2401
585 0.99647
590 0.968515
595 0.803331
600 0.598325
Ex : 498
200 0.356253
205 0.31459
210 0.378931
215 0.332925
220 0.3743
225 0.402093
230 0.34005
235 0.441878
240 0.341448
245 0.338145
250 0.353703
255 0.343182
260 0.406262
265 0.339957
270 0.338813
275 0.390811
280 0.38987
285 0.396909
290 0.363148
295 0.337323
300 0.360427
305 0.358481
310 0.443905
315 0.329368
320 0.403542
325 0.392294
330 0.36701
335 0.43806
340 0.471012
345 0.479713
350 0.414418
355 0.519643
360 0.331942
365 0.366884
370 0.366237
375 0.490742
380 0.488347
385 0.485806
390 0.442416
395 0.448673
400 0.561316
405 0.499499
410 0.435913
415 0.436147
420 0.420449
425 0.494382
430 0.58072
435 0.474664
440 0.564798
445 0.548534
450 0.692634
455 0.620477
460 0.897984
465 0.889945
470 0.991273
475 1.36079
480 2.02335
485 62.2315
490 938.005
495 1253.02
500 283.17
505 34.4714
510 5.71252
515 2.39044
520 1.91245
525 1.73328
530 2.06256
535 1.95014
540 1.88666
545 1.58968
550 1.36815
555 1.30868
560 1.41474
565 1.27925
570 1.34741
575 1.83586
580 1.89311
585 1.30302
590 1.02814
595 0.76018
600 0.587231
Ex : 503
200 0.272379
205 0.407973
210 0.320908
215 0.415132
220 0.468139
225 0.347568
230 0.330443
235 0.44959
240 0.323153
245 0.356697
250 0.360158
255 0.457315
260 0.337668
265 0.345588
270 0.413117
275 0.428684
280 0.491534
285 0.31375
290 0.298487
295 0.356505
300 0.37602
305 0.378591
310 0.364784
315 0.410804
320 0.43573
325 0.449929
330 0.443822
335 0.369679
340 0.416543
345 0.451417
350 0.415454
355 0.43849
360 0.411565
365 0.367942
370 0.473621
375 0.454829
380 0.370346
385 0.460984
390 0.513328
395 0.475824
400 0.43323
405 0.430764
410 0.510847
415 0.54098
420 0.46501
425 0.526473
430 0.559952
435 0.537762
440 0.52589
445 0.527449
450 0.57052
455 0.581315
460 0.627821
465 0.741905
470 0.788141
475 1.10642
480 1.35367
485 2.01789
490 56.6248
495 914.892
500 1278.39
505 287.868
510 35.1763
515 5.98375
520 2.54066
525 1.87612
530 1.84716
535 1.97615
540 1.99238
545 1.56002
550 1.5809
555 1.45832
560 1.33576
565 1.38577
570 1.21053
575 1.14169
580 1.34303
585 1.66008
590 1.30058
595 0.904984
600 1.08488
Ex : 508
200 0.288915
205 0.352444
210 0.43188
215 0.411045
220 0.302214
225 0.429728
230 0.476808
235 0.366042
240 0.440368
245 0.393145
250 0.463987
255 0.459085
260 0.395666
265 0.402636
270 0.436971
275 0.402853
280 0.393585
285 0.366127
290 0.390288
295 0.358758
300 0.327317
305 0.313978
310 0.386038
315 0.408389
320 0.28885
325 0.341936
330 0.369388
335 0.445659
340 0.414386
345 0.449082
350 0.530874
355 0.496796
360 0.407288
365 0.415002
370 0.471443
375 0.405079
380 0.402701
385 0.400017
390 0.507847
395 0.614557
400 0.397701
405 0.413798
410 0.42037
415 0.51715
420 0.609255
425 0.583522
430 0.503012
435 0.61806
440 0.5326
445 0.497934
450 0.582183
455 0.584369
460 0.75184
465 0.712269
470 0.702133
475 0.938055
480 1.09237
485 1.44506
490 1.96711
495 60.943
500 916.382
505 1261.5
510 297.704
515 36.2045
520 5.93293
525 2.62905
530 1.9924
535 1.6373
540 1.83692
545 1.70239
550 1.59092
555 1.50451
560 1.29548
565 1.23348
570 1.12284
575 1.04174
580 0.930639
585 1.0098
590 1.33464
595 1.19559
600 0.931476
Ex : 513
200 0.469832
205 0.366844
210 0.40683
215 0.420245
220 0.399387
225 0.478873
230 0.405976
235 0.438859
240 0.447573
245 0.385153
250 0.436669
255 0.462802
260 0.444586
265 0.448838
270 0.307209
275 0.420424
280 0.404344
285 0.386778
290 0.371416
295 0.361944
300 0.411484
305 0.364051
310 0.419189
315 0.35195
320 0.420937
325 0.380322
330 0.40795
335 0.362932
340 0.53726
345 0.43073
350 0.374748
355 0.366357
360 0.328176
365 0.488688
370 0.45684
375 0.506329
380 0.485764
385 0.466031
390 0.47636
395 0.454014
400 0.469833
405 0.525166
410 0.458065
415 0.503613
420 0.55091
425 0.49001
430 0.570694
435 0.526017
440 0.521862
445 0.619936
450 0.55612
455 0.629578
460 0.694243
465 0.626872
470 0.644698
475 0.731245
480 0.950659
485 0.963841
490 1.40021
495 1.89171
500 54.8019
505 887.863
510 1262.45
515 301.346
520 36.786
525 6.21361
530 2.53958
535 1.84243
540 1.65575
545 1.80348
550 1.91783
555 1.66565
560 1.52298
565 1.21038
570 1.31098
575 1.04863
580 0.902524
585 0.907312
590 0.784175
595 1.21381
600 0.54749
Ex : 518
200 0.41836
205 0.442657
210 0.376368
215 0.363866
220 0.381753
225 0.398434
230 0.504097
235 0.360011
240 0.425056
245 0.401771
250 0.53112
255 0.5067
260 0.441009
265 0.366122
270 0.337434
275 0.483771
280 0.433224
285 0.542016
290 0.352046
295 0.395848
300 0.334598
305 0.48344
310 0.420672
315 0.328585
320 0.378743
325 0.432094
330 0.427274
335 0.407986
340 0.492071
345 0.458293
350 0.446328
355 0.452277
360 0.570388
365 0.497148
370 0.48092
375 0.546806
380 0.476117
385 0.421455
390 0.520124
395 0.521969
400 0.505141
405 0.482879
410 0.460284
415 0.49653
420 0.423125
425 0.475454
430 0.454898
435 0.486741
440 0.503674
445 0.517759
450 0.55734
455 0.557929
460 0.58254
465 0.67794
470 0.644764
475 0.699836
480 0.744761
485 0.887342
490 1.02361
495 1.25035
500 1.90498
505 55.4372
510 843.359
515 1240.14
520 298.193
525 36.5849
530 6.0952
535 2.28499
540 1.86957
545 1.69384
550 1.47122
555 1.61207
560 1.45593
565 1.30317
570 1.26202
575 0.915804
580 0.898496
585 0.953592
590 0.920581
595 0.790423
600 0.631771
Ex : 523
200 0.326672
205 0.416518
210 0.407118
215 0.462857
220 0.359259
225 0.512658
230 0.45995
235 0.464013
240 0.497392
245 0.416149
250 0.335447
255 0.451262
260 0.378159
265 0.390008
270 0.428041
275 0.474174
280 0.506078
285 0.527318
290 0.460773
295 0.53432
300 0.462206
305 0.374136
310 0.513663
315 0.459041
320 0.369244
325 0.397231
330 0.381576
335 0.421502
340 0.459308
345 0.453063
350 0.427564
355 0.523702
360 0.579495
365 0.534503
370 0.541851
375 0.416576
380 0.491135
385 0.514578
390 0.540261
395 0.550028
400 0.48791
405 0.611126
410 0.498706
415 0.585451
420 0.456105
425 0.495177
430 0.57484
435 0.484949
440 0.605563
445 0.686834
450 0.548698
455 0.600232
460 0.649989
465 0.77198
470 0.616293
475 0.759643
480 0.646116
485 0.700538
490 0.951557
495 1.07664
500 1.2804
505 1.86871
510 49.961
515 816.374
520 1213.52
525 304.572
530 36.9971
535 6.04616
540 2.47737
545 1.6476
550 1.48489
555 1.44315
560 1.31347
565 1.29834
570 1.25829
575 1.10758
580 0.902263
585 0.871595
590 0.899251
595 0.700516
600 0.919031
Ex : 528
200 0.418744
205 0.40343
210 0.403179
215 0.459664
220 0.445709
225 0.545436
230 0.537498
235 0.446394
240 0.561472
245 0.528118
250 0.447599
255 0.376796
260 0.465986
265 0.391919
270 0.444927
275 0.418268
280 0.503356
285 0.421546
290 0.297167
295 0.406281
300 0.398927
305 0.383951
310 0.471116
315 0.485315
320 0.444701
325 0.408475
330 0.568742
335 0.40021
340 0.345369
345 0.43053
350 0.48474
355 0.464705
360 0.494805
365 0.4529
370 0.500465
375 0.332893
380 0.426659
385 0.404735
390 0.583844
395 0.490787
400 0.513733
405 0.517403
410 0.47579
415 0.660924
420 0.642104
425 0.612718
430 0.480612
435 0.412227
440 0.48255
445 0.571855
450 0.518652
455 0.512186
460 0.721908
465 0.615669
470 0.530915
475 0.740518
480 0.713461
485 0.728551
490 0.889288
495 0.885283
500 0.990004
505 1.42878
510 1.83784
515 44.9493
520 786.004
525 1195.43
530 296.644
535 36.1804
540 5.88585
545 2.22194
550 1.62163
555 1.34615
560 1.22902
565 1.40794
570 1.24395
575 1.07625
580 0.921534
585 0.837398
590 0.935404
595 0.674895
600 0.0989556
Ex : 533
200 0.430109
205 0.445183
210 0.383775
215 0.400021
220 0.569775
225 0.535938
230 0.510472
235 0.51744
240 0.428246
245 0.507801
250 0.436403
255 0.461339
260 0.383299
265 0.430537
270 0.411326
275 0.416655
280 0.344963
285 0.444761
290 0.543083
295 0.346626
300 0.511301
305 0.463906
310 0.450443
315 0.520981
320 0.434237
325 0.467304
330 0.331157
335 0.495923
340 0.537701
345 0.626698
350 0.598807
355 0.542055
360 0.493768
365 0.565388
370 0.508534
375 0.567668
380 0.523578
385 0.486276
390 0.499958
395 0.557749
400 0.582607
405 0.495122
410 0.487578
415 0.62218
420 0.583841
425 0.646015
430 0.692885
435 0.611596
440 0.554716
445 0.486152
450 0.55503
455 0.585117
460 0.524704
465 0.545232
470 0.600262
475 0.586351
480 0.753902
485 0.710068
490 0.736623
495 0.647352
500 0.889279
505 0.880685
510 1.32528
515 1.9042
520 45.5905
525 754.049
530 1155.65
535 292.304
540 35.5447
545 5.77407
550 2.10492
555 1.6325
560 1.31511
565 1.28261
570 1.16133
575 1.15559
580 0.918588
585 0.809044
590 0.709668
595 0.781358
600 0.71537
Ex : 538
200 0.425046
205 0.314936
210 0.427961
215 0.490924
220 0.497589
225 0.485549
230 0.57877
235 0.524373
240 0.493787
245 0.445517
250 0.447724
255 0.451806
260 0.444904
265 0.427397
270 0.526829
275 0.415536
280 0.509719
285 0.372504
290 0.512119
295 0.311532
300 0.488901
305 0.457838
310 0.460886
315 0.409121
320 0.340614
325 0.431453
330 0.477784
335 0.549958
340 0.471397
345 0.431668
350 0.451372
355 0.464993
360 0.470999
365 0.422556
370 0.376611
375 0.475158
380 0.5138
385 0.516919
390 0.500485
395 0.46994
400 0.61554
405 0.524926
410 0.586622
415 0.614892
420 0.516586
425 0.543119
430 0.634462
435 0.576729
440 0.550671
445 0.538905
450 0.599746
455 0.494499
460 0.530684
465 0.66105
470 0.869308
475 0.603564
480 0.545995
485 0.761088
490 0.700993
495 0.70903
500 0.804751
505 0.853607
510 0.953322
515 1.20567
520 1.74352
525 38.5628
530 715.252
535 1144.54
540 298.344
545 36.3011
550 5.75869
555 2.05296
560 1.4254
565 1.19088
570 0.943615
575 1.02397
580 1.06991
585 0.933306
590 0.854193
595 0.740512
600 0.912789
Ex : 543
200 0.444911
205 0.42516
210 0.531496
215 0.473562
220 0.488035
225 0.549927
230 0.47569
235 0.653834
240 0.439501
245 0.496017
250 0.551088
255 0.562023
260 0.504228
265 0.413512
270 0.47155
275 0.534827
280 0.51683
285 0.509436
290 0.578712
295 0.511091
300 0.540454
305 0.40957
310 0.449874
315 0.390371
320 0.466989
325 0.613174
330 0.418502
335 0.5047
340 0.46467
345 0.489509
350 0.615215
355 0.610211
360 0.497937
365 0.446085
370 0.469878
375 0.465272
380 0.54693
385 0.58681
390 0.569157
395 0.574051
400 0.525138
405 0.513611
410 0.518913
415 0.47693
420 0.628595
425 0.548113
430 0.462758
435 0.54551
440 0.536063
445 0.693838
450 0.692332
455 0.808229
460 0.78428
465 0.679102
470 0.703943
475 0.733941
480 0.699976
485 0.630792
490 0.649206
495 0.65456
500 0.669648
505 0.926784
510 0.860579
515 1.0784
520 1.20491
525 1.79524
530 34.0631
535 673.349
540 1124.44
545 302.891
550 36.8553
555 5.57631
560 1.9156
565 1.31169
570 1.06713
575 1.03608
580 1.05919
585 0.828977
590 0.68723
595 0.834469
600 1.1584
Ex : 548
200 0.472169
205 0.500417
210 0.420074
215 0.616063
220 0.46772
225 0.613142
230 0.475304
235 0.502493
240 0.538143
245 0.625924
250 0.462313
255 0.45973
260 0.622408
265 0.520891
270 0.451877
275 0.492076
280 0.41689
285 0.461366
290 0.41107
295 0.589167
300 0.595751
305 0.454672
310 0.404977
315 0.530584
320 0.543083
325 0.385333
330 0.514047
335 0.567329
340 0.492732
345 0.387299
350 0.535702
355 0.527706
360 0.542064
365 0.520884
370 0.522189
375 0.567272
380 0.536328
385 0.541418
390 0.593413
395 0.51189
400 0.449411
405 0.540591
410 0.578237
415 0.597761
420 0.573835
425 0.461125
430 0.496847
435 0.554498
440 0.515499
445 0.572636
450 0.574455
455 0.813655
460 0.711316
465 0.838554
470 0.557763
475 0.590436
480 0.660975
485 0.689902
490 0.662229
495 0.7912
500 0.711924
505 0.760758
510 0.668755
515 0.853948
520 1.25903
525 1.34146
530 1.59216
535 37.3091
540 667.441
545 1086.67
550 293.349
555 35.4242
560 5.45878
565 1.82323
570 1.21671
575 1.02919
580 0.953593
585 0.771708
590 0.881338
595 0.755244
600 0.68232
Ex : 553
200 0.461853
205 0.577973
210 0.584265
215 0.446566
220 0.506254
225 0.476122
230 0.594378
235 0.491975
240 0.469969
245 0.423421
250 0.594442
255 0.51457
260 0.483113
265 0.421837
270 0.452306
275 0.469414
280 0.466486
285 0.460241
290 0.424921
295 0.469696
300 0.457355
305 0.628598
310 0.513883
315 0.461739
320 0.375638
325 0.525483
330 0.574638
335 0.589213
340 0.546678
345 0.70731
350 0.69519
355 0.597126
360 0.621299
365 0.539972
370 0.470453
375 0.520457
380 0.45104
385 0.616569
390 0.68551
395 0.628918
400 0.692172
405 0.540859
410 0.601304
415 0.561022
420 0.567853
425 0.626042
430 0.598873
435 0.524687
440 0.664256
445 0.655573
450 0.539543
455 0.555659
460 0.531818
465 0.652642
470 0.638627
475 0.654133
480 0.667481
485 0.674965
490 0.690587
495 0.603851
500 0.62261
505 0.650281
510 0.663842
515 0.84778
520 0.767895
525 0.963956
530 1.23414
535 1.64044
540 31.7204
545 619.275
550 1043.18
555 285.195
560 34.5736
565 5.17714
570 1.58622
575 1.1697
580 1.00209
585 1.0297
590 0.80299
595 0.827864
600 1.79845
Ex : 558
200 0.592211
205 0.433956
210 0.496446
215 0.448963
220 0.464888
225 0.428432
230 0.52953
235 0.672195
240 0.5191
245 0.464193
250 0.563066
255 0.469487
260 0.439296
265 0.597993
270 0.521647
275 0.538459
280 0.465781
285 0.517145
290 0.443468
295 0.408021
300 0.542626
305 0.467673
310 0.492226
315 0.45384
320 0.424238
325 0.609871
330 0.531215
335 0.549827
340 0.67302
345 0.581344
350 0.422901
355 0.602232
360 0.550133
365 0.661141
370 0.516636
375 0.67329
380 0.537234
385 0.70346
390 0.579758
395 0.611134
400 0.522935
405 0.629827
410 0.540058
415 0.49742
420 0.573628
425 0.540485
430 0.497388
435 0.586733
440 0.537351
445 0.547181
450 0.645177
455 0.646304
460 0.609889
465 0.698615
470 0.613097
475 0.608058
480 0.739968
485 0.644055
490 0.662297
495 0.835478
500 0.751801
505 0.648226
510 0.618294
515 0.710838
520 0.691762
525 1.04678
530 0.963611
535 1.19203
540 1.45835
545 29.5756
550 587.568
555 1024.52
560 286.587
565 34.9987
570 5.19809
575 1.57165
580 1.01696
585 0.889041
590 0.781094
595 0.721076
600 0.627863
Ex : 563
200 0.479115
205 0.6442
210 0.675803
215 0.552863
220 0.498874
225 0.559659
230 0.421117
235 0.618168
240 0.538332
245 0.576098
250 0.586837
255 0.454659
260 0.545748
265 0.614737
270 0.527883
275 0.582118
280 0.518937
285 0.523755
290 0.503512
295 0.479244
300 0.432943
305 0.582404
310 0.455348
315 0.441099
320 0.450138
325 0.595452
330 0.585815
335 0.501297
340 0.538624
345 0.571439
350 0.580341
355 0.578775
360 0.437313
365 0.565875
370 0.457529
375 0.710242
380 0.726354
385 0.548133
390 0.535203
395 0.64586
400 0.577996
405 0.666885
410 0.601789
415 0.67195
420 0.670479
425 0.620404
430 0.55037
435 0.585712
440 0.574156
445 0.691665
450 0.639425
455 0.702104
460 0.642993
465 0.644312
470 0.672378
475 0.66907
480 0.597796
485 0.707388
490 0.666959
495 0.544014
500 0.739635
505 0.618091
510 0.514172
515 0.763886
520 0.848034
525 0.893983
530 0.929051
535 0.874206
540 1.19243
545 1.64937
550 28.3934
555 563.48
560 965.577
565 272.73
570 33.2353
575 4.88367
580 1.75427
585 1.22027
590 0.822669
595 0.828071
600 0.986589
Ex : 568
200 0.543866
205 0.515574
210 0.44571
215 0.54235
220 0.678946
225 0.537792
230 0.469023
235 0.579613
240 0.731062
245 0.418811
250 0.522239
255 0.405588
260 0.689511
265 0.581989
270 0.526897
275 0.471282
280 0.636881
285 0.527814
290 0.503692
295 0.501775
300 0.557736
305 0.516165
310 0.652462
315 0.548465
320 0.559921
325 0.513025
330 0.524539
335 0.694376
340 0.652648
345 0.497936
350 0.581419
355 0.571355
360 0.536967
365 0.591042
370 0.670986
375 0.451276
380 0.622312
385 0.504266
390 0.635652
395 0.623271
400 0.804357
405 0.733795
410 0.63812
415 0.554841
420 0.717104
425 0.687985
430 0.648699
435 0.566982
440 0.648406
445 0.520049
450 0.582304
455 0.565187
460 0.548595
465 0.665137
470 0.574406
475 0.753059
480 0.676548
485 0.702384
490 0.615092
495 0.625722
500 0.760759
505 0.639322
510 0.672905
515 0.663352
520 0.747301
525 0.813995
530 0.721081
535 0.762783
540 1.03033
545 1.07123
550 1.50778
555 21.7001
560 505.065
565 923.394
570 273.785
575 33.3834
580 4.90051
585 1.3974
590 0.982839
595 0.888832
600 1.03073
Ex : 573
200 0.40083
205 0.662926
210 0.527882
215 0.565145
220 0.584874
225 0.566254
230 0.549385
235 0.556442
240 0.568389
245 0.660831
250 0.627402
255 0.579173
260 0.581799
265 0.507143
270 0.429044
275 0.596458
280 0.567848
285 0.549999
290 0.575482
295 0.545013
300 0.475095
305 0.51207
310 0.553106
315 0.48886
320 0.585709
325 0.460261
330 0.524178
335 0.611536
340 0.51834
345 0.464075
350 0.62992
355 0.696881
360 0.574612
365 0.578797
370 0.618191
375 0.652923
380 0.724648
385 0.518422
390 0.59541
395 0.61714
400 0.61801
405 0.584107
410 0.60727
415 0.49251
420 0.722633
425 0.609211
430 0.766761
435 0.612187
440 0.71579
445 0.716083
450 0.76075
455 0.713363
460 0.718122
465 0.733058
470 0.822855
475 0.715513
480 0.704215
485 0.609179
490 0.724268
495 0.719475
500 0.662081
505 0.659916
510 0.665173
515 0.711324
520 0.558385
525 0.702712
530 0.661561
535 0.828665
540 0.950931
545 0.999429
550 1.41685
555 1.49518
560 19.0541
565 432.109
570 843.95
575 258.838
580 31.5456
585 4.68194
590 1.34054
595 1.01552
600 0.463479
Ex : 578
200 0.619793
205 0.505996
210 0.494174
215 0.490288
220 0.578114
225 0.54153
230 0.454832
235 0.518316
240 0.553458
245 0.593392
250 0.49548
255 0.536224
260 0.508365
265 0.475673
270 0.657827
275 0.605531
280 0.602198
285 0.484517
290 0.664713
295 0.652019
300 0.587237
305 0.588112
310 0.630727
315 0.601741
320 0.448209
325 0.49884
330 0.562548
335 0.525641
340 0.52587
345 0.652893
350 0.634047
355 0.523275
360 0.451193
365 0.485439
370 0.607938
375 0.598975
380 0.655471
385 0.636589
390 0.610084
395 0.618577
400 0.559915
405 0.553676
410 0.569867
415 0.721212
420 0.713602
425 0.680507
430 0.551533
435 0.558032
440 0.561118
445 0.846883
450 0.675153
455 0.650633
460 0.60316
465 0.713993
470 0.666594
475 0.7655
480 0.616461
485 0.730913
490 0.632175
495 0.748562
500 0.791219
505 0.71482
510 0.748286
515 0.714144
520 0.664675
525 0.681624
530 0.710569
535 0.822273
540 0.849788
545 0.95677
550 1.08489
555 1.15787
560 1.55935
565 16.5258
570 386.82
575 737.373
580 222.748
585 27.089
590 4.04629
595 1.30588
600 1.24629
Ex : 583
200 0.546259
205 0.550784
210 0.531438
215 0.5338
220 0.653427
225 0.577552
230 0.607615
235 0.503992
240 0.515597
245 0.622905
250 0.561618
255 0.950444
260 0.612422
265 0.532569
270 0.429428
275 0.574567
280 0.645129
285 0.548885
290 0.604251
295 0.632785
300 0.668941
305 0.494599
310 0.527696
315 0.681468
320 0.616718
325 0.623147
330 0.498162
335 0.476782
340 0.50957
345 0.509449
350 0.758366
355 0.58545
360 0.680643
365 0.684362
370 0.69561
375 0.619131
380 0.533634
385 0.508549
390 0.685219
395 0.519753
400 0.553441
405 0.738811
410 0.732673
415 0.669555
420 0.672324
425 0.57439
430 0.698676
435 0.683707
440 0.564785
445 0.547218
450 0.497428
455 0.529623
460 0.591663
465 0.66415
470 0.581203
475 0.585803
480 0.493732
485 0.56167
490 0.648132
495 0.808535
500 0.59775
505 0.634308
510 0.601886
515 0.66084
520 0.755188
525 0.657479
530 0.639143
535 0.837164
540 0.803599
545 0.779184
550 1.07097
555 0.841378
560 1.02476
565 1.16374
570 13.8847
575 336.829
580 619.44
585 178.576
590 21.7375
595 3.29537
600 1.51539
Ex : 588
200 0.728833
205 0.598387
210 0.75466
215 0.558042
220 0.513165
225 0.562648
230 0.623699
235 0.513907
240 0.608104
245 0.599413
250 0.595539
255 0.573491
260 0.591678
265 0.583516
270 0.586952
275 0.744609
280 0.619626
285 0.692558
290 0.724235
295 0.657979
300 0.649409
305 0.487849
310 0.459217
315 0.473037
320 0.817675
325 0.508558
330 0.508799
335 0.766931
340 0.577984
345 0.573776
350 0.648125
355 0.631021
360 0.525096
365 0.665343
370 0.579733
375 0.664138
380 0.735661
385 0.655729
390 0.668546
395 0.600195
400 0.639835
405 0.664353
410 0.652458
415 0.659087
420 0.501636
425 0.797036
430 0.87424
435 0.974067
440 0.740408
445 0.653897
450 0.556928
455 0.834989
460 0.715123
465 0.727244
470 0.551884
475 0.534876
480 0.724409
485 0.704855
490 0.707456
495 0.595202
500 0.780814
505 0.826334
510 0.651159
515 0.624835
520 0.660658
525 0.646508
530 0.649973
535 0.73284
540 0.654837
545 0.671084
550 0.74136
555 0.788931
560 1.01075
565 1.11601
570 1.38056
575 12.6339
580 280.169
585 518.349
590 157.133
595 19.4881
600 2.79193
Ex : 593
200 0.527567
205 0.573823
210 0.676333
215 0.452821
220 0.538523
225 0.637359
230 0.632917
235 0.550783
240 0.53218
245 0.497594
250 0.563256
255 0.644853
260 0.575724
265 0.60071
270 0.637284
275 0.595409
280 0.579677
285 0.574574
290 0.618457
295 0.711958
300 0.566949
305 0.566824
310 0.605379
315 0.801733
320 0.753153
325 0.694334
330 0.590367
335 0.491127
340 0.557715
345 0.545129
350 0.743797
355 0.636738
360 0.503792
365 0.743973
370 0.542189
375 0.604098
380 0.575451
385 0.573031
390 0.715497
395 0.624957
400 0.533268
405 0.665125
410 0.663937
415 0.738511
420 0.647923
425 0.708136
430 0.708917
435 0.71124
440 0.707981
445 0.676658
450 0.586693
455 0.718677
460 0.556458
465 0.549414
470 0.649058
475 0.741908
480 0.61654
485 0.637615
490 0.545117
495 0.662616
500 0.885035
505 0.660733
510 0.619983
515 0.697392
520 0.617904
525 0.714211
530 0.631084
535 0.586512
540 0.805897
545 0.823766
550 0.77109
555 0.787062
560 1.10367
565 0.905309
570 0.863897
575 1.21649
580 10.1828
585 248.199
590 447.104
595 133.748
600 21.0542
Ex : 598
200 0.638673
205 0.552643
210 0.708356
215 0.627881
220 0.532568
225 0.6135
230 0.723481
235 0.801031
240 0.783903
245 0.543387
250 0.657005
255 0.545823
260 0.802932
265 0.597773
270 0.591146
275 0.532139
280 0.617405
285 0.615297
290 0.664544
295 0.590566
300 0.516104
305 0.641779
310 0.608046
315 0.589985
320 0.478742
325 0.712208
330 0.785533
335 0.689529
340 0.630398
345 0.519222
350 0.568312
355 0.585593
360 0.644532
365 0.540044
370 0.694217
375 0.638599
380 0.692845
385 0.715761
390 0.786091
395 0.560425
400 0.703239
405 0.591775
410 0.693986
415 0.817134
420 0.682038
425 0.691341
430 0.784545
435 0.88733
440 0.774251
445 0.634284
450 0.687993
455 0.804903
460 0.771653
465 0.584033
470 0.775536
475 0.620614
480 0.632048
485 0.65518
490 0.770526
495 0.68552
500 0.693789
505 0.798126
510 0.662622
515 0.743148
520 0.742677
525 0.671074
530 0.711985
535 0.664778
540 0.819595
545 0.61373
550 0.878658
555 0.744636
560 1.05196
565 0.744561
570 1.03307
575 1.23011
580 1.17902
585 10.6473
590 219.397
595 391.169
600 247.286
Ex : 603
200 0.615535
205 0.733619
210 0.668867
215 0.739007
220 0.582501
225 0.620723
230 0.635284
235 0.566236
240 0.791201
245 0.615489
250 0.742635
255 0.583515
260 0.624972
265 0.526361
270 0.584998
275 0.563071
280 0.665512
285 0.637439
290 0.773863
295 0.622689
300 0.700278
305 0.593495
310 0.589615
315 0.708342
320 0.797795
325 0.699192
330 0.653931
335 0.613928
340 0.739308
345 0.699127
350 0.651119
355 0.682446
360 0.789432
365 0.708166
370 0.708216
375 0.697972
380 0.821464
385 0.629342
390 0.611198
395 0.587695
400 0.640326
405 0.897805
410 0.650593
415 0.621884
420 0.627508
425 0.615554
430 0.636392
435 0.772002
440 0.757049
445 0.844638
450 0.583734
455 0.632818
460 0.749068
465 0.743665
470 0.743995
475 0.793196
480 0.668656
485 0.697132
490 0.665646
495 0.553961
500 0.754705
505 0.726887
510 0.719481
515 0.661128
520 0.65554
525 0.745525
530 0.687606
535 0.92581
540 0.714949
545 0.752227
550 0.630987
555 0.860927
560 0.871736
565 0.858888
570 0.78198
575 0.836058
580 0.844359
585 0.954369
590 9.02737
595 188.005
600 387.638
