File format V 1.0
sam. 10. déc. 00:56:35 2016
Operator : 
Comments : 

=============================================
SpectroFluorometer parameters
Mode : 3D measurement
Data : Fluorescence
Phospho. : Ordinary
Spectrum : Fluorescence

Scan speed : 2400 nm/mn
Response : 100 ms
PM Voltage : 700 V
Shutter : On

Lambda Ex. Start : 203
Lambda Ex. End : 603
Lambda Ex. Step : 5
Ex. Slit : 5 nm

Lambda Em. Start : 200
Lambda Em. End : 600
Lambda Em. Step : 5
Em. Slit : 5 nm

Repetition : 1
Decal lambda em : 10
=============================================
DATA
Ex : 203
200 15.2338
205 15.3446
210 11.1973
215 11.1841
220 17.1102
225 13.9056
230 13.8416
235 14.1191
240 13.5326
245 13.8265
250 15.6731
255 10.6456
260 15.1743
265 11.2427
270 13.999
275 15.9362
280 11.455
285 10.5321
290 13.3138
295 14.4859
300 14.9466
305 14.881
310 10.561
315 11.1781
320 16.2554
325 12.1203
330 12.4933
335 16.1595
340 15.0708
345 15.5681
350 13.9608
355 15.2127
360 15.3651
365 14.4687
370 12.234
375 11.685
380 20.4837
385 17.31
390 14.7989
395 12.1109
400 13.2593
405 11.2678
410 15.6858
415 15.1046
420 15.0575
425 14.9209
430 13.5502
435 15.3856
440 12.8535
445 14.9832
450 15.7458
455 11.4957
460 16.7465
465 20.8053
470 12.1521
475 16.2253
480 15.3934
485 20.6853
490 16.4671
495 18.2982
500 13.8772
505 18.3957
510 13.402
515 14.1135
520 17.5295
525 14.5521
530 11.4042
535 13.4264
540 12.5272
545 11.5654
550 14.2493
555 15.4629
560 14.5538
565 13.7002
570 12.2323
575 15.1068
580 17.1052
585 11.8206
590 17.4017
595 14.0425
600 3.37039
Ex : 208
200 16.0904
205 14.4777
210 17.8598
215 18.2794
220 12.4892
225 17.3291
230 19.0174
235 12.7767
240 14.0954
245 14.995
250 11.537
255 9.53728
260 13.9325
265 17.1498
270 15.399
275 16.843
280 14.5889
285 16.2746
290 15.0849
295 12.4462
300 16.07
305 13.6721
310 14.8017
315 12.21
320 14.4398
325 12.6721
330 16.1027
335 10.8885
340 14.4989
345 12.6562
350 13.3712
355 15.0216
360 16.4365
365 16.5769
370 17.7488
375 11.4304
380 20.6091
385 15.8102
390 17.3615
395 14.0471
400 13.0467
405 18.1342
410 16.4562
415 18.7952
420 16.7238
425 11.2747
430 17.0226
435 13.866
440 15.7572
445 13.5062
450 17.5411
455 16.3983
460 13.2348
465 14.0037
470 15.8354
475 17.9402
480 15.3893
485 13.8839
490 12.9768
495 12.5117
500 15.522
505 14.1837
510 18.6761
515 13.6818
520 15.3656
525 18.0589
530 13.7738
535 17.0142
540 15.9641
545 14.6817
550 13.5886
555 17.2518
560 12.0154
565 10.6851
570 13.2661
575 12.79
580 13.8331
585 13.1528
590 14.3005
595 13.2938
600 37.8471
Ex : 213
200 10.52
205 13.1221
210 12.736
215 14.8512
220 12.6613
225 13.9559
230 8.51615
235 11.5358
240 11.8135
245 13.501
250 15.2
255 17.0255
260 16.3183
265 14.4657
270 13.7279
275 15.2491
280 11.4062
285 10.6219
290 10.0154
295 13.4748
300 12.3102
305 13.6498
310 13.2613
315 15.7337
320 10.8522
325 15.1813
330 20.5607
335 13.6463
340 14.0699
345 9.59213
350 14.512
355 16.4593
360 17.9679
365 10.6164
370 16.7109
375 14.6803
380 15.2676
385 15.7699
390 15.0229
395 16.1562
400 15.5025
405 13.2899
410 18.1014
415 19.5268
420 13.613
425 15.855
430 13.4673
435 11.5538
440 10.7262
445 12.2712
450 11.846
455 15.3134
460 13.512
465 16.3446
470 16.477
475 16.7002
480 15.2669
485 12.7203
490 14.6658
495 9.44129
500 13.6925
505 14.7663
510 16.9284
515 14.0973
520 15.2587
525 13.1575
530 16.5729
535 11.0118
540 16.3965
545 13.6836
550 12.3136
555 18.6047
560 10.3867
565 13.0415
570 14.0544
575 15.5231
580 15.177
585 14.2567
590 14.6521
595 13.7505
600 16.8518
Ex : 218
200 16.6037
205 9.75643
210 14.6987
215 14.0211
220 13.5107
225 13.7949
230 11.4657
235 13.7213
240 17.2528
245 13.4493
250 13.9185
255 13.0562
260 16.3602
265 12.0159
270 16.5335
275 13.3053
280 12.5969
285 17.3056
290 10.9397
295 11.0532
300 10.7363
305 13.2854
310 14.8831
315 12.7737
320 16.3889
325 14.5508
330 14.7667
335 11.6439
340 13.2171
345 10.7403
350 14.4025
355 14.9108
360 16.8016
365 14.9616
370 14.923
375 13.8461
380 13.3048
385 12.2819
390 14.1932
395 17.6163
400 14.8972
405 13.4436
410 17.4956
415 11.456
420 15.1009
425 14.0092
430 14.6554
435 15.0437
440 14.0952
445 12.3549
450 15.2278
455 10.0539
460 18.2566
465 15.671
470 14.0761
475 11.925
480 17.2361
485 13.8754
490 13.5455
495 14.2679
500 14.3259
505 16.7709
510 14.3612
515 13.4419
520 11.9224
525 16.501
530 15.8076
535 18.1778
540 11.3737
545 12.2651
550 12.897
555 12.4363
560 16.6131
565 12.2702
570 13.5816
575 12.3324
580 12.486
585 14.209
590 16.502
595 12.1813
600 1.38619
Ex : 223
200 17.301
205 15.6214
210 13.7042
215 13.5308
220 17.3421
225 12.6818
230 13.9446
235 13.7721
240 19.1596
245 13.5074
250 9.08888
255 14.082
260 10.6365
265 10.9444
270 11.4126
275 14.1372
280 16.4646
285 11.5245
290 15.4544
295 15.154
300 16.4224
305 11.1416
310 12.9629
315 10.6866
320 14.1577
325 14.9334
330 12.0367
335 13.4694
340 13.813
345 15.5791
350 16.5997
355 11.753
360 12.4475
365 15.4769
370 12.2337
375 12.2609
380 10.9773
385 14.4961
390 11.757
395 13.0046
400 12.7593
405 14.8589
410 12.0836
415 17.2726
420 16.1104
425 15.3775
430 12.0262
435 11.0296
440 14.6621
445 14.6679
450 8.27325
455 14.888
460 11.1844
465 11.5556
470 13.02
475 11.5729
480 16.0423
485 11.1049
490 10.1817
495 15.5911
500 13.9339
505 19.075
510 10.5506
515 11.2246
520 13.2755
525 11.0248
530 11.631
535 15.8179
540 12.4023
545 14.3537
550 10.6119
555 12.4832
560 11.1592
565 10.5504
570 11.1357
575 13.5134
580 11.1478
585 11.482
590 10.6314
595 12.443
600 1.59321
Ex : 228
200 17
205 10.707
210 12.8783
215 12.6464
220 11.5418
225 10.0205
230 11.7376
235 10.7991
240 11.1208
245 11.668
250 13.0034
255 14.4618
260 12.3194
265 11.7884
270 12.8162
275 13.8314
280 11.1628
285 12.973
290 14.4724
295 12.0155
300 10.8108
305 9.68223
310 15.4953
315 15.6125
320 10.7781
325 9.46773
330 15.1804
335 12.1152
340 12.3569
345 11.9189
350 8.9246
355 13.6036
360 13.6397
365 10.9256
370 15.9753
375 10.1962
380 11.2312
385 15.3389
390 11.3862
395 11.8065
400 13.233
405 13.8501
410 16.1226
415 13.5097
420 11.2083
425 12.0166
430 12.9018
435 13.8797
440 16.1456
445 17.2523
450 14.5492
455 17.983
460 16.5551
465 12.1164
470 13.2173
475 13.1355
480 15.2477
485 14.4918
490 14.9371
495 13.0687
500 14.4275
505 14.9482
510 12.4269
515 10.3212
520 15.5486
525 11.8021
530 11.9822
535 11.0152
540 11.5242
545 13.3244
550 12.1643
555 8.98497
560 12.8654
565 12.6484
570 10.835
575 11.6305
580 12.7805
585 16.6258
590 13.2994
595 11.343
600 6.9625
Ex : 233
200 12.7188
205 9.71448
210 10.9255
215 12.8188
220 11.1462
225 11.3046
230 9.5991
235 7.94482
240 13.8935
245 11.8455
250 10.2418
255 6.88833
260 12.8677
265 12.1587
270 9.63212
275 6.79644
280 12.5014
285 11.1131
290 11.7432
295 11.735
300 11.8658
305 9.58652
310 11.3272
315 13.2354
320 14.9299
325 12.2972
330 11.6242
335 16.3456
340 11.7617
345 14.1775
350 9.01807
355 10.7438
360 9.87533
365 8.40661
370 13.1684
375 12.864
380 10.2364
385 12.9474
390 15.3558
395 12.0686
400 11.1541
405 12.7333
410 9.36891
415 12.0075
420 11.8445
425 11.9694
430 11.8786
435 13.7789
440 11.7615
445 14.1134
450 11.2295
455 10.5562
460 14.9481
465 13.5424
470 14.3446
475 12.2668
480 6.70054
485 10.809
490 11.2283
495 11.2243
500 10.1897
505 9.76839
510 10.9046
515 10.4954
520 9.46557
525 8.4529
530 14.5263
535 10.7111
540 14.0961
545 17.0936
550 10.7124
555 13.0556
560 15.0115
565 10.2944
570 12.3014
575 8.0789
580 12.7787
585 10.7756
590 12.5117
595 14.6953
600 2.11537
Ex : 238
200 9.76707
205 10.9494
210 8.6044
215 7.93845
220 8.19545
225 8.80459
230 9.92918
235 8.85032
240 11.2581
245 10.3226
250 8.46208
255 8.5331
260 11.3928
265 9.95947
270 7.81808
275 11.502
280 9.49011
285 9.21171
290 11.1254
295 12.1582
300 10.7861
305 10.2096
310 11.1669
315 9.48461
320 8.85007
325 7.04709
330 13.3645
335 10.61
340 12.9343
345 13.4493
350 9.70718
355 11.6643
360 12.0332
365 10.5098
370 10.0738
375 8.49373
380 11.2557
385 8.18392
390 8.03595
395 10.3195
400 10.945
405 11.775
410 11.6576
415 11.4248
420 8.20008
425 13.4233
430 10.8602
435 7.79528
440 8.31555
445 10.4275
450 10.0602
455 8.40666
460 9.62336
465 10.4747
470 11.3814
475 11.3452
480 8.87737
485 14.388
490 11.2305
495 11.8164
500 7.59609
505 7.48445
510 9.98107
515 11.3076
520 10.6052
525 12.2559
530 14.0739
535 8.87125
540 9.87882
545 9.81703
550 9.79824
555 8.71807
560 10.2301
565 9.41904
570 9.29568
575 9.29951
580 7.63273
585 9.70808
590 13.9244
595 11.4494
600 1.746
Ex : 243
200 9.77239
205 7.70936
210 7.92695
215 9.28301
220 10.7357
225 8.27148
230 10.0604
235 9.01235
240 8.17665
245 9.21794
250 9.5119
255 8.75332
260 9.20009
265 9.7629
270 7.13582
275 10.337
280 7.66673
285 8.83821
290 10.3963
295 10.3656
300 10.5894
305 8.40932
310 9.13978
315 6.58705
320 9.68055
325 8.13344
330 8.47132
335 9.02942
340 9.35082
345 9.43483
350 9.80768
355 9.99818
360 11.2699
365 9.93522
370 10.6347
375 8.92177
380 7.80189
385 9.79581
390 10.9509
395 12.4157
400 10.0459
405 13.1021
410 10.2075
415 10.2123
420 9.31453
425 8.23399
430 9.59989
435 10.1297
440 11.6701
445 9.67664
450 10.632
455 8.95917
460 7.50975
465 8.66811
470 7.99952
475 8.26706
480 7.99011
485 12.8533
490 10.8036
495 8.66208
500 9.46086
505 6.19483
510 6.4175
515 9.27064
520 8.68496
525 7.02119
530 10.0399
535 10.371
540 9.7673
545 7.90461
550 11.1249
555 10.548
560 10.6419
565 9.21281
570 9.28643
575 7.41375
580 8.59794
585 7.92245
590 13.2332
595 9.75186
600 1.61613
Ex : 248
200 6.03869
205 9.56306
210 7.75851
215 8.76874
220 8.53869
225 7.0274
230 7.64016
235 7.54983
240 7.72168
245 8.885
250 6.96094
255 5.58757
260 6.44902
265 8.08578
270 9.12423
275 8.76547
280 7.70885
285 7.61185
290 8.40842
295 7.89833
300 6.51322
305 5.90802
310 6.62053
315 6.88801
320 5.76941
325 8.09019
330 7.19746
335 8.54324
340 7.20085
345 6.99912
350 6.66996
355 7.04709
360 7.10994
365 7.00983
370 8.44321
375 5.91123
380 6.38755
385 7.72817
390 7.90577
395 7.70928
400 8.10741
405 9.16234
410 9.88181
415 8.98609
420 8.41224
425 9.7662
430 6.11483
435 7.91246
440 8.97052
445 7.37664
450 9.89692
455 7.49377
460 6.96451
465 7.71486
470 10.6206
475 5.54021
480 7.77412
485 6.7079
490 8.01063
495 8.6346
500 8.83933
505 7.1744
510 9.26902
515 5.37536
520 5.717
525 7.22599
530 8.2664
535 7.3881
540 9.56859
545 7.71745
550 7.54836
555 7.15351
560 9.31442
565 7.28784
570 7.65815
575 8.68184
580 6.07449
585 7.14669
590 6.19499
595 5.10723
600 0.758424
Ex : 253
200 6.78803
205 5.75279
210 7.4139
215 4.98377
220 4.98284
225 6.448
230 5.16253
235 7.51578
240 6.846
245 6.15044
250 6.69965
255 5.03109
260 5.87869
265 6.08466
270 4.55908
275 5.43581
280 5.35247
285 5.72043
290 5.13024
295 5.9451
300 6.20743
305 6.13162
310 6.45589
315 5.77425
320 6.23243
325 6.38879
330 5.25726
335 4.82716
340 6.23393
345 5.83816
350 7.36681
355 6.24676
360 6.46787
365 7.48175
370 6.27014
375 6.93253
380 6.32499
385 7.18641
390 7.24061
395 5.63602
400 4.26811
405 5.76134
410 5.86569
415 5.95613
420 8.90017
425 6.21039
430 7.07269
435 6.48915
440 7.1393
445 6.04484
450 6.13656
455 7.41001
460 6.25701
465 6.96989
470 7.45404
475 6.1591
480 5.62617
485 6.92858
490 6.83457
495 6.83422
500 7.30418
505 8.02508
510 6.05701
515 6.28973
520 7.29541
525 6.88703
530 6.70356
535 5.38437
540 6.26088
545 8.37937
550 5.09791
555 6.61021
560 4.716
565 5.40404
570 5.8091
575 5.30974
580 6.85287
585 6.48698
590 5.63469
595 6.49412
600 0.827627
Ex : 258
200 4.79452
205 4.13724
210 4.48314
215 4.36906
220 4.94232
225 4.87102
230 4.81849
235 5.66764
240 4.94123
245 5.16529
250 5.34265
255 6.33368
260 5.13147
265 4.02611
270 5.06888
275 4.48063
280 5.27216
285 4.7523
290 5.10439
295 5.97324
300 5.39192
305 3.94805
310 5.99063
315 5.94193
320 6.03709
325 5.75622
330 6.27749
335 4.18956
340 5.49222
345 5.10382
350 5.01009
355 5.02045
360 5.5821
365 4.23113
370 5.42221
375 5.24688
380 4.70693
385 7.49718
390 6.29208
395 5.12066
400 5.96688
405 5.01609
410 4.63331
415 4.22006
420 5.71022
425 5.55774
430 5.62151
435 4.51706
440 4.59842
445 6.23829
450 5.10156
455 4.36236
460 5.23202
465 3.36157
470 3.55679
475 4.60367
480 4.9363
485 5.04528
490 4.58282
495 4.88356
500 5.60014
505 6.17342
510 5.90939
515 4.58229
520 5.00055
525 4.62559
530 4.64877
535 4.83441
540 5.44093
545 4.27781
550 4.43597
555 4.01729
560 5.8618
565 4.25349
570 5.00104
575 4.73957
580 3.76778
585 3.89786
590 3.87866
595 5.29456
600 3.18055
Ex : 263
200 3.16418
205 3.98726
210 4.40829
215 3.55398
220 2.80908
225 2.91892
230 3.0632
235 3.27622
240 3.55249
245 3.98784
250 4.58634
255 3.54699
260 3.64517
265 3.00565
270 4.12866
275 3.69566
280 3.17733
285 3.24438
290 4.90678
295 2.9931
300 3.12997
305 3.67129
310 3.54182
315 3.02295
320 3.43185
325 4.30835
330 4.87146
335 3.96029
340 3.74131
345 3.89385
350 4.46315
355 3.90881
360 3.60132
365 4.25178
370 3.50499
375 4.8865
380 4.17585
385 3.92673
390 5.51775
395 3.37552
400 4.79401
405 3.1174
410 4.21019
415 3.42652
420 3.62006
425 4.30616
430 3.58775
435 4.00475
440 5.08719
445 4.0524
450 3.8831
455 3.54155
460 4.64068
465 3.40497
470 3.9231
475 4.17866
480 3.54294
485 4.14134
490 3.63687
495 4.00694
500 4.24393
505 3.68864
510 4.09596
515 3.60364
520 4.71128
525 4.64635
530 4.10305
535 3.89076
540 3.4466
545 3.68363
550 3.61109
555 4.20457
560 3.74668
565 3.78127
570 3.88583
575 4.00805
580 3.16387
585 3.49192
590 3.96743
595 4.10375
600 0.965481
Ex : 268
200 2.52497
205 3.54023
210 2.87277
215 2.49651
220 2.19846
225 2.58218
230 2.40605
235 3.07157
240 3.04577
245 2.68642
250 2.26831
255 2.60977
260 2.22719
265 3.32444
270 3.18305
275 2.82597
280 2.92202
285 2.31024
290 2.42399
295 2.54789
300 2.47639
305 2.26678
310 2.24717
315 2.78202
320 3.28443
325 3.23454
330 3.06277
335 3.48808
340 2.80675
345 3.21187
350 3.96311
355 2.82078
360 2.51274
365 3.17565
370 2.975
375 3.44284
380 2.81587
385 2.95349
390 3.65936
395 2.87924
400 3.05515
405 3.40835
410 3.62862
415 3.54952
420 3.34998
425 3.70858
430 3.24408
435 2.64251
440 3.62755
445 3.09217
450 3.17988
455 3.16234
460 4.17471
465 3.76243
470 3.41974
475 2.89162
480 4.11987
485 3.58217
490 2.83561
495 3.03053
500 3.14061
505 4.04887
510 3.23978
515 3.23375
520 2.72444
525 2.65452
530 3.59655
535 2.7366
540 2.48083
545 3.00007
550 3.38141
555 2.9195
560 3.25173
565 3.24733
570 3.10217
575 3.32994
580 2.94502
585 2.59526
590 2.78407
595 1.89903
600 0.258303
Ex : 273
200 2.74906
205 2.29581
210 2.15132
215 1.93387
220 2.68406
225 2.2819
230 2.36021
235 2.03255
240 3.04418
245 2.20378
250 1.70178
255 2.35203
260 1.80066
265 2.91491
270 2.35315
275 2.74565
280 2.22241
285 2.25751
290 2.52145
295 2.38006
300 2.45047
305 2.24875
310 2.56839
315 3.56189
320 2.27272
325 2.48675
330 2.21391
335 2.96282
340 3.07033
345 2.18005
350 2.40113
355 2.32431
360 2.40442
365 2.8479
370 3.01871
375 3.01472
380 2.22158
385 2.15338
390 2.72275
395 3.17368
400 2.67634
405 2.9071
410 2.55347
415 3.111
420 3.60796
425 2.4664
430 2.8866
435 3.00822
440 2.79883
445 2.66379
450 2.76713
455 2.92176
460 3.13478
465 2.29057
470 2.90656
475 2.56708
480 1.93877
485 2.15758
490 2.42753
495 2.00829
500 2.28881
505 1.85313
510 2.31374
515 2.08812
520 2.24715
525 2.31025
530 1.9536
535 2.49885
540 3.04831
545 2.47176
550 2.67545
555 1.76107
560 2.72456
565 1.97
570 2.38171
575 2.23724
580 2.21131
585 2.43127
590 2.25853
595 1.88603
600 2.87323
Ex : 278
200 1.51784
205 1.70582
210 2.18981
215 1.66073
220 2.07776
225 2.58183
230 1.57694
235 1.67466
240 1.44734
245 1.85388
250 1.45069
255 2.03809
260 1.73016
265 1.57047
270 2.30629
275 1.8296
280 1.53682
285 1.47889
290 1.56365
295 1.39257
300 1.60325
305 1.55259
310 2.21874
315 1.68314
320 2.49621
325 1.87285
330 1.9945
335 1.9946
340 2.1433
345 2.43334
350 2.22311
355 2.34376
360 2.9032
365 2.84651
370 1.97935
375 2.22091
380 2.5354
385 2.53293
390 2.69582
395 2.88907
400 2.85938
405 2.7805
410 1.96594
415 2.80221
420 2.23259
425 2.32439
430 2.0135
435 2.2032
440 1.90377
445 2.15844
450 2.43385
455 2.75875
460 2.14964
465 2.19551
470 1.80351
475 2.51734
480 2.04106
485 2.06088
490 2.47998
495 1.70151
500 2.33338
505 2.538
510 1.71659
515 1.94554
520 2.22716
525 1.79553
530 2.36449
535 1.99882
540 1.57164
545 2.05861
550 2.75808
555 1.95848
560 1.82315
565 2.0365
570 1.68529
575 1.86372
580 1.66546
585 1.65914
590 2.03065
595 1.65698
600 0.188558
Ex : 283
200 1.31206
205 1.48578
210 1.87468
215 1.63839
220 1.48012
225 1.19996
230 2.42091
235 1.78631
240 1.48847
245 1.59339
250 2.06601
255 1.61263
260 1.3267
265 1.08324
270 1.77219
275 1.49795
280 1.34787
285 1.52849
290 2.14608
295 1.19191
300 1.28569
305 1.75237
310 1.4707
315 1.79612
320 1.73261
325 1.44193
330 1.48533
335 1.71857
340 2.02051
345 1.92377
350 2.16392
355 1.49898
360 1.44611
365 1.62229
370 2.04766
375 2.28864
380 1.93088
385 2.44986
390 2.18959
395 1.9337
400 2.35408
405 2.1334
410 1.79666
415 2.19928
420 1.69114
425 1.9307
430 2.06895
435 2.13627
440 1.75694
445 1.79189
450 1.97402
455 1.95611
460 2.1178
465 1.98239
470 1.71108
475 2.11616
480 1.92402
485 1.92089
490 1.54761
495 1.9183
500 1.87935
505 2.13164
510 1.7775
515 1.61916
520 1.59125
525 1.67211
530 1.51959
535 1.63391
540 1.74584
545 1.53406
550 2.05547
555 1.53998
560 2.15583
565 2.1576
570 2.04474
575 1.5991
580 1.51186
585 1.43887
590 1.86691
595 1.67184
600 0.190249
Ex : 288
200 1.33297
205 1.36411
210 1.13459
215 1.38856
220 1.72184
225 1.52209
230 1.29977
235 0.997765
240 1.11582
245 1.29253
250 1.08666
255 1.71931
260 1.179
265 1.48603
270 1.38314
275 1.53731
280 1.72077
285 1.45868
290 1.33737
295 1.07284
300 1.09351
305 1.26815
310 1.31155
315 1.36635
320 1.32162
325 1.3558
330 1.46803
335 1.13277
340 1.16105
345 1.77992
350 1.53888
355 1.35769
360 1.5038
365 1.70285
370 1.81256
375 1.72989
380 1.58696
385 1.6082
390 1.78219
395 2.30355
400 1.93982
405 1.73225
410 2.01643
415 2.05514
420 2.15767
425 1.80577
430 1.86579
435 2.0303
440 1.50343
445 2.18207
450 1.74396
455 1.65591
460 2.08506
465 2.01016
470 1.66913
475 1.82738
480 1.50035
485 1.17602
490 1.4387
495 1.39126
500 1.47853
505 1.39829
510 1.38628
515 1.39206
520 1.49737
525 1.47765
530 0.864386
535 1.61495
540 1.22952
545 1.51797
550 1.86516
555 1.08603
560 1.26956
565 1.45071
570 2.23575
575 2.01004
580 1.57511
585 1.53551
590 1.42396
595 1.25494
600 0.142808
Ex : 293
200 1.22633
205 0.999763
210 1.13364
215 1.08379
220 1.09543
225 1.10891
230 1.05101
235 1.02109
240 1.16753
245 1.38632
250 1.14873
255 1.46435
260 1.05202
265 0.89319
270 1.0055
275 0.806305
280 0.927904
285 0.982723
290 1.61312
295 1.54626
300 1.04102
305 1.13578
310 1.00549
315 0.913155
320 0.841466
325 0.997953
330 1.36259
335 1.28885
340 1.14739
345 1.14981
350 1.39525
355 1.61477
360 1.39085
365 1.67443
370 1.40826
375 1.76314
380 1.82136
385 1.19221
390 1.34352
395 1.70333
400 1.59118
405 1.99723
410 1.36421
415 1.66258
420 1.74315
425 2.10581
430 1.45056
435 1.62424
440 1.83287
445 1.70617
450 1.9908
455 1.53668
460 1.63457
465 1.67399
470 1.42422
475 1.4169
480 1.67195
485 1.20194
490 1.20778
495 1.14618
500 1.11185
505 1.17037
510 1.42926
515 1.45016
520 1.6131
525 1.08956
530 1.34011
535 1.04771
540 1.18481
545 1.04841
550 1.06069
555 1.38406
560 1.39703
565 0.985576
570 1.08591
575 1.26456
580 1.79517
585 1.58612
590 1.13458
595 0.994293
600 0.794842
Ex : 298
200 0.977769
205 0.789923
210 0.960641
215 0.875552
220 1.02502
225 0.886723
230 1.23188
235 0.81644
240 1.14683
245 1.24311
250 0.688474
255 0.845582
260 0.76981
265 1.07876
270 0.994998
275 0.918219
280 1.00751
285 0.895405
290 1.17854
295 1.40794
300 0.874749
305 0.88688
310 0.969311
315 1.0026
320 1.01468
325 1.27666
330 1.14472
335 1.23389
340 1.25789
345 1.19064
350 1.40648
355 1.30494
360 1.47745
365 1.13285
370 1.22622
375 1.26475
380 1.41115
385 1.54828
390 1.44087
395 1.24775
400 1.67218
405 1.55279
410 1.73578
415 1.46348
420 1.32691
425 1.50043
430 1.51701
435 1.27049
440 1.40777
445 1.52422
450 1.3089
455 1.33532
460 1.43419
465 1.39179
470 1.35422
475 1.40693
480 1.39226
485 1.17211
490 1.1549
495 1.01907
500 1.12067
505 1.17733
510 1.24281
515 1.06053
520 0.964808
525 1.08911
530 1.03647
535 1.21161
540 1.00395
545 0.903409
550 1.10055
555 0.906482
560 0.62513
565 1.24351
570 1.05576
575 0.922219
580 0.979222
585 1.18436
590 1.64236
595 1.3447
600 0.625664
Ex : 303
200 0.726799
205 1.00487
210 0.910448
215 0.70156
220 0.792285
225 0.701172
230 0.909355
235 0.749984
240 0.72519
245 0.805496
250 0.789332
255 0.951866
260 0.726972
265 0.759879
270 0.776781
275 0.752813
280 0.705947
285 0.695779
290 0.731266
295 1.1033
300 1.15669
305 0.858623
310 0.748784
315 0.71202
320 0.900912
325 0.904368
330 1.15958
335 0.902771
340 0.869645
345 1.22053
350 1.04722
355 1.25111
360 1.36379
365 1.10432
370 1.19598
375 1.30484
380 1.40311
385 1.42061
390 1.41039
395 1.82738
400 1.32831
405 1.44046
410 1.44931
415 1.51249
420 1.3588
425 1.41295
430 1.45183
435 1.52104
440 1.24473
445 1.17524
450 1.38498
455 1.23246
460 1.08932
465 1.14413
470 1.06025
475 1.08039
480 1.15916
485 1.13753
490 1.00251
495 0.965213
500 0.78344
505 1.03808
510 0.957624
515 1.11306
520 1.00532
525 0.973761
530 0.919206
535 0.809666
540 1.05047
545 0.985112
550 0.715521
555 0.977588
560 1.08148
565 0.829526
570 0.769003
575 0.906765
580 1.07801
585 0.900171
590 1.00868
595 1.1131
600 0.14636
Ex : 308
200 0.663453
205 0.660913
210 0.838053
215 0.799353
220 0.882908
225 0.746307
230 0.915377
235 0.782536
240 0.64621
245 0.857008
250 0.875991
255 0.687189
260 0.631038
265 0.82738
270 0.721812
275 0.724044
280 0.68552
285 0.654592
290 0.891795
295 0.971664
300 0.802524
305 0.932984
310 0.87798
315 0.67121
320 0.724394
325 0.936272
330 0.957021
335 0.83898
340 0.958479
345 1.13722
350 1.13684
355 1.04446
360 1.04014
365 1.23631
370 1.10685
375 1.37813
380 1.18706
385 1.12345
390 1.13297
395 1.3842
400 1.7121
405 1.38589
410 1.5357
415 1.47274
420 1.16474
425 1.22705
430 1.2953
435 1.01711
440 1.06803
445 1.30121
450 1.24906
455 1.21053
460 0.992533
465 1.06597
470 1.17016
475 1.05083
480 1.0388
485 0.791146
490 1.08856
495 0.986119
500 0.857521
505 0.788651
510 0.828936
515 0.779349
520 0.628368
525 0.782746
530 1.0325
535 0.865546
540 0.819139
545 0.838219
550 0.937612
555 0.961897
560 0.839453
565 0.695743
570 0.752754
575 0.752532
580 0.468277
585 0.647941
590 0.75964
595 0.999445
600 1.05674
Ex : 313
200 0.870466
205 0.591364
210 0.64824
215 0.6361
220 0.558867
225 0.718171
230 0.730907
235 0.623113
240 0.768995
245 0.607483
250 0.747491
255 0.738248
260 0.908665
265 0.602257
270 0.570288
275 0.74103
280 0.810699
285 0.706919
290 0.538304
295 0.54005
300 0.661827
305 0.705801
310 0.94598
315 0.74398
320 0.870509
325 0.854633
330 1.00797
335 1.07142
340 1.02034
345 1.02007
350 1.25827
355 1.2137
360 1.26966
365 1.36329
370 1.32242
375 1.49219
380 1.53233
385 1.81114
390 1.65457
395 1.79512
400 2.01376
405 1.69655
410 1.80019
415 1.65608
420 1.61376
425 1.85449
430 1.69684
435 1.58532
440 1.53129
445 1.59649
450 1.5405
455 1.47793
460 1.59762
465 1.47495
470 1.41019
475 1.38585
480 1.13861
485 1.00584
490 1.24831
495 1.09998
500 0.953101
505 0.923962
510 1.07624
515 0.853627
520 0.918095
525 0.860926
530 0.638938
535 0.729038
540 0.779247
545 0.597724
550 0.594512
555 0.684774
560 0.748315
565 0.886624
570 0.625707
575 0.828113
580 0.948981
585 0.746586
590 0.571192
595 0.562834
600 0.0640484
Ex : 318
200 0.507324
205 0.57819
210 0.646443
215 0.680585
220 0.625331
225 0.612266
230 0.667685
235 0.513147
240 0.67209
245 0.599092
250 0.549407
255 0.436593
260 0.539105
265 0.602075
270 0.86104
275 0.637756
280 0.627302
285 0.524883
290 0.721798
295 0.496556
300 0.49086
305 0.651837
310 1.06085
315 1.72775
320 1.20456
325 1.01103
330 1.28623
335 1.4377
340 1.97575
345 2.71636
350 3.44341
355 4.08846
360 4.87757
365 5.72943
370 7.3718
375 7.52514
380 8.40344
385 9.24607
390 10.5094
395 10.2937
400 11.2194
405 11.6454
410 11.111
415 12.0376
420 11.7388
425 10.8671
430 10.6338
435 10.4671
440 9.53498
445 9.54953
450 8.71986
455 8.78515
460 7.92314
465 7.16594
470 6.44849
475 6.08711
480 5.38251
485 5.05648
490 4.35792
495 4.19508
500 3.99407
505 3.15029
510 3.11088
515 3.02246
520 2.60608
525 1.86921
530 1.95133
535 1.86089
540 1.57352
545 1.49385
550 1.39728
555 1.32658
560 1.15635
565 0.928137
570 0.812731
575 0.905059
580 0.630161
585 0.725153
590 0.875974
595 0.766433
600 0.0872171
Ex : 323
200 0.493751
205 0.549131
210 0.450191
215 0.516358
220 0.612316
225 0.728225
230 0.45963
235 0.47195
240 0.605508
245 0.516352
250 0.646808
255 0.568725
260 0.539824
265 0.504827
270 0.583921
275 0.625703
280 0.644617
285 0.692573
290 0.395131
295 0.466637
300 0.407032
305 0.432825
310 0.703225
315 7.90351
320 33.0153
325 13.7066
330 4.04542
335 3.9979
340 5.2775
345 6.91555
350 10.0147
355 14.1155
360 16.5133
365 19.1555
370 23.2969
375 26.1972
380 30.0489
385 32.4778
390 36.0486
395 37.8313
400 38.9441
405 41.0708
410 40.3312
415 40.4173
420 39.2458
425 38.3521
430 36.7045
435 35.4583
440 34.2214
445 31.8884
450 29.4836
455 28.2988
460 26.2966
465 23.4194
470 21.5801
475 20.114
480 18.788
485 17.2976
490 15.532
495 13.7525
500 12.0945
505 11.3523
510 9.97739
515 8.25024
520 7.19452
525 6.50433
530 5.34273
535 4.69556
540 4.41281
545 3.77415
550 3.01237
555 2.87754
560 2.72575
565 2.13212
570 1.88186
575 1.57048
580 1.37653
585 1.02641
590 0.904363
595 0.861219
600 1.23268
Ex : 328
200 0.397071
205 0.543519
210 0.543254
215 0.478143
220 0.437369
225 0.417086
230 0.577372
235 0.441555
240 0.578039
245 0.528169
250 0.665673
255 0.463731
260 0.592269
265 0.486906
270 0.517627
275 0.654529
280 0.512797
285 0.445679
290 0.491054
295 0.662362
300 0.481134
305 0.611341
310 0.590425
315 2.33891
320 71.1011
325 166.404
330 48.3725
335 9.58616
340 6.93289
345 8.09395
350 10.5992
355 14.4671
360 19.4112
365 22.506
370 23.6005
375 27.0824
380 30.8699
385 33.9234
390 37.7006
395 39.4148
400 40.5127
405 41.6381
410 41.7074
415 41.5326
420 40.3765
425 39.1731
430 36.5378
435 35.4262
440 33.1569
445 32.0099
450 30.3495
455 27.7072
460 26.8172
465 24.7513
470 22.6694
475 20.6871
480 18.7184
485 16.7006
490 15.5681
495 13.7391
500 12.3707
505 11.5388
510 10.1975
515 8.55159
520 7.77534
525 6.50991
530 5.53635
535 4.86895
540 4.56548
545 4.01567
550 3.56375
555 2.85956
560 2.6766
565 2.33418
570 2.24057
575 1.60553
580 1.45651
585 1.25268
590 1.0705
595 1.01681
600 0.851708
Ex : 333
200 0.320029
205 0.341025
210 0.45339
215 0.468049
220 0.539587
225 0.555337
230 0.510207
235 0.533544
240 0.565014
245 0.434765
250 0.462088
255 0.639107
260 0.550516
265 0.459158
270 0.529762
275 0.415254
280 0.419339
285 0.483067
290 0.466598
295 0.425299
300 0.381838
305 0.378215
310 0.524615
315 0.50733
320 9.91019
325 192.802
330 320.798
335 81.3963
340 13.4816
345 6.99387
350 7.38851
355 7.49245
360 10.4087
365 16.0847
370 16.4038
375 16.7032
380 17.7021
385 19.9172
390 22.0733
395 22.396
400 22.8596
405 23.7269
410 24.0124
415 23.8899
420 23.4273
425 21.3305
430 20.8995
435 19.9159
440 19.283
445 18.1091
450 16.8552
455 15.2418
460 14.1673
465 13.8263
470 12.7495
475 11.4686
480 10.3448
485 9.52865
490 8.32488
495 7.70077
500 6.94476
505 6.14227
510 6.04911
515 4.86514
520 4.52385
525 3.80293
530 3.66161
535 3.23481
540 2.94854
545 2.70087
550 2.29802
555 2.15943
560 1.6569
565 1.65951
570 1.44463
575 1.18574
580 1.0434
585 1.01339
590 0.95028
595 0.936326
600 0.860333
Ex : 338
200 0.572939
205 0.385522
210 0.360681
215 0.339376
220 0.342278
225 0.532949
230 0.496397
235 0.437189
240 0.382637
245 0.496577
250 0.491069
255 0.375691
260 0.442216
265 0.466766
270 0.44938
275 0.506384
280 0.530157
285 0.497166
290 0.50505
295 0.43585
300 0.491807
305 0.58098
310 0.522701
315 0.588467
320 0.788741
325 19.4124
330 279.711
335 395.734
340 96.3212
345 14.4193
350 5.94327
355 5.12395
360 4.40291
365 6.31066
370 11.1909
375 11.4705
380 10.3997
385 10.9721
390 11.9305
395 12.9558
400 12.7332
405 12.7395
410 13.8106
415 13.4737
420 13.4989
425 12.9008
430 11.4716
435 11.4928
440 11.3763
445 10.544
450 9.51347
455 9.19966
460 8.12327
465 7.74747
470 7.18984
475 7.13571
480 6.66243
485 6.05736
490 5.54457
495 5.05674
500 4.55139
505 3.98483
510 3.76963
515 3.43326
520 3.14531
525 2.56705
530 2.6191
535 2.16818
540 2.20078
545 2.05803
550 1.72844
555 1.48291
560 1.36339
565 1.4361
570 1.21738
575 1.11316
580 0.955404
585 0.74764
590 0.888817
595 0.783503
600 1.13763
Ex : 343
200 0.417647
205 0.387185
210 0.413882
215 0.341403
220 0.378704
225 0.357909
230 0.495633
235 0.385359
240 0.401963
245 0.459212
250 0.370445
255 0.351645
260 0.346942
265 0.368861
270 0.421935
275 0.541811
280 0.479981
285 0.353542
290 0.396187
295 0.441566
300 0.468665
305 0.588759
310 0.50269
315 0.529243
320 0.609314
325 0.778883
330 20.7224
335 310.56
340 432.604
345 102.717
350 14.575
355 4.70425
360 3.54978
365 3.33404
370 4.50602
375 8.07716
380 9.70056
385 9.40701
390 9.9388
395 9.22931
400 9.0539
405 9.75923
410 10.8476
415 11.0351
420 10.3876
425 9.73227
430 9.3668
435 9.04596
440 9.0813
445 8.79448
450 7.64374
455 7.07682
460 7.36755
465 6.55832
470 6.46681
475 5.43443
480 5.25681
485 5.00918
490 4.21713
495 4.00456
500 3.71627
505 3.46037
510 3.099
515 2.86386
520 2.57616
525 2.61413
530 2.07448
535 1.99897
540 1.86543
545 1.83873
550 1.50955
555 1.37138
560 1.40891
565 1.25173
570 1.21417
575 0.998339
580 0.816865
585 0.832077
590 0.818789
595 0.650217
600 0.439909
Ex : 348
200 0.406562
205 0.323076
210 0.405901
215 0.362066
220 0.276265
225 0.40984
230 0.363617
235 0.453133
240 0.410514
245 0.337874
250 0.406103
255 0.475518
260 0.322923
265 0.386035
270 0.392309
275 0.415983
280 0.305618
285 0.379392
290 0.514607
295 0.482545
300 0.421363
305 0.410557
310 0.389385
315 0.459949
320 0.510267
325 0.602338
330 0.965875
335 20.0375
340 303.276
345 448.954
350 111.964
355 15.2472
360 4.23105
365 3.05815
370 2.42172
375 3.37302
380 7.58305
385 11.4242
390 11.6942
395 11.2641
400 9.56665
405 10.2713
410 11.3841
415 12.5747
420 11.8353
425 10.2263
430 9.9945
435 9.74829
440 9.4266
445 9.28327
450 8.37987
455 7.5175
460 6.81901
465 6.69433
470 6.11341
475 5.91997
480 5.4014
485 5.14956
490 4.72931
495 4.37814
500 3.80741
505 3.46566
510 3.53517
515 3.08596
520 2.8364
525 2.50145
530 2.3115
535 2.06253
540 1.83765
545 1.67255
550 1.70713
555 1.56716
560 1.29177
565 1.2538
570 1.16098
575 0.99022
580 0.779235
585 0.808096
590 0.814727
595 0.682796
600 0.425851
Ex : 353
200 0.259889
205 0.397355
210 0.36698
215 0.381913
220 0.460311
225 0.383115
230 0.313017
235 0.441538
240 0.333229
245 0.345112
250 0.268608
255 0.379631
260 0.382703
265 0.348502
270 0.359455
275 0.459649
280 0.353139
285 0.352284
290 0.457181
295 0.341599
300 0.376357
305 0.385977
310 0.312344
315 0.38449
320 0.46556
325 0.532694
330 0.688538
335 0.895497
340 20.4268
345 314.655
350 445.763
355 107.732
360 14.5104
365 4.26222
370 2.99237
375 2.46418
380 3.33326
385 7.65211
390 13.4687
395 13.1614
400 11.3592
405 10.4668
410 11.4279
415 12.5392
420 12.2731
425 11.5132
430 10.2524
435 9.98673
440 10.1301
445 9.50741
450 8.62367
455 8.02661
460 7.44581
465 7.01847
470 6.88712
475 6.46192
480 5.87244
485 5.0618
490 4.66541
495 4.51126
500 3.87236
505 3.79046
510 3.36572
515 3.20901
520 2.99969
525 2.57793
530 2.08109
535 1.8879
540 1.89474
545 1.9018
550 1.63716
555 1.56738
560 1.22779
565 1.29542
570 1.15117
575 0.982702
580 0.888906
585 0.763262
590 0.739601
595 0.671183
600 0.455476
Ex : 358
200 0.335711
205 0.275989
210 0.395835
215 0.397518
220 0.382957
225 0.307078
230 0.337901
235 0.344255
240 0.328847
245 0.318498
250 0.329968
255 0.234263
260 0.358123
265 0.417088
270 0.281796
275 0.267118
280 0.333627
285 0.416718
290 0.393567
295 0.390855
300 0.302931
305 0.39947
310 0.3304
315 0.371634
320 0.344505
325 0.360263
330 0.619437
335 0.664363
340 0.865553
345 19.6017
350 301.566
355 446.064
360 110.825
365 14.6166
370 3.93435
375 2.74362
380 3.12519
385 4.57084
390 9.03689
395 13.0412
400 12.3327
405 10.6629
410 11.093
415 11.6954
420 11.5583
425 10.5803
430 9.49981
435 9.95317
440 9.68865
445 9.42355
450 8.52912
455 7.74689
460 7.31173
465 6.95535
470 6.44095
475 6.16931
480 5.86024
485 5.45242
490 4.87483
495 4.43073
500 4.22626
505 3.90541
510 3.4734
515 3.08365
520 2.77427
525 2.61357
530 2.22281
535 2.08811
540 1.99817
545 1.88003
550 1.74123
555 1.44716
560 1.33066
565 1.21986
570 1.0773
575 0.999676
580 0.846649
585 0.727163
590 0.697354
595 0.695221
600 0.0791135
Ex : 363
200 0.302629
205 0.292366
210 0.44935
215 0.3113
220 0.249575
225 0.3237
230 0.247492
235 0.267778
240 0.241216
245 0.280215
250 0.272424
255 0.273039
260 0.264374
265 0.242471
270 0.272641
275 0.353791
280 0.343243
285 0.382232
290 0.244712
295 0.322568
300 0.386438
305 0.342229
310 0.336579
315 0.385697
320 0.324733
325 0.35468
330 0.44173
335 0.520166
340 0.515526
345 0.769521
350 17.6817
355 283.573
360 436.203
365 111.083
370 14.7394
375 4.07814
380 4.23264
385 6.19197
390 8.36919
395 9.82416
400 12.8057
405 14.0118
410 13.7133
415 13.5878
420 12.3426
425 11.1062
430 10.3823
435 10.4252
440 10.2795
445 9.87563
450 9.21671
455 8.09317
460 7.57269
465 7.44082
470 6.82503
475 6.47214
480 6.26686
485 5.48712
490 5.19306
495 4.89108
500 4.52849
505 4.09952
510 3.59568
515 3.39437
520 3.02797
525 2.64841
530 2.4828
535 2.09514
540 2.06237
545 1.88368
550 1.72275
555 1.45068
560 1.32767
565 1.24133
570 1.15339
575 0.964431
580 0.820591
585 0.734837
590 0.599605
595 0.620338
600 0.768424
Ex : 368
200 0.270649
205 0.310127
210 0.338308
215 0.208594
220 0.284975
225 0.257084
230 0.169406
235 0.291217
240 0.24032
245 0.274054
250 0.347289
255 0.297211
260 0.281737
265 0.318703
270 0.293291
275 0.291712
280 0.257894
285 0.29842
290 0.323832
295 0.307552
300 0.303875
305 0.310651
310 0.275427
315 0.400089
320 0.380202
325 0.391424
330 0.467813
335 0.437593
340 0.54917
345 0.492472
350 0.805943
355 14.6184
360 276.6
365 443.395
370 116.362
375 15.5881
380 5.1977
385 7.29064
390 10.2929
395 11.0894
400 11.0193
405 14.1401
410 17.4815
415 17.4997
420 16.1091
425 13.3233
430 12.0526
435 12.0512
440 12.0844
445 11.5028
450 10.4391
455 9.18175
460 8.48377
465 7.92356
470 7.78918
475 7.2209
480 6.74121
485 6.17577
490 5.87928
495 5.22229
500 4.60403
505 4.39822
510 3.96204
515 3.62276
520 3.13521
525 2.815
530 2.5854
535 2.3056
540 1.94796
545 1.9143
550 1.68522
555 1.62469
560 1.36188
565 1.27754
570 1.17722
575 0.940108
580 0.765345
585 0.704832
590 0.559537
595 0.607595
600 0.669217
Ex : 373
200 0.245992
205 0.305358
210 0.233289
215 0.301329
220 0.231786
225 0.223098
230 0.276794
235 0.331558
240 0.297832
245 0.382868
250 0.259196
255 0.304986
260 0.256212
265 0.249164
270 0.272755
275 0.27283
280 0.289542
285 0.272868
290 0.276449
295 0.25067
300 0.263613
305 0.301872
310 0.297254
315 0.31648
320 0.285154
325 0.335768
330 0.301769
335 0.373487
340 0.487061
345 0.557456
350 0.646085
355 0.838698
360 17.0752
365 278.932
370 435.723
375 113.675
380 16.0166
385 6.63371
390 10.0867
395 11.4117
400 10.6208
405 10.4288
410 14.1368
415 18.7694
420 17.3369
425 14.5291
430 11.9506
435 11.0855
440 11.1877
445 11.5028
450 10.2216
455 9.09675
460 8.32073
465 7.85819
470 7.50532
475 6.98737
480 6.47726
485 5.79261
490 5.64304
495 5.12809
500 4.52808
505 4.24375
510 4.01088
515 3.72187
520 3.19863
525 2.84138
530 2.57706
535 2.10978
540 2.16673
545 1.98334
550 1.89091
555 1.58609
560 1.37656
565 1.29749
570 1.11524
575 0.899937
580 0.777391
585 0.714933
590 0.660008
595 0.546098
600 0.548985
Ex : 378
200 0.36588
205 0.295959
210 0.268161
215 0.233961
220 0.22188
225 0.249918
230 0.266066
235 0.212734
240 0.232956
245 0.257042
250 0.277189
255 0.257513
260 0.237061
265 0.212719
270 0.203642
275 0.221829
280 0.193743
285 0.272049
290 0.30188
295 0.240043
300 0.260696
305 0.246198
310 0.425717
315 0.366689
320 0.312956
325 0.248808
330 0.311756
335 0.322572
340 0.386273
345 0.430115
350 0.483187
355 0.546262
360 0.914094
365 16.1118
370 273.594
375 439.499
380 115.461
385 17.5619
390 8.89796
395 9.25003
400 8.29577
405 7.91907
410 9.1683
415 12.0515
420 14.6114
425 12.7256
430 10.5282
435 9.5326
440 9.38613
445 9.15989
450 8.47599
455 7.70295
460 7.30178
465 7.01063
470 6.56074
475 6.26162
480 5.76797
485 5.39995
490 5.11869
495 4.61403
500 4.27993
505 4.01459
510 3.90187
515 3.57061
520 2.96802
525 2.73467
530 2.45604
535 2.27595
540 2.12865
545 1.87454
550 1.60047
555 1.38772
560 1.37938
565 1.1761
570 1.06664
575 0.952266
580 0.899198
585 0.723799
590 0.619417
595 0.545452
600 0.279989
Ex : 383
200 0.379377
205 0.281477
210 0.250322
215 0.284568
220 0.229814
225 0.294643
230 0.264298
235 0.175494
240 0.158024
245 0.238107
250 0.233447
255 0.23129
260 0.185575
265 0.214431
270 0.168193
275 0.265128
280 0.262844
285 0.256774
290 0.252119
295 0.322514
300 0.320996
305 0.278386
310 0.300677
315 0.323389
320 0.264795
325 0.259021
330 0.324905
335 0.261436
340 0.29652
345 0.353807
350 0.382887
355 0.512962
360 0.637476
365 0.819894
370 14.3262
375 265.521
380 449.206
385 121.541
390 20.8139
395 9.36605
400 8.12557
405 8.88527
410 9.9421
415 10.3158
420 10.6941
425 12.1301
430 12.2861
435 11.0313
440 10.0227
445 9.35882
450 8.13583
455 7.56272
460 7.23757
465 6.86446
470 6.51664
475 6.33387
480 5.80607
485 5.54988
490 5.34065
495 4.78143
500 4.32083
505 4.20012
510 3.59699
515 3.35196
520 2.97425
525 2.79767
530 2.57833
535 2.37095
540 2.13407
545 1.9167
550 1.75072
555 1.43176
560 1.23108
565 1.25793
570 0.998155
575 0.87319
580 0.760674
585 0.645842
590 0.551789
595 0.556489
600 0.654129
Ex : 388
200 0.208707
205 0.219924
210 0.245653
215 0.21361
220 0.236733
225 0.272548
230 0.245642
235 0.259259
240 0.276312
245 0.25662
250 0.252464
255 0.208139
260 0.291883
265 0.266872
270 0.263618
275 0.219107
280 0.237953
285 0.200334
290 0.230881
295 0.207844
300 0.222371
305 0.241844
310 0.248813
315 0.194929
320 0.232674
325 0.198387
330 0.248419
335 0.235365
340 0.423834
345 0.379644
350 0.253659
355 0.397167
360 0.403327
365 0.443423
370 0.700054
375 15.3018
380 277.599
385 453.631
390 123.861
395 23.1437
400 10.6031
405 10.0169
410 11.8702
415 12.9413
420 12.1723
425 11.1044
430 12.2841
435 13.2036
440 12.2316
445 11.0762
450 9.37221
455 8.23095
460 7.61434
465 7.44597
470 6.68538
475 6.69432
480 6.18704
485 5.68732
490 5.44498
495 4.92932
500 4.5302
505 4.02452
510 3.99904
515 3.52161
520 3.01924
525 2.78184
530 2.62418
535 2.29031
540 2.11161
545 1.98489
550 1.56059
555 1.58004
560 1.39925
565 1.22476
570 1.00083
575 0.978801
580 0.829832
585 0.687388
590 0.610968
595 0.499532
600 0.140449
Ex : 393
200 0.191294
205 0.261799
210 0.28514
215 0.178598
220 0.228574
225 0.25572
230 0.224793
235 0.243153
240 0.28424
245 0.226286
250 0.265544
255 0.237062
260 0.258249
265 0.216093
270 0.31251
275 0.246567
280 0.274239
285 0.291227
290 0.250795
295 0.266712
300 0.251165
305 0.265499
310 0.275965
315 0.248612
320 0.342341
325 0.301686
330 0.34073
335 0.247257
340 0.260205
345 0.263093
350 0.280022
355 0.363529
360 0.355957
365 0.45002
370 0.529873
375 1.00555
380 13.9109
385 269.801
390 457.326
395 128.52
400 22.9498
405 10.8988
410 10.5284
415 13.0605
420 13.0061
425 10.8107
430 9.39827
435 10.6952
440 12.7054
445 11.8214
450 10.0306
455 8.22541
460 7.21148
465 6.68628
470 6.51718
475 6.14508
480 5.91387
485 5.50125
490 4.96789
495 4.81249
500 4.33542
505 4.01708
510 3.71876
515 3.33313
520 3.10207
525 2.71897
530 2.60815
535 2.37771
540 2.182
545 1.83047
550 1.74748
555 1.46577
560 1.28453
565 1.1663
570 1.04969
575 0.937014
580 0.791591
585 0.607083
590 0.52068
595 0.442341
600 0.233254
Ex : 398
200 0.177584
205 0.244286
210 0.190902
215 0.159804
220 0.172811
225 0.207155
230 0.184524
235 0.244203
240 0.175502
245 0.17657
250 0.261257
255 0.25979
260 0.164859
265 0.172951
270 0.25907
275 0.185934
280 0.219551
285 0.228266
290 0.245288
295 0.268438
300 0.187948
305 0.348349
310 0.260442
315 0.211624
320 0.187328
325 0.29016
330 0.309363
335 0.234498
340 0.244893
345 0.292395
350 0.270598
355 0.30189
360 0.331787
365 0.374181
370 0.386893
375 0.602694
380 0.908957
385 14.7611
390 272.111
395 456.591
400 122.758
405 19.187
410 7.86805
415 8.38803
420 8.70964
425 7.46645
430 6.41506
435 6.25676
440 7.35246
445 9.59463
450 8.59722
455 6.95704
460 6.27711
465 5.38558
470 5.09933
475 5.25655
480 4.8417
485 4.72091
490 4.28034
495 3.98251
500 3.70646
505 3.44487
510 3.33796
515 3.03853
520 2.71977
525 2.62488
530 2.41781
535 2.1129
540 2.03864
545 1.79124
550 1.59277
555 1.44756
560 1.23675
565 1.21204
570 0.96503
575 0.895255
580 0.675433
585 0.5151
590 0.488782
595 0.465579
600 0.688144
Ex : 403
200 0.201586
205 0.181015
210 0.242168
215 0.288079
220 0.31646
225 0.200674
230 0.235685
235 0.21138
240 0.234654
245 0.178442
250 0.204079
255 0.204502
260 0.186527
265 0.242146
270 0.20715
275 0.256028
280 0.202916
285 0.201736
290 0.174627
295 0.221647
300 0.183889
305 0.217108
310 0.1949
315 0.227442
320 0.294625
325 0.176891
330 0.197182
335 0.312071
340 0.246561
345 0.274945
350 0.268506
355 0.323656
360 0.332882
365 0.329673
370 0.433114
375 0.470427
380 0.634045
385 1.03491
390 16.1075
395 279.319
400 449.787
405 121.089
410 17.3856
415 6.08046
420 4.82052
425 4.50048
430 4.12098
435 3.95977
440 4.43236
445 4.94203
450 6.92433
455 7.11772
460 5.66448
465 5.18194
470 4.67408
475 4.56804
480 4.28381
485 4.15469
490 3.80951
495 3.83975
500 3.39734
505 3.32984
510 2.93381
515 2.83639
520 2.68505
525 2.51121
530 2.2945
535 2.07318
540 2.01266
545 1.67907
550 1.57687
555 1.32598
560 1.26867
565 1.0734
570 0.992198
575 0.908299
580 0.669272
585 0.615439
590 0.515272
595 0.437828
600 0.88177
Ex : 408
200 0.170063
205 0.20388
210 0.224242
215 0.133902
220 0.260818
225 0.196898
230 0.224313
235 0.155958
240 0.206941
245 0.225406
250 0.236894
255 0.233949
260 0.244863
265 0.274228
270 0.273759
275 0.188147
280 0.228736
285 0.24101
290 0.190699
295 0.219896
300 0.217239
305 0.190404
310 0.180322
315 0.186151
320 0.199157
325 0.28094
330 0.294921
335 0.237043
340 0.175104
345 0.252729
350 0.253976
355 0.197313
360 0.22806
365 0.293549
370 0.266895
375 0.330291
380 0.416086
385 0.504257
390 0.850883
395 15.534
400 277.181
405 449.479
410 117.577
415 17.0065
420 5.61283
425 3.94777
430 4.02329
435 4.05023
440 3.93726
445 4.25733
450 4.56305
455 6.07238
460 7.07175
465 5.83865
470 5.42816
475 4.79346
480 4.36295
485 4.22461
490 3.89426
495 3.75461
500 3.62961
505 3.21988
510 3.19789
515 2.84193
520 2.6949
525 2.53024
530 2.42506
535 2.00754
540 1.99469
545 1.68574
550 1.54902
555 1.43597
560 1.23863
565 1.30044
570 1.10309
575 0.897878
580 0.755899
585 0.599076
590 0.616802
595 0.532504
600 0.623456
Ex : 413
200 0.227945
205 0.222772
210 0.200337
215 0.182466
220 0.200555
225 0.236056
230 0.214644
235 0.199774
240 0.212191
245 0.209562
250 0.189252
255 0.17561
260 0.227474
265 0.218038
270 0.21551
275 0.254668
280 0.191885
285 0.221672
290 0.187476
295 0.226207
300 0.241498
305 0.194328
310 0.231899
315 0.228035
320 0.23899
325 0.248677
330 0.247371
335 0.224888
340 0.282531
345 0.240413
350 0.271526
355 0.293618
360 0.290327
365 0.29192
370 0.322542
375 0.304755
380 0.337618
385 0.462701
390 0.647504
395 0.84754
400 17.0393
405 290.883
410 449.001
415 114.217
420 16.3038
425 4.76432
430 3.5068
435 3.83651
440 4.04582
445 3.87389
450 3.78178
455 3.77161
460 4.76567
465 6.50032
470 5.80966
475 4.7962
480 4.34498
485 3.89453
490 3.57419
495 3.59855
500 3.28121
505 3.06081
510 2.82167
515 2.69972
520 2.50045
525 2.43727
530 2.31077
535 2.07542
540 1.9146
545 1.84081
550 1.62366
555 1.44097
560 1.25195
565 1.14335
570 0.994352
575 0.828667
580 0.743495
585 0.581677
590 0.491335
595 0.467993
600 0.604218
Ex : 418
200 0.176792
205 0.155474
210 0.141692
215 0.207154
220 0.210047
225 0.159098
230 0.165088
235 0.200829
240 0.201995
245 0.184082
250 0.247981
255 0.195991
260 0.208792
265 0.225989
270 0.295559
275 0.210357
280 0.206344
285 0.173422
290 0.182108
295 0.226247
300 0.222649
305 0.217179
310 0.223375
315 0.230982
320 0.272336
325 0.227521
330 0.280467
335 0.222966
340 0.229241
345 0.213512
350 0.244087
355 0.247557
360 0.295869
365 0.28706
370 0.258331
375 0.311968
380 0.411827
385 0.380146
390 0.358558
395 0.582858
400 0.800133
405 15.5872
410 281.855
415 449.449
420 116.813
425 15.5624
430 3.87482
435 2.67595
440 3.07406
445 3.02659
450 2.71319
455 2.63295
460 2.8179
465 3.48394
470 5.51218
475 5.60662
480 4.47837
485 3.86369
490 3.41072
495 3.0452
500 2.87791
505 2.78444
510 2.53733
515 2.59095
520 2.54766
525 2.26649
530 2.05987
535 1.88884
540 1.74541
545 1.4431
550 1.46143
555 1.43121
560 1.21329
565 1.08077
570 0.954361
575 0.868286
580 0.72807
585 0.626663
590 0.501513
595 0.512133
600 0.326472
Ex : 423
200 0.186464
205 0.156123
210 0.168736
215 0.161666
220 0.203696
225 0.255934
230 0.188305
235 0.171779
240 0.234619
245 0.209828
250 0.167498
255 0.19416
260 0.191457
265 0.149648
270 0.220359
275 0.201829
280 0.209025
285 0.236041
290 0.160132
295 0.219007
300 0.196526
305 0.175538
310 0.204587
315 0.187535
320 0.211351
325 0.249434
330 0.261688
335 0.305629
340 0.284993
345 0.257031
350 0.221173
355 0.279835
360 0.257157
365 0.217242
370 0.21392
375 0.252167
380 0.322287
385 0.306189
390 0.349845
395 0.418923
400 0.547605
405 0.73976
410 16.0102
415 289.747
420 444.192
425 110.041
430 14.4325
435 3.32552
440 2.0949
445 2.08689
450 2.2268
455 2.05434
460 2.03571
465 2.23038
470 2.67819
475 4.4051
480 5.34399
485 3.96659
490 3.4314
495 3.1125
500 2.64
505 2.53066
510 2.33486
515 2.26645
520 2.10118
525 2.1006
530 1.8118
535 1.72842
540 1.62737
545 1.4623
550 1.38387
555 1.27881
560 1.25938
565 1.11749
570 0.855229
575 0.71602
580 0.784346
585 0.599764
590 0.530081
595 0.495728
600 0.31586
Ex : 428
200 0.24518
205 0.27546
210 0.197023
215 0.16197
220 0.218098
225 0.195711
230 0.227992
235 0.206203
240 0.223888
245 0.166957
250 0.214555
255 0.252133
260 0.226184
265 0.177799
270 0.196719
275 0.193465
280 0.215739
285 0.242917
290 0.223922
295 0.198284
300 0.282353
305 0.275457
310 0.265011
315 0.192795
320 0.191022
325 0.218329
330 0.230563
335 0.245652
340 0.238962
345 0.206863
350 0.242826
355 0.232569
360 0.248248
365 0.208295
370 0.21875
375 0.280501
380 0.259954
385 0.318314
390 0.34862
395 0.371456
400 0.421686
405 0.625697
410 0.872478
415 17.3591
420 288.079
425 439.574
430 112.221
435 14.4677
440 3.06402
445 1.80804
450 2.0019
455 2.03267
460 1.8358
465 1.78249
470 2.05578
475 2.31887
480 3.60428
485 4.7854
490 3.83499
495 3.24111
500 2.89516
505 2.58057
510 2.29298
515 2.09352
520 2.02233
525 1.89958
530 1.90577
535 1.68572
540 1.63254
545 1.41871
550 1.45981
555 1.28807
560 1.08472
565 1.13599
570 0.935286
575 0.820478
580 0.67105
585 0.687348
590 0.58054
595 0.499744
600 0.118903
Ex : 433
200 0.225245
205 0.193158
210 0.201811
215 0.312471
220 0.287872
225 0.248519
230 0.180216
235 0.253199
240 0.259918
245 0.250636
250 0.226888
255 0.235425
260 0.26131
265 0.25087
270 0.235652
275 0.268711
280 0.203336
285 0.276527
290 0.168242
295 0.18356
300 0.247691
305 0.267921
310 0.241321
315 0.218185
320 0.243479
325 0.220523
330 0.25578
335 0.212789
340 0.234365
345 0.174966
350 0.1862
355 0.231385
360 0.213482
365 0.24523
370 0.205739
375 0.297975
380 0.35517
385 0.339657
390 0.412789
395 0.379609
400 0.360721
405 0.512117
410 0.592382
415 0.807729
420 19.3863
425 304.583
430 449.849
435 109.853
440 14
445 2.84978
450 1.60517
455 1.7589
460 1.8541
465 1.83908
470 1.76363
475 1.80977
480 1.9938
485 2.82533
490 4.75876
495 4.13304
500 3.10546
505 2.78583
510 2.33903
515 2.11887
520 2.09062
525 1.77917
530 1.72435
535 1.67075
540 1.70945
545 1.44832
550 1.46119
555 1.33091
560 1.2304
565 1.07151
570 0.914605
575 0.836072
580 0.663024
585 0.496749
590 0.478605
595 0.506271
600 0.210302
Ex : 438
200 0.24246
205 0.20538
210 0.224155
215 0.278585
220 0.238034
225 0.187948
230 0.25244
235 0.18272
240 0.173559
245 0.163843
250 0.274586
255 0.245153
260 0.19729
265 0.18436
270 0.209852
275 0.277317
280 0.214868
285 0.192404
290 0.153676
295 0.199343
300 0.259894
305 0.154348
310 0.159853
315 0.213767
320 0.261851
325 0.20977
330 0.217501
335 0.26492
340 0.231674
345 0.263161
350 0.219858
355 0.192876
360 0.287125
365 0.268303
370 0.182177
375 0.239993
380 0.26139
385 0.256962
390 0.310491
395 0.29154
400 0.348076
405 0.374977
410 0.461198
415 0.539844
420 0.861946
425 17.7176
430 298.466
435 468.607
440 114.549
445 14.5397
450 2.92268
455 1.63391
460 1.84574
465 1.93038
470 1.78128
475 1.67388
480 1.80077
485 1.92518
490 2.21048
495 3.73041
500 4.0581
505 3.08571
510 2.59483
515 2.35332
520 2.08207
525 1.87428
530 1.71056
535 1.72025
540 1.60259
545 1.35662
550 1.37827
555 1.3811
560 1.25289
565 1.10672
570 0.939983
575 0.701492
580 0.684267
585 0.65899
590 0.496071
595 0.461384
600 0.925348
Ex : 443
200 0.319398
205 0.184436
210 0.243878
215 0.242695
220 0.233691
225 0.22614
230 0.19524
235 0.198256
240 0.202079
245 0.199017
250 0.15633
255 0.238153
260 0.295351
265 0.26979
270 0.270247
275 0.251667
280 0.18545
285 0.202219
290 0.244236
295 0.18749
300 0.295827
305 0.223249
310 0.208875
315 0.22609
320 0.210701
325 0.214828
330 0.219156
335 0.294603
340 0.261078
345 0.260136
350 0.298543
355 0.223228
360 0.286704
365 0.257808
370 0.273504
375 0.255064
380 0.27044
385 0.293467
390 0.312506
395 0.224014
400 0.29359
405 0.291519
410 0.39765
415 0.486069
420 0.586498
425 0.78153
430 19.6791
435 320.242
440 470.476
445 114.768
450 14.586
455 3.12495
460 1.78923
465 1.78053
470 1.89151
475 1.78727
480 1.68044
485 1.69506
490 1.90125
495 2.06579
500 3.48719
505 4.09792
510 2.97815
515 2.59984
520 2.34189
525 1.92862
530 1.68659
535 1.58794
540 1.61261
545 1.46652
550 1.50102
555 1.32099
560 1.14558
565 1.03263
570 0.82704
575 0.738461
580 0.702923
585 0.578044
590 0.510005
595 0.455433
600 0.191434
Ex : 448
200 0.181427
205 0.246275
210 0.216361
215 0.237278
220 0.224992
225 0.235733
230 0.265118
235 0.205455
240 0.209594
245 0.248211
250 0.254846
255 0.226701
260 0.266155
265 0.258864
270 0.256064
275 0.206423
280 0.267348
285 0.240746
290 0.214847
295 0.156759
300 0.178841
305 0.244155
310 0.244339
315 0.241653
320 0.24627
325 0.167883
330 0.242663
335 0.225222
340 0.276075
345 0.261044
350 0.257578
355 0.290453
360 0.267028
365 0.239357
370 0.262761
375 0.301938
380 0.237829
385 0.312636
390 0.243735
395 0.286919
400 0.340089
405 0.324417
410 0.351178
415 0.383676
420 0.475517
425 0.540526
430 0.832546
435 20.5752
440 326.092
445 482.125
450 118.218
455 15.0458
460 3.19938
465 1.8099
470 1.70518
475 1.84117
480 1.64139
485 1.57993
490 1.56311
495 1.72315
500 1.75606
505 2.67098
510 3.87978
515 3.29354
520 2.45508
525 2.17133
530 1.88727
535 1.54512
540 1.43258
545 1.42947
550 1.37979
555 1.11788
560 1.13938
565 0.972041
570 0.895646
575 0.794945
580 0.721438
585 0.590407
590 0.571551
595 0.424427
600 0.148109
Ex : 453
200 0.182669
205 0.208117
210 0.168065
215 0.146276
220 0.183049
225 0.200596
230 0.235334
235 0.267855
240 0.201845
245 0.189506
250 0.174032
255 0.180522
260 0.196568
265 0.215028
270 0.242705
275 0.210875
280 0.225944
285 0.244341
290 0.235683
295 0.24989
300 0.19726
305 0.198206
310 0.234592
315 0.190123
320 0.205607
325 0.261477
330 0.226574
335 0.234751
340 0.244495
345 0.258223
350 0.231948
355 0.216594
360 0.272535
365 0.255356
370 0.234518
375 0.184686
380 0.244281
385 0.247175
390 0.297514
395 0.304008
400 0.281849
405 0.280363
410 0.259
415 0.290924
420 0.391483
425 0.410883
430 0.463152
435 0.701934
440 20.8905
445 350.879
450 496.729
455 114.28
460 14.5218
465 3.16927
470 1.65206
475 1.56237
480 1.77031
485 1.79194
490 1.64724
495 1.53184
500 1.52485
505 1.49413
510 2.05897
515 3.69619
520 3.32917
525 2.30944
530 1.99235
535 1.79401
540 1.59394
545 1.36198
550 1.2498
555 1.36385
560 1.09449
565 0.985534
570 0.896879
575 0.740114
580 0.667806
585 0.586853
590 0.554842
595 0.46304
600 0.610886
Ex : 458
200 0.186708
205 0.21241
210 0.210644
215 0.191541
220 0.252303
225 0.244268
230 0.199017
235 0.213879
240 0.200402
245 0.24136
250 0.261493
255 0.233247
260 0.212697
265 0.257587
270 0.226168
275 0.225073
280 0.181592
285 0.207666
290 0.213937
295 0.230757
300 0.219057
305 0.214189
310 0.266434
315 0.209164
320 0.215375
325 0.212623
330 0.22683
335 0.230738
340 0.213541
345 0.309737
350 0.219487
355 0.253716
360 0.268369
365 0.23763
370 0.204396
375 0.262824
380 0.2979
385 0.281662
390 0.255434
395 0.280278
400 0.271634
405 0.291815
410 0.308821
415 0.281707
420 0.310999
425 0.374777
430 0.43034
435 0.60794
440 0.835978
445 23.1874
450 360.087
455 530.096
460 124.869
465 15.776
470 3.23332
475 1.49507
480 1.55313
485 1.83258
490 1.79867
495 1.60325
500 1.38932
505 1.39449
510 1.55031
515 1.67116
520 2.77989
525 3.57099
530 2.46744
535 2.13451
540 2.00769
545 1.77761
550 1.31719
555 1.16945
560 1.1342
565 0.983941
570 0.874404
575 0.75401
580 0.670941
585 0.559953
590 0.489392
595 0.457849
600 0.611183
Ex : 463
200 0.1896
205 0.170012
210 0.257599
215 0.184441
220 0.216454
225 0.193912
230 0.192338
235 0.210235
240 0.158497
245 0.177316
250 0.150154
255 0.222688
260 0.225267
265 0.166046
270 0.204705
275 0.202507
280 0.193011
285 0.214402
290 0.194295
295 0.162076
300 0.233263
305 0.14991
310 0.195619
315 0.214244
320 0.199901
325 0.241037
330 0.243583
335 0.194325
340 0.211234
345 0.245355
350 0.241178
355 0.278481
360 0.222416
365 0.25291
370 0.183821
375 0.257506
380 0.266778
385 0.261438
390 0.275804
395 0.314194
400 0.249449
405 0.288348
410 0.29062
415 0.266685
420 0.25435
425 0.271591
430 0.339825
435 0.452375
440 0.581159
445 0.803018
450 22.3558
455 366.292
460 541.313
465 128.114
470 16.2777
475 3.25838
480 1.61193
485 1.45549
490 1.73603
495 1.67982
500 1.5336
505 1.36385
510 1.31927
515 1.43733
520 1.46282
525 2.29382
530 3.30648
535 2.81915
540 1.92623
545 1.93075
550 1.46123
555 1.3685
560 1.11273
565 0.981185
570 0.879337
575 0.784396
580 0.679886
585 0.591664
590 0.593829
595 0.406886
600 0.599138
Ex : 468
200 0.157831
205 0.190678
210 0.158005
215 0.173174
220 0.174069
225 0.152148
230 0.153314
235 0.155592
240 0.173676
245 0.152317
250 0.197647
255 0.17765
260 0.221187
265 0.174521
270 0.200801
275 0.227869
280 0.146619
285 0.161305
290 0.14729
295 0.186383
300 0.19684
305 0.164842
310 0.209381
315 0.194538
320 0.214139
325 0.183435
330 0.197561
335 0.209966
340 0.181352
345 0.156013
350 0.218806
355 0.198908
360 0.182706
365 0.188551
370 0.209839
375 0.243145
380 0.209757
385 0.217262
390 0.250825
395 0.160249
400 0.256108
405 0.225634
410 0.249547
415 0.276125
420 0.310808
425 0.293099
430 0.295823
435 0.31536
440 0.378097
445 0.528496
450 0.856007
455 25.0083
460 384.945
465 571.457
470 133.705
475 16.6789
480 3.30554
485 1.66705
490 1.40024
495 1.5803
500 1.55837
505 1.43409
510 1.3168
515 1.29466
520 1.44458
525 1.58704
530 1.94513
535 3.0605
540 3.0593
545 1.95212
550 1.68827
555 1.53245
560 1.30387
565 1.10166
570 0.962342
575 0.721938
580 0.715942
585 0.537266
590 0.56825
595 0.416599
600 0.58608
Ex : 473
200 0.202673
205 0.182579
210 0.177479
215 0.177365
220 0.214391
225 0.177094
230 0.195406
235 0.219043
240 0.188543
245 0.205669
250 0.178284
255 0.192966
260 0.20829
265 0.151269
270 0.205351
275 0.224498
280 0.169161
285 0.233308
290 0.223441
295 0.285301
300 0.188889
305 0.190643
310 0.20701
315 0.255565
320 0.213031
325 0.208603
330 0.20044
335 0.203239
340 0.259163
345 0.201505
350 0.225431
355 0.258928
360 0.249468
365 0.224811
370 0.223176
375 0.251764
380 0.24539
385 0.220049
390 0.263553
395 0.20614
400 0.277746
405 0.232927
410 0.253423
415 0.333969
420 0.264913
425 0.240436
430 0.289588
435 0.29208
440 0.327347
445 0.36742
450 0.495972
455 0.7927
460 27.617
465 402.142
470 552.621
475 125.02
480 15.6135
485 3.11462
490 1.55112
495 1.24629
500 1.48053
505 1.42699
510 1.5218
515 1.32817
520 1.34418
525 1.34072
530 1.42948
535 1.64229
540 2.51525
545 2.86864
550 2.13722
555 1.55473
560 1.52623
565 1.28834
570 0.991134
575 0.816082
580 0.750659
585 0.609887
590 0.448476
595 0.493754
600 0.96102
Ex : 478
200 0.319733
205 0.288171
210 0.21765
215 0.254212
220 0.240852
225 0.2804
230 0.274289
235 0.224857
240 0.235625
245 0.238061
250 0.219753
255 0.260037
260 0.239035
265 0.315131
270 0.208184
275 0.242156
280 0.23197
285 0.220504
290 0.199982
295 0.262326
300 0.201113
305 0.293875
310 0.213106
315 0.230305
320 0.198553
325 0.206257
330 0.212414
335 0.303837
340 0.239108
345 0.27658
350 0.261253
355 0.231752
360 0.271889
365 0.287783
370 0.293533
375 0.272951
380 0.209887
385 0.303482
390 0.320062
395 0.325918
400 0.225562
405 0.320889
410 0.319418
415 0.327628
420 0.307155
425 0.324938
430 0.38149
435 0.403551
440 0.402412
445 0.413657
450 0.540583
455 0.655799
460 1.00314
465 30.8924
470 413.519
475 559.291
480 133.277
485 16.6157
490 3.07881
495 1.56909
500 1.22355
505 1.3686
510 1.64488
515 1.50738
520 1.37662
525 1.42117
530 1.50851
535 1.56365
540 1.46819
545 2.00117
550 2.78197
555 2.41799
560 1.75237
565 1.32599
570 1.25333
575 1.02397
580 0.772611
585 0.618992
590 0.618238
595 0.554256
600 0.515877
Ex : 483
200 0.269615
205 0.241642
210 0.187465
215 0.177428
220 0.162991
225 0.224114
230 0.266288
235 0.300768
240 0.197444
245 0.213546
250 0.22593
255 0.199727
260 0.195792
265 0.298715
270 0.236742
275 0.185979
280 0.284933
285 0.212491
290 0.22706
295 0.231723
300 0.335244
305 0.248956
310 0.257135
315 0.280874
320 0.226634
325 0.290844
330 0.238694
335 0.304039
340 0.326848
345 0.262755
350 0.243403
355 0.291744
360 0.282216
365 0.275485
370 0.245491
375 0.243149
380 0.264324
385 0.301786
390 0.251714
395 0.273782
400 0.268306
405 0.294413
410 0.379083
415 0.365003
420 0.301499
425 0.316412
430 0.321979
435 0.275957
440 0.339473
445 0.436106
450 0.447401
455 0.499809
460 0.723477
465 1.04173
470 23.517
475 401.391
480 598.965
485 141.555
490 17.5958
495 3.38357
500 1.4967
505 1.26365
510 1.40709
515 1.55452
520 1.50655
525 1.49148
530 1.35762
535 1.41796
540 1.44618
545 1.43549
550 1.43407
555 2.37966
560 2.4986
565 1.65966
570 1.27288
575 1.11698
580 0.927891
585 0.675238
590 0.581662
595 0.516402
600 0.332914
Ex : 488
200 0.231328
205 0.251806
210 0.276245
215 0.291638
220 0.149308
225 0.275695
230 0.237741
235 0.191296
240 0.230809
245 0.331944
250 0.284398
255 0.298745
260 0.33931
265 0.258573
270 0.250358
275 0.297689
280 0.260788
285 0.244387
290 0.189917
295 0.226775
300 0.26646
305 0.221345
310 0.249335
315 0.263927
320 0.244897
325 0.232929
330 0.273829
335 0.268166
340 0.318297
345 0.280667
350 0.219054
355 0.277896
360 0.278896
365 0.347673
370 0.258728
375 0.313062
380 0.320912
385 0.24148
390 0.271917
395 0.294589
400 0.311861
405 0.345429
410 0.285348
415 0.312433
420 0.303002
425 0.368813
430 0.326479
435 0.310525
440 0.313848
445 0.316315
450 0.430329
455 0.455261
460 0.587176
465 0.78796
470 1.09206
475 27.9631
480 435.218
485 593.34
490 137.7
495 17.1201
500 3.2809
505 1.45431
510 1.18895
515 1.51199
520 1.7044
525 1.81777
530 1.55144
535 1.58159
540 1.40838
545 1.27282
550 1.3767
555 1.38023
560 1.89335
565 2.1323
570 1.58359
575 1.04688
580 0.962126
585 0.86034
590 0.643214
595 0.561115
600 0.26316
Ex : 493
200 0.276586
205 0.235684
210 0.239194
215 0.22422
220 0.28014
225 0.270181
230 0.274602
235 0.275634
240 0.230386
245 0.307401
250 0.246298
255 0.27246
260 0.309268
265 0.231675
270 0.267251
275 0.262983
280 0.229412
285 0.268821
290 0.225701
295 0.290791
300 0.236728
305 0.215996
310 0.282214
315 0.267134
320 0.238727
325 0.306998
330 0.262465
335 0.251588
340 0.245056
345 0.264932
350 0.210934
355 0.333976
360 0.229094
365 0.287551
370 0.211231
375 0.263339
380 0.35097
385 0.292256
390 0.28857
395 0.277678
400 0.364423
405 0.316868
410 0.325746
415 0.286522
420 0.307032
425 0.279854
430 0.327954
435 0.307857
440 0.276532
445 0.414197
450 0.380192
455 0.469127
460 0.404458
465 0.577324
470 0.743537
475 0.819357
480 27.1944
485 438.031
490 630.629
495 141.604
500 17.5424
505 3.26076
510 1.58477
515 1.3421
520 1.46995
525 1.84684
530 1.67579
535 1.48613
540 1.47796
545 1.35982
550 1.40958
555 1.25987
560 1.14222
565 1.40942
570 2.05046
575 1.88199
580 1.14658
585 0.86043
590 0.847791
595 0.631552
600 0.280073
Ex : 498
200 0.337858
205 0.248265
210 0.288916
215 0.35264
220 0.312525
225 0.324797
230 0.280891
235 0.258377
240 0.278618
245 0.273638
250 0.280747
255 0.352079
260 0.241761
265 0.224791
270 0.262838
275 0.212139
280 0.357564
285 0.29261
290 0.305867
295 0.320165
300 0.330241
305 0.270433
310 0.28009
315 0.26341
320 0.286978
325 0.245316
330 0.257095
335 0.310174
340 0.286556
345 0.228928
350 0.276961
355 0.341882
360 0.341712
365 0.243372
370 0.288183
375 0.302791
380 0.381832
385 0.307119
390 0.27759
395 0.300898
400 0.340702
405 0.290382
410 0.300572
415 0.395152
420 0.361193
425 0.284856
430 0.39455
435 0.405853
440 0.389189
445 0.3892
450 0.386177
455 0.387416
460 0.478727
465 0.510949
470 0.608518
475 0.863203
480 1.06381
485 31.3607
490 461.118
495 601.887
500 136.895
505 16.9911
510 3.26688
515 1.70008
520 1.40437
525 1.58054
530 1.81768
535 1.61106
540 1.54677
545 1.3614
550 1.33681
555 1.33706
560 1.18022
565 1.14084
570 1.16435
575 1.62601
580 1.54673
585 1.03931
590 0.813827
595 0.600604
600 0.626616
Ex : 503
200 0.28387
205 0.284602
210 0.30029
215 0.343285
220 0.321836
225 0.342508
230 0.315617
235 0.294911
240 0.30443
245 0.279879
250 0.30798
255 0.297099
260 0.28026
265 0.306457
270 0.295204
275 0.246358
280 0.305111
285 0.239893
290 0.273611
295 0.442716
300 0.37587
305 0.287014
310 0.280278
315 0.24821
320 0.301337
325 0.304192
330 0.340312
335 0.315044
340 0.30316
345 0.330563
350 0.295889
355 0.266408
360 0.3359
365 0.345973
370 0.276012
375 0.324947
380 0.289734
385 0.409637
390 0.37461
395 0.312274
400 0.29318
405 0.34468
410 0.3545
415 0.387942
420 0.416902
425 0.285016
430 0.31537
435 0.361095
440 0.331501
445 0.371038
450 0.350433
455 0.355155
460 0.51313
465 0.530928
470 0.546536
475 0.63033
480 0.698517
485 1.15142
490 28.2312
495 458.701
500 617.649
505 139.442
510 17.3561
515 3.2591
520 1.83796
525 1.47098
530 1.5412
535 1.55746
540 1.68121
545 1.43441
550 1.19261
555 1.18723
560 1.01115
565 1.1218
570 0.963331
575 0.967037
580 1.17657
585 1.39063
590 0.972797
595 0.750731
600 0.322583
Ex : 508
200 0.314405
205 0.318361
210 0.307716
215 0.334688
220 0.301379
225 0.335701
230 0.274572
235 0.369725
240 0.310881
245 0.337283
250 0.268153
255 0.251048
260 0.333958
265 0.320582
270 0.272753
275 0.263658
280 0.349381
285 0.328492
290 0.424234
295 0.258791
300 0.333377
305 0.331677
310 0.349312
315 0.327583
320 0.327272
325 0.39557
330 0.423118
335 0.385237
340 0.294618
345 0.349814
350 0.33342
355 0.284584
360 0.331048
365 0.305461
370 0.270444
375 0.298053
380 0.37523
385 0.415147
390 0.465088
395 0.31219
400 0.397686
405 0.365239
410 0.437195
415 0.395665
420 0.315033
425 0.385719
430 0.485899
435 0.420024
440 0.323547
445 0.326939
450 0.419426
455 0.434662
460 0.432385
465 0.445937
470 0.481058
475 0.579347
480 0.674263
485 0.817733
490 1.19163
495 31.7298
500 454.341
505 625.329
510 149.542
515 18.5323
520 3.56503
525 1.79246
530 1.69727
535 1.55991
540 1.55164
545 1.41418
550 1.37898
555 1.20654
560 1.07977
565 1.18141
570 1.04189
575 0.869298
580 0.812965
585 0.901163
590 1.19071
595 1.02679
600 0.155752
Ex : 513
200 0.350587
205 0.311419
210 0.347387
215 0.358129
220 0.301188
225 0.332422
230 0.259054
235 0.411528
240 0.315748
245 0.298232
250 0.278117
255 0.251753
260 0.315706
265 0.325844
270 0.291551
275 0.314278
280 0.354267
285 0.431987
290 0.357362
295 0.33948
300 0.274974
305 0.383668
310 0.365478
315 0.431895
320 0.360123
325 0.267602
330 0.431487
335 0.40674
340 0.313696
345 0.328677
350 0.360848
355 0.356424
360 0.385135
365 0.333381
370 0.421674
375 0.344208
380 0.382636
385 0.318058
390 0.412152
395 0.36125
400 0.380037
405 0.392537
410 0.351255
415 0.334446
420 0.400548
425 0.345122
430 0.346637
435 0.339384
440 0.348765
445 0.36433
450 0.374693
455 0.418263
460 0.406375
465 0.473547
470 0.482762
475 0.490517
480 0.552492
485 0.741682
490 0.762643
495 1.02418
500 28.4384
505 445.948
510 627.306
515 149.699
520 18.6381
525 3.56477
530 1.69142
535 1.66227
540 1.48828
545 1.39322
550 1.49967
555 1.37302
560 1.15905
565 0.984164
570 0.874584
575 0.865115
580 0.794942
585 0.673152
590 0.64367
595 0.860664
600 1.09765
Ex : 518
200 0.316169
205 0.341859
210 0.270696
215 0.317445
220 0.270461
225 0.352189
230 0.343847
235 0.402973
240 0.320767
245 0.412221
250 0.38537
255 0.324365
260 0.384215
265 0.329086
270 0.309061
275 0.294093
280 0.332131
285 0.225406
290 0.320941
295 0.344162
300 0.388475
305 0.312677
310 0.256746
315 0.429137
320 0.355795
325 0.338798
330 0.374003
335 0.31152
340 0.387223
345 0.298619
350 0.337883
355 0.28892
360 0.314178
365 0.352057
370 0.421805
375 0.36413
380 0.364917
385 0.414432
390 0.394372
395 0.374477
400 0.353034
405 0.346865
410 0.258457
415 0.358357
420 0.298983
425 0.379057
430 0.377157
435 0.380794
440 0.402121
445 0.434284
450 0.386711
455 0.28758
460 0.421812
465 0.470301
470 0.435149
475 0.398981
480 0.439308
485 0.405172
490 0.61344
495 0.773635
500 1.08956
505 29.09
510 425
515 611.83
520 150.999
525 19.0945
530 3.603
535 1.81337
540 1.59704
545 1.48172
550 1.43185
555 1.45479
560 1.35856
565 1.22276
570 0.990277
575 0.843487
580 0.70494
585 0.663445
590 0.713617
595 0.553952
600 0.589221
Ex : 523
200 0.329382
205 0.272711
210 0.317476
215 0.316694
220 0.338498
225 0.289823
230 0.332993
235 0.392058
240 0.307202
245 0.312909
250 0.295469
255 0.410594
260 0.378258
265 0.337955
270 0.336598
275 0.322158
280 0.297671
285 0.294502
290 0.323981
295 0.327458
300 0.295616
305 0.337312
310 0.281692
315 0.35219
320 0.348994
325 0.380509
330 0.376448
335 0.317069
340 0.400615
345 0.399865
350 0.326805
355 0.357899
360 0.388607
365 0.335723
370 0.331591
375 0.34722
380 0.377956
385 0.327169
390 0.303205
395 0.314441
400 0.329476
405 0.377218
410 0.353517
415 0.349273
420 0.350019
425 0.397933
430 0.326512
435 0.393662
440 0.413735
445 0.317869
450 0.350786
455 0.371616
460 0.458111
465 0.444307
470 0.386206
475 0.467662
480 0.461077
485 0.467283
490 0.421527
495 0.610493
500 0.893382
505 1.11452
510 26.2541
515 411.435
520 603.467
525 152.815
530 19.2414
535 3.6307
540 1.65562
545 1.43111
550 1.3228
555 1.15192
560 1.27684
565 1.04174
570 1.13497
575 1.04548
580 0.851709
585 0.725567
590 0.468599
595 0.564426
600 0.282226
Ex : 528
200 0.260687
205 0.277586
210 0.338486
215 0.382274
220 0.277892
225 0.356842
230 0.374085
235 0.417078
240 0.278226
245 0.298285
250 0.440101
255 0.392655
260 0.371924
265 0.311255
270 0.330977
275 0.318461
280 0.363653
285 0.364386
290 0.332082
295 0.348845
300 0.421344
305 0.380772
310 0.332651
315 0.327771
320 0.35052
325 0.249976
330 0.256144
335 0.341152
340 0.444051
345 0.348002
350 0.371649
355 0.349989
360 0.280831
365 0.358918
370 0.321806
375 0.326642
380 0.320097
385 0.445434
390 0.353235
395 0.341686
400 0.359687
405 0.388147
410 0.394343
415 0.303845
420 0.321808
425 0.450534
430 0.409945
435 0.441316
440 0.419647
445 0.381487
450 0.528574
455 0.310512
460 0.409393
465 0.428315
470 0.470384
475 0.472849
480 0.466672
485 0.404877
490 0.453722
495 0.557178
500 0.634347
505 0.815113
510 1.02199
515 24.9333
520 404.141
525 606.181
530 150.976
535 18.801
540 3.29634
545 1.70477
550 1.25714
555 1.08063
560 1.05921
565 1.00414
570 1.18732
575 0.910482
580 0.71934
585 0.714911
590 0.587958
595 0.463789
600 0.367549
Ex : 533
200 0.514402
205 0.42558
210 0.382798
215 0.4126
220 0.297973
225 0.253572
230 0.272305
235 0.348869
240 0.288706
245 0.422546
250 0.348036
255 0.313834
260 0.342397
265 0.385913
270 0.331578
275 0.357193
280 0.321493
285 0.314509
290 0.279095
295 0.303552
300 0.396613
305 0.346897
310 0.374707
315 0.329067
320 0.385667
325 0.423516
330 0.348063
335 0.399894
340 0.368336
345 0.417888
350 0.357489
355 0.404174
360 0.382023
365 0.456581
370 0.372768
375 0.36396
380 0.451192
385 0.352146
390 0.27853
395 0.419198
400 0.45458
405 0.481681
410 0.363465
415 0.427357
420 0.383982
425 0.496053
430 0.455815
435 0.371652
440 0.421955
445 0.3664
450 0.386424
455 0.411646
460 0.391978
465 0.353353
470 0.510104
475 0.440528
480 0.610517
485 0.455638
490 0.559972
495 0.550579
500 0.594279
505 0.625589
510 0.739685
515 1.2102
520 24.4724
525 395.086
530 588.933
535 152.841
540 18.8885
545 3.41666
550 1.55932
555 1.26451
560 1.02234
565 0.964752
570 0.834684
575 0.836583
580 0.739019
585 0.631772
590 0.599878
595 0.621974
600 0.337152
Ex : 538
200 0.37839
205 0.394377
210 0.363025
215 0.383941
220 0.320543
225 0.318605
230 0.453905
235 0.369774
240 0.453864
245 0.298144
250 0.265526
255 0.365519
260 0.376366
265 0.361668
270 0.369108
275 0.365902
280 0.424437
285 0.302454
290 0.380664
295 0.333529
300 0.372288
305 0.405904
310 0.324586
315 0.366795
320 0.281498
325 0.370894
330 0.352453
335 0.339477
340 0.446373
345 0.323755
350 0.432087
355 0.349317
360 0.414712
365 0.368912
370 0.384589
375 0.432499
380 0.39912
385 0.519118
390 0.358847
395 0.396369
400 0.4347
405 0.435354
410 0.399571
415 0.365177
420 0.330244
425 0.351786
430 0.500762
435 0.455959
440 0.498383
445 0.500512
450 0.388048
455 0.424675
460 0.484839
465 0.398021
470 0.442336
475 0.424483
480 0.513565
485 0.464822
490 0.397328
495 0.413032
500 0.466125
505 0.654771
510 0.708033
515 0.921614
520 1.09535
525 21.4135
530 371.958
535 587.263
540 156.427
545 19.3787
550 3.27991
555 1.28527
560 1.09296
565 0.910249
570 0.672086
575 0.870053
580 0.828964
585 0.809078
590 0.620449
595 0.611554
600 0.418861
Ex : 543
200 0.474361
205 0.488823
210 0.535857
215 0.329592
220 0.293209
225 0.416313
230 0.375179
235 0.346561
240 0.353926
245 0.289432
250 0.36818
255 0.370494
260 0.401118
265 0.34794
270 0.438495
275 0.341655
280 0.445002
285 0.446285
290 0.324759
295 0.463523
300 0.530809
305 0.41301
310 0.412652
315 0.313818
320 0.323406
325 0.444309
330 0.388728
335 0.332024
340 0.421027
345 0.297774
350 0.35722
355 0.378736
360 0.36418
365 0.52596
370 0.450555
375 0.467528
380 0.405506
385 0.426701
390 0.515622
395 0.33911
400 0.400276
405 0.438419
410 0.438682
415 0.378803
420 0.429986
425 0.432185
430 0.518915
435 0.424315
440 0.445199
445 0.272888
450 0.459377
455 0.435481
460 0.339568
465 0.298617
470 0.445438
475 0.522851
480 0.456568
485 0.443755
490 0.556586
495 0.573014
500 0.439715
505 0.564005
510 0.574261
515 0.641485
520 0.843155
525 0.899756
530 18.9438
535 371.997
540 585.382
545 160.081
550 19.8405
555 3.14256
560 1.2748
565 1.09768
570 0.773389
575 0.756283
580 0.722989
585 0.744795
590 0.610991
595 0.572766
600 0.459942
Ex : 548
200 0.443983
205 0.365674
210 0.3966
215 0.375161
220 0.262448
225 0.333597
230 0.343591
235 0.42857
240 0.41462
245 0.442963
250 0.335699
255 0.301592
260 0.306804
265 0.375924
270 0.464446
275 0.303717
280 0.463039
285 0.385035
290 0.404262
295 0.528329
300 0.387918
305 0.509198
310 0.437899
315 0.315972
320 0.356422
325 0.443138
330 0.508642
335 0.392829
340 0.382833
345 0.379994
350 0.338333
355 0.348273
360 0.360417
365 0.3681
370 0.400394
375 0.424035
380 0.570559
385 0.526685
390 0.343584
395 0.412957
400 0.545292
405 0.446548
410 0.502499
415 0.350648
420 0.455405
425 0.357301
430 0.396737
435 0.462817
440 0.456314
445 0.409016
450 0.486393
455 0.489303
460 0.397641
465 0.563125
470 0.519617
475 0.451016
480 0.469335
485 0.474428
490 0.377151
495 0.514993
500 0.573041
505 0.508378
510 0.485024
515 0.552533
520 0.698475
525 0.915703
530 1.03405
535 21.3511
540 354.088
545 570.719
550 154.193
555 18.8505
560 3.063
565 1.33749
570 0.935203
575 0.774895
580 0.630271
585 0.709033
590 0.660202
595 0.725574
600 0.323265
Ex : 553
200 0.32616
205 0.442854
210 0.405778
215 0.289073
220 0.329938
225 0.415568
230 0.504886
235 0.402096
240 0.474284
245 0.459657
250 0.374787
255 0.356246
260 0.405776
265 0.456686
270 0.367521
275 0.305734
280 0.384001
285 0.4701
290 0.307796
295 0.333993
300 0.44193
305 0.437485
310 0.516993
315 0.446452
320 0.493769
325 0.41004
330 0.32292
335 0.364474
340 0.345446
345 0.389412
350 0.353814
355 0.343639
360 0.573391
365 0.451754
370 0.447098
375 0.49398
380 0.49952
385 0.36145
390 0.47993
395 0.522577
400 0.44616
405 0.497826
410 0.46798
415 0.59279
420 0.514822
425 0.551531
430 0.449056
435 0.444118
440 0.398587
445 0.497239
450 0.464386
455 0.457289
460 0.438573
465 0.452182
470 0.437642
475 0.442788
480 0.536056
485 0.524356
490 0.424947
495 0.431083
500 0.527396
505 0.496904
510 0.581907
515 0.59256
520 0.659509
525 0.683247
530 0.691403
535 1.08039
540 17.952
545 332.479
550 553.164
555 153.906
560 18.808
565 3.00114
570 1.26212
575 0.944501
580 0.805565
585 0.662264
590 0.609246
595 0.737003
600 0.388677
Ex : 558
200 0.316047
205 0.449723
210 0.4639
215 0.311331
220 0.492051
225 0.449564
230 0.535541
235 0.502424
240 0.498586
245 0.391431
250 0.444354
255 0.33804
260 0.521749
265 0.513341
270 0.410887
275 0.386885
280 0.352461
285 0.418558
290 0.383595
295 0.408468
300 0.407643
305 0.357974
310 0.40946
315 0.377202
320 0.40575
325 0.372475
330 0.503229
335 0.555031
340 0.404062
345 0.455924
350 0.479124
355 0.495212
360 0.371837
365 0.365672
370 0.475536
375 0.389707
380 0.388359
385 0.473689
390 0.514105
395 0.43375
400 0.468864
405 0.394726
410 0.36398
415 0.487277
420 0.468426
425 0.458959
430 0.457924
435 0.447651
440 0.560242
445 0.479591
450 0.469767
455 0.52593
460 0.453984
465 0.401093
470 0.363513
475 0.608859
480 0.499042
485 0.557257
490 0.444552
495 0.558083
500 0.422577
505 0.483351
510 0.346633
515 0.476197
520 0.551971
525 0.627636
530 0.83186
535 0.873945
540 1.25245
545 15.9865
550 314.885
555 537.198
560 150.071
565 18.4512
570 2.90322
575 0.956801
580 0.645926
585 0.646597
590 0.694519
595 0.647659
600 0.965774
Ex : 563
200 0.501067
205 0.503857
210 0.404353
215 0.375638
220 0.381131
225 0.555898
230 0.359448
235 0.425584
240 0.491314
245 0.479282
250 0.524774
255 0.437099
260 0.4179
265 0.452054
270 0.430095
275 0.308743
280 0.397265
285 0.425825
290 0.43022
295 0.461828
300 0.530592
305 0.327192
310 0.572178
315 0.396253
320 0.401326
325 0.394122
330 0.349804
335 0.322597
340 0.425992
345 0.410617
350 0.352104
355 0.41632
360 0.46006
365 0.430901
370 0.394415
375 0.385192
380 0.418037
385 0.49381
390 0.56199
395 0.369087
400 0.450221
405 0.477584
410 0.466699
415 0.467375
420 0.443684
425 0.363131
430 0.50845
435 0.431576
440 0.564098
445 0.431382
450 0.489639
455 0.568968
460 0.469797
465 0.491724
470 0.496497
475 0.503037
480 0.492746
485 0.539829
490 0.520851
495 0.383225
500 0.521904
505 0.426553
510 0.473604
515 0.461949
520 0.63054
525 0.604234
530 0.574029
535 0.651589
540 0.983382
545 0.930747
550 16.008
555 299.129
560 510.89
565 147.461
570 17.9972
575 2.80654
580 0.93478
585 0.814784
590 0.70926
595 0.581596
600 0.0722533
Ex : 568
200 0.513413
205 0.445265
210 0.565312
215 0.41376
220 0.363974
225 0.510994
230 0.666872
235 0.444554
240 0.395416
245 0.3591
250 0.34888
255 0.39621
260 0.377244
265 0.661295
270 0.460888
275 0.431235
280 0.472785
285 0.419763
290 0.426221
295 0.433907
300 0.443296
305 0.398548
310 0.405162
315 0.409279
320 0.410184
325 0.426349
330 0.461092
335 0.367441
340 0.368854
345 0.415398
350 0.544243
355 0.459882
360 0.449113
365 0.418208
370 0.450039
375 0.460092
380 0.479967
385 0.46838
390 0.445966
395 0.415417
400 0.45261
405 0.415126
410 0.432068
415 0.415166
420 0.591394
425 0.478857
430 0.525203
435 0.553441
440 0.468559
445 0.58308
450 0.496592
455 0.54423
460 0.370026
465 0.477
470 0.573686
475 0.471925
480 0.512895
485 0.424301
490 0.42492
495 0.62131
500 0.661254
505 0.554899
510 0.625489
515 0.528073
520 0.563306
525 0.580728
530 0.559594
535 0.747137
540 0.612905
545 0.697926
550 1.07742
555 12.0669
560 271.526
565 499.723
570 153.712
575 19.0003
580 2.97506
585 0.959944
590 0.841424
595 0.588556
600 0.216756
Ex : 573
200 0.620475
205 0.45516
210 0.395709
215 0.399048
220 0.426143
225 0.526111
230 0.498519
235 0.463061
240 0.444966
245 0.496373
250 0.448597
255 0.453487
260 0.575004
265 0.427543
270 0.396643
275 0.441254
280 0.427932
285 0.425435
290 0.465012
295 0.547929
300 0.443372
305 0.469454
310 0.438889
315 0.347313
320 0.381577
325 0.373777
330 0.416747
335 0.440775
340 0.505521
345 0.461822
350 0.376344
355 0.465101
360 0.348949
365 0.475379
370 0.559037
375 0.512064
380 0.505022
385 0.466034
390 0.527879
395 0.549937
400 0.527143
405 0.41808
410 0.531624
415 0.452198
420 0.489885
425 0.395425
430 0.441841
435 0.530015
440 0.47928
445 0.606146
450 0.47458
455 0.585171
460 0.439082
465 0.504755
470 0.432669
475 0.371731
480 0.489579
485 0.522924
490 0.566152
495 0.503813
500 0.539116
505 0.577245
510 0.534492
515 0.598611
520 0.498911
525 0.49545
530 0.614885
535 0.456479
540 0.670432
545 0.716192
550 0.94366
555 0.856842
560 10.8625
565 240.995
570 459.566
575 142.357
580 17.5781
585 2.57043
590 0.880777
595 0.717628
600 0.441282
Ex : 578
200 0.488306
205 0.504513
210 0.456805
215 0.506871
220 0.352173
225 0.422049
230 0.498716
235 0.518434
240 0.487773
245 0.43574
250 0.502331
255 0.469709
260 0.464669
265 0.434417
270 0.4586
275 0.478
280 0.444798
285 0.351534
290 0.346114
295 0.544785
300 0.456448
305 0.370841
310 0.534076
315 0.482091
320 0.459515
325 0.392266
330 0.428342
335 0.467682
340 0.67607
345 0.494873
350 0.400985
355 0.396072
360 0.476301
365 0.532226
370 0.478644
375 0.502615
380 0.504223
385 0.359263
390 0.374752
395 0.417114
400 0.431171
405 0.477725
410 0.380843
415 0.423871
420 0.505811
425 0.635428
430 0.617876
435 0.543007
440 0.446075
445 0.39568
450 0.421999
455 0.46627
460 0.521001
465 0.498804
470 0.488601
475 0.529024
480 0.532651
485 0.498257
490 0.487611
495 0.505687
500 0.507459
505 0.611465
510 0.507124
515 0.491862
520 0.502853
525 0.476091
530 0.450148
535 0.488172
540 0.561131
545 0.744758
550 0.678329
555 0.842433
560 0.875361
565 9.1868
570 216.326
575 396.081
580 121.022
585 14.9361
590 2.32669
595 0.764137
600 0.268225
Ex : 583
200 0.461779
205 0.499201
210 0.397464
215 0.432264
220 0.485617
225 0.499605
230 0.377766
235 0.506751
240 0.584826
245 0.503236
250 0.603522
255 0.415626
260 0.345773
265 0.474136
270 0.512899
275 0.433684
280 0.41207
285 0.430534
290 0.421258
295 0.591286
300 0.443151
305 0.496515
310 0.463818
315 0.396976
320 0.426698
325 0.433238
330 0.468766
335 0.58777
340 0.546197
345 0.436403
350 0.503802
355 0.566032
360 0.458992
365 0.527335
370 0.582722
375 0.514611
380 0.698067
385 0.51811
390 0.52595
395 0.481822
400 0.511214
405 0.531702
410 0.4944
415 0.506129
420 0.346771
425 0.444272
430 0.501884
435 0.418812
440 0.58845
445 0.524948
450 0.447534
455 0.453987
460 0.458721
465 0.52492
470 0.45296
475 0.398989
480 0.529283
485 0.540875
490 0.452788
495 0.501962
500 0.482321
505 0.598257
510 0.443801
515 0.57314
520 0.555836
525 0.620048
530 0.56628
535 0.51994
540 0.4957
545 0.564439
550 0.52144
555 0.651074
560 0.745969
565 0.874559
570 8.72006
575 189.898
580 352.247
585 102.82
590 12.7509
595 2.29006
600 1.29912
Ex : 588
200 0.469423
205 0.473065
210 0.460528
215 0.426321
220 0.587107
225 0.504267
230 0.443854
235 0.540091
240 0.446892
245 0.424405
250 0.449996
255 0.5093
260 0.486243
265 0.477738
270 0.477519
275 0.458774
280 0.427408
285 0.330634
290 0.640461
295 0.436261
300 0.444552
305 0.373977
310 0.489082
315 0.392141
320 0.534789
325 0.453348
330 0.494177
335 0.574881
340 0.507153
345 0.548046
350 0.52169
355 0.675523
360 0.456844
365 0.473607
370 0.567095
375 0.542467
380 0.453495
385 0.531662
390 0.59931
395 0.482375
400 0.622819
405 0.517528
410 0.461249
415 0.567946
420 0.435317
425 0.531932
430 0.563808
435 0.638796
440 0.52796
445 0.811638
450 0.671495
455 0.583985
460 0.466963
465 0.486874
470 0.501245
475 0.53578
480 0.546235
485 0.556995
490 0.491815
495 0.54179
500 0.501864
505 0.527816
510 0.559209
515 0.563207
520 0.620414
525 0.620758
530 0.626982
535 0.532045
540 0.56311
545 0.422558
550 0.465634
555 0.693486
560 0.812695
565 0.668455
570 0.832745
575 7.59257
580 161.486
585 302.756
590 88.2251
595 10.7811
600 2.14879
Ex : 593
200 0.479485
205 0.582847
210 0.55977
215 0.780595
220 0.439201
225 0.590967
230 0.493046
235 0.511594
240 0.460117
245 0.490153
250 0.44929
255 0.545645
260 0.494708
265 0.447101
270 0.430782
275 0.619863
280 0.445955
285 0.443113
290 0.463594
295 0.464169
300 0.427644
305 0.557256
310 0.399591
315 0.479694
320 0.421951
325 0.504626
330 0.538945
335 0.484501
340 0.533251
345 0.503074
350 0.503905
355 0.48781
360 0.655106
365 0.502273
370 0.536382
375 0.48929
380 0.507973
385 0.578135
390 0.489657
395 0.427292
400 0.551125
405 0.539532
410 0.580914
415 0.562053
420 0.422171
425 0.583308
430 0.675913
435 0.554596
440 0.544376
445 0.415612
450 0.514479
455 0.638513
460 0.60385
465 0.459782
470 0.521905
475 0.548257
480 0.706272
485 0.450817
490 0.445681
495 0.455721
500 0.473929
505 0.813965
510 0.53129
515 0.447651
520 0.47389
525 0.5614
530 0.508692
535 0.524488
540 0.565099
545 0.540286
550 0.589793
555 0.592248
560 0.635753
565 0.644946
570 0.807477
575 0.846195
580 6.51835
585 141.307
590 257.438
595 76.6252
600 11.1765
Ex : 598
200 0.673977
205 0.62231
210 0.54115
215 0.441623
220 0.514253
225 0.592678
230 0.464721
235 0.540155
240 0.471675
245 0.454926
250 0.530555
255 0.538148
260 0.666297
265 0.465692
270 0.482995
275 0.448479
280 0.467809
285 0.508508
290 0.588804
295 0.50964
300 0.626496
305 0.533449
310 0.554015
315 0.621329
320 0.627003
325 0.491279
330 0.437473
335 0.650928
340 0.597892
345 0.682856
350 0.458331
355 0.567878
360 0.449343
365 0.705639
370 0.493475
375 0.495523
380 0.517571
385 0.584586
390 0.613163
395 0.64987
400 0.646028
405 0.686553
410 0.471809
415 0.545796
420 0.438063
425 0.403847
430 0.689062
435 0.588073
440 0.613354
445 0.576732
450 0.587233
455 0.562846
460 0.53997
465 0.517491
470 0.609183
475 0.556455
480 0.475814
485 0.475979
490 0.493271
495 0.512617
500 0.508342
505 0.482793
510 0.644123
515 0.632898
520 0.552538
525 0.498583
530 0.511484
535 0.551265
540 0.592329
545 0.52429
550 0.639607
555 0.583564
560 0.616812
565 0.591202
570 0.715031
575 0.766654
580 1.04936
585 6.45428
590 127.454
595 224.667
600 138.389
Ex : 603
200 0.560201
205 0.547186
210 0.647844
215 0.563901
220 0.526749
225 0.497282
230 0.583574
235 0.556558
240 0.575385
245 0.518951
250 0.417589
255 0.596873
260 0.623014
265 0.616432
270 0.474081
275 0.510129
280 0.586155
285 0.374845
290 0.403738
295 0.64501
300 0.544482
305 0.665758
310 0.539823
315 0.499052
320 0.651813
325 0.504766
330 0.484605
335 0.605339
340 0.663871
345 0.485844
350 0.43548
355 0.487084
360 0.465918
365 0.481563
370 0.574542
375 0.630074
380 0.633209
385 0.726433
390 0.596048
395 0.492622
400 0.611548
405 0.614226
410 0.604334
415 0.569837
420 0.775606
425 0.561098
430 0.638017
435 0.586461
440 0.547573
445 0.438466
450 0.495836
455 0.652377
460 0.601675
465 0.595689
470 0.692574
475 0.570279
480 0.631604
485 0.60895
490 0.53335
495 0.626111
500 0.73165
505 0.562134
510 0.724235
515 0.510117
520 0.498034
525 0.568073
530 0.456944
535 0.632339
540 0.750215
545 0.634978
550 0.5725
555 0.623541
560 0.68571
565 0.619092
570 0.58047
575 0.619982
580 1.01694
585 0.958203
590 6.04922
595 111.271
600 227.027
