File format V 1.0
sam. 10. déc. 03:18:32 2016
Operator : 
Comments : 

=============================================
SpectroFluorometer parameters
Mode : 3D measurement
Data : Fluorescence
Phospho. : Ordinary
Spectrum : Fluorescence

Scan speed : 2400 nm/mn
Response : 100 ms
PM Voltage : 700 V
Shutter : On

Lambda Ex. Start : 203
Lambda Ex. End : 603
Lambda Ex. Step : 5
Ex. Slit : 5 nm

Lambda Em. Start : 200
Lambda Em. End : 600
Lambda Em. Step : 5
Em. Slit : 5 nm

Repetition : 1
Decal lambda em : 10
=============================================
DATA
Ex : 203
200 14.2743
205 10.6987
210 12.9871
215 12.6382
220 12.4722
225 11.8745
230 14.1394
235 15.378
240 14.8265
245 15.6744
250 13.6538
255 14.475
260 14.3975
265 14.2893
270 10.0799
275 11.7388
280 15.188
285 13.4127
290 13.9232
295 10.3068
300 11.68
305 10.5364
310 15.5056
315 15.5058
320 15.1757
325 16.4607
330 12.1255
335 12.1237
340 14.431
345 13.8904
350 14.8536
355 18.3688
360 19.0518
365 20.0579
370 16.7904
375 12.2581
380 17.7346
385 20.8568
390 14.9108
395 18.7768
400 16.4388
405 18.811
410 17.6541
415 23.242
420 19.8494
425 20.2502
430 17.9307
435 17.3816
440 17.1806
445 18.4731
450 19.4687
455 17.2323
460 16.9964
465 22.1277
470 21.7695
475 20.98
480 17.5543
485 21.3395
490 19.7093
495 23.4748
500 24.5695
505 18.4703
510 16.8552
515 16.6935
520 17.9888
525 17.0882
530 14.3567
535 14.5824
540 18.6155
545 17.9015
550 22.8062
555 15.3171
560 14.7355
565 16.7367
570 14.3493
575 16.95
580 18.6585
585 15.048
590 11.825
595 15.8429
600 1.80286
Ex : 208
200 14.8407
205 11.1648
210 13.5811
215 10.1336
220 12.276
225 15.1613
230 14.6447
235 14.0987
240 14.4618
245 15.2518
250 11.9774
255 15.5373
260 15.5463
265 15.8426
270 16.9941
275 11.2802
280 14.0093
285 12.9978
290 12.8091
295 11.9918
300 10.3427
305 13.7643
310 14.3592
315 11.7126
320 11.246
325 12.3086
330 14.0628
335 15.4519
340 12.8231
345 16.1348
350 15.8729
355 14.4965
360 14.402
365 16.4342
370 13.8792
375 15.3752
380 19.0798
385 19.6923
390 19.4471
395 16.1828
400 19.3583
405 18.7734
410 24.4049
415 17.8962
420 18.1086
425 19.6696
430 22.8712
435 27.0057
440 22.209
445 23.3074
450 20.0411
455 24.4258
460 21.3951
465 20.3767
470 15.4875
475 18.6547
480 20.2218
485 20.9332
490 18.116
495 18.0734
500 17.3988
505 17.471
510 15.522
515 15.1216
520 19.4953
525 17.5857
530 16.4165
535 14.27
540 12.2534
545 17.8933
550 21.3444
555 16.1911
560 17.9492
565 12.9979
570 15.4314
575 12.6563
580 12.9345
585 11.4454
590 14.2574
595 12.332
600 7.16366
Ex : 213
200 17.9706
205 16.1405
210 14.4726
215 9.0195
220 11.727
225 13.6522
230 9.99727
235 13.2057
240 12.4886
245 11.1495
250 12.7649
255 15.4221
260 11.1685
265 9.24171
270 14.9105
275 12.7305
280 11.9141
285 11.0842
290 10.093
295 10.7245
300 13.1281
305 18.2178
310 11.5637
315 12.1096
320 12.5373
325 15.9604
330 14.2336
335 14.3237
340 20.9873
345 13.8824
350 17.4387
355 18.2603
360 16.8382
365 17.616
370 18.6503
375 18.2249
380 21.9746
385 20.9316
390 21.6882
395 22.76
400 20.472
405 20.2433
410 18.9315
415 20.997
420 18.1908
425 20.6911
430 23.3596
435 19.9339
440 19.9733
445 29.0154
450 20.0888
455 15.0948
460 22.9516
465 24.3263
470 22.9587
475 15.8115
480 18.1396
485 17.9653
490 13.3139
495 20.5399
500 19.7349
505 17.8988
510 15.6337
515 16.5079
520 15.8447
525 19.2769
530 13.6885
535 16.4065
540 18.3453
545 16.8509
550 15.261
555 17.074
560 18.412
565 12.6784
570 12.9136
575 14.4151
580 13.6449
585 14.3161
590 18.2726
595 10.1708
600 11.0322
Ex : 218
200 13.6776
205 14.1396
210 19.8232
215 12.9153
220 13.9406
225 14.8794
230 13.3691
235 17.2236
240 12.1288
245 10.7588
250 15.7916
255 13.5341
260 11.2934
265 13.4236
270 16.1143
275 9.6858
280 11.716
285 13.0915
290 11.3103
295 12.4916
300 11.6846
305 10.4953
310 12.878
315 11.7424
320 11.891
325 17.7792
330 19.9958
335 14.3944
340 14.8288
345 16.7225
350 16.0874
355 16.2378
360 15.2168
365 20.6427
370 22.1426
375 21.1827
380 14.7005
385 18.9063
390 21.0149
395 21.5103
400 17.091
405 19.6789
410 20.7334
415 19.8953
420 20.6252
425 14.1537
430 20.2588
435 19.2976
440 18.6699
445 21.9133
450 25.9147
455 22.8075
460 17.3212
465 19.9297
470 20.5937
475 19.1347
480 16.828
485 14.9225
490 20.4878
495 17.246
500 13.3621
505 19.7992
510 18.2258
515 16.5551
520 21.267
525 15.0787
530 15.2831
535 16.0715
540 19.0773
545 13.5549
550 13.6801
555 11.832
560 15.2811
565 17.6647
570 15.2718
575 11.8366
580 18.1314
585 13.5176
590 13.4265
595 11.4007
600 34.9731
Ex : 223
200 16.773
205 14.7516
210 12.0085
215 12.4736
220 13.0336
225 11.5489
230 11.8575
235 13.7458
240 15.9663
245 14.492
250 12.0549
255 9.93215
260 11.399
265 14.6048
270 17.0162
275 11.9286
280 11.6584
285 14.1932
290 14.0958
295 13.6886
300 13.6822
305 11.7692
310 18.2316
315 11.5072
320 14.6072
325 14.0094
330 15.8964
335 13.9283
340 15.7303
345 18.5657
350 15.4297
355 15.4054
360 16.1049
365 13.5761
370 15.8623
375 14.8107
380 16.9345
385 16.8951
390 21.2232
395 19.677
400 21.4294
405 17.7079
410 17.1701
415 23.6633
420 18.6445
425 23.229
430 18.7767
435 21.2707
440 18.6883
445 14.9813
450 15.4834
455 19.0824
460 21.5794
465 20.8341
470 21.7778
475 17.8521
480 16.2301
485 19.6086
490 19.6249
495 19.0857
500 14.8773
505 15.4268
510 17.9157
515 16.5978
520 14.0489
525 14.4902
530 16.7483
535 14.5722
540 17.573
545 12.2806
550 13.8234
555 13.9103
560 11.7038
565 16.3515
570 15.0312
575 17.97
580 13.3012
585 11.6541
590 13.5209
595 20.0759
600 18.827
Ex : 228
200 10.4652
205 11.2843
210 11.0988
215 17.3737
220 12.0222
225 13.1693
230 14.0393
235 12.6518
240 11.6766
245 11.7946
250 11.6082
255 12.325
260 13.4166
265 14.6084
270 15.1875
275 13.1035
280 15.1776
285 11.1442
290 12.6015
295 11.1776
300 8.90592
305 13.466
310 8.97468
315 14.7733
320 15.282
325 12.9947
330 11.9153
335 14.4397
340 13.9164
345 16.8529
350 14.8451
355 16.233
360 17.8229
365 16.429
370 16.8313
375 18.6876
380 18.535
385 18.9245
390 20.0726
395 22.8345
400 18.7694
405 22.9347
410 20.2167
415 23.8634
420 16.8571
425 21.3183
430 21.9636
435 17.4476
440 21.1745
445 16.947
450 21.9101
455 19.7224
460 17.1542
465 20.4634
470 17.5667
475 21.0685
480 16.6398
485 16.0866
490 22.6101
495 13.5043
500 14.1882
505 12.9426
510 15.4154
515 20.2078
520 14.2197
525 14.542
530 18.141
535 14.2389
540 12.3126
545 14.0973
550 14.5534
555 15.0005
560 14.2558
565 11.4583
570 11.9339
575 14.6642
580 12.1683
585 15.0711
590 14.1312
595 10.7085
600 1.92755
Ex : 233
200 9.99547
205 8.40513
210 8.40384
215 11.1034
220 13.4619
225 9.93614
230 10.9474
235 12.5723
240 11.166
245 7.89344
250 11.7977
255 10.0196
260 10.3431
265 11.5577
270 9.89125
275 10.724
280 12.6282
285 11.867
290 12.7036
295 10.4641
300 11.2458
305 12.2827
310 13.0486
315 11.229
320 10.6264
325 10.5186
330 12.6089
335 14.1582
340 15.236
345 12.5153
350 9.40433
355 13.6295
360 16.3691
365 15.9435
370 13.7649
375 15.3945
380 14.8122
385 17.2045
390 14.7752
395 18.6565
400 19.9882
405 19.2537
410 17.0979
415 14.9459
420 16.0921
425 14.943
430 18.7952
435 20.3766
440 18.0063
445 15.8331
450 17.983
455 16.6448
460 17.6677
465 19.1829
470 17.1117
475 17.6833
480 14.8324
485 20.9597
490 18.209
495 15.7334
500 16.972
505 15.266
510 12.5263
515 14.0219
520 14.97
525 12.9288
530 14.5847
535 11.9413
540 13.8302
545 12.0294
550 10.1841
555 9.80366
560 10.6642
565 9.08464
570 10.5473
575 11.794
580 10.257
585 15.3922
590 9.82543
595 10.3962
600 1.18305
Ex : 238
200 10.4264
205 8.52559
210 9.55457
215 9.9639
220 9.3285
225 10.0926
230 11.1164
235 9.4302
240 8.77891
245 7.99764
250 8.50965
255 10.0025
260 15.8967
265 11.1471
270 8.47483
275 5.80115
280 9.57163
285 9.10635
290 11.6482
295 10.5559
300 9.69211
305 12.7978
310 9.06861
315 7.55217
320 8.51636
325 7.92131
330 10.8881
335 10.2488
340 10.6216
345 10.488
350 9.72226
355 12.3061
360 8.88432
365 10.9808
370 12.4128
375 16.216
380 14.5353
385 15.2771
390 18.0164
395 15.1794
400 14.8884
405 19.288
410 13.8935
415 18.8214
420 15.2809
425 18.3064
430 16.3875
435 14.7874
440 15.7974
445 12.2637
450 14.5593
455 16.3758
460 14.8587
465 16.7385
470 14.8999
475 13.0071
480 15.7955
485 14.0307
490 16.272
495 14.9964
500 12.6424
505 12.8247
510 10.3971
515 12.7967
520 15.5121
525 8.90508
530 11.0397
535 12.7093
540 12.1955
545 11.4503
550 12.4066
555 12.8702
560 13.232
565 14.7656
570 11.7398
575 9.69106
580 10.9645
585 9.75454
590 11.3407
595 12.0083
600 24.9986
Ex : 243
200 10.9894
205 8.10551
210 9.49003
215 10.4059
220 11.2095
225 8.15782
230 9.70952
235 9.79035
240 8.3607
245 10.7352
250 9.13033
255 8.95786
260 6.544
265 7.15435
270 6.74063
275 4.09841
280 8.80476
285 9.1102
290 9.202
295 9.3716
300 7.46793
305 11.0938
310 8.02921
315 7.92305
320 7.70116
325 7.8441
330 10.9006
335 10.0099
340 8.79842
345 9.75088
350 10.6859
355 11.4074
360 9.97001
365 11.3545
370 11.2803
375 13.2231
380 12.8288
385 13.4705
390 15.1958
395 15.3799
400 12.8906
405 14.4268
410 13.9512
415 13.7043
420 15.3609
425 14.2593
430 11.3806
435 14.751
440 13.2757
445 13.6705
450 13.8028
455 13.0478
460 16.2246
465 16.0127
470 17.4335
475 14.0082
480 15.1804
485 10.5216
490 10.0152
495 10.008
500 12.0698
505 12.8313
510 11.7309
515 10.8272
520 12.3457
525 12.6664
530 12.5988
535 10.8046
540 9.66911
545 10.7304
550 11.1051
555 9.57888
560 11.5546
565 9.34829
570 8.32745
575 7.82611
580 8.87263
585 7.96296
590 8.13364
595 9.03852
600 11.663
Ex : 248
200 5.40988
205 7.68364
210 6.5272
215 8.05942
220 6.91625
225 7.29282
230 8.21678
235 7.52133
240 7.77699
245 8.4881
250 6.55151
255 6.64262
260 8.35232
265 6.67545
270 7.02694
275 6.08434
280 6.55808
285 4.70304
290 7.40394
295 7.67975
300 6.27456
305 9.74342
310 8.9728
315 5.76707
320 8.57413
325 9.58688
330 7.73207
335 7.40727
340 9.15141
345 9.25016
350 9.57935
355 10.4547
360 8.84784
365 10.2573
370 9.42773
375 9.96662
380 8.65602
385 11.3644
390 11.3884
395 13.147
400 12.2069
405 13.6647
410 11.8209
415 13.6089
420 13.752
425 12.55
430 12.2002
435 12.6262
440 11.9719
445 9.35416
450 10.2289
455 13.2298
460 12.9821
465 11.4628
470 12.5422
475 10.4995
480 10.943
485 10.0708
490 11.6283
495 10.077
500 11.5901
505 8.5476
510 7.05723
515 7.8166
520 8.66453
525 6.7297
530 8.70137
535 8.17236
540 7.65908
545 7.65077
550 6.92117
555 9.40968
560 8.90483
565 9.82747
570 8.28202
575 8.4685
580 6.45657
585 6.14482
590 7.41589
595 5.86572
600 1.5537
Ex : 253
200 5.5525
205 6.86167
210 5.50798
215 7.15602
220 5.7476
225 5.89315
230 7.53532
235 4.60981
240 5.66894
245 5.83979
250 5.56371
255 5.77224
260 5.22906
265 4.68977
270 4.87414
275 5.8697
280 6.28278
285 5.0317
290 7.53183
295 4.62346
300 5.0742
305 8.08833
310 5.06326
315 5.3659
320 4.03785
325 6.43429
330 5.83789
335 6.70802
340 5.9419
345 7.24376
350 8.40049
355 8.16006
360 9.10809
365 7.87665
370 7.55895
375 9.49415
380 9.52932
385 8.04466
390 9.73508
395 9.83564
400 10.6806
405 10.384
410 10.7944
415 9.80287
420 10.468
425 8.18385
430 9.47396
435 8.50247
440 8.11122
445 9.37553
450 10.5512
455 10.9402
460 11.8816
465 9.95322
470 10.0647
475 9.06523
480 8.79163
485 7.93653
490 7.34083
495 9.96391
500 8.07972
505 8.80421
510 8.11313
515 6.43647
520 8.52882
525 6.93765
530 11.0163
535 5.4133
540 5.39846
545 5.76824
550 6.68824
555 6.12507
560 6.93375
565 6.30084
570 5.73163
575 6.15464
580 5.29935
585 4.65888
590 7.18954
595 6.51735
600 0.74165
Ex : 258
200 4.41006
205 3.6873
210 4.67578
215 4.32371
220 4.08627
225 4.41896
230 3.02784
235 4.86332
240 4.28352
245 6.2855
250 5.31941
255 4.79561
260 5.35245
265 4.59616
270 5.48885
275 4.79834
280 3.80123
285 4.87738
290 5.4705
295 5.95357
300 4.83557
305 4.53988
310 5.78394
315 4.33934
320 5.02081
325 3.66255
330 5.50509
335 5.27562
340 5.43639
345 6.58198
350 5.91075
355 5.20531
360 6.42883
365 6.58018
370 5.41915
375 6.63716
380 7.24947
385 6.04643
390 7.86876
395 7.18536
400 9.16486
405 8.02493
410 9.7457
415 8.52757
420 8.06695
425 7.30072
430 7.20156
435 6.35744
440 7.38196
445 6.83366
450 7.68831
455 6.90143
460 7.49371
465 7.46106
470 7.68741
475 7.37019
480 8.19996
485 6.50752
490 6.40665
495 5.48541
500 7.16301
505 7.08388
510 6.08803
515 5.88025
520 6.83616
525 6.39792
530 5.03321
535 6.54371
540 5.51799
545 5.74011
550 5.35519
555 6.66056
560 4.43154
565 5.06069
570 6.28029
575 5.33373
580 5.67436
585 5.0545
590 4.77958
595 5.84405
600 2.02842
Ex : 263
200 4.07849
205 4.32807
210 3.6545
215 3.21469
220 3.15333
225 3.00296
230 3.22355
235 3.06494
240 4.37182
245 2.97053
250 3.3917
255 2.81907
260 3.50218
265 3.38024
270 3.58528
275 3.53392
280 3.71725
285 3.83673
290 4.09932
295 2.92772
300 2.95001
305 2.97327
310 4.19485
315 3.52426
320 4.22966
325 3.68165
330 4.28627
335 4.17781
340 4.92476
345 4.7945
350 4.87742
355 5.23193
360 5.51918
365 5.6833
370 4.86104
375 4.72087
380 6.59069
385 7.34409
390 6.67317
395 6.39357
400 6.02108
405 6.94573
410 6.52527
415 7.11844
420 6.65238
425 5.96494
430 5.80324
435 6.73267
440 6.89868
445 6.85387
450 6.34961
455 5.07516
460 6.29623
465 5.50358
470 5.2912
475 4.80372
480 5.56209
485 6.26593
490 6.1261
495 4.80007
500 4.4297
505 5.88461
510 4.06525
515 4.61117
520 5.21325
525 5.41026
530 5.08946
535 4.47133
540 4.83154
545 3.83282
550 4.78926
555 4.32378
560 4.24176
565 4.09024
570 3.76213
575 4.34086
580 4.54389
585 4.53958
590 3.67311
595 3.99649
600 1.97399
Ex : 268
200 3.02482
205 2.55367
210 3.22117
215 2.66801
220 2.95297
225 2.91942
230 2.32643
235 1.701
240 2.67906
245 2.77521
250 3.35407
255 3.12366
260 2.89584
265 2.52448
270 3.15794
275 2.56663
280 2.57428
285 2.4318
290 2.4866
295 2.74897
300 2.56138
305 2.59893
310 2.27764
315 2.60649
320 2.67745
325 3.36157
330 3.75115
335 3.88694
340 3.04923
345 3.83252
350 4.39871
355 3.30197
360 4.67838
365 4.2685
370 3.95084
375 5.17738
380 4.14924
385 4.10919
390 4.65263
395 4.42626
400 5.34428
405 4.66787
410 4.20904
415 4.64486
420 4.94152
425 6.28992
430 6.33537
435 5.18577
440 5.08043
445 5.38705
450 4.89377
455 5.32037
460 5.10463
465 4.7805
470 5.5766
475 4.39631
480 3.66223
485 4.16584
490 4.83311
495 3.87893
500 3.67631
505 4.14082
510 3.97859
515 3.76887
520 3.47676
525 4.30376
530 3.50601
535 4.40665
540 3.41855
545 2.8712
550 2.66965
555 3.52487
560 3.45007
565 3.22887
570 2.88107
575 2.60009
580 2.84526
585 2.83267
590 2.57234
595 2.99977
600 3.08859
Ex : 273
200 1.50094
205 2.21455
210 2.00944
215 2.19607
220 2.58391
225 1.95361
230 2.56741
235 1.78821
240 1.89841
245 2.42031
250 1.84877
255 1.72303
260 2.16099
265 2.45073
270 2.3417
275 1.83279
280 1.60717
285 2.74331
290 2.33909
295 2.01051
300 1.83999
305 1.86452
310 2.50753
315 2.36535
320 2.27276
325 3.02436
330 3.06698
335 2.9067
340 2.71435
345 3.21556
350 3.26201
355 3.31304
360 3.42724
365 3.45655
370 3.90401
375 3.56123
380 3.43016
385 4.53996
390 3.80575
395 4.80139
400 4.37879
405 3.74798
410 4.46513
415 4.12837
420 5.06247
425 4.39377
430 4.5842
435 4.62526
440 3.78609
445 3.77919
450 4.02856
455 4.48115
460 4.22486
465 4.46008
470 5.68958
475 4.41107
480 3.77326
485 3.06222
490 4.24976
495 2.88688
500 3.61626
505 3.67578
510 3.54272
515 3.10557
520 3.0162
525 2.71726
530 2.81168
535 2.99456
540 3.01426
545 2.99325
550 3.58948
555 2.60066
560 3.23814
565 2.48576
570 2.34564
575 3.22816
580 1.92218
585 1.84653
590 1.92883
595 2.43334
600 0.73773
Ex : 278
200 1.70814
205 2.06896
210 1.72233
215 1.66686
220 1.86179
225 1.19859
230 1.5594
235 2.38642
240 1.99459
245 1.54141
250 1.78788
255 1.45182
260 2.07723
265 1.98474
270 1.79354
275 2.03053
280 1.27321
285 1.38421
290 2.26664
295 1.85627
300 1.68184
305 1.73026
310 2.24061
315 1.74803
320 2.13127
325 2.56967
330 2.51099
335 2.97718
340 2.68154
345 2.91723
350 2.77773
355 2.75864
360 2.65342
365 2.43102
370 2.68068
375 3.16548
380 2.7988
385 3.21948
390 3.89966
395 3.81243
400 2.9908
405 3.70709
410 3.86691
415 3.67628
420 3.76233
425 3.76195
430 3.79581
435 3.55817
440 3.80627
445 3.38873
450 3.58316
455 3.23906
460 4.07242
465 2.99681
470 3.17565
475 3.12652
480 3.28073
485 3.1342
490 2.76766
495 2.36818
500 3.09156
505 2.80339
510 3.08295
515 2.85389
520 2.9009
525 2.51285
530 2.06735
535 1.84103
540 2.41261
545 3.46612
550 2.43455
555 2.95603
560 2.32655
565 2.11497
570 2.02868
575 2.07007
580 2.1378
585 2.37816
590 2.16915
595 1.74625
600 0.198717
Ex : 283
200 1.15453
205 1.87697
210 1.51133
215 1.79793
220 1.64554
225 1.48585
230 1.50526
235 1.31226
240 1.28349
245 1.98335
250 1.97274
255 1.47341
260 1.91602
265 1.62801
270 1.50653
275 2.28205
280 1.8935
285 1.4399
290 1.35687
295 1.61414
300 1.35589
305 1.41956
310 1.16885
315 1.27168
320 1.65154
325 1.86043
330 1.82108
335 1.90536
340 2.01591
345 2.95751
350 2.36257
355 2.72343
360 2.55516
365 2.97142
370 2.41884
375 3.42367
380 3.07319
385 3.06871
390 3.55899
395 3.61181
400 4.23365
405 3.19434
410 3.446
415 3.469
420 3.39448
425 3.26573
430 3.16981
435 2.95525
440 3.62832
445 3.21939
450 2.87887
455 3.02369
460 3.12815
465 3.06836
470 3.11604
475 2.78264
480 2.52761
485 2.61334
490 2.15853
495 2.00152
500 2.50431
505 2.35012
510 2.46204
515 2.69023
520 1.74067
525 2.05247
530 2.48636
535 2.19333
540 2.13997
545 2.09967
550 1.82695
555 2.20402
560 2.95799
565 2.47666
570 1.71335
575 1.20138
580 1.73634
585 1.55728
590 1.83127
595 1.52283
600 3.05345
Ex : 288
200 1.22715
205 1.70021
210 1.25096
215 1.04209
220 1.34523
225 1.21213
230 1.33209
235 1.1307
240 1.25471
245 1.03702
250 1.53059
255 1.34391
260 0.954667
265 1.53916
270 1.22026
275 1.29785
280 1.56021
285 1.22462
290 1.54779
295 1.01776
300 1.45117
305 1.29403
310 1.1814
315 1.1123
320 1.48116
325 1.65182
330 1.46906
335 2.24509
340 1.79975
345 2.12674
350 2.10568
355 1.91627
360 2.70778
365 2.1068
370 2.2294
375 2.58493
380 3.00213
385 2.41726
390 2.8821
395 3.05287
400 2.89001
405 2.35078
410 2.78129
415 2.79624
420 2.66832
425 2.90794
430 2.77695
435 2.66943
440 2.97481
445 3.12114
450 2.8334
455 2.80967
460 2.39153
465 2.53313
470 2.57502
475 2.62431
480 2.08297
485 2.18389
490 1.92981
495 1.75761
500 2.16967
505 1.46198
510 1.87523
515 1.57704
520 1.50782
525 1.69011
530 1.56974
535 1.3929
540 1.8645
545 1.78643
550 2.01048
555 1.61719
560 1.87061
565 2.26913
570 1.8551
575 2.30968
580 1.38561
585 1.59788
590 1.74665
595 1.82957
600 1.23867
Ex : 293
200 1.15947
205 0.674542
210 1.08446
215 1.2287
220 1.67715
225 0.964021
230 1.01095
235 1.15807
240 1.10204
245 1.33941
250 1.07592
255 0.970612
260 0.809237
265 1.16174
270 1.17616
275 1.40179
280 1.1775
285 1.11766
290 0.984762
295 1.00729
300 1.17174
305 0.933145
310 1.46333
315 1.37099
320 1.07519
325 1.42698
330 1.98391
335 1.80876
340 1.72041
345 1.76987
350 1.46219
355 2.21512
360 2.55161
365 2.36743
370 2.56027
375 2.51873
380 2.5933
385 2.08792
390 2.48522
395 2.4073
400 2.44605
405 2.50268
410 2.33558
415 2.42075
420 2.41553
425 2.89969
430 3.1103
435 3.11297
440 2.50411
445 2.20861
450 2.51749
455 2.2226
460 2.45198
465 2.19525
470 2.1332
475 2.42242
480 1.72904
485 1.93234
490 2.32539
495 2.048
500 1.44483
505 1.88858
510 1.41365
515 1.72049
520 1.64189
525 1.39489
530 1.57822
535 1.23552
540 1.55047
545 1.48961
550 1.36675
555 1.27926
560 1.23921
565 1.0923
570 1.38784
575 1.36014
580 1.45722
585 1.40456
590 1.21665
595 0.99836
600 1.05299
Ex : 298
200 1.01923
205 1.09127
210 0.880272
215 0.799637
220 0.822891
225 0.948877
230 1.05957
235 1.03128
240 0.919773
245 0.814846
250 0.685311
255 1.19875
260 0.917176
265 0.857965
270 1.04601
275 0.978436
280 1.005
285 0.975126
290 1.11725
295 1.11674
300 0.901085
305 0.976171
310 1.08802
315 0.852828
320 1.14846
325 1.51269
330 1.70075
335 1.92412
340 1.77667
345 1.61263
350 1.86385
355 1.75595
360 1.47587
365 2.12468
370 1.95601
375 2.13417
380 2.01312
385 2.73892
390 2.77138
395 2.54915
400 2.29714
405 2.55405
410 2.28005
415 3.04737
420 2.63552
425 2.74018
430 2.75873
435 2.34614
440 2.5876
445 2.28735
450 2.57949
455 2.23839
460 2.73988
465 2.25512
470 2.11403
475 1.6463
480 1.9619
485 1.63454
490 1.58505
495 1.64118
500 1.67379
505 1.2924
510 1.35137
515 1.37596
520 1.23322
525 1.05334
530 1.2368
535 1.28329
540 1.17958
545 1.02223
550 1.21181
555 1.18282
560 0.944772
565 1.09426
570 0.940261
575 1.11666
580 1.27002
585 1.50249
590 1.47262
595 1.43909
600 0.163763
Ex : 303
200 0.872651
205 0.704448
210 0.926841
215 0.749926
220 0.822491
225 0.708292
230 0.735828
235 0.77471
240 0.768648
245 0.822492
250 0.794642
255 0.885754
260 0.784806
265 0.858248
270 0.86697
275 1.01569
280 0.793506
285 0.978701
290 0.830706
295 1.06764
300 0.877604
305 0.805647
310 0.876908
315 0.822347
320 0.990663
325 1.24215
330 1.44177
335 1.50635
340 1.80698
345 1.49502
350 1.61297
355 1.54876
360 1.57569
365 1.77972
370 1.75338
375 2.26003
380 1.95346
385 1.98563
390 2.29753
395 2.14381
400 1.92671
405 2.14392
410 2.22411
415 2.3581
420 2.34268
425 2.58758
430 2.28007
435 2.34708
440 2.87589
445 2.41832
450 2.29534
455 2.02147
460 1.74822
465 1.93027
470 1.60831
475 1.67337
480 1.50757
485 1.78408
490 1.63111
495 1.59308
500 1.66797
505 1.39586
510 1.56787
515 1.44024
520 1.29682
525 1.56469
530 1.20931
535 1.01226
540 1.10293
545 0.71652
550 1.08192
555 1.06685
560 0.923903
565 0.873994
570 0.902433
575 0.811096
580 0.85588
585 0.721102
590 0.704162
595 1.26153
600 1.53616
Ex : 308
200 0.50309
205 0.558171
210 0.56506
215 0.663073
220 0.840261
225 0.713017
230 0.582868
235 0.461442
240 0.605668
245 0.625768
250 0.633455
255 0.674418
260 0.807514
265 0.738169
270 0.661064
275 0.527528
280 0.769214
285 0.96713
290 0.750046
295 0.990335
300 1.03254
305 0.860128
310 0.768505
315 0.617689
320 1.09537
325 1.40162
330 1.68685
335 1.70419
340 1.65164
345 1.77157
350 1.75645
355 1.58658
360 1.57355
365 1.50768
370 1.66512
375 2.02547
380 2.1611
385 1.91108
390 2.08654
395 2.25716
400 2.63038
405 2.24969
410 2.20143
415 2.10549
420 2.269
425 2.0397
430 1.99153
435 2.01737
440 2.18785
445 1.97398
450 1.86444
455 1.76165
460 1.85768
465 1.83642
470 1.78767
475 1.43162
480 1.47171
485 1.5688
490 1.51332
495 1.09188
500 1.2753
505 1.30261
510 0.967005
515 0.999808
520 1.08995
525 1.11873
530 1.09777
535 0.930835
540 0.903564
545 0.971633
550 0.571593
555 1.01923
560 0.883569
565 0.988394
570 0.881893
575 0.710412
580 0.722995
585 0.760265
590 0.880788
595 0.691676
600 0.203688
Ex : 313
200 0.63803
205 0.759771
210 0.82468
215 0.639578
220 0.662034
225 0.653807
230 0.559499
235 0.796374
240 0.629211
245 0.694973
250 0.72617
255 0.736531
260 0.923644
265 0.702331
270 0.683145
275 0.817102
280 0.892924
285 0.67936
290 0.461063
295 0.583456
300 0.883528
305 1.10094
310 0.910551
315 0.670934
320 0.9782
325 1.54205
330 1.39327
335 1.67367
340 1.80035
345 1.88362
350 1.65513
355 1.80488
360 1.78795
365 2.07016
370 2.04319
375 2.17622
380 2.09857
385 2.08555
390 2.32008
395 2.75194
400 2.57142
405 2.52503
410 2.85107
415 2.78455
420 2.33339
425 2.39915
430 2.81419
435 2.60648
440 2.40543
445 2.33386
450 2.3575
455 2.18891
460 2.2481
465 1.80104
470 2.01695
475 1.52703
480 1.50698
485 1.73251
490 1.59149
495 1.34818
500 1.30129
505 1.17494
510 1.31113
515 1.08649
520 1.1041
525 1.26491
530 1.18692
535 0.992809
540 1.12477
545 1.13564
550 1.01981
555 0.800523
560 0.797859
565 0.856978
570 0.691311
575 0.679697
580 0.702559
585 0.536345
590 0.629958
595 0.780992
600 0.0990602
Ex : 318
200 0.685377
205 0.502105
210 0.515677
215 0.813278
220 0.556067
225 0.643811
230 0.680845
235 0.524617
240 0.60929
245 0.611378
250 0.745677
255 0.636041
260 0.546904
265 0.55915
270 0.509903
275 0.591449
280 0.499817
285 0.466333
290 0.56527
295 0.687022
300 0.523253
305 0.676414
310 1.0446
315 3.70389
320 2.74127
325 1.99932
330 2.20233
335 2.49476
340 2.66636
345 3.3937
350 3.78782
355 4.52418
360 5.2892
365 6.65512
370 7.3884
375 8.11682
380 9.43394
385 10.3362
390 11.4205
395 12.0587
400 12.3914
405 13.1077
410 12.7966
415 12.7343
420 12.7148
425 12.1941
430 11.8505
435 12.0875
440 10.8715
445 10.5373
450 9.94316
455 9.1786
460 8.73406
465 8.00504
470 7.33121
475 6.85266
480 6.19356
485 5.59192
490 4.79669
495 4.67405
500 4.0486
505 3.81474
510 3.31121
515 3.09473
520 2.85792
525 2.48842
530 2.22118
535 2.13491
540 1.8891
545 1.71594
550 1.54924
555 1.53925
560 1.15126
565 1.50044
570 1.03097
575 1.02904
580 0.715162
585 0.707912
590 0.72704
595 0.744689
600 0.793706
Ex : 323
200 0.610304
205 0.654089
210 0.480129
215 0.494409
220 0.532128
225 0.618117
230 0.50582
235 0.622064
240 0.48823
245 0.524921
250 0.483031
255 0.566057
260 0.715961
265 0.570012
270 0.656915
275 0.572681
280 0.436379
285 0.778451
290 0.640171
295 0.578156
300 0.544499
305 0.639621
310 0.821744
315 28.212
320 126.395
325 52.3995
330 9.78135
335 5.78584
340 6.46801
345 8.02682
350 11.3169
355 14.0314
360 16.5013
365 19.3783
370 21.8989
375 25.709
380 29.4138
385 33.4459
390 35.4807
395 39.232
400 38.8149
405 41.6352
410 41.8527
415 41.874
420 42.4537
425 41.3131
430 38.9705
435 38.1392
440 36.3927
445 35.3126
450 33.9584
455 31.4495
460 29.1095
465 27.2966
470 24.8622
475 22.448
480 20.2934
485 18.572
490 16.8484
495 14.8028
500 13.2708
505 12.1126
510 10.5678
515 9.68184
520 8.29254
525 7.2175
530 6.54126
535 5.67008
540 5.43953
545 4.71432
550 4.15598
555 3.44866
560 2.94435
565 2.68794
570 2.32847
575 1.93803
580 1.53984
585 1.42184
590 1.12891
595 1.0216
600 1.00246
Ex : 328
200 0.491309
205 0.602401
210 0.483449
215 0.443373
220 0.531201
225 0.520404
230 0.563033
235 0.434033
240 0.525083
245 0.624948
250 0.633973
255 0.558726
260 0.488916
265 0.593296
270 0.582325
275 0.65242
280 0.706606
285 0.612452
290 0.681868
295 0.652005
300 0.686897
305 0.681634
310 0.777295
315 7.86432
320 289.107
325 676.777
330 201.129
335 29.5756
340 10.4354
345 9.19311
350 10.9241
355 14.9598
360 20.1979
365 21.8957
370 24.1474
375 27.7354
380 31.4623
385 35.8005
390 39.0002
395 41.877
400 44.0467
405 43.5876
410 46.3396
415 46.2867
420 45.1714
425 44.047
430 42.6498
435 41.6758
440 39.6588
445 38.0122
450 36.6482
455 34.215
460 32.106
465 29.4006
470 27.2593
475 25.0475
480 22.9079
485 21.0172
490 19.0477
495 17.8045
500 15.8914
505 13.8257
510 12.4134
515 11.019
520 9.88783
525 8.7279
530 7.66232
535 6.91
540 6.56881
545 5.75603
550 5.06153
555 4.58251
560 4.05134
565 3.43352
570 3.02449
575 2.54154
580 2.5112
585 1.768
590 1.65077
595 1.40186
600 1.33375
Ex : 333
200 0.402996
205 0.465743
210 0.550563
215 0.609655
220 0.618956
225 0.605588
230 0.54844
235 0.380938
240 0.501591
245 0.519602
250 0.615985
255 0.854109
260 0.649874
265 0.632943
270 0.632936
275 0.592043
280 0.584784
285 0.773274
290 0.816076
295 0.774324
300 0.844207
305 0.845258
310 1.00166
315 1.3714
320 39.1584
325 810.929
330 1387.09
335 353.881
340 47.4364
345 12.7343
350 9.28747
355 9.74954
360 12.3237
365 17.0351
370 17.7025
375 18.1619
380 19.1294
385 22.0607
390 25.7658
395 28.4626
400 28.7769
405 29.5436
410 32.148
415 32.654
420 32.0297
425 30.6679
430 29.4421
435 29.3747
440 27.5708
445 27.2889
450 25.5462
455 23.8856
460 23.6428
465 20.8746
470 19.4922
475 18.0603
480 17.2319
485 15.9028
490 14.2117
495 13.0845
500 11.3983
505 10.7289
510 9.86717
515 9.13329
520 8.15705
525 7.17805
530 6.62328
535 5.99253
540 5.31329
545 4.5355
550 4.31264
555 4.07984
560 3.87765
565 3.46934
570 3.08771
575 2.72473
580 2.22728
585 1.96582
590 1.72616
595 1.48714
600 1.39526
Ex : 338
200 0.563397
205 0.563539
210 0.666188
215 0.638007
220 0.586188
225 0.712865
230 0.595958
235 0.564543
240 0.406853
245 0.526581
250 0.461206
255 0.582446
260 0.533285
265 0.533198
270 0.582087
275 0.509939
280 0.65447
285 0.621811
290 0.756182
295 0.754348
300 0.908927
305 0.843172
310 0.793733
315 1.27029
320 1.79349
325 74.7607
330 1238.35
335 1848.26
340 446.732
345 58.1218
350 13.4601
355 8.13016
360 7.19327
365 9.17762
370 13.0918
375 14.1545
380 13.842
385 15.492
390 18.5872
395 19.7837
400 20.2045
405 21.1345
410 23.165
415 25.7999
420 25.5025
425 24.2249
430 21.6432
435 22.0003
440 22.1808
445 21.7972
450 20.0732
455 18.5314
460 17.8076
465 17.0393
470 15.8999
475 14.6827
480 14.0471
485 12.6723
490 12.1981
495 11.0673
500 10.0825
505 9.50456
510 8.60431
515 7.62997
520 7.3003
525 6.5582
530 6.00913
535 5.59734
540 5.17925
545 4.67432
550 4.48382
555 3.91591
560 3.78724
565 3.01525
570 2.85685
575 2.49207
580 2.14194
585 1.79527
590 1.60147
595 1.4596
600 0.459418
Ex : 343
200 0.555897
205 0.491875
210 0.604732
215 0.554777
220 0.519147
225 0.503427
230 0.476354
235 0.476307
240 0.494249
245 0.623703
250 0.595208
255 0.508504
260 0.548433
265 0.591123
270 0.583169
275 0.781748
280 0.87938
285 0.632427
290 0.721546
295 0.747004
300 0.679667
305 0.889056
310 0.810655
315 0.973495
320 1.40388
325 2.37299
330 90.4399
335 1472.74
340 2159.37
345 517.496
350 65.7875
355 14.1449
360 7.4775
365 6.05079
370 7.32921
375 10.8038
380 13.5562
385 14.008
390 16.2669
395 17.4543
400 17.3392
405 18.259
410 21.0312
415 24.1159
420 22.6667
425 22.3756
430 21.0101
435 21.0918
440 21.3943
445 21.326
450 19.7832
455 18.6626
460 17.2954
465 15.9108
470 15.7818
475 14.3515
480 13.522
485 12.6986
490 11.8008
495 10.241
500 10.7614
505 9.69279
510 8.58892
515 7.71347
520 6.97796
525 6.48492
530 5.9793
535 5.38151
540 5.08868
545 4.57533
550 4.38105
555 3.72479
560 3.27588
565 3.03194
570 3.03155
575 2.46219
580 2.19508
585 1.81181
590 1.70375
595 1.4164
600 1.27608
Ex : 348
200 0.412425
205 0.454467
210 0.466957
215 0.42637
220 0.423018
225 0.533693
230 0.468054
235 0.44247
240 0.476689
245 0.495941
250 0.478275
255 0.515176
260 0.615286
265 0.657761
270 0.70825
275 0.534888
280 0.626779
285 0.806359
290 0.641945
295 0.689618
300 0.811641
305 0.730582
310 0.837334
315 1.03857
320 1.1961
325 1.6475
330 2.9428
335 99.3914
340 1577.49
345 2388.29
350 612.007
355 77.2431
360 14.608
365 7.33381
370 5.82384
375 6.78337
380 11.0314
385 16.6732
390 19.416
395 19.8501
400 19.476
405 19.7817
410 23.7148
415 27.4599
420 27.1211
425 24.9746
430 23.7653
435 23.7564
440 25.2767
445 23.9284
450 22.4688
455 20.7463
460 19.0298
465 18.1392
470 17.1349
475 15.9031
480 15.0679
485 14.2641
490 12.7659
495 11.4493
500 10.5671
505 9.73339
510 8.79311
515 8.22024
520 7.45629
525 6.92745
530 5.92573
535 5.17308
540 5.46509
545 4.65952
550 4.30024
555 4.03124
560 3.67129
565 3.39764
570 2.7988
575 2.39757
580 2.03662
585 1.77404
590 1.49246
595 1.46307
600 1.96527
Ex : 353
200 0.530436
205 0.460727
210 0.445378
215 0.457268
220 0.477375
225 0.477087
230 0.506171
235 0.380155
240 0.604817
245 0.449922
250 0.532735
255 0.475407
260 0.559223
265 0.485505
270 0.516344
275 0.562876
280 0.581319
285 0.576387
290 0.656393
295 0.704785
300 0.651139
305 0.869055
310 0.727075
315 0.845974
320 1.08648
325 1.43965
330 1.98864
335 3.45314
340 105.955
345 1729.52
350 2539.65
355 626.601
360 78.1634
365 14.7128
370 7.15532
375 5.6458
380 6.7527
385 12.8725
390 21.9392
395 23.4048
400 21.725
405 21.2281
410 25.6661
415 30.4543
420 30.1333
425 27.8377
430 26.539
435 26.1524
440 27.2232
445 26.5208
450 24.5298
455 22.082
460 20.3435
465 19.0893
470 17.8074
475 16.6841
480 16.1103
485 14.9766
490 13.3471
495 12.1937
500 11.5272
505 10.4953
510 9.32965
515 8.22746
520 7.84414
525 6.86765
530 6.49438
535 5.92301
540 5.5203
545 4.88065
550 4.47137
555 4.2175
560 3.6186
565 3.46472
570 2.7663
575 2.44353
580 2.18107
585 1.82153
590 1.71577
595 1.446
600 1.36831
Ex : 358
200 0.506095
205 0.412382
210 0.396603
215 0.408978
220 0.540589
225 0.417377
230 0.450225
235 0.535949
240 0.555436
245 0.443055
250 0.567826
255 0.524417
260 0.461501
265 0.486845
270 0.574934
275 0.57013
280 0.509842
285 0.620452
290 0.566216
295 0.551009
300 0.57839
305 0.783185
310 0.690686
315 0.702913
320 0.906944
325 1.2031
330 1.66624
335 2.05015
340 3.67516
345 107.446
350 1776.13
355 2743.99
360 691.489
365 86.1444
370 15.7235
375 7.22049
380 6.74008
385 9.82311
390 16.685
395 21.5747
400 20.8949
405 20.586
410 23.954
415 27.926
420 28.3056
425 25.5656
430 24.497
435 25.1716
440 25.982
445 25.8724
450 23.7362
455 21.866
460 20.2872
465 19.0677
470 17.8726
475 17.5409
480 16.1869
485 14.7277
490 13.5591
495 12.4574
500 11.267
505 10.2498
510 9.9093
515 8.70883
520 7.9293
525 7.07855
530 6.48269
535 5.76772
540 5.51946
545 4.93257
550 4.5061
555 4.20105
560 3.58575
565 3.36712
570 2.8964
575 2.49386
580 2.08058
585 1.7432
590 1.61976
595 1.43574
600 1.61437
Ex : 363
200 0.47512
205 0.468901
210 0.487618
215 0.448596
220 0.426841
225 0.382354
230 0.431942
235 0.45659
240 0.481831
245 0.501859
250 0.427775
255 0.5086
260 0.461562
265 0.442882
270 0.584783
275 0.534541
280 0.449906
285 0.511773
290 0.59178
295 0.483746
300 0.531716
305 0.533416
310 0.656741
315 0.720633
320 0.772248
325 0.946644
330 1.22539
335 1.54692
340 2.19813
345 3.66927
350 104.044
355 1853.91
360 2985
365 778.029
370 96.5693
375 17.3833
380 8.96146
385 10.9248
390 15.0691
395 17.9714
400 21.1123
405 23.0916
410 26.658
415 30.5621
420 30.5933
425 27.5746
430 26.5466
435 27.8794
440 28.5527
445 27.3709
450 25.4293
455 23.2489
460 21.6073
465 20.8444
470 20.6024
475 19.0858
480 17.4863
485 15.5453
490 14.5535
495 13.1705
500 12.8221
505 11.1053
510 10.0857
515 9.19597
520 8.50706
525 7.67619
530 6.96433
535 6.25609
540 5.54727
545 5.26012
550 4.77697
555 4.31328
560 3.744
565 3.1389
570 2.77942
575 2.46995
580 2.09166
585 1.84818
590 1.56787
595 1.2271
600 1.3614
Ex : 368
200 0.402843
205 0.393222
210 0.421112
215 0.501533
220 0.414387
225 0.415689
230 0.37923
235 0.477523
240 0.384106
245 0.519062
250 0.386388
255 0.534298
260 0.467386
265 0.541666
270 0.429833
275 0.464271
280 0.465071
285 0.485564
290 0.523859
295 0.513038
300 0.659614
305 0.648104
310 0.637734
315 0.591811
320 0.665725
325 0.842294
330 1.01444
335 1.24595
340 1.59566
345 2.34811
350 3.98289
355 94.5252
360 1948.85
365 3319.04
370 889.399
375 110.143
380 20.3403
385 14.642
390 20.5086
395 22.8998
400 21.739
405 25.6484
410 34.6411
415 40.296
420 39.4074
425 34.6318
430 32.0471
435 32.7202
440 34.4909
445 34.2822
450 30.8872
455 27.6799
460 25.3049
465 24.0146
470 22.6411
475 21.6716
480 19.9173
485 17.7696
490 15.8588
495 14.5581
500 13.0829
505 12.0589
510 11.2003
515 9.84093
520 8.72311
525 7.9061
530 7.30168
535 6.37288
540 5.79656
545 5.27389
550 4.99356
555 4.55387
560 4.00657
565 3.37832
570 2.93495
575 2.65185
580 2.08738
585 1.89691
590 1.63609
595 1.32808
600 0.862478
Ex : 373
200 0.375976
205 0.423862
210 0.437288
215 0.410986
220 0.395156
225 0.427566
230 0.475629
235 0.37906
240 0.392984
245 0.425483
250 0.489115
255 0.470223
260 0.503747
265 0.379118
270 0.460719
275 0.509449
280 0.499618
285 0.416699
290 0.603572
295 0.569452
300 0.632622
305 0.623189
310 0.505486
315 0.528788
320 0.62002
325 0.726761
330 0.928811
335 1.08638
340 1.40199
345 1.72826
350 2.52019
355 4.17707
360 120.81
365 2155.86
370 3558.11
375 944.94
380 117.703
385 25.3165
390 22.6365
395 24.3942
400 22.1678
405 22.8413
410 31.1851
415 40.4856
420 39.4484
425 34.4094
430 30.4935
435 30.9082
440 33.4766
445 32.2919
450 29.9951
455 26.6188
460 24.633
465 22.6851
470 22.2784
475 20.9912
480 19.3171
485 17.725
490 16.0473
495 14.5641
500 13.3951
505 12.3929
510 11.1195
515 10.2779
520 9.08834
525 8.14693
530 7.33151
535 6.56283
540 6.14309
545 5.57064
550 4.96518
555 4.5938
560 4.00453
565 3.4137
570 3.16897
575 2.62165
580 2.05986
585 1.76577
590 1.45097
595 1.42113
600 0.629333
Ex : 378
200 0.390312
205 0.37778
210 0.402065
215 0.423807
220 0.482945
225 0.462492
230 0.459124
235 0.402469
240 0.419955
245 0.384921
250 0.439032
255 0.410363
260 0.414484
265 0.514302
270 0.454797
275 0.567019
280 0.502174
285 0.472597
290 0.539416
295 0.580683
300 0.512428
305 0.515028
310 0.48063
315 0.581621
320 0.55451
325 0.73832
330 0.882034
335 0.848438
340 1.24304
345 1.41004
350 1.89814
355 2.92473
360 4.41364
365 121.239
370 2346.95
375 3926.43
380 1045.08
385 131.902
390 29.7857
395 19.4933
400 16.3568
405 17.1646
410 22.3173
415 28.9609
420 31.9718
425 28.7739
430 26.1415
435 25.3645
440 27.0043
445 26.7341
450 24.9151
455 22.5268
460 21.0778
465 19.8403
470 19.3905
475 18.1037
480 17.3468
485 15.8238
490 14.6048
495 13.418
500 12.4464
505 11.7498
510 10.4363
515 9.61276
520 8.73747
525 8.06755
530 7.3325
535 6.50137
540 5.88411
545 5.52942
550 4.91058
555 4.63035
560 3.99185
565 3.47282
570 3.06937
575 2.54061
580 2.20838
585 1.72952
590 1.45021
595 1.28925
600 1.16675
Ex : 383
200 0.338108
205 0.408854
210 0.335138
215 0.380517
220 0.458251
225 0.347742
230 0.358935
235 0.418131
240 0.404363
245 0.429984
250 0.388301
255 0.479737
260 0.430492
265 0.520979
270 0.457982
275 0.478588
280 0.43309
285 0.421043
290 0.506477
295 0.494946
300 0.511452
305 0.465787
310 0.603304
315 0.527049
320 0.68722
325 0.740792
330 0.872073
335 0.889397
340 1.07709
345 1.27064
350 1.40333
355 1.86434
360 2.96787
365 4.88003
370 121.307
375 2484.6
380 4343.82
385 1165.19
390 150.987
395 32.7229
400 17.7692
405 17.5322
410 23.2321
415 28.0924
420 29.5603
425 29.3695
430 27.8646
435 28.3144
440 28.7713
445 28.0939
450 26.2721
455 23.3783
460 22.371
465 21.98
470 20.7632
475 19.4868
480 18.2574
485 16.3683
490 15.4122
495 13.9946
500 13.1606
505 12.16
510 10.9524
515 10.1642
520 9.11535
525 8.27073
530 7.44159
535 6.88735
540 6.18306
545 5.5294
550 4.92442
555 4.40541
560 4.06597
565 3.52608
570 2.895
575 2.47345
580 2.03762
585 1.74506
590 1.53173
595 1.37509
600 0.963681
Ex : 388
200 0.404044
205 0.362121
210 0.464229
215 0.395972
220 0.454305
225 0.438297
230 0.430102
235 0.362179
240 0.414741
245 0.398359
250 0.478369
255 0.377612
260 0.443833
265 0.460152
270 0.426441
275 0.564358
280 0.488273
285 0.484888
290 0.528645
295 0.470057
300 0.536955
305 0.517518
310 0.615347
315 0.586552
320 0.639303
325 0.592188
330 0.666773
335 0.836977
340 1.00642
345 1.04858
350 1.26183
355 1.64268
360 2.04222
365 3.16173
370 5.19685
375 142.889
380 2714.2
385 4584.01
390 1223.92
395 162.216
400 36.8037
405 23.4459
410 28.8053
415 35.4428
420 35.2524
425 32.5075
430 31.6825
435 33.8525
440 35.2186
445 33.7818
450 30.7355
455 27.6281
460 24.8957
465 24.1337
470 22.6265
475 21.7055
480 19.7624
485 17.8489
490 16.4215
495 15.3604
500 14.0861
505 12.8739
510 11.861
515 10.4167
520 9.31944
525 8.2224
530 7.74126
535 6.90162
540 6.40034
545 5.75455
550 5.34627
555 4.58301
560 4.07881
565 3.56911
570 3.19109
575 2.5197
580 2.15643
585 1.84871
590 1.48804
595 1.28841
600 1.05273
Ex : 393
200 0.462523
205 0.378978
210 0.461399
215 0.365505
220 0.332945
225 0.430175
230 0.409092
235 0.393721
240 0.442101
245 0.485457
250 0.411154
255 0.437622
260 0.40416
265 0.381177
270 0.428745
275 0.415162
280 0.428378
285 0.506999
290 0.437831
295 0.517893
300 0.506854
305 0.576816
310 0.598496
315 0.606989
320 0.680013
325 0.648548
330 0.788485
335 0.841339
340 0.849565
345 0.932549
350 1.07044
355 1.33941
360 1.5781
365 2.19881
370 3.27697
375 5.42295
380 132.882
385 2826.06
390 4887.25
395 1316.61
400 173.474
405 39.5654
410 30.6822
415 35.5286
420 35.6186
425 31.2479
430 27.8961
435 29.8186
440 33.708
445 33.6496
450 29.7974
455 25.6447
460 23.0009
465 22.2067
470 21.9613
475 19.9626
480 18.4911
485 17.4842
490 15.7239
495 14.6424
500 13.6755
505 12.7823
510 11.1796
515 10.0923
520 9.19928
525 8.53603
530 7.45669
535 7.04858
540 6.09094
545 5.65898
550 5.1862
555 4.75204
560 4.04017
565 3.54086
570 3.17099
575 2.61129
580 2.20675
585 1.68216
590 1.44792
595 1.30339
600 0.842829
Ex : 398
200 0.2925
205 0.32315
210 0.333207
215 0.444477
220 0.351231
225 0.342116
230 0.369653
235 0.417724
240 0.370338
245 0.442468
250 0.541513
255 0.360428
260 0.437817
265 0.416082
270 0.465149
275 0.438459
280 0.457167
285 0.431846
290 0.503093
295 0.511392
300 0.427268
305 0.470347
310 0.539091
315 0.556337
320 0.519354
325 0.585562
330 0.664193
335 0.680537
340 0.76799
345 0.889347
350 0.999768
355 1.26854
360 1.4188
365 1.70439
370 2.2169
375 3.27919
380 6.00087
385 143.104
390 2990.77
395 5154.76
400 1364.4
405 172.841
410 38.0151
415 25.8907
420 24.507
425 21.7626
430 19.6745
435 20.2766
440 22.9172
445 25.4189
450 23.7838
455 20.6169
460 19.0883
465 18.1123
470 17.4416
475 16.9192
480 15.7769
485 14.5362
490 13.8852
495 12.9605
500 12.0358
505 11.2224
510 10.3528
515 9.39191
520 8.66852
525 7.69218
530 7.04314
535 6.60569
540 6.21986
545 5.54581
550 4.9288
555 4.29031
560 3.96946
565 3.50292
570 2.82739
575 2.506
580 2.09342
585 1.78715
590 1.32657
595 1.27538
600 1.64809
Ex : 403
200 0.458222
205 0.452472
210 0.415698
215 0.397648
220 0.36684
225 0.375772
230 0.416631
235 0.421102
240 0.372924
245 0.388689
250 0.379247
255 0.389436
260 0.368854
265 0.423604
270 0.432477
275 0.448053
280 0.409299
285 0.46455
290 0.379897
295 0.486694
300 0.453509
305 0.504961
310 0.510667
315 0.564329
320 0.541924
325 0.603769
330 0.632753
335 0.759641
340 0.765013
345 0.726188
350 0.885506
355 1.0026
360 1.29731
365 1.54285
370 1.7857
375 2.24612
380 3.52849
385 6.22502
390 165.542
395 3157.68
400 5263.12
405 1407.43
410 177.936
415 37.529
420 21.152
425 17.7217
430 16.9285
435 17.6543
440 18.761
445 19.8387
450 20.6715
455 20.2463
460 18.2106
465 17.4258
470 16.3139
475 15.8242
480 15.5116
485 14.5221
490 13.4411
495 12.4607
500 11.5798
505 11.0232
510 10.322
515 9.66223
520 8.43093
525 8.07764
530 7.54434
535 6.70252
540 6.12979
545 5.55443
550 4.92588
555 4.40938
560 4.06476
565 3.67233
570 3.17606
575 2.51551
580 2.10342
585 1.77844
590 1.34421
595 1.18508
600 1.25005
Ex : 408
200 0.302862
205 0.349056
210 0.423803
215 0.308016
220 0.385963
225 0.421657
230 0.390488
235 0.352346
240 0.40264
245 0.411374
250 0.468104
255 0.451062
260 0.378704
265 0.38375
270 0.386185
275 0.403397
280 0.448118
285 0.497863
290 0.389134
295 0.427991
300 0.468518
305 0.575353
310 0.508682
315 0.460166
320 0.529878
325 0.549216
330 0.645509
335 0.635619
340 0.736219
345 0.685543
350 0.851143
355 0.981708
360 1.02252
365 1.17324
370 1.35494
375 1.85636
380 2.38386
385 3.70747
390 6.55603
395 166.785
400 3329
405 5492.42
410 1422.06
415 183.395
420 39.847
425 21.3817
430 18.7495
435 19.253
440 20.8455
445 21.7566
450 20.618
455 20.6261
460 21.311
465 19.9174
470 18.5597
475 17.6516
480 16.4913
485 15.4016
490 14.1532
495 12.8835
500 12.466
505 11.645
510 10.237
515 9.48428
520 9.0705
525 8.33759
530 7.33104
535 6.74918
540 6.20391
545 5.73217
550 5.1929
555 4.57771
560 4.08319
565 3.6255
570 3.07484
575 2.6679
580 2.17852
585 1.87722
590 1.5766
595 1.24199
600 1.63764
Ex : 413
200 0.400816
205 0.3025
210 0.435379
215 0.381598
220 0.391148
225 0.383953
230 0.348494
235 0.390537
240 0.409374
245 0.46482
250 0.360066
255 0.453218
260 0.417735
265 0.464499
270 0.416653
275 0.4882
280 0.479878
285 0.451361
290 0.473126
295 0.440767
300 0.490312
305 0.537511
310 0.45616
315 0.442121
320 0.536647
325 0.508239
330 0.616731
335 0.705561
340 0.701784
345 0.723656
350 0.817042
355 0.910116
360 0.970181
365 1.14414
370 1.24941
375 1.53313
380 2.0083
385 2.52413
390 4.08304
395 6.77919
400 190.869
405 3512.36
410 5694.66
415 1443.82
420 184.866
425 37.7848
430 19.5656
435 18.5051
440 19.2988
445 19.5054
450 18.3747
455 17.7385
460 17.9228
465 19.0069
470 17.9235
475 17.0715
480 15.822
485 14.4275
490 13.9217
495 12.3739
500 11.9288
505 11.0015
510 10.4209
515 9.50303
520 8.56244
525 7.82317
530 7.23228
535 6.67872
540 6.07485
545 5.37163
550 4.99704
555 4.51296
560 4.10916
565 3.55602
570 3.0954
575 2.49135
580 2.21702
585 1.81381
590 1.64534
595 1.43721
600 0.669952
Ex : 418
200 0.374002
205 0.367627
210 0.339093
215 0.302981
220 0.395428
225 0.385244
230 0.375805
235 0.426977
240 0.452184
245 0.387449
250 0.443154
255 0.401004
260 0.417374
265 0.466749
270 0.369936
275 0.39339
280 0.454918
285 0.464177
290 0.399212
295 0.521057
300 0.486222
305 0.471667
310 0.46718
315 0.530784
320 0.526956
325 0.519984
330 0.597418
335 0.664392
340 0.645427
345 0.715622
350 0.795675
355 0.863843
360 0.81046
365 0.913587
370 1.09395
375 1.32133
380 1.63589
385 2.20736
390 2.79909
395 3.99752
400 7.14113
405 187.684
410 3599.61
415 5908.56
420 1534.68
425 190.396
430 33.8427
435 15.0661
440 13.8917
445 13.4008
450 12.645
455 11.9157
460 11.6663
465 12.5553
470 14.1274
475 14.1913
480 12.9503
485 12.3016
490 10.9208
495 10.4419
500 10.3241
505 9.42952
510 9.08146
515 8.41312
520 7.95328
525 7.36216
530 6.9236
535 6.15359
540 5.90387
545 5.25496
550 4.74977
555 4.48588
560 3.9301
565 3.32432
570 2.96969
575 2.45798
580 2.16437
585 1.71517
590 1.45338
595 1.30227
600 0.847828
Ex : 423
200 0.328418
205 0.303338
210 0.382717
215 0.378866
220 0.370259
225 0.373056
230 0.455991
235 0.455706
240 0.398042
245 0.407249
250 0.39328
255 0.406835
260 0.451855
265 0.445117
270 0.425971
275 0.346409
280 0.458794
285 0.357557
290 0.433341
295 0.453314
300 0.455815
305 0.444155
310 0.506446
315 0.510073
320 0.53623
325 0.547798
330 0.593246
335 0.748293
340 0.539407
345 0.653739
350 0.731363
355 0.754802
360 0.832565
365 0.946192
370 1.00518
375 1.2203
380 1.37514
385 1.57416
390 1.93034
395 2.91977
400 4.37331
405 7.35293
410 199.009
415 3853.66
420 6024.23
425 1494.71
430 182.899
435 29.8403
440 11.3749
445 9.22722
450 8.40332
455 8.0763
460 7.79934
465 8.61103
470 9.13849
475 10.8724
480 11.5787
485 10.3166
490 9.86391
495 9.41785
500 8.65115
505 8.15257
510 8.21918
515 7.50238
520 7.21534
525 6.62672
530 6.3473
535 5.68101
540 5.16731
545 4.91625
550 4.4196
555 4.05025
560 3.56453
565 3.27889
570 2.81821
575 2.49977
580 2.18805
585 1.69729
590 1.28004
595 1.21556
600 1.44431
Ex : 428
200 0.405397
205 0.390064
210 0.413747
215 0.315144
220 0.350239
225 0.378038
230 0.398191
235 0.428677
240 0.37407
245 0.44425
250 0.41661
255 0.428624
260 0.466566
265 0.455427
270 0.465689
275 0.505118
280 0.435394
285 0.424081
290 0.45476
295 0.456995
300 0.493675
305 0.473589
310 0.526921
315 0.434682
320 0.615012
325 0.592183
330 0.543212
335 0.613578
340 0.726572
345 0.677627
350 0.636117
355 0.707488
360 0.850612
365 0.863782
370 0.986929
375 1.10627
380 1.2838
385 1.66318
390 1.91101
395 2.21084
400 3.02208
405 4.58341
410 7.76445
415 224.44
420 3944.63
425 6204.59
430 1576.62
435 190.808
440 29.511
445 9.72804
450 7.41472
455 6.92375
460 6.68834
465 6.82976
470 7.35902
475 7.60987
480 9.09271
485 10.3334
490 9.62533
495 8.85468
500 8.3461
505 7.97628
510 7.43708
515 7.02165
520 6.57756
525 6.11594
530 5.69564
535 5.31598
540 5.00407
545 4.66079
550 4.42512
555 4.00158
560 3.62421
565 3.37023
570 2.69863
575 2.40085
580 1.9518
585 1.7372
590 1.44358
595 1.23945
600 1.3266
Ex : 433
200 0.468354
205 0.435219
210 0.373835
215 0.397328
220 0.35613
225 0.341849
230 0.401827
235 0.44253
240 0.382982
245 0.49078
250 0.39713
255 0.422377
260 0.358816
265 0.432474
270 0.470769
275 0.418759
280 0.417122
285 0.456495
290 0.45331
295 0.485173
300 0.413115
305 0.497881
310 0.456452
315 0.46458
320 0.488474
325 0.491141
330 0.6055
335 0.566534
340 0.614957
345 0.65896
350 0.697746
355 0.739078
360 0.725191
365 0.810134
370 0.921338
375 1.07795
380 1.08314
385 1.25781
390 1.56129
395 1.87307
400 2.41371
405 3.14774
410 4.56334
415 8.00591
420 240.681
425 4229.97
430 6379.95
435 1553.4
440 187.758
445 28.6507
450 9.39779
455 6.8686
460 7.11666
465 6.49354
470 6.35365
475 6.93379
480 7.00504
485 8.21641
490 9.78187
495 8.98207
500 8.09822
505 7.86208
510 7.40932
515 6.75103
520 6.35692
525 6.05675
530 5.64024
535 5.22747
540 4.86351
545 4.48352
550 4.26618
555 3.76911
560 3.57085
565 2.95061
570 2.81408
575 2.3021
580 1.9198
585 1.58685
590 1.3254
595 1.1742
600 0.898977
Ex : 438
200 0.379899
205 0.470583
210 0.440703
215 0.403614
220 0.463216
225 0.362923
230 0.391056
235 0.496059
240 0.419649
245 0.375898
250 0.506024
255 0.463703
260 0.438321
265 0.466967
270 0.513209
275 0.452619
280 0.485653
285 0.401684
290 0.494752
295 0.451362
300 0.430683
305 0.557289
310 0.52465
315 0.558917
320 0.500232
325 0.618543
330 0.646221
335 0.631243
340 0.666057
345 0.651961
350 0.750532
355 0.789734
360 0.763784
365 0.818482
370 0.926487
375 0.95419
380 1.02232
385 1.20884
390 1.29371
395 1.68026
400 1.90099
405 2.51334
410 3.54106
415 4.84192
420 7.69132
425 240.148
430 4252.25
435 6729.98
440 1645.09
445 198.629
450 30.1926
455 9.34711
460 7.19422
465 6.76097
470 6.08631
475 6.16051
480 6.36255
485 6.59182
490 7.24212
495 8.81144
500 9.10166
505 7.47989
510 7.21288
515 6.4593
520 6.10349
525 5.81515
530 5.48135
535 5.08731
540 4.675
545 4.28608
550 4.05144
555 3.60665
560 3.1877
565 3.14358
570 2.59132
575 2.33884
580 1.89662
585 1.6554
590 1.3042
595 1.29781
600 1.15324
Ex : 443
200 0.393824
205 0.444121
210 0.395567
215 0.40712
220 0.393686
225 0.428829
230 0.378233
235 0.491834
240 0.453917
245 0.489032
250 0.498571
255 0.436765
260 0.475319
265 0.500545
270 0.43548
275 0.394942
280 0.483885
285 0.528804
290 0.54213
295 0.494701
300 0.452751
305 0.446461
310 0.489293
315 0.46045
320 0.48777
325 0.644735
330 0.57747
335 0.534731
340 0.566099
345 0.631105
350 0.671283
355 0.689937
360 0.709634
365 0.708173
370 0.871095
375 1.04105
380 1.03932
385 1.0346
390 1.2643
395 1.4451
400 1.68994
405 1.94898
410 2.67708
415 3.26308
420 4.79066
425 7.91612
430 265.053
435 4469.37
440 6689.69
445 1616.3
450 195.448
455 29.8451
460 9.60866
465 7.19948
470 6.29234
475 6.26559
480 6.22569
485 6.20659
490 6.30606
495 6.51006
500 7.63398
505 8.50448
510 7.40699
515 6.51479
520 6.02292
525 5.43297
530 5.26947
535 4.85174
540 4.47898
545 4.16205
550 3.78983
555 3.51143
560 3.22031
565 2.94341
570 2.61732
575 2.2372
580 1.89904
585 1.51802
590 1.37854
595 1.17276
600 1.23588
Ex : 448
200 0.400682
205 0.386472
210 0.428329
215 0.424607
220 0.459664
225 0.416334
230 0.459847
235 0.449258
240 0.403779
245 0.367662
250 0.358841
255 0.422356
260 0.535867
265 0.411474
270 0.389499
275 0.371659
280 0.409376
285 0.469179
290 0.424743
295 0.446412
300 0.405688
305 0.485202
310 0.486442
315 0.482745
320 0.535318
325 0.477356
330 0.533723
335 0.599294
340 0.610816
345 0.66383
350 0.643255
355 0.691722
360 0.771709
365 0.852543
370 0.903412
375 0.91998
380 0.997166
385 1.09051
390 1.11181
395 1.22221
400 1.43938
405 1.61917
410 1.98397
415 2.72119
420 3.47917
425 5.14125
430 8.08417
435 268.544
440 4650.25
445 6889.83
450 1659.63
455 200.139
460 31.0101
465 9.87346
470 7.17209
475 6.21328
480 6.02709
485 5.86005
490 5.66733
495 5.81784
500 6.02703
505 6.50093
510 7.75984
515 7.09197
520 6.00184
525 5.39709
530 5.15654
535 4.71532
540 4.16511
545 3.85906
550 3.75157
555 3.36361
560 3.15393
565 2.81692
570 2.56435
575 2.10417
580 1.71101
585 1.57404
590 1.23077
595 1.11746
600 1.20153
Ex : 453
200 0.444393
205 0.444636
210 0.415939
215 0.424953
220 0.357063
225 0.374465
230 0.502791
235 0.40311
240 0.436901
245 0.416207
250 0.379808
255 0.395889
260 0.423176
265 0.452819
270 0.436121
275 0.45627
280 0.443745
285 0.47102
290 0.465462
295 0.500813
300 0.467159
305 0.484952
310 0.465342
315 0.399164
320 0.542285
325 0.575481
330 0.615658
335 0.507281
340 0.640811
345 0.56906
350 0.612841
355 0.686736
360 0.748403
365 0.736685
370 0.742336
375 0.763246
380 0.785801
385 0.975488
390 1.10142
395 1.12468
400 1.32677
405 1.50807
410 1.63756
415 1.95965
420 2.47392
425 3.2924
430 4.7707
435 7.70921
440 284.972
445 4872.82
450 6940.31
455 1578.6
460 191.07
465 29.9062
470 9.47491
475 6.5869
480 5.93277
485 5.78021
490 5.32374
495 5.11832
500 5.11394
505 5.3928
510 5.65729
515 6.94989
520 6.5631
525 5.43932
530 5.06484
535 4.75831
540 4.16308
545 3.9472
550 3.53667
555 3.2898
560 2.99664
565 2.72746
570 2.44247
575 2.16389
580 1.73269
585 1.54828
590 1.40039
595 1.0823
600 1.28271
Ex : 458
200 0.381762
205 0.390591
210 0.355624
215 0.42464
220 0.425062
225 0.409911
230 0.41309
235 0.351218
240 0.416001
245 0.38994
250 0.45651
255 0.377531
260 0.409304
265 0.371247
270 0.453602
275 0.40409
280 0.493711
285 0.409183
290 0.389894
295 0.437203
300 0.472739
305 0.495973
310 0.537913
315 0.508691
320 0.532247
325 0.42754
330 0.464831
335 0.510521
340 0.563015
345 0.586629
350 0.637751
355 0.660848
360 0.698438
365 0.727194
370 0.788003
375 0.832479
380 0.908311
385 0.852038
390 1.0452
395 1.15378
400 1.25176
405 1.34961
410 1.44011
415 1.75262
420 2.01541
425 2.63405
430 3.33925
435 4.91634
440 8.28302
445 297.563
450 4873.19
455 7061.46
460 1647.42
465 199.466
470 30.3576
475 9.24598
480 6.13293
485 5.87286
490 5.69388
495 5.0184
500 4.75683
505 4.87162
510 4.70033
515 4.97394
520 5.95168
525 6.37246
530 5.36334
535 4.6746
540 4.50909
545 3.89988
550 3.63017
555 3.31845
560 2.98442
565 2.63932
570 2.43387
575 2.04731
580 1.64908
585 1.49405
590 1.25991
595 1.1641
600 1.39911
Ex : 463
200 0.371969
205 0.37847
210 0.398552
215 0.526064
220 0.414839
225 0.409781
230 0.401126
235 0.381738
240 0.415225
245 0.423265
250 0.435926
255 0.453477
260 0.420432
265 0.403356
270 0.351874
275 0.356748
280 0.375299
285 0.461137
290 0.453269
295 0.508602
300 0.499848
305 0.477324
310 0.516731
315 0.417464
320 0.529821
325 0.543325
330 0.62001
335 0.545034
340 0.498515
345 0.548014
350 0.592884
355 0.576435
360 0.563769
365 0.750979
370 0.709894
375 0.731812
380 0.770328
385 0.810927
390 1.05927
395 1.03522
400 1.14731
405 1.13924
410 1.17009
415 1.45222
420 1.79544
425 1.94468
430 2.44712
435 3.32659
440 4.8335
445 7.80309
450 282.13
455 4903.24
460 7314.27
465 1702.5
470 204.997
475 30.3992
480 9.30092
485 5.91219
490 5.73545
495 5.05265
500 4.48954
505 4.48098
510 4.39623
515 4.43612
520 4.41012
525 5.10171
530 6.07362
535 5.31836
540 4.17476
545 4.08725
550 3.7224
555 3.38576
560 2.81209
565 2.56835
570 2.1865
575 2.04628
580 1.74406
585 1.53496
590 1.33358
595 1.09478
600 0.946689
Ex : 468
200 0.358338
205 0.439572
210 0.377276
215 0.360728
220 0.474097
225 0.426947
230 0.464053
235 0.402295
240 0.340645
245 0.390073
250 0.430418
255 0.455774
260 0.427405
265 0.37001
270 0.440179
275 0.42155
280 0.352844
285 0.384578
290 0.367901
295 0.476711
300 0.463293
305 0.411451
310 0.443937
315 0.486106
320 0.444895
325 0.368552
330 0.534675
335 0.457873
340 0.492506
345 0.514719
350 0.570597
355 0.575331
360 0.680494
365 0.618422
370 0.681822
375 0.659271
380 0.741068
385 0.850182
390 0.827933
395 0.956343
400 0.904398
405 1.04347
410 1.09754
415 1.22703
420 1.3759
425 1.52741
430 1.83857
435 2.34604
440 2.94499
445 4.53417
450 7.75741
455 301.889
460 4855.9
465 7446.42
470 1728.84
475 206.514
480 30.0101
485 8.61539
490 5.43253
495 4.93391
500 4.48214
505 4.31115
510 4.05764
515 4.18348
520 4.02445
525 4.23169
530 4.44413
535 5.3529
540 5.33717
545 4.04348
550 3.60998
555 3.5213
560 3.12364
565 2.55604
570 2.38004
575 2.06414
580 1.87945
585 1.53593
590 1.22109
595 1.10796
600 1.45539
Ex : 473
200 0.388913
205 0.36233
210 0.371716
215 0.339483
220 0.399418
225 0.424617
230 0.380822
235 0.413772
240 0.384251
245 0.342409
250 0.365417
255 0.425624
260 0.409492
265 0.358693
270 0.433859
275 0.407922
280 0.433207
285 0.451643
290 0.43078
295 0.437618
300 0.478399
305 0.463487
310 0.52173
315 0.566156
320 0.53536
325 0.52126
330 0.480621
335 0.545211
340 0.612794
345 0.576793
350 0.65263
355 0.589862
360 0.613928
365 0.655488
370 0.656379
375 0.654004
380 0.822527
385 0.79706
390 0.828463
395 0.848194
400 0.869877
405 0.916212
410 1.02875
415 1.24802
420 1.25389
425 1.35871
430 1.64118
435 1.96145
440 2.40432
445 3.31421
450 4.84197
455 8.0208
460 339.38
465 5190.61
470 7108.17
475 1583.52
480 189.874
485 28.1983
490 8.05934
495 5.37133
500 4.77127
505 4.5028
510 4.27885
515 4.13112
520 3.73703
525 3.85387
530 3.85269
535 3.92048
540 4.86905
545 5.10299
550 4.05376
555 3.31799
560 3.13356
565 2.87398
570 2.43769
575 2.08225
580 1.7858
585 1.46328
590 1.21357
595 1.15902
600 0.991563
Ex : 478
200 0.596743
205 0.393097
210 0.443486
215 0.401162
220 0.490183
225 0.442668
230 0.485974
235 0.407082
240 0.396268
245 0.502952
250 0.414687
255 0.432836
260 0.510115
265 0.46522
270 0.499204
275 0.462404
280 0.439095
285 0.46562
290 0.43312
295 0.47477
300 0.458746
305 0.473139
310 0.578749
315 0.531562
320 0.439328
325 0.47939
330 0.546301
335 0.600857
340 0.488393
345 0.601351
350 0.655004
355 0.555672
360 0.592251
365 0.643398
370 0.660571
375 0.783561
380 0.791016
385 0.795046
390 0.820674
395 0.920122
400 0.967785
405 1.1349
410 1.23696
415 1.05859
420 1.30967
425 1.48247
430 1.70864
435 1.91492
440 2.18603
445 2.84693
450 3.78002
455 5.6935
460 9.39589
465 361.84
470 5241.51
475 7153.49
480 1670.69
485 200.091
490 29.6167
495 8.28581
500 5.16972
505 4.50404
510 4.18798
515 4.22872
520 4.12638
525 3.81638
530 3.60058
535 3.75933
540 3.66235
545 4.11254
550 4.62056
555 3.982
560 3.30771
565 2.86813
570 2.37712
575 2.24673
580 1.70801
585 1.35844
590 1.36446
595 1.23276
600 1.39441
Ex : 483
200 0.418312
205 0.388137
210 0.400709
215 0.438787
220 0.442082
225 0.393475
230 0.477811
235 0.380546
240 0.391637
245 0.419979
250 0.437443
255 0.435229
260 0.459076
265 0.424887
270 0.426259
275 0.402374
280 0.469489
285 0.392086
290 0.437917
295 0.466975
300 0.514006
305 0.524061
310 0.42467
315 0.401474
320 0.460552
325 0.426868
330 0.517446
335 0.599996
340 0.531466
345 0.562717
350 0.595957
355 0.572507
360 0.609762
365 0.636522
370 0.667035
375 0.780474
380 0.692699
385 0.784627
390 0.757764
395 0.904798
400 1.00623
405 1.09473
410 1.13498
415 1.18098
420 1.20115
425 1.37169
430 1.44126
435 1.6169
440 1.72843
445 2.20793
450 2.83133
455 3.87874
460 5.82106
465 9.42981
470 282.739
475 5107.58
480 7607.25
485 1763.94
490 210.777
495 30.4638
500 8.42127
505 5.07729
510 4.4413
515 4.39547
520 3.95517
525 3.856
530 3.59979
535 3.5841
540 3.58096
545 3.34015
550 3.44094
555 4.11993
560 4.09111
565 3.17133
570 2.59861
575 2.22075
580 2.02543
585 1.51291
590 1.16825
595 1.21363
600 1.00504
Ex : 488
200 0.476688
205 0.402953
210 0.437601
215 0.5075
220 0.499786
225 0.499333
230 0.48777
235 0.551524
240 0.449854
245 0.467022
250 0.453488
255 0.456695
260 0.459924
265 0.468117
270 0.54204
275 0.435598
280 0.459523
285 0.452582
290 0.381177
295 0.442505
300 0.486244
305 0.43511
310 0.519324
315 0.593469
320 0.495102
325 0.534799
330 0.504952
335 0.60235
340 0.560168
345 0.637076
350 0.653767
355 0.655021
360 0.636401
365 0.756495
370 0.610438
375 0.81958
380 0.766133
385 0.759023
390 0.829551
395 1.08671
400 1.0302
405 1.00899
410 0.987153
415 1.08509
420 1.26157
425 1.33122
430 1.27875
435 1.66537
440 1.67395
445 2.12413
450 2.43017
455 3.06106
460 4.28301
465 6.20678
470 9.67592
475 343.201
480 5450.34
485 7479.07
490 1702.95
495 203.745
500 29.9324
505 8.16036
510 5.00634
515 4.29576
520 4.29074
525 4.23843
530 3.83927
535 3.75341
540 3.52474
545 3.12163
550 3.17175
555 3.10728
560 3.59368
565 3.63933
570 2.95009
575 2.19891
580 2.12393
585 1.80651
590 1.43672
595 1.16902
600 0.905344
Ex : 493
200 0.422134
205 0.459948
210 0.483083
215 0.402789
220 0.489403
225 0.49505
230 0.480726
235 0.450351
240 0.547841
245 0.514895
250 0.465343
255 0.431678
260 0.446346
265 0.431507
270 0.473298
275 0.559257
280 0.519603
285 0.51969
290 0.476878
295 0.440857
300 0.485648
305 0.459779
310 0.486129
315 0.469989
320 0.489772
325 0.585713
330 0.647813
335 0.658746
340 0.614704
345 0.63262
350 0.579597
355 0.583205
360 0.618736
365 0.655637
370 0.659454
375 0.724269
380 0.788354
385 0.749589
390 0.822389
395 0.929257
400 0.94194
405 0.966502
410 1.13055
415 1.02649
420 1.23051
425 1.16945
430 1.28425
435 1.33546
440 1.40305
445 1.6906
450 2.09201
455 2.27554
460 3.18283
465 4.33274
470 6.00755
475 8.88509
480 314.462
485 5375.23
490 7800.8
495 1736.56
500 207.239
505 29.9366
510 8.23671
515 4.92654
520 4.21836
525 4.28617
530 3.87504
535 3.7023
540 3.37436
545 3.51459
550 3.15235
555 2.96851
560 2.80341
565 2.92047
570 3.42255
575 2.84346
580 2.04779
585 1.68302
590 1.52976
595 1.2788
600 0.926226
Ex : 498
200 0.46737
205 0.460489
210 0.501765
215 0.499493
220 0.476725
225 0.468307
230 0.42603
235 0.46354
240 0.45853
245 0.415747
250 0.549571
255 0.512599
260 0.434633
265 0.414622
270 0.53458
275 0.49915
280 0.468959
285 0.484143
290 0.51637
295 0.472386
300 0.572144
305 0.527549
310 0.57887
315 0.560905
320 0.647913
325 0.506096
330 0.535175
335 0.716477
340 0.631528
345 0.708701
350 0.560859
355 0.612309
360 0.695556
365 0.772624
370 0.716609
375 0.702605
380 0.670285
385 0.862174
390 0.93212
395 0.888116
400 0.982357
405 0.985375
410 1.00476
415 1.24555
420 1.1578
425 1.3174
430 1.29495
435 1.29876
440 1.53481
445 1.58563
450 1.91209
455 2.28078
460 2.6169
465 3.67909
470 4.3481
475 6.47398
480 9.42806
485 372.081
490 5622.83
495 7475.64
500 1677.08
505 200.583
510 29.3614
515 8.17829
520 5.20359
525 4.42942
530 4.19996
535 4.06004
540 3.73061
545 3.19947
550 3.05519
555 3.01381
560 2.74685
565 2.57978
570 2.52575
575 2.43524
580 2.64218
585 1.96189
590 1.63727
595 1.44716
600 1.10164
Ex : 503
200 0.517863
205 0.461306
210 0.553636
215 0.495966
220 0.492632
225 0.518675
230 0.444373
235 0.57094
240 0.525885
245 0.471078
250 0.496407
255 0.484545
260 0.48515
265 0.437435
270 0.499131
275 0.598122
280 0.618624
285 0.612593
290 0.576658
295 0.467239
300 0.538911
305 0.626156
310 0.498527
315 0.480776
320 0.656185
325 0.512809
330 0.541584
335 0.522711
340 0.675086
345 0.52683
350 0.575882
355 0.602551
360 0.682723
365 0.784423
370 0.640539
375 0.757302
380 0.787848
385 0.855971
390 0.800306
395 0.905082
400 0.909036
405 0.989047
410 0.929878
415 1.06536
420 1.11671
425 1.19583
430 1.34487
435 1.40959
440 1.40581
445 1.57774
450 1.59147
455 1.92388
460 2.34955
465 2.8333
470 3.35512
475 4.61975
480 6.34551
485 9.71761
490 335.029
495 5482.25
500 7600.71
505 1689.6
510 202.349
515 29.7578
520 8.51466
525 4.96342
530 4.12805
535 4.18312
540 3.7786
545 3.58518
550 3.37441
555 3.14014
560 2.94509
565 2.67146
570 2.28267
575 2.03496
580 2.30254
585 2.49477
590 1.97667
595 1.47807
600 1.97001
Ex : 508
200 0.532687
205 0.531945
210 0.526635
215 0.529909
220 0.483277
225 0.474935
230 0.450029
235 0.556783
240 0.499823
245 0.531298
250 0.442431
255 0.491375
260 0.561903
265 0.55015
270 0.542723
275 0.488423
280 0.499878
285 0.603871
290 0.532157
295 0.527244
300 0.561086
305 0.468457
310 0.497237
315 0.531362
320 0.513441
325 0.620644
330 0.64688
335 0.651747
340 0.600626
345 0.541255
350 0.55251
355 0.571462
360 0.652454
365 0.729303
370 0.752334
375 0.792807
380 0.799285
385 0.785812
390 0.796835
395 0.904813
400 0.88631
405 0.903637
410 0.983736
415 1.10439
420 1.05597
425 1.13143
430 1.17704
435 1.27244
440 1.26572
445 1.4463
450 1.48796
455 1.84195
460 2.00532
465 2.40666
470 2.68744
475 3.31566
480 4.41138
485 5.99553
490 9.05973
495 357.062
500 5430.35
505 7435.79
510 1742.82
515 207.964
520 29.9352
525 8.52616
530 4.92012
535 4.00469
540 3.76066
545 3.45332
550 3.38431
555 2.91397
560 2.81091
565 2.71184
570 2.18999
575 2.03201
580 1.70925
585 1.85493
590 1.95292
595 1.72677
600 2.05622
Ex : 513
200 0.528182
205 0.543039
210 0.601136
215 0.451139
220 0.461465
225 0.500175
230 0.458062
235 0.48672
240 0.360956
245 0.589969
250 0.504077
255 0.579402
260 0.445766
265 0.485583
270 0.524494
275 0.52683
280 0.552798
285 0.554932
290 0.460565
295 0.475325
300 0.518928
305 0.480606
310 0.586328
315 0.600581
320 0.57836
325 0.668395
330 0.609512
335 0.589672
340 0.611992
345 0.565012
350 0.639378
355 0.618937
360 0.66977
365 0.812898
370 0.774473
375 0.759408
380 0.583184
385 0.798538
390 0.7725
395 0.796184
400 0.898659
405 0.933107
410 0.94408
415 0.964878
420 1.05305
425 0.975407
430 1.08829
435 1.15248
440 1.29168
445 1.52562
450 1.53291
455 1.58042
460 1.77178
465 2.2726
470 2.32321
475 2.50395
480 3.17646
485 4.13171
490 5.99159
495 8.92146
500 324.735
505 5259.24
510 7443.17
515 1761.12
520 210.387
525 30.1376
530 8.13254
535 4.92474
540 4.09846
545 3.48141
550 3.15262
555 3.15638
560 2.82885
565 2.46375
570 2.18163
575 1.98758
580 1.87064
585 1.74112
590 1.65293
595 1.55924
600 1.90086
Ex : 518
200 0.55587
205 0.554967
210 0.544178
215 0.431774
220 0.463064
225 0.519902
230 0.516741
235 0.533504
240 0.610749
245 0.457298
250 0.442369
255 0.507782
260 0.514632
265 0.514961
270 0.506726
275 0.484703
280 0.50894
285 0.495387
290 0.503653
295 0.534679
300 0.558407
305 0.527868
310 0.486371
315 0.514252
320 0.577603
325 0.613341
330 0.590941
335 0.573476
340 0.512378
345 0.700376
350 0.660373
355 0.673322
360 0.723976
365 0.63221
370 0.681119
375 0.761998
380 0.719052
385 0.712313
390 0.767795
395 0.935415
400 0.829867
405 0.92573
410 0.97024
415 1.07798
420 1.09625
425 1.11435
430 1.13288
435 1.16291
440 1.32625
445 1.42326
450 1.3967
455 1.40966
460 1.68338
465 1.92659
470 2.12911
475 2.14285
480 2.52348
485 3.20932
490 4.45842
495 5.92342
500 9.06884
505 323.42
510 5011.65
515 7269.79
520 1724.19
525 206.06
530 29.8726
535 8.1482
540 4.78968
545 3.66188
550 3.49762
555 3.21145
560 2.83486
565 2.46797
570 2.27707
575 2.09998
580 1.67585
585 1.58949
590 1.42961
595 1.46935
600 1.31973
Ex : 523
200 0.428025
205 0.505519
210 0.55325
215 0.505946
220 0.450004
225 0.431981
230 0.49794
235 0.458002
240 0.535554
245 0.500018
250 0.510194
255 0.469441
260 0.456447
265 0.41693
270 0.454512
275 0.47016
280 0.455693
285 0.56274
290 0.53311
295 0.478443
300 0.539902
305 0.544273
310 0.432258
315 0.605492
320 0.509657
325 0.512642
330 0.56564
335 0.537229
340 0.54794
345 0.63645
350 0.741663
355 0.63785
360 0.564038
365 0.60825
370 0.760545
375 0.823572
380 0.622495
385 0.683306
390 0.768611
395 0.78819
400 1.0258
405 0.896005
410 0.890679
415 0.949138
420 0.956987
425 1.01419
430 1.10361
435 1.18334
440 1.4094
445 1.16874
450 1.30517
455 1.52067
460 1.48925
465 1.69055
470 1.76762
475 1.8009
480 2.0493
485 2.13545
490 3.15347
495 3.87818
500 5.60759
505 8.7372
510 289.119
515 4751.41
520 7055.34
525 1744.33
530 208.168
535 29.4816
540 7.88901
545 4.54577
550 3.67598
555 2.99712
560 2.80827
565 2.56121
570 2.50714
575 2.06065
580 1.73829
585 1.54382
590 1.47518
595 1.36755
600 1.88538
Ex : 528
200 0.511423
205 0.557834
210 0.537958
215 0.516636
220 0.533942
225 0.500109
230 0.449136
235 0.471175
240 0.570767
245 0.557823
250 0.521409
255 0.531103
260 0.57415
265 0.540084
270 0.544962
275 0.53921
280 0.514123
285 0.465712
290 0.483002
295 0.611129
300 0.542486
305 0.529958
310 0.441017
315 0.567541
320 0.531143
325 0.53193
330 0.524399
335 0.624145
340 0.514774
345 0.683545
350 0.666788
355 0.775964
360 0.76026
365 0.711054
370 0.774061
375 0.641073
380 0.679821
385 0.756996
390 0.778446
395 0.777319
400 0.965911
405 0.817964
410 0.981296
415 1.05902
420 1.09162
425 0.910292
430 1.10295
435 1.29282
440 1.16251
445 1.06289
450 1.14548
455 1.22077
460 1.20565
465 1.62952
470 1.74855
475 1.73924
480 1.78685
485 2.0672
490 2.42639
495 2.96589
500 4.08029
505 5.5504
510 8.18008
515 266.318
520 4609.24
525 6888.19
530 1679.04
535 200.228
540 28.5306
545 7.3601
550 4.41138
555 3.29424
560 2.80711
565 2.64694
570 2.42765
575 2.13271
580 1.88714
585 1.67472
590 1.55996
595 1.23282
600 1.12388
Ex : 533
200 0.543422
205 0.564473
210 0.530467
215 0.545189
220 0.556929
225 0.44854
230 0.468172
235 0.455368
240 0.469357
245 0.558753
250 0.606593
255 0.569762
260 0.510127
265 0.495497
270 0.524633
275 0.514769
280 0.470134
285 0.527544
290 0.506557
295 0.462408
300 0.50045
305 0.531593
310 0.563802
315 0.5727
320 0.455241
325 0.525402
330 0.527317
335 0.753468
340 0.69525
345 0.542008
350 0.580417
355 0.673544
360 0.810366
365 0.723006
370 0.741257
375 0.787178
380 0.715076
385 0.798904
390 0.93153
395 0.789294
400 0.886548
405 0.829724
410 1.14507
415 0.943345
420 1.04034
425 0.920602
430 0.994161
435 1.0566
440 1.16665
445 1.20763
450 1.15705
455 1.20826
460 1.33192
465 1.54672
470 1.63836
475 1.69917
480 1.82419
485 1.71654
490 2.11955
495 2.39275
500 2.85434
505 3.72205
510 5.39279
515 8.10755
520 258.571
525 4365.42
530 6654.32
535 1678.93
540 199.564
545 27.9166
550 7.4882
555 4.14598
560 3.05398
565 2.71742
570 2.39113
575 2.31273
580 1.89698
585 1.74895
590 1.47098
595 1.30614
600 0.848533
Ex : 538
200 0.43502
205 0.522757
210 0.538565
215 0.450542
220 0.483133
225 0.545562
230 0.623333
235 0.538697
240 0.524602
245 0.626626
250 0.563279
255 0.615487
260 0.500296
265 0.74065
270 0.545044
275 0.494879
280 0.519141
285 0.549945
290 0.577668
295 0.517194
300 0.543177
305 0.545936
310 0.478971
315 0.548114
320 0.68371
325 0.556032
330 0.53742
335 0.681209
340 0.49839
345 0.750364
350 0.659941
355 0.622092
360 0.652516
365 0.642617
370 0.773046
375 0.711567
380 0.70491
385 0.718619
390 0.865523
395 0.680543
400 0.835435
405 0.86369
410 0.884038
415 1.04465
420 0.969112
425 0.886915
430 0.94565
435 0.9992
440 1.03767
445 1.31381
450 1.10051
455 1.33297
460 1.39893
465 1.46513
470 1.42547
475 1.33014
480 1.69754
485 1.84293
490 2.05161
495 2.0893
500 2.5197
505 2.97554
510 3.71697
515 5.1688
520 7.63312
525 214.514
530 4051.24
535 6480.24
540 1689.66
545 202.133
550 27.9856
555 6.96076
560 3.87377
565 2.83735
570 2.1783
575 2.19889
580 1.97524
585 1.62707
590 1.39578
595 1.32599
600 0.974906
Ex : 543
200 0.389374
205 0.505439
210 0.53756
215 0.493625
220 0.466171
225 0.544016
230 0.559549
235 0.601252
240 0.560885
245 0.503821
250 0.520121
255 0.606383
260 0.468988
265 0.492731
270 0.538727
275 0.508542
280 0.544845
285 0.527136
290 0.51102
295 0.489355
300 0.566973
305 0.505944
310 0.537537
315 0.616993
320 0.469195
325 0.68287
330 0.564687
335 0.551568
340 0.660125
345 0.590626
350 0.602392
355 0.665055
360 0.720962
365 0.690033
370 0.696173
375 0.674907
380 0.774605
385 0.728354
390 0.777334
395 0.829649
400 0.893903
405 0.896783
410 0.840167
415 0.892053
420 0.924801
425 0.815696
430 1.10223
435 1.063
440 0.943168
445 1.00474
450 1.25601
455 1.27016
460 1.22946
465 1.29724
470 1.32383
475 1.42953
480 1.4157
485 1.4055
490 1.67946
495 1.80332
500 1.98443
505 2.31023
510 2.8943
515 3.6822
520 5.19698
525 7.25754
530 190.682
535 3804.44
540 6324.19
545 1691.68
550 202.273
555 27.9042
560 6.76862
565 3.42499
570 2.53966
575 2.1774
580 1.7919
585 1.52795
590 1.37495
595 1.23946
600 1.14107
Ex : 548
200 0.587581
205 0.509834
210 0.571006
215 0.598159
220 0.556119
225 0.615754
230 0.503566
235 0.531412
240 0.509421
245 0.404885
250 0.662876
255 0.66358
260 0.452173
265 0.605697
270 0.690025
275 0.789873
280 0.629497
285 0.5152
290 0.586807
295 0.608826
300 0.52301
305 0.483728
310 0.517592
315 0.582578
320 0.555511
325 0.549013
330 0.584561
335 0.567297
340 0.672905
345 0.642001
350 0.638934
355 0.623803
360 0.679353
365 0.631987
370 0.704845
375 0.707286
380 0.630466
385 0.728001
390 0.875303
395 0.751608
400 0.817716
405 0.838803
410 0.821701
415 0.841307
420 0.773399
425 0.950208
430 0.898772
435 1.03977
440 1.03375
445 1.09198
450 1.04603
455 1.44162
460 1.39958
465 1.27731
470 1.26069
475 1.35197
480 1.32446
485 1.39047
490 1.80651
495 1.51396
500 1.68098
505 2.03204
510 2.40425
515 2.95062
520 3.26517
525 4.71155
530 6.89551
535 208.966
540 3739.08
545 6030.15
550 1629.86
555 194.059
560 26.6601
565 6.16417
570 3.07858
575 2.27344
580 1.80196
585 1.6287
590 1.6198
595 1.42608
600 0.173291
Ex : 553
200 0.565284
205 0.590815
210 0.594861
215 0.620973
220 0.489767
225 0.556661
230 0.512251
235 0.566893
240 0.622536
245 0.620796
250 0.650835
255 0.704401
260 0.464334
265 0.524355
270 0.593771
275 0.711595
280 0.52778
285 0.542586
290 0.63846
295 0.587711
300 0.592342
305 0.530142
310 0.535612
315 0.519653
320 0.61823
325 0.653305
330 0.611848
335 0.619961
340 0.711519
345 0.644294
350 0.681141
355 0.650977
360 0.718503
365 0.706031
370 0.765442
375 0.770716
380 0.758342
385 0.714314
390 0.772141
395 0.850106
400 0.735598
405 0.700246
410 0.868094
415 0.910399
420 0.72408
425 0.837978
430 0.93276
435 0.981916
440 1.00739
445 1.00276
450 1.04714
455 1.28073
460 1.29502
465 1.21404
470 1.26049
475 1.39878
480 1.51593
485 1.25789
490 1.39081
495 1.37372
500 1.53386
505 1.76649
510 1.93791
515 2.31758
520 2.60416
525 3.25833
530 4.6323
535 6.76624
540 172.287
545 3458.74
550 5816.46
555 1600.29
560 191.306
565 26.016
570 6.1099
575 2.85708
580 2.20364
585 1.66249
590 1.49841
595 1.31815
600 4.39687
Ex : 558
200 0.491176
205 0.609859
210 0.667994
215 0.585153
220 0.550204
225 0.659073
230 0.604898
235 0.571735
240 0.569112
245 0.517488
250 0.644593
255 0.585874
260 0.548815
265 0.626918
270 0.49209
275 0.633595
280 0.606299
285 0.542745
290 0.472173
295 0.666887
300 0.594285
305 0.731292
310 0.49471
315 0.544797
320 0.670001
325 0.509858
330 0.602255
335 0.687178
340 0.66508
345 0.697374
350 0.632037
355 0.693625
360 0.70676
365 0.679137
370 0.690907
375 0.593521
380 0.812431
385 0.790767
390 0.7842
395 0.773575
400 0.957938
405 0.943067
410 0.809749
415 0.957448
420 0.720721
425 0.807491
430 0.843958
435 1.08675
440 0.892389
445 1.11663
450 1.04025
455 1.16911
460 1.36873
465 1.2869
470 1.34513
475 1.15324
480 1.41345
485 1.36428
490 1.36781
495 1.47614
500 1.41814
505 1.64143
510 1.80237
515 2.0046
520 2.1272
525 2.58632
530 2.98346
535 4.39873
540 6.22079
545 159.862
550 3215.57
555 5616.68
560 1564.06
565 186.463
570 25.118
575 5.74143
580 2.80325
585 1.84282
590 1.46869
595 1.43423
600 1.16757
Ex : 563
200 0.636826
205 0.601063
210 0.566232
215 0.597177
220 0.623188
225 0.582092
230 0.445916
235 0.499386
240 0.67404
245 0.598951
250 0.637913
255 0.528279
260 0.54089
265 0.558672
270 0.54672
275 0.559186
280 0.495205
285 0.735819
290 0.5611
295 0.593484
300 0.419564
305 0.620619
310 0.696266
315 0.574387
320 0.657042
325 0.484867
330 0.591334
335 0.676411
340 0.597377
345 0.616596
350 0.574443
355 0.559319
360 0.666613
365 0.666612
370 0.66569
375 0.811706
380 0.795648
385 0.715226
390 0.725622
395 0.914389
400 0.792158
405 0.860484
410 0.979005
415 0.807051
420 0.914534
425 0.774298
430 0.812989
435 1.02973
440 1.08217
445 1.09505
450 1.03028
455 1.01451
460 1.38899
465 1.38079
470 1.23155
475 1.17437
480 1.1771
485 1.23551
490 1.2997
495 1.30749
500 1.33902
505 1.38537
510 1.51457
515 1.54805
520 1.83177
525 2.02941
530 2.66191
535 3.28893
540 4.55878
545 6.10785
550 152.716
555 3064.86
560 5254.41
565 1485.05
570 177.158
575 23.7313
580 5.12713
585 2.4125
590 1.80239
595 1.36374
600 0.409275
Ex : 568
200 0.605556
205 0.556827
210 0.495791
215 0.710547
220 0.558114
225 0.565332
230 0.511588
235 0.516899
240 0.52616
245 0.601703
250 0.682565
255 0.652182
260 0.691361
265 0.481288
270 0.56659
275 0.550391
280 0.607326
285 0.646649
290 0.61819
295 0.659995
300 0.595924
305 0.757702
310 0.614775
315 0.678579
320 0.511159
325 0.690635
330 0.636294
335 0.607851
340 0.697642
345 0.76105
350 0.63588
355 0.694396
360 0.681475
365 0.837711
370 0.794138
375 0.806421
380 0.634163
385 0.815064
390 0.79568
395 0.779382
400 0.844818
405 0.847257
410 0.773196
415 0.915982
420 0.944113
425 0.910249
430 0.946403
435 0.804529
440 1.05757
445 0.998115
450 1.19763
455 1.17835
460 1.17019
465 1.34645
470 1.26822
475 1.17419
480 1.22082
485 1.15086
490 1.25009
495 1.27263
500 1.37542
505 1.41819
510 1.26131
515 1.46331
520 1.59127
525 1.65301
530 2.07071
535 2.31591
540 3.04792
545 3.79404
550 5.44753
555 115.584
560 2709.46
565 4956.22
570 1464.32
575 175.604
580 23.2056
585 4.86067
590 2.29688
595 1.68424
600 1.48326
Ex : 573
200 0.4534
205 0.562102
210 0.637364
215 0.59685
220 0.483071
225 0.630594
230 0.538939
235 0.528128
240 0.645086
245 0.574164
250 0.552362
255 0.661643
260 0.623873
265 0.583443
270 0.667802
275 0.703734
280 0.542119
285 0.542221
290 0.668942
295 0.70586
300 0.530624
305 0.487546
310 0.56058
315 0.511056
320 0.601218
325 0.704574
330 0.615176
335 0.863608
340 0.648034
345 0.618252
350 0.538004
355 0.684716
360 0.631873
365 0.620374
370 0.617948
375 0.843613
380 0.659736
385 0.750788
390 0.731988
395 0.706073
400 0.720929
405 0.906018
410 0.893906
415 0.748891
420 0.822066
425 0.875402
430 0.870675
435 0.845967
440 0.876121
445 1.04677
450 1.16985
455 1.06771
460 1.08837
465 1.21888
470 1.08289
475 1.02336
480 1.18529
485 1.07587
490 1.18646
495 1.316
500 1.31898
505 1.2443
510 1.38949
515 1.38397
520 1.55731
525 1.44446
530 1.62651
535 1.92114
540 2.46348
545 2.78238
550 3.83684
555 5.28081
560 96.7518
565 2316.6
570 4484.66
575 1373.63
580 164.407
585 21.3344
590 4.44159
595 1.92405
600 3.12701
Ex : 578
200 0.409002
205 0.648961
210 0.658728
215 0.579738
220 0.540987
225 0.491779
230 0.599732
235 0.602987
240 0.674511
245 0.617872
250 0.477334
255 0.464663
260 0.696792
265 0.550925
270 0.459869
275 0.701423
280 0.668705
285 0.691453
290 0.574334
295 0.6361
300 0.576798
305 0.725075
310 0.727313
315 0.710066
320 0.639479
325 0.552704
330 0.598785
335 0.615001
340 0.701912
345 0.50757
350 0.651706
355 0.584983
360 0.623182
365 0.648478
370 0.709817
375 0.669333
380 0.77836
385 0.779243
390 0.890075
395 0.888279
400 0.916684
405 0.768887
410 0.550613
415 0.762967
420 0.980212
425 0.924785
430 0.928256
435 0.946766
440 0.971367
445 0.968474
450 0.991933
455 1.23276
460 0.981556
465 1.16141
470 1.08582
475 1.11796
480 1.15045
485 1.16496
490 1.23349
495 1.19494
500 1.34386
505 1.25221
510 1.39068
515 1.35671
520 1.23218
525 1.21259
530 1.41901
535 1.61161
540 1.90301
545 2.19777
550 2.82165
555 3.6138
560 5.27481
565 82.2368
570 2053.43
575 3837.29
580 1165.12
585 139.209
590 18.5924
595 3.88975
600 1.87522
Ex : 583
200 0.53337
205 0.681517
210 0.490547
215 0.546807
220 0.539043
225 0.500649
230 0.499991
235 0.64759
240 0.657
245 0.504812
250 0.476216
255 0.612806
260 0.494594
265 0.598421
270 0.589812
275 0.49206
280 0.530299
285 0.507484
290 0.438943
295 0.548006
300 0.581985
305 0.485224
310 0.546237
315 0.538966
320 0.593914
325 0.536858
330 0.636653
335 0.544794
340 0.498326
345 0.563062
350 0.687663
355 0.643206
360 0.693999
365 0.711906
370 0.713566
375 0.713474
380 0.692019
385 0.701167
390 0.847844
395 0.872695
400 0.857737
405 0.684349
410 0.764528
415 0.734208
420 0.837766
425 0.896791
430 1.01132
435 0.902382
440 0.801339
445 0.743153
450 0.869835
455 1.11049
460 1.07166
465 1.09033
470 1.05135
475 1.08834
480 1.15932
485 1.133
490 1.08951
495 1.24097
500 1.16342
505 1.00805
510 1.10518
515 1.15562
520 1.1748
525 1.17093
530 1.31149
535 1.433
540 1.61162
545 1.90385
550 2.14693
555 2.82121
560 3.42949
565 4.60504
570 70.9214
575 1810.87
580 3287.12
585 946.31
590 113.381
595 15.1005
600 3.24537
Ex : 588
200 0.387662
205 0.467737
210 0.52735
215 0.583049
220 0.637764
225 0.658133
230 0.558934
235 0.610241
240 0.491461
245 0.626414
250 0.590229
255 0.561408
260 0.577202
265 0.567479
270 0.586204
275 0.520126
280 0.608292
285 0.639542
290 0.58533
295 0.540001
300 0.530487
305 0.645231
310 0.477327
315 0.729359
320 0.631592
325 0.685098
330 0.506687
335 0.61912
340 0.589062
345 0.655456
350 0.527306
355 0.582721
360 0.589437
365 0.668616
370 0.743709
375 0.593265
380 0.745876
385 0.664228
390 0.762284
395 0.822429
400 0.582111
405 0.729787
410 0.699861
415 0.806774
420 1.05152
425 1.05268
430 0.840869
435 0.764168
440 0.737228
445 0.870421
450 1.06202
455 0.980332
460 0.904674
465 1.09959
470 1.12505
475 1.1897
480 0.974882
485 0.962652
490 1.04505
495 1.07402
500 1.08961
505 1.22935
510 1.06441
515 1.16944
520 1.05617
525 1.22701
530 1.28092
535 1.40783
540 1.34509
545 1.37442
550 1.586
555 1.76069
560 2.54298
565 2.89275
570 3.60658
575 62.2696
580 1484.22
585 2790.99
590 823.84
595 98.5717
600 14.2696
Ex : 593
200 0.651672
205 0.446705
210 0.488178
215 0.650128
220 0.822922
225 0.585409
230 0.584587
235 0.586292
240 0.491331
245 0.623544
250 0.590113
255 0.678726
260 0.558222
265 0.506004
270 0.522571
275 0.682684
280 0.696006
285 0.657146
290 0.542742
295 0.734515
300 0.546872
305 0.725779
310 0.687604
315 0.545936
320 0.651858
325 0.72028
330 0.732805
335 0.607791
340 0.559322
345 0.799294
350 0.633879
355 0.615393
360 0.728098
365 0.789599
370 0.786398
375 0.705066
380 0.794891
385 1.00181
390 0.780479
395 0.675158
400 0.837831
405 0.824342
410 0.909809
415 0.820166
420 0.904322
425 0.859185
430 0.798607
435 1.00743
440 0.849595
445 0.78073
450 0.832232
455 1.01344
460 0.960083
465 1.19413
470 0.96708
475 1.00087
480 1.11492
485 0.96232
490 1.01999
495 0.918221
500 1.07962
505 1.13734
510 1.08535
515 1.06858
520 0.973044
525 1.07178
530 1.03278
535 1.07386
540 1.39728
545 1.23047
550 1.41825
555 1.65225
560 1.78926
565 2.32042
570 2.58548
575 3.47392
580 53.1118
585 1306.16
590 2396.71
595 703.035
600 98.4491
Ex : 598
200 0.605088
205 0.551443
210 0.568539
215 0.51592
220 0.567845
225 0.523986
230 0.52957
235 0.431933
240 0.580463
245 0.670802
250 0.695946
255 0.540142
260 0.477866
265 0.611066
270 0.662587
275 0.461014
280 0.624351
285 0.534567
290 0.592628
295 0.696201
300 0.60301
305 0.594233
310 0.594352
315 0.65395
320 0.619759
325 0.613865
330 0.680418
335 0.667922
340 0.618935
345 0.719535
350 0.562258
355 0.670155
360 0.698948
365 0.766984
370 0.794642
375 0.688806
380 0.635828
385 0.75467
390 0.850983
395 0.710997
400 0.747948
405 0.748923
410 0.862769
415 1.03061
420 0.801989
425 0.820924
430 0.803096
435 0.735291
440 0.795898
445 0.645706
450 0.861403
455 0.867892
460 0.884481
465 0.893402
470 0.997998
475 1.09534
480 1.06265
485 0.950702
490 1.05066
495 0.86395
500 1.26202
505 1.11384
510 0.968374
515 1.05847
520 1.1729
525 1.118
530 1.10405
535 1.23666
540 1.04132
545 1.35309
550 1.55352
555 1.3898
560 1.67787
565 1.73913
570 2.21258
575 2.57998
580 3.20471
585 51.2843
590 1165.21
595 2093.4
600 1327.68
Ex : 603
200 0.729414
205 0.587849
210 0.502812
215 0.732114
220 0.415663
225 0.524083
230 0.473462
235 0.484309
240 0.713474
245 0.586646
250 0.590051
255 0.608465
260 0.4313
265 0.504553
270 0.529901
275 0.667736
280 0.684153
285 0.665539
290 0.568699
295 0.810066
300 0.696466
305 0.626709
310 0.588334
315 0.708994
320 0.577815
325 0.618576
330 0.600351
335 0.623506
340 0.712882
345 0.537042
350 0.69839
355 0.712616
360 0.66756
365 0.789576
370 0.720287
375 0.720468
380 0.705416
385 0.671206
390 0.818133
395 0.819352
400 0.873993
405 0.801864
410 0.776194
415 0.750385
420 0.718617
425 0.827192
430 0.795578
435 0.812662
440 0.982975
445 0.977467
450 1.08972
455 0.901993
460 0.860717
465 0.894597
470 0.831375
475 0.795956
480 1.09366
485 0.923209
490 0.937777
495 1.08454
500 0.907976
505 0.941494
510 1.09899
515 0.85373
520 1.07684
525 1.11867
530 1.04652
535 1.06899
540 1.13521
545 1.18729
550 1.00961
555 1.40458
560 1.29156
565 1.23916
570 1.83492
575 2.00529
580 2.37658
585 2.82468
590 44.1092
595 984.041
600 1977.97
