File format V 1.0
ven. 9. déc. 20:44:45 2016
Operator : 
Comments : 

=============================================
SpectroFluorometer parameters
Mode : 3D measurement
Data : Fluorescence
Phospho. : Ordinary
Spectrum : Fluorescence

Scan speed : 2400 nm/mn
Response : 100 ms
PM Voltage : 700 V
Shutter : On

Lambda Ex. Start : 203
Lambda Ex. End : 603
Lambda Ex. Step : 5
Ex. Slit : 5 nm

Lambda Em. Start : 200
Lambda Em. End : 600
Lambda Em. Step : 5
Em. Slit : 5 nm

Repetition : 1
Decal lambda em : 10
=============================================
DATA
Ex : 203
200 18.2909
205 13.1073
210 16.78
215 16.1475
220 15.1617
225 17.5329
230 16.4875
235 19.8939
240 23.0525
245 13.755
250 13.1647
255 14.5319
260 13.0429
265 18.6972
270 18.2148
275 14.5149
280 15.7922
285 17.4513
290 15.3624
295 14.9146
300 11.4181
305 11.7331
310 16.7351
315 16.362
320 12.4588
325 14.2317
330 13.8588
335 16.9929
340 14.2672
345 14.8211
350 13.8039
355 16.0127
360 15.1567
365 13.9477
370 13.3036
375 14.2197
380 17.6459
385 12.4608
390 16.3948
395 21.6033
400 11.8355
405 13.3161
410 16.9496
415 11.5557
420 12.6323
425 17.8141
430 15.1496
435 17.9512
440 12.6927
445 12.4995
450 17.3433
455 16.4717
460 16.2805
465 15.9433
470 20.461
475 15.0108
480 14.7783
485 18.7271
490 17.9976
495 11.0553
500 17.1492
505 14.5469
510 14.1552
515 15.0048
520 16.2345
525 17.1234
530 16.5765
535 15.7789
540 14.0273
545 12.6187
550 13.0971
555 14.162
560 16.1039
565 17.2093
570 18.0634
575 15.072
580 16.6677
585 14.5143
590 16.9016
595 13.433
600 1.52862
Ex : 208
200 23.4012
205 13.7266
210 12.1145
215 19.0231
220 17.9458
225 13.7434
230 12.3936
235 18.4506
240 18.2203
245 12.6459
250 16.6967
255 12.63
260 14.8882
265 12.7021
270 18.7787
275 15.8865
280 15.4664
285 16.9723
290 16.8551
295 12.1067
300 9.66292
305 18.6443
310 13.0171
315 16.6124
320 12.3411
325 12.8594
330 13.7887
335 18.9447
340 8.77317
345 19.9314
350 16.152
355 20.8448
360 20.9512
365 19.3288
370 16.2667
375 14.8435
380 18.2769
385 20.1157
390 17.0626
395 13.7595
400 12.8747
405 19.2381
410 16.1868
415 13.5829
420 13.9312
425 18.6793
430 16.186
435 15.6347
440 13.0823
445 13.87
450 17.4164
455 18.3321
460 16.2443
465 16.3353
470 17.8106
475 20.2905
480 18.612
485 13.7129
490 20.3339
495 14.5766
500 15.3369
505 11.4728
510 14.4472
515 15.3831
520 15.1133
525 13.9985
530 22.817
535 16.8253
540 17.5619
545 15.8902
550 16.8737
555 19.4703
560 17.5748
565 16.2913
570 19.009
575 15.9846
580 14.599
585 11.1326
590 13.9833
595 19.9814
600 15.2715
Ex : 213
200 13.8503
205 15.188
210 18.0036
215 13.6603
220 14.0715
225 16.7433
230 14.2803
235 13.049
240 14.1836
245 14.3867
250 14.3132
255 12.0568
260 14.9779
265 14.1561
270 17.402
275 12.3868
280 19.2822
285 15.8046
290 14.4151
295 14.638
300 16.409
305 10.7093
310 11.0403
315 14.6304
320 17.8759
325 13.8433
330 16.3166
335 18.2885
340 14.2545
345 15.5919
350 15.9431
355 16.8966
360 15.1272
365 17.0726
370 15.4352
375 17.1854
380 13.3808
385 14.119
390 13.2316
395 13.1565
400 20.2425
405 17.0428
410 19.7104
415 17.0529
420 16.7543
425 13.4568
430 15.8981
435 13.346
440 14.4472
445 15.4536
450 15.8927
455 14.9439
460 17.8601
465 20.9332
470 18.1122
475 14.8607
480 11.089
485 17.9434
490 16.9322
495 12.5867
500 18.0985
505 17.2876
510 18.5963
515 15.2265
520 18.9933
525 18.4103
530 13.5431
535 13.0162
540 15.2303
545 17.6902
550 12.9663
555 16.7339
560 19.5317
565 19.1266
570 12.0887
575 12.5685
580 13.8636
585 14.7752
590 16.1146
595 13.3952
600 23.8271
Ex : 218
200 14.1677
205 13.8968
210 14.7742
215 14.3084
220 17.8151
225 16.5273
230 14.8904
235 17.7972
240 16.7813
245 16.176
250 16.4332
255 13.563
260 20.4364
265 19.4023
270 11.3957
275 11.5651
280 16.6269
285 16.5722
290 13.9564
295 17.3769
300 14.6019
305 15.0104
310 11.2761
315 15.3165
320 17.459
325 14.4099
330 17.6537
335 13.5395
340 15.065
345 19.7583
350 15.5306
355 15.3426
360 16.9044
365 17.125
370 14.1682
375 14.1825
380 18.5289
385 13.3516
390 12.2491
395 23.0325
400 15.7292
405 21.0489
410 19.2435
415 15.8768
420 15.5298
425 17.0047
430 17.5844
435 14.8482
440 14.0605
445 14.2784
450 15.7298
455 16.6405
460 13.9862
465 11.6194
470 14.6726
475 19.353
480 16.3506
485 13.4633
490 14.2634
495 13.5658
500 17.1149
505 16.8645
510 15.0421
515 18.0127
520 14.5227
525 14.9926
530 16.0371
535 16.619
540 14.999
545 16.1952
550 16.4531
555 17.2794
560 14.7002
565 13.6707
570 16.7994
575 11.3768
580 14.2941
585 16.5853
590 17.4907
595 18.9377
600 36.2739
Ex : 223
200 12.1547
205 13.1556
210 14.7035
215 15.2899
220 14.0166
225 15.6686
230 11.5794
235 22.0667
240 13.5039
245 19.201
250 11.9724
255 14.9828
260 13.1505
265 14.8476
270 16.2969
275 12.9124
280 12.3526
285 12.3404
290 12.6581
295 16.4914
300 15.0595
305 13.5022
310 11.9248
315 18.9334
320 15.8907
325 15.1209
330 12.111
335 18.2111
340 14.7779
345 12.3776
350 14.2103
355 21.7795
360 15.419
365 17.3408
370 17.9756
375 19.2727
380 13.2471
385 13.6425
390 11.5012
395 13.3966
400 12.93
405 10.9451
410 16.863
415 12.4527
420 13.9303
425 15.0604
430 15.3852
435 11.6812
440 13.8014
445 12.1955
450 14.3011
455 12.724
460 14.3726
465 16.0772
470 15.1129
475 14.947
480 15.3029
485 16.2092
490 17.7368
495 16.322
500 16.1461
505 17.9024
510 14.0238
515 14.2758
520 18.3245
525 13.7745
530 13.8723
535 13.7415
540 15.5434
545 13.9057
550 14.1809
555 16.6118
560 11.9931
565 12.6917
570 15.7013
575 13.5191
580 15.9627
585 14.5048
590 16.7407
595 15.1981
600 9.88256
Ex : 228
200 12.788
205 13.7781
210 13.2463
215 15.0425
220 13.9468
225 14.4682
230 12.8998
235 15.9043
240 14.5508
245 15.5332
250 12.274
255 12.6515
260 15.2276
265 12.4506
270 15.1487
275 15.796
280 16.087
285 15.8755
290 15.7347
295 14.5617
300 12.9732
305 12.9445
310 14.7341
315 17.8172
320 13.2259
325 15.7517
330 14.7458
335 12.7822
340 15.2082
345 14.8287
350 17.9967
355 15.6839
360 16.0495
365 11.6642
370 13.709
375 10.1943
380 9.86184
385 14.333
390 15.5031
395 13.4844
400 14.7628
405 13.5364
410 10.8761
415 13.5933
420 13.2277
425 14.0414
430 15.4704
435 14.7309
440 17.7031
445 14.7262
450 12.8252
455 14.4329
460 14.8677
465 13.1499
470 14.8515
475 13.0854
480 12.5812
485 11.0415
490 11.9331
495 14.2102
500 15.5155
505 14.5385
510 14.6317
515 11.5789
520 17.175
525 12.2761
530 12.4721
535 14.6649
540 14.4263
545 20.437
550 17.0732
555 14.7683
560 11.9652
565 15.8121
570 13.6557
575 13.0605
580 20.1501
585 12.3553
590 9.8016
595 13.2086
600 1.68033
Ex : 233
200 11.9414
205 10.6143
210 12.0585
215 12.0643
220 15.6319
225 11.4043
230 11.1077
235 17.5181
240 13.1438
245 10.662
250 12.7427
255 13.8191
260 12.3437
265 11.293
270 13.7376
275 12.8277
280 13.4926
285 12.1255
290 14.185
295 12.3126
300 11.7705
305 14.6075
310 11.187
315 10.1931
320 12.8103
325 12.8902
330 12.6304
335 13.1601
340 13.6116
345 13.5082
350 13.8228
355 17.677
360 11.4097
365 11.3272
370 14.7255
375 13.2709
380 13.0308
385 13.1697
390 12.8321
395 11.6056
400 10.2718
405 10.6603
410 10.6806
415 12.2527
420 13.44
425 12.5449
430 14.4831
435 9.936
440 16.4764
445 10.9
450 10.2947
455 12.0914
460 13.8531
465 11.7353
470 13.5006
475 18.3007
480 15.7554
485 12.1062
490 12.613
495 10.9532
500 14.1148
505 11.2612
510 11.4011
515 13.9343
520 10.4566
525 11.2631
530 10.4363
535 10.6968
540 14.1092
545 9.82825
550 11.3119
555 10.4962
560 11.2469
565 15.0203
570 10.9562
575 11.4528
580 15.5047
585 13.673
590 10.6016
595 11.5602
600 19.4827
Ex : 238
200 12.0348
205 9.72837
210 11.8872
215 13.5658
220 14.3299
225 13.1703
230 12.6586
235 12.7466
240 12.0772
245 7.31478
250 10.5027
255 9.52179
260 10.312
265 11.4792
270 10.9574
275 8.82759
280 9.68323
285 13.3811
290 9.39385
295 9.69575
300 9.20081
305 11.1995
310 11.0308
315 10.8301
320 9.65325
325 9.31906
330 12.0086
335 11.8277
340 14.5851
345 10.2002
350 14.0777
355 16.3122
360 10.9033
365 10.7814
370 12.5531
375 12.2189
380 11.2895
385 10.9303
390 10.6399
395 9.28294
400 12.8927
405 12.999
410 11.4171
415 13.8025
420 13.9577
425 12.9357
430 16.3336
435 9.0306
440 16.5291
445 14.1301
450 12.4309
455 10.4206
460 11.8242
465 10.1095
470 9.75712
475 13.094
480 10.8499
485 15.6113
490 9.18445
495 11.4637
500 11.4756
505 9.84667
510 12.0412
515 9.80227
520 9.98835
525 13.9156
530 10.1185
535 8.38241
540 8.05498
545 13.0424
550 9.51586
555 10.7318
560 10.9466
565 14.2384
570 14.3302
575 13.2102
580 13.6993
585 9.73927
590 9.98588
595 10.167
600 2.92937
Ex : 243
200 7.09259
205 10.0612
210 11.1355
215 7.64589
220 10.804
225 13.4179
230 9.74871
235 11.0264
240 12.6544
245 12.7766
250 9.06525
255 13.9179
260 9.16467
265 8.83809
270 9.46832
275 8.90504
280 7.67973
285 9.12818
290 10.8033
295 10.6238
300 12.0187
305 9.5711
310 10.8274
315 7.75472
320 10.802
325 10.1365
330 12.0683
335 8.03261
340 9.44578
345 8.55327
350 13.2926
355 10.2163
360 10.0982
365 11.2444
370 8.51465
375 11.6305
380 10.8838
385 8.36769
390 8.93138
395 11.1869
400 10.7151
405 9.92459
410 11.1162
415 12.4652
420 14.7739
425 8.50015
430 8.32244
435 9.18392
440 11.4588
445 10.5393
450 10.3982
455 10.0904
460 10.7651
465 9.93485
470 8.83711
475 7.49161
480 11.2911
485 11.6217
490 10.9242
495 11.806
500 10.7366
505 11.0783
510 12.1961
515 11.1165
520 9.47287
525 9.76612
530 12.2872
535 10.5897
540 12.6997
545 8.26188
550 8.02347
555 8.72167
560 10.4135
565 8.76591
570 10.0878
575 10.0494
580 10.2876
585 10.5858
590 12.742
595 9.96777
600 12.2118
Ex : 248
200 11.3405
205 10.4184
210 9.28953
215 8.84207
220 7.25352
225 7.0317
230 9.12657
235 7.35107
240 7.81163
245 9.47336
250 8.36279
255 10.2719
260 9.05897
265 9.04635
270 7.83402
275 7.64414
280 8.0646
285 9.21656
290 8.30762
295 10.8558
300 10.6414
305 9.35048
310 8.08244
315 9.88243
320 7.42397
325 8.18683
330 9.18389
335 8.23223
340 7.96409
345 7.60236
350 10.0644
355 7.87128
360 7.71246
365 9.02699
370 8.01228
375 6.50575
380 9.94446
385 9.49178
390 7.21105
395 7.62426
400 10.6242
405 9.66462
410 7.99789
415 9.35693
420 8.57375
425 8.55824
430 7.69523
435 8.33962
440 10.7993
445 7.69046
450 9.66098
455 9.92678
460 8.71065
465 7.56482
470 8.41705
475 8.55426
480 8.79658
485 11.6382
490 11.3057
495 7.31383
500 7.89456
505 7.02052
510 8.79463
515 8.48797
520 8.66513
525 10.7512
530 9.79008
535 7.01545
540 8.17032
545 8.0997
550 8.06104
555 9.27092
560 6.31701
565 8.77551
570 8.27566
575 10.2014
580 7.00396
585 7.91255
590 8.86471
595 7.25025
600 4.62307
Ex : 253
200 6.7519
205 8.55796
210 7.17279
215 5.93176
220 7.7168
225 7.46297
230 6.73964
235 6.91653
240 6.91077
245 5.24331
250 5.74021
255 5.60553
260 5.36431
265 5.43681
270 5.23945
275 5.50375
280 6.1426
285 6.18848
290 7.10433
295 7.142
300 5.56561
305 7.07162
310 5.21837
315 8.479
320 5.58596
325 5.59209
330 6.38875
335 5.9419
340 6.93146
345 7.54321
350 7.15403
355 8.16891
360 6.97109
365 5.85535
370 5.21828
375 6.30961
380 5.33292
385 7.38655
390 7.01076
395 7.03641
400 6.43858
405 7.26571
410 6.56239
415 7.99854
420 7.21259
425 7.99437
430 8.29254
435 10.7826
440 6.6211
445 7.80331
450 9.7323
455 5.84129
460 7.55273
465 7.61396
470 7.04809
475 7.37417
480 6.09259
485 9.01378
490 6.20491
495 9.65807
500 7.53802
505 6.26563
510 5.93375
515 6.18914
520 5.52623
525 5.65818
530 7.08052
535 7.38801
540 6.90291
545 6.37594
550 6.37539
555 5.6683
560 6.86901
565 7.0838
570 8.64096
575 6.03688
580 6.39638
585 6.256
590 7.48128
595 6.25606
600 8.05475
Ex : 258
200 5.93204
205 4.99661
210 4.03985
215 4.37155
220 4.87769
225 4.72891
230 4.11453
235 5.16475
240 5.61667
245 6.57619
250 5.12431
255 5.22663
260 6.11101
265 4.92738
270 5.85557
275 5.82544
280 4.14643
285 3.624
290 4.12953
295 4.57565
300 4.86309
305 6.53656
310 4.57935
315 4.47995
320 4.55322
325 5.40886
330 6.0883
335 4.9382
340 5.345
345 5.25566
350 5.09964
355 5.47294
360 3.89289
365 4.99934
370 6.89619
375 4.80595
380 5.86596
385 5.49587
390 4.44237
395 5.10955
400 5.94593
405 4.91685
410 5.95793
415 5.79436
420 4.86406
425 4.6626
430 5.77279
435 6.11212
440 6.17804
445 6.66774
450 5.93294
455 5.73738
460 3.96011
465 5.03953
470 5.58401
475 5.60544
480 5.26369
485 6.98248
490 6.59439
495 3.99694
500 4.92166
505 5.61787
510 6.28209
515 5.98638
520 6.24963
525 5.36592
530 4.02127
535 4.30523
540 3.98281
545 5.09976
550 4.46853
555 5.5521
560 5.4855
565 4.5419
570 5.5352
575 5.35687
580 6.14793
585 5.18235
590 4.92288
595 6.60218
600 6.87417
Ex : 263
200 3.01065
205 4.24584
210 4.34877
215 3.88028
220 4.21895
225 4.01137
230 3.18782
235 3.64404
240 4.3121
245 4.38483
250 4.59968
255 3.13355
260 3.38666
265 3.01883
270 4.64265
275 4.51486
280 4.65166
285 4.53093
290 3.87371
295 3.06277
300 3.90429
305 4.25094
310 3.73226
315 3.85722
320 4.05952
325 5.04628
330 3.92682
335 3.64038
340 4.44723
345 5.20499
350 3.89177
355 4.43412
360 4.60664
365 4.03121
370 4.00355
375 3.93347
380 4.91751
385 3.74993
390 4.44788
395 4.98409
400 4.0915
405 3.62278
410 5.35413
415 4.61302
420 4.24376
425 4.37096
430 4.88924
435 4.19876
440 4.06947
445 4.0425
450 4.35126
455 4.75329
460 4.32375
465 4.11226
470 4.32198
475 3.94976
480 4.6903
485 3.86788
490 4.4098
495 5.68187
500 3.91645
505 4.38123
510 4.07964
515 4.44066
520 5.5713
525 3.69187
530 4.99347
535 5.15951
540 4.08975
545 4.05152
550 4.3684
555 4.53743
560 3.94901
565 3.20121
570 4.40569
575 4.23443
580 3.23369
585 4.818
590 4.45871
595 3.37932
600 6.22307
Ex : 268
200 3.43847
205 3.23701
210 3.26943
215 2.69847
220 2.43003
225 3.02107
230 2.8304
235 3.01736
240 3.48738
245 2.73685
250 2.68199
255 2.855
260 3.38425
265 2.97758
270 2.52834
275 3.72919
280 3.33707
285 3.24206
290 3.36157
295 3.14007
300 2.84811
305 3.17768
310 3.93165
315 3.07498
320 3.20196
325 2.7811
330 3.58211
335 2.59584
340 2.74853
345 3.47733
350 4.42086
355 3.08217
360 3.12544
365 2.91604
370 3.2447
375 3.29594
380 3.00428
385 3.36422
390 2.85921
395 2.37779
400 2.95213
405 2.27034
410 3.39537
415 3.11884
420 3.31858
425 2.94313
430 4.75102
435 4.35312
440 3.9953
445 4.02664
450 3.26712
455 3.65302
460 2.3641
465 3.6507
470 3.73896
475 4.42705
480 3.04862
485 3.04397
490 3.74437
495 2.96424
500 2.93848
505 3.22827
510 3.29268
515 2.92911
520 3.78952
525 3.79668
530 3.22667
535 4.84512
540 3.77505
545 2.82755
550 3.08394
555 2.98984
560 2.14554
565 2.86715
570 3.2259
575 3.36583
580 4.18488
585 2.9216
590 3.89923
595 2.89098
600 0.328982
Ex : 273
200 2.54906
205 2.04654
210 3.25472
215 2.9977
220 2.75086
225 2.44649
230 2.5278
235 2.26437
240 2.50701
245 2.33357
250 2.57775
255 2.73946
260 2.45276
265 2.17218
270 2.69244
275 3.16015
280 2.50857
285 2.65821
290 2.65618
295 1.98067
300 2.6375
305 2.73214
310 2.49783
315 2.62462
320 2.69888
325 2.66837
330 3.02453
335 2.84635
340 2.44527
345 2.99328
350 3.30031
355 3.67277
360 3.09018
365 2.77128
370 2.68026
375 3.08862
380 3.10165
385 2.78812
390 2.5269
395 2.88932
400 2.65392
405 2.84984
410 3.03145
415 3.17319
420 2.71949
425 2.94358
430 3.53008
435 2.82636
440 2.79064
445 3.06898
450 3.58035
455 2.8762
460 2.48256
465 3.60321
470 2.31159
475 2.69863
480 1.90125
485 2.48294
490 3.27948
495 2.91524
500 2.37709
505 2.7697
510 2.21611
515 2.23296
520 2.59768
525 2.40774
530 3.18629
535 3.02204
540 2.66871
545 3.55511
550 2.43161
555 2.63066
560 2.07517
565 2.05012
570 3.03339
575 2.32962
580 2.4233
585 2.40454
590 2.66477
595 3.29703
600 1.12505
Ex : 278
200 1.7905
205 2.01014
210 1.82938
215 1.73731
220 1.95631
225 2.28835
230 2.35596
235 2.1975
240 1.38997
245 2.48682
250 2.64111
255 2.82309
260 2.18075
265 2.3709
270 1.90883
275 2.02083
280 1.61788
285 1.52697
290 1.88824
295 2.55689
300 1.71027
305 1.80533
310 2.79423
315 2.51255
320 1.6281
325 1.7012
330 2.31724
335 1.89133
340 1.58915
345 2.07004
350 2.13307
355 1.75367
360 2.26019
365 2.72118
370 2.32205
375 1.91927
380 2.38268
385 2.103
390 2.93182
395 2.40974
400 2.01057
405 2.33544
410 2.3084
415 3.30788
420 3.16454
425 3.0539
430 2.61991
435 2.16251
440 2.24671
445 3.08611
450 2.93636
455 3.05912
460 2.64194
465 2.35243
470 2.27615
475 2.08602
480 2.14123
485 3.06587
490 2.52178
495 1.82357
500 2.1168
505 2.52483
510 1.84375
515 2.37019
520 2.17264
525 1.79234
530 1.84656
535 2.17507
540 2.19548
545 1.79344
550 2.32078
555 2.79769
560 2.10954
565 2.33016
570 2.13393
575 2.01039
580 2.45477
585 2.10563
590 2.00287
595 1.88446
600 0.214444
Ex : 283
200 2.02717
205 1.87657
210 2.17481
215 1.63486
220 1.46745
225 1.4127
230 1.42568
235 2.15243
240 1.82724
245 1.69017
250 1.81587
255 2.0377
260 2.00026
265 1.67505
270 1.79788
275 1.67173
280 1.9644
285 2.23691
290 1.85577
295 1.6167
300 1.8204
305 1.76547
310 1.91171
315 1.58777
320 1.748
325 1.60026
330 1.56691
335 1.81313
340 1.62178
345 1.82426
350 2.39521
355 2.20949
360 1.95509
365 1.94588
370 1.58675
375 2.07259
380 1.88174
385 2.09328
390 1.97342
395 1.68076
400 1.85873
405 2.05312
410 1.98696
415 2.16256
420 2.28164
425 1.80663
430 2.10476
435 2.3752
440 1.71073
445 2.51489
450 2.48238
455 1.59421
460 2.14097
465 2.29786
470 2.01319
475 2.11583
480 2.04154
485 1.79531
490 1.74555
495 1.6918
500 1.93435
505 1.9405
510 1.99265
515 1.64468
520 1.38126
525 1.35304
530 1.86149
535 1.62559
540 1.70736
545 1.90207
550 2.26388
555 2.05071
560 2.49063
565 2.32983
570 1.92705
575 1.74073
580 1.1193
585 1.08874
590 1.77745
595 1.90633
600 1.52292
Ex : 288
200 1.80769
205 1.25593
210 1.31103
215 1.36784
220 1.7198
225 1.54402
230 1.32586
235 1.40207
240 1.40593
245 1.03264
250 1.33816
255 1.58291
260 1.13938
265 1.49583
270 1.36387
275 1.03996
280 1.80315
285 1.56582
290 1.13368
295 1.11406
300 1.36005
305 1.34719
310 1.37561
315 1.59969
320 1.80377
325 1.31338
330 1.63857
335 1.64399
340 1.56819
345 1.7592
350 1.73556
355 1.7508
360 1.48532
365 1.4773
370 1.65903
375 2.22658
380 1.81136
385 1.91048
390 1.57156
395 1.76737
400 2.08479
405 2.11294
410 1.73226
415 2.06896
420 2.06202
425 2.00169
430 1.75178
435 2.40784
440 2.36527
445 1.92909
450 2.24226
455 1.70259
460 1.61883
465 1.6268
470 1.72813
475 1.57068
480 1.45876
485 2.01343
490 1.95848
495 1.71985
500 1.47992
505 1.67954
510 1.7152
515 1.5741
520 2.37301
525 1.47653
530 1.89462
535 1.47836
540 1.4856
545 1.83026
550 1.32098
555 1.57908
560 1.48117
565 1.74129
570 1.63835
575 1.57939
580 1.83032
585 1.1624
590 1.26627
595 1.66254
600 0.189191
Ex : 293
200 1.02916
205 1.17552
210 0.959371
215 1.20777
220 1.66555
225 1.11067
230 1.35093
235 1.37273
240 1.14899
245 1.43953
250 1.09451
255 0.806471
260 1.21716
265 1.19801
270 1.51947
275 1.17524
280 0.903413
285 1.31725
290 1.30669
295 1.35549
300 1.27559
305 1.32096
310 1.1172
315 1.17065
320 1.45401
325 1.49248
330 0.931119
335 1.48556
340 1.42412
345 1.4448
350 1.26405
355 1.37121
360 1.71179
365 1.64149
370 1.22993
375 1.78025
380 1.41502
385 1.51923
390 1.52933
395 1.34875
400 1.56833
405 1.50238
410 1.91237
415 1.31585
420 1.57129
425 1.77456
430 1.62953
435 1.36468
440 1.94511
445 1.48587
450 1.59558
455 1.57358
460 1.83342
465 1.48165
470 1.54371
475 1.28706
480 1.43261
485 1.40786
490 1.73527
495 1.65008
500 1.55918
505 1.21829
510 1.03478
515 1.25091
520 1.4576
525 1.65176
530 1.49388
535 1.43316
540 1.28548
545 1.49025
550 1.00275
555 1.65014
560 1.61931
565 1.4441
570 1.4269
575 1.38608
580 1.63101
585 1.80948
590 1.39452
595 1.21181
600 0.728702
Ex : 298
200 1.19115
205 0.921616
210 1.01163
215 0.976797
220 1.17115
225 1.26601
230 0.883115
235 1.20205
240 1.07827
245 0.848368
250 1.14482
255 1.16093
260 1.03185
265 1.17776
270 1.27803
275 1.33415
280 1.16026
285 1.08978
290 1.19742
295 1.3133
300 1.49247
305 1.10416
310 1.19682
315 0.959408
320 0.961435
325 1.3274
330 1.02378
335 1.11993
340 1.187
345 1.12517
350 1.19358
355 1.08183
360 1.67855
365 1.22041
370 1.43876
375 1.33115
380 1.11776
385 1.46137
390 1.36831
395 1.48898
400 1.42967
405 1.71238
410 1.43635
415 1.2512
420 1.43288
425 1.44973
430 1.35398
435 1.47383
440 1.64076
445 1.31156
450 1.1798
455 1.43834
460 1.39154
465 1.2218
470 1.11072
475 1.32136
480 1.57139
485 1.31015
490 1.63203
495 1.10986
500 1.32606
505 1.09154
510 1.43643
515 1.24864
520 1.49104
525 1.35419
530 0.88413
535 1.26985
540 1.0529
545 1.10577
550 1.0364
555 1.07176
560 0.870384
565 0.969722
570 1.05444
575 0.876295
580 1.0602
585 1.09616
590 1.13577
595 1.1962
600 3.29895
Ex : 303
200 1.28212
205 0.970932
210 1.08108
215 0.870325
220 1.0871
225 0.892527
230 0.983012
235 0.98097
240 0.800092
245 1.04419
250 0.942558
255 0.780862
260 0.874649
265 0.714899
270 0.772648
275 1.25222
280 0.750941
285 1.14613
290 0.948995
295 1.05673
300 1.51969
305 1.09188
310 1.07402
315 1.15712
320 0.981612
325 0.981685
330 0.88714
335 0.847923
340 1.08843
345 0.900899
350 1.20601
355 0.992073
360 1.16518
365 1.2556
370 1.24567
375 1.25237
380 1.34273
385 1.13876
390 1.27754
395 1.29232
400 1.37521
405 1.56431
410 1.25976
415 1.35339
420 1.27455
425 1.47325
430 1.39691
435 1.21068
440 1.49611
445 1.42138
450 1.26114
455 1.24787
460 1.15851
465 1.02433
470 1.01818
475 0.93711
480 1.31787
485 1.23416
490 1.12804
495 1.26013
500 1.04851
505 0.874033
510 1.15597
515 0.909137
520 1.06499
525 1.36364
530 0.946781
535 0.819085
540 1.30961
545 0.93508
550 1.02396
555 0.833406
560 0.914893
565 1.19675
570 0.912915
575 1.04791
580 0.862332
585 1.14334
590 1.0135
595 1.0387
600 0.97795
Ex : 308
200 0.7458
205 1.03136
210 0.543738
215 0.760517
220 0.618929
225 0.796588
230 1.01883
235 0.951383
240 0.628259
245 0.659706
250 0.758779
255 0.935925
260 0.910181
265 0.799839
270 0.797381
275 0.638514
280 0.812322
285 0.970261
290 0.623142
295 0.70558
300 1.03688
305 1.01829
310 0.880478
315 0.926987
320 0.817393
325 1.00367
330 0.883849
335 0.970192
340 1.06555
345 1.21144
350 1.02323
355 1.05747
360 1.08363
365 1.06223
370 1.14007
375 1.1314
380 1.29858
385 1.08008
390 1.13093
395 1.07898
400 1.59402
405 1.033
410 1.27686
415 1.24227
420 1.54597
425 1.41611
430 1.34228
435 1.26286
440 1.23278
445 1.30625
450 1.26896
455 1.47301
460 1.43024
465 1.13106
470 1.07314
475 1.06816
480 0.905933
485 0.832467
490 0.80656
495 1.07314
500 0.910381
505 0.778204
510 0.822101
515 0.935832
520 0.868231
525 1.05755
530 0.720272
535 1.08577
540 0.880384
545 1.08109
550 1.0316
555 0.94819
560 1.01575
565 0.950563
570 0.94288
575 0.819696
580 0.993473
585 0.849693
590 0.703464
595 1.08086
600 2.17162
Ex : 313
200 0.771147
205 0.727735
210 0.663693
215 0.685523
220 0.664403
225 0.628039
230 0.785594
235 0.82745
240 0.602486
245 0.818558
250 0.844173
255 0.89431
260 0.990178
265 0.775056
270 0.763436
275 0.796381
280 0.725484
285 0.806922
290 0.694306
295 0.931999
300 1.01966
305 0.966436
310 0.901125
315 0.913751
320 0.587321
325 0.809317
330 0.759557
335 0.868823
340 0.794171
345 1.03509
350 1.10358
355 1.01424
360 1.19412
365 1.16063
370 1.27677
375 1.3811
380 1.41489
385 1.39506
390 1.31199
395 1.49091
400 1.52301
405 1.67045
410 1.86477
415 1.52953
420 1.50176
425 1.7897
430 1.61444
435 1.45196
440 1.53731
445 1.445
450 1.42422
455 1.42243
460 1.3739
465 1.24666
470 1.05544
475 1.18414
480 0.951062
485 1.00675
490 0.965812
495 1.06753
500 1.08478
505 0.795152
510 0.858758
515 0.900523
520 0.774422
525 0.949706
530 0.898504
535 0.817827
540 0.706251
545 0.96756
550 1.01126
555 1.08391
560 0.932798
565 0.749345
570 0.744406
575 1.01363
580 0.960149
585 0.937674
590 0.824918
595 0.826262
600 0.598956
Ex : 318
200 0.582493
205 0.713124
210 0.69563
215 0.691294
220 0.713941
225 0.692176
230 0.717108
235 0.660808
240 0.653866
245 0.750494
250 0.607396
255 0.714845
260 0.688846
265 0.703736
270 0.769132
275 0.656285
280 0.650948
285 0.578256
290 0.817112
295 0.684816
300 0.734222
305 0.587337
310 0.802507
315 1.44491
320 1.03562
325 1.0644
330 1.21989
335 1.49184
340 1.86137
345 2.15343
350 2.96204
355 3.53525
360 4.1062
365 4.87529
370 6.28972
375 6.86668
380 7.86029
385 8.77395
390 9.37985
395 10.0804
400 9.89969
405 10.4562
410 10.3455
415 10.1063
420 9.85402
425 9.84046
430 9.47054
435 9.08937
440 8.3983
445 8.42894
450 7.81694
455 8.03653
460 6.75931
465 6.52774
470 6.01817
475 5.53232
480 5.28389
485 4.38478
490 4.42277
495 3.89732
500 3.4496
505 3.35987
510 2.94034
515 2.69506
520 2.42231
525 1.89959
530 1.97776
535 1.98688
540 1.49757
545 1.54082
550 1.2963
555 1.2323
560 1.03702
565 0.989256
570 0.860157
575 0.864467
580 0.793127
585 0.771848
590 0.81363
595 0.672333
600 1.07706
Ex : 323
200 0.629695
205 0.695252
210 0.523314
215 0.550259
220 0.524215
225 0.606126
230 0.468158
235 0.421554
240 0.611094
245 0.648237
250 0.648254
255 0.731786
260 0.596664
265 0.705204
270 0.550239
275 0.733669
280 0.480739
285 0.61952
290 0.827847
295 0.645758
300 0.705155
305 0.563646
310 0.651591
315 3.36511
320 11.7267
325 5.48535
330 2.46511
335 3.57388
340 5.01012
345 6.51897
350 9.47034
355 12.6656
360 14.6337
365 17.8082
370 21.0161
375 25.058
380 28.5717
385 32.2083
390 33.8932
395 36.9297
400 37.9875
405 38.7781
410 39.4518
415 39.5121
420 38.4264
425 37.4958
430 36.319
435 34.5682
440 32.6277
445 32.7664
450 30.4215
455 28.4525
460 26.7668
465 25.1178
470 22.8752
475 20.6026
480 18.797
485 16.8576
490 15.3733
495 14.158
500 12.7671
505 10.9855
510 9.39787
515 8.21446
520 7.47999
525 6.37257
530 6.03703
535 5.17417
540 4.45553
545 3.96146
550 3.37172
555 2.95606
560 2.78585
565 2.14891
570 2.26543
575 2.04329
580 1.61372
585 1.21421
590 0.965507
595 0.971014
600 0.879656
Ex : 328
200 0.544256
205 0.612977
210 0.526592
215 0.484253
220 0.423538
225 0.608612
230 0.491354
235 0.556447
240 0.595008
245 0.53126
250 0.519228
255 0.505943
260 0.551299
265 0.490515
270 0.4526
275 0.697935
280 0.63395
285 0.594527
290 0.630067
295 0.543814
300 0.536238
305 0.591246
310 0.500397
315 1.02554
320 24.9871
325 56.2825
330 18.5021
335 5.78925
340 6.0379
345 7.79141
350 10.1334
355 14.7231
360 18.7303
365 21.8078
370 24.0561
375 26.5349
380 30.0772
385 34.0647
390 37.5365
395 39.6122
400 41.3325
405 42.4374
410 42.9716
415 42.2468
420 42.4021
425 40.3723
430 38.7956
435 37.8843
440 36.3644
445 34.2511
450 32.1564
455 31.3074
460 29.1419
465 26.7088
470 24.4233
475 22.7788
480 20.1017
485 18.6842
490 17.4667
495 15.4938
500 13.5548
505 12.128
510 10.7623
515 9.60129
520 8.91697
525 7.5229
530 6.60295
535 6.49947
540 5.27047
545 4.79601
550 4.15276
555 3.83968
560 3.60595
565 2.94036
570 2.76621
575 2.33541
580 1.83947
585 1.71196
590 1.53431
595 1.08252
600 0.441311
Ex : 333
200 0.519876
205 0.484636
210 0.485067
215 0.51594
220 0.443515
225 0.571285
230 0.478759
235 0.5537
240 0.513507
245 0.357808
250 0.541893
255 0.552094
260 0.491835
265 0.493754
270 0.510021
275 0.574293
280 0.510008
285 0.676136
290 0.51453
295 0.512409
300 0.556362
305 0.613453
310 0.621956
315 0.584092
320 3.80048
325 66.0338
330 111.118
335 29.5322
340 7.21642
345 5.89581
350 6.57634
355 7.65416
360 11.1448
365 15.7212
370 16.8887
375 17.4354
380 18.911
385 21.4091
390 24.1106
395 25.8637
400 26.0146
405 26.3911
410 27.1563
415 28.3635
420 26.3664
425 25.4845
430 24.8175
435 22.7089
440 22.9628
445 21.2088
450 20.0579
455 19.1535
460 17.6921
465 16.8792
470 15.2342
475 15.0948
480 13.4159
485 12.6263
490 12.2233
495 10.5497
500 9.86387
505 8.6045
510 8.18243
515 7.40932
520 6.39101
525 5.96158
530 5.45342
535 4.96366
540 4.45801
545 4.24271
550 3.95169
555 3.50836
560 2.94681
565 2.9589
570 2.44776
575 2.06006
580 1.84493
585 1.62318
590 1.4002
595 1.2334
600 0.353319
Ex : 338
200 0.652706
205 0.511422
210 0.423368
215 0.424279
220 0.473096
225 0.653494
230 0.546115
235 0.397931
240 0.44988
245 0.495345
250 0.419817
255 0.553185
260 0.533756
265 0.440967
270 0.449709
275 0.488431
280 0.37596
285 0.498039
290 0.476401
295 0.557989
300 0.550999
305 0.489893
310 0.413681
315 0.577845
320 0.674266
325 7.18783
330 97.0736
335 143.157
340 36.0245
345 7.31114
350 5.2944
355 5.27545
360 4.72925
365 7.03665
370 12.1266
375 13.1524
380 12.2449
385 13.3005
390 15.7422
395 16.99
400 16.686
405 16.6895
410 18.2421
415 18.8456
420 17.6531
425 16.5624
430 15.7777
435 15.4157
440 15.3035
445 14.547
450 13.8867
455 12.4958
460 12.0381
465 11.9277
470 11.1065
475 10.4945
480 10.1074
485 8.90705
490 8.8952
495 7.98293
500 7.28435
505 7.13769
510 6.59816
515 5.96669
520 5.61076
525 5.17352
530 4.78561
535 4.56148
540 3.96843
545 3.69529
550 3.20619
555 2.85024
560 2.98341
565 2.59393
570 2.07118
575 1.81975
580 1.6648
585 1.40597
590 1.29087
595 1.1529
600 5.27367
Ex : 343
200 0.549111
205 0.416143
210 0.413833
215 0.576407
220 0.448633
225 0.365405
230 0.30413
235 0.444845
240 0.600893
245 0.529007
250 0.466422
255 0.456259
260 0.39612
265 0.380315
270 0.340568
275 0.494818
280 0.39151
285 0.510439
290 0.434227
295 0.347705
300 0.425386
305 0.508435
310 0.448257
315 0.536948
320 0.424188
325 0.552861
330 7.99835
335 110.892
340 157.095
345 38.8775
350 6.94912
355 4.02216
360 3.94231
365 3.69707
370 5.22224
375 9.581
380 11.8439
385 12.5682
390 13.3831
395 13.5421
400 13.5203
405 14.0206
410 14.8788
415 16.1009
420 15.461
425 14.3927
430 13.4807
435 12.9254
440 13.494
445 12.4181
450 12.0035
455 11.6861
460 10.8935
465 10.3654
470 9.80131
475 9.33924
480 9.21994
485 8.42053
490 7.98864
495 7.45502
500 7.09999
505 6.58557
510 6.24801
515 5.92286
520 5.45083
525 4.77814
530 4.33838
535 3.99222
540 3.80427
545 3.81282
550 3.28259
555 3.13512
560 2.54651
565 2.50522
570 2.21266
575 1.78088
580 1.67424
585 1.41351
590 1.21987
595 1.01726
600 0.344458
Ex : 348
200 0.388991
205 0.425291
210 0.460296
215 0.445424
220 0.389068
225 0.336957
230 0.345876
235 0.516585
240 0.456058
245 0.331262
250 0.39714
255 0.407261
260 0.356167
265 0.390198
270 0.561781
275 0.368501
280 0.457941
285 0.412259
290 0.3844
295 0.5028
300 0.371664
305 0.402374
310 0.525959
315 0.423735
320 0.472532
325 0.402034
330 0.606482
335 8.04914
340 110.23
345 164.691
350 42.3746
355 7.20014
360 3.51865
365 3.64813
370 3.20549
375 4.2097
380 8.95051
385 14.1885
390 15.6647
395 15.5439
400 14.0372
405 14.4983
410 15.93
415 17.2823
420 16.5424
425 14.9453
430 14.8525
435 13.7421
440 14.1175
445 13.1264
450 12.1581
455 12.0334
460 11.2555
465 10.6667
470 10.3591
475 9.82388
480 9.31648
485 8.82853
490 8.27855
495 7.87739
500 7.35852
505 7.12136
510 6.33162
515 5.90532
520 5.4396
525 5.17924
530 4.71604
535 4.31874
540 3.91557
545 3.619
550 3.36344
555 3.33139
560 2.8031
565 2.57589
570 2.15784
575 1.92602
580 1.51668
585 1.36972
590 1.20524
595 0.968071
600 1.25748
Ex : 353
200 0.443976
205 0.349184
210 0.299866
215 0.384291
220 0.324864
225 0.370755
230 0.408479
235 0.338513
240 0.363972
245 0.320905
250 0.294767
255 0.341624
260 0.427032
265 0.350573
270 0.293315
275 0.362309
280 0.336002
285 0.399824
290 0.45566
295 0.351104
300 0.368759
305 0.322683
310 0.433062
315 0.468184
320 0.429858
325 0.544997
330 0.471993
335 0.56553
340 7.99322
345 113.934
350 162.852
355 40.2356
360 6.79187
365 3.53269
370 3.4361
375 3.3993
380 5.08551
385 10.8083
390 17.6291
395 18.1598
400 16.6158
405 15.6447
410 16.4178
415 18.6642
420 17.9687
425 16.194
430 15.1275
435 14.553
440 14.6301
445 13.8673
450 12.7762
455 11.8446
460 11.8697
465 11.4374
470 10.736
475 10.0503
480 9.49225
485 9.27002
490 8.67321
495 8.0482
500 7.81879
505 7.34611
510 6.93484
515 6.1532
520 5.68431
525 5.33219
530 4.95288
535 4.40419
540 4.12458
545 3.73434
550 3.24325
555 3.01619
560 2.88092
565 2.40976
570 2.24481
575 1.8824
580 1.66869
585 1.37185
590 1.02328
595 1.04311
600 0.724275
Ex : 358
200 0.370557
205 0.339325
210 0.286699
215 0.279661
220 0.336779
225 0.382381
230 0.34191
235 0.367647
240 0.362572
245 0.387324
250 0.410205
255 0.372201
260 0.454105
265 0.355066
270 0.319132
275 0.343315
280 0.31684
285 0.440325
290 0.403425
295 0.297841
300 0.28161
305 0.318523
310 0.32084
315 0.33403
320 0.308429
325 0.357144
330 0.446818
335 0.452598
340 0.519483
345 7.52461
350 108.347
355 162.107
360 40.7796
365 6.56272
370 3.32265
375 3.68232
380 4.72649
385 7.05715
390 12.3949
395 17.6635
400 16.7217
405 15.6432
410 15.5549
415 17.0369
420 16.4101
425 14.9669
430 14.019
435 13.7593
440 13.7128
445 13.3258
450 12.2057
455 11.4812
460 11.2613
465 10.6215
470 10.5215
475 10.0297
480 9.34037
485 8.99334
490 9.03074
495 8.57462
500 7.99912
505 7.50767
510 6.85765
515 6.23028
520 5.73248
525 5.45878
530 5.2298
535 4.52206
540 4.09058
545 3.99063
550 3.57665
555 3.2822
560 3.22358
565 2.51929
570 2.37986
575 1.94003
580 1.41541
585 1.27249
590 1.25984
595 1.02814
600 0.989355
Ex : 363
200 0.385477
205 0.350081
210 0.30613
215 0.357607
220 0.339941
225 0.350214
230 0.334772
235 0.387008
240 0.327304
245 0.413149
250 0.333448
255 0.313976
260 0.279605
265 0.263814
270 0.289868
275 0.263734
280 0.353884
285 0.386214
290 0.273979
295 0.278131
300 0.371169
305 0.347462
310 0.328737
315 0.30894
320 0.26152
325 0.374052
330 0.378598
335 0.406722
340 0.452511
345 0.558013
350 6.54231
355 106.356
360 162.372
365 42.1936
370 6.81177
375 3.30727
380 5.0355
385 8.00199
390 11.7034
395 14.0351
400 16.6971
405 18.1788
410 18.7033
415 18.377
420 16.7242
425 15.0332
430 14.1671
435 14.2835
440 14.3482
445 13.3696
450 12.8579
455 11.8365
460 11.2858
465 11.363
470 10.8385
475 10.4739
480 10.0548
485 9.44673
490 9.08255
495 8.6642
500 8.54117
505 7.83967
510 7.30353
515 6.77839
520 6.2658
525 5.75515
530 5.36755
535 4.94247
540 4.39922
545 3.90867
550 3.71008
555 3.47894
560 2.95362
565 2.73763
570 2.27914
575 1.96075
580 1.76855
585 1.34859
590 1.13592
595 0.984339
600 1.03656
Ex : 368
200 0.304637
205 0.332209
210 0.238407
215 0.320443
220 0.305711
225 0.292114
230 0.341205
235 0.330504
240 0.276307
245 0.219974
250 0.2494
255 0.36103
260 0.298366
265 0.312872
270 0.426284
275 0.351245
280 0.312936
285 0.323598
290 0.256786
295 0.342491
300 0.420148
305 0.340489
310 0.210449
315 0.304538
320 0.273171
325 0.312968
330 0.327778
335 0.377631
340 0.348696
345 0.412773
350 0.46602
355 5.44945
360 104.145
365 168.667
370 45.1771
375 7.29955
380 4.69981
385 9.07741
390 14.0597
395 15.5429
400 15.5028
405 18.3017
410 22.5449
415 22.6199
420 20.435
425 17.5987
430 16.1439
435 15.8778
440 15.8028
445 14.9145
450 13.7285
455 12.7939
460 12.1269
465 11.9114
470 11.7048
475 11.0336
480 10.6052
485 10.3926
490 9.466
495 9.39786
500 9.02697
505 8.2296
510 7.48085
515 7.18437
520 6.40099
525 5.96288
530 5.28302
535 5.01828
540 4.58306
545 4.36278
550 4.02615
555 3.34927
560 3.1265
565 2.90953
570 2.39797
575 2.14631
580 1.67863
585 1.32269
590 1.11277
595 0.881902
600 0.898739
Ex : 373
200 0.42092
205 0.309619
210 0.27562
215 0.285633
220 0.211462
225 0.267059
230 0.315952
235 0.297746
240 0.254383
245 0.241896
250 0.222175
255 0.292434
260 0.281211
265 0.305293
270 0.307335
275 0.247957
280 0.28495
285 0.236199
290 0.309036
295 0.330812
300 0.240845
305 0.286076
310 0.268524
315 0.347421
320 0.42211
325 0.353742
330 0.222981
335 0.403191
340 0.335282
345 0.331026
350 0.403341
355 0.505122
360 6.98177
365 104.714
370 164.938
375 44.0227
380 8.10888
385 7.20901
390 13.3453
395 16.4907
400 14.9161
405 14.4488
410 18.0768
415 23.1779
420 22.2285
425 18.4262
430 15.6813
435 14.8714
440 15.4884
445 14.836
450 13.5549
455 12.5309
460 12.3118
465 11.7381
470 11.8022
475 11.3014
480 11.2492
485 10.7799
490 10.3154
495 10.1884
500 8.75685
505 8.62007
510 7.9891
515 7.3871
520 6.75043
525 6.33033
530 5.83274
535 5.39705
540 5.14823
545 4.55086
550 4.14194
555 3.75042
560 3.23553
565 2.89936
570 2.46261
575 2.00436
580 1.68976
585 1.47953
590 1.31135
595 0.990261
600 1.35337
Ex : 378
200 0.224387
205 0.283452
210 0.303466
215 0.263511
220 0.372102
225 0.37131
230 0.329572
235 0.224467
240 0.300248
245 0.303417
250 0.283334
255 0.269049
260 0.219618
265 0.232523
270 0.364062
275 0.229274
280 0.351864
285 0.279488
290 0.294898
295 0.306449
300 0.238062
305 0.275007
310 0.313759
315 0.319075
320 0.277362
325 0.378599
330 0.320701
335 0.340791
340 0.336934
345 0.322535
350 0.316791
355 0.362309
360 0.434005
365 6.07405
370 110.021
375 173.047
380 47.206
385 10.6942
390 9.84391
395 11.6119
400 11.2891
405 11.089
410 12.6952
415 15.4346
420 17.952
425 16.0533
430 13.292
435 12.4169
440 12.2318
445 11.8268
450 11.4019
455 10.4621
460 10.4769
465 10.3132
470 10.8744
475 10.6355
480 10.4852
485 9.96288
490 9.7271
495 9.43559
500 9.01627
505 8.59984
510 8.13468
515 7.51129
520 7.32999
525 6.53706
530 5.98646
535 5.51532
540 5.13085
545 4.58472
550 4.01299
555 3.70411
560 3.39658
565 2.95746
570 2.48706
575 2.20321
580 1.79729
585 1.44559
590 1.13131
595 0.886219
600 0.704914
Ex : 383
200 0.305083
205 0.274021
210 0.233833
215 0.217989
220 0.219953
225 0.269654
230 0.312252
235 0.24204
240 0.224579
245 0.236502
250 0.283719
255 0.33881
260 0.228653
265 0.239658
270 0.252356
275 0.275666
280 0.212801
285 0.294906
290 0.346783
295 0.29065
300 0.277934
305 0.241323
310 0.250402
315 0.265286
320 0.280333
325 0.295906
330 0.277906
335 0.296138
340 0.285132
345 0.266462
350 0.327765
355 0.311249
360 0.383869
365 0.413717
370 5.9685
375 105.072
380 177.295
385 52.3065
390 14.6203
395 11.0539
400 10.3249
405 11.1196
410 12.3088
415 13.4906
420 13.6523
425 14.909
430 14.4979
435 13.0576
440 12.4118
445 11.1046
450 10.3772
455 10.2032
460 9.87542
465 10.2166
470 10.3055
475 10.4126
480 9.7211
485 9.84522
490 9.7611
495 9.33972
500 8.91319
505 8.209
510 7.88553
515 7.78508
520 6.75541
525 6.36598
530 6.03286
535 5.68098
540 5.03828
545 4.58147
550 3.88133
555 3.72907
560 3.36369
565 2.94246
570 2.42917
575 2.02292
580 1.60704
585 1.45106
590 1.21029
595 0.972981
600 0.849225
Ex : 388
200 0.253665
205 0.262574
210 0.310905
215 0.243167
220 0.255424
225 0.21398
230 0.222802
235 0.223307
240 0.287778
245 0.212039
250 0.312225
255 0.249189
260 0.198083
265 0.257368
270 0.237942
275 0.318453
280 0.272817
285 0.292837
290 0.221036
295 0.240286
300 0.215058
305 0.266928
310 0.193928
315 0.229715
320 0.252308
325 0.364091
330 0.281193
335 0.238713
340 0.326773
345 0.35741
350 0.304854
355 0.283171
360 0.274698
365 0.43146
370 0.521644
375 6.61236
380 111.193
385 183.42
390 56.9875
395 17.8758
400 12.6963
405 12.9503
410 14.8714
415 16.2559
420 15.4806
425 13.9697
430 14.7922
435 15.6615
440 14.5651
445 13.6422
450 12.089
455 10.8636
460 10.6905
465 10.4596
470 10.4801
475 10.5599
480 10.5215
485 10.1413
490 10.2781
495 9.75808
500 9.4855
505 8.71356
510 8.25996
515 7.62139
520 7.01048
525 6.67316
530 5.99102
535 5.63782
540 5.0994
545 4.57571
550 4.31217
555 3.7987
560 3.43076
565 3.00175
570 2.39817
575 2.19459
580 1.70605
585 1.2858
590 1.32934
595 0.935568
600 0.743318
Ex : 393
200 0.198552
205 0.203085
210 0.229292
215 0.235636
220 0.19986
225 0.251193
230 0.243429
235 0.238666
240 0.24457
245 0.266663
250 0.285738
255 0.281538
260 0.283197
265 0.256902
270 0.240354
275 0.236352
280 0.276894
285 0.276076
290 0.26616
295 0.347703
300 0.208617
305 0.263472
310 0.321606
315 0.238767
320 0.23129
325 0.276232
330 0.300324
335 0.355036
340 0.281949
345 0.278567
350 0.277742
355 0.264581
360 0.303551
365 0.405185
370 0.422171
375 0.618672
380 6.66234
385 112.511
390 191.061
395 61.8434
400 18.3814
405 11.6866
410 13.17
415 16.5848
420 16.2232
425 13.8138
430 11.9659
435 12.8615
440 15.5163
445 14.7513
450 13.1241
455 11.635
460 10.6678
465 10.1571
470 10.6053
475 10.571
480 10.2657
485 10.3262
490 9.87899
495 9.4148
500 9.39275
505 8.90729
510 8.43116
515 7.89633
520 7.30779
525 6.59892
530 6.19674
535 5.85162
540 5.19414
545 4.71266
550 4.3263
555 3.75036
560 3.59026
565 3.02986
570 2.74785
575 2.10431
580 1.79399
585 1.34979
590 1.16532
595 0.972836
600 0.780072
Ex : 398
200 0.304702
205 0.31282
210 0.241363
215 0.206777
220 0.235533
225 0.227181
230 0.203683
235 0.25302
240 0.258844
245 0.254345
250 0.233209
255 0.210358
260 0.235133
265 0.244394
270 0.234895
275 0.218637
280 0.217738
285 0.235299
290 0.228698
295 0.266333
300 0.217803
305 0.223532
310 0.238046
315 0.248368
320 0.272766
325 0.257449
330 0.259024
335 0.236281
340 0.248314
345 0.231319
350 0.263925
355 0.298975
360 0.2913
365 0.291792
370 0.344722
375 0.428044
380 0.690421
385 7.62782
390 119.061
395 196.018
400 56.3325
405 12.5922
410 8.07131
415 9.98504
420 10.4669
425 8.94906
430 7.66543
435 7.56848
440 9.0434
445 11.2824
450 11.1907
455 9.71266
460 8.92423
465 8.86575
470 9.2465
475 9.32747
480 9.1394
485 9.37563
490 9.18715
495 9.20783
500 8.94209
505 8.58913
510 8.19088
515 7.62891
520 7.31541
525 6.63702
530 6.09315
535 5.68242
540 5.17484
545 4.77181
550 4.35829
555 3.91718
560 3.63158
565 3.14708
570 2.63927
575 2.25857
580 1.73414
585 1.25375
590 1.11685
595 0.996345
600 1.28317
Ex : 403
200 0.237494
205 0.214411
210 0.268992
215 0.235258
220 0.228713
225 0.278721
230 0.234443
235 0.29806
240 0.188103
245 0.285227
250 0.273689
255 0.297723
260 0.250078
265 0.243766
270 0.225121
275 0.2805
280 0.163182
285 0.19998
290 0.233354
295 0.215043
300 0.193549
305 0.170039
310 0.208728
315 0.264795
320 0.248657
325 0.297367
330 0.280852
335 0.266917
340 0.246408
345 0.22268
350 0.210649
355 0.307478
360 0.295438
365 0.307396
370 0.279114
375 0.333537
380 0.44507
385 0.845495
390 7.8058
395 120.445
400 192.278
405 53.6848
410 9.20723
415 4.59601
420 4.49281
425 4.78179
430 4.31575
435 4.04609
440 4.46577
445 5.76731
450 8.09831
455 8.73992
460 8.09226
465 8.20703
470 8.22648
475 8.44762
480 8.53098
485 8.71621
490 9.043
495 8.84522
500 8.77146
505 8.32515
510 8.01096
515 7.67821
520 7.01722
525 6.47676
530 6.2492
535 5.78853
540 5.40397
545 4.68205
550 4.19168
555 3.77746
560 3.56363
565 3.04469
570 2.51289
575 2.20908
580 1.70052
585 1.37295
590 1.15471
595 0.929963
600 0.929369
Ex : 408
200 0.207421
205 0.213771
210 0.263249
215 0.240999
220 0.197625
225 0.190895
230 0.246013
235 0.213124
240 0.206272
245 0.236417
250 0.201639
255 0.205435
260 0.198176
265 0.18514
270 0.181296
275 0.235286
280 0.233692
285 0.219559
290 0.285095
295 0.193981
300 0.246842
305 0.254351
310 0.264998
315 0.246005
320 0.251776
325 0.258097
330 0.231775
335 0.255302
340 0.226642
345 0.185026
350 0.239351
355 0.254311
360 0.314766
365 0.29831
370 0.273414
375 0.271817
380 0.339298
385 0.41262
390 0.714321
395 6.88219
400 119.918
405 192.546
410 51.1012
415 8.17865
420 3.50182
425 3.07863
430 3.46153
435 3.70724
440 3.72318
445 4.214
450 4.97585
455 7.08644
460 9.0892
465 8.69494
470 8.43754
475 8.27938
480 8.57513
485 8.57599
490 8.78454
495 8.64929
500 8.38489
505 8.15963
510 7.75683
515 7.60978
520 6.91365
525 6.514
530 5.78505
535 5.46822
540 5.04622
545 4.89897
550 4.46108
555 3.91013
560 3.45042
565 2.99538
570 2.73498
575 2.18429
580 1.68814
585 1.4179
590 1.15667
595 0.937166
600 1.49493
Ex : 413
200 0.208159
205 0.206137
210 0.242894
215 0.232584
220 0.237287
225 0.22813
230 0.225766
235 0.191178
240 0.221627
245 0.281486
250 0.230436
255 0.316156
260 0.23448
265 0.205079
270 0.224703
275 0.258379
280 0.200914
285 0.238694
290 0.228973
295 0.271468
300 0.260406
305 0.227454
310 0.223428
315 0.250504
320 0.234097
325 0.179
330 0.292894
335 0.265674
340 0.246519
345 0.260843
350 0.252772
355 0.254007
360 0.336005
365 0.274534
370 0.289626
375 0.296191
380 0.316294
385 0.34547
390 0.486869
395 0.578719
400 7.57841
405 127.278
410 200.867
415 52.0045
420 8.01534
425 2.92958
430 2.5744
435 3.11704
440 3.42196
445 3.5813
450 4.18022
455 4.62416
460 6.92147
465 9.14629
470 8.9948
475 8.89035
480 8.70966
485 8.59064
490 8.41445
495 8.43177
500 8.53817
505 8.2737
510 7.72676
515 7.39224
520 7.0159
525 6.46626
530 6.15979
535 5.49075
540 5.09829
545 4.90913
550 4.3297
555 3.81778
560 3.55748
565 3.02737
570 2.67737
575 1.96643
580 1.6903
585 1.48106
590 1.14634
595 0.940134
600 0.572167
Ex : 418
200 0.260955
205 0.254231
210 0.208261
215 0.185251
220 0.20452
225 0.185882
230 0.164633
235 0.213662
240 0.221465
245 0.284252
250 0.276415
255 0.234931
260 0.251254
265 0.20572
270 0.229343
275 0.226973
280 0.205075
285 0.242402
290 0.223829
295 0.257497
300 0.224724
305 0.215628
310 0.239625
315 0.2232
320 0.194931
325 0.222652
330 0.248403
335 0.185312
340 0.280309
345 0.278501
350 0.277657
355 0.285841
360 0.286436
365 0.246793
370 0.268633
375 0.266325
380 0.280608
385 0.349874
390 0.38458
395 0.456774
400 0.542187
405 7.38986
410 128.616
415 204.103
420 53.936
425 8.07761
430 2.74635
435 2.57366
440 2.96861
445 3.4278
450 3.49288
455 3.90737
460 4.8302
465 6.47054
470 8.62122
475 9.28277
480 8.54273
485 8.50294
490 8.48666
495 8.17567
500 8.2452
505 8.14452
510 7.71889
515 7.23688
520 6.81948
525 6.41987
530 6.16694
535 5.59491
540 4.91187
545 4.50362
550 4.25222
555 3.76466
560 3.505
565 3.2205
570 2.57603
575 2.17495
580 1.69711
585 1.41496
590 1.25276
595 0.914671
600 1.03952
Ex : 423
200 0.22639
205 0.186327
210 0.225744
215 0.255716
220 0.184822
225 0.170312
230 0.238829
235 0.277179
240 0.260652
245 0.273868
250 0.241622
255 0.226902
260 0.226568
265 0.20287
270 0.235013
275 0.229647
280 0.268173
285 0.226316
290 0.278475
295 0.203972
300 0.213057
305 0.352396
310 0.281432
315 0.198478
320 0.246572
325 0.278523
330 0.243953
335 0.188428
340 0.192698
345 0.220454
350 0.292139
355 0.277061
360 0.250275
365 0.202766
370 0.238353
375 0.251758
380 0.238226
385 0.295816
390 0.286704
395 0.30109
400 0.401822
405 0.577601
410 7.85459
415 134.35
420 206.624
425 52.9339
430 7.73321
435 2.60023
440 2.3616
445 2.86324
450 3.37463
455 3.70829
460 4.1623
465 4.84946
470 6.08329
475 8.30979
480 9.42705
485 8.67615
490 8.45764
495 8.07477
500 7.96286
505 7.63927
510 7.27934
515 6.74375
520 6.44119
525 6.19661
530 5.67379
535 5.20754
540 4.83337
545 4.50319
550 3.96366
555 3.83446
560 3.36034
565 2.89679
570 2.60808
575 2.09445
580 1.70608
585 1.39815
590 1.08781
595 0.895957
600 1.2239
Ex : 428
200 0.227795
205 0.203091
210 0.225747
215 0.234111
220 0.211564
225 0.256116
230 0.27485
235 0.200665
240 0.226782
245 0.203963
250 0.245832
255 0.243293
260 0.196585
265 0.259443
270 0.234972
275 0.173269
280 0.235637
285 0.185157
290 0.233665
295 0.192275
300 0.270411
305 0.283993
310 0.259611
315 0.277138
320 0.237888
325 0.239349
330 0.258342
335 0.201491
340 0.240223
345 0.294955
350 0.30705
355 0.251788
360 0.296299
365 0.301992
370 0.27101
375 0.267457
380 0.300917
385 0.315216
390 0.283391
395 0.275564
400 0.370201
405 0.41442
410 0.496346
415 8.40933
420 137.605
425 213.647
430 55.6994
435 8.05274
440 2.7269
445 2.18896
450 3.32941
455 3.95946
460 3.87714
465 4.42573
470 5.14063
475 6.00253
480 7.60997
485 9.16683
490 8.46646
495 7.73691
500 7.88265
505 7.19097
510 6.75098
515 6.54825
520 6.12563
525 5.92075
530 5.44486
535 5.22736
540 4.70979
545 4.55945
550 3.84957
555 3.33301
560 3.1494
565 2.83486
570 2.40235
575 1.98243
580 1.55966
585 1.29612
590 1.11639
595 0.924274
600 1.61202
Ex : 433
200 0.228386
205 0.238024
210 0.23203
215 0.246506
220 0.248754
225 0.214705
230 0.248127
235 0.276953
240 0.272252
245 0.251557
250 0.26004
255 0.279569
260 0.272385
265 0.277396
270 0.211353
275 0.249551
280 0.24361
285 0.210889
290 0.251944
295 0.229529
300 0.267042
305 0.258085
310 0.290338
315 0.239707
320 0.214875
325 0.26521
330 0.237854
335 0.218478
340 0.259232
345 0.335075
350 0.367995
355 0.29572
360 0.253243
365 0.288066
370 0.278424
375 0.26621
380 0.334699
385 0.307353
390 0.314913
395 0.330898
400 0.30614
405 0.349497
410 0.494937
415 0.662421
420 9.71019
425 150.36
430 222.613
435 56.2706
440 8.05092
445 2.74913
450 2.41586
455 3.26704
460 3.83308
465 4.38885
470 4.49953
475 5.20426
480 5.63585
485 6.95812
490 9.05683
495 8.55268
500 7.41381
505 7.10531
510 6.50432
515 6.0748
520 5.85903
525 5.22329
530 5.01127
535 4.64741
540 4.41654
545 3.98365
550 3.71895
555 3.34448
560 3.15093
565 2.66862
570 2.36069
575 1.99526
580 1.46207
585 1.44872
590 1.11823
595 0.972314
600 0.591299
Ex : 438
200 0.198939
205 0.212545
210 0.307651
215 0.360737
220 0.233037
225 0.223756
230 0.225454
235 0.275806
240 0.289405
245 0.31538
250 0.214152
255 0.190343
260 0.2374
265 0.26082
270 0.219483
275 0.236802
280 0.214538
285 0.222171
290 0.324725
295 0.255834
300 0.259549
305 0.219638
310 0.254285
315 0.306607
320 0.266981
325 0.230811
330 0.315106
335 0.270063
340 0.236529
345 0.263678
350 0.252975
355 0.193165
360 0.206404
365 0.218208
370 0.189748
375 0.214681
380 0.29437
385 0.263026
390 0.279743
395 0.33039
400 0.353523
405 0.358061
410 0.328535
415 0.414937
420 0.692299
425 9.55361
430 150.589
435 236.725
440 59.6098
445 8.50216
450 3.0497
455 2.58035
460 3.46985
465 4.0729
470 4.36312
475 4.81852
480 5.20757
485 5.40598
490 6.03987
495 7.88755
500 8.11231
505 7.16392
510 6.30065
515 5.68092
520 5.57509
525 5.0702
530 4.64977
535 4.41746
540 4.21845
545 3.63877
550 3.40251
555 3.09337
560 2.82967
565 2.41729
570 2.13754
575 1.8758
580 1.41444
585 1.2673
590 1.18514
595 0.896574
600 1.38642
Ex : 443
200 0.231495
205 0.242942
210 0.231671
215 0.259206
220 0.291597
225 0.247001
230 0.260225
235 0.30408
240 0.332119
245 0.27478
250 0.293936
255 0.289442
260 0.330875
265 0.294961
270 0.28012
275 0.301512
280 0.208867
285 0.282649
290 0.228806
295 0.237246
300 0.245436
305 0.23938
310 0.226653
315 0.226483
320 0.262079
325 0.226564
330 0.269667
335 0.21203
340 0.305321
345 0.253283
350 0.246875
355 0.238432
360 0.266352
365 0.269943
370 0.226174
375 0.266724
380 0.270478
385 0.258364
390 0.252878
395 0.300481
400 0.335934
405 0.310895
410 0.376606
415 0.441506
420 0.55578
425 0.647821
430 10.4568
435 164.128
440 243.58
445 60.3564
450 8.71621
455 3.24259
460 2.79975
465 3.48369
470 4.01262
475 4.22272
480 4.34887
485 4.65307
490 5.00227
495 5.47233
500 6.8119
505 7.48893
510 6.47911
515 5.75934
520 5.39192
525 4.71505
530 4.36947
535 4.0554
540 3.81511
545 3.38179
550 3.27569
555 2.93892
560 2.60317
565 2.56588
570 2.12233
575 1.91817
580 1.47424
585 1.22839
590 1.03096
595 0.806282
600 0.449875
Ex : 448
200 0.220909
205 0.166142
210 0.206972
215 0.248623
220 0.225698
225 0.221458
230 0.314764
235 0.248071
240 0.24998
245 0.241171
250 0.261441
255 0.285267
260 0.209382
265 0.214117
270 0.233081
275 0.209029
280 0.283519
285 0.235981
290 0.246732
295 0.279559
300 0.213379
305 0.277629
310 0.25144
315 0.239731
320 0.258495
325 0.241508
330 0.233997
335 0.285318
340 0.31011
345 0.275239
350 0.216376
355 0.225175
360 0.276724
365 0.239058
370 0.268797
375 0.302839
380 0.244443
385 0.258182
390 0.291603
395 0.422328
400 0.358601
405 0.281051
410 0.317381
415 0.314694
420 0.461323
425 0.54555
430 0.632094
435 11.4088
440 172.943
445 255.304
450 64.033
455 9.25952
460 3.32114
465 2.83356
470 3.21616
475 3.71442
480 3.99331
485 4.3112
490 4.19475
495 4.54775
500 4.63589
505 5.36656
510 6.61005
515 5.90077
520 4.82984
525 4.78424
530 4.36804
535 3.64531
540 3.43555
545 3.11016
550 2.90144
555 2.73573
560 2.32098
565 2.21385
570 1.89097
575 1.5438
580 1.36746
585 1.13139
590 0.882094
595 0.794755
600 0.814682
Ex : 453
200 0.27462
205 0.254451
210 0.249839
215 0.242967
220 0.301598
225 0.269514
230 0.26807
235 0.24449
240 0.216529
245 0.210855
250 0.226908
255 0.202279
260 0.260832
265 0.205413
270 0.287036
275 0.197926
280 0.279213
285 0.234156
290 0.243666
295 0.293308
300 0.224472
305 0.231198
310 0.232156
315 0.252506
320 0.222185
325 0.231151
330 0.240584
335 0.253151
340 0.261387
345 0.309996
350 0.231982
355 0.208939
360 0.252095
365 0.265155
370 0.232512
375 0.221181
380 0.247593
385 0.1823
390 0.261323
395 0.281429
400 0.341922
405 0.396954
410 0.294594
415 0.401028
420 0.394533
425 0.361496
430 0.467415
435 0.638549
440 11.2147
445 185.011
450 260.667
455 61.9296
460 9.01657
465 3.39043
470 2.81159
475 3.13013
480 3.79351
485 3.61898
490 3.63327
495 3.80298
500 3.77727
505 4.0003
510 4.12827
515 5.72761
520 5.53604
525 4.38776
530 4.11849
535 3.89493
540 3.12111
545 2.74277
550 2.64984
555 2.48538
560 2.23968
565 2.10848
570 1.88805
575 1.48505
580 1.25461
585 1.011
590 0.919019
595 0.713333
600 0.835877
Ex : 458
200 0.23792
205 0.271711
210 0.301147
215 0.222698
220 0.252388
225 0.241879
230 0.214348
235 0.276866
240 0.236463
245 0.230688
250 0.280012
255 0.294554
260 0.247881
265 0.262727
270 0.280408
275 0.288117
280 0.225452
285 0.275119
290 0.248468
295 0.383327
300 0.291519
305 0.273127
310 0.305431
315 0.248526
320 0.232098
325 0.250972
330 0.312082
335 0.237823
340 0.233979
345 0.215449
350 0.273909
355 0.295874
360 0.271221
365 0.269886
370 0.303693
375 0.269975
380 0.289204
385 0.290126
390 0.322137
395 0.293479
400 0.28409
405 0.346083
410 0.317727
415 0.306235
420 0.332208
425 0.298134
430 0.335741
435 0.383485
440 0.63049
445 12.7518
450 191.27
455 275.004
460 66.3583
465 9.56145
470 3.41947
475 2.65587
480 2.73517
485 3.2822
490 3.34503
495 3.17019
500 3.16849
505 3.30695
510 3.05031
515 3.43953
520 4.66437
525 5.03625
530 4.24043
535 3.6548
540 3.37055
545 2.91269
550 2.59178
555 2.33515
560 2.04483
565 1.91526
570 1.74949
575 1.44091
580 1.15447
585 1.02974
590 0.951134
595 0.828364
600 0.567105
Ex : 463
200 0.265945
205 0.312705
210 0.21039
215 0.209731
220 0.27059
225 0.29242
230 0.216608
235 0.239636
240 0.186887
245 0.213606
250 0.200545
255 0.25084
260 0.225116
265 0.235772
270 0.225356
275 0.227654
280 0.313401
285 0.225627
290 0.200471
295 0.324035
300 0.245992
305 0.23448
310 0.235912
315 0.189704
320 0.189792
325 0.282273
330 0.224868
335 0.25637
340 0.280713
345 0.244799
350 0.193521
355 0.258023
360 0.209421
365 0.232598
370 0.247551
375 0.217876
380 0.287585
385 0.286556
390 0.290273
395 0.256072
400 0.251677
405 0.271968
410 0.245131
415 0.277807
420 0.236112
425 0.290288
430 0.321026
435 0.389997
440 0.449994
445 0.602749
450 12.5495
455 199.023
460 293.161
465 70.4122
470 9.88316
475 3.16485
480 2.40994
485 2.62932
490 2.95722
495 3.1381
500 2.88031
505 2.76591
510 2.796
515 2.80247
520 2.94072
525 3.72691
530 4.80907
535 4.25373
540 3.14087
545 2.95077
550 2.67636
555 2.28256
560 1.98085
565 1.79506
570 1.61937
575 1.40067
580 1.19853
585 1.02366
590 0.984833
595 0.746534
600 0.595361
Ex : 468
200 0.255877
205 0.217628
210 0.182108
215 0.248032
220 0.157533
225 0.187164
230 0.224657
235 0.178026
240 0.24562
245 0.220838
250 0.226737
255 0.209564
260 0.170468
265 0.178547
270 0.185027
275 0.211398
280 0.206651
285 0.232741
290 0.196752
295 0.184395
300 0.212252
305 0.157788
310 0.210307
315 0.186525
320 0.221392
325 0.255253
330 0.225268
335 0.251452
340 0.261068
345 0.217731
350 0.229336
355 0.232335
360 0.242535
365 0.271682
370 0.237564
375 0.215825
380 0.282649
385 0.188092
390 0.224634
395 0.297987
400 0.279156
405 0.282728
410 0.27489
415 0.26075
420 0.292473
425 0.274609
430 0.320272
435 0.277277
440 0.331505
445 0.411961
450 0.627163
455 13.0866
460 198.814
465 305.543
470 73.6656
475 10.2836
480 3.06967
485 2.29335
490 2.27182
495 2.55328
500 2.80908
505 2.66835
510 2.48054
515 2.60795
520 2.53591
525 2.72414
530 2.9036
535 4.01323
540 4.09231
545 3.07065
550 2.69623
555 2.32902
560 2.08819
565 1.65209
570 1.49481
575 1.36613
580 1.04758
585 0.956134
590 0.925403
595 0.667826
600 0.526566
Ex : 473
200 0.2018
205 0.249826
210 0.226684
215 0.186617
220 0.247279
225 0.213783
230 0.21504
235 0.247982
240 0.243394
245 0.226279
250 0.249114
255 0.273069
260 0.190457
265 0.210956
270 0.175345
275 0.250968
280 0.234086
285 0.194215
290 0.249737
295 0.237464
300 0.22847
305 0.2724
310 0.286464
315 0.243274
320 0.25785
325 0.249309
330 0.238836
335 0.2349
340 0.298351
345 0.269722
350 0.241572
355 0.242227
360 0.225944
365 0.298002
370 0.240748
375 0.258879
380 0.237787
385 0.242617
390 0.281129
395 0.23254
400 0.262137
405 0.216272
410 0.257589
415 0.29451
420 0.318522
425 0.338003
430 0.281652
435 0.321072
440 0.34254
445 0.419679
450 0.515059
455 0.725285
460 15.4247
465 222.862
470 303.299
475 69.3622
480 9.58058
485 2.89541
490 2.16975
495 2.25411
500 2.41855
505 2.53683
510 2.45657
515 2.23165
520 2.45283
525 2.42359
530 2.46275
535 2.68594
540 3.38182
545 3.90887
550 2.98881
555 2.28569
560 2.19795
565 1.95697
570 1.51116
575 1.2749
580 1.1378
585 0.948915
590 0.891006
595 0.760031
600 0.55347
Ex : 478
200 0.312635
205 0.283732
210 0.259124
215 0.315006
220 0.345237
225 0.277066
230 0.275553
235 0.264792
240 0.23454
245 0.282599
250 0.267515
255 0.29989
260 0.319273
265 0.263853
270 0.23364
275 0.278688
280 0.232249
285 0.227175
290 0.221084
295 0.282506
300 0.272502
305 0.261892
310 0.26831
315 0.263342
320 0.212719
325 0.2135
330 0.292561
335 0.31901
340 0.281571
345 0.263387
350 0.258004
355 0.279668
360 0.332632
365 0.253752
370 0.223205
375 0.287754
380 0.311096
385 0.318766
390 0.318287
395 0.308988
400 0.285234
405 0.279417
410 0.343153
415 0.262669
420 0.290758
425 0.296475
430 0.350178
435 0.37171
440 0.368101
445 0.459677
450 0.452445
455 0.585663
460 0.766774
465 16.5538
470 221.581
475 297.996
480 71.7255
485 9.781
490 2.78193
495 1.97849
500 1.92383
505 2.17294
510 2.32092
515 2.18421
520 2.16847
525 2.22472
530 2.35229
535 2.14962
540 2.41105
545 2.8423
550 3.54291
555 3.06108
560 2.37317
565 1.98656
570 1.76906
575 1.44767
580 1.10523
585 0.936683
590 0.759303
595 0.640157
600 0.342562
Ex : 483
200 0.270156
205 0.254812
210 0.270654
215 0.27592
220 0.328258
225 0.266674
230 0.32487
235 0.342892
240 0.28349
245 0.281959
250 0.219952
255 0.304952
260 0.258153
265 0.226191
270 0.29476
275 0.281337
280 0.266491
285 0.260763
290 0.278525
295 0.273869
300 0.265103
305 0.267107
310 0.261326
315 0.363684
320 0.262744
325 0.291327
330 0.305848
335 0.284095
340 0.344705
345 0.265044
350 0.240827
355 0.232297
360 0.242985
365 0.331336
370 0.325848
375 0.250551
380 0.250448
385 0.275032
390 0.342
395 0.270239
400 0.237144
405 0.29662
410 0.302472
415 0.331133
420 0.248144
425 0.288
430 0.274296
435 0.303524
440 0.31824
445 0.395241
450 0.367407
455 0.510545
460 0.621654
465 0.821028
470 13.4123
475 219.476
480 321.815
485 77.0561
490 10.4349
495 2.81287
500 1.89226
505 1.86924
510 1.97248
515 2.47605
520 2.38579
525 2.07888
530 2.04529
535 2.18898
540 2.16068
545 2.15012
550 2.29773
555 2.94231
560 2.96781
565 2.18842
570 1.72571
575 1.4797
580 1.34518
585 1.06288
590 0.785317
595 0.732381
600 0.742396
Ex : 488
200 0.235137
205 0.301607
210 0.292908
215 0.289276
220 0.261746
225 0.281849
230 0.280784
235 0.314413
240 0.381209
245 0.265595
250 0.350968
255 0.275131
260 0.318097
265 0.30751
270 0.307343
275 0.292005
280 0.311972
285 0.288763
290 0.318109
295 0.352039
300 0.284853
305 0.287723
310 0.312708
315 0.264321
320 0.340237
325 0.294553
330 0.303611
335 0.364127
340 0.276427
345 0.271061
350 0.259209
355 0.351495
360 0.335143
365 0.346587
370 0.288036
375 0.301642
380 0.368921
385 0.301843
390 0.301431
395 0.347245
400 0.311156
405 0.257537
410 0.262446
415 0.349359
420 0.3038
425 0.387911
430 0.398521
435 0.289116
440 0.358033
445 0.365721
450 0.411963
455 0.377294
460 0.439284
465 0.581081
470 0.796832
475 16.1309
480 235.332
485 322.143
490 75.091
495 10.1505
500 2.59032
505 1.84305
510 1.71272
515 1.99222
520 2.25294
525 2.35648
530 2.26216
535 2.18272
540 2.26063
545 1.78133
550 1.86815
555 1.93243
560 2.58277
565 2.82944
570 2.14091
575 1.57502
580 1.42593
585 1.24012
590 0.947446
595 0.87624
600 0.718649
Ex : 493
200 0.362818
205 0.378865
210 0.357044
215 0.283714
220 0.306388
225 0.313606
230 0.400012
235 0.26743
240 0.251346
245 0.363165
250 0.350554
255 0.367055
260 0.3264
265 0.287261
270 0.327383
275 0.321304
280 0.275421
285 0.263812
290 0.278165
295 0.312323
300 0.416638
305 0.31424
310 0.328917
315 0.32773
320 0.31903
325 0.351324
330 0.356291
335 0.368941
340 0.252151
345 0.373489
350 0.376209
355 0.267571
360 0.28919
365 0.361685
370 0.409606
375 0.385022
380 0.396274
385 0.262738
390 0.297432
395 0.360949
400 0.352731
405 0.316812
410 0.385869
415 0.346475
420 0.310332
425 0.323088
430 0.31893
435 0.37157
440 0.399789
445 0.381398
450 0.411535
455 0.420534
460 0.445008
465 0.473657
470 0.5827
475 0.860159
480 15.0638
485 238.678
490 342.022
495 77.8789
500 10.1969
505 2.6482
510 2.03169
515 1.90006
520 1.99498
525 2.38642
530 2.3948
535 2.0144
540 1.99082
545 1.96633
550 1.81294
555 1.70292
560 1.63651
565 2.14761
570 2.6572
575 2.02957
580 1.32845
585 1.10529
590 0.969906
595 0.891295
600 1.04059
Ex : 498
200 0.311922
205 0.284497
210 0.389504
215 0.309383
220 0.346104
225 0.410243
230 0.29979
235 0.275499
240 0.326469
245 0.379877
250 0.289428
255 0.328525
260 0.325531
265 0.302462
270 0.287243
275 0.276092
280 0.34932
285 0.339888
290 0.331003
295 0.321252
300 0.320656
305 0.392882
310 0.403376
315 0.317028
320 0.336818
325 0.346336
330 0.307964
335 0.336814
340 0.364978
345 0.458553
350 0.34686
355 0.313784
360 0.371558
365 0.369349
370 0.341761
375 0.333506
380 0.365771
385 0.288017
390 0.335423
395 0.37225
400 0.340124
405 0.353972
410 0.364545
415 0.32989
420 0.285723
425 0.437781
430 0.428419
435 0.412947
440 0.437519
445 0.357054
450 0.31357
455 0.460537
460 0.395109
465 0.525832
470 0.592447
475 0.831731
480 0.828471
485 17.9321
490 240.528
495 316.463
500 73.7048
505 9.90079
510 2.61528
515 1.87686
520 1.94473
525 1.93119
530 2.19463
535 2.17062
540 2.0135
545 1.93204
550 1.71337
555 1.78941
560 1.68887
565 1.49543
570 1.62827
575 2.00183
580 2.05883
585 1.38186
590 1.06176
595 0.964656
600 0.874419
Ex : 503
200 0.352514
205 0.331239
210 0.389743
215 0.335914
220 0.41128
225 0.356498
230 0.292066
235 0.365112
240 0.337587
245 0.349238
250 0.430198
255 0.358282
260 0.347691
265 0.344107
270 0.381011
275 0.441782
280 0.370787
285 0.343761
290 0.294332
295 0.377585
300 0.343771
305 0.405732
310 0.334189
315 0.363749
320 0.358145
325 0.370666
330 0.364264
335 0.394634
340 0.317747
345 0.418003
350 0.395493
355 0.386417
360 0.370148
365 0.380396
370 0.334939
375 0.463806
380 0.350647
385 0.390516
390 0.332787
395 0.438686
400 0.3835
405 0.32006
410 0.414848
415 0.399696
420 0.479484
425 0.397361
430 0.361834
435 0.448656
440 0.406817
445 0.473879
450 0.446032
455 0.395586
460 0.512269
465 0.49964
470 0.477222
475 0.474434
480 0.65957
485 0.8318
490 16.0148
495 242.084
500 331.982
505 76.2531
510 10.2636
515 2.764
520 2.03652
525 1.85411
530 1.92882
535 1.91263
540 2.03679
545 1.88944
550 1.79745
555 1.72731
560 1.65576
565 1.45062
570 1.34811
575 1.34542
580 1.49889
585 1.64634
590 1.20642
595 0.938514
600 0.32835
Ex : 508
200 0.354244
205 0.338523
210 0.329517
215 0.351268
220 0.391461
225 0.295005
230 0.361786
235 0.312079
240 0.337876
245 0.316643
250 0.38133
255 0.387075
260 0.428648
265 0.29826
270 0.380134
275 0.320403
280 0.340925
285 0.312208
290 0.410773
295 0.365645
300 0.320451
305 0.352166
310 0.34166
315 0.362164
320 0.316375
325 0.349462
330 0.316785
335 0.368092
340 0.307061
345 0.428834
350 0.313057
355 0.37821
360 0.344151
365 0.399448
370 0.399457
375 0.380001
380 0.361847
385 0.328152
390 0.411205
395 0.380883
400 0.390888
405 0.437694
410 0.316438
415 0.405694
420 0.392603
425 0.315069
430 0.379357
435 0.48679
440 0.384139
445 0.463993
450 0.411311
455 0.449437
460 0.47935
465 0.445664
470 0.478007
475 0.459698
480 0.629618
485 0.608193
490 0.970612
495 17.4855
500 246.29
505 336.061
510 81.6849
515 10.9258
520 2.86625
525 2.02988
530 1.72531
535 1.65193
540 1.83691
545 1.8917
550 1.77821
555 1.83084
560 1.33995
565 1.47272
570 1.45954
575 1.2672
580 1.06782
585 1.24327
590 1.35778
595 1.22784
600 1.41446
Ex : 513
200 0.399088
205 0.394597
210 0.424903
215 0.404763
220 0.357101
225 0.349337
230 0.482371
235 0.403805
240 0.345461
245 0.401972
250 0.484732
255 0.310328
260 0.380335
265 0.407118
270 0.32421
275 0.368577
280 0.316443
285 0.366512
290 0.433341
295 0.421299
300 0.348668
305 0.330907
310 0.315501
315 0.348951
320 0.312552
325 0.408622
330 0.405926
335 0.324264
340 0.368534
345 0.445137
350 0.306453
355 0.359131
360 0.331263
365 0.40463
370 0.377887
375 0.375758
380 0.391353
385 0.388221
390 0.320749
395 0.398537
400 0.287874
405 0.371938
410 0.445934
415 0.397544
420 0.367602
425 0.421481
430 0.307212
435 0.402402
440 0.449178
445 0.368709
450 0.474283
455 0.442519
460 0.482822
465 0.466555
470 0.47225
475 0.539339
480 0.440824
485 0.634224
490 0.788777
495 0.80984
500 15.6553
505 244.217
510 339.186
515 81.0893
520 10.9406
525 2.88641
530 2.05553
535 1.69677
540 1.66862
545 1.8269
550 1.7653
555 1.61244
560 1.59974
565 1.40189
570 1.27065
575 1.1193
580 1.08318
585 1.02161
590 0.953417
595 1.19086
600 1.09297
Ex : 518
200 0.351818
205 0.434285
210 0.409958
215 0.372619
220 0.391994
225 0.359524
230 0.360364
235 0.284827
240 0.361911
245 0.308922
250 0.262355
255 0.326284
260 0.372298
265 0.330531
270 0.379323
275 0.392279
280 0.347647
285 0.357114
290 0.335708
295 0.298261
300 0.491159
305 0.319125
310 0.337319
315 0.403866
320 0.348849
325 0.307791
330 0.433684
335 0.372476
340 0.324888
345 0.297807
350 0.3854
355 0.331534
360 0.424993
365 0.361244
370 0.42154
375 0.401172
380 0.488919
385 0.374046
390 0.491556
395 0.341401
400 0.403047
405 0.383325
410 0.374997
415 0.412675
420 0.419833
425 0.392367
430 0.393308
435 0.413131
440 0.444315
445 0.411861
450 0.371167
455 0.445147
460 0.500221
465 0.437606
470 0.533801
475 0.437984
480 0.478998
485 0.464651
490 0.562977
495 0.767284
500 0.882759
505 16.6167
510 239.174
515 334.561
520 82.7385
525 11.0332
530 2.92958
535 1.82445
540 1.69242
545 1.56989
550 1.52627
555 1.78164
560 1.4556
565 1.42085
570 1.33362
575 1.10204
580 1.04171
585 0.957703
590 0.915203
595 0.819842
600 1.03919
Ex : 523
200 0.390675
205 0.35825
210 0.335106
215 0.4562
220 0.36719
225 0.446851
230 0.386438
235 0.371907
240 0.414246
245 0.382342
250 0.437453
255 0.464696
260 0.397597
265 0.436964
270 0.41443
275 0.407373
280 0.394833
285 0.298619
290 0.37823
295 0.539388
300 0.367577
305 0.412371
310 0.455908
315 0.319547
320 0.460021
325 0.393599
330 0.466721
335 0.434647
340 0.350464
345 0.400647
350 0.47395
355 0.362104
360 0.486244
365 0.492038
370 0.411474
375 0.410746
380 0.378313
385 0.362244
390 0.393428
395 0.529765
400 0.320091
405 0.428102
410 0.384178
415 0.380018
420 0.410427
425 0.389876
430 0.514948
435 0.42698
440 0.316513
445 0.394236
450 0.379057
455 0.38329
460 0.456131
465 0.289065
470 0.415326
475 0.482169
480 0.381269
485 0.486944
490 0.560662
495 0.565896
500 0.763448
505 0.929334
510 14.5446
515 223.342
520 329.22
525 84.0538
530 11.0635
535 2.64782
540 1.73023
545 1.66127
550 1.4163
555 1.34648
560 1.53607
565 1.30447
570 1.3022
575 1.03609
580 1.0008
585 0.986055
590 0.778538
595 0.663978
600 0.419669
Ex : 528
200 0.45488
205 0.408771
210 0.422003
215 0.473788
220 0.474043
225 0.477244
230 0.432605
235 0.391003
240 0.324572
245 0.405061
250 0.365526
255 0.47323
260 0.465872
265 0.416159
270 0.398102
275 0.487528
280 0.442436
285 0.500123
290 0.424541
295 0.373054
300 0.339233
305 0.426715
310 0.394909
315 0.528944
320 0.376993
325 0.397804
330 0.411035
335 0.406335
340 0.340895
345 0.431301
350 0.360405
355 0.37942
360 0.391783
365 0.457454
370 0.395343
375 0.348052
380 0.353595
385 0.338503
390 0.459973
395 0.386509
400 0.44568
405 0.413984
410 0.331014
415 0.436782
420 0.488929
425 0.448398
430 0.471961
435 0.487504
440 0.469318
445 0.460368
450 0.494133
455 0.483304
460 0.323227
465 0.493158
470 0.430849
475 0.424751
480 0.432011
485 0.436324
490 0.617411
495 0.548837
500 0.747676
505 0.795809
510 0.874346
515 13.5324
520 219.058
525 323.958
530 82.61
535 10.8666
540 2.41629
545 1.55178
550 1.36087
555 1.3789
560 1.26919
565 1.46082
570 1.23335
575 1.22571
580 1.08172
585 0.926648
590 0.813033
595 0.752529
600 1.44057
Ex : 533
200 0.372886
205 0.379636
210 0.422415
215 0.489038
220 0.472952
225 0.330279
230 0.395751
235 0.444215
240 0.396522
245 0.375329
250 0.413374
255 0.41348
260 0.517995
265 0.451777
270 0.43952
275 0.4318
280 0.358157
285 0.357814
290 0.380061
295 0.41239
300 0.384205
305 0.398203
310 0.401927
315 0.520087
320 0.476107
325 0.399677
330 0.344591
335 0.381469
340 0.498904
345 0.519109
350 0.519831
355 0.491553
360 0.539431
365 0.439101
370 0.689173
375 0.402345
380 0.386363
385 0.384655
390 0.444871
395 0.403581
400 0.368557
405 0.360954
410 0.466473
415 0.376032
420 0.321797
425 0.384527
430 0.453833
435 0.471533
440 0.424224
445 0.536137
450 0.49385
455 0.51455
460 0.431916
465 0.456282
470 0.496846
475 0.550995
480 0.501475
485 0.546724
490 0.499425
495 0.436825
500 0.630087
505 0.563645
510 0.804569
515 0.950218
520 13.2281
525 217.333
530 327.666
535 84.7635
540 11.0135
545 2.50106
550 1.51515
555 1.26278
560 1.14661
565 1.15409
570 1.20802
575 1.07153
580 0.895392
585 0.98907
590 0.771258
595 0.772275
600 0.943527
Ex : 538
200 0.437307
205 0.465073
210 0.35186
215 0.378169
220 0.444157
225 0.393594
230 0.362846
235 0.526766
240 0.386791
245 0.422167
250 0.48463
255 0.456487
260 0.425935
265 0.412012
270 0.481178
275 0.391197
280 0.45062
285 0.391258
290 0.450934
295 0.324562
300 0.496934
305 0.372611
310 0.377942
315 0.4353
320 0.458311
325 0.451655
330 0.456389
335 0.386055
340 0.46533
345 0.508421
350 0.466614
355 0.426612
360 0.389027
365 0.446643
370 0.431542
375 0.394208
380 0.516959
385 0.448461
390 0.416147
395 0.457892
400 0.513023
405 0.486393
410 0.412566
415 0.431943
420 0.538293
425 0.374454
430 0.468212
435 0.457186
440 0.448128
445 0.447399
450 0.418846
455 0.467563
460 0.423952
465 0.453484
470 0.604652
475 0.45099
480 0.497427
485 0.5019
490 0.515539
495 0.47743
500 0.532431
505 0.533498
510 0.609211
515 0.654481
520 0.817636
525 11.9012
530 208.4
535 326.571
540 87.9185
545 11.4835
550 2.51421
555 1.44876
560 1.33874
565 1.0344
570 1.11267
575 1.08764
580 1.14115
585 1.00455
590 0.803667
595 0.777365
600 0.776572
Ex : 543
200 0.44783
205 0.357262
210 0.36886
215 0.48797
220 0.35063
225 0.414571
230 0.474327
235 0.44956
240 0.415747
245 0.379268
250 0.375824
255 0.429167
260 0.405268
265 0.492326
270 0.554073
275 0.409743
280 0.602406
285 0.544041
290 0.530993
295 0.396337
300 0.458122
305 0.403954
310 0.414898
315 0.433013
320 0.390783
325 0.461921
330 0.433462
335 0.400945
340 0.514778
345 0.451908
350 0.504903
355 0.401926
360 0.505051
365 0.433829
370 0.457244
375 0.510096
380 0.423682
385 0.524756
390 0.494035
395 0.550515
400 0.413502
405 0.455619
410 0.444331
415 0.435976
420 0.459056
425 0.432187
430 0.350374
435 0.449107
440 0.428475
445 0.423469
450 0.513339
455 0.498817
460 0.483492
465 0.389905
470 0.487859
475 0.52369
480 0.538278
485 0.567251
490 0.515239
495 0.508636
500 0.553177
505 0.491456
510 0.541041
515 0.672292
520 0.731379
525 0.919545
530 11.3884
535 201.17
540 330.831
545 90.4613
550 11.5534
555 2.27734
560 1.4541
565 1.25553
570 0.990486
575 0.900078
580 0.94095
585 0.908346
590 0.966144
595 0.715623
600 0.173298
Ex : 548
200 0.526066
205 0.415247
210 0.625605
215 0.502874
220 0.512396
225 0.430007
230 0.46601
235 0.481817
240 0.497464
245 0.543882
250 0.526239
255 0.435127
260 0.498465
265 0.453886
270 0.398518
275 0.382429
280 0.457665
285 0.410188
290 0.407314
295 0.444473
300 0.57612
305 0.505194
310 0.525871
315 0.540202
320 0.530103
325 0.419123
330 0.434115
335 0.443017
340 0.377944
345 0.452946
350 0.469999
355 0.451439
360 0.45017
365 0.608179
370 0.504518
375 0.413887
380 0.450099
385 0.459413
390 0.500677
395 0.575884
400 0.573552
405 0.441225
410 0.443223
415 0.405663
420 0.480125
425 0.415328
430 0.51261
435 0.456139
440 0.399269
445 0.541837
450 0.398871
455 0.505223
460 0.54402
465 0.520718
470 0.455743
475 0.47906
480 0.529711
485 0.396077
490 0.511005
495 0.513753
500 0.43834
505 0.522576
510 0.539566
515 0.618611
520 0.594407
525 0.721057
530 0.878572
535 12.1735
540 197.624
545 308.975
550 84.9954
555 10.9182
560 2.16003
565 1.28992
570 1.33495
575 0.996527
580 0.996963
585 0.869669
590 0.879592
595 0.948132
600 0.994098
Ex : 553
200 0.398069
205 0.494217
210 0.469116
215 0.513979
220 0.519386
225 0.337473
230 0.460222
235 0.423749
240 0.524062
245 0.438949
250 0.435603
255 0.420052
260 0.451849
265 0.566961
270 0.422524
275 0.534395
280 0.468501
285 0.500322
290 0.581481
295 0.425051
300 0.618218
305 0.540098
310 0.4846
315 0.514019
320 0.46839
325 0.52746
330 0.416684
335 0.46077
340 0.505297
345 0.482038
350 0.393858
355 0.430973
360 0.398893
365 0.438151
370 0.451626
375 0.569524
380 0.515733
385 0.462613
390 0.482293
395 0.474714
400 0.457401
405 0.58786
410 0.431121
415 0.424577
420 0.403893
425 0.529358
430 0.460731
435 0.464433
440 0.532086
445 0.512622
450 0.37067
455 0.522145
460 0.455028
465 0.525495
470 0.539524
475 0.500595
480 0.574135
485 0.453519
490 0.47657
495 0.457623
500 0.613165
505 0.489752
510 0.640001
515 0.518183
520 0.618263
525 0.630035
530 0.736728
535 0.921883
540 10.4474
545 193.397
550 321.652
555 89.6505
560 11.5001
565 2.31646
570 1.14514
575 0.977759
580 0.778966
585 0.679947
590 0.984421
595 0.906777
600 0.304598
Ex : 558
200 0.460044
205 0.468126
210 0.422653
215 0.502458
220 0.426735
225 0.486583
230 0.497123
235 0.440654
240 0.426183
245 0.41742
250 0.446618
255 0.480211
260 0.444807
265 0.462236
270 0.424079
275 0.422594
280 0.454588
285 0.484281
290 0.496018
295 0.572749
300 0.439449
305 0.396383
310 0.581164
315 0.524148
320 0.430978
325 0.47399
330 0.449085
335 0.536053
340 0.553023
345 0.566627
350 0.38779
355 0.495599
360 0.443703
365 0.442483
370 0.560094
375 0.481082
380 0.474578
385 0.5201
390 0.513212
395 0.559903
400 0.447788
405 0.413066
410 0.459219
415 0.485691
420 0.586035
425 0.530534
430 0.624126
435 0.554587
440 0.520989
445 0.405687
450 0.555384
455 0.496866
460 0.525475
465 0.637953
470 0.398899
475 0.566281
480 0.499789
485 0.566289
490 0.675519
495 0.503772
500 0.477153
505 0.423102
510 0.489123
515 0.522591
520 0.608226
525 0.578636
530 0.569197
535 0.65633
540 1.03089
545 10.6011
550 181.629
555 315.628
560 89.0748
565 11.4193
570 2.29701
575 1.06645
580 0.918163
585 0.889636
590 0.948462
595 0.8796
600 0.880659
Ex : 563
200 0.446239
205 0.44974
210 0.440472
215 0.478456
220 0.382909
225 0.530767
230 0.446195
235 0.546645
240 0.427406
245 0.573194
250 0.598615
255 0.466802
260 0.402417
265 0.535965
270 0.481073
275 0.582295
280 0.473632
285 0.579348
290 0.473909
295 0.597356
300 0.474355
305 0.454418
310 0.370709
315 0.425733
320 0.535925
325 0.459043
330 0.412824
335 0.536583
340 0.566093
345 0.587906
350 0.513806
355 0.591592
360 0.464836
365 0.692099
370 0.549468
375 0.497069
380 0.462333
385 0.511848
390 0.529352
395 0.569715
400 0.553314
405 0.445002
410 0.464552
415 0.53761
420 0.453485
425 0.49843
430 0.45738
435 0.479429
440 0.591526
445 0.629861
450 0.55437
455 0.44514
460 0.428005
465 0.458587
470 0.4708
475 0.557438
480 0.522991
485 0.487734
490 0.44619
495 0.512723
500 0.451019
505 0.504156
510 0.524714
515 0.598704
520 0.607413
525 0.626285
530 0.552258
535 0.662572
540 0.66532
545 0.802474
550 9.61775
555 181.082
560 309.438
565 87.8042
570 11.406
575 2.10952
580 1.08779
585 0.873987
590 0.793725
595 0.728466
600 0.896757
Ex : 568
200 0.623818
205 0.483127
210 0.54456
215 0.534259
220 0.560672
225 0.483734
230 0.516331
235 0.479945
240 0.521181
245 0.528351
250 0.483195
255 0.454658
260 0.493107
265 0.53255
270 0.459371
275 0.430715
280 0.481716
285 0.397743
290 0.483388
295 0.638064
300 0.602821
305 0.544929
310 0.594662
315 0.504677
320 0.535506
325 0.445904
330 0.465045
335 0.554817
340 0.532179
345 0.543179
350 0.691578
355 0.6364
360 0.517401
365 0.488816
370 0.382545
375 0.522091
380 0.531672
385 0.512254
390 0.460195
395 0.448525
400 0.603953
405 0.514846
410 0.554146
415 0.741982
420 0.596182
425 0.687098
430 0.584267
435 0.466641
440 0.589654
445 0.444706
450 0.544178
455 0.621934
460 0.568029
465 0.418792
470 0.648778
475 0.533921
480 0.414305
485 0.533192
490 0.537712
495 0.483392
500 0.399903
505 0.633446
510 0.57608
515 0.596614
520 0.540574
525 0.673106
530 0.539764
535 0.738585
540 0.606685
545 0.798445
550 0.855253
555 7.75292
560 159.358
565 293.731
570 87.8367
575 11.3682
580 2.0561
585 1.03583
590 0.959993
595 0.910146
600 1.54915
Ex : 573
200 0.45127
205 0.510756
210 0.648873
215 0.500158
220 0.527257
225 0.492927
230 0.548898
235 0.498188
240 0.505528
245 0.543904
250 0.546614
255 0.471956
260 0.508805
265 0.546105
270 0.591913
275 0.441895
280 0.510639
285 0.669989
290 0.403451
295 0.468304
300 0.460843
305 0.531693
310 0.464368
315 0.477508
320 0.592853
325 0.4735
330 0.480162
335 0.53702
340 0.56447
345 0.56518
350 0.606554
355 0.474638
360 0.52005
365 0.494027
370 0.530332
375 0.439774
380 0.489894
385 0.486172
390 0.558109
395 0.561476
400 0.584933
405 0.519736
410 0.712437
415 0.514007
420 0.511701
425 0.421077
430 0.562072
435 0.626729
440 0.502433
445 0.624655
450 0.515427
455 0.543444
460 0.520308
465 0.513164
470 0.646616
475 0.555813
480 0.617282
485 0.565826
490 0.511413
495 0.51049
500 0.421631
505 0.574304
510 0.542064
515 0.555804
520 0.621578
525 0.533269
530 0.554361
535 0.569309
540 0.538823
545 0.66237
550 0.800381
555 0.941344
560 6.51207
565 140.11
570 270.603
575 82.388
580 10.4804
585 2.04747
590 0.98179
595 0.939517
600 1.06962
Ex : 578
200 0.336502
205 0.629095
210 0.508213
215 0.567599
220 0.603511
225 0.502661
230 0.579139
235 0.484929
240 0.577627
245 0.557728
250 0.472008
255 0.434857
260 0.391258
265 0.421533
270 0.520643
275 0.473298
280 0.542408
285 0.564227
290 0.515018
295 0.527454
300 0.524148
305 0.501547
310 0.513279
315 0.605742
320 0.504591
325 0.475138
330 0.498935
335 0.488472
340 0.689346
345 0.522831
350 0.594032
355 0.542606
360 0.533016
365 0.427499
370 0.45565
375 0.640791
380 0.561151
385 0.578591
390 0.687552
395 0.48983
400 0.585578
405 0.574901
410 0.613158
415 0.503388
420 0.529089
425 0.539947
430 0.567615
435 0.553278
440 0.551209
445 0.666731
450 0.595853
455 0.494146
460 0.544349
465 0.582174
470 0.725111
475 0.65688
480 0.495717
485 0.52259
490 0.506336
495 0.524261
500 0.489019
505 0.555673
510 0.572632
515 0.543736
520 0.555631
525 0.641738
530 0.597423
535 0.579274
540 0.491682
545 0.649377
550 0.651932
555 0.776734
560 0.945133
565 6.39077
570 128.78
575 243.399
580 73.4395
585 9.59354
590 1.82846
595 0.841302
600 1.11323
Ex : 583
200 0.633674
205 0.518087
210 0.434517
215 0.514972
220 0.620211
225 0.572584
230 0.66851
235 0.502954
240 0.588858
245 0.453528
250 0.655373
255 0.577227
260 0.503033
265 0.585945
270 0.383697
275 0.57915
280 0.657312
285 0.603827
290 0.641609
295 0.469472
300 0.467405
305 0.579012
310 0.528903
315 0.50229
320 0.572741
325 0.552183
330 0.483164
335 0.549931
340 0.664168
345 0.50892
350 0.519155
355 0.477449
360 0.594608
365 0.578028
370 0.561131
375 0.577596
380 0.596235
385 0.527417
390 0.480623
395 0.501819
400 0.581519
405 0.594396
410 0.545906
415 0.540665
420 0.488351
425 0.576248
430 0.516505
435 0.609145
440 0.585392
445 0.482229
450 0.575269
455 0.512044
460 0.533837
465 0.607825
470 0.679093
475 0.552943
480 0.566444
485 0.583213
490 0.678702
495 0.609612
500 0.475439
505 0.470761
510 0.461336
515 0.585483
520 0.444144
525 0.539408
530 0.532343
535 0.515398
540 0.698787
545 0.51237
550 0.634461
555 0.63123
560 0.949931
565 0.898012
570 5.43823
575 114.653
580 213.223
585 60.6142
590 8.03205
595 1.70002
600 0.906493
Ex : 588
200 0.554311
205 0.49383
210 0.482197
215 0.565075
220 0.42533
225 0.533545
230 0.555495
235 0.465213
240 0.52876
245 0.582498
250 0.5407
255 0.466408
260 0.524243
265 0.479811
270 0.646027
275 0.613975
280 0.458751
285 0.581744
290 0.526462
295 0.63696
300 0.491252
305 0.496705
310 0.57261
315 0.439702
320 0.642369
325 0.58856
330 0.554123
335 0.617232
340 0.579814
345 0.665481
350 0.621072
355 0.511814
360 0.512628
365 0.452335
370 0.584795
375 0.560108
380 0.531565
385 0.659986
390 0.557885
395 0.537339
400 0.634244
405 0.506334
410 0.447916
415 0.579462
420 0.510743
425 0.475258
430 0.541776
435 0.503907
440 0.578298
445 0.5744
450 0.667045
455 0.609934
460 0.536793
465 0.723093
470 0.742966
475 0.556452
480 0.553469
485 0.702292
490 0.549844
495 0.5622
500 0.539281
505 0.571283
510 0.508282
515 0.70178
520 0.600596
525 0.550367
530 0.523428
535 0.582149
540 0.468385
545 0.580108
550 0.684284
555 0.525284
560 0.860977
565 0.605576
570 0.756971
575 4.70774
580 95.9587
585 181.856
590 54.6119
595 7.07387
600 2.21869
Ex : 593
200 0.686243
205 0.445256
210 0.532896
215 0.50846
220 0.513893
225 0.825774
230 0.637589
235 0.546879
240 0.625792
245 0.669628
250 0.597309
255 0.616905
260 0.505134
265 0.549146
270 0.679283
275 0.566632
280 0.55102
285 0.666345
290 0.629793
295 0.593111
300 0.442884
305 0.496956
310 0.518494
315 0.508495
320 0.615766
325 0.547299
330 0.546497
335 0.548935
340 0.658708
345 0.499731
350 0.539461
355 0.712336
360 0.541844
365 0.721085
370 0.708135
375 0.609794
380 0.541044
385 0.571737
390 0.618048
395 0.633051
400 0.482397
405 0.607596
410 0.534958
415 0.564001
420 0.799985
425 0.543538
430 0.540292
435 0.464999
440 0.70326
445 0.532811
450 0.605358
455 0.735143
460 0.703056
465 0.627115
470 0.596882
475 0.610869
480 0.669835
485 0.723588
490 0.472727
495 0.64584
500 0.485447
505 0.458483
510 0.60942
515 0.743185
520 0.714737
525 0.65879
530 0.533337
535 0.72191
540 0.617046
545 0.575805
550 0.658767
555 0.585746
560 0.771388
565 0.864612
570 0.7577
575 0.723243
580 4.23607
585 87.0395
590 159.102
595 46.38
600 6.31915
Ex : 598
200 0.607978
205 0.550396
210 0.514923
215 0.510151
220 0.783247
225 0.585062
230 0.491511
235 0.521269
240 0.535084
245 0.69328
250 0.591261
255 0.547489
260 0.700923
265 0.58405
270 0.625116
275 0.542228
280 0.620231
285 0.481723
290 0.638315
295 0.586246
300 0.597692
305 0.49645
310 0.545434
315 0.471388
320 0.593283
325 0.602474
330 0.567837
335 0.693834
340 0.566377
345 0.513284
350 0.471596
355 0.546187
360 0.611469
365 0.656185
370 0.778147
375 0.557453
380 0.531672
385 0.727812
390 0.577778
395 0.653138
400 0.722725
405 0.77611
410 0.74231
415 0.521885
420 0.777786
425 0.659107
430 0.58797
435 0.554648
440 0.620856
445 0.614007
450 0.765106
455 0.660009
460 0.559403
465 0.557552
470 0.662374
475 0.598448
480 0.661083
485 0.609797
490 0.715986
495 0.688101
500 0.6863
505 0.559228
510 0.614966
515 0.597346
520 0.48546
525 0.462383
530 0.505599
535 0.528892
540 0.755365
545 0.531673
550 0.727447
555 0.693318
560 0.606613
565 0.625514
570 0.679393
575 0.734554
580 0.749128
585 4.25135
590 78.3152
595 144.53
600 94.108
Ex : 603
200 0.591796
205 0.692192
210 0.606377
215 0.652968
220 0.598087
225 0.59587
230 0.643563
235 0.528964
240 0.769665
245 0.738543
250 0.649108
255 0.744185
260 0.595095
265 0.640344
270 0.708615
275 0.676248
280 0.593923
285 0.601449
290 0.608032
295 0.498069
300 0.42801
305 0.552496
310 0.635337
315 0.614936
320 0.587952
325 0.555759
330 0.706034
335 0.623859
340 0.554465
345 0.634985
350 0.636437
355 0.572898
360 0.557963
365 0.687314
370 0.636122
375 0.614281
380 0.504225
385 0.684401
390 0.629953
395 0.541415
400 0.596497
405 0.486245
410 0.569588
415 0.593646
420 0.625245
425 0.693619
430 0.848596
435 0.665325
440 0.590476
445 0.712218
450 0.466791
455 0.638263
460 0.528729
465 0.429305
470 0.550243
475 0.669634
480 0.662703
485 0.687959
490 0.778862
495 0.635769
500 0.6901
505 0.570001
510 0.599871
515 0.718849
520 0.756367
525 0.698684
530 0.576089
535 0.574307
540 0.594889
545 0.723912
550 0.772274
555 0.907298
560 0.600419
565 0.59344
570 0.819733
575 0.873103
580 0.727744
585 0.731429
590 3.56926
595 67.3606
600 134.645
