File format V 1.0
ven. 9. déc. 19:25:22 2016
Operator : 
Comments : 

=============================================
SpectroFluorometer parameters
Mode : 3D measurement
Data : Fluorescence
Phospho. : Ordinary
Spectrum : Fluorescence

Scan speed : 2400 nm/mn
Response : 100 ms
PM Voltage : 700 V
Shutter : On

Lambda Ex. Start : 203
Lambda Ex. End : 603
Lambda Ex. Step : 5
Ex. Slit : 5 nm

Lambda Em. Start : 200
Lambda Em. End : 600
Lambda Em. Step : 5
Em. Slit : 5 nm

Repetition : 1
Decal lambda em : 10
=============================================
DATA
Ex : 203
200 16.3152
205 18.9714
210 20.4159
215 14.1012
220 23.3879
225 16.6246
230 15.2553
235 19.1839
240 13.7408
245 13.7036
250 14.0261
255 17.8043
260 12.733
265 14.5273
270 14.276
275 13.6461
280 14.8937
285 17.6726
290 19.2584
295 19.6589
300 15.178
305 12.9434
310 16.3414
315 15.7724
320 18.5884
325 14.9874
330 18.1911
335 13.2834
340 14.9906
345 17.8105
350 19.9042
355 16.0071
360 15.4048
365 15.9154
370 13.2476
375 13.9518
380 14.6084
385 16.1263
390 11.0485
395 17.5862
400 14.678
405 16.1432
410 17.5972
415 15.3008
420 13.6632
425 17.696
430 11.1995
435 13.5061
440 14.8783
445 16.3237
450 20.5536
455 22.9192
460 16.6828
465 15.5335
470 15.2795
475 15.5075
480 18.7268
485 17.1912
490 24.9635
495 18.8633
500 13.5375
505 14.2334
510 17.9302
515 14.0905
520 15.4777
525 18.7085
530 19.1784
535 16.0107
540 16.598
545 15.8385
550 15.8205
555 15.2853
560 12.7544
565 18.5611
570 14.1051
575 19.0375
580 20.5593
585 15.6937
590 18.0825
595 17.4957
600 7.89897
Ex : 208
200 11.1437
205 18.2974
210 20.3175
215 17.9683
220 17.7977
225 18.5358
230 17.7158
235 22.5632
240 16.0628
245 14.2019
250 17.467
255 18.077
260 15.9392
265 16.8564
270 14.8242
275 16.0681
280 19.7683
285 20.0497
290 19.2709
295 14.649
300 15.1187
305 13.8191
310 16.7119
315 15.0847
320 14.5585
325 17.0399
330 19.5285
335 22.6226
340 17.5008
345 15.3209
350 16.4971
355 15.2676
360 17.274
365 19.7779
370 17.1378
375 14.1745
380 14.4004
385 15.9535
390 17.2411
395 18.2181
400 15.8907
405 17.3818
410 14.9794
415 17.0359
420 12.9928
425 17.0401
430 20.284
435 13.6483
440 19.4087
445 17.0926
450 17.6443
455 16.9584
460 14.1779
465 17.4759
470 17.0722
475 19.381
480 14.9132
485 15.7662
490 15.8499
495 18.4459
500 17.8831
505 15.5084
510 19.6235
515 16.5334
520 16.1482
525 16.9712
530 15.5253
535 17.845
540 16.6333
545 18.3632
550 20.0015
555 14.2701
560 14.4711
565 18.4623
570 19.4759
575 16.8472
580 15.7364
585 16.9465
590 14.7726
595 24.3376
600 68.644
Ex : 213
200 17.4235
205 12.3182
210 12.7472
215 14.3375
220 18.0591
225 19.6928
230 23.6487
235 15.0765
240 20.2603
245 16.8249
250 19.25
255 14.4598
260 13.3147
265 16.7329
270 14.2782
275 14.3729
280 12.699
285 11.9695
290 16.7767
295 20.8793
300 16.1578
305 16.076
310 16.1141
315 13.1708
320 15.1083
325 19.3237
330 18.1037
335 18.1969
340 19.2518
345 14.8246
350 16.6295
355 25.8074
360 16.4081
365 21.2035
370 14.0384
375 14.4311
380 18.9368
385 13.9192
390 16.4873
395 14.759
400 16.3599
405 18.1887
410 14.8043
415 20.0475
420 18.9724
425 20.0855
430 17.6051
435 19.6373
440 14.5106
445 19.4435
450 15.6373
455 20.9702
460 19.6702
465 16.5387
470 15.8119
475 16.0438
480 14.6116
485 20.4405
490 16.1193
495 19.5695
500 13.7642
505 12.9827
510 10.9777
515 12.4519
520 16.2581
525 17.4359
530 17.6834
535 17.354
540 18.4551
545 13.1419
550 18.2721
555 18.928
560 12.7382
565 19.7575
570 15.2296
575 18.3096
580 16.1913
585 22.3237
590 14.0766
595 22.5113
600 13.1961
Ex : 218
200 17.875
205 15.9475
210 17.1495
215 15.859
220 16.2003
225 13.204
230 13.4038
235 13.1122
240 16.4833
245 15.5865
250 16.5995
255 12.2575
260 14.6933
265 14.2294
270 13.2176
275 12.4798
280 12.6185
285 14.3934
290 19.1547
295 16.7167
300 15.6709
305 14.6159
310 14.6525
315 14.3951
320 15.2022
325 11.9786
330 14.1108
335 17.7017
340 16.205
345 15.0844
350 15.7534
355 15.9451
360 17.3648
365 17.3406
370 17.2809
375 17.3594
380 21.0055
385 18.5493
390 14.3864
395 17.6262
400 19.171
405 19.2423
410 17.6832
415 16.0267
420 17.2893
425 14.6961
430 17.0509
435 15.0519
440 18.3549
445 16.6266
450 11.9223
455 13.5906
460 13.447
465 16.496
470 17.9324
475 17.3998
480 14.4133
485 15.0252
490 13.6558
495 18.2804
500 15.4211
505 18.0674
510 16.8949
515 14.1927
520 16.3868
525 12.8021
530 18.6097
535 12.7424
540 16.1293
545 17.1239
550 16.272
555 14.739
560 15.3611
565 18.3442
570 13.9166
575 18.3812
580 14.7407
585 14.1702
590 13.4375
595 12.5892
600 32.8928
Ex : 223
200 14.75
205 14.7723
210 15.3731
215 13.8364
220 12.0428
225 13.1246
230 13.2588
235 14.8689
240 13.8363
245 17.6766
250 12.4001
255 12.0906
260 13.0973
265 16.6181
270 15.0321
275 17.4546
280 13.6627
285 18.2675
290 15.0797
295 11.9664
300 11.2359
305 12.4157
310 15.4999
315 16.1337
320 14.8191
325 14.8075
330 15.21
335 16.2457
340 18.3082
345 16.9676
350 16.4311
355 15.5738
360 17.8235
365 12.5361
370 17.2826
375 18.5109
380 21.1463
385 17.1958
390 17.7887
395 16.3777
400 15.1053
405 16.1055
410 17.3742
415 16.2784
420 13.1697
425 20.616
430 17.0418
435 15.5784
440 16.2115
445 13.811
450 15.6188
455 15.3358
460 20.206
465 15.8797
470 15.9916
475 16.2354
480 15.8518
485 16.8995
490 13.7288
495 16.3543
500 15.7363
505 14.9756
510 15.1193
515 14.4939
520 12.3791
525 18.2099
530 14.1885
535 22.5103
540 17.8166
545 13.3483
550 18.7946
555 16.1468
560 16.7276
565 17.1721
570 19.1626
575 17.0508
580 16.5184
585 15.2042
590 13.3163
595 15.552
600 6.42233
Ex : 228
200 12.8677
205 14.9127
210 14.4044
215 18.81
220 13.3674
225 13.2361
230 12.8216
235 16.2041
240 13.6815
245 15.0764
250 17.9542
255 12.224
260 15.4304
265 16.1188
270 15.803
275 14.947
280 15.6731
285 11.5714
290 14.3607
295 18.7529
300 16.1614
305 14.773
310 13.2802
315 13.3449
320 18.6252
325 17.3053
330 15.6647
335 16.6239
340 14.5057
345 14.7152
350 16.9039
355 13.7124
360 13.3014
365 16.5131
370 14.6768
375 14.9386
380 16.8867
385 13.8517
390 15.0231
395 16.1739
400 12.7021
405 13.8872
410 15.8934
415 13.82
420 14.1288
425 15.4782
430 17.289
435 13.8148
440 15.9648
445 17.9998
450 14.7953
455 13.345
460 12.712
465 15.024
470 14.5669
475 13.94
480 12.9549
485 11.9287
490 13.3575
495 10.1242
500 12.1438
505 12.0213
510 13.1102
515 17.2644
520 14.7793
525 15.9467
530 15.8708
535 13.0593
540 17.5794
545 16.1747
550 12.4475
555 15.2413
560 13.6468
565 12.6419
570 12.3468
575 12.6711
580 21.0788
585 15.5456
590 12.8028
595 13.6856
600 2.22202
Ex : 233
200 15.5902
205 16.265
210 15.9484
215 13.4537
220 9.05682
225 13.8278
230 15.3867
235 17.3585
240 10.9171
245 12.0167
250 14.2961
255 14.1079
260 12.5396
265 12.922
270 11.9551
275 10.8709
280 12.7445
285 14.1595
290 8.70933
295 16.9039
300 13.6066
305 10.2948
310 10.2197
315 12.103
320 12.6527
325 12.5395
330 13.3021
335 11.0013
340 12.3102
345 12.612
350 16.3618
355 13.6339
360 16.0577
365 9.53142
370 12.0989
375 13.4115
380 16.1789
385 11.4904
390 14.0024
395 11.8267
400 13.3973
405 12.1405
410 13.0949
415 16.2773
420 13.0185
425 12.1159
430 13.4931
435 16.6807
440 12.8251
445 14.7703
450 13.9027
455 11.254
460 17.2839
465 12.5338
470 14.9894
475 11.8971
480 13.2627
485 15.5254
490 15.492
495 17.9699
500 11.0665
505 12.7401
510 14.5817
515 13.0936
520 14.3974
525 13.901
530 15.918
535 13.0924
540 14.1697
545 16.8391
550 11.5899
555 13.0384
560 16.2611
565 12.5416
570 12.8769
575 12.8164
580 12.2111
585 16.1081
590 14.381
595 12.9956
600 28.2422
Ex : 238
200 8.22727
205 15.3291
210 14.639
215 12.6736
220 11.1905
225 13.1239
230 10.6655
235 13.2825
240 11.3339
245 13.3398
250 8.21944
255 10.2797
260 8.98315
265 13.3797
270 12.054
275 10.6229
280 13.3294
285 11.2767
290 12.7647
295 10.9588
300 9.22656
305 11.8414
310 13.0513
315 11.4974
320 10.9134
325 10.6172
330 12.415
335 13.6599
340 10.4481
345 11.183
350 12.9796
355 11.2638
360 12.1238
365 18.6232
370 14.1396
375 12.462
380 12.0128
385 15.8545
390 11.8142
395 8.85567
400 13.6828
405 12.532
410 11.8919
415 12.7396
420 14.2052
425 11.3096
430 12.2043
435 14.8932
440 11.0533
445 12.8536
450 12.749
455 10.2304
460 15.3042
465 11.3246
470 11.8565
475 10.8343
480 12.1563
485 10.9528
490 11.1726
495 13.5002
500 14.9993
505 11.121
510 10.8893
515 11.6397
520 14.581
525 11.5269
530 10.9065
535 11.0607
540 10.6598
545 9.79241
550 10.1209
555 10.0584
560 11.1487
565 13.3632
570 13.2542
575 12.2458
580 11.089
585 12.3355
590 10.1609
595 9.74679
600 6.78085
Ex : 243
200 7.89394
205 9.10647
210 9.72041
215 10.868
220 8.7791
225 15.0886
230 10.8699
235 10.4045
240 10.5581
245 9.99165
250 8.71898
255 9.85422
260 12.6751
265 9.83907
270 16.2251
275 11.6904
280 9.56721
285 11.8054
290 11.4753
295 7.24503
300 12.2166
305 12.9734
310 12.1538
315 10.3473
320 10.9491
325 9.77403
330 9.60042
335 12.6359
340 11.5611
345 9.6355
350 13.7049
355 10.3023
360 13.9992
365 10.625
370 13.3517
375 12.2404
380 8.29312
385 7.61979
390 11.6296
395 10.6336
400 10.5503
405 11.5734
410 9.70211
415 12.1883
420 11.3098
425 8.54466
430 10.1219
435 10.6161
440 10.751
445 11.8545
450 9.79283
455 8.72905
460 10.0273
465 8.49792
470 12.0708
475 11.2339
480 9.37165
485 11.4893
490 12.6962
495 11.0029
500 9.31021
505 11.4029
510 10.4026
515 10.4786
520 9.7482
525 10.7115
530 8.665
535 9.46119
540 9.0072
545 9.30061
550 9.18077
555 8.76195
560 7.74112
565 11.418
570 9.58995
575 8.82514
580 10.0457
585 14.5389
590 9.83248
595 9.39915
600 16.1351
Ex : 248
200 8.52366
205 8.55377
210 9.53909
215 10.8199
220 8.9499
225 6.834
230 9.96303
235 9.23298
240 8.91608
245 8.16989
250 7.60313
255 10.6244
260 9.61687
265 6.93538
270 8.55971
275 8.76333
280 7.63951
285 7.82328
290 8.32074
295 7.51322
300 8.33076
305 10.5481
310 8.46832
315 8.20331
320 8.76686
325 6.9066
330 8.86903
335 8.63116
340 10.9894
345 9.4967
350 10.354
355 8.26513
360 8.59124
365 7.84643
370 10.5661
375 10.0906
380 10.8037
385 8.62297
390 7.40407
395 9.07281
400 9.07517
405 11.0601
410 10.3443
415 8.59698
420 6.76535
425 10.5624
430 8.7984
435 10.0056
440 8.86352
445 9.52147
450 8.08887
455 7.65402
460 7.01938
465 10.6546
470 10.6147
475 9.31034
480 9.99242
485 11.018
490 11.4196
495 8.54926
500 9.09914
505 8.6033
510 9.36879
515 8.69449
520 8.71732
525 7.2958
530 8.96506
535 8.98771
540 7.10803
545 6.5857
550 9.94128
555 7.75805
560 7.55835
565 6.66998
570 9.28664
575 8.76303
580 8.71107
585 8.41177
590 8.31272
595 9.14817
600 1.33643
Ex : 253
200 7.54198
205 6.83675
210 7.14473
215 5.79538
220 4.91727
225 6.04817
230 7.08887
235 8.73844
240 6.06597
245 6.10398
250 8.83871
255 8.0662
260 7.18847
265 6.63712
270 8.39879
275 7.85396
280 6.44835
285 6.71281
290 7.21273
295 6.33095
300 7.36812
305 6.71125
310 8.99405
315 7.23157
320 6.60467
325 5.99034
330 5.79144
335 4.60143
340 7.55029
345 6.00186
350 6.87067
355 6.65211
360 7.72065
365 6.15415
370 5.88224
375 7.037
380 8.15012
385 6.51648
390 6.16011
395 9.1588
400 6.71771
405 5.91057
410 7.67805
415 7.66495
420 7.00295
425 9.81946
430 11.0679
435 6.84302
440 10.609
445 9.5292
450 7.54165
455 8.081
460 8.53688
465 6.85222
470 6.30949
475 7.28375
480 7.80688
485 7.73466
490 9.6931
495 8.30776
500 8.92799
505 7.71558
510 7.52683
515 8.96851
520 8.8169
525 8.06394
530 6.78216
535 6.57887
540 7.62696
545 5.58081
550 6.30266
555 8.67982
560 6.80516
565 8.28932
570 7.20745
575 6.17452
580 6.74915
585 6.3903
590 6.1258
595 6.65092
600 5.3848
Ex : 258
200 6.0334
205 5.22926
210 3.97007
215 4.40493
220 5.39871
225 4.31773
230 4.92064
235 5.68179
240 4.3763
245 5.37386
250 6.8804
255 4.91449
260 6.35598
265 4.98836
270 5.48253
275 5.01615
280 5.72255
285 6.08847
290 6.56508
295 5.18705
300 6.01475
305 5.05698
310 4.6134
315 5.26511
320 3.75767
325 6.38614
330 6.83705
335 5.48023
340 5.93043
345 5.5891
350 6.22809
355 6.59844
360 5.87529
365 5.97878
370 5.78434
375 4.85162
380 5.35384
385 6.98282
390 6.33163
395 5.89781
400 5.24292
405 4.93288
410 7.35853
415 8.55547
420 5.31687
425 6.04559
430 5.47526
435 5.25493
440 4.90116
445 5.54865
450 6.89333
455 5.12235
460 5.47446
465 5.2161
470 7.42214
475 6.0162
480 5.41223
485 5.04863
490 6.09235
495 6.55614
500 5.38885
505 5.25362
510 5.95834
515 6.15654
520 6.03628
525 5.94576
530 6.64503
535 5.84436
540 5.40185
545 4.95658
550 5.43729
555 7.21448
560 5.12231
565 5.02278
570 5.04981
575 5.55955
580 5.56128
585 5.53199
590 4.9529
595 5.50619
600 5.80747
Ex : 263
200 2.81487
205 3.11886
210 3.82998
215 4.22667
220 3.46725
225 3.75826
230 3.65011
235 4.40125
240 3.78589
245 3.78257
250 3.41018
255 4.45006
260 4.35196
265 4.41966
270 4.00698
275 5.92666
280 4.62764
285 5.02652
290 5.25445
295 4.31012
300 4.74291
305 4.96265
310 4.55128
315 3.62443
320 4.06939
325 4.39296
330 3.97143
335 3.73361
340 3.61132
345 4.4049
350 4.83943
355 5.46384
360 4.62487
365 4.92349
370 4.58971
375 4.49416
380 4.12059
385 3.69644
390 3.02125
395 4.52798
400 3.63712
405 5.07986
410 4.31239
415 4.50146
420 4.75414
425 4.68866
430 4.5943
435 3.57152
440 5.31798
445 4.4782
450 5.15651
455 4.52669
460 4.10472
465 6.50606
470 4.83075
475 4.38994
480 4.12237
485 3.40543
490 3.43695
495 3.97191
500 3.57866
505 3.77508
510 5.53536
515 4.31998
520 4.13609
525 4.39548
530 4.33809
535 4.2244
540 3.57292
545 3.34032
550 4.157
555 4.10935
560 4.37999
565 4.37353
570 4.40026
575 6.39075
580 3.68748
585 4.82231
590 4.58486
595 3.8932
600 2.27083
Ex : 268
200 2.6052
205 3.27966
210 2.40175
215 3.08294
220 3.53043
225 3.02804
230 2.75164
235 2.84393
240 4.24046
245 2.99731
250 2.82245
255 3.28813
260 2.88808
265 3.38208
270 2.67927
275 2.87668
280 3.64566
285 3.29978
290 2.71664
295 3.06203
300 3.46518
305 3.26369
310 2.32986
315 3.43865
320 3.62309
325 4.11449
330 3.77565
335 3.13768
340 3.27271
345 2.18464
350 3.15907
355 3.23939
360 2.81358
365 3.33854
370 3.66278
375 3.89574
380 4.55045
385 3.91045
390 4.1152
395 3.21796
400 4.25283
405 3.74362
410 3.66668
415 3.53699
420 3.31567
425 4.32982
430 3.99369
435 3.23999
440 4.02363
445 3.37448
450 5.27453
455 3.75469
460 3.31748
465 3.72764
470 3.67256
475 3.18597
480 3.87888
485 3.10212
490 2.48646
495 2.87662
500 2.16676
505 3.08659
510 3.4077
515 3.42104
520 2.91802
525 2.82021
530 3.7113
535 3.69087
540 3.62617
545 3.12258
550 3.90969
555 3.73499
560 2.7046
565 3.93012
570 3.06782
575 2.89603
580 2.93765
585 2.76181
590 3.12506
595 3.62336
600 0.633876
Ex : 273
200 2.63238
205 2.82812
210 2.95246
215 1.80982
220 2.50342
225 2.38257
230 2.30226
235 2.26886
240 2.53004
245 2.37045
250 2.89315
255 2.67886
260 2.5122
265 2.86503
270 2.45714
275 2.68213
280 3.44438
285 2.73834
290 2.51825
295 2.46695
300 2.78455
305 2.77967
310 2.83938
315 1.86136
320 2.79658
325 3.3408
330 2.8731
335 3.40014
340 3.08589
345 2.19233
350 2.51687
355 2.67797
360 2.89263
365 3.47916
370 2.94972
375 3.3003
380 3.61556
385 3.42352
390 2.92919
395 3.36916
400 3.25975
405 2.82342
410 2.3244
415 3.74861
420 3.36482
425 3.32925
430 2.73194
435 3.38128
440 2.70452
445 2.59523
450 2.54043
455 3.19837
460 2.6864
465 3.30861
470 3.56837
475 2.80343
480 2.75672
485 2.66696
490 3.13308
495 2.66714
500 2.91592
505 2.92422
510 2.54529
515 2.20123
520 3.23416
525 3.65891
530 2.30504
535 3.51887
540 4.1481
545 3.23812
550 2.82161
555 3.26394
560 3.34934
565 2.31779
570 2.45104
575 2.447
580 2.40008
585 2.28448
590 2.44594
595 2.26466
600 4.17746
Ex : 278
200 2.02879
205 2.12139
210 2.16198
215 1.49879
220 1.77049
225 2.3553
230 2.74855
235 2.21935
240 1.62259
245 2.20138
250 1.51661
255 2.08921
260 2.31926
265 1.99823
270 2.25897
275 1.9453
280 2.0227
285 2.37635
290 1.94498
295 2.11353
300 1.91655
305 2.05835
310 1.87734
315 2.18963
320 2.33838
325 2.14211
330 2.58617
335 2.52199
340 2.23112
345 2.07908
350 2.42571
355 2.95496
360 2.75585
365 3.40111
370 2.40057
375 2.83641
380 2.3581
385 2.70505
390 2.82666
395 2.30676
400 2.89933
405 3.0822
410 2.64416
415 2.72041
420 2.60447
425 2.41829
430 2.62805
435 2.57687
440 2.8819
445 2.56645
450 2.37084
455 2.53121
460 2.22545
465 2.28287
470 2.95634
475 2.14797
480 1.84933
485 2.58917
490 3.29393
495 2.22198
500 2.36551
505 2.6731
510 2.4714
515 1.91709
520 2.71165
525 2.1121
530 1.87108
535 1.88502
540 2.36104
545 2.59593
550 2.85264
555 2.8202
560 2.17631
565 1.8546
570 1.69263
575 2.27257
580 2.09692
585 1.93185
590 1.98462
595 1.67062
600 1.96252
Ex : 283
200 1.39253
205 1.32208
210 1.94201
215 2.00604
220 1.79393
225 1.96782
230 1.53374
235 1.70388
240 2.05953
245 2.06554
250 1.41319
255 1.94657
260 1.2251
265 1.19957
270 2.11146
275 1.97193
280 1.98923
285 1.79104
290 1.90481
295 2.14228
300 1.90629
305 1.56915
310 1.65752
315 1.45795
320 1.95336
325 1.70649
330 2.04527
335 1.58689
340 1.97775
345 1.56669
350 1.73161
355 2.0948
360 2.68475
365 2.00195
370 2.62033
375 2.13402
380 2.3238
385 1.91807
390 1.9901
395 1.82615
400 2.4097
405 1.92612
410 2.33995
415 2.47889
420 1.81767
425 2.09699
430 2.87372
435 2.9125
440 2.07171
445 1.65704
450 1.7097
455 2.03679
460 2.20731
465 2.22757
470 2.67519
475 1.85864
480 1.79502
485 1.8708
490 2.60336
495 2.74158
500 2.21711
505 2.16488
510 2.44082
515 1.80921
520 1.55958
525 1.92079
530 2.32873
535 2.03799
540 1.74631
545 1.69208
550 1.78993
555 1.78362
560 2.1902
565 3.13458
570 1.88821
575 2.11463
580 1.72422
585 1.81039
590 1.93083
595 1.66653
600 1.81834
Ex : 288
200 1.07818
205 1.67027
210 1.61934
215 1.61817
220 1.65412
225 0.99746
230 1.33046
235 1.59367
240 1.37942
245 1.59369
250 1.82071
255 1.23971
260 1.84371
265 1.11399
270 1.42293
275 1.53503
280 1.63568
285 1.41188
290 1.81236
295 1.28557
300 1.50149
305 1.41822
310 1.2844
315 1.33085
320 1.69655
325 1.34966
330 1.43999
335 1.76135
340 2.2056
345 1.55728
350 1.8885
355 1.543
360 1.77504
365 2.15619
370 1.69332
375 2.41698
380 1.81132
385 1.79404
390 1.6216
395 2.15135
400 2.20819
405 1.9852
410 1.86038
415 1.87273
420 1.5845
425 1.47779
430 2.0574
435 2.37651
440 1.86319
445 1.86627
450 2.22897
455 2.09299
460 1.73252
465 2.05999
470 2.17533
475 1.91541
480 2.16615
485 1.71617
490 1.71304
495 1.7122
500 1.70017
505 1.63047
510 1.67538
515 1.93966
520 1.27776
525 1.61313
530 1.47747
535 1.48088
540 1.15292
545 1.82118
550 1.64592
555 1.7559
560 1.89653
565 1.99359
570 2.20756
575 2.36271
580 1.58279
585 1.33382
590 1.12841
595 1.31956
600 0.150161
Ex : 293
200 1.68296
205 1.22667
210 1.52747
215 1.60974
220 1.06897
225 1.15988
230 1.20275
235 1.56228
240 1.27716
245 1.18996
250 1.21354
255 1.40386
260 0.924405
265 1.02345
270 1.13723
275 1.48329
280 1.0146
285 1.83856
290 1.65655
295 1.42434
300 1.18501
305 1.20967
310 1.42634
315 1.48431
320 1.39804
325 1.42195
330 1.35766
335 1.3652
340 1.78554
345 1.25329
350 1.48085
355 1.29717
360 1.32322
365 1.78134
370 1.37512
375 1.36129
380 1.42306
385 1.35521
390 1.33333
395 1.51892
400 1.61933
405 1.71633
410 1.76485
415 1.62128
420 1.86412
425 1.60306
430 1.86536
435 1.65392
440 1.53509
445 1.8649
450 1.84861
455 1.71368
460 1.76739
465 1.75489
470 1.37782
475 1.58559
480 1.70006
485 1.36861
490 1.42511
495 1.69213
500 1.69296
505 1.24415
510 1.29069
515 1.34884
520 1.71051
525 1.14644
530 1.45261
535 1.51277
540 1.40655
545 1.20377
550 1.22596
555 1.5644
560 1.16701
565 1.48472
570 1.35907
575 1.28546
580 1.99112
585 1.87293
590 1.47602
595 1.01298
600 3.3022
Ex : 298
200 0.842701
205 1.05047
210 1.22268
215 0.990067
220 1.10428
225 1.41741
230 0.988541
235 1.34744
240 1.5123
245 1.0775
250 1.1347
255 1.25873
260 1.57832
265 1.36922
270 1.15813
275 0.936674
280 1.1983
285 0.875048
290 1.16201
295 1.31044
300 0.939795
305 1.15207
310 1.12831
315 1.24367
320 1.21497
325 1.20365
330 1.2339
335 1.86549
340 1.17282
345 1.4207
350 1.34665
355 1.45934
360 1.53533
365 1.28292
370 1.16445
375 1.34401
380 1.63483
385 1.49133
390 1.62592
395 1.49681
400 1.44071
405 1.85114
410 1.21669
415 1.95504
420 1.70842
425 2.0016
430 1.40573
435 1.44919
440 1.51875
445 1.64778
450 1.43584
455 1.53282
460 1.46532
465 0.991884
470 1.48497
475 1.37311
480 1.31374
485 1.46246
490 1.40536
495 1.5061
500 1.31495
505 1.24001
510 1.06066
515 1.15515
520 1.16179
525 0.873203
530 1.56168
535 1.21862
540 1.08379
545 0.952419
550 1.61648
555 1.18743
560 1.44184
565 1.06813
570 1.07439
575 1.1316
580 1.32638
585 1.42384
590 1.50637
595 1.7357
600 0.197516
Ex : 303
200 0.806383
205 0.858006
210 1.09596
215 0.809438
220 1.01798
225 0.814283
230 1.09569
235 0.813885
240 1.12452
245 1.07908
250 0.973564
255 0.730374
260 0.979788
265 0.994525
270 0.938531
275 0.94809
280 0.815833
285 1.07038
290 0.972725
295 1.25172
300 1.20456
305 0.955011
310 1.03139
315 0.786452
320 0.936032
325 0.912445
330 1.1215
335 1.02297
340 1.02651
345 1.11781
350 0.9784
355 1.11088
360 1.17363
365 1.44855
370 1.38519
375 1.21071
380 1.17726
385 1.45933
390 1.65509
395 1.51261
400 1.56021
405 1.35452
410 1.35262
415 1.20623
420 1.26187
425 1.44243
430 1.50792
435 1.25569
440 1.38629
445 1.1234
450 1.41406
455 1.55061
460 1.34937
465 1.19646
470 1.22004
475 1.52536
480 1.10928
485 1.23956
490 0.789092
495 1.06855
500 1.47156
505 1.10114
510 1.00805
515 1.0346
520 0.91077
525 1.03779
530 0.918487
535 1.1511
540 1.08229
545 0.913107
550 0.861296
555 0.891215
560 1.13976
565 1.03476
570 0.751337
575 1.04122
580 1.01821
585 0.754568
590 1.36751
595 1.3919
600 0.668631
Ex : 308
200 0.786496
205 0.910608
210 0.790759
215 0.964788
220 0.810986
225 0.872191
230 0.735667
235 0.945234
240 0.850571
245 0.817373
250 0.862935
255 0.916552
260 0.854144
265 0.918273
270 0.938898
275 0.815136
280 0.970362
285 0.68854
290 0.706488
295 0.895659
300 1.20002
305 1.00584
310 0.975473
315 0.877534
320 0.818277
325 0.876737
330 0.985412
335 1.04751
340 1.34662
345 1.06931
350 0.967075
355 1.1376
360 1.21038
365 0.885628
370 1.08989
375 1.25085
380 1.37507
385 1.40924
390 1.41717
395 1.28924
400 1.64912
405 1.59163
410 1.50266
415 1.46759
420 1.25832
425 1.71579
430 1.67614
435 1.39283
440 1.31546
445 1.6596
450 1.3324
455 1.1629
460 1.18303
465 1.11734
470 1.22267
475 1.18854
480 1.25918
485 1.02921
490 1.03058
495 1.23224
500 0.760069
505 0.853174
510 0.866267
515 1.08021
520 0.970428
525 0.921791
530 0.949248
535 0.927215
540 0.888793
545 0.753211
550 0.911009
555 0.868583
560 0.768864
565 0.949422
570 0.931797
575 0.918412
580 0.850862
585 0.962477
590 0.889274
595 0.830453
600 0.911651
Ex : 313
200 0.920907
205 0.758085
210 0.750241
215 0.591952
220 0.803548
225 0.723807
230 0.802423
235 0.734153
240 0.772704
245 0.831595
250 0.818653
255 0.840046
260 0.761909
265 0.794877
270 0.748262
275 0.652605
280 0.73861
285 0.743402
290 0.761155
295 0.787067
300 0.734838
305 0.788467
310 1.01933
315 0.943958
320 0.714919
325 0.796597
330 0.941494
335 1.07787
340 1.03193
345 1.09063
350 0.959323
355 1.0444
360 1.24421
365 1.23241
370 1.37557
375 1.1625
380 1.42722
385 1.68811
390 1.53091
395 1.67352
400 1.54628
405 1.23833
410 1.35488
415 1.57907
420 1.43725
425 1.60465
430 1.36734
435 1.46269
440 1.33403
445 1.28839
450 1.45231
455 1.14142
460 1.47744
465 1.39671
470 1.17726
475 0.993138
480 1.19303
485 1.20672
490 1.03409
495 0.786896
500 1.00294
505 1.03437
510 0.809762
515 0.982774
520 0.882642
525 0.80131
530 0.842042
535 0.738405
540 0.648381
545 0.671674
550 1.00726
555 0.906975
560 0.84159
565 0.734466
570 0.665274
575 0.739741
580 1.07722
585 0.650713
590 0.707086
595 0.619924
600 0.070545
Ex : 318
200 0.607222
205 0.517841
210 0.75805
215 0.794608
220 0.771593
225 0.738346
230 0.975359
235 0.736496
240 0.689276
245 0.596675
250 0.556771
255 0.822043
260 0.694788
265 0.606199
270 0.705294
275 0.644127
280 0.599142
285 0.740656
290 0.586923
295 0.700519
300 0.665032
305 0.761971
310 1.05145
315 1.61603
320 0.919732
325 1.06429
330 1.34377
335 1.18035
340 1.62763
345 1.84236
350 2.38619
355 2.85939
360 3.4416
365 3.82474
370 4.547
375 5.33385
380 5.92243
385 6.79659
390 7.22303
395 7.56713
400 8.22452
405 7.4613
410 8.53155
415 8.25796
420 8.1092
425 7.06283
430 6.99567
435 7.17283
440 6.82935
445 6.40443
450 6.0253
455 5.97705
460 5.29407
465 4.93093
470 4.2477
475 4.16459
480 4.0895
485 3.96185
490 3.13308
495 2.54555
500 2.74458
505 2.45481
510 2.05595
515 1.98998
520 1.90388
525 1.75673
530 1.51284
535 1.39381
540 1.2904
545 1.24442
550 0.935908
555 1.08678
560 0.965986
565 1.00565
570 0.757358
575 0.668997
580 0.892905
585 0.780144
590 0.665778
595 0.735304
600 0.185219
Ex : 323
200 0.530354
205 0.62942
210 0.6928
215 0.776492
220 0.716707
225 0.811981
230 0.628553
235 0.727018
240 0.592448
245 0.508425
250 0.596923
255 0.617338
260 0.6837
265 0.590815
270 0.754174
275 0.619246
280 0.721678
285 0.464961
290 0.668788
295 0.670738
300 0.651392
305 0.682258
310 0.688014
315 4.15147
320 18.1822
325 8.21461
330 3.16173
335 3.6039
340 4.66727
345 6.08827
350 8.64557
355 11.9166
360 14.1177
365 16.8314
370 19.6851
375 23.9136
380 26.5177
385 28.5466
390 31.2771
395 32.0257
400 34.7677
405 34.4585
410 35.0859
415 34.7236
420 34.0823
425 33.8072
430 31.618
435 29.7037
440 28.7723
445 27.2801
450 26.2363
455 24.9192
460 22.687
465 20.5263
470 19.6923
475 17.9053
480 15.821
485 14.647
490 13.1835
495 12.0803
500 10.7943
505 9.07888
510 8.1283
515 7.09296
520 5.99334
525 5.54816
530 4.78946
535 4.22856
540 3.87073
545 3.2889
550 3.19832
555 2.5623
560 2.62464
565 2.11667
570 1.90655
575 1.48861
580 1.12666
585 1.26285
590 0.931818
595 0.802679
600 1.15976
Ex : 328
200 0.505573
205 0.469524
210 0.701538
215 0.509056
220 0.693083
225 0.515265
230 0.707428
235 0.721437
240 0.601167
245 0.635897
250 0.660153
255 0.519125
260 0.44951
265 0.527546
270 0.889847
275 0.644506
280 0.562633
285 0.642771
290 0.711936
295 0.682011
300 0.51175
305 0.534866
310 0.652687
315 1.38333
320 43.8151
325 105.184
330 33.3964
335 7.7395
340 6.35478
345 7.98884
350 9.93241
355 14.6276
360 19.778
365 21.7093
370 23.658
375 26.8746
380 29.9291
385 33.7349
390 36.163
395 38.5815
400 41.2164
405 40.6702
410 42.1037
415 40.551
420 40.3888
425 38.8159
430 37.2134
435 35.5285
440 34.4622
445 32.7122
450 30.6732
455 27.8873
460 25.9736
465 23.9974
470 22.3637
475 20.902
480 18.833
485 17.1137
490 15.7934
495 13.5585
500 12.284
505 10.4135
510 9.53316
515 8.9268
520 7.88044
525 6.75879
530 6.28272
535 5.14381
540 4.69316
545 3.56632
550 3.3177
555 3.42099
560 2.92501
565 2.44265
570 1.90498
575 1.74651
580 1.45326
585 1.10693
590 1.09411
595 1.04656
600 0.675812
Ex : 333
200 0.502647
205 0.499485
210 0.477905
215 0.588148
220 0.689108
225 0.486754
230 0.55214
235 0.443171
240 0.510842
245 0.46332
250 0.440202
255 0.632222
260 0.606059
265 0.526922
270 0.562353
275 0.549865
280 0.593673
285 0.553324
290 0.39521
295 0.614416
300 0.573241
305 0.533434
310 0.570172
315 0.620901
320 7.26428
325 136.153
330 230.656
335 59.3218
340 10.5315
345 6.58519
350 6.95067
355 7.90367
360 11.0475
365 16.2983
370 17.2318
375 17.2813
380 17.9404
385 20.038
390 22.3178
395 23.3664
400 24.664
405 24.641
410 25.0571
415 25.2736
420 23.6373
425 22.7358
430 22.6292
435 21.3206
440 19.6455
445 18.7133
450 18.1581
455 16.6191
460 15.5044
465 14.2801
470 13.3222
475 12.0901
480 10.8961
485 10.0378
490 9.15964
495 8.22168
500 7.49032
505 6.84123
510 6.31222
515 5.27811
520 5.03445
525 4.46925
530 3.96087
535 3.65956
540 3.1807
545 3.03491
550 2.64203
555 2.26604
560 2.09179
565 1.78668
570 1.65335
575 1.5015
580 1.30279
585 1.09738
590 1.07133
595 1.01796
600 1.23882
Ex : 338
200 0.393533
205 0.515606
210 0.544093
215 0.459283
220 0.410527
225 0.524419
230 0.475743
235 0.525144
240 0.453378
245 0.463672
250 0.434345
255 0.52941
260 0.432121
265 0.582065
270 0.504686
275 0.624578
280 0.594809
285 0.53483
290 0.512637
295 0.372901
300 0.659139
305 0.485544
310 0.490997
315 0.619753
320 0.728691
325 14.257
330 207.947
335 306.249
340 75.7974
345 12.2725
350 5.66758
355 4.91567
360 4.92871
365 6.70189
370 11.5068
375 11.8565
380 10.5659
385 10.6921
390 12.6178
395 13.4755
400 13.4778
405 13.683
410 14.01
415 14.2984
420 13.705
425 12.8514
430 12.5891
435 11.8777
440 11.708
445 11.3703
450 10.654
455 9.83542
460 9.23765
465 8.56309
470 7.86913
475 7.58533
480 6.72555
485 6.40427
490 5.84789
495 5.37934
500 5.09617
505 4.18188
510 3.84736
515 3.79216
520 3.24321
525 2.96235
530 2.49013
535 2.56972
540 2.30559
545 2.21085
550 2.01575
555 1.89395
560 1.52064
565 1.50724
570 1.38904
575 1.07134
580 0.946203
585 0.918629
590 0.932655
595 0.783413
600 0.288857
Ex : 343
200 0.415749
205 0.57884
210 0.372368
215 0.512069
220 0.403329
225 0.372886
230 0.425916
235 0.515072
240 0.535025
245 0.52533
250 0.47951
255 0.465558
260 0.345211
265 0.462784
270 0.435805
275 0.527815
280 0.544954
285 0.459382
290 0.360988
295 0.465012
300 0.459122
305 0.493412
310 0.631555
315 0.654403
320 0.579284
325 0.724275
330 15.8916
335 236.15
340 333.84
345 81.6202
350 12.082
355 4.75429
360 4.02303
365 3.45372
370 4.44799
375 8.45222
380 9.94705
385 9.33486
390 9.13772
395 9.10838
400 9.19195
405 9.31986
410 10.8424
415 11.4441
420 11.3573
425 9.9954
430 9.70251
435 10.1683
440 9.79112
445 9.33576
450 8.45521
455 7.53284
460 7.3898
465 6.94281
470 6.54319
475 6.15122
480 5.64374
485 4.98012
490 5.00301
495 4.62793
500 4.08181
505 3.69838
510 3.5274
515 3.07347
520 2.83757
525 2.71146
530 2.18219
535 2.15974
540 2.17125
545 1.9113
550 1.76606
555 1.66846
560 1.55447
565 1.53166
570 1.11442
575 1.0631
580 0.822653
585 0.788102
590 0.693869
595 0.758677
600 0.955496
Ex : 348
200 0.44131
205 0.516142
210 0.526807
215 0.456992
220 0.428854
225 0.37056
230 0.374718
235 0.377256
240 0.501972
245 0.378192
250 0.382706
255 0.508569
260 0.465171
265 0.403748
270 0.537313
275 0.436096
280 0.505384
285 0.482065
290 0.34775
295 0.474809
300 0.411406
305 0.362936
310 0.388049
315 0.381748
320 0.522574
325 0.653392
330 0.802238
335 16.5179
340 242.164
345 349.944
350 88.4867
355 12.3638
360 4.17571
365 3.12342
370 2.65517
375 3.22753
380 7.3326
385 11.222
390 11.5219
395 10.5187
400 9.2791
405 9.95593
410 11.5579
415 11.7347
420 11.7913
425 10.5123
430 10.3998
435 9.96631
440 9.7995
445 9.47804
450 8.61449
455 7.92191
460 7.62678
465 7.37413
470 6.82048
475 6.10585
480 6.28451
485 5.34726
490 4.88612
495 4.54919
500 4.21711
505 3.61259
510 3.55131
515 3.11599
520 2.94545
525 2.59131
530 2.33204
535 2.19043
540 2.07974
545 2.02197
550 1.69837
555 1.64736
560 1.3784
565 1.32002
570 1.0683
575 1.11402
580 0.864407
585 0.924335
590 0.901924
595 0.614854
600 0.796015
Ex : 353
200 0.375464
205 0.343388
210 0.381829
215 0.459716
220 0.49352
225 0.445067
230 0.398255
235 0.348395
240 0.339036
245 0.367803
250 0.404802
255 0.406471
260 0.263337
265 0.431948
270 0.49332
275 0.482049
280 0.553191
285 0.475166
290 0.385406
295 0.476605
300 0.467758
305 0.404208
310 0.412315
315 0.445847
320 0.486688
325 0.564716
330 0.735532
335 0.759561
340 16.6405
345 251.005
350 352.573
355 85.8536
360 12.0258
365 3.69497
370 3.1001
375 2.63324
380 3.44004
385 7.6134
390 13.0582
395 12.978
400 10.4667
405 9.70069
410 11.1759
415 13.2216
420 12.8748
425 11.3074
430 10.4128
435 10.4955
440 10.6931
445 10.2192
450 9.32034
455 8.50735
460 7.72639
465 7.87225
470 7.16412
475 6.48417
480 5.77854
485 5.38639
490 5.0623
495 4.65327
500 4.29028
505 4.04071
510 3.63061
515 3.2454
520 2.93598
525 2.59868
530 2.43995
535 2.09836
540 2.0383
545 1.71616
550 1.60356
555 1.50194
560 1.42027
565 1.36561
570 1.07218
575 0.930501
580 0.883514
585 0.733881
590 0.725365
595 0.588692
600 1.17967
Ex : 358
200 0.461024
205 0.501176
210 0.349609
215 0.413966
220 0.342875
225 0.375773
230 0.464223
235 0.39375
240 0.323006
245 0.386313
250 0.331453
255 0.326767
260 0.323308
265 0.295037
270 0.378258
275 0.364721
280 0.44955
285 0.402428
290 0.437746
295 0.490157
300 0.292121
305 0.36136
310 0.455003
315 0.403521
320 0.506582
325 0.521655
330 0.560758
335 0.62088
340 0.97738
345 15.997
350 237.613
355 352.891
360 89.8745
365 12.4509
370 3.70856
375 3.07039
380 3.11747
385 4.89483
390 8.33612
395 12.8951
400 12.3943
405 11.1357
410 10.7709
415 12.0738
420 12.0242
425 10.8865
430 9.75293
435 9.86981
440 10.2543
445 9.832
450 9.18909
455 8.92198
460 8.08662
465 7.33841
470 6.81176
475 6.71805
480 6.09036
485 5.65998
490 5.23949
495 4.63914
500 4.34564
505 3.94316
510 3.69981
515 3.73915
520 3.07525
525 2.85136
530 2.38773
535 2.16565
540 1.92768
545 1.75297
550 1.72135
555 1.48483
560 1.27393
565 1.34603
570 1.05286
575 0.996251
580 0.787259
585 0.740723
590 0.840232
595 0.436353
600 0.76508
Ex : 363
200 0.312514
205 0.298598
210 0.453997
215 0.375776
220 0.380795
225 0.359082
230 0.434477
235 0.345151
240 0.449159
245 0.415008
250 0.437016
255 0.346328
260 0.32042
265 0.283715
270 0.270776
275 0.411102
280 0.345356
285 0.37807
290 0.317867
295 0.259911
300 0.32556
305 0.521817
310 0.433201
315 0.38593
320 0.367272
325 0.354783
330 0.590331
335 0.555009
340 0.572607
345 0.817485
350 14.92
355 235.427
360 359.157
365 93.0991
370 12.6093
375 3.76989
380 4.00127
385 5.7874
390 7.60598
395 9.27705
400 12.7717
405 14.0427
410 13.4138
415 13.7001
420 12.9458
425 11.2867
430 10.7527
435 11.2579
440 11.2048
445 10.702
450 9.96386
455 8.92516
460 8.66749
465 7.78468
470 7.56997
475 7.00319
480 6.47447
485 5.85361
490 5.51742
495 5.11177
500 4.65894
505 4.23618
510 3.80458
515 3.33548
520 3.01894
525 2.73447
530 2.57323
535 2.37183
540 2.16208
545 1.95378
550 1.61787
555 1.51639
560 1.27461
565 1.16371
570 1.08707
575 1.05126
580 0.815063
585 0.6805
590 0.673761
595 0.603759
600 0.345644
Ex : 368
200 0.378925
205 0.289773
210 0.320184
215 0.260155
220 0.303033
225 0.32223
230 0.375881
235 0.302541
240 0.300926
245 0.27189
250 0.243768
255 0.30734
260 0.328633
265 0.316174
270 0.329863
275 0.355902
280 0.317895
285 0.375219
290 0.269611
295 0.34144
300 0.3614
305 0.348494
310 0.348917
315 0.378958
320 0.386825
325 0.310393
330 0.36435
335 0.405104
340 0.564597
345 0.59262
350 0.747584
355 12.526
360 229.11
365 374.995
370 98.9709
375 13.4965
380 4.56684
385 6.54015
390 9.15228
395 9.92132
400 10.0183
405 13.8423
410 17.5051
415 18.2543
420 16.533
425 14.1047
430 12.8786
435 12.9957
440 13.5936
445 12.6339
450 11.8145
455 10.2965
460 9.68827
465 9.09023
470 8.36158
475 7.75049
480 7.05148
485 6.70815
490 5.96082
495 5.42901
500 5.14193
505 4.50315
510 3.78886
515 3.64566
520 3.18676
525 2.91607
530 2.46365
535 2.28988
540 2.07458
545 1.87434
550 1.84805
555 1.51582
560 1.36215
565 1.21578
570 1.10982
575 0.92428
580 0.735749
585 0.737963
590 0.56498
595 0.628074
600 0.195781
Ex : 373
200 0.323973
205 0.311455
210 0.26449
215 0.246385
220 0.271282
225 0.229923
230 0.332412
235 0.244736
240 0.271088
245 0.314525
250 0.321481
255 0.330768
260 0.335866
265 0.283348
270 0.364116
275 0.338215
280 0.429939
285 0.274628
290 0.312719
295 0.366052
300 0.298843
305 0.33882
310 0.288597
315 0.323997
320 0.308923
325 0.302621
330 0.323646
335 0.411412
340 0.351606
345 0.427714
350 0.681453
355 0.756763
360 15.1446
365 232.517
370 364.302
375 96.5085
380 13.6685
385 6.13452
390 9.25332
395 10.9493
400 9.99306
405 10.199
410 14.2527
415 18.9573
420 17.6255
425 14.1601
430 12.4652
435 11.9466
440 12.1862
445 12.2067
450 10.9962
455 9.78755
460 8.73766
465 8.19874
470 8.24287
475 7.50084
480 6.72919
485 6.29849
490 5.77653
495 5.14948
500 4.72998
505 4.19417
510 3.78325
515 3.66261
520 3.32141
525 2.94224
530 2.46719
535 2.37204
540 2.0479
545 1.82114
550 1.80694
555 1.7969
560 1.42626
565 1.21405
570 1.1202
575 0.951963
580 0.789739
585 0.626237
590 0.622886
595 0.615986
600 0.361711
Ex : 378
200 0.387731
205 0.289876
210 0.288935
215 0.27379
220 0.33331
225 0.271484
230 0.233902
235 0.280278
240 0.246782
245 0.28588
250 0.299018
255 0.289303
260 0.281244
265 0.248294
270 0.300147
275 0.361768
280 0.252587
285 0.224693
290 0.242249
295 0.260194
300 0.319658
305 0.281858
310 0.294325
315 0.277924
320 0.32007
325 0.278964
330 0.321332
335 0.323346
340 0.322107
345 0.39256
350 0.464645
355 0.599289
360 0.873939
365 14.527
370 245.289
375 386.8
380 100.735
385 15.7014
390 8.10496
395 8.35203
400 7.98074
405 7.821
410 9.40311
415 12.6064
420 15.1129
425 13.3837
430 11.469
435 10.6373
440 10.5005
445 10.026
450 8.97762
455 8.53082
460 7.78319
465 7.27237
470 7.27791
475 6.76783
480 6.30667
485 5.87539
490 5.39246
495 4.89267
500 4.36314
505 4.22403
510 3.83226
515 3.57507
520 3.02436
525 2.68991
530 2.43786
535 2.24546
540 1.85315
545 1.96315
550 1.85498
555 1.58348
560 1.51607
565 1.30062
570 1.09773
575 0.876492
580 0.691098
585 0.657638
590 0.628228
595 0.56275
600 0.390917
Ex : 383
200 0.346882
205 0.275811
210 0.269065
215 0.288054
220 0.339876
225 0.284196
230 0.289617
235 0.241012
240 0.25304
245 0.271997
250 0.317636
255 0.263439
260 0.311926
265 0.263865
270 0.281931
275 0.344512
280 0.312149
285 0.32951
290 0.353262
295 0.363188
300 0.270728
305 0.303505
310 0.295495
315 0.248211
320 0.288991
325 0.510927
330 0.384509
335 0.336209
340 0.432675
345 0.440652
350 0.39679
355 0.503007
360 0.58573
365 0.701096
370 12.9321
375 237.581
380 397.897
385 109.55
390 18.5835
395 8.4975
400 7.63848
405 8.34116
410 9.98854
415 11.537
420 11.9465
425 13.2508
430 13.3304
435 12.052
440 11.6854
445 10.7393
450 9.86822
455 8.71918
460 8.04445
465 7.97298
470 7.5169
475 7.01815
480 6.42836
485 6.03529
490 5.47962
495 5.08771
500 4.72575
505 4.21589
510 3.97362
515 3.23161
520 3.17197
525 2.84331
530 2.55949
535 2.30208
540 2.1093
545 1.71618
550 1.76924
555 1.53345
560 1.25104
565 1.09498
570 1.06881
575 0.920477
580 0.772336
585 0.670953
590 0.544342
595 0.529227
600 0.654461
Ex : 388
200 0.214324
205 0.302689
210 0.270177
215 0.266132
220 0.226255
225 0.279716
230 0.381439
235 0.270351
240 0.215908
245 0.308321
250 0.254455
255 0.290919
260 0.262859
265 0.316449
270 0.228748
275 0.280572
280 0.336159
285 0.270184
290 0.37084
295 0.263951
300 0.333862
305 0.325826
310 0.2556
315 0.276362
320 0.348998
325 0.271066
330 0.325385
335 0.290619
340 0.286444
345 0.302578
350 0.361173
355 0.370792
360 0.422764
365 0.502392
370 0.731314
375 15.9632
380 278.793
385 444.098
390 115.479
395 20.9372
400 9.73053
405 9.71342
410 12.0655
415 13.9934
420 13.4852
425 12.217
430 13.9074
435 15.0719
440 13.7981
445 12.9235
450 11.2783
455 9.54636
460 8.95291
465 8.47037
470 8.08873
475 7.54604
480 6.98531
485 6.28826
490 5.63065
495 5.2282
500 5.0574
505 4.47158
510 3.82325
515 3.58209
520 3.31545
525 2.96164
530 2.54419
535 2.31941
540 2.13958
545 1.99977
550 1.70516
555 1.63041
560 1.36746
565 1.15796
570 1.06614
575 0.995011
580 0.81781
585 0.684508
590 0.653446
595 0.49523
600 0.386183
Ex : 393
200 0.261512
205 0.296986
210 0.251523
215 0.261138
220 0.237262
225 0.245606
230 0.284423
235 0.219434
240 0.209391
245 0.274462
250 0.231168
255 0.242046
260 0.270149
265 0.283456
270 0.439433
275 0.284037
280 0.269454
285 0.259814
290 0.236194
295 0.283952
300 0.334259
305 0.28859
310 0.263332
315 0.284092
320 0.310264
325 0.34277
330 0.298418
335 0.335084
340 0.325128
345 0.368811
350 0.307115
355 0.344287
360 0.455751
365 0.469624
370 0.602997
375 0.904557
380 12.8122
385 247.121
390 415.245
395 118.39
400 21.5476
405 10.1608
410 10.9713
415 14.2405
420 14.0223
425 12.0788
430 10.749
435 11.9017
440 14.6381
445 13.6308
450 11.3905
455 9.35686
460 8.3396
465 7.68827
470 7.54276
475 7.01645
480 6.39245
485 5.94228
490 5.35383
495 4.87205
500 4.76754
505 4.15434
510 3.69245
515 3.35094
520 3.12034
525 2.67072
530 2.4796
535 2.25661
540 2.08374
545 2.01134
550 1.66155
555 1.40697
560 1.39465
565 1.12087
570 1.05654
575 0.848647
580 0.789539
585 0.662447
590 0.601764
595 0.569952
600 0.744386
Ex : 398
200 0.160472
205 0.27716
210 0.293738
215 0.257812
220 0.213142
225 0.22999
230 0.290129
235 0.319433
240 0.247707
245 0.257256
250 0.260284
255 0.258461
260 0.257248
265 0.236176
270 0.238227
275 0.244753
280 0.279936
285 0.172463
290 0.290224
295 0.259947
300 0.275469
305 0.219443
310 0.316537
315 0.268096
320 0.232983
325 0.249271
330 0.281536
335 0.296596
340 0.270682
345 0.274739
350 0.30433
355 0.361913
360 0.380116
365 0.358979
370 0.474656
375 0.493967
380 0.897251
385 13.9463
390 269.748
395 438.371
400 117.008
405 18.5884
410 8.2516
415 9.37931
420 9.75441
425 8.25913
430 7.17127
435 7.39466
440 8.52037
445 10.8065
450 10.2152
455 8.29726
460 7.22817
465 6.50894
470 6.0131
475 5.79654
480 5.45965
485 4.97666
490 4.59181
495 4.33534
500 3.79286
505 3.53523
510 3.16916
515 3.14126
520 2.66863
525 2.58976
530 2.25779
535 2.09794
540 2.00285
545 1.73868
550 1.72702
555 1.54038
560 1.20851
565 1.21743
570 1.00254
575 0.792756
580 0.688232
585 0.557136
590 0.495279
595 0.504575
600 0.354823
Ex : 403
200 0.266547
205 0.329808
210 0.268516
215 0.257493
220 0.275521
225 0.257475
230 0.226575
235 0.265946
240 0.239413
245 0.258001
250 0.271262
255 0.236169
260 0.239161
265 0.233768
270 0.236797
275 0.287842
280 0.292485
285 0.284992
290 0.253674
295 0.272425
300 0.24333
305 0.277016
310 0.257342
315 0.215042
320 0.250705
325 0.22677
330 0.349888
335 0.251422
340 0.270349
345 0.300889
350 0.28196
355 0.334569
360 0.38611
365 0.383267
370 0.469041
375 0.561769
380 0.527882
385 0.887932
390 15.9515
395 268.231
400 435.941
405 117.299
410 17.5546
415 7.18811
420 6.2557
425 6.02939
430 5.4629
435 5.59897
440 6.10326
445 6.77979
450 8.59104
455 8.58896
460 6.83339
465 6.22196
470 5.8454
475 5.35287
480 5.02597
485 4.51514
490 4.24415
495 3.99265
500 3.82347
505 3.61575
510 3.1782
515 3.03433
520 2.80724
525 2.58055
530 2.24477
535 2.08818
540 1.79405
545 1.68229
550 1.59128
555 1.48073
560 1.28338
565 1.17125
570 0.986158
575 0.879347
580 0.720308
585 0.676872
590 0.573749
595 0.456049
600 0.630642
Ex : 408
200 0.233427
205 0.244515
210 0.233869
215 0.259718
220 0.202702
225 0.223522
230 0.224483
235 0.209049
240 0.232252
245 0.295573
250 0.263988
255 0.201059
260 0.227278
265 0.261565
270 0.28144
275 0.344071
280 0.272749
285 0.241885
290 0.274921
295 0.279624
300 0.269734
305 0.282951
310 0.274609
315 0.219739
320 0.299583
325 0.264667
330 0.247817
335 0.243169
340 0.257599
345 0.249965
350 0.274995
355 0.326863
360 0.325165
365 0.314292
370 0.420099
375 0.329855
380 0.44365
385 0.668195
390 0.974092
395 15.0989
400 279.673
405 451.658
410 119.862
415 19.0453
420 7.26061
425 5.86767
430 5.83631
435 5.96401
440 6.2406
445 6.56879
450 6.8382
455 7.74998
460 8.66013
465 7.26215
470 6.53311
475 5.80298
480 5.17204
485 4.81006
490 4.46017
495 4.12267
500 3.86833
505 3.56143
510 3.32997
515 3.21275
520 2.72653
525 2.51761
530 2.38559
535 2.1149
540 1.86886
545 1.82879
550 1.57459
555 1.4484
560 1.28891
565 1.27963
570 0.964233
575 0.786761
580 0.740208
585 0.618197
590 0.512479
595 0.4985
600 0.188907
Ex : 413
200 0.264634
205 0.345924
210 0.261269
215 0.243594
220 0.252399
225 0.239448
230 0.207921
235 0.289735
240 0.248136
245 0.23976
250 0.22148
255 0.332635
260 0.286375
265 0.242355
270 0.188334
275 0.235035
280 0.228736
285 0.251347
290 0.216664
295 0.241029
300 0.256295
305 0.272251
310 0.236418
315 0.291583
320 0.304602
325 0.282265
330 0.258378
335 0.31715
340 0.251789
345 0.26287
350 0.231144
355 0.319853
360 0.298541
365 0.316427
370 0.303902
375 0.306595
380 0.378931
385 0.442759
390 0.64423
395 0.8436
400 16.8961
405 292.554
410 467.114
415 124.539
420 18.9363
425 6.61989
430 5.15345
435 5.5905
440 6.01594
445 5.74906
450 5.62504
455 5.3316
460 6.26771
465 8.10304
470 7.14978
475 5.7927
480 5.30646
485 4.51961
490 4.05235
495 3.86722
500 3.51989
505 3.31416
510 3.12787
515 2.91688
520 2.78385
525 2.47214
530 2.15478
535 2.06936
540 1.78737
545 1.75361
550 1.48607
555 1.30507
560 1.2333
565 1.13145
570 1.01602
575 0.821458
580 0.718074
585 0.619985
590 0.469064
595 0.454695
600 0.115876
Ex : 418
200 0.247737
205 0.230007
210 0.239328
215 0.192738
220 0.20463
225 0.265513
230 0.240888
235 0.294152
240 0.210714
245 0.239396
250 0.238625
255 0.221081
260 0.24098
265 0.242564
270 0.248926
275 0.267704
280 0.290623
285 0.189039
290 0.21998
295 0.234628
300 0.222332
305 0.225597
310 0.208659
315 0.198855
320 0.306206
325 0.270983
330 0.263863
335 0.311975
340 0.306321
345 0.262844
350 0.358716
355 0.245324
360 0.263827
365 0.276631
370 0.309895
375 0.339265
380 0.336064
385 0.387122
390 0.43301
395 0.589398
400 0.844819
405 16.4935
410 289.706
415 463.667
420 121.223
425 16.9602
430 4.73744
435 3.78643
440 4.02419
445 4.06173
450 3.79018
455 3.51901
460 3.29615
465 4.08025
470 6.12755
475 6.0905
480 4.77671
485 3.98425
490 3.66453
495 3.28568
500 3.19155
505 2.80069
510 2.64478
515 2.48398
520 2.26191
525 2.02306
530 2.03177
535 1.80186
540 1.79878
545 1.70128
550 1.43754
555 1.36266
560 1.2215
565 1.07484
570 0.921368
575 0.856245
580 0.751246
585 0.611477
590 0.530857
595 0.476636
600 0.546899
Ex : 423
200 0.247115
205 0.198922
210 0.229613
215 0.270701
220 0.265988
225 0.202613
230 0.351464
235 0.185404
240 0.230122
245 0.182671
250 0.291636
255 0.193424
260 0.278044
265 0.226955
270 0.223615
275 0.279353
280 0.24564
285 0.263646
290 0.26517
295 0.278481
300 0.205598
305 0.193552
310 0.310208
315 0.270897
320 0.259611
325 0.249923
330 0.27017
335 0.250689
340 0.240153
345 0.28695
350 0.303093
355 0.299013
360 0.286139
365 0.300003
370 0.247173
375 0.307592
380 0.351833
385 0.332025
390 0.401063
395 0.470231
400 0.675019
405 0.894256
410 17.1964
415 296.976
420 446.334
425 111.626
430 14.8983
435 3.66631
440 2.63524
445 2.80465
450 2.60635
455 2.51662
460 2.3337
465 2.33314
470 2.80669
475 4.78471
480 5.26345
485 4.24056
490 3.44758
495 3.1724
500 2.68433
505 2.37998
510 2.30635
515 2.32432
520 2.03412
525 1.85435
530 1.7453
535 1.77077
540 1.48879
545 1.5204
550 1.34929
555 1.18256
560 1.09717
565 1.04156
570 0.924613
575 0.713405
580 0.617695
585 0.572301
590 0.452748
595 0.428509
600 0.949542
Ex : 428
200 0.211661
205 0.265296
210 0.234178
215 0.222241
220 0.246053
225 0.257357
230 0.265336
235 0.251174
240 0.200083
245 0.206355
250 0.300613
255 0.300544
260 0.287972
265 0.210697
270 0.259447
275 0.24925
280 0.3
285 0.263391
290 0.256538
295 0.274486
300 0.308868
305 0.243768
310 0.220022
315 0.232018
320 0.237567
325 0.181163
330 0.208544
335 0.249726
340 0.267105
345 0.25329
350 0.277259
355 0.231376
360 0.20357
365 0.263833
370 0.24012
375 0.306665
380 0.336323
385 0.351147
390 0.42717
395 0.380749
400 0.460221
405 0.682257
410 0.939339
415 18.1054
420 301.522
425 487.286
430 126.296
435 16.2311
440 3.49377
445 2.01645
450 2.20266
455 2.22018
460 2.04818
465 1.86652
470 2.0989
475 2.28804
480 3.46942
485 4.71963
490 3.9086
495 3.17781
500 2.72684
505 2.39374
510 2.09676
515 2.08599
520 1.92157
525 1.93446
530 1.8108
535 1.6706
540 1.5363
545 1.48358
550 1.31149
555 1.2823
560 1.28356
565 1.15061
570 0.887049
575 0.756652
580 0.693274
585 0.606017
590 0.420487
595 0.447066
600 0.507541
Ex : 433
200 0.249494
205 0.26331
210 0.251369
215 0.217757
220 0.271016
225 0.286752
230 0.305433
235 0.249733
240 0.236522
245 0.256629
250 0.301412
255 0.218364
260 0.209833
265 0.291005
270 0.234624
275 0.242825
280 0.245885
285 0.216929
290 0.302068
295 0.293495
300 0.252448
305 0.241257
310 0.238128
315 0.263715
320 0.264546
325 0.263255
330 0.313978
335 0.319463
340 0.280979
345 0.260254
350 0.329028
355 0.280211
360 0.284225
365 0.303724
370 0.275379
375 0.323008
380 0.315512
385 0.325521
390 0.375143
395 0.391127
400 0.461482
405 0.585155
410 0.611771
415 0.754906
420 19.7796
425 318.782
430 469.839
435 116.072
440 14.8874
445 3.22508
450 1.85762
455 2.12639
460 1.98826
465 1.87426
470 1.77073
475 1.91409
480 2.12802
485 2.91983
490 4.42044
495 3.92007
500 2.774
505 2.68624
510 2.37497
515 2.09932
520 1.87682
525 1.87807
530 1.68658
535 1.65206
540 1.54186
545 1.43253
550 1.30785
555 1.1785
560 1.15399
565 1.03118
570 0.909002
575 0.858582
580 0.658664
585 0.54913
590 0.496347
595 0.40585
600 0.549985
Ex : 438
200 0.282742
205 0.292717
210 0.244266
215 0.205658
220 0.246219
225 0.254054
230 0.252102
235 0.253983
240 0.241464
245 0.208771
250 0.271515
255 0.24826
260 0.258625
265 0.337785
270 0.275219
275 0.254818
280 0.234488
285 0.248271
290 0.264386
295 0.229184
300 0.218655
305 0.194267
310 0.313819
315 0.24038
320 0.183586
325 0.253329
330 0.253796
335 0.249207
340 0.277916
345 0.280514
350 0.239479
355 0.317861
360 0.307639
365 0.353389
370 0.307585
375 0.275985
380 0.303607
385 0.331731
390 0.348195
395 0.320992
400 0.388958
405 0.454489
410 0.527941
415 0.582672
420 0.816486
425 19.2805
430 322.087
435 493.428
440 121.5
445 15.5145
450 3.32816
455 1.67684
460 1.84355
465 2.04589
470 1.9373
475 1.72204
480 1.80335
485 1.96029
490 2.38556
495 3.80524
500 4.2182
505 2.84562
510 2.54365
515 2.4839
520 1.97729
525 1.77433
530 1.65838
535 1.69
540 1.48053
545 1.41195
550 1.23098
555 1.29357
560 1.12224
565 0.960919
570 0.903388
575 0.751445
580 0.589297
585 0.569854
590 0.495807
595 0.474369
600 0.522792
Ex : 443
200 0.360007
205 0.311667
210 0.312741
215 0.257831
220 0.247695
225 0.261237
230 0.339628
235 0.24715
240 0.275913
245 0.220933
250 0.265187
255 0.231234
260 0.275011
265 0.239865
270 0.288358
275 0.227563
280 0.211105
285 0.274475
290 0.246674
295 0.23978
300 0.214505
305 0.230507
310 0.277987
315 0.253641
320 0.22991
325 0.306606
330 0.238142
335 0.290123
340 0.312417
345 0.281327
350 0.278425
355 0.271027
360 0.291232
365 0.259028
370 0.282895
375 0.277142
380 0.345051
385 0.312146
390 0.323746
395 0.31473
400 0.345431
405 0.408228
410 0.392659
415 0.423836
420 0.622283
425 0.875296
430 21.0496
435 331.54
440 498.169
445 121.49
450 15.595
455 3.4174
460 1.82578
465 1.79416
470 2.06986
475 1.98589
480 1.72721
485 1.86232
490 1.92026
495 2.08198
500 3.13272
505 4.15866
510 3.04515
515 2.3274
520 2.24765
525 1.92512
530 1.61414
535 1.535
540 1.56463
545 1.38151
550 1.34845
555 1.1524
560 1.02581
565 1.07125
570 0.867306
575 0.743075
580 0.637291
585 0.568822
590 0.529354
595 0.448302
600 0.156516
Ex : 448
200 0.30807
205 0.278155
210 0.228507
215 0.214531
220 0.229331
225 0.281954
230 0.230954
235 0.254707
240 0.242828
245 0.269107
250 0.236504
255 0.269667
260 0.257086
265 0.278053
270 0.273433
275 0.297426
280 0.277214
285 0.261294
290 0.208692
295 0.241415
300 0.247782
305 0.220729
310 0.19832
315 0.306628
320 0.297269
325 0.285312
330 0.244735
335 0.245927
340 0.241246
345 0.298455
350 0.268379
355 0.285282
360 0.317858
365 0.349488
370 0.373799
375 0.294905
380 0.390685
385 0.320611
390 0.296172
395 0.362448
400 0.263141
405 0.350322
410 0.37736
415 0.493245
420 0.572924
425 0.646497
430 0.899635
435 22.1577
440 355.295
445 517.055
450 125.378
455 16.0351
460 3.24873
465 1.7351
470 1.88435
475 2.04142
480 1.9925
485 1.80013
490 1.71223
495 1.70822
500 1.68976
505 2.65525
510 4.0029
515 3.47441
520 2.42073
525 2.18422
530 1.7646
535 1.75651
540 1.58183
545 1.41509
550 1.31282
555 1.10913
560 1.34172
565 1.07301
570 0.964353
575 0.759559
580 0.648297
585 0.621184
590 0.576373
595 0.503392
600 1.78706
Ex : 453
200 0.23442
205 0.260232
210 0.283987
215 0.312174
220 0.297605
225 0.305836
230 0.244458
235 0.212085
240 0.268248
245 0.215975
250 0.29015
255 0.24521
260 0.280563
265 0.332047
270 0.298773
275 0.232205
280 0.204187
285 0.267053
290 0.195306
295 0.308881
300 0.228086
305 0.238636
310 0.244455
315 0.266512
320 0.249558
325 0.263348
330 0.252107
335 0.229812
340 0.296974
345 0.274525
350 0.292865
355 0.259526
360 0.228126
365 0.246706
370 0.297093
375 0.301893
380 0.311169
385 0.303349
390 0.298837
395 0.356093
400 0.311125
405 0.394284
410 0.380602
415 0.358033
420 0.474292
425 0.497487
430 0.652534
435 0.966429
440 25.948
445 434.531
450 547.714
455 123.978
460 15.789
465 3.39582
470 1.74249
475 1.78257
480 2.04724
485 1.77908
490 1.64046
495 1.543
500 1.61787
505 1.63215
510 2.10516
515 3.55318
520 3.48925
525 2.40157
530 2.18519
535 1.91758
540 1.57674
545 1.42461
550 1.45997
555 1.15735
560 1.16642
565 1.09764
570 0.912507
575 0.806401
580 0.671982
585 0.572773
590 0.506661
595 0.536137
600 0.750597
Ex : 458
200 0.271429
205 0.243781
210 0.265926
215 0.227425
220 0.29825
225 0.223315
230 0.202367
235 0.239351
240 0.241097
245 0.245737
250 0.247074
255 0.26686
260 0.257556
265 0.283595
270 0.279926
275 0.281346
280 0.20615
285 0.227995
290 0.273484
295 0.249425
300 0.233183
305 0.270254
310 0.27057
315 0.218777
320 0.26441
325 0.237687
330 0.280956
335 0.328134
340 0.263699
345 0.341014
350 0.323861
355 0.278844
360 0.344702
365 0.277945
370 0.302082
375 0.334968
380 0.338252
385 0.313651
390 0.299253
395 0.368671
400 0.375937
405 0.274277
410 0.338848
415 0.47733
420 0.396168
425 0.423351
430 0.41898
435 0.638433
440 0.906789
445 24.9482
450 388.935
455 556.665
460 131.198
465 16.6198
470 3.40886
475 1.80419
480 1.72589
485 1.91734
490 1.77537
495 1.65393
500 1.4941
505 1.42865
510 1.5096
515 1.75418
520 3.04273
525 3.79161
530 2.59254
535 2.08241
540 1.86048
545 1.67018
550 1.44962
555 1.33205
560 1.03168
565 1.04173
570 1.00725
575 0.820996
580 0.742081
585 0.583501
590 0.476863
595 0.449617
600 0.298824
Ex : 463
200 0.296029
205 0.212888
210 0.259511
215 0.188452
220 0.215093
225 0.218757
230 0.315231
235 0.309318
240 0.210731
245 0.255622
250 0.268692
255 0.256037
260 0.224615
265 0.273908
270 0.272386
275 0.231634
280 0.244689
285 0.23008
290 0.214272
295 0.216955
300 0.227542
305 0.252002
310 0.260783
315 0.243761
320 0.263731
325 0.269513
330 0.279654
335 0.255617
340 0.240375
345 0.205982
350 0.282911
355 0.281726
360 0.253326
365 0.209242
370 0.230175
375 0.208199
380 0.2414
385 0.246617
390 0.31738
395 0.338588
400 0.31129
405 0.321408
410 0.340096
415 0.367116
420 0.319584
425 0.342553
430 0.447245
435 0.567208
440 0.563383
445 0.798891
450 24.8706
455 411.352
460 593.101
465 140.225
470 17.5509
475 3.58534
480 1.73175
485 1.5228
490 1.75572
495 1.7648
500 1.71177
505 1.55082
510 1.54325
515 1.47952
520 1.58025
525 2.24422
530 3.46045
535 2.91432
540 2.14969
545 1.9164
550 1.76873
555 1.37305
560 1.18476
565 1.06254
570 0.984731
575 0.945971
580 0.740004
585 0.615533
590 0.641693
595 0.454845
600 0.378844
Ex : 468
200 0.204789
205 0.193993
210 0.209148
215 0.193303
220 0.257386
225 0.238516
230 0.20857
235 0.188699
240 0.225912
245 0.214981
250 0.188137
255 0.281931
260 0.24357
265 0.256829
270 0.242788
275 0.214783
280 0.214206
285 0.192519
290 0.242678
295 0.213869
300 0.310863
305 0.204142
310 0.254953
315 0.267511
320 0.212869
325 0.220858
330 0.206457
335 0.291415
340 0.19272
345 0.196262
350 0.232897
355 0.269652
360 0.239063
365 0.197235
370 0.17909
375 0.219031
380 0.247303
385 0.232137
390 0.273095
395 0.305506
400 0.28039
405 0.273993
410 0.24622
415 0.316589
420 0.277888
425 0.308914
430 0.34709
435 0.34338
440 0.490502
445 0.617108
450 0.872187
455 27.0989
460 423.378
465 622.917
470 145.723
475 18.1778
480 3.64456
485 1.68917
490 1.43386
495 1.83509
500 1.78872
505 1.48586
510 1.50053
515 1.37616
520 1.52139
525 1.65666
530 1.87876
535 2.95508
540 3.14858
545 2.23778
550 1.7867
555 1.6395
560 1.26359
565 1.13915
570 0.939804
575 0.806294
580 0.711425
585 0.584876
590 0.539003
595 0.450916
600 0.534244
Ex : 473
200 0.220842
205 0.263328
210 0.257148
215 0.231223
220 0.22314
225 0.206058
230 0.242085
235 0.208109
240 0.203308
245 0.229374
250 0.195701
255 0.213239
260 0.225086
265 0.278687
270 0.227867
275 0.251575
280 0.225266
285 0.243805
290 0.213521
295 0.197536
300 0.228752
305 0.212355
310 0.202614
315 0.258828
320 0.330964
325 0.260205
330 0.251643
335 0.235657
340 0.230124
345 0.248152
350 0.215188
355 0.288496
360 0.264822
365 0.307398
370 0.290602
375 0.250126
380 0.235548
385 0.255202
390 0.268557
395 0.287829
400 0.291049
405 0.251108
410 0.278744
415 0.338279
420 0.30328
425 0.341752
430 0.348697
435 0.36547
440 0.387598
445 0.465132
450 0.651916
455 0.951972
460 30.4092
465 465.4
470 628.189
475 142.304
480 17.7907
485 3.46314
490 1.71207
495 1.44975
500 1.55608
505 1.68277
510 1.60365
515 1.40948
520 1.51263
525 1.61813
530 1.56813
535 1.7869
540 2.49993
545 3.01933
550 2.31559
555 1.66146
560 1.66426
565 1.36046
570 1.17332
575 0.895061
580 0.649088
585 0.7211
590 0.602887
595 0.46246
600 0.649676
Ex : 478
200 0.299896
205 0.279438
210 0.303546
215 0.303474
220 0.269892
225 0.323329
230 0.280626
235 0.215743
240 0.253717
245 0.283254
250 0.321211
255 0.28306
260 0.29214
265 0.314658
270 0.287463
275 0.345341
280 0.292865
285 0.276235
290 0.34066
295 0.3268
300 0.272494
305 0.302961
310 0.303121
315 0.242352
320 0.331198
325 0.285098
330 0.380069
335 0.265731
340 0.230357
345 0.245333
350 0.299621
355 0.366509
360 0.290339
365 0.306965
370 0.299934
375 0.29976
380 0.389604
385 0.272761
390 0.292634
395 0.319936
400 0.333511
405 0.375815
410 0.285835
415 0.286206
420 0.386068
425 0.385312
430 0.319032
435 0.428004
440 0.4174
445 0.477105
450 0.612679
455 0.84214
460 1.22612
465 33.5867
470 480.558
475 662.437
480 156.057
485 19.4862
490 3.68974
495 1.61688
500 1.30764
505 1.48213
510 1.74622
515 1.6524
520 1.52018
525 1.56349
530 1.55457
535 1.48937
540 1.6649
545 2.01487
550 2.95681
555 2.64908
560 1.69847
565 1.39818
570 1.21808
575 0.922371
580 0.904469
585 0.681791
590 0.60449
595 0.493768
600 0.623359
Ex : 483
200 0.31489
205 0.307361
210 0.266768
215 0.236083
220 0.266372
225 0.254966
230 0.250292
235 0.295459
240 0.269723
245 0.267745
250 0.266532
255 0.281682
260 0.30868
265 0.268597
270 0.269188
275 0.310466
280 0.330859
285 0.283454
290 0.272598
295 0.224394
300 0.286864
305 0.318115
310 0.345211
315 0.25818
320 0.284917
325 0.276283
330 0.370667
335 0.326859
340 0.302796
345 0.306833
350 0.261469
355 0.261578
360 0.36286
365 0.308627
370 0.314225
375 0.279273
380 0.277583
385 0.326271
390 0.302851
395 0.297782
400 0.373782
405 0.30825
410 0.321345
415 0.33634
420 0.431876
425 0.392312
430 0.441851
435 0.430061
440 0.385797
445 0.393783
450 0.566166
455 0.639971
460 0.886808
465 1.19973
470 27.458
475 457.33
480 702.501
485 168.801
490 20.9821
495 3.71016
500 1.63871
505 1.28712
510 1.52411
515 1.67179
520 1.76696
525 1.70168
530 1.55643
535 1.48232
540 1.46431
545 1.32734
550 1.59389
555 2.47324
560 2.65112
565 1.77202
570 1.26399
575 1.0808
580 0.901182
585 0.683154
590 0.566778
595 0.528015
600 0.535531
Ex : 488
200 0.289171
205 0.26286
210 0.269652
215 0.302961
220 0.255171
225 0.314188
230 0.302157
235 0.294151
240 0.254746
245 0.44041
250 0.387857
255 0.335893
260 0.314439
265 0.304344
270 0.312465
275 0.32258
280 0.332711
285 0.340212
290 0.306069
295 0.267203
300 0.274036
305 0.26116
310 0.292878
315 0.261484
320 0.327527
325 0.297914
330 0.278336
335 0.317993
340 0.310402
345 0.289012
350 0.3201
355 0.319527
360 0.45086
365 0.313203
370 0.372484
375 0.345634
380 0.448118
385 0.40179
390 0.402755
395 0.385747
400 0.333827
405 0.331811
410 0.358453
415 0.275602
420 0.361899
425 0.359841
430 0.411389
435 0.423804
440 0.414012
445 0.499025
450 0.538356
455 0.552634
460 0.726342
465 0.906426
470 1.25429
475 32.7478
480 553.786
485 725.386
490 162.473
495 20.108
500 3.6316
505 1.81265
510 1.42537
515 1.73103
520 1.75694
525 1.8686
530 1.82432
535 1.66149
540 1.44074
545 1.45492
550 1.44243
555 1.44979
560 1.94466
565 2.6195
570 1.82161
575 1.30889
580 0.948188
585 0.925594
590 0.64491
595 0.521372
600 0.582511
Ex : 493
200 0.348008
205 0.328029
210 0.263287
215 0.357541
220 0.268327
225 0.399992
230 0.339976
235 0.302844
240 0.319144
245 0.298158
250 0.340277
255 0.253281
260 0.393351
265 0.287123
270 0.316895
275 0.280309
280 0.339153
285 0.289812
290 0.304796
295 0.301944
300 0.264705
305 0.333041
310 0.28124
315 0.349034
320 0.329974
325 0.405634
330 0.362153
335 0.385681
340 0.334007
345 0.364245
350 0.321964
355 0.363161
360 0.3798
365 0.349872
370 0.334959
375 0.3477
380 0.310495
385 0.252397
390 0.302821
395 0.398808
400 0.411214
405 0.406011
410 0.424381
415 0.348028
420 0.352872
425 0.304783
430 0.460157
435 0.444407
440 0.357358
445 0.427375
450 0.427899
455 0.573246
460 0.584633
465 0.713521
470 0.832816
475 1.08211
480 30.1043
485 496.745
490 719.829
495 162.744
500 20.1209
505 3.66232
510 1.85156
515 1.52527
520 1.61518
525 1.87032
530 1.9286
535 1.67124
540 1.67696
545 1.40462
550 1.60497
555 1.31927
560 1.32089
565 1.72779
570 1.97279
575 1.70689
580 1.03718
585 0.847812
590 0.715882
595 0.674338
600 0.73084
Ex : 498
200 0.330399
205 0.456112
210 0.37851
215 0.351565
220 0.26276
225 0.33387
230 0.447843
235 0.360812
240 0.357668
245 0.340826
250 0.344964
255 0.312643
260 0.282846
265 0.29299
270 0.40003
275 0.294497
280 0.373659
285 0.435337
290 0.378417
295 0.39351
300 0.363614
305 0.345583
310 0.393543
315 0.257782
320 0.312829
325 0.365899
330 0.343322
335 0.459462
340 0.335904
345 0.345234
350 0.394127
355 0.395409
360 0.32709
365 0.331051
370 0.323478
375 0.391386
380 0.290502
385 0.370907
390 0.374972
395 0.41215
400 0.500453
405 0.382686
410 0.338008
415 0.419389
420 0.452214
425 0.38477
430 0.502275
435 0.427593
440 0.458597
445 0.446212
450 0.504005
455 0.438303
460 0.614169
465 0.661449
470 0.653254
475 0.903349
480 1.20808
485 38.4746
490 546.253
495 716.24
500 163.73
505 20.3756
510 3.93117
515 2.06141
520 1.64659
525 1.65562
530 1.85278
535 1.86218
540 1.7416
545 1.68
550 1.44081
555 1.27207
560 1.24631
565 1.3368
570 1.1941
575 1.60913
580 1.58603
585 1.08193
590 0.771756
595 0.721919
600 0.577957
Ex : 503
200 0.371176
205 0.350951
210 0.359499
215 0.39933
220 0.431793
225 0.396571
230 0.333599
235 0.362618
240 0.375156
245 0.418429
250 0.405979
255 0.372351
260 0.369046
265 0.373328
270 0.351598
275 0.363553
280 0.337741
285 0.384281
290 0.372722
295 0.273724
300 0.404803
305 0.334835
310 0.359328
315 0.369696
320 0.398941
325 0.338862
330 0.415472
335 0.356259
340 0.412265
345 0.402979
350 0.382601
355 0.378508
360 0.342667
365 0.317372
370 0.359258
375 0.306314
380 0.37722
385 0.480687
390 0.426263
395 0.423451
400 0.435701
405 0.418599
410 0.340354
415 0.458591
420 0.400592
425 0.392422
430 0.399017
435 0.454285
440 0.464957
445 0.556917
450 0.46856
455 0.557531
460 0.48237
465 0.585676
470 0.667328
475 0.628735
480 0.971633
485 1.30567
490 33.973
495 586.023
500 759.183
505 168.495
510 20.896
515 3.9517
520 2.0791
525 1.68362
530 1.61694
535 1.81161
540 1.79484
545 1.58492
550 1.25462
555 1.32209
560 1.1107
565 1.17455
570 1.1447
575 0.945033
580 1.2129
585 1.38743
590 0.923496
595 0.716684
600 2.29917
Ex : 508
200 0.306656
205 0.295931
210 0.327857
215 0.313271
220 0.293219
225 0.339799
230 0.319529
235 0.345582
240 0.368356
245 0.452399
250 0.330942
255 0.435345
260 0.395836
265 0.314552
270 0.37609
275 0.362306
280 0.357092
285 0.353829
290 0.409741
295 0.413879
300 0.347117
305 0.414818
310 0.327234
315 0.350003
320 0.359543
325 0.515711
330 0.492882
335 0.367768
340 0.440829
345 0.373189
350 0.378007
355 0.446157
360 0.384721
365 0.413544
370 0.300395
375 0.439791
380 0.322629
385 0.419273
390 0.449994
395 0.320159
400 0.419588
405 0.41092
410 0.342405
415 0.382565
420 0.419225
425 0.355336
430 0.499038
435 0.44893
440 0.421378
445 0.449004
450 0.444768
455 0.528519
460 0.528248
465 0.582163
470 0.573197
475 0.680925
480 0.762403
485 0.944859
490 1.37112
495 37.3314
500 534.042
505 727.178
510 171.505
515 21.3832
520 4.1152
525 1.99069
530 1.59303
535 1.53963
540 1.75416
545 1.71048
550 1.43818
555 1.18474
560 1.11944
565 1.1132
570 1.02292
575 0.977843
580 0.825242
585 0.980635
590 1.16753
595 1.06621
600 1.10311
Ex : 513
200 0.519429
205 0.355368
210 0.437082
215 0.372985
220 0.459072
225 0.365302
230 0.302841
235 0.504316
240 0.356458
245 0.370177
250 0.416376
255 0.403024
260 0.349244
265 0.452477
270 0.447404
275 0.39974
280 0.372217
285 0.3842
290 0.376835
295 0.429176
300 0.459802
305 0.372035
310 0.377269
315 0.457158
320 0.424783
325 0.353941
330 0.413177
335 0.381904
340 0.372838
345 0.509732
350 0.392601
355 0.489867
360 0.371601
365 0.385361
370 0.367594
375 0.343479
380 0.312582
385 0.465705
390 0.453018
395 0.431046
400 0.411337
405 0.349334
410 0.447478
415 0.507174
420 0.499853
425 0.400911
430 0.483828
435 0.531998
440 0.494629
445 0.607052
450 0.550319
455 0.460032
460 0.44354
465 0.457994
470 0.497892
475 0.490579
480 0.601265
485 0.789005
490 1.08244
495 1.38828
500 33.9474
505 535.154
510 760.055
515 181.569
520 22.5112
525 4.2696
530 2.13736
535 1.66879
540 1.46654
545 1.61444
550 1.65213
555 1.40595
560 1.29598
565 1.04928
570 1.03613
575 0.845151
580 0.738074
585 0.751451
590 0.714896
595 0.835384
600 0.852122
Ex : 518
200 0.370151
205 0.519844
210 0.38845
215 0.484431
220 0.378115
225 0.361333
230 0.324753
235 0.354856
240 0.327185
245 0.424318
250 0.354828
255 0.438866
260 0.363863
265 0.417143
270 0.376536
275 0.350048
280 0.32315
285 0.458301
290 0.367039
295 0.367985
300 0.396664
305 0.396139
310 0.487575
315 0.411244
320 0.437767
325 0.603735
330 0.422851
335 0.481205
340 0.332864
345 0.412265
350 0.387906
355 0.467272
360 0.275472
365 0.446969
370 0.46956
375 0.402926
380 0.499728
385 0.47313
390 0.404494
395 0.50536
400 0.395299
405 0.285468
410 0.458918
415 0.415116
420 0.407059
425 0.399278
430 0.446192
435 0.443827
440 0.538144
445 0.524892
450 0.489516
455 0.480193
460 0.589599
465 0.610133
470 0.522223
475 0.604104
480 0.483268
485 0.616506
490 0.806188
495 0.832119
500 1.19023
505 34.9554
510 519.24
515 778.981
520 193.194
525 23.9355
530 4.27179
535 2.10997
540 1.75338
545 1.29328
550 1.36604
555 1.54587
560 1.24773
565 1.21101
570 0.978037
575 0.852433
580 0.783616
585 0.717949
590 0.714988
595 0.594201
600 0.455332
Ex : 523
200 0.429995
205 0.412791
210 0.417612
215 0.478843
220 0.335251
225 0.423605
230 0.341543
235 0.522881
240 0.383808
245 0.474612
250 0.339855
255 0.363163
260 0.404616
265 0.409083
270 0.414144
275 0.361496
280 0.346145
285 0.427254
290 0.418935
295 0.314829
300 0.453038
305 0.404207
310 0.437926
315 0.424893
320 0.41747
325 0.565198
330 0.398036
335 0.383811
340 0.332372
345 0.394865
350 0.41204
355 0.558687
360 0.520026
365 0.516884
370 0.474867
375 0.534311
380 0.482334
385 0.372898
390 0.447608
395 0.506075
400 0.400235
405 0.462127
410 0.375092
415 0.460414
420 0.447803
425 0.430192
430 0.403459
435 0.511583
440 0.448679
445 0.501244
450 0.398485
455 0.517859
460 0.475679
465 0.470013
470 0.540801
475 0.552885
480 0.554808
485 0.642926
490 0.659482
495 0.702385
500 1.12748
505 1.36385
510 32.0142
515 512.892
520 747.552
525 186.545
530 22.8805
535 4.21013
540 1.88537
545 1.45573
550 1.27251
555 1.23517
560 1.3281
565 1.2616
570 1.03763
575 0.861009
580 0.707786
585 0.773493
590 0.763126
595 0.569294
600 2.03413
Ex : 528
200 0.343766
205 0.406745
210 0.341256
215 0.316884
220 0.415694
225 0.44874
230 0.396353
235 0.406555
240 0.384815
245 0.326794
250 0.422072
255 0.460199
260 0.40927
265 0.43799
270 0.42825
275 0.372877
280 0.444033
285 0.56218
290 0.501427
295 0.398342
300 0.39429
305 0.370309
310 0.477769
315 0.47794
320 0.485718
325 0.392517
330 0.464217
335 0.45225
340 0.576622
345 0.549248
350 0.475773
355 0.389653
360 0.50618
365 0.425546
370 0.447458
375 0.512528
380 0.508083
385 0.469404
390 0.483757
395 0.459603
400 0.466248
405 0.455481
410 0.459906
415 0.462275
420 0.496354
425 0.435846
430 0.481399
435 0.449134
440 0.50098
445 0.465285
450 0.494223
455 0.468755
460 0.482216
465 0.488806
470 0.511105
475 0.53632
480 0.56121
485 0.556264
490 0.62191
495 0.718105
500 0.752652
505 0.943143
510 1.32496
515 30.2472
520 503.179
525 753.694
530 185.816
535 22.8694
540 3.91756
545 1.81284
550 1.41043
555 1.19928
560 1.12681
565 1.36213
570 1.18361
575 0.820669
580 0.753647
585 0.634808
590 0.629902
595 0.562203
600 0.44098
Ex : 533
200 0.507157
205 0.510853
210 0.384757
215 0.423361
220 0.399305
225 0.438821
230 0.442641
235 0.374681
240 0.449056
245 0.408209
250 0.508551
255 0.491846
260 0.390958
265 0.351742
270 0.381089
275 0.38761
280 0.407521
285 0.45902
290 0.415054
295 0.371018
300 0.427853
305 0.415616
310 0.478921
315 0.394778
320 0.465133
325 0.286258
330 0.432753
335 0.387049
340 0.473745
345 0.487519
350 0.424395
355 0.422048
360 0.497262
365 0.510798
370 0.449493
375 0.609447
380 0.550156
385 0.501292
390 0.454397
395 0.511674
400 0.450155
405 0.455808
410 0.511687
415 0.498885
420 0.574048
425 0.408154
430 0.493322
435 0.46664
440 0.466429
445 0.494585
450 0.503937
455 0.436455
460 0.447195
465 0.509308
470 0.497526
475 0.685371
480 0.55903
485 0.579849
490 0.606216
495 0.680505
500 0.789671
505 0.908286
510 0.957883
515 1.39753
520 43.1696
525 487.927
530 739.419
535 188.258
540 23.0121
545 3.84708
550 1.47233
555 1.4003
560 1.21375
565 0.977893
570 1.14512
575 0.907071
580 0.834464
585 0.723203
590 0.731336
595 0.643374
600 0.821903
Ex : 538
200 0.442233
205 0.479707
210 0.486684
215 0.468605
220 0.435804
225 0.276413
230 0.453013
235 0.435297
240 0.469575
245 0.544608
250 0.464533
255 0.434083
260 0.417056
265 0.382939
270 0.446087
275 0.486551
280 0.557797
285 0.433838
290 0.448393
295 0.390139
300 0.472814
305 0.431937
310 0.3627
315 0.429693
320 0.517998
325 0.505559
330 0.366162
335 0.394975
340 0.396694
345 0.469959
350 0.508367
355 0.480309
360 0.443438
365 0.436682
370 0.451318
375 0.518961
380 0.470579
385 0.449782
390 0.442666
395 0.353525
400 0.393759
405 0.484534
410 0.468282
415 0.467271
420 0.499155
425 0.42831
430 0.472528
435 0.472368
440 0.498867
445 0.577828
450 0.534929
455 0.466256
460 0.563113
465 0.559371
470 0.585077
475 0.551981
480 0.443711
485 0.575004
490 0.571637
495 0.605175
500 0.580696
505 0.669529
510 0.812822
515 1.04433
520 1.35218
525 24.915
530 462.633
535 732.933
540 191.623
545 23.6404
550 4.04694
555 1.56148
560 1.10175
565 0.889297
570 0.879665
575 0.970557
580 0.748708
585 0.738623
590 0.710748
595 0.565815
600 0.0957576
Ex : 543
200 0.61665
205 0.572838
210 0.442985
215 0.410281
220 0.512663
225 0.478928
230 0.417722
235 0.384788
240 0.402032
245 0.371418
250 0.471866
255 0.495184
260 0.423596
265 0.397455
270 0.468087
275 0.48657
280 0.494801
285 0.467914
290 0.479823
295 0.515749
300 0.466001
305 0.519331
310 0.454867
315 0.398493
320 0.514354
325 0.395584
330 0.556471
335 0.582314
340 0.471391
345 0.549366
350 0.488018
355 0.402467
360 0.437123
365 0.40253
370 0.506961
375 0.555235
380 0.43151
385 0.505688
390 0.379345
395 0.593814
400 0.553698
405 0.479879
410 0.545971
415 0.542429
420 0.459894
425 0.508664
430 0.410303
435 0.572046
440 0.526296
445 0.577915
450 0.49352
455 0.636151
460 0.556279
465 0.548497
470 0.543776
475 0.539037
480 0.608918
485 0.73826
490 0.688952
495 0.512786
500 0.579529
505 0.647556
510 0.779797
515 0.841792
520 0.916992
525 1.26933
530 24.709
535 456.405
540 752.964
545 203.714
550 25.3414
555 4.00391
560 1.57447
565 1.22216
570 0.868058
575 0.750223
580 0.814739
585 0.911744
590 0.819231
595 0.660842
600 1.3883
Ex : 548
200 0.617328
205 0.478441
210 0.623047
215 0.596704
220 0.405865
225 0.407634
230 0.435185
235 0.68243
240 0.400539
245 0.526961
250 0.554354
255 0.380644
260 0.336277
265 0.486736
270 0.433047
275 0.649748
280 0.565507
285 0.572312
290 0.40749
295 0.451273
300 0.404266
305 0.465428
310 0.480869
315 0.589865
320 0.5677
325 0.477577
330 0.449709
335 0.463875
340 0.496288
345 0.436617
350 0.4898
355 0.47605
360 0.488727
365 0.373091
370 0.483966
375 0.385592
380 0.473369
385 0.384386
390 0.620866
395 0.523342
400 0.50418
405 0.49286
410 0.463662
415 0.452066
420 0.455245
425 0.478466
430 0.576778
435 0.525418
440 0.450857
445 0.585679
450 0.432896
455 0.504853
460 0.417259
465 0.684512
470 0.69402
475 0.561143
480 0.479314
485 0.671767
490 0.560711
495 0.575155
500 0.624571
505 0.590276
510 0.606055
515 0.635898
520 0.909289
525 0.98225
530 1.41302
535 25.6855
540 530.43
545 801.784
550 204.379
555 25.0213
560 3.88617
565 1.39921
570 0.971931
575 0.824621
580 0.767529
585 0.899585
590 0.741782
595 0.757315
600 0.60359
Ex : 553
200 0.452374
205 0.439977
210 0.478633
215 0.497568
220 0.456745
225 0.408543
230 0.526362
235 0.453189
240 0.630191
245 0.500301
250 0.399286
255 0.450555
260 0.461341
265 0.518634
270 0.498983
275 0.498648
280 0.409031
285 0.445605
290 0.54627
295 0.507113
300 0.519389
305 0.455001
310 0.522706
315 0.488987
320 0.61029
325 0.565497
330 0.493736
335 0.519103
340 0.520517
345 0.444616
350 0.493422
355 0.501934
360 0.404007
365 0.46971
370 0.415435
375 0.510073
380 0.566829
385 0.516064
390 0.600341
395 0.459802
400 0.44769
405 0.505116
410 0.481555
415 0.569932
420 0.452647
425 0.679363
430 0.522142
435 0.534825
440 0.485879
445 0.63851
450 0.615044
455 0.579653
460 0.560183
465 0.538265
470 0.590915
475 0.457537
480 0.612554
485 0.618035
490 0.568537
495 0.52738
500 0.603477
505 0.670792
510 0.570798
515 0.72414
520 0.739769
525 0.83508
530 0.91816
535 1.2406
540 22.7403
545 415.288
550 696.738
555 193.869
560 23.709
565 3.6643
570 1.3331
575 0.967845
580 0.946742
585 0.790754
590 0.676994
595 0.581563
600 0.361581
Ex : 558
200 0.41689
205 0.369274
210 0.432646
215 0.565832
220 0.57712
225 0.445415
230 0.407898
235 0.478636
240 0.531177
245 0.63993
250 0.559056
255 0.507707
260 0.624821
265 0.477768
270 0.628126
275 0.560039
280 0.535845
285 0.413702
290 0.506235
295 0.520725
300 0.428414
305 0.483544
310 0.414366
315 0.478756
320 0.506196
325 0.467843
330 0.547944
335 0.60593
340 0.533389
345 0.406095
350 0.453897
355 0.442319
360 0.609781
365 0.556258
370 0.597028
375 0.610328
380 0.48956
385 0.663828
390 0.509565
395 0.644629
400 0.493421
405 0.556139
410 0.683135
415 0.687501
420 0.694712
425 0.664608
430 0.534217
435 0.444366
440 0.481086
445 0.518914
450 0.569884
455 0.478893
460 0.718052
465 0.571186
470 0.478882
475 0.616499
480 0.560747
485 0.569748
490 0.562385
495 0.522573
500 0.551489
505 0.576892
510 0.508327
515 0.61549
520 0.840726
525 0.724122
530 0.916368
535 1.10092
540 1.28463
545 20.711
550 412.576
555 712.666
560 196.688
565 23.8923
570 3.7484
575 1.30085
580 0.906927
585 0.774072
590 0.684622
595 0.814304
600 0.252181
Ex : 563
200 0.487901
205 0.52226
210 0.54819
215 0.495369
220 0.431746
225 0.515485
230 0.5874
235 0.553913
240 0.467972
245 0.40567
250 0.540803
255 0.42337
260 0.436954
265 0.585979
270 0.4392
275 0.415675
280 0.481776
285 0.440276
290 0.465487
295 0.54563
300 0.55057
305 0.548447
310 0.502869
315 0.590999
320 0.519988
325 0.656967
330 0.546805
335 0.524166
340 0.489114
345 0.428613
350 0.483836
355 0.453938
360 0.574278
365 0.590692
370 0.617884
375 0.592164
380 0.4981
385 0.552424
390 0.549475
395 0.541959
400 0.489875
405 0.567411
410 0.544803
415 0.61163
420 0.658162
425 0.548055
430 0.537061
435 0.626048
440 0.617205
445 0.566329
450 0.568921
455 0.554085
460 0.761535
465 0.575836
470 0.684921
475 0.525572
480 0.730003
485 0.523035
490 0.486627
495 0.508445
500 0.481913
505 0.680524
510 0.55856
515 0.754126
520 0.661564
525 0.699039
530 0.892062
535 0.951132
540 1.0372
545 1.25652
550 20.6677
555 394.07
560 679.116
565 198.554
570 24.3205
575 3.90013
580 1.17895
585 0.807282
590 0.657409
595 0.69862
600 0.488988
Ex : 568
200 0.662217
205 0.485607
210 0.376751
215 0.513744
220 0.405697
225 0.579924
230 0.668167
235 0.527013
240 0.492315
245 0.455427
250 0.535936
255 0.449512
260 0.45039
265 0.429505
270 0.526737
275 0.531309
280 0.57259
285 0.519503
290 0.558672
295 0.38817
300 0.560106
305 0.560048
310 0.564754
315 0.508498
320 0.543979
325 0.532152
330 0.462371
335 0.47909
340 0.661663
345 0.487335
350 0.47167
355 0.472782
360 0.392013
365 0.554578
370 0.675094
375 0.504521
380 0.530488
385 0.526433
390 0.505328
395 0.555721
400 0.546499
405 0.622932
410 0.548549
415 0.546819
420 0.535493
425 0.555334
430 0.471465
435 0.557172
440 0.507936
445 0.512915
450 0.595108
455 0.519181
460 0.546072
465 0.519019
470 0.544152
475 0.576721
480 0.492241
485 0.469527
490 0.555411
495 0.580996
500 0.523195
505 0.764404
510 0.632377
515 0.565674
520 0.651052
525 0.670203
530 0.651171
535 0.76564
540 0.847355
545 1.00089
550 1.15004
555 14.9673
560 348.865
565 641.158
570 190.175
575 23.3639
580 3.70587
585 1.11466
590 0.830169
595 0.804792
600 0.68867
Ex : 573
200 0.553321
205 0.54026
210 0.454172
215 0.48989
220 0.474083
225 0.449327
230 0.490947
235 0.460003
240 0.579584
245 0.580684
250 0.606523
255 0.518865
260 0.501526
265 0.471316
270 0.626248
275 0.594056
280 0.490383
285 0.611214
290 0.610217
295 0.588587
300 0.633208
305 0.568034
310 0.546205
315 0.569582
320 0.711773
325 0.68219
330 0.596304
335 0.586475
340 0.504774
345 0.695123
350 0.529012
355 0.597509
360 0.558324
365 0.51091
370 0.471856
375 0.521712
380 0.458299
385 0.529244
390 0.620377
395 0.458272
400 0.629771
405 0.651619
410 0.637973
415 0.587404
420 0.595256
425 0.611974
430 0.505711
435 0.533027
440 0.755022
445 0.56995
450 0.54493
455 0.541741
460 0.673236
465 0.546278
470 0.560847
475 0.584809
480 0.686923
485 0.653509
490 0.547901
495 0.509335
500 0.554346
505 0.562759
510 0.771081
515 0.621711
520 0.651595
525 0.637169
530 0.839046
535 0.805838
540 0.744956
545 0.743295
550 0.905917
555 1.10499
560 15.4599
565 322.928
570 611.964
575 193.082
580 23.4513
585 3.53589
590 1.09942
595 0.664579
600 1.13378
Ex : 578
200 0.511924
205 0.527478
210 0.594986
215 0.672838
220 0.609413
225 0.515844
230 0.438016
235 0.534135
240 0.597063
245 0.493462
250 0.538589
255 0.659742
260 0.557247
265 0.62917
270 0.679783
275 0.46148
280 0.546003
285 0.371649
290 0.515787
295 0.601295
300 0.531014
305 0.46819
310 0.523335
315 0.537369
320 0.520741
325 0.506935
330 0.543805
335 0.466712
340 0.532334
345 0.480805
350 0.503901
355 0.656673
360 0.570911
365 0.579301
370 0.532421
375 0.489205
380 0.49733
385 0.480605
390 0.533871
395 0.555344
400 0.521994
405 0.654054
410 0.676722
415 0.615101
420 0.48234
425 0.578998
430 0.509396
435 0.529158
440 0.5332
445 0.589193
450 0.553789
455 0.597886
460 0.578519
465 0.653482
470 0.610413
475 0.508422
480 0.522265
485 0.668837
490 0.789811
495 0.657669
500 0.650439
505 0.629598
510 0.606794
515 0.600869
520 0.654505
525 0.583259
530 0.6681
535 0.674411
540 0.860547
545 0.805069
550 0.725301
555 0.828763
560 1.14295
565 12.0743
570 274.332
575 524.823
580 158.15
585 19.6221
590 2.96921
595 1.02236
600 0.384887
Ex : 583
200 0.558487
205 0.613549
210 0.525577
215 0.56278
220 0.738704
225 0.526012
230 0.505871
235 0.450301
240 0.649904
245 0.620201
250 0.531396
255 0.791444
260 0.530934
265 0.504758
270 0.568496
275 0.451861
280 0.499413
285 0.528605
290 0.597689
295 0.627132
300 0.632062
305 0.558133
310 0.613241
315 0.596185
320 0.570757
325 0.561706
330 0.736896
335 0.526958
340 0.506522
345 0.700266
350 0.644801
355 0.572051
360 0.625299
365 0.519176
370 0.678713
375 0.680639
380 0.620867
385 0.573182
390 0.623644
395 0.634378
400 0.622327
405 0.566424
410 0.483706
415 0.650945
420 0.587002
425 0.604305
430 0.59675
435 0.651268
440 0.726737
445 0.608996
450 0.514222
455 0.522923
460 0.645566
465 0.701273
470 0.562154
475 0.470503
480 0.532947
485 0.632922
490 0.696432
495 0.67297
500 0.512826
505 0.655852
510 0.478948
515 0.643376
520 0.657735
525 0.584743
530 0.654012
535 0.945386
540 0.658634
545 0.748025
550 0.827586
555 0.716397
560 0.910387
565 1.19631
570 10.8944
575 313.626
580 531.709
585 142.128
590 17.4542
595 2.75582
600 1.91292
Ex : 588
200 0.622867
205 0.644406
210 0.480258
215 0.599121
220 0.633503
225 0.600016
230 0.779814
235 0.554994
240 0.569049
245 0.606562
250 0.51349
255 0.694625
260 0.612296
265 0.498304
270 0.570857
275 0.540012
280 0.693018
285 0.537015
290 0.627688
295 0.598642
300 0.567946
305 0.411176
310 0.407326
315 0.565225
320 0.610281
325 0.540468
330 0.538901
335 0.564992
340 0.682351
345 0.56855
350 0.450109
355 0.690618
360 0.613467
365 0.451236
370 0.524365
375 0.488567
380 0.597223
385 0.541148
390 0.673102
395 0.597084
400 0.649597
405 0.622775
410 0.748485
415 0.585432
420 0.750647
425 0.720893
430 0.679073
435 0.666607
440 0.764673
445 0.494044
450 0.465277
455 0.507942
460 0.588677
465 0.706193
470 0.592015
475 0.600384
480 0.586693
485 0.693021
490 0.619779
495 0.637603
500 0.574178
505 0.756119
510 0.703382
515 0.696302
520 0.67942
525 0.67339
530 0.640437
535 0.808989
540 0.695074
545 0.737386
550 0.716091
555 0.702969
560 0.831015
565 0.912692
570 1.04392
575 9.62432
580 207.065
585 396.892
590 120.215
595 14.9096
600 1.82634
Ex : 593
200 0.749452
205 0.559865
210 0.875931
215 0.625443
220 0.664887
225 0.598623
230 0.630565
235 0.60817
240 0.632607
245 0.671652
250 0.602398
255 0.627604
260 0.585147
265 0.644392
270 0.458425
275 0.535648
280 0.454724
285 0.499918
290 0.489533
295 0.438516
300 0.508491
305 0.529015
310 0.564878
315 0.624615
320 0.725215
325 0.568934
330 0.680092
335 0.525726
340 0.67788
345 0.454017
350 0.529181
355 0.62389
360 0.688442
365 0.507459
370 0.557698
375 0.551668
380 0.624547
385 0.480746
390 0.500119
395 0.647419
400 0.65548
405 0.698534
410 0.679799
415 0.614139
420 0.754108
425 0.712333
430 0.717222
435 0.634407
440 0.581628
445 0.530703
450 0.582889
455 0.658022
460 0.521812
465 0.621891
470 0.766385
475 0.672394
480 0.69526
485 0.718288
490 0.687278
495 0.54995
500 0.530543
505 0.576405
510 0.501556
515 0.581025
520 0.539865
525 0.580028
530 0.567341
535 0.806097
540 0.72839
545 0.804921
550 0.840305
555 0.639017
560 0.807341
565 0.731337
570 0.787837
575 0.952983
580 8.5665
585 185.337
590 324.67
595 95.587
600 12.9149
Ex : 598
200 0.478741
205 0.737871
210 0.661918
215 0.677763
220 0.622799
225 0.615927
230 0.56898
235 0.526378
240 0.539318
245 0.553291
250 0.657497
255 0.694288
260 0.688144
265 0.56821
270 0.559798
275 0.588612
280 0.654854
285 0.486373
290 0.591492
295 0.587318
300 0.66416
305 0.530596
310 0.507301
315 0.57885
320 0.65911
325 0.539509
330 0.606808
335 0.606326
340 0.730799
345 0.606296
350 0.711637
355 0.535147
360 0.597951
365 0.617059
370 0.631058
375 0.792003
380 0.599338
385 0.420889
390 0.718662
395 0.681327
400 0.690423
405 0.765258
410 0.762723
415 0.617694
420 0.580836
425 0.660513
430 0.71286
435 0.578826
440 0.75101
445 0.61964
450 0.667405
455 0.532324
460 0.657576
465 0.700374
470 0.737529
475 0.596036
480 0.504296
485 0.602916
490 0.671026
495 0.707116
500 0.536245
505 0.525198
510 0.645453
515 0.728446
520 0.774293
525 0.632459
530 0.662019
535 0.666449
540 0.629927
545 0.629767
550 0.666796
555 0.836096
560 0.737698
565 0.902154
570 0.840013
575 0.875591
580 0.961704
585 8.03801
590 169.488
595 315.304
600 208.605
Ex : 603
200 0.662183
205 0.579438
210 0.745439
215 0.821411
220 0.630809
225 0.587828
230 0.545698
235 0.746086
240 0.667398
245 0.602543
250 0.608774
255 0.767159
260 0.625777
265 0.505717
270 0.566436
275 0.75778
280 0.571037
285 0.566041
290 0.488148
295 0.692809
300 0.591543
305 0.544233
310 0.58688
315 0.690122
320 0.653394
325 0.725992
330 0.726769
335 0.671115
340 0.739705
345 0.666454
350 0.641569
355 0.607675
360 0.574332
365 0.603276
370 0.727527
375 0.64221
380 0.67467
385 0.659937
390 0.63292
395 0.651789
400 0.804043
405 0.699863
410 0.63188
415 0.800597
420 0.531662
425 0.713514
430 0.669974
435 0.694123
440 0.549919
445 0.604865
450 0.607913
455 0.713708
460 0.671177
465 0.705568
470 0.642035
475 0.865487
480 0.69894
485 0.780604
490 0.732631
495 0.706183
500 0.628441
505 0.683712
510 0.764092
515 0.74543
520 0.638508
525 0.694448
530 0.66682
535 0.661932
540 0.794864
545 0.696051
550 0.689752
555 0.694947
560 0.701298
565 0.680344
570 0.790487
575 0.688142
580 0.79691
585 1.15234
590 7.64262
595 155.673
600 299.206
