File format V 1.0
ven. 13. janv. 18:29:13 2017
Operator : 
Comments : 

=============================================
SpectroFluorometer parameters
Mode : 3D measurement
Data : Fluorescence
Phospho. : Ordinary
Spectrum : Fluorescence

Scan speed : 2400 nm/mn
Response : 100 ms
PM Voltage : 700 V
Shutter : On

Lambda Ex. Start : 203
Lambda Ex. End : 603
Lambda Ex. Step : 5
Ex. Slit : 5 nm

Lambda Em. Start : 200
Lambda Em. End : 600
Lambda Em. Step : 5
Em. Slit : 5 nm

Repetition : 1
Decal lambda em : 10
=============================================
DATA
Ex : 203
200 5.30172
205 8.76266
210 6.70182
215 5.66918
220 6.75286
225 4.74094
230 5.76852
235 4.52775
240 4.29898
245 7.92255
250 5.7629
255 3.96961
260 6.5761
265 4.26092
270 7.67928
275 6.79199
280 4.8199
285 4.63308
290 6.45422
295 6.53544
300 5.20931
305 7.66965
310 4.34784
315 7.16843
320 7.12551
325 7.91501
330 4.39153
335 5.01056
340 5.96609
345 4.50406
350 6.59925
355 7.1863
360 7.90308
365 6.24727
370 6.10131
375 4.06348
380 6.83804
385 5.81621
390 4.67129
395 5.43019
400 7.74591
405 7.20895
410 6.67094
415 6.35795
420 5.74385
425 4.74534
430 6.79075
435 5.17809
440 4.81244
445 9.84835
450 5.70377
455 8.22096
460 4.93609
465 6.38592
470 4.40723
475 5.06794
480 4.93284
485 6.59733
490 10.1752
495 8.19664
500 8.72135
505 5.17844
510 5.48802
515 6.42664
520 5.5473
525 6.67733
530 4.76829
535 5.09601
540 4.94337
545 7.30574
550 4.45752
555 4.26389
560 4.9423
565 4.46341
570 5.65977
575 7.29911
580 5.09931
585 4.19362
590 5.53427
595 4.03111
600 0.901827
Ex : 208
200 4.85148
205 4.77766
210 5.22301
215 7.79862
220 5.53519
225 6.43897
230 5.93419
235 6.4055
240 5.55564
245 8.10847
250 6.76509
255 9.36293
260 4.92144
265 5.83506
270 5.63017
275 6.47142
280 4.09074
285 3.57551
290 4.55962
295 4.12759
300 7.03263
305 6.38985
310 6.35972
315 4.21789
320 4.55889
325 7.34994
330 4.26817
335 5.91852
340 4.25542
345 4.64982
350 6.56931
355 7.84567
360 6.42824
365 6.34955
370 6.58044
375 4.60588
380 6.65513
385 6.20057
390 5.61137
395 6.0352
400 3.58867
405 5.69634
410 5.27752
415 12.1009
420 7.22176
425 4.32846
430 5.10253
435 6.89383
440 5.27226
445 4.72422
450 5.04621
455 4.40161
460 5.31648
465 5.82562
470 7.40771
475 5.56795
480 7.21197
485 5.51954
490 6.78913
495 5.84653
500 7.10825
505 6.12611
510 6.97799
515 7.81756
520 5.34359
525 4.17268
530 6.13669
535 7.27101
540 4.14182
545 8.20052
550 6.52441
555 5.88575
560 5.52204
565 6.83181
570 3.38588
575 4.36262
580 5.69059
585 5.11728
590 7.859
595 6.56686
600 8.46992
Ex : 213
200 6.45946
205 6.19535
210 6.91256
215 5.77311
220 5.91701
225 8.32691
230 7.20336
235 6.78736
240 6.0978
245 4.61252
250 4.35557
255 5.6971
260 7.44398
265 7.04624
270 5.60211
275 5.5138
280 8.27834
285 4.28715
290 4.45468
295 3.85093
300 5.2542
305 5.21213
310 4.77538
315 5.20244
320 6.44006
325 4.64307
330 6.64588
335 4.61147
340 8.61958
345 8.67084
350 5.40018
355 5.02928
360 4.96113
365 5.44745
370 3.05994
375 7.77292
380 7.8349
385 5.67792
390 7.4097
395 5.42869
400 5.57815
405 5.61315
410 5.18737
415 5.78444
420 5.14211
425 6.5803
430 6.15638
435 5.84141
440 4.31095
445 5.71361
450 5.94279
455 5.6886
460 7.01995
465 7.84764
470 7.72008
475 6.16741
480 5.73855
485 7.31643
490 8.02021
495 6.51332
500 4.0591
505 7.62139
510 6.93407
515 7.47096
520 5.81893
525 5.66588
530 7.56413
535 5.86866
540 5.39566
545 4.81402
550 5.09513
555 5.09288
560 6.80224
565 8.015
570 5.4313
575 5.48812
580 5.13689
585 7.23504
590 5.74945
595 4.88705
600 17.2168
Ex : 218
200 6.08173
205 5.35
210 6.69775
215 5.25868
220 4.57756
225 5.68534
230 5.41342
235 7.99262
240 5.22567
245 6.90034
250 4.20589
255 7.03904
260 5.83353
265 6.97327
270 4.66169
275 5.58872
280 7.38664
285 5.11046
290 4.69811
295 6.24982
300 4.77566
305 4.35162
310 5.22561
315 4.05547
320 4.66881
325 7.0509
330 4.85299
335 5.33611
340 6.76287
345 5.04941
350 4.56882
355 6.56743
360 4.87625
365 4.99397
370 5.75075
375 7.09724
380 5.85186
385 5.41432
390 4.60605
395 6.21564
400 5.79388
405 4.61406
410 5.23179
415 5.56795
420 4.4378
425 5.28448
430 6.14538
435 4.56779
440 6.57043
445 6.23134
450 7.85591
455 5.97292
460 4.78377
465 3.95626
470 7.1056
475 6.30874
480 7.22922
485 4.59501
490 7.88331
495 6.36131
500 5.44211
505 5.11447
510 5.71309
515 5.42511
520 6.51694
525 10.0619
530 4.86793
535 7.46716
540 6.88014
545 5.23952
550 4.75109
555 6.83605
560 6.09111
565 6.95169
570 6.30707
575 6.67594
580 5.30807
585 5.40886
590 7.53614
595 4.8373
600 0.550466
Ex : 223
200 4.92766
205 5.1041
210 6.70666
215 5.1501
220 3.9245
225 5.69374
230 5.90771
235 5.03009
240 3.59104
245 6.66873
250 9.02167
255 4.50393
260 9.15302
265 5.03158
270 5.15452
275 3.95723
280 5.02297
285 5.33246
290 4.16691
295 6.64381
300 3.91338
305 10.0597
310 5.03938
315 7.75762
320 5.69181
325 6.92921
330 5.61936
335 6.91137
340 8.52846
345 6.30301
350 5.28974
355 7.90562
360 5.53604
365 4.62178
370 5.21316
375 12.3826
380 7.77739
385 6.11982
390 7.3045
395 5.59756
400 5.30707
405 6.77876
410 5.13135
415 4.54959
420 4.72719
425 8.74905
430 6.77205
435 5.7439
440 6.80516
445 7.90165
450 5.74349
455 6.18143
460 8.20936
465 5.893
470 6.35707
475 4.808
480 3.58673
485 4.35691
490 6.40654
495 7.25833
500 4.34461
505 5.35509
510 6.47811
515 4.84934
520 4.31029
525 5.34657
530 6.0493
535 7.69456
540 8.89345
545 5.47899
550 5.58133
555 6.03148
560 5.32541
565 7.64686
570 5.59528
575 6.8279
580 5.74052
585 5.22248
590 4.89754
595 4.60205
600 5.66368
Ex : 228
200 6.66239
205 6.81458
210 4.48909
215 5.00386
220 3.84649
225 4.46177
230 6.24085
235 4.51931
240 6.32469
245 5.62505
250 8.17474
255 6.92132
260 4.82995
265 5.85905
270 4.1902
275 4.39353
280 7.03371
285 6.06224
290 4.41962
295 5.81225
300 4.44453
305 7.27717
310 6.50787
315 4.60625
320 6.48056
325 8.76844
330 5.05796
335 5.92248
340 6.01078
345 5.12308
350 4.93605
355 6.49968
360 4.5442
365 7.29579
370 5.27296
375 5.0389
380 5.89063
385 8.13371
390 4.70158
395 4.86971
400 5.04992
405 5.35246
410 6.46788
415 6.20772
420 5.4392
425 6.33457
430 5.18897
435 4.94094
440 6.03088
445 6.03661
450 6.81014
455 7.10666
460 5.798
465 8.55254
470 7.34034
475 4.68072
480 6.55724
485 6.96117
490 5.11341
495 6.31831
500 7.03274
505 7.77124
510 7.70129
515 4.46358
520 3.34302
525 5.56566
530 4.01248
535 6.4618
540 6.21435
545 8.22612
550 4.88788
555 6.18169
560 6.98273
565 4.67037
570 5.30246
575 7.52537
580 8.42522
585 5.66942
590 3.53983
595 5.14122
600 0.585051
Ex : 233
200 4.5261
205 3.74444
210 4.26512
215 5.70697
220 3.75481
225 4.28173
230 4.7184
235 5.6843
240 6.80364
245 4.34386
250 7.13352
255 6.30182
260 5.42393
265 5.03726
270 4.12162
275 4.26452
280 4.65082
285 4.44605
290 6.34042
295 5.5121
300 3.07588
305 4.1878
310 5.49713
315 6.07967
320 5.18933
325 7.02907
330 7.14108
335 6.12985
340 6.02595
345 6.71471
350 5.40867
355 4.55782
360 6.11663
365 6.19271
370 4.7201
375 5.2722
380 4.9054
385 4.74427
390 5.24301
395 5.97057
400 5.44875
405 5.03298
410 4.71204
415 7.18787
420 5.4451
425 6.78391
430 7.08813
435 4.48417
440 4.07654
445 6.49083
450 6.58758
455 5.25991
460 4.56979
465 5.84445
470 6.52823
475 5.74733
480 7.2264
485 6.01921
490 5.96174
495 4.7733
500 4.84662
505 5.48282
510 5.89878
515 6.59239
520 7.27454
525 4.48933
530 3.86206
535 5.07668
540 4.97955
545 10.7392
550 5.20645
555 6.3112
560 5.26174
565 5.43228
570 4.55407
575 4.54536
580 5.62595
585 4.75339
590 3.89775
595 3.20512
600 3.46644
Ex : 238
200 4.57993
205 6.46515
210 8.00586
215 4.37467
220 2.94528
225 5.95442
230 3.76252
235 5.25451
240 4.54647
245 4.34168
250 2.93694
255 3.5438
260 3.96513
265 3.30983
270 4.884
275 4.21137
280 4.13066
285 4.64686
290 4.95656
295 7.13179
300 4.74327
305 4.64328
310 3.17009
315 5.84645
320 6.20658
325 4.65888
330 6.56721
335 5.5215
340 4.58865
345 6.34385
350 4.47384
355 4.21379
360 3.43135
365 6.29081
370 4.46747
375 3.87527
380 5.49795
385 4.61687
390 4.30081
395 3.28864
400 5.89496
405 4.68828
410 7.348
415 4.74703
420 5.38904
425 4.20658
430 4.58808
435 5.21019
440 5.8999
445 4.69037
450 5.90368
455 5.89271
460 4.63499
465 4.1913
470 3.33397
475 3.89852
480 6.43638
485 4.30075
490 5.12289
495 3.78333
500 9.29595
505 5.73356
510 6.42458
515 6.69098
520 5.24906
525 4.24137
530 4.36651
535 4.5024
540 5.3442
545 6.12425
550 4.72695
555 3.78502
560 5.14054
565 3.83895
570 3.5224
575 4.66861
580 3.69481
585 4.03993
590 6.27645
595 5.02441
600 15.4157
Ex : 243
200 2.60883
205 3.0659
210 4.14934
215 3.92922
220 3.91931
225 3.70628
230 3.4237
235 2.5353
240 4.09023
245 5.31281
250 6.53144
255 5.17127
260 5.23459
265 3.22485
270 2.36385
275 2.45201
280 5.60486
285 4.17061
290 4.04847
295 3.25039
300 3.77431
305 3.88779
310 4.15304
315 5.19808
320 6.06933
325 5.10971
330 4.81488
335 5.02527
340 4.30821
345 3.95451
350 4.06692
355 3.63959
360 5.39406
365 3.28937
370 3.55012
375 4.29809
380 3.99602
385 3.7434
390 4.5399
395 4.69568
400 4.15204
405 4.64028
410 3.82953
415 3.39456
420 5.31347
425 5.37607
430 4.21395
435 5.20214
440 2.81174
445 2.651
450 4.91167
455 5.47796
460 5.57717
465 4.1102
470 3.06091
475 4.51817
480 3.94925
485 5.83997
490 5.52382
495 3.79525
500 3.03351
505 4.2747
510 5.57198
515 3.24604
520 4.78893
525 3.95434
530 4.08857
535 6.53097
540 5.28575
545 4.84346
550 3.4853
555 3.99233
560 2.77546
565 3.03107
570 2.84241
575 4.24141
580 4.09924
585 4.12099
590 6.22201
595 5.91712
600 0.673345
Ex : 248
200 3.13314
205 2.61074
210 3.81651
215 3.10561
220 4.37086
225 3.03341
230 3.02633
235 2.93086
240 2.32115
245 2.41344
250 3.27194
255 2.87932
260 2.40454
265 3.80092
270 3.90897
275 2.37362
280 4.13557
285 4.82084
290 3.81216
295 2.86201
300 2.4596
305 3.3406
310 3.21237
315 4.22632
320 2.71164
325 4.18477
330 4.50742
335 3.93631
340 3.33003
345 4.45002
350 4.31758
355 5.28725
360 4.09125
365 3.26411
370 3.63381
375 4.1228
380 4.41037
385 5.20538
390 4.22207
395 3.04202
400 3.32252
405 3.83278
410 4.12608
415 4.62687
420 4.05351
425 3.2537
430 4.1134
435 3.46516
440 4.42163
445 3.13974
450 3.56978
455 3.14728
460 4.87581
465 4.02897
470 3.90629
475 3.27093
480 3.63964
485 5.23129
490 4.39474
495 4.4717
500 2.94213
505 3.45351
510 4.28021
515 4.38637
520 4.92766
525 3.60433
530 5.11405
535 5.09956
540 3.88932
545 3.26438
550 2.93245
555 3.69368
560 3.94742
565 3.89786
570 2.89925
575 3.1617
580 5.04793
585 2.23801
590 4.15196
595 2.09718
600 0.238652
Ex : 253
200 3.96569
205 3.22576
210 2.5295
215 1.55231
220 1.65365
225 2.10902
230 3.58569
235 3.15443
240 2.07824
245 2.87589
250 2.30596
255 2.29585
260 3.68591
265 2.45388
270 2.98831
275 2.83027
280 2.634
285 3.02735
290 4.71932
295 1.18936
300 3.14332
305 3.12525
310 3.1857
315 2.28405
320 1.97425
325 3.87323
330 4.97477
335 3.79568
340 2.43599
345 2.8914
350 4.67082
355 2.62183
360 3.08047
365 2.92936
370 2.25855
375 2.81788
380 3.48814
385 3.37987
390 4.89777
395 4.74367
400 3.20701
405 3.44797
410 2.18878
415 4.23044
420 3.84471
425 3.11996
430 4.74817
435 3.60547
440 4.23287
445 3.60946
450 3.94259
455 2.50679
460 3.17908
465 4.35303
470 3.25034
475 3.78619
480 6.38294
485 4.24265
490 3.2044
495 2.82608
500 3.27418
505 2.86086
510 3.20408
515 2.91679
520 3.30281
525 1.98353
530 2.75044
535 3.16613
540 3.17184
545 2.99667
550 3.3138
555 2.49068
560 4.22379
565 3.85166
570 4.56504
575 2.47678
580 2.95767
585 2.75216
590 4.61853
595 1.74197
600 0.19823
Ex : 258
200 2.47379
205 1.96164
210 2.86074
215 2.21611
220 1.54621
225 2.80461
230 2.41479
235 3.1827
240 2.23926
245 2.09635
250 3.06451
255 2.77161
260 2.28008
265 1.81295
270 3.56172
275 3.33564
280 2.3203
285 1.86549
290 2.2027
295 2.12975
300 3.23865
305 3.23035
310 2.4098
315 2.57584
320 2.92354
325 2.65698
330 2.44208
335 2.56554
340 2.92061
345 3.26297
350 2.81232
355 2.90392
360 3.43831
365 3.95184
370 4.00328
375 3.31365
380 2.67238
385 2.70976
390 2.3237
395 2.59071
400 2.89924
405 2.47346
410 2.75179
415 2.37644
420 2.81436
425 2.59857
430 2.90412
435 3.44445
440 3.96447
445 3.26097
450 3.49835
455 3.75569
460 3.3402
465 2.39547
470 2.15092
475 3.28936
480 2.47688
485 3.93831
490 2.40333
495 1.93193
500 2.887
505 3.92764
510 3.41259
515 2.51658
520 3.04738
525 1.59416
530 2.44653
535 2.42741
540 3.56561
545 1.83691
550 3.67234
555 2.03392
560 3.28886
565 2.38115
570 3.13381
575 3.08605
580 2.82801
585 2.84557
590 1.86283
595 2.17237
600 3.87259
Ex : 263
200 1.36732
205 1.50417
210 1.63569
215 1.71808
220 1.31894
225 2.23225
230 1.56455
235 1.89336
240 2.43588
245 1.83774
250 1.53565
255 1.29782
260 2.32168
265 1.98382
270 2.71021
275 1.96987
280 1.47056
285 1.60864
290 2.73878
295 1.8379
300 1.99105
305 3.12511
310 2.0729
315 1.89283
320 1.47727
325 1.85399
330 1.5775
335 1.83753
340 2.16874
345 2.40985
350 2.51779
355 1.8213
360 1.65518
365 1.25872
370 2.33669
375 1.51045
380 1.86998
385 1.81654
390 2.05528
395 2.5213
400 2.17283
405 3.00097
410 3.09054
415 2.41723
420 2.70214
425 2.43049
430 3.20147
435 3.90081
440 2.52349
445 3.24717
450 2.48109
455 2.45983
460 4.0067
465 2.55302
470 3.3427
475 2.97707
480 2.83029
485 2.48381
490 1.80912
495 2.64703
500 2.43554
505 1.98222
510 2.30318
515 2.45295
520 3.23544
525 3.6111
530 1.69192
535 1.71831
540 1.21263
545 1.92961
550 1.9811
555 1.30903
560 2.0747
565 1.07977
570 1.76687
575 2.20203
580 1.82027
585 2.62342
590 2.15238
595 1.54175
600 2.89736
Ex : 268
200 0.811206
205 1.08098
210 0.961921
215 1.04838
220 0.918194
225 1.70763
230 1.60261
235 1.09362
240 1.50838
245 0.792535
250 1.25715
255 1.5417
260 1.36176
265 0.988455
270 1.70896
275 1.85854
280 1.15576
285 1.71604
290 1.15874
295 1.21716
300 1.20874
305 1.79231
310 1.68096
315 1.71383
320 1.43724
325 1.19908
330 1.88116
335 2.27863
340 1.84612
345 1.54215
350 2.07943
355 1.60691
360 1.8725
365 1.62245
370 1.34078
375 1.94038
380 1.61484
385 2.36107
390 2.73794
395 2.29762
400 1.90354
405 1.84945
410 2.01233
415 2.14602
420 2.53459
425 2.52063
430 2.21956
435 2.13644
440 2.61399
445 2.23249
450 1.68644
455 1.77804
460 1.50305
465 1.70465
470 1.43858
475 2.49218
480 2.15497
485 1.77129
490 1.89041
495 1.52493
500 2.39067
505 2.42473
510 1.37956
515 1.51441
520 2.03575
525 1.80762
530 2.08334
535 2.01607
540 1.76821
545 1.86381
550 1.10159
555 1.52595
560 1.87542
565 1.50864
570 2.02119
575 2.27755
580 2.56156
585 1.64102
590 1.84187
595 1.47828
600 0.716825
Ex : 273
200 1.12401
205 1.21568
210 1.1321
215 1.18687
220 0.884511
225 1.40173
230 1.203
235 1.21173
240 1.39298
245 1.7008
250 1.19164
255 0.714295
260 1.55415
265 1.25175
270 1.12048
275 1.28831
280 1.60334
285 1.00279
290 1.15358
295 1.16107
300 1.03158
305 1.30759
310 0.702565
315 1.65633
320 1.81422
325 1.13346
330 1.4016
335 1.45151
340 1.43246
345 1.35059
350 1.83659
355 1.79009
360 1.14378
365 1.61855
370 1.54303
375 1.97311
380 1.5942
385 1.86332
390 1.82187
395 1.18737
400 1.97237
405 1.64327
410 1.93618
415 2.69454
420 1.97562
425 1.63759
430 1.41604
435 1.08599
440 2.16559
445 1.52136
450 1.71692
455 1.5046
460 1.42831
465 1.82538
470 1.95056
475 2.22261
480 2.06429
485 1.5836
490 1.42143
495 1.32345
500 1.80313
505 1.63498
510 1.72642
515 2.21291
520 1.35264
525 1.6444
530 1.68367
535 1.36788
540 1.682
545 2.40243
550 1.21855
555 1.70429
560 1.49744
565 1.98556
570 1.33572
575 1.00731
580 1.04002
585 1.19928
590 1.19797
595 1.07702
600 0.122561
Ex : 278
200 0.898515
205 0.849889
210 1.16619
215 1.05751
220 1.48672
225 0.821086
230 1.45751
235 0.957476
240 1.03166
245 1.04053
250 1.24123
255 0.800108
260 0.582483
265 0.678291
270 0.93942
275 1.41781
280 1.15069
285 0.831237
290 0.868543
295 0.675968
300 0.981482
305 1.08673
310 1.2513
315 0.799406
320 1.43073
325 0.852574
330 0.742809
335 1.07354
340 1.38047
345 1.02637
350 1.29062
355 1.7322
360 1.17414
365 0.971438
370 1.22124
375 1.63648
380 1.2927
385 1.8053
390 1.61264
395 1.40624
400 1.1205
405 2.04162
410 1.7489
415 1.71802
420 1.5139
425 1.37456
430 1.56277
435 1.50012
440 1.52582
445 1.40272
450 1.92911
455 1.82582
460 1.52088
465 1.685
470 1.7344
475 1.60943
480 1.40186
485 1.12405
490 1.6232
495 1.28046
500 1.53737
505 1.43302
510 1.19066
515 1.52716
520 1.104
525 1.10473
530 1.01044
535 0.952117
540 1.03477
545 1.19968
550 1.95039
555 1.82165
560 1.45338
565 1.38291
570 0.970875
575 1.22024
580 1.11495
585 0.800185
590 1.39292
595 1.002
600 0.114023
Ex : 283
200 0.812585
205 0.854347
210 0.697495
215 0.831913
220 0.926056
225 1.08404
230 0.792922
235 0.85088
240 1.03111
245 0.852723
250 0.871094
255 0.612646
260 0.637209
265 0.788734
270 1.07246
275 0.85275
280 1.16391
285 0.886548
290 0.976749
295 0.86181
300 0.76762
305 1.16637
310 0.789941
315 0.840515
320 0.69382
325 0.89906
330 1.05768
335 0.830773
340 1.02678
345 0.879391
350 1.19918
355 1.08649
360 1.17902
365 0.963766
370 1.14134
375 1.3466
380 1.58662
385 1.68487
390 1.50791
395 2.04923
400 1.527
405 1.83949
410 1.62202
415 1.22362
420 1.75268
425 1.36024
430 1.33102
435 1.63624
440 1.10025
445 1.03415
450 1.27553
455 1.43533
460 1.52865
465 1.36661
470 0.959935
475 1.06731
480 1.51851
485 1.13366
490 0.946527
495 1.01759
500 1.19671
505 1.21797
510 0.880567
515 0.97975
520 0.905662
525 1.18359
530 0.95347
535 0.801003
540 0.999875
545 1.40303
550 0.847294
555 0.966666
560 1.36058
565 1.65026
570 1.0496
575 0.951175
580 1.03885
585 0.845544
590 0.693483
595 1.089
600 0.123925
Ex : 288
200 0.644647
205 0.769882
210 0.793186
215 0.738381
220 0.845375
225 0.674248
230 0.662583
235 0.65087
240 0.766461
245 0.729199
250 0.659448
255 0.644491
260 0.890827
265 0.625548
270 0.670452
275 0.53392
280 0.956209
285 1.02526
290 0.71224
295 0.639466
300 0.598731
305 1.05806
310 0.601588
315 0.535573
320 0.861175
325 0.957565
330 0.891549
335 0.87746
340 1.04994
345 0.774455
350 1.06534
355 0.7855
360 0.979154
365 1.0425
370 0.997257
375 0.705311
380 1.1852
385 1.37095
390 1.42993
395 1.00668
400 1.45458
405 0.968184
410 1.00096
415 1.15638
420 1.44664
425 1.16383
430 1.28614
435 1.10769
440 1.29798
445 1.36662
450 1.48457
455 1.24844
460 1.30111
465 1.28106
470 1.08281
475 1.18666
480 0.959402
485 0.806966
490 0.760333
495 1.07789
500 1.046
505 1.09319
510 1.10992
515 1.16509
520 0.807932
525 0.648201
530 0.94549
535 0.867124
540 0.988956
545 1.01812
550 0.590005
555 0.780265
560 0.917886
565 1.03776
570 1.20684
575 1.22076
580 0.842997
585 0.799242
590 0.668666
595 0.765361
600 1.7962
Ex : 293
200 0.546563
205 0.563266
210 0.370641
215 0.726472
220 0.751569
225 0.519744
230 0.695732
235 0.52402
240 0.776742
245 0.648489
250 0.568808
255 0.529809
260 0.46632
265 0.610932
270 0.589335
275 0.860075
280 0.506519
285 1.04265
290 0.696876
295 0.682675
300 0.737994
305 0.660208
310 0.740547
315 0.395759
320 0.496465
325 0.449349
330 0.991739
335 0.961154
340 0.922608
345 0.664053
350 0.702202
355 0.57613
360 0.972133
365 0.808966
370 1.31299
375 0.874371
380 0.753207
385 0.865729
390 0.918783
395 1.16484
400 1.27882
405 1.12932
410 1.32605
415 1.03013
420 0.964802
425 1.08574
430 1.50691
435 1.40998
440 1.12083
445 1.15086
450 1.14723
455 1.5336
460 1.28194
465 1.15812
470 1.05117
475 0.89119
480 0.766501
485 0.779517
490 0.98461
495 0.877163
500 0.600206
505 0.641444
510 0.536237
515 0.624849
520 0.874912
525 0.72576
530 0.543149
535 0.671429
540 0.764553
545 0.657423
550 0.48965
555 0.566534
560 0.492127
565 0.950877
570 0.585022
575 1.34582
580 1.36761
585 0.913183
590 0.795173
595 0.756241
600 0.140315
Ex : 298
200 0.556025
205 0.576559
210 0.529524
215 0.695864
220 0.465666
225 0.666692
230 0.455941
235 0.511144
240 0.373665
245 0.761188
250 0.499904
255 0.629599
260 0.391496
265 0.493596
270 0.533385
275 0.62746
280 0.437835
285 0.476878
290 0.746495
295 0.658196
300 0.567068
305 0.480944
310 0.485702
315 0.493637
320 0.544305
325 0.46407
330 0.751364
335 0.65742
340 0.663848
345 0.826241
350 0.529531
355 0.654599
360 0.733453
365 0.587474
370 0.750721
375 1.07691
380 0.976437
385 1.0358
390 1.00331
395 1.19643
400 1.17087
405 0.937466
410 1.1472
415 0.949421
420 1.10993
425 1.03423
430 1.21943
435 1.21706
440 1.82706
445 1.21748
450 0.77106
455 0.691076
460 0.604401
465 0.893215
470 0.857712
475 0.821721
480 0.776664
485 0.702578
490 0.640016
495 0.761005
500 0.597287
505 0.580855
510 0.85037
515 0.621141
520 0.697216
525 0.604722
530 0.595841
535 0.844426
540 0.612856
545 0.79207
550 0.553868
555 0.663002
560 0.598178
565 0.815535
570 0.937974
575 0.410827
580 0.576945
585 0.912547
590 0.957788
595 0.941614
600 0.107152
Ex : 303
200 0.67157
205 0.542742
210 0.386427
215 0.539511
220 0.397689
225 0.442531
230 0.529361
235 0.523112
240 0.621333
245 0.480893
250 0.472243
255 0.820748
260 0.527498
265 0.624185
270 0.803183
275 0.652816
280 0.324421
285 0.357739
290 0.4283
295 0.550581
300 0.800492
305 0.458026
310 0.788005
315 0.411171
320 0.336276
325 0.404329
330 0.488948
335 0.76804
340 0.468292
345 0.655803
350 0.596118
355 0.624736
360 0.66762
365 0.710481
370 1.05774
375 0.892351
380 0.783343
385 0.850491
390 0.908971
395 0.989312
400 1.04339
405 1.1654
410 0.913707
415 1.19642
420 1.0003
425 0.838248
430 1.09632
435 1.17001
440 1.21511
445 1.00062
450 0.843856
455 0.959474
460 0.703642
465 0.817809
470 0.796279
475 0.759334
480 0.641693
485 0.679007
490 0.673027
495 0.748015
500 0.772307
505 0.689535
510 0.549541
515 0.64667
520 0.599381
525 0.751747
530 0.682283
535 0.645076
540 0.564381
545 0.668815
550 0.299798
555 0.514963
560 0.878621
565 0.83439
570 0.396293
575 0.360162
580 0.503655
585 0.561671
590 0.48625
595 1.10925
600 2.65824
Ex : 308
200 0.396882
205 0.326466
210 0.372126
215 0.482678
220 0.709694
225 0.398676
230 0.441319
235 0.303792
240 0.481013
245 0.309941
250 0.317456
255 0.526366
260 0.418911
265 0.388361
270 0.374445
275 0.614981
280 0.304386
285 0.350106
290 0.269868
295 0.350793
300 0.559408
305 0.674582
310 0.394263
315 0.320106
320 0.470812
325 0.548654
330 0.477016
335 0.545264
340 0.460636
345 0.754495
350 0.678109
355 0.54405
360 0.677718
365 0.777485
370 0.760787
375 1.02661
380 1.25627
385 0.796868
390 0.954974
395 1.15833
400 1.02765
405 0.971642
410 1.04167
415 0.97039
420 1.00361
425 0.990765
430 1.09078
435 1.53152
440 1.02261
445 1.03435
450 0.894483
455 0.801499
460 0.961436
465 0.956166
470 0.962696
475 0.619904
480 0.848595
485 0.669618
490 0.744266
495 0.65686
500 0.559214
505 0.572024
510 0.567674
515 0.416359
520 0.523315
525 0.360663
530 0.525516
535 0.533432
540 0.476056
545 0.645266
550 0.444012
555 0.387244
560 0.490363
565 0.451095
570 0.469923
575 0.53124
580 0.334636
585 0.420256
590 0.523764
595 0.405544
600 1.91436
Ex : 313
200 0.249002
205 0.431132
210 0.392728
215 0.376569
220 0.328356
225 0.275939
230 0.410871
235 0.460624
240 0.336865
245 0.37596
250 0.326
255 0.287013
260 0.32517
265 0.341165
270 0.252093
275 0.383424
280 0.412649
285 0.420526
290 0.468572
295 0.37414
300 0.409746
305 0.65194
310 0.770691
315 0.371917
320 0.393446
325 0.558791
330 0.35735
335 0.452217
340 0.642348
345 0.622655
350 0.811864
355 0.888235
360 0.828344
365 1.01288
370 1.16514
375 1.22271
380 1.04449
385 1.3066
390 1.48884
395 1.7033
400 1.39858
405 1.55382
410 1.7894
415 1.7926
420 1.40278
425 1.35974
430 1.63396
435 1.46056
440 1.42051
445 1.22128
450 1.34443
455 1.41324
460 1.18218
465 1.2708
470 1.01857
475 1.11146
480 1.13848
485 0.859912
490 1.04273
495 0.798954
500 0.894904
505 0.705939
510 0.792005
515 0.576257
520 0.588301
525 0.602415
530 0.588531
535 0.448344
540 0.631254
545 0.532263
550 0.448524
555 0.568543
560 0.429635
565 0.345924
570 0.318308
575 0.53023
580 0.406075
585 0.293676
590 0.425694
595 0.406629
600 0.288924
Ex : 318
200 0.329659
205 0.391355
210 0.279851
215 0.276127
220 0.367726
225 0.273139
230 0.297149
235 0.344892
240 0.356878
245 0.545353
250 0.347008
255 0.298402
260 0.267398
265 0.580415
270 0.478698
275 0.360116
280 0.327679
285 0.346232
290 0.292437
295 0.439227
300 0.415387
305 0.430214
310 0.578392
315 1.53379
320 0.781501
325 0.620791
330 0.878843
335 1.03253
340 1.29063
345 1.61245
350 2.63987
355 3.07367
360 3.88609
365 5.06788
370 5.79305
375 7.1411
380 8.06154
385 9.02768
390 10.2743
395 11.4044
400 11.9655
405 11.6377
410 12.336
415 11.4955
420 11.2651
425 11.4696
430 11.0786
435 10.6976
440 10.4745
445 10.039
450 9.21462
455 8.67021
460 7.99039
465 7.00187
470 6.94902
475 6.68738
480 5.40689
485 5.39429
490 4.77599
495 4.10284
500 4.07087
505 3.15946
510 3.01837
515 2.57124
520 2.25296
525 1.83455
530 1.73008
535 1.51811
540 1.29114
545 1.14663
550 0.912359
555 0.796756
560 0.677006
565 0.705709
570 0.635419
575 0.557496
580 0.641291
585 0.477202
590 0.47277
595 0.454783
600 3.62455
Ex : 323
200 0.289558
205 0.27832
210 0.22537
215 0.238424
220 0.356078
225 0.340676
230 0.280311
235 0.277358
240 0.378781
245 0.360811
250 0.324424
255 0.338097
260 0.374565
265 0.332121
270 0.23075
275 0.247962
280 0.433403
285 0.488966
290 0.386669
295 0.511099
300 0.440923
305 0.357976
310 0.428656
315 4.02151
320 15.072
325 7.20842
330 2.67064
335 3.43358
340 4.57284
345 6.76697
350 9.72102
355 12.6524
360 15.648
365 18.1936
370 21.8349
375 25.2597
380 28.8014
385 31.764
390 34.0059
395 37.6071
400 39.3579
405 40.7791
410 40.3635
415 40.6616
420 40.5983
425 39.4992
430 38.4291
435 38.3553
440 36.1363
445 34.2803
450 32.7367
455 31.2659
460 28.401
465 26.2387
470 24.0938
475 22.5261
480 20.3328
485 17.5263
490 16.5807
495 14.6033
500 12.6594
505 11.6545
510 9.50727
515 8.52576
520 7.27182
525 6.6522
530 5.94489
535 5.09918
540 4.55944
545 3.99018
550 3.55169
555 2.95906
560 2.17101
565 1.87462
570 1.66135
575 1.6552
580 1.19308
585 0.937533
590 0.897629
595 0.636032
600 0.072378
Ex : 328
200 0.357882
205 0.315982
210 0.299289
215 0.330449
220 0.264109
225 0.241606
230 0.30854
235 0.402489
240 0.21602
245 0.279105
250 0.234776
255 0.262427
260 0.38464
265 0.231148
270 0.208643
275 0.336228
280 0.244822
285 0.293463
290 0.286754
295 0.332824
300 0.338219
305 0.433979
310 0.291547
315 1.10984
320 33.403
325 79.2335
330 24.8259
335 6.5269
340 6.28613
345 7.67667
350 9.26791
355 14.0129
360 18.5861
365 21.2823
370 22.9697
375 26.9471
380 29.4996
385 33.4835
390 36.625
395 37.7601
400 40.5549
405 42.6388
410 41.5115
415 42.7223
420 41.9927
425 39.8193
430 39.7074
435 38.125
440 37.7735
445 35.5157
450 33.6625
455 32.9408
460 30.9591
465 28.5704
470 26.2925
475 23.7038
480 22.0087
485 20.4964
490 18.0068
495 16.0854
500 14.4804
505 13.3463
510 11.331
515 10.2804
520 9.07066
525 7.78956
530 6.72568
535 5.97397
540 5.82831
545 4.94947
550 4.24843
555 3.49729
560 3.1233
565 2.82469
570 2.1943
575 1.91049
580 1.34242
585 1.09035
590 0.953617
595 0.932958
600 0.422118
Ex : 333
200 0.242533
205 0.195881
210 0.315447
215 0.263667
220 0.131975
225 0.208482
230 0.342981
235 0.238967
240 0.241215
245 0.183157
250 0.250215
255 0.308221
260 0.251493
265 0.162515
270 0.167816
275 0.274067
280 0.227711
285 0.245829
290 0.279278
295 0.234708
300 0.272346
305 0.290646
310 0.279477
315 0.435892
320 5.78551
325 98.8161
330 171.697
335 47.0809
340 8.852
345 5.9709
350 6.35154
355 7.52872
360 10.6197
365 15.0761
370 16.6276
375 16.7807
380 17.6643
385 18.5821
390 20.8835
395 21.3098
400 22.0458
405 24.0561
410 25.094
415 24.9936
420 24.5655
425 23.4877
430 23.5398
435 23.6192
440 23.0496
445 23.0826
450 21.4464
455 20.8209
460 19.6774
465 19.0112
470 17.8911
475 16.2349
480 15.6272
485 14.2944
490 13.3011
495 12.4912
500 11.8146
505 10.7326
510 9.31258
515 8.6532
520 7.79059
525 6.48905
530 6.00617
535 5.70737
540 4.77612
545 4.32535
550 3.89775
555 3.39537
560 2.92535
565 2.73785
570 2.05577
575 1.73135
580 1.6896
585 1.03251
590 0.815092
595 0.686459
600 0.245588
Ex : 338
200 0.178247
205 0.202061
210 0.173827
215 0.283031
220 0.211706
225 0.329832
230 0.172937
235 0.188166
240 0.258317
245 0.321061
250 0.209739
255 0.30924
260 0.273291
265 0.187551
270 0.375364
275 0.310071
280 0.183982
285 0.280174
290 0.228493
295 0.192462
300 0.251055
305 0.205101
310 0.332369
315 0.33088
320 0.465022
325 10.8058
330 157.692
335 227.808
340 57.7422
345 9.66749
350 4.63863
355 4.39743
360 4.59912
365 6.54003
370 11.3575
375 12.2494
380 10.9214
385 10.3189
390 11.078
395 11.7343
400 12.167
405 13.3434
410 14.5136
415 15.0372
420 15.1925
425 15.3979
430 15.356
435 15.6693
440 16.3118
445 16.111
450 15.7786
455 15.2595
460 14.7608
465 14.3265
470 13.9322
475 14.0423
480 12.9094
485 12.5106
490 11.8476
495 11.4317
500 10.8658
505 9.77407
510 8.75803
515 8.61948
520 7.38853
525 6.59928
530 5.96966
535 5.74203
540 4.68873
545 4.45666
550 4.04919
555 3.49954
560 3.04838
565 2.55232
570 2.18695
575 1.79999
580 1.35711
585 1.14274
590 1.08679
595 0.829676
600 1.40445
Ex : 343
200 0.235757
205 0.276179
210 0.270623
215 0.180389
220 0.26643
225 0.230675
230 0.178154
235 0.235426
240 0.1459
245 0.175878
250 0.288757
255 0.238311
260 0.316766
265 0.308692
270 0.21924
275 0.25073
280 0.288838
285 0.197409
290 0.26734
295 0.22903
300 0.235121
305 0.234114
310 0.279641
315 0.299547
320 0.229015
325 0.421715
330 12.5029
335 178.674
340 253.005
345 62.0925
350 9.83748
355 4.21113
360 3.26772
365 3.13497
370 4.26175
375 8.90335
380 10.5256
385 8.82153
390 7.76613
395 7.79362
400 8.65877
405 9.59019
410 11.7713
415 12.7073
420 12.7772
425 13.0838
430 13.9215
435 14.8201
440 15.2862
445 15.5553
450 15.8562
455 15.1686
460 15.2481
465 15.4242
470 15.4468
475 14.8943
480 14.1966
485 13.7705
490 13.2481
495 12.4661
500 12.375
505 11.1343
510 10.1969
515 8.93128
520 8.28039
525 7.83155
530 6.81861
535 6.21935
540 5.77384
545 5.2163
550 4.3872
555 4.23396
560 3.20352
565 2.91751
570 2.53342
575 2.0298
580 1.57385
585 1.17421
590 1.0325
595 0.827134
600 1.01601
Ex : 348
200 0.166959
205 0.145359
210 0.202571
215 0.199565
220 0.218171
225 0.217156
230 0.190587
235 0.202435
240 0.200848
245 0.165712
250 0.14557
255 0.163069
260 0.325609
265 0.317783
270 0.293569
275 0.279712
280 0.408447
285 0.250093
290 0.186394
295 0.171836
300 0.223993
305 0.224455
310 0.160063
315 0.22373
320 0.285848
325 0.378136
330 0.502854
335 12.8555
340 180.294
345 261.873
350 68.1431
355 9.90678
360 3.5777
365 2.83422
370 2.62678
375 3.4797
380 7.3871
385 10.2426
390 8.23001
395 7.54075
400 7.97978
405 9.36836
410 11.8052
415 13.2603
420 14.0557
425 13.8523
430 14.8202
435 16.0256
440 16.9653
445 16.8192
450 17.0224
455 16.8436
460 16.8856
465 17.2906
470 17.9965
475 17.233
480 16.8891
485 16.887
490 16.4556
495 15.3288
500 14.5037
505 13.3463
510 12.4839
515 11.4025
520 10.2779
525 9.37289
530 8.65459
535 7.71559
540 6.84658
545 6.21922
550 5.47011
555 4.88183
560 4.35556
565 3.61867
570 3.07444
575 2.64599
580 2.15888
585 1.44715
590 1.2725
595 0.925412
600 1.06671
Ex : 353
200 0.130222
205 0.153575
210 0.209784
215 0.18641
220 0.203245
225 0.222609
230 0.191669
235 0.259151
240 0.140671
245 0.173604
250 0.143285
255 0.227329
260 0.178671
265 0.184444
270 0.219952
275 0.156887
280 0.219564
285 0.133141
290 0.220901
295 0.201189
300 0.197453
305 0.148383
310 0.194463
315 0.181803
320 0.204906
325 0.23576
330 0.453747
335 0.464184
340 13.6392
345 185.609
350 260.279
355 64.787
360 9.12251
365 2.9901
370 2.93232
375 2.85607
380 3.55634
385 5.86356
390 9.16356
395 9.08895
400 8.31755
405 9.2587
410 11.363
415 12.7045
420 13.9084
425 13.8698
430 14.7352
435 16.3191
440 17.8017
445 18.48
450 18.2046
455 17.8175
460 18.5933
465 19.6233
470 19.1085
475 19.4351
480 19.2323
485 19.0704
490 17.8889
495 17.1201
500 16.7811
505 15.7443
510 14.4492
515 13.0385
520 11.9638
525 10.8157
530 9.62999
535 9.29093
540 7.88469
545 7.40472
550 6.7148
555 5.90959
560 5.18623
565 4.56577
570 3.53184
575 2.82643
580 2.12779
585 1.80749
590 1.23429
595 1.14879
600 1.07735
Ex : 358
200 0.153674
205 0.168884
210 0.149039
215 0.164061
220 0.202224
225 0.121479
230 0.172291
235 0.132231
240 0.298244
245 0.195863
250 0.229628
255 0.17712
260 0.160472
265 0.176907
270 0.180983
275 0.205002
280 0.175236
285 0.203786
290 0.172732
295 0.13098
300 0.16641
305 0.262668
310 0.16052
315 0.232415
320 0.24884
325 0.240643
330 0.285472
335 0.369559
340 0.533008
345 12.829
350 175.979
355 259.876
360 65.0164
365 9.04293
370 3.28426
375 3.22014
380 3.63134
385 3.52127
390 5.61648
395 9.89781
400 10.5907
405 10.7991
410 12.8587
415 14.1325
420 14.609
425 14.7697
430 15.165
435 17.2138
440 18.8017
445 19.3188
450 19.8168
455 19.6469
460 20.444
465 20.8459
470 21.3552
475 21.4266
480 21.3159
485 20.6262
490 19.9568
495 19.5668
500 17.9395
505 17.1357
510 16.026
515 14.5841
520 13.3511
525 11.9441
530 10.9581
535 9.95853
540 9.00505
545 7.812
550 7.19101
555 6.36242
560 5.11246
565 4.53115
570 3.98015
575 3.2475
580 2.5292
585 1.99147
590 1.37459
595 1.43367
600 1.07045
Ex : 363
200 0.144783
205 0.149683
210 0.186195
215 0.193917
220 0.155207
225 0.146282
230 0.139451
235 0.163162
240 0.188208
245 0.163961
250 0.181986
255 0.203373
260 0.262845
265 0.285581
270 0.210827
275 0.129791
280 0.133141
285 0.201985
290 0.189825
295 0.205933
300 0.171588
305 0.13059
310 0.162403
315 0.213282
320 0.235137
325 0.185263
330 0.280772
335 0.229792
340 0.3139
345 0.488212
350 11.4236
355 169.285
360 254.122
365 66.788
370 9.56531
375 3.30547
380 3.36299
385 3.5131
390 3.86011
395 5.23451
400 9.7352
405 13.8129
410 15.6686
415 16.9202
420 16.584
425 16.9908
430 17.9995
435 20.1077
440 22.2805
445 22.5525
450 22.3898
455 22.7947
460 23.7311
465 24.282
470 24.86
475 24.6995
480 24.8865
485 24.0017
490 22.8399
495 21.8821
500 21.2371
505 19.7472
510 18.6564
515 16.7256
520 15.1328
525 13.6538
530 12.6105
535 11.2954
540 10.4547
545 9.35282
550 8.33707
555 7.08956
560 6.24383
565 5.57232
570 4.53445
575 3.73566
580 2.96014
585 2.14951
590 1.62284
595 1.40373
600 1.05476
Ex : 368
200 0.179855
205 0.174705
210 0.223355
215 0.159699
220 0.176284
225 0.165833
230 0.104043
235 0.124784
240 0.178297
245 0.110435
250 0.183305
255 0.182786
260 0.161623
265 0.130176
270 0.173015
275 0.206984
280 0.164059
285 0.138178
290 0.201481
295 0.124236
300 0.10815
305 0.218319
310 0.203287
315 0.182668
320 0.182692
325 0.245331
330 0.174634
335 0.215268
340 0.256985
345 0.260636
350 0.488374
355 9.46599
360 161.109
365 258.564
370 69.6361
375 9.85056
380 3.37838
385 3.58062
390 3.71836
395 3.91807
400 5.94147
405 11.4445
410 17.104
415 17.6229
420 17.1027
425 16.0342
430 16.9634
435 19.6689
440 20.9894
445 21.8629
450 22.6632
455 23.1805
460 24.7057
465 25.8527
470 27.1027
475 26.9455
480 26.8759
485 26.3685
490 26.2682
495 24.9557
500 23.9258
505 22.9007
510 21.0195
515 19.2455
520 17.4628
525 16.2628
530 15.0483
535 13.3215
540 11.8886
545 10.7906
550 9.26696
555 8.49731
560 7.38731
565 6.41498
570 5.19483
575 4.24081
580 3.34022
585 2.67686
590 2.04765
595 1.63304
600 1.83572
Ex : 373
200 0.12332
205 0.13863
210 0.145376
215 0.139645
220 0.134745
225 0.160239
230 0.0958194
235 0.118528
240 0.16516
245 0.128191
250 0.126043
255 0.172456
260 0.177141
265 0.158914
270 0.176656
275 0.143381
280 0.109971
285 0.128263
290 0.135049
295 0.148697
300 0.128342
305 0.10639
310 0.162323
315 0.12788
320 0.191423
325 0.155705
330 0.20332
335 0.212258
340 0.256253
345 0.301076
350 0.342329
355 0.509815
360 10.6908
365 162.976
370 258.755
375 71.7475
380 10.333
385 3.634
390 3.8497
395 4.30796
400 4.86941
405 7.45121
410 12.6717
415 17.3387
420 16.2273
425 15.1375
430 15.2957
435 17.45
440 19.3109
445 20.4408
450 21.4535
455 22.0959
460 23.6069
465 24.9623
470 26.1482
475 26.946
480 26.8503
485 27.1925
490 27.0115
495 25.737
500 25.089
505 23.2782
510 21.6891
515 20.3774
520 19.0349
525 16.7759
530 15.5734
535 14.3994
540 12.7937
545 11.4844
550 10.6725
555 9.15373
560 7.86842
565 6.73869
570 5.67229
575 4.34632
580 3.52074
585 2.64866
590 2.0896
595 1.76406
600 1.46069
Ex : 378
200 0.191414
205 0.161365
210 0.128388
215 0.131264
220 0.188086
225 0.241373
230 0.127735
235 0.150113
240 0.132425
245 0.133288
250 0.131787
255 0.182662
260 0.18016
265 0.167147
270 0.138216
275 0.0939619
280 0.114254
285 0.129431
290 0.14751
295 0.146472
300 0.193785
305 0.119681
310 0.218404
315 0.169947
320 0.192185
325 0.16188
330 0.111142
335 0.169026
340 0.223413
345 0.176623
350 0.254846
355 0.342283
360 0.42189
365 10.0648
370 166.952
375 269.564
380 75.3323
385 11.2666
390 4.09731
395 4.41482
400 5.48979
405 7.77615
410 10.9065
415 14.9836
420 17.9198
425 17.2351
430 16.8689
435 18.9801
440 19.8566
445 21.2272
450 21.7189
455 22.3493
460 23.2893
465 25.3349
470 26.6815
475 26.9123
480 26.6878
485 26.3194
490 25.9145
495 25.5354
500 24.3726
505 23.9282
510 21.601
515 20.1173
520 18.2968
525 16.3619
530 15.2116
535 13.6501
540 12.1868
545 10.8988
550 9.90696
555 8.69466
560 7.67719
565 6.57337
570 5.393
575 4.55445
580 3.4239
585 2.81815
590 2.1333
595 1.69098
600 0.928489
Ex : 383
200 0.140073
205 0.135457
210 0.126926
215 0.135363
220 0.143316
225 0.136198
230 0.138721
235 0.186674
240 0.129833
245 0.109332
250 0.127173
255 0.157697
260 0.146294
265 0.086334
270 0.111434
275 0.13421
280 0.182022
285 0.142653
290 0.190814
295 0.147807
300 0.137441
305 0.111927
310 0.139603
315 0.178121
320 0.151921
325 0.148806
330 0.162078
335 0.155459
340 0.238005
345 0.186717
350 0.1882
355 0.247731
360 0.291836
365 0.447325
370 9.93768
375 169.126
380 280.374
385 78.4874
390 11.6076
395 4.39701
400 5.42932
405 8.51919
410 12.3929
415 14.724
420 15.1467
425 18.4134
430 20.6088
435 21.1857
440 22.8214
445 23.222
450 23.0672
455 23.8873
460 25.0762
465 26.1929
470 27.77
475 27.8132
480 27.7272
485 27.237
490 26.8241
495 26.051
500 24.7526
505 23.585
510 22.0433
515 20.4349
520 18.8735
525 17.5174
530 15.6162
535 14.0416
540 12.6781
545 11.2723
550 9.99999
555 8.91745
560 7.64135
565 6.79032
570 5.3783
575 4.33709
580 3.57993
585 2.72512
590 2.09612
595 1.68835
600 1.4181
Ex : 388
200 0.155183
205 0.148631
210 0.108752
215 0.116953
220 0.130392
225 0.225293
230 0.147294
235 0.123721
240 0.140889
245 0.130857
250 0.147437
255 0.152417
260 0.184562
265 0.170488
270 0.132725
275 0.15354
280 0.145015
285 0.119543
290 0.108818
295 0.120562
300 0.159398
305 0.1655
310 0.143675
315 0.130318
320 0.116152
325 0.148654
330 0.164971
335 0.158572
340 0.195091
345 0.144181
350 0.189607
355 0.155487
360 0.226283
365 0.351856
370 0.426514
375 11.1394
380 175.581
385 281.136
390 77.8723
395 11.7481
400 5.30243
405 7.94481
410 11.6026
415 14.1366
420 14.0251
425 14.8288
430 17.828
435 21.8258
440 22.4842
445 22.9529
450 22.7553
455 23.2287
460 24.2654
465 26.486
470 28.184
475 28.1813
480 28.443
485 28.2412
490 27.3371
495 26.5499
500 25.6308
505 24.662
510 22.821
515 21.0996
520 19.1001
525 17.6294
530 16.2823
535 14.585
540 13.1189
545 11.6905
550 10.4039
555 9.16839
560 8.1544
565 6.87279
570 5.73379
575 4.57444
580 3.63044
585 2.87323
590 2.24141
595 1.75576
600 1.05568
Ex : 393
200 0.165646
205 0.118669
210 0.117429
215 0.157821
220 0.122473
225 0.103462
230 0.181941
235 0.17171
240 0.130826
245 0.144286
250 0.131059
255 0.13062
260 0.121252
265 0.119156
270 0.120771
275 0.136489
280 0.146192
285 0.145603
290 0.113088
295 0.135067
300 0.185502
305 0.103188
310 0.10254
315 0.13503
320 0.135362
325 0.107191
330 0.148154
335 0.157797
340 0.163005
345 0.164096
350 0.188275
355 0.170029
360 0.212726
365 0.190924
370 0.267775
375 0.434279
380 9.67994
385 173.625
390 285.827
395 80.09
400 12.5369
405 6.69749
410 9.08
415 11.2455
420 11.2476
425 11.0114
430 12.5414
435 15.7846
440 20.3553
445 20.6802
450 20.3527
455 20.7472
460 22.1992
465 24.1395
470 25.8982
475 26.4487
480 27.4052
485 26.8848
490 26.9617
495 26.5378
500 26.3951
505 24.8244
510 23.3969
515 21.4085
520 19.4801
525 17.9405
530 16.5266
535 14.7543
540 13.4007
545 12.2764
550 10.5913
555 9.67815
560 8.45116
565 7.30097
570 6.19869
575 4.78032
580 3.67419
585 3.04371
590 2.19256
595 1.71939
600 1.02448
Ex : 398
200 0.145426
205 0.116941
210 0.106034
215 0.113753
220 0.107721
225 0.158492
230 0.124052
235 0.177899
240 0.125322
245 0.110305
250 0.119823
255 0.110511
260 0.152032
265 0.118732
270 0.176502
275 0.1272
280 0.150413
285 0.152238
290 0.133077
295 0.146272
300 0.106233
305 0.123767
310 0.118108
315 0.139541
320 0.126618
325 0.151983
330 0.140371
335 0.0973739
340 0.154833
345 0.200403
350 0.16328
355 0.268674
360 0.216764
365 0.234883
370 0.201578
375 0.324864
380 0.510626
385 9.64396
390 177.51
395 297.112
400 81.6107
405 14.2246
410 8.64948
415 9.84704
420 10.621
425 10.4922
430 11.0029
435 12.8687
440 16.1636
445 19.7374
450 20.628
455 21.0963
460 22.5234
465 24.116
470 25.3896
475 26.4679
480 26.8397
485 27.5068
490 27.4837
495 26.6868
500 25.7781
505 24.8483
510 23.6194
515 21.6252
520 19.8606
525 18.377
530 16.9915
535 15.4474
540 13.9846
545 12.4054
550 10.9563
555 9.7833
560 8.72236
565 7.33325
570 6.24168
575 5.02857
580 3.87913
585 3.03718
590 2.26659
595 1.64788
600 1.05845
Ex : 403
200 0.125553
205 0.122591
210 0.132503
215 0.117239
220 0.11975
225 0.0964144
230 0.0984021
235 0.150712
240 0.178866
245 0.155732
250 0.117196
255 0.156813
260 0.141238
265 0.119298
270 0.0916993
275 0.125703
280 0.0954964
285 0.137646
290 0.141253
295 0.123216
300 0.119616
305 0.110462
310 0.121569
315 0.121627
320 0.184292
325 0.19915
330 0.148702
335 0.167097
340 0.148487
345 0.131823
350 0.158237
355 0.173969
360 0.221423
365 0.222303
370 0.264741
375 0.213805
380 0.319143
385 0.488668
390 11.0644
395 182.539
400 293.903
405 83.7551
410 17.124
415 11.2372
420 11.0568
425 11.4575
430 11.8108
435 13.599
440 15.4918
445 17.4192
450 20.9608
455 22.8727
460 23.6936
465 25.2417
470 26.2943
475 27.1737
480 27.6513
485 27.7253
490 28.2084
495 27.825
500 27.1782
505 25.4725
510 23.7866
515 22.0605
520 20.2104
525 18.6544
530 17.4215
535 15.7543
540 14.1644
545 12.7069
550 11.2417
555 10.1085
560 8.73957
565 7.60255
570 6.20438
575 5.15014
580 3.81608
585 2.9586
590 2.2582
595 1.76195
600 1.50697
Ex : 408
200 0.143847
205 0.139109
210 0.121216
215 0.102661
220 0.101464
225 0.134297
230 0.14735
235 0.124338
240 0.105379
245 0.120113
250 0.0876465
255 0.124156
260 0.103104
265 0.140857
270 0.0829863
275 0.135649
280 0.149761
285 0.139707
290 0.151267
295 0.0827179
300 0.23249
305 0.100927
310 0.147662
315 0.110031
320 0.116296
325 0.114872
330 0.18637
335 0.143799
340 0.168473
345 0.189554
350 0.126721
355 0.138744
360 0.111671
365 0.175637
370 0.19248
375 0.179289
380 0.243734
385 0.329773
390 0.595785
395 10.7704
400 190.237
405 306.439
410 86.5322
415 18.3175
420 10.7445
425 10.0357
430 11.2875
435 12.9363
440 14.6501
445 16.0394
450 17.1568
455 20.8822
460 24.2968
465 25.2281
470 26.647
475 27.1216
480 26.8913
485 27.559
490 27.5308
495 27.1685
500 26.3248
505 25.691
510 24.0592
515 22.5623
520 20.3707
525 18.8494
530 17.3539
535 15.5718
540 14.2204
545 12.6655
550 11.3255
555 9.81785
560 8.83386
565 7.84567
570 6.27338
575 4.83563
580 3.96722
585 3.08895
590 2.43406
595 1.90998
600 1.71754
Ex : 413
200 0.107291
205 0.106027
210 0.113791
215 0.132503
220 0.151829
225 0.11452
230 0.111475
235 0.11368
240 0.0942907
245 0.111718
250 0.129962
255 0.137946
260 0.0713784
265 0.130059
270 0.131102
275 0.105285
280 0.118314
285 0.117702
290 0.103537
295 0.140523
300 0.150874
305 0.133165
310 0.0867207
315 0.119533
320 0.163582
325 0.206949
330 0.13664
335 0.100072
340 0.148402
345 0.156504
350 0.176778
355 0.113364
360 0.171235
365 0.224744
370 0.161689
375 0.205724
380 0.17706
385 0.252651
390 0.356808
395 0.646571
400 12.5944
405 198.035
410 311.049
415 83.7952
420 15.1522
425 7.37629
430 7.41026
435 8.81704
440 10.2093
445 11.2484
450 12.9055
455 15.3806
460 18.7303
465 22.7216
470 24.0269
475 24.3936
480 25.6104
485 25.6283
490 25.462
495 25.1412
500 24.9906
505 24.3042
510 22.5389
515 21.0932
520 19.9328
525 17.6944
530 16.7518
535 15.1734
540 13.8556
545 12.0322
550 11.3197
555 9.73307
560 8.42281
565 7.36804
570 6.21039
575 4.97654
580 3.82326
585 2.95162
590 2.32653
595 1.95606
600 1.72914
Ex : 418
200 0.114719
205 0.134191
210 0.0963077
215 0.0967667
220 0.0990944
225 0.121429
230 0.097848
235 0.137856
240 0.101654
245 0.132475
250 0.0960028
255 0.130987
260 0.106857
265 0.0943138
270 0.111973
275 0.0903356
280 0.134145
285 0.0893571
290 0.101403
295 0.118454
300 0.133608
305 0.120025
310 0.177133
315 0.147029
320 0.0696307
325 0.104155
330 0.169909
335 0.158657
340 0.123327
345 0.124528
350 0.106945
355 0.150196
360 0.13206
365 0.131835
370 0.140306
375 0.154429
380 0.192134
385 0.217813
390 0.249606
395 0.34556
400 0.729271
405 12.5385
410 199.338
415 320.863
420 86.7162
425 13.1204
430 5.03127
435 4.88805
440 6.11392
445 7.65907
450 9.07546
455 11.4984
460 13.7736
465 16.9613
470 20.8398
475 22.2484
480 22.662
485 22.8512
490 23.4788
495 23.3501
500 22.5542
505 21.9111
510 20.7848
515 19.7088
520 17.9858
525 16.719
530 15.4047
535 13.7711
540 12.8828
545 11.6289
550 10.4481
555 9.30552
560 7.91226
565 6.78808
570 5.68036
575 4.80665
580 3.65449
585 2.74001
590 2.24611
595 1.66601
600 1.13154
Ex : 423
200 0.111691
205 0.0966926
210 0.0991637
215 0.0785893
220 0.0952866
225 0.113312
230 0.130112
235 0.0812958
240 0.103488
245 0.103441
250 0.110609
255 0.118434
260 0.0984185
265 0.110021
270 0.0870482
275 0.11929
280 0.0930439
285 0.1137
290 0.122655
295 0.0988492
300 0.131943
305 0.128519
310 0.104676
315 0.109031
320 0.102583
325 0.108433
330 0.120243
335 0.151235
340 0.119746
345 0.135461
350 0.105881
355 0.111474
360 0.141258
365 0.124774
370 0.150881
375 0.174779
380 0.147069
385 0.13511
390 0.186305
395 0.231954
400 0.424859
405 0.751708
410 12.3405
415 213.368
420 330.131
425 84.38
430 11.7422
435 3.89373
440 3.97716
445 5.41638
450 7.1923
455 9.25978
460 11.3721
465 13.7311
470 15.8559
475 19.325
480 21.0042
485 21.5865
490 21.697
495 21.3309
500 20.8683
505 19.8321
510 19.276
515 17.7529
520 16.9753
525 15.4622
530 14.1917
535 13.0124
540 11.6045
545 10.8953
550 9.4412
555 8.39189
560 7.34659
565 6.26757
570 5.58289
575 4.38496
580 3.46339
585 2.80827
590 2.06765
595 1.64781
600 1.03291
Ex : 428
200 0.0896057
205 0.0992532
210 0.120817
215 0.136443
220 0.10244
225 0.141179
230 0.165516
235 0.114829
240 0.150577
245 0.116926
250 0.109382
255 0.12399
260 0.143829
265 0.0841665
270 0.10052
275 0.0951116
280 0.0947167
285 0.107592
290 0.122448
295 0.0757143
300 0.115732
305 0.102809
310 0.144605
315 0.108053
320 0.117057
325 0.126152
330 0.131631
335 0.121136
340 0.158822
345 0.171133
350 0.197268
355 0.145604
360 0.116584
365 0.151244
370 0.179213
375 0.139206
380 0.16265
385 0.246537
390 0.261203
395 0.199839
400 0.293618
405 0.455479
410 0.796857
415 14.0316
420 220.648
425 338.812
430 88.8388
435 12.276
440 4.25294
445 4.189
450 6.07341
455 8.09123
460 9.96564
465 11.6672
470 13.4699
475 15.3926
480 17.5788
485 20.1426
490 20.1496
495 19.5979
500 18.994
505 18.0044
510 17.2846
515 16.1463
520 15.0861
525 14.2402
530 12.7733
535 11.9203
540 10.8707
545 9.60492
550 8.60947
555 7.67276
560 6.91304
565 5.95099
570 4.92272
575 3.7927
580 3.04187
585 2.36428
590 1.81344
595 1.53663
600 1.37799
Ex : 433
200 0.0987159
205 0.119528
210 0.119935
215 0.149615
220 0.0891871
225 0.109541
230 0.160966
235 0.0969855
240 0.15612
245 0.0935505
250 0.120656
255 0.136094
260 0.127011
265 0.11999
270 0.191025
275 0.136683
280 0.09877
285 0.127737
290 0.143298
295 0.0967011
300 0.105826
305 0.149312
310 0.112293
315 0.231162
320 0.176333
325 0.143376
330 0.156787
335 0.149006
340 0.140794
345 0.119839
350 0.120912
355 0.14303
360 0.130584
365 0.145965
370 0.17898
375 0.153046
380 0.161491
385 0.179863
390 0.153692
395 0.228676
400 0.245238
405 0.32809
410 0.336132
415 0.555976
420 15.6261
425 239.469
430 351.511
435 89.1091
440 12.5698
445 4.54389
450 4.88787
455 6.94859
460 9.06623
465 10.5756
470 11.8738
475 13.1901
480 14.6728
485 16.4404
490 18.2863
495 18.3779
500 17.4593
505 16.7353
510 15.7625
515 14.4149
520 13.2259
525 12.4715
530 11.3915
535 10.3358
540 9.8095
545 8.68139
550 7.71951
555 7.00347
560 6.15526
565 5.24895
570 4.44916
575 3.51745
580 2.85602
585 2.13872
590 1.72242
595 1.38109
600 1.26119
Ex : 438
200 0.0868078
205 0.112856
210 0.144876
215 0.126969
220 0.0797222
225 0.105589
230 0.0991199
235 0.128009
240 0.155685
245 0.138933
250 0.181773
255 0.131204
260 0.11501
265 0.134753
270 0.126377
275 0.131892
280 0.161302
285 0.140021
290 0.118979
295 0.154063
300 0.13757
305 0.151493
310 0.126201
315 0.105374
320 0.209155
325 0.134523
330 0.154993
335 0.095897
340 0.198492
345 0.145304
350 0.128168
355 0.102541
360 0.127387
365 0.108781
370 0.110009
375 0.153905
380 0.1632
385 0.142022
390 0.155002
395 0.174136
400 0.182614
405 0.213186
410 0.298306
415 0.390346
420 0.568863
425 15.4224
430 243.456
435 380.981
440 96.8234
445 13.8909
450 5.6855
455 5.59362
460 7.17693
465 9.04279
470 10.2779
475 11.1515
480 11.8392
485 12.6773
490 14.1183
495 16.1106
500 15.9373
505 14.4467
510 13.762
515 12.6776
520 11.5883
525 10.5147
530 9.75058
535 9.17171
540 8.40685
545 7.23679
550 6.85427
555 5.98077
560 5.11132
565 4.49543
570 3.65625
575 2.96948
580 2.43456
585 1.83571
590 1.43384
595 1.21952
600 1.11686
Ex : 443
200 0.144734
205 0.14411
210 0.100619
215 0.121623
220 0.133928
225 0.125359
230 0.157591
235 0.10753
240 0.124133
245 0.156462
250 0.145321
255 0.166564
260 0.137645
265 0.139555
270 0.105226
275 0.124929
280 0.116717
285 0.132494
290 0.131509
295 0.178651
300 0.159992
305 0.152175
310 0.113885
315 0.160145
320 0.138114
325 0.150626
330 0.15282
335 0.186349
340 0.124609
345 0.146956
350 0.151781
355 0.162966
360 0.151188
365 0.121379
370 0.124804
375 0.159229
380 0.109279
385 0.158049
390 0.154098
395 0.188755
400 0.154568
405 0.179277
410 0.218425
415 0.331992
420 0.420078
425 0.645987
430 17.6948
435 264.129
440 387.459
445 97.3255
450 14.3471
455 6.21638
460 5.85911
465 7.17945
470 8.50256
475 9.12013
480 9.66237
485 10.5249
490 10.6156
495 11.0249
500 12.4231
505 13.2819
510 11.7544
515 10.7017
520 9.83263
525 8.99236
530 8.16809
535 7.23503
540 6.64964
545 6.26015
550 5.78204
555 5.15741
560 4.55986
565 3.8429
570 3.10811
575 2.5954
580 1.92664
585 1.62487
590 1.16802
595 0.899684
600 0.886791
Ex : 448
200 0.109215
205 0.105412
210 0.143003
215 0.137401
220 0.152047
225 0.13686
230 0.126754
235 0.103997
240 0.119619
245 0.0870493
250 0.162435
255 0.171214
260 0.141736
265 0.172358
270 0.13632
275 0.151791
280 0.154956
285 0.0998497
290 0.158896
295 0.142856
300 0.116842
305 0.125852
310 0.205514
315 0.13327
320 0.170737
325 0.134787
330 0.13287
335 0.206385
340 0.107934
345 0.18928
350 0.190023
355 0.152631
360 0.12642
365 0.150049
370 0.16903
375 0.202583
380 0.183874
385 0.182994
390 0.15516
395 0.171483
400 0.174609
405 0.233036
410 0.263399
415 0.235432
420 0.344327
425 0.402158
430 0.730938
435 18.3095
440 286.347
445 418.232
450 104.066
455 15.3103
460 5.97422
465 5.5224
470 6.41078
475 7.21551
480 7.6415
485 7.89028
490 8.18188
495 8.53158
500 8.78082
505 9.46603
510 10.4072
515 9.42978
520 8.03541
525 7.43184
530 6.54229
535 5.93674
540 5.4425
545 5.37946
550 4.42401
555 3.88395
560 3.50965
565 3.04666
570 2.50521
575 2.08532
580 1.6303
585 1.29389
590 1.04326
595 0.907723
600 0.556841
Ex : 453
200 0.143815
205 0.121209
210 0.122929
215 0.119652
220 0.152814
225 0.130542
230 0.0957774
235 0.106498
240 0.133452
245 0.129136
250 0.109633
255 0.142153
260 0.128773
265 0.1892
270 0.139889
275 0.131772
280 0.112623
285 0.111041
290 0.133136
295 0.135807
300 0.121891
305 0.139205
310 0.112284
315 0.17229
320 0.14892
325 0.110036
330 0.19471
335 0.111861
340 0.176575
345 0.1326
350 0.174184
355 0.144983
360 0.107299
365 0.162737
370 0.142299
375 0.161937
380 0.1666
385 0.172202
390 0.154834
395 0.18601
400 0.15906
405 0.136787
410 0.166067
415 0.145043
420 0.241351
425 0.33247
430 0.399605
435 0.717163
440 19.6999
445 305.124
450 427.449
455 100.892
460 14.6345
465 5.2222
470 4.53858
475 4.7421
480 5.47979
485 5.84914
490 5.81737
495 6.03855
500 5.99684
505 6.02238
510 6.54112
515 7.45293
520 7.46373
525 6.09269
530 5.32004
535 4.90763
540 4.32237
545 3.72197
550 3.25678
555 3.05035
560 2.79217
565 2.43198
570 2.17688
575 1.81206
580 1.34545
585 0.983333
590 0.986815
595 0.742689
600 1.10096
Ex : 458
200 0.136983
205 0.100099
210 0.139892
215 0.128272
220 0.149565
225 0.134834
230 0.122358
235 0.139015
240 0.145126
245 0.145034
250 0.121123
255 0.118311
260 0.151233
265 0.119096
270 0.156601
275 0.108562
280 0.172926
285 0.133427
290 0.154146
295 0.174424
300 0.14608
305 0.189178
310 0.136943
315 0.117249
320 0.169744
325 0.13394
330 0.144455
335 0.102875
340 0.138467
345 0.121026
350 0.16788
355 0.122376
360 0.163126
365 0.128858
370 0.134634
375 0.157144
380 0.137628
385 0.152986
390 0.174235
395 0.160102
400 0.147651
405 0.169401
410 0.199754
415 0.185208
420 0.259879
425 0.298326
430 0.329326
435 0.533313
440 0.716158
445 21.7426
450 313.923
455 448.101
460 108.941
465 15.1642
470 4.7683
475 3.44652
480 3.63629
485 4.17922
490 4.28905
495 4.35989
500 4.17102
505 4.25458
510 4.14199
515 4.27651
520 5.56134
525 5.80982
530 4.91348
535 4.0685
540 3.7194
545 3.15536
550 2.87844
555 2.46368
560 2.25779
565 1.99049
570 1.77086
575 1.21856
580 1.05045
585 0.865434
590 0.67447
595 0.577291
600 0.864443
Ex : 463
200 0.184264
205 0.130786
210 0.10653
215 0.127184
220 0.131385
225 0.163308
230 0.147452
235 0.118365
240 0.107567
245 0.121201
250 0.158553
255 0.0872035
260 0.127437
265 0.10222
270 0.121906
275 0.14654
280 0.100504
285 0.15374
290 0.145191
295 0.175892
300 0.16485
305 0.17088
310 0.140173
315 0.137292
320 0.0903912
325 0.151979
330 0.147372
335 0.118656
340 0.128328
345 0.158663
350 0.139153
355 0.124375
360 0.0838644
365 0.100921
370 0.11711
375 0.110166
380 0.187335
385 0.123323
390 0.142736
395 0.172797
400 0.176254
405 0.174464
410 0.173987
415 0.192597
420 0.178544
425 0.178957
430 0.251956
435 0.322674
440 0.439747
445 0.836391
450 20.8858
455 327.198
460 479.922
465 115.178
470 15.505
475 4.15025
480 2.92418
485 2.98744
490 3.36261
495 3.51596
500 3.27588
505 3.05321
510 3.13165
515 2.98429
520 3.10465
525 3.7819
530 4.76087
535 3.93103
540 3.10123
545 2.84611
550 2.52089
555 2.17161
560 1.97917
565 1.65319
570 1.36601
575 1.20603
580 0.910403
585 0.812826
590 0.641336
595 0.491543
600 0.567842
Ex : 468
200 0.177062
205 0.118043
210 0.109313
215 0.120886
220 0.1495
225 0.171765
230 0.140981
235 0.09431
240 0.0999516
245 0.106555
250 0.128008
255 0.0834147
260 0.105486
265 0.172096
270 0.133465
275 0.119519
280 0.0751477
285 0.0964865
290 0.132699
295 0.122363
300 0.0880584
305 0.107747
310 0.12612
315 0.139569
320 0.110172
325 0.172347
330 0.113487
335 0.0977892
340 0.100955
345 0.108132
350 0.112419
355 0.10086
360 0.142565
365 0.124593
370 0.153503
375 0.119993
380 0.140389
385 0.10654
390 0.146413
395 0.150027
400 0.161254
405 0.124337
410 0.140775
415 0.135224
420 0.188931
425 0.203144
430 0.203007
435 0.218587
440 0.322116
445 0.49375
450 0.657585
455 22.7922
460 321.506
465 483.87
470 115.347
475 15.0832
480 3.78299
485 2.42835
490 2.33367
495 2.66452
500 2.87424
505 2.62682
510 2.39982
515 2.50084
520 2.37008
525 2.42468
530 2.69756
535 3.7564
540 3.77094
545 2.83655
550 2.36509
555 2.22658
560 1.85546
565 1.47498
570 1.47141
575 1.13398
580 0.896149
585 0.726998
590 0.61484
595 0.528192
600 0.407996
Ex : 473
200 0.105579
205 0.123727
210 0.107748
215 0.0884805
220 0.0976572
225 0.117995
230 0.103473
235 0.102014
240 0.109771
245 0.0994109
250 0.101424
255 0.103833
260 0.0926229
265 0.135538
270 0.203314
275 0.114356
280 0.0991452
285 0.101734
290 0.131376
295 0.143265
300 0.127476
305 0.139962
310 0.13104
315 0.147363
320 0.161824
325 0.117013
330 0.138598
335 0.101371
340 0.13317
345 0.198801
350 0.173048
355 0.140693
360 0.0976385
365 0.110719
370 0.140295
375 0.108047
380 0.17
385 0.16714
390 0.193257
395 0.188552
400 0.137886
405 0.153926
410 0.172705
415 0.219038
420 0.160719
425 0.175233
430 0.197232
435 0.21092
440 0.253151
445 0.298557
450 0.478474
455 0.72358
460 26.1467
465 351.527
470 468.95
475 106.648
480 13.862
485 3.28506
490 2.11041
495 1.86407
500 2.28988
505 2.44504
510 2.35327
515 2.12053
520 2.04006
525 2.12152
530 2.14608
535 2.18849
540 3.09878
545 3.47943
550 2.65287
555 2.17925
560 1.98624
565 1.83349
570 1.24738
575 1.15929
580 0.8776
585 0.747233
590 0.540216
595 0.523139
600 0.14996
Ex : 478
200 0.153853
205 0.131276
210 0.136837
215 0.159256
220 0.183814
225 0.151493
230 0.133208
235 0.114102
240 0.114039
245 0.163529
250 0.18333
255 0.157553
260 0.140833
265 0.175056
270 0.132994
275 0.0946498
280 0.116038
285 0.155753
290 0.129082
295 0.145623
300 0.12552
305 0.175186
310 0.140111
315 0.148239
320 0.162452
325 0.137862
330 0.110598
335 0.114918
340 0.113784
345 0.151582
350 0.171815
355 0.163965
360 0.19667
365 0.195339
370 0.135881
375 0.144577
380 0.172672
385 0.174459
390 0.136403
395 0.146806
400 0.207984
405 0.176361
410 0.197265
415 0.220965
420 0.187326
425 0.215901
430 0.239811
435 0.268913
440 0.341937
445 0.313455
450 0.377988
455 0.537514
460 0.921499
465 27.663
470 354.75
475 473.94
480 113.824
485 14.536
490 3.24294
495 2.05357
500 1.75329
505 2.01368
510 2.06641
515 2.20576
520 2.01919
525 1.81288
530 1.81618
535 1.85355
540 1.77023
545 2.44418
550 3.16717
555 2.6886
560 1.96365
565 1.58322
570 1.55513
575 0.945458
580 0.825424
585 0.686614
590 0.611707
595 0.456787
600 0.4189
Ex : 483
200 0.128411
205 0.173715
210 0.169644
215 0.112394
220 0.145376
225 0.154532
230 0.136121
235 0.135243
240 0.161577
245 0.142791
250 0.129006
255 0.164801
260 0.142091
265 0.127094
270 0.206736
275 0.132659
280 0.155703
285 0.171615
290 0.145478
295 0.133651
300 0.154235
305 0.13028
310 0.169399
315 0.143343
320 0.162842
325 0.155002
330 0.195451
335 0.178376
340 0.153039
345 0.145729
350 0.156085
355 0.160353
360 0.185506
365 0.150539
370 0.170768
375 0.145021
380 0.130204
385 0.182648
390 0.156394
395 0.154428
400 0.13827
405 0.132094
410 0.194717
415 0.178969
420 0.190684
425 0.136609
430 0.180709
435 0.196708
440 0.230697
445 0.231151
450 0.305209
455 0.402195
460 0.512543
465 0.938041
470 21.3878
475 340.93
480 496.811
485 116.696
490 14.8579
495 3.15235
500 1.69977
505 1.5552
510 1.71656
515 1.85906
520 1.99238
525 1.7045
530 1.65962
535 1.68771
540 1.61942
545 1.70188
550 1.91709
555 2.78416
560 2.8516
565 2.01371
570 1.39805
575 1.23022
580 0.955707
585 0.790779
590 0.612063
595 0.517166
600 0.37887
Ex : 488
200 0.109399
205 0.146436
210 0.152217
215 0.149964
220 0.150503
225 0.137995
230 0.176604
235 0.163033
240 0.212712
245 0.162228
250 0.165627
255 0.152357
260 0.17981
265 0.183249
270 0.0966533
275 0.14853
280 0.155737
285 0.18536
290 0.150124
295 0.160398
300 0.125931
305 0.136015
310 0.137557
315 0.129474
320 0.156368
325 0.124812
330 0.203571
335 0.193786
340 0.13647
345 0.127231
350 0.1021
355 0.14816
360 0.136109
365 0.177686
370 0.204794
375 0.134636
380 0.132946
385 0.160144
390 0.226158
395 0.139662
400 0.168129
405 0.23089
410 0.233387
415 0.194009
420 0.19726
425 0.165405
430 0.241866
435 0.219759
440 0.212985
445 0.289661
450 0.283672
455 0.303724
460 0.445246
465 0.637409
470 0.869015
475 26.0755
480 361.062
485 478.899
490 110.979
495 14.0791
500 3.00548
505 1.65497
510 1.50331
515 1.7499
520 1.80572
525 1.97715
530 1.81042
535 1.58917
540 1.51971
545 1.34858
550 1.48862
555 1.47041
560 2.02537
565 2.66291
570 1.85134
575 1.30524
580 1.02767
585 0.886402
590 0.560364
595 0.544821
600 0.687554
Ex : 493
200 0.0991269
205 0.198926
210 0.14883
215 0.123671
220 0.16214
225 0.153926
230 0.143589
235 0.157477
240 0.161205
245 0.243432
250 0.140133
255 0.165509
260 0.11041
265 0.143146
270 0.150856
275 0.182431
280 0.118422
285 0.146068
290 0.126113
295 0.181279
300 0.166114
305 0.157367
310 0.178562
315 0.177653
320 0.136083
325 0.163811
330 0.11378
335 0.178481
340 0.201359
345 0.209277
350 0.127753
355 0.183532
360 0.164086
365 0.163417
370 0.144625
375 0.121364
380 0.211869
385 0.124228
390 0.168809
395 0.188834
400 0.187243
405 0.165854
410 0.21342
415 0.150596
420 0.216733
425 0.19183
430 0.210531
435 0.234613
440 0.25591
445 0.390877
450 0.297041
455 0.30197
460 0.27076
465 0.430576
470 0.494737
475 0.736544
480 23.1505
485 351.97
490 499.025
495 112.763
500 14.2898
505 2.8235
510 1.63712
515 1.30724
520 1.55509
525 1.64081
530 1.78087
535 1.66085
540 1.54678
545 1.51077
550 1.3443
555 1.26375
560 1.34183
565 1.58366
570 2.10745
575 1.66177
580 1.04093
585 0.898063
590 0.745599
595 0.605558
600 0.359801
Ex : 498
200 0.13068
205 0.121147
210 0.151367
215 0.167625
220 0.225008
225 0.173801
230 0.258368
235 0.20034
240 0.145292
245 0.139972
250 0.171237
255 0.128166
260 0.1535
265 0.200285
270 0.199727
275 0.188948
280 0.268988
285 0.205967
290 0.157597
295 0.129743
300 0.120711
305 0.222472
310 0.18606
315 0.174639
320 0.181909
325 0.200598
330 0.187585
335 0.189354
340 0.159992
345 0.135111
350 0.148854
355 0.189583
360 0.162685
365 0.187468
370 0.194888
375 0.218912
380 0.181395
385 0.242171
390 0.215661
395 0.143358
400 0.203024
405 0.190217
410 0.192437
415 0.215202
420 0.191292
425 0.193289
430 0.245861
435 0.224395
440 0.242778
445 0.20012
450 0.283923
455 0.252563
460 0.322286
465 0.387018
470 0.497487
475 0.628515
480 0.824333
485 27.1983
490 370.617
495 486.11
500 110.426
505 13.9208
510 2.72233
515 1.48141
520 1.50717
525 1.63548
530 1.84508
535 1.57163
540 1.65839
545 1.4344
550 1.36608
555 1.30336
560 1.13012
565 1.17186
570 1.15124
575 1.75498
580 1.52088
585 0.986831
590 0.670018
595 0.598498
600 0.995793
Ex : 503
200 0.205982
205 0.199728
210 0.1648
215 0.141567
220 0.131933
225 0.133982
230 0.194118
235 0.183313
240 0.155261
245 0.165669
250 0.179634
255 0.191833
260 0.135988
265 0.181704
270 0.179247
275 0.136303
280 0.141553
285 0.123287
290 0.172114
295 0.133849
300 0.183828
305 0.151093
310 0.134777
315 0.175436
320 0.129815
325 0.127361
330 0.23207
335 0.227827
340 0.179154
345 0.178526
350 0.220596
355 0.220853
360 0.240342
365 0.208615
370 0.172884
375 0.198631
380 0.155715
385 0.173758
390 0.189382
395 0.158628
400 0.213221
405 0.166763
410 0.235896
415 0.206331
420 0.215316
425 0.187643
430 0.214402
435 0.26761
440 0.257134
445 0.257202
450 0.238247
455 0.287084
460 0.308785
465 0.33571
470 0.364059
475 0.490326
480 0.639589
485 0.865222
490 24.2605
495 357.86
500 493.041
505 112.519
510 14.1354
515 2.879
520 1.58704
525 1.41786
530 1.3463
535 1.55251
540 1.5818
545 1.436
550 1.32351
555 1.31952
560 1.10807
565 1.03335
570 1.05378
575 0.93131
580 1.08086
585 1.30539
590 0.929343
595 0.631302
600 0.526917
Ex : 508
200 0.129146
205 0.136574
210 0.209059
215 0.221601
220 0.174867
225 0.145232
230 0.198863
235 0.195577
240 0.179144
245 0.120927
250 0.174692
255 0.146042
260 0.147842
265 0.157702
270 0.143501
275 0.117272
280 0.197663
285 0.21614
290 0.163589
295 0.244127
300 0.244647
305 0.191325
310 0.147228
315 0.215253
320 0.246831
325 0.249345
330 0.266674
335 0.170699
340 0.221598
345 0.154898
350 0.207838
355 0.186596
360 0.194692
365 0.187618
370 0.198768
375 0.259953
380 0.167111
385 0.209882
390 0.216049
395 0.188525
400 0.154984
405 0.223039
410 0.261814
415 0.270041
420 0.204636
425 0.22143
430 0.284621
435 0.198669
440 0.26943
445 0.219937
450 0.224212
455 0.254517
460 0.321271
465 0.311142
470 0.383011
475 0.359125
480 0.482832
485 0.564829
490 0.858365
495 25.7183
500 356.909
505 477.752
510 113.407
515 14.2148
520 3.0327
525 1.68436
530 1.24759
535 1.39569
540 1.24028
545 1.45439
550 1.39672
555 1.09792
560 0.970896
565 0.984964
570 1.00114
575 0.846357
580 0.747296
585 0.844348
590 1.01253
595 0.79235
600 0.440526
Ex : 513
200 0.226606
205 0.2235
210 0.167934
215 0.257586
220 0.179821
225 0.166642
230 0.21215
235 0.22041
240 0.183332
245 0.175654
250 0.189741
255 0.214923
260 0.198245
265 0.160826
270 0.195583
275 0.151111
280 0.162822
285 0.142583
290 0.208359
295 0.248441
300 0.23848
305 0.185091
310 0.161064
315 0.200478
320 0.169703
325 0.156744
330 0.129391
335 0.143324
340 0.159512
345 0.227603
350 0.162388
355 0.163953
360 0.18917
365 0.219654
370 0.171986
375 0.164396
380 0.175653
385 0.204386
390 0.276517
395 0.195214
400 0.272516
405 0.217276
410 0.216817
415 0.1987
420 0.309461
425 0.173837
430 0.230574
435 0.242846
440 0.246016
445 0.28111
450 0.364506
455 0.274627
460 0.268245
465 0.267876
470 0.311438
475 0.325628
480 0.360295
485 0.463141
490 0.6181
495 0.8348
500 22.903
505 345.127
510 478.707
515 115.505
520 14.5412
525 2.74936
530 1.54464
535 1.38297
540 1.25023
545 1.23776
550 1.29521
555 1.30148
560 1.10441
565 1.04207
570 0.987689
575 0.824362
580 0.677563
585 0.49171
590 0.520422
595 0.76934
600 0.117372
Ex : 518
200 0.212432
205 0.189912
210 0.129761
215 0.166952
220 0.192881
225 0.195421
230 0.246604
235 0.217591
240 0.175746
245 0.21578
250 0.136413
255 0.144978
260 0.15878
265 0.177828
270 0.164504
275 0.156699
280 0.153314
285 0.136375
290 0.149309
295 0.19373
300 0.173703
305 0.167224
310 0.160826
315 0.144319
320 0.211692
325 0.232565
330 0.172134
335 0.225575
340 0.187891
345 0.279534
350 0.22064
355 0.220706
360 0.187066
365 0.18174
370 0.184782
375 0.181512
380 0.157477
385 0.159078
390 0.188373
395 0.225823
400 0.259923
405 0.271811
410 0.233838
415 0.281276
420 0.185228
425 0.172065
430 0.299185
435 0.241268
440 0.256737
445 0.294429
450 0.239083
455 0.214439
460 0.313966
465 0.271993
470 0.209975
475 0.302663
480 0.31834
485 0.413085
490 0.383731
495 0.472503
500 0.703596
505 23.1463
510 330.474
515 468.379
520 113.398
525 14.0599
530 2.59313
535 1.50313
540 1.2804
545 1.19526
550 1.17694
555 1.35054
560 1.02448
565 1.00226
570 0.791745
575 0.708595
580 0.665253
585 0.525392
590 0.436086
595 0.585838
600 0.0666662
Ex : 523
200 0.176881
205 0.19013
210 0.161
215 0.17693
220 0.226872
225 0.215933
230 0.203141
235 0.189833
240 0.18555
245 0.167284
250 0.146518
255 0.262631
260 0.186237
265 0.177004
270 0.126966
275 0.195053
280 0.234855
285 0.238672
290 0.168605
295 0.20662
300 0.223292
305 0.140165
310 0.214262
315 0.178589
320 0.16173
325 0.207567
330 0.156205
335 0.207069
340 0.249471
345 0.261447
350 0.184475
355 0.203985
360 0.206267
365 0.174061
370 0.188278
375 0.15295
380 0.211464
385 0.153958
390 0.151809
395 0.168515
400 0.177665
405 0.227757
410 0.262721
415 0.215738
420 0.183698
425 0.208675
430 0.220981
435 0.2056
440 0.217815
445 0.224946
450 0.238764
455 0.209823
460 0.267343
465 0.281452
470 0.285198
475 0.330602
480 0.277086
485 0.328376
490 0.454266
495 0.406929
500 0.509974
505 0.826213
510 21.0094
515 317.042
520 463.511
525 116.761
530 14.7531
535 2.75279
540 1.47937
545 1.18037
550 1.1158
555 1.1444
560 1.15608
565 1.01235
570 0.828674
575 0.702369
580 0.621639
585 0.567277
590 0.533264
595 0.438571
600 0.135379
Ex : 528
200 0.204306
205 0.209766
210 0.22078
215 0.153553
220 0.143374
225 0.191198
230 0.157985
235 0.129396
240 0.217737
245 0.205958
250 0.186741
255 0.157093
260 0.234794
265 0.255004
270 0.18677
275 0.237918
280 0.268069
285 0.193835
290 0.20858
295 0.178196
300 0.19632
305 0.178957
310 0.21503
315 0.218443
320 0.156576
325 0.18083
330 0.221745
335 0.23041
340 0.162713
345 0.239621
350 0.243372
355 0.200142
360 0.240632
365 0.219537
370 0.228883
375 0.243793
380 0.19909
385 0.209084
390 0.172976
395 0.196523
400 0.258218
405 0.201381
410 0.186979
415 0.220617
420 0.184933
425 0.246229
430 0.245901
435 0.216389
440 0.181531
445 0.192861
450 0.274972
455 0.219104
460 0.309049
465 0.256859
470 0.282112
475 0.277561
480 0.325795
485 0.254474
490 0.361062
495 0.381729
500 0.427242
505 0.645898
510 0.781306
515 19.0653
520 305.729
525 453.918
530 114.201
535 14.2868
540 2.61052
545 1.31911
550 1.17582
555 0.960105
560 0.936239
565 0.99965
570 0.857834
575 0.697878
580 0.642416
585 0.606427
590 0.398117
595 0.449721
600 0.335039
Ex : 533
200 0.149916
205 0.22739
210 0.25207
215 0.237041
220 0.161209
225 0.127623
230 0.137774
235 0.135637
240 0.222588
245 0.188855
250 0.178985
255 0.191754
260 0.241674
265 0.218269
270 0.234849
275 0.155277
280 0.181658
285 0.231678
290 0.197724
295 0.186845
300 0.150367
305 0.242017
310 0.210857
315 0.203027
320 0.169312
325 0.224807
330 0.208114
335 0.186182
340 0.184698
345 0.208785
350 0.306732
355 0.173579
360 0.227643
365 0.183278
370 0.182559
375 0.263363
380 0.200535
385 0.28253
390 0.274293
395 0.252391
400 0.175116
405 0.218337
410 0.216013
415 0.264006
420 0.297904
425 0.181257
430 0.279896
435 0.253258
440 0.213877
445 0.261924
450 0.186276
455 0.23077
460 0.252215
465 0.255292
470 0.269712
475 0.270668
480 0.341082
485 0.398468
490 0.353892
495 0.351228
500 0.410692
505 0.35952
510 0.498422
515 0.710282
520 18.7903
525 294.302
530 440.559
535 112.722
540 14.0592
545 2.51374
550 1.268
555 0.920554
560 0.862704
565 0.694088
570 0.811286
575 0.769423
580 0.608449
585 0.58193
590 0.354539
595 0.360963
600 0.414719
Ex : 538
200 0.265255
205 0.276472
210 0.283127
215 0.169076
220 0.159896
225 0.183366
230 0.198443
235 0.162726
240 0.201093
245 0.266053
250 0.304224
255 0.202823
260 0.172381
265 0.264237
270 0.22243
275 0.196647
280 0.232156
285 0.375013
290 0.233413
295 0.272847
300 0.247648
305 0.26238
310 0.233947
315 0.277755
320 0.248456
325 0.206153
330 0.253753
335 0.1967
340 0.189022
345 0.187384
350 0.250488
355 0.241411
360 0.265691
365 0.284402
370 0.260505
375 0.275819
380 0.248957
385 0.187445
390 0.210166
395 0.275782
400 0.253916
405 0.205993
410 0.260546
415 0.210485
420 0.253047
425 0.256262
430 0.24434
435 0.345572
440 0.234461
445 0.236912
450 0.218327
455 0.279691
460 0.272865
465 0.208765
470 0.28755
475 0.338166
480 0.324263
485 0.282845
490 0.306505
495 0.340229
500 0.319054
505 0.309414
510 0.44779
515 0.619115
520 0.730422
525 15.8276
530 273.16
535 427.102
540 114.765
545 14.2604
550 2.51942
555 1.05275
560 0.942583
565 0.754313
570 0.758301
575 0.710197
580 0.609614
585 0.529242
590 0.460481
595 0.388813
600 0.177176
Ex : 543
200 0.242643
205 0.330838
210 0.140335
215 0.210378
220 0.248288
225 0.1746
230 0.309166
235 0.184621
240 0.20262
245 0.227641
250 0.186911
255 0.11151
260 0.223327
265 0.205251
270 0.258413
275 0.156197
280 0.194359
285 0.198777
290 0.20126
295 0.218997
300 0.224441
305 0.186625
310 0.212935
315 0.243345
320 0.168438
325 0.281195
330 0.218446
335 0.234086
340 0.177116
345 0.24543
350 0.21025
355 0.205531
360 0.226863
365 0.197917
370 0.189915
375 0.199167
380 0.177041
385 0.231263
390 0.211323
395 0.230978
400 0.23605
405 0.270568
410 0.1929
415 0.174326
420 0.197248
425 0.208018
430 0.297178
435 0.19278
440 0.239721
445 0.243162
450 0.231705
455 0.213307
460 0.221019
465 0.210641
470 0.278904
475 0.295611
480 0.319931
485 0.246707
490 0.269203
495 0.287192
500 0.276058
505 0.279809
510 0.319951
515 0.468118
520 0.753437
525 0.742483
530 15.0531
535 266.776
540 425.999
545 117.486
550 14.5037
555 2.50326
560 0.976414
565 0.897575
570 0.604254
575 0.65448
580 0.490127
585 0.463794
590 0.512052
595 0.523293
600 0.109901
Ex : 548
200 0.23323
205 0.164234
210 0.195207
215 0.189334
220 0.30471
225 0.218006
230 0.239756
235 0.218367
240 0.169908
245 0.311059
250 0.313669
255 0.217752
260 0.250914
265 0.234395
270 0.281252
275 0.148887
280 0.17887
285 0.301574
290 0.286983
295 0.216909
300 0.255022
305 0.272353
310 0.22596
315 0.444696
320 0.181024
325 0.216315
330 0.228371
335 0.193349
340 0.234043
345 0.216008
350 0.278655
355 0.263912
360 0.182929
365 0.193512
370 0.199812
375 0.155961
380 0.236895
385 0.257406
390 0.27438
395 0.261999
400 0.21571
405 0.269365
410 0.201363
415 0.242848
420 0.294156
425 0.283776
430 0.304651
435 0.296144
440 0.182416
445 0.242465
450 0.219511
455 0.334323
460 0.293252
465 0.261952
470 0.244439
475 0.293291
480 0.310858
485 0.340627
490 0.371354
495 0.31681
500 0.230389
505 0.386745
510 0.335042
515 0.369843
520 0.388163
525 0.498721
530 0.85115
535 15.6853
540 265.456
545 422.655
550 117.247
555 14.3773
560 2.39798
565 1.09029
570 0.729077
575 0.579156
580 0.488762
585 0.424453
590 0.381253
595 0.361962
600 0.0411899
Ex : 553
200 0.239579
205 0.193434
210 0.134148
215 0.398969
220 0.226278
225 0.201211
230 0.232996
235 0.235705
240 0.288251
245 0.262195
250 0.258576
255 0.190483
260 0.289539
265 0.259268
270 0.252312
275 0.191987
280 0.208978
285 0.214523
290 0.216937
295 0.238247
300 0.22436
305 0.208641
310 0.279262
315 0.211078
320 0.26529
325 0.205316
330 0.181282
335 0.180316
340 0.248868
345 0.254826
350 0.182163
355 0.243307
360 0.200662
365 0.272644
370 0.209733
375 0.336863
380 0.219763
385 0.235161
390 0.287054
395 0.301846
400 0.244885
405 0.334758
410 0.3082
415 0.247108
420 0.24748
425 0.292826
430 0.309817
435 0.246446
440 0.294662
445 0.301558
450 0.303543
455 0.278013
460 0.289224
465 0.269199
470 0.268521
475 0.258673
480 0.296984
485 0.304548
490 0.334148
495 0.331764
500 0.241414
505 0.404857
510 0.327603
515 0.353598
520 0.368977
525 0.391883
530 0.441352
535 0.709591
540 13.2401
545 248.506
550 401.944
555 112.993
560 13.8431
565 2.19651
570 0.845511
575 0.580671
580 0.387329
585 0.515751
590 0.462154
595 0.469264
600 0.357699
Ex : 558
200 0.283985
205 0.196413
210 0.283705
215 0.266399
220 0.319081
225 0.200123
230 0.265485
235 0.199385
240 0.200009
245 0.195206
250 0.221938
255 0.23868
260 0.20052
265 0.195169
270 0.184919
275 0.295127
280 0.179363
285 0.204175
290 0.228364
295 0.250843
300 0.164792
305 0.283894
310 0.199884
315 0.197535
320 0.1958
325 0.195005
330 0.285255
335 0.323211
340 0.194643
345 0.288975
350 0.228701
355 0.227543
360 0.250548
365 0.277955
370 0.34512
375 0.312624
380 0.257985
385 0.266923
390 0.362107
395 0.344744
400 0.233125
405 0.258004
410 0.206469
415 0.298168
420 0.328317
425 0.255313
430 0.25007
435 0.185745
440 0.309885
445 0.257444
450 0.282157
455 0.331108
460 0.191053
465 0.365778
470 0.262146
475 0.341793
480 0.27947
485 0.331571
490 0.273397
495 0.19413
500 0.366586
505 0.311683
510 0.300813
515 0.328793
520 0.547257
525 0.491894
530 0.433739
535 0.424178
540 0.739818
545 12.7728
550 231.326
555 392.951
560 112.965
565 13.8876
570 2.1762
575 0.718224
580 0.589434
585 0.441528
590 0.313048
595 0.304186
600 0.450365
Ex : 563
200 0.207959
205 0.18285
210 0.221849
215 0.198586
220 0.15099
225 0.299261
230 0.193797
235 0.158235
240 0.186141
245 0.187029
250 0.274737
255 0.15083
260 0.353757
265 0.243256
270 0.166121
275 0.255298
280 0.365288
285 0.223347
290 0.288167
295 0.212406
300 0.225916
305 0.197218
310 0.175429
315 0.254096
320 0.255447
325 0.17284
330 0.172263
335 0.145598
340 0.217836
345 0.198549
350 0.294728
355 0.277436
360 0.198138
365 0.18216
370 0.270208
375 0.258813
380 0.285605
385 0.340752
390 0.332807
395 0.267725
400 0.318384
405 0.306993
410 0.192491
415 0.234861
420 0.227291
425 0.225764
430 0.228464
435 0.337283
440 0.23892
445 0.28502
450 0.306153
455 0.404798
460 0.325445
465 0.292442
470 0.313723
475 0.380199
480 0.22868
485 0.240321
490 0.331103
495 0.342443
500 0.260998
505 0.192309
510 0.326529
515 0.245941
520 0.369139
525 0.44243
530 0.376358
535 0.547097
540 0.495176
545 0.700614
550 12.3457
555 226.544
560 373.381
565 105.685
570 12.9857
575 2.12953
580 0.70961
585 0.476149
590 0.473756
595 0.324096
600 1.00885
Ex : 568
200 0.272698
205 0.262357
210 0.181752
215 0.211257
220 0.199518
225 0.258818
230 0.229444
235 0.275699
240 0.271294
245 0.193212
250 0.341166
255 0.244401
260 0.215658
265 0.301882
270 0.313744
275 0.193808
280 0.299563
285 0.281216
290 0.231129
295 0.270578
300 0.246528
305 0.247359
310 0.240483
315 0.192143
320 0.28889
325 0.220597
330 0.28306
335 0.355563
340 0.290027
345 0.195587
350 0.317239
355 0.237985
360 0.26045
365 0.318578
370 0.280241
375 0.311626
380 0.295853
385 0.296361
390 0.3312
395 0.313817
400 0.270319
405 0.374282
410 0.264285
415 0.216911
420 0.289064
425 0.248545
430 0.18519
435 0.237686
440 0.341426
445 0.265097
450 0.318917
455 0.206065
460 0.244613
465 0.379066
470 0.233957
475 0.274384
480 0.342513
485 0.338214
490 0.286579
495 0.238307
500 0.27484
505 0.272968
510 0.300091
515 0.252112
520 0.336733
525 0.387719
530 0.417513
535 0.414501
540 0.400521
545 0.49305
550 0.588702
555 9.22811
560 201.943
565 363.923
570 109.697
575 13.3429
580 1.98666
585 0.658258
590 0.482326
595 0.352769
600 0.175128
Ex : 573
200 0.181744
205 0.288476
210 0.270456
215 0.267579
220 0.220236
225 0.260901
230 0.287064
235 0.239073
240 0.232947
245 0.25419
250 0.216426
255 0.196756
260 0.196099
265 0.268186
270 0.189395
275 0.158316
280 0.250062
285 0.212974
290 0.205577
295 0.284254
300 0.432829
305 0.282977
310 0.367318
315 0.221441
320 0.286205
325 0.202665
330 0.2411
335 0.304764
340 0.250871
345 0.268897
350 0.266603
355 0.22296
360 0.294955
365 0.285836
370 0.257239
375 0.241689
380 0.232079
385 0.357489
390 0.331249
395 0.270602
400 0.225683
405 0.212503
410 0.238967
415 0.22416
420 0.261858
425 0.286707
430 0.216378
435 0.15371
440 0.199233
445 0.278831
450 0.302277
455 0.330909
460 0.343259
465 0.254324
470 0.389896
475 0.260065
480 0.251723
485 0.387707
490 0.29579
495 0.272643
500 0.331674
505 0.280549
510 0.315127
515 0.39767
520 0.287195
525 0.329579
530 0.268275
535 0.315514
540 0.257636
545 0.496684
550 0.434648
555 0.57675
560 8.49842
565 178.498
570 334.723
575 102.257
580 12.7201
585 1.9567
590 0.603582
595 0.460677
600 0.136824
Ex : 578
200 0.16166
205 0.172255
210 0.28814
215 0.209851
220 0.28172
225 0.267726
230 0.270322
235 0.198233
240 0.200602
245 0.211938
250 0.274947
255 0.247759
260 0.26317
265 0.269742
270 0.300907
275 0.250078
280 0.169624
285 0.193684
290 0.257499
295 0.223178
300 0.212067
305 0.185301
310 0.221846
315 0.217318
320 0.200275
325 0.257518
330 0.234833
335 0.242987
340 0.265696
345 0.217489
350 0.251304
355 0.240477
360 0.193946
365 0.312643
370 0.327063
375 0.287619
380 0.298725
385 0.312324
390 0.292386
395 0.290486
400 0.239302
405 0.246814
410 0.346942
415 0.274496
420 0.370482
425 0.313495
430 0.215242
435 0.17412
440 0.256963
445 0.254433
450 0.2727
455 0.270575
460 0.292412
465 0.308874
470 0.245414
475 0.32596
480 0.310369
485 0.222654
490 0.326027
495 0.341211
500 0.414235
505 0.207226
510 0.324234
515 0.409613
520 0.434457
525 0.435427
530 0.366636
535 0.312539
540 0.308853
545 0.460316
550 0.341303
555 0.490577
560 0.491693
565 7.03319
570 154.044
575 289.619
580 89.2164
585 10.9324
590 1.67332
595 0.558682
600 0.856167
Ex : 583
200 0.191468
205 0.220959
210 0.226029
215 0.161467
220 0.162945
225 0.403197
230 0.230629
235 0.206906
240 0.260487
245 0.257847
250 0.23498
255 0.262827
260 0.17947
265 0.187238
270 0.198791
275 0.308819
280 0.247886
285 0.20162
290 0.232029
295 0.164792
300 0.15767
305 0.195244
310 0.271659
315 0.3161
320 0.173052
325 0.18355
330 0.266775
335 0.191709
340 0.234566
345 0.341444
350 0.281699
355 0.207773
360 0.229063
365 0.285934
370 0.303123
375 0.228447
380 0.272607
385 0.227057
390 0.293043
395 0.282208
400 0.268791
405 0.24452
410 0.354937
415 0.286858
420 0.46718
425 0.276283
430 0.216679
435 0.2553
440 0.27607
445 0.333037
450 0.282236
455 0.29354
460 0.336793
465 0.283663
470 0.272189
475 0.287765
480 0.405917
485 0.311166
490 0.374644
495 0.256439
500 0.33538
505 0.333872
510 0.29801
515 0.201203
520 0.298225
525 0.330507
530 0.332042
535 0.29059
540 0.338435
545 0.340614
550 0.326987
555 0.38657
560 0.587108
565 0.581326
570 6.0128
575 137.574
580 249.582
585 72.3897
590 9.07861
595 1.45805
600 0.451792
Ex : 588
200 0.230253
205 0.189964
210 0.264954
215 0.252414
220 0.193742
225 0.22238
230 0.2725
235 0.217512
240 0.2556
245 0.270305
250 0.226022
255 0.161163
260 0.286872
265 0.289869
270 0.368777
275 0.495321
280 0.253946
285 0.212575
290 0.322323
295 0.251602
300 0.19565
305 0.267203
310 0.277333
315 0.234071
320 0.169939
325 0.290667
330 0.215213
335 0.177035
340 0.220047
345 0.217872
350 0.238133
355 0.354578
360 0.301202
365 0.292607
370 0.272562
375 0.257533
380 0.370922
385 0.280821
390 0.247915
395 0.254955
400 0.306266
405 0.257272
410 0.239602
415 0.253567
420 0.261468
425 0.402285
430 0.33014
435 0.252339
440 0.259721
445 0.314204
450 0.227091
455 0.234453
460 0.295121
465 0.297992
470 0.27707
475 0.265039
480 0.269375
485 0.309574
490 0.26834
495 0.384295
500 0.243918
505 0.255371
510 0.401256
515 0.307092
520 0.248352
525 0.292099
530 0.314312
535 0.313074
540 0.320517
545 0.249819
550 0.380017
555 0.507213
560 0.374096
565 0.416532
570 0.389771
575 5.67632
580 116.723
585 217.279
590 63.7015
595 7.69904
600 1.03367
Ex : 593
200 0.233438
205 0.209442
210 0.155025
215 0.210638
220 0.278113
225 0.328535
230 0.226944
235 0.228893
240 0.26096
245 0.255111
250 0.258207
255 0.239347
260 0.288972
265 0.358728
270 0.262373
275 0.261545
280 0.257888
285 0.310142
290 0.292276
295 0.281483
300 0.261185
305 0.332068
310 0.260208
315 0.194144
320 0.240598
325 0.236729
330 0.243252
335 0.280504
340 0.400442
345 0.28744
350 0.187956
355 0.287167
360 0.370083
365 0.240091
370 0.234272
375 0.31687
380 0.381309
385 0.325425
390 0.239494
395 0.236962
400 0.264579
405 0.268441
410 0.302743
415 0.31525
420 0.269969
425 0.212368
430 0.258701
435 0.286825
440 0.314008
445 0.295338
450 0.418293
455 0.302359
460 0.236056
465 0.26456
470 0.254338
475 0.252604
480 0.316082
485 0.246829
490 0.32228
495 0.334102
500 0.322482
505 0.238145
510 0.302559
515 0.287303
520 0.198057
525 0.336169
530 0.215097
535 0.251658
540 0.376207
545 0.315856
550 0.48276
555 0.315045
560 0.37194
565 0.358404
570 0.37391
575 0.490818
580 4.57061
585 99.8142
590 182.943
595 53.0776
600 8.31393
Ex : 598
200 0.176165
205 0.225191
210 0.265117
215 0.397844
220 0.232706
225 0.296965
230 0.216611
235 0.289593
240 0.179532
245 0.178131
250 0.201985
255 0.305006
260 0.288649
265 0.293201
270 0.327847
275 0.217517
280 0.231063
285 0.308378
290 0.311309
295 0.227079
300 0.19669
305 0.216701
310 0.251195
315 0.202624
320 0.173493
325 0.313243
330 0.162543
335 0.292913
340 0.172247
345 0.396104
350 0.353177
355 0.356323
360 0.21492
365 0.183815
370 0.325211
375 0.264688
380 0.325121
385 0.202275
390 0.212103
395 0.227426
400 0.438337
405 0.221598
410 0.243662
415 0.277581
420 0.341561
425 0.223163
430 0.366243
435 0.320463
440 0.357391
445 0.312748
450 0.203564
455 0.315058
460 0.328267
465 0.235762
470 0.231802
475 0.286368
480 0.539778
485 0.39609
490 0.399796
495 0.303478
500 0.322153
505 0.467749
510 0.397231
515 0.389608
520 0.309904
525 0.319442
530 0.324023
535 0.307445
540 0.359047
545 0.388793
550 0.309915
555 0.295064
560 0.311025
565 0.301048
570 0.378664
575 0.479543
580 0.417946
585 4.70185
590 96.8056
595 168.008
600 99.2428
Ex : 603
200 0.288139
205 0.259131
210 0.282075
215 0.178183
220 0.232814
225 0.273193
230 0.218736
235 0.220968
240 0.251924
245 0.278964
250 0.238681
255 0.220276
260 0.189519
265 0.276051
270 0.279673
275 0.262008
280 0.324197
285 0.291766
290 0.311557
295 0.304676
300 0.313218
305 0.331104
310 0.395939
315 0.360131
320 0.299188
325 0.296188
330 0.247191
335 0.271182
340 0.313965
345 0.23775
350 0.296213
355 0.223095
360 0.301279
365 0.353527
370 0.332763
375 0.226414
380 0.218764
385 0.229154
390 0.234014
395 0.204913
400 0.324879
405 0.347249
410 0.307161
415 0.305643
420 0.267139
425 0.283524
430 0.301293
435 0.331373
440 0.286499
445 0.287189
450 0.270873
455 0.293849
460 0.383034
465 0.456861
470 0.326845
475 0.291035
480 0.254355
485 0.277089
490 0.220969
495 0.21547
500 0.284818
505 0.232888
510 0.313125
515 0.214387
520 0.335304
525 0.293436
530 0.33526
535 0.308841
540 0.40492
545 0.385658
550 0.366355
555 0.359768
560 0.277932
565 0.328168
570 0.359338
575 0.253508
580 0.424693
585 0.415897
590 3.72085
595 75.9425
600 147.366
