File format V 1.0
jeu. 12. janv. 19:18:20 2017
Operator : 
Comments : 

=============================================
SpectroFluorometer parameters
Mode : 3D measurement
Data : Fluorescence
Phospho. : Ordinary
Spectrum : Fluorescence

Scan speed : 2400 nm/mn
Response : 100 ms
PM Voltage : 700 V
Shutter : On

Lambda Ex. Start : 203
Lambda Ex. End : 603
Lambda Ex. Step : 5
Ex. Slit : 5 nm

Lambda Em. Start : 200
Lambda Em. End : 600
Lambda Em. Step : 5
Em. Slit : 5 nm

Repetition : 1
Decal lambda em : 10
=============================================
DATA
Ex : 203
200 5.67464
205 8.80445
210 6.02085
215 7.37689
220 8.95936
225 5.7813
230 6.07068
235 7.70991
240 8.95116
245 6.48
250 6.09315
255 9.24659
260 7.63175
265 6.95493
270 5.66336
275 7.42527
280 6.98477
285 7.56262
290 10.168
295 6.9956
300 9.28814
305 8.00991
310 7.59244
315 5.78637
320 7.24467
325 9.00775
330 10.0474
335 8.00806
340 7.79033
345 5.70999
350 8.5949
355 10.1462
360 8.62972
365 8.38944
370 5.82667
375 7.08803
380 5.01817
385 7.23762
390 5.55561
395 6.60353
400 5.82777
405 6.92146
410 7.38985
415 6.85446
420 8.29602
425 6.97889
430 7.12485
435 6.30946
440 5.89552
445 7.44433
450 7.92782
455 6.46146
460 8.0875
465 5.0783
470 7.70568
475 5.44126
480 7.84716
485 4.29878
490 9.1083
495 7.64122
500 7.03953
505 8.28506
510 8.09792
515 6.34576
520 5.55307
525 8.26457
530 6.63379
535 7.91303
540 8.93539
545 8.0699
550 8.46396
555 8.38134
560 7.95392
565 6.7382
570 6.45736
575 8.48182
580 8.04614
585 7.21945
590 7.35239
595 7.26575
600 0.826815
Ex : 208
200 6.19266
205 7.17055
210 6.82732
215 8.09976
220 5.59101
225 6.41707
230 5.33428
235 9.07368
240 6.90903
245 5.3354
250 8.31196
255 5.3048
260 11.717
265 8.22287
270 6.40827
275 5.97639
280 5.65471
285 5.90967
290 6.62575
295 6.42308
300 6.40263
305 9.43859
310 7.60215
315 7.49236
320 6.49677
325 6.74249
330 8.56316
335 7.49288
340 11.1479
345 7.86448
350 9.70943
355 5.55373
360 5.47446
365 8.42243
370 5.62873
375 8.02556
380 5.30539
385 9.44416
390 6.70471
395 7.84346
400 5.08899
405 6.7137
410 7.61596
415 7.37303
420 10.2254
425 10.8643
430 7.76483
435 7.81452
440 7.13122
445 9.02627
450 6.56489
455 8.04084
460 5.18256
465 8.3921
470 7.94615
475 7.56651
480 8.10984
485 4.23248
490 9.22034
495 5.97307
500 6.41933
505 5.96156
510 6.78568
515 8.09935
520 7.85823
525 6.95136
530 6.77506
535 6.32795
540 7.01636
545 8.57345
550 5.76721
555 5.19651
560 4.25661
565 7.12896
570 9.56903
575 8.38625
580 7.18772
585 6.42519
590 5.99326
595 7.58145
600 19.8275
Ex : 213
200 7.89904
205 6.29905
210 6.81372
215 6.25492
220 8.2212
225 6.92491
230 6.29515
235 6.20113
240 6.77494
245 6.56473
250 5.64263
255 4.23291
260 7.25544
265 6.95746
270 4.78399
275 7.51416
280 6.54327
285 6.78851
290 4.93972
295 6.79099
300 6.66485
305 5.23677
310 5.26299
315 6.51941
320 8.43856
325 10.3656
330 8.97902
335 7.51782
340 6.28512
345 6.93096
350 7.61081
355 10.6726
360 7.46053
365 5.60563
370 9.05236
375 7.71427
380 6.9066
385 10.7427
390 7.02977
395 7.74989
400 6.12055
405 9.38129
410 8.68105
415 8.03041
420 9.88108
425 7.01228
430 8.04154
435 7.82916
440 5.02511
445 8.70994
450 6.82602
455 8.48381
460 8.48359
465 9.57792
470 9.57653
475 8.3054
480 7.01896
485 9.39718
490 6.20854
495 4.83758
500 6.0529
505 7.36909
510 7.30117
515 8.43229
520 11.5295
525 6.92047
530 7.35612
535 6.21257
540 10.5745
545 8.72516
550 6.53273
555 5.58681
560 8.56119
565 8.40826
570 6.02674
575 6.5772
580 6.35412
585 7.47349
590 6.69268
595 5.07647
600 13.1618
Ex : 218
200 9.73832
205 8.4399
210 5.41629
215 6.56721
220 8.22893
225 7.39012
230 5.77212
235 8.54406
240 7.97856
245 5.40411
250 5.38683
255 4.69465
260 6.84483
265 5.58799
270 5.99472
275 5.25679
280 6.70582
285 5.99898
290 7.08302
295 6.45193
300 6.85821
305 5.38949
310 8.36434
315 7.77787
320 6.9353
325 5.97132
330 6.47236
335 6.93561
340 7.6204
345 7.75061
350 8.86206
355 9.43408
360 6.95136
365 8.41077
370 6.25754
375 7.08039
380 7.14316
385 7.46558
390 6.72416
395 8.55881
400 8.40474
405 6.16125
410 6.19981
415 7.00965
420 7.86186
425 6.85901
430 11.0101
435 7.94913
440 9.06942
445 8.66671
450 7.22343
455 7.51244
460 6.14243
465 7.2065
470 7.78012
475 6.88184
480 5.11703
485 9.17289
490 11.6911
495 9.39023
500 7.79354
505 6.27653
510 6.53727
515 10.9663
520 6.41676
525 7.61842
530 6.78477
535 7.40821
540 5.70871
545 8.05916
550 8.42475
555 7.49395
560 7.99354
565 6.3215
570 8.11522
575 5.56
580 5.767
585 5.38673
590 6.18048
595 6.00366
600 10.2542
Ex : 223
200 8.52683
205 6.92055
210 7.41618
215 6.15321
220 5.16421
225 6.25676
230 8.18748
235 6.18958
240 7.41086
245 5.29099
250 6.87431
255 7.63869
260 7.81919
265 6.89452
270 6.6327
275 6.1056
280 8.90024
285 4.79781
290 5.15267
295 6.49033
300 8.39671
305 8.72258
310 7.2559
315 7.4535
320 6.32767
325 6.77913
330 7.26033
335 6.79384
340 6.84277
345 6.42978
350 5.45114
355 5.30338
360 4.41786
365 6.93665
370 6.09018
375 8.86096
380 6.19165
385 7.68293
390 6.83178
395 6.33556
400 5.59718
405 8.53458
410 7.02977
415 7.67355
420 6.91883
425 6.70253
430 6.56407
435 8.09159
440 8.53865
445 6.90338
450 7.70767
455 5.69933
460 7.77117
465 6.99832
470 6.89013
475 5.80305
480 9.94505
485 7.5182
490 8.1657
495 6.81345
500 5.66961
505 7.44935
510 6.69748
515 6.55687
520 5.76097
525 4.46505
530 7.92154
535 5.93574
540 4.60373
545 7.00675
550 7.39102
555 7.86566
560 5.45559
565 9.91354
570 7.33155
575 5.53589
580 8.13892
585 6.73102
590 7.67361
595 7.80215
600 3.54647
Ex : 228
200 6.23041
205 7.05881
210 7.10895
215 4.97652
220 8.28316
225 7.68362
230 4.09584
235 5.01882
240 7.65669
245 8.05352
250 5.29695
255 5.98069
260 5.72609
265 7.82675
270 6.97306
275 6.17825
280 5.00016
285 5.13951
290 5.62541
295 7.57249
300 6.82757
305 6.39492
310 5.87952
315 6.39819
320 6.34585
325 6.10294
330 6.38665
335 6.61574
340 8.45351
345 9.38091
350 5.98817
355 9.34387
360 6.68237
365 8.08526
370 6.71767
375 7.52125
380 6.20691
385 7.56043
390 7.91339
395 6.16185
400 6.97847
405 5.2722
410 4.68282
415 7.95437
420 7.63871
425 7.87627
430 5.62011
435 7.72144
440 6.44733
445 5.87975
450 6.39328
455 5.84825
460 5.86351
465 6.56313
470 5.8415
475 5.29
480 5.45632
485 6.20836
490 7.38994
495 6.26847
500 7.81483
505 6.56425
510 6.34115
515 7.45196
520 6.64861
525 6.69541
530 7.74567
535 6.65645
540 6.017
545 5.50016
550 6.87744
555 6.92245
560 4.28633
565 6.11945
570 7.87256
575 5.82283
580 5.95151
585 6.13503
590 5.34971
595 9.53807
600 1.0854
Ex : 233
200 5.41667
205 6.70951
210 5.40589
215 5.30661
220 8.30153
225 6.24732
230 6.03585
235 4.26712
240 6.08207
245 6.30474
250 7.46135
255 5.23148
260 5.56727
265 4.18217
270 4.62056
275 6.99698
280 4.93438
285 5.64824
290 8.12748
295 7.34397
300 7.18876
305 5.46402
310 6.77917
315 5.5304
320 6.69127
325 5.54145
330 6.38905
335 4.17838
340 7.85274
345 6.95374
350 7.17511
355 6.07643
360 5.95308
365 4.66908
370 7.4806
375 6.8999
380 7.20515
385 6.54586
390 6.31361
395 7.5271
400 7.24796
405 6.38839
410 6.57294
415 4.79536
420 5.53253
425 7.04828
430 3.54124
435 4.32878
440 4.55782
445 5.07308
450 6.25965
455 5.62167
460 7.07451
465 6.75095
470 4.92938
475 5.96945
480 5.73286
485 7.0205
490 6.25364
495 6.35515
500 7.53711
505 5.55496
510 6.76481
515 6.24251
520 9.51585
525 6.05742
530 6.32163
535 7.97657
540 5.70769
545 7.36407
550 6.23162
555 5.23074
560 5.58495
565 7.01244
570 5.90868
575 7.8035
580 4.9334
585 5.71609
590 6.11161
595 6.4799
600 5.70013
Ex : 238
200 7.82609
205 4.70962
210 5.30017
215 5.39001
220 5.2159
225 6.50513
230 6.59803
235 5.51929
240 5.90029
245 5.85469
250 7.1245
255 5.79921
260 7.42827
265 6.74604
270 8.68621
275 6.41094
280 4.97399
285 5.11634
290 6.06342
295 4.11019
300 6.4635
305 4.91882
310 7.069
315 4.91017
320 4.5397
325 5.80166
330 7.03349
335 6.98336
340 5.08745
345 6.39086
350 5.13376
355 5.5307
360 4.66962
365 5.30271
370 6.00121
375 6.69172
380 5.51126
385 5.0906
390 8.51644
395 7.07452
400 6.8037
405 7.52115
410 7.15259
415 6.17816
420 5.10916
425 5.6916
430 6.70034
435 5.22784
440 3.90524
445 7.06725
450 7.96972
455 7.31192
460 8.24584
465 6.11923
470 3.81497
475 6.80219
480 6.7027
485 5.77346
490 7.07384
495 7.67492
500 5.31824
505 7.24475
510 5.23073
515 4.31594
520 4.99112
525 5.37677
530 4.32819
535 4.07763
540 4.88473
545 5.70648
550 6.22367
555 5.15288
560 5.51242
565 6.85233
570 7.11032
575 5.55415
580 6.51507
585 4.24031
590 6.46705
595 5.49344
600 8.15786
Ex : 243
200 6.76846
205 5.08565
210 6.67021
215 3.97346
220 4.96347
225 3.91024
230 3.9305
235 5.35999
240 5.66671
245 4.40566
250 4.04312
255 5.52062
260 6.34327
265 5.20517
270 5.11679
275 6.10819
280 4.22503
285 5.4311
290 7.18968
295 3.92464
300 5.76383
305 6.12989
310 5.40295
315 5.08156
320 5.74575
325 4.69518
330 5.95449
335 4.01156
340 4.64844
345 5.13786
350 4.71285
355 4.66079
360 6.21814
365 3.93338
370 4.66778
375 5.19873
380 6.92826
385 5.2581
390 7.2386
395 5.82487
400 4.88678
405 4.92336
410 4.43272
415 4.59081
420 5.49905
425 6.9291
430 6.47446
435 5.48682
440 4.33252
445 4.80235
450 6.15498
455 3.96234
460 4.05378
465 7.09097
470 4.29696
475 6.12378
480 6.10803
485 4.90224
490 4.45346
495 5.99553
500 4.55633
505 7.02893
510 3.97023
515 4.51228
520 6.32784
525 5.3868
530 5.25771
535 3.47609
540 4.31383
545 4.9656
550 5.07315
555 6.01352
560 4.9455
565 4.52177
570 5.71702
575 5.56644
580 5.21483
585 3.26127
590 4.80854
595 6.43274
600 0.732022
Ex : 248
200 6.52469
205 3.83604
210 4.32503
215 5.69344
220 3.23039
225 6.05997
230 3.91143
235 4.54759
240 5.99435
245 4.41742
250 5.77938
255 3.92452
260 4.38113
265 4.42092
270 4.0479
275 4.58711
280 3.09441
285 4.40374
290 4.54336
295 3.45823
300 5.11086
305 4.96112
310 3.37087
315 4.56343
320 4.64771
325 2.71738
330 3.46139
335 2.43838
340 5.00773
345 4.41367
350 3.79766
355 3.5286
360 5.37637
365 4.80858
370 5.10784
375 5.22063
380 4.50084
385 5.55491
390 6.4883
395 6.12476
400 4.92894
405 4.61362
410 3.79964
415 5.8204
420 4.7077
425 5.81396
430 6.56416
435 3.76442
440 5.55074
445 6.61146
450 5.89571
455 4.25856
460 4.18203
465 4.60881
470 3.81847
475 4.33817
480 5.26426
485 6.0626
490 4.80502
495 5.78598
500 4.99035
505 5.12243
510 3.87491
515 4.01819
520 5.99671
525 4.76759
530 3.78902
535 3.74004
540 5.37128
545 4.52002
550 4.22772
555 4.23629
560 4.22718
565 4.3522
570 4.86064
575 2.72364
580 3.95604
585 4.06188
590 4.64157
595 4.76971
600 12.7281
Ex : 253
200 4.64083
205 3.19802
210 3.70848
215 3.74528
220 3.00232
225 3.76408
230 2.99642
235 2.96615
240 3.16775
245 2.90062
250 3.14694
255 3.61727
260 3.97772
265 4.12506
270 4.84886
275 4.80649
280 2.79901
285 3.34359
290 3.79225
295 4.99195
300 3.69099
305 5.10623
310 3.27403
315 4.61603
320 4.07256
325 3.49339
330 3.92369
335 3.87613
340 4.2892
345 4.22047
350 3.64934
355 4.72814
360 4.27979
365 5.58503
370 4.16849
375 3.89525
380 4.86968
385 3.75538
390 4.68923
395 5.54846
400 5.18569
405 4.31027
410 3.71964
415 5.71525
420 3.85363
425 5.36975
430 4.80187
435 3.78038
440 4.06644
445 3.66459
450 5.1919
455 5.40362
460 3.96616
465 4.39055
470 3.0117
475 4.62915
480 5.54303
485 4.40657
490 3.21077
495 3.71633
500 6.01899
505 3.73357
510 5.3946
515 6.04973
520 5.04791
525 4.9536
530 3.75173
535 3.45593
540 4.43888
545 3.72417
550 3.50806
555 4.11092
560 4.46872
565 3.18346
570 3.68847
575 3.79824
580 3.71141
585 3.50196
590 4.9342
595 4.66812
600 13.3812
Ex : 258
200 2.79055
205 2.24897
210 2.33879
215 2.13456
220 2.99241
225 2.84089
230 4.02313
235 3.20298
240 2.41921
245 3.00421
250 3.02306
255 3.98142
260 2.75271
265 4.18187
270 3.90756
275 2.45078
280 2.56378
285 3.57503
290 3.28934
295 4.06138
300 3.51381
305 3.69501
310 3.27687
315 2.40338
320 4.40214
325 3.14132
330 2.22753
335 3.23937
340 3.39204
345 3.6912
350 3.91044
355 2.85013
360 3.32263
365 3.39119
370 3.17375
375 2.23453
380 3.77991
385 3.4365
390 2.80902
395 3.50404
400 3.70825
405 3.56676
410 4.11301
415 3.58194
420 3.24719
425 4.40962
430 3.45712
435 3.83203
440 3.757
445 2.13863
450 4.0088
455 4.13403
460 4.17218
465 2.69705
470 4.38606
475 3.69538
480 3.46215
485 3.46246
490 3.89932
495 3.98854
500 3.62215
505 3.55367
510 4.42147
515 4.89819
520 3.6868
525 2.72814
530 5.08071
535 3.64909
540 3.72002
545 3.32175
550 2.17184
555 2.89245
560 3.61477
565 3.28684
570 3.03451
575 2.55338
580 2.88547
585 2.82653
590 3.32266
595 3.63316
600 0.41344
Ex : 263
200 2.76936
205 3.03026
210 3.0757
215 2.07134
220 2.3492
225 2.44966
230 2.25602
235 2.65618
240 1.94722
245 2.27734
250 2.58224
255 2.52433
260 2.29728
265 2.11959
270 2.21255
275 2.32154
280 1.89991
285 2.06782
290 2.64809
295 3.28779
300 2.21631
305 2.02462
310 2.16593
315 2.71852
320 2.22083
325 2.37811
330 2.25892
335 2.48613
340 2.36934
345 2.85807
350 2.14579
355 2.34103
360 2.26862
365 2.86214
370 2.42693
375 2.29942
380 3.61088
385 3.66232
390 3.07995
395 3.01359
400 2.8693
405 2.37595
410 2.37847
415 2.79235
420 3.45935
425 3.08252
430 3.38269
435 3.10425
440 3.0433
445 3.15111
450 3.51718
455 2.73728
460 2.72505
465 2.96272
470 2.58617
475 2.31562
480 2.49087
485 2.17804
490 2.77115
495 2.43889
500 2.61557
505 3.36798
510 2.72995
515 2.44629
520 3.0577
525 2.48614
530 2.46118
535 2.62933
540 2.07751
545 2.84173
550 3.56691
555 2.39571
560 2.34687
565 2.44077
570 2.27731
575 2.27608
580 2.75362
585 2.50719
590 3.10614
595 2.35333
600 2.54661
Ex : 268
200 2.43566
205 1.51543
210 1.6403
215 2.88707
220 1.9003
225 1.93484
230 2.47097
235 1.91928
240 1.58244
245 1.86303
250 2.0037
255 1.76653
260 1.87191
265 1.66987
270 1.5801
275 2.48106
280 1.53898
285 1.65453
290 2.03504
295 2.0254
300 2.08541
305 1.82435
310 2.57357
315 1.76153
320 1.58709
325 2.04706
330 2.08679
335 2.41442
340 1.79637
345 1.76738
350 2.57424
355 2.5773
360 1.64421
365 2.36678
370 2.38899
375 2.03335
380 2.036
385 2.3977
390 1.7713
395 2.47683
400 2.79216
405 2.84571
410 2.36055
415 2.099
420 2.20501
425 3.11486
430 2.85911
435 1.98072
440 2.55289
445 2.21302
450 1.88615
455 2.07265
460 2.45671
465 2.3442
470 2.80502
475 2.48521
480 2.17887
485 1.81381
490 1.75845
495 2.70659
500 3.01795
505 1.34962
510 1.88891
515 1.96769
520 2.11025
525 1.94503
530 2.58939
535 2.14698
540 2.09598
545 1.71074
550 2.52351
555 2.01749
560 2.21288
565 1.65286
570 2.17939
575 2.11097
580 1.4533
585 1.95084
590 2.2973
595 3.03636
600 2.70874
Ex : 273
200 2.15033
205 2.50457
210 1.70758
215 1.69256
220 1.49716
225 1.42689
230 1.5726
235 1.49912
240 1.44661
245 2.03817
250 1.78523
255 1.61307
260 1.28218
265 1.49294
270 1.8855
275 1.68179
280 1.8291
285 1.99693
290 1.70944
295 1.43755
300 1.75444
305 1.30498
310 2.21179
315 1.40484
320 1.68933
325 1.82816
330 1.52183
335 1.6015
340 1.7009
345 1.40193
350 2.31564
355 1.94305
360 2.08369
365 1.99613
370 2.45274
375 1.73123
380 1.69893
385 1.84472
390 2.28189
395 2.06243
400 1.83473
405 2.04498
410 2.11601
415 1.58054
420 2.12288
425 2.09755
430 2.11347
435 1.81268
440 2.12473
445 2.3716
450 1.90327
455 2.75475
460 2.15998
465 1.67554
470 1.32053
475 2.63359
480 2.30623
485 2.2059
490 1.85225
495 1.1067
500 2.43414
505 1.82907
510 1.8517
515 1.60432
520 1.77373
525 1.74486
530 1.70251
535 1.97297
540 3.27774
545 2.2699
550 2.43087
555 1.72553
560 2.13007
565 2.07948
570 1.47405
575 1.53564
580 1.84365
585 1.51111
590 2.26136
595 1.86455
600 4.3478
Ex : 278
200 1.01956
205 1.74708
210 1.35032
215 0.904681
220 1.52927
225 1.91997
230 1.18737
235 1.3303
240 1.95856
245 1.74872
250 0.980613
255 1.43137
260 1.11591
265 1.23932
270 1.15926
275 1.58482
280 1.21705
285 1.11139
290 1.05476
295 1.54053
300 1.49421
305 1.4219
310 1.31711
315 1.15526
320 1.32498
325 0.989919
330 1.6025
335 1.56545
340 1.39063
345 1.21287
350 1.36433
355 1.33345
360 1.68654
365 1.35129
370 1.59926
375 1.41772
380 1.34401
385 1.63259
390 1.81342
395 2.01712
400 2.03314
405 1.94606
410 2.10065
415 2.08934
420 2.02285
425 2.04575
430 1.86062
435 1.89302
440 1.93254
445 1.62779
450 1.64585
455 2.08221
460 1.68666
465 1.8027
470 1.89419
475 1.70482
480 1.43166
485 1.51087
490 1.34385
495 1.12042
500 1.55107
505 1.77977
510 1.31867
515 1.65486
520 1.21981
525 1.13197
530 1.19711
535 1.19288
540 1.6973
545 2.01352
550 2.24802
555 1.79438
560 1.49766
565 1.69431
570 1.18599
575 1.17518
580 1.3049
585 1.88775
590 1.32496
595 1.03302
600 0.560655
Ex : 283
200 1.34269
205 0.912679
210 0.880033
215 1.22079
220 0.997473
225 1.61091
230 1.28858
235 1.07976
240 0.846982
245 1.22085
250 1.12074
255 1.10421
260 1.35786
265 1.17849
270 1.09076
275 1.04854
280 1.56656
285 1.02066
290 0.899815
295 1.01087
300 0.960446
305 1.24226
310 0.999956
315 1.16757
320 0.90408
325 0.938972
330 1.07392
335 1.26914
340 1.12777
345 1.19047
350 1.1327
355 1.59236
360 1.13132
365 1.74292
370 1.08586
375 1.52346
380 1.37744
385 1.60762
390 1.33441
395 1.5507
400 1.87099
405 1.96611
410 1.5013
415 1.84993
420 1.76054
425 1.35287
430 1.89753
435 1.90879
440 1.27045
445 1.35846
450 1.3795
455 1.22809
460 1.2326
465 1.86614
470 2.18994
475 1.61585
480 1.38991
485 1.73726
490 1.35496
495 1.07792
500 1.30537
505 1.29356
510 1.01559
515 0.956039
520 1.08825
525 1.11204
530 1.44356
535 1.45306
540 1.23078
545 1.06877
550 1.42182
555 1.62506
560 1.90269
565 1.71829
570 1.26161
575 1.43362
580 1.20546
585 1.08126
590 1.47133
595 1.18686
600 0.135061
Ex : 288
200 1.07644
205 1.06378
210 1.07241
215 1.0883
220 0.826657
225 0.890434
230 0.688048
235 1.13533
240 1.43105
245 0.838447
250 1.2326
255 0.837962
260 0.939994
265 0.765982
270 0.902451
275 0.906061
280 1.18463
285 1.33294
290 1.27684
295 0.959891
300 1.0241
305 0.8838
310 1.13995
315 0.92864
320 1.10093
325 1.34795
330 0.918444
335 0.791337
340 1.11327
345 0.914793
350 0.896405
355 1.24847
360 1.02274
365 1.36273
370 1.15658
375 1.0032
380 1.4362
385 1.41493
390 1.04167
395 1.44043
400 1.34181
405 1.57713
410 1.49447
415 1.24269
420 1.25153
425 1.32108
430 1.26607
435 1.67028
440 1.70519
445 1.27516
450 1.90421
455 1.35977
460 1.37996
465 1.31579
470 1.1611
475 1.05214
480 1.23289
485 1.44285
490 1.20116
495 0.925651
500 1.14702
505 1.0471
510 1.04006
515 1.05444
520 0.800062
525 1.42201
530 1.22045
535 0.705299
540 0.990804
545 0.922109
550 0.976663
555 0.954276
560 1.12798
565 0.81431
570 1.69312
575 1.43325
580 1.02493
585 1.30911
590 1.00203
595 0.826747
600 0.28065
Ex : 293
200 0.78834
205 1.05797
210 0.947171
215 1.17275
220 0.91993
225 0.615282
230 0.819405
235 0.648377
240 0.712021
245 0.785626
250 0.779303
255 0.715636
260 0.914392
265 0.867713
270 0.835172
275 0.686638
280 0.782567
285 0.889891
290 0.928327
295 1.07534
300 0.690389
305 0.539202
310 0.915862
315 0.620429
320 0.798673
325 0.735613
330 1.00849
335 0.872285
340 0.885052
345 0.823298
350 0.818893
355 0.947337
360 1.07668
365 1.0874
370 1.48461
375 1.4756
380 1.35802
385 1.09486
390 1.23694
395 1.38211
400 1.36587
405 1.67113
410 1.37146
415 1.49409
420 1.36157
425 1.59791
430 1.40471
435 1.1207
440 1.45684
445 1.41903
450 1.59839
455 1.18494
460 1.28648
465 1.07314
470 0.824128
475 0.792448
480 1.0624
485 1.02131
490 1.09952
495 1.08565
500 0.973902
505 0.883898
510 0.86175
515 0.97154
520 0.970251
525 0.761364
530 0.639049
535 0.704106
540 1.09822
545 0.785982
550 0.746186
555 0.638088
560 0.7272
565 0.700726
570 0.863435
575 0.824274
580 1.0653
585 1.12343
590 0.866581
595 0.852053
600 1.82998
Ex : 298
200 0.570835
205 0.734688
210 0.647885
215 0.679097
220 0.737716
225 0.71974
230 0.654389
235 0.571576
240 0.466489
245 0.624103
250 0.608052
255 0.766835
260 0.517926
265 0.619888
270 0.640096
275 0.57388
280 0.571824
285 0.744535
290 0.603688
295 0.74911
300 0.495707
305 1.07902
310 0.745836
315 0.598863
320 0.900942
325 0.62759
330 0.7213
335 0.610111
340 0.748526
345 0.859793
350 0.686595
355 0.78104
360 0.668052
365 1.00565
370 1.03218
375 1.02241
380 1.13569
385 1.18451
390 1.22326
395 1.46912
400 1.47117
405 1.16281
410 1.81282
415 1.25588
420 1.07767
425 1.14621
430 1.21786
435 1.27718
440 1.22284
445 1.03874
450 1.02361
455 1.15408
460 1.07919
465 1.04756
470 0.855085
475 1.05981
480 1.08388
485 0.984963
490 0.891242
495 0.801419
500 0.728551
505 0.996163
510 0.824946
515 0.715274
520 0.645864
525 0.976782
530 1.09464
535 0.925495
540 0.747094
545 0.651384
550 0.654067
555 0.637747
560 0.794352
565 0.681468
570 0.464106
575 0.581072
580 0.592891
585 0.867806
590 1.15356
595 0.931116
600 3.11905
Ex : 303
200 0.898024
205 0.57769
210 0.589967
215 0.598787
220 0.502854
225 0.468436
230 0.669143
235 0.604248
240 0.655303
245 0.544241
250 0.596972
255 0.551253
260 0.481027
265 0.460157
270 0.460288
275 0.602081
280 0.546408
285 0.694571
290 0.586202
295 0.786281
300 0.717085
305 0.892262
310 0.81064
315 0.61696
320 0.678477
325 0.475805
330 0.626224
335 0.693065
340 0.854077
345 0.916842
350 0.810417
355 0.608402
360 1.02612
365 0.799576
370 0.885955
375 0.976754
380 1.09365
385 1.45269
390 1.14381
395 1.2041
400 1.18095
405 1.29569
410 1.39901
415 1.21259
420 1.232
425 1.32168
430 0.884542
435 1.29263
440 1.37379
445 1.15766
450 0.9214
455 1.0067
460 1.12711
465 0.848566
470 1.06388
475 0.703659
480 0.821649
485 0.913363
490 0.932024
495 0.956929
500 0.672616
505 0.729032
510 0.759506
515 0.817458
520 0.584653
525 0.649476
530 0.826931
535 0.660975
540 0.988935
545 0.925126
550 0.651816
555 0.61901
560 0.504709
565 0.858898
570 0.485542
575 0.761182
580 0.475814
585 0.648831
590 0.456806
595 0.897421
600 0.462613
Ex : 308
200 0.874094
205 0.53979
210 0.471311
215 0.485958
220 0.536953
225 0.590774
230 0.401786
235 0.46759
240 0.351228
245 0.581365
250 0.405091
255 0.712468
260 0.600134
265 0.514507
270 0.474287
275 0.5053
280 0.382887
285 0.504683
290 0.541212
295 0.440236
300 0.516912
305 0.726646
310 0.456073
315 0.607949
320 0.429886
325 0.481975
330 0.514907
335 0.738545
340 0.579712
345 0.699369
350 0.58155
355 0.583494
360 0.736653
365 0.914779
370 0.940896
375 1.2198
380 1.18187
385 1.11258
390 1.00445
395 1.26152
400 1.2772
405 1.32435
410 1.19508
415 1.38396
420 1.21088
425 1.39453
430 1.07808
435 1.35409
440 1.14477
445 1.07562
450 0.982604
455 1.11407
460 1.1548
465 0.964828
470 0.869486
475 0.774979
480 0.942021
485 1.08849
490 0.801899
495 0.635124
500 0.76767
505 0.668881
510 0.562543
515 0.697106
520 0.529099
525 0.816199
530 0.7997
535 0.526759
540 0.663296
545 0.667112
550 0.687728
555 0.725202
560 0.660215
565 0.561404
570 0.737376
575 0.608271
580 0.707286
585 0.595497
590 0.761694
595 0.612156
600 0.0696611
Ex : 313
200 0.434518
205 0.316226
210 0.575806
215 0.46616
220 0.279826
225 0.477401
230 0.49218
235 0.462813
240 0.45993
245 0.454562
250 0.613684
255 0.474949
260 0.4677
265 0.482699
270 0.438951
275 0.335172
280 0.366305
285 0.378036
290 0.543751
295 0.658491
300 0.515717
305 0.70528
310 0.835001
315 0.639496
320 0.481579
325 0.610377
330 0.66979
335 0.460268
340 0.717369
345 0.674337
350 0.721274
355 0.769144
360 0.83268
365 0.966989
370 1.2708
375 1.06123
380 1.30709
385 1.37781
390 1.63991
395 1.4564
400 1.79495
405 1.59974
410 1.66358
415 1.85916
420 1.99191
425 1.69178
430 1.59328
435 1.28695
440 1.34168
445 1.23226
450 1.17327
455 1.33326
460 1.26591
465 1.08768
470 1.06996
475 0.846072
480 1.02799
485 0.839043
490 0.990415
495 0.95689
500 0.839501
505 0.777353
510 0.638376
515 0.559059
520 0.742559
525 0.608216
530 0.733729
535 0.803195
540 0.479996
545 0.358494
550 0.390276
555 0.406233
560 0.516442
565 0.473881
570 0.683891
575 0.507376
580 0.401172
585 0.540252
590 0.39167
595 0.505418
600 0.809105
Ex : 318
200 0.360252
205 0.384136
210 0.358399
215 0.378766
220 0.424561
225 0.350093
230 0.454378
235 0.319714
240 0.535662
245 0.386114
250 0.574065
255 0.453041
260 0.302362
265 0.383098
270 0.315848
275 0.415116
280 0.478457
285 0.419682
290 0.494259
295 0.357583
300 0.391958
305 0.364317
310 0.612401
315 0.946468
320 0.74427
325 0.568999
330 0.874742
335 1.25868
340 1.52094
345 1.83881
350 2.84085
355 3.38209
360 3.78611
365 5.02231
370 5.54993
375 7.14903
380 7.99198
385 8.97429
390 9.84647
395 10.2593
400 10.0879
405 11.1133
410 11.578
415 11.6357
420 10.8377
425 10.1091
430 10.143
435 9.3181
440 9.31856
445 9.01803
450 8.50068
455 7.79412
460 7.3118
465 6.66375
470 6.15539
475 5.47389
480 4.87169
485 4.35129
490 4.29149
495 3.89851
500 3.43781
505 3.01508
510 2.23964
515 2.02438
520 1.90821
525 1.56063
530 1.43786
535 1.31647
540 1.29063
545 1.1447
550 1.206
555 0.958598
560 0.715153
565 0.810654
570 0.586441
575 0.700702
580 0.521014
585 0.651634
590 0.431689
595 0.397172
600 0.208177
Ex : 323
200 0.464191
205 0.38321
210 0.306632
215 0.237405
220 0.189648
225 0.402178
230 0.321513
235 0.363072
240 0.539135
245 0.409619
250 0.553292
255 0.420542
260 0.508879
265 0.398163
270 0.418527
275 0.395501
280 0.345155
285 0.356381
290 0.342356
295 0.377421
300 0.381919
305 0.376352
310 0.429487
315 2.53322
320 9.495
325 4.78685
330 2.51824
335 3.82966
340 4.62057
345 6.76388
350 9.90845
355 13.5168
360 16.5318
365 20.099
370 22.935
375 27.0017
380 31.4971
385 34.0944
390 36.0556
395 39.887
400 40.6226
405 43.3807
410 43.9268
415 43.1938
420 41.095
425 40.2977
430 38.6375
435 37.4079
440 36.0316
445 33.3751
450 31.4517
455 29.3201
460 26.8978
465 25.2994
470 23.2424
475 21.1464
480 19.5707
485 16.5981
490 15.4877
495 13.6644
500 11.9328
505 10.3925
510 9.66045
515 7.99321
520 6.98005
525 6.01063
530 4.69611
535 4.33364
540 3.99717
545 3.59092
550 2.92044
555 2.74215
560 2.15907
565 1.79205
570 1.5456
575 1.28246
580 1.23019
585 0.844492
590 0.827003
595 0.57477
600 0.647258
Ex : 328
200 0.385048
205 0.337094
210 0.40688
215 0.357465
220 0.281347
225 0.333496
230 0.360313
235 0.333372
240 0.465276
245 0.410919
250 0.309203
255 0.358659
260 0.407734
265 0.291519
270 0.280775
275 0.340686
280 0.368573
285 0.401414
290 0.412552
295 0.442238
300 0.394745
305 0.392482
310 0.421319
315 0.840884
320 23.1095
325 55.2268
330 19.2432
335 6.24739
340 6.85568
345 9.04492
350 10.9849
355 15.5915
360 21.7625
365 24.1581
370 26.8857
375 30.2698
380 34.4021
385 37.3674
390 41.7038
395 43.6463
400 46.5482
405 48.3379
410 47.2088
415 46.2554
420 46.1668
425 44.302
430 42.9153
435 40.9426
440 38.5727
445 36.7362
450 33.8305
455 31.7497
460 29.7145
465 27.7309
470 24.514
475 23.7605
480 21.6441
485 19.195
490 16.1921
495 14.5675
500 12.7306
505 11.8006
510 10.4443
515 8.90749
520 7.61687
525 6.89127
530 6.05856
535 5.06541
540 4.34976
545 3.78572
550 3.27371
555 2.98645
560 2.50458
565 2.052
570 1.84944
575 1.45717
580 1.12496
585 0.799271
590 0.652847
595 0.707212
600 0.749159
Ex : 333
200 0.382051
205 0.282484
210 0.31852
215 0.241608
220 0.368949
225 0.364609
230 0.377753
235 0.272535
240 0.338081
245 0.322885
250 0.296447
255 0.348132
260 0.273764
265 0.339122
270 0.363614
275 0.347404
280 0.301711
285 0.281609
290 0.285398
295 0.329044
300 0.319306
305 0.347433
310 0.473822
315 0.525432
320 3.64825
325 66.3808
330 115.425
335 33.1212
340 7.67396
345 6.35391
350 7.46085
355 8.45121
360 12.5157
365 18.3229
370 19.5796
375 18.7524
380 20.054
385 22.9696
390 24.0648
395 25.9548
400 26.8135
405 27.7396
410 27.6576
415 27.1126
420 25.8853
425 25.2407
430 24.4197
435 22.8171
440 22.0932
445 21.1344
450 19.5792
455 17.8874
460 16.5176
465 15.0736
470 14.1157
475 12.8701
480 12.2231
485 10.7467
490 9.90047
495 8.87333
500 7.91668
505 7.13118
510 6.20827
515 5.28488
520 4.90582
525 4.03766
530 3.75212
535 3.0731
540 2.52173
545 2.53814
550 2.2619
555 2.1628
560 1.80622
565 1.70826
570 1.38396
575 1.11064
580 0.993417
585 0.750633
590 0.716599
595 0.836043
600 0.400225
Ex : 338
200 0.212413
205 0.332313
210 0.36899
215 0.335054
220 0.297649
225 0.336276
230 0.292643
235 0.267744
240 0.245726
245 0.223147
250 0.274777
255 0.310797
260 0.171534
265 0.273769
270 0.250519
275 0.296682
280 0.407068
285 0.275985
290 0.270515
295 0.322047
300 0.381079
305 0.467181
310 0.305794
315 0.361361
320 0.363724
325 6.66154
330 101.007
335 155.739
340 40.1623
345 7.68971
350 4.97323
355 4.95867
360 5.06701
365 7.24506
370 12.9557
375 13.9942
380 11.5754
385 11.4422
390 12.7906
395 13.249
400 14.462
405 14.3076
410 15.1286
415 14.9472
420 14.654
425 13.9248
430 13.3902
435 12.8131
440 12.5592
445 11.9888
450 11.9389
455 10.7327
460 10.3829
465 9.06125
470 8.62834
475 7.99699
480 7.19465
485 6.10802
490 6.12051
495 5.46196
500 4.88755
505 4.65791
510 4.26012
515 3.5733
520 3.1566
525 3.02577
530 2.59163
535 2.579
540 2.16178
545 1.99
550 1.55528
555 1.71843
560 1.51451
565 1.26217
570 0.950845
575 0.804415
580 0.82725
585 0.632322
590 0.519188
595 0.446705
600 0.290708
Ex : 343
200 0.13291
205 0.236385
210 0.25379
215 0.323307
220 0.237783
225 0.37065
230 0.269021
235 0.338311
240 0.288047
245 0.281621
250 0.272524
255 0.293909
260 0.219356
265 0.30379
270 0.294252
275 0.313881
280 0.220163
285 0.25895
290 0.26229
295 0.316928
300 0.334567
305 0.289743
310 0.296018
315 0.245453
320 0.342471
325 0.487523
330 7.86755
335 117.632
340 171.591
345 43.5697
350 7.63697
355 3.9657
360 3.74848
365 3.22554
370 4.97072
375 9.56313
380 10.4585
385 9.25718
390 8.55505
395 9.18332
400 9.87716
405 10.1561
410 10.4101
415 11.2022
420 10.8217
425 10.9146
430 10.5659
435 10.2031
440 9.62022
445 9.38089
450 8.95678
455 8.56551
460 7.92499
465 7.12034
470 7.01994
475 6.50106
480 6.04608
485 5.36176
490 5.20874
495 4.74004
500 4.08436
505 3.74847
510 3.63371
515 3.28738
520 2.96114
525 2.59774
530 2.43719
535 2.14667
540 2.06364
545 1.63356
550 1.59891
555 1.56595
560 1.18825
565 1.08172
570 0.956897
575 0.816664
580 0.757912
585 0.724285
590 0.690099
595 0.42076
600 0.533472
Ex : 348
200 0.24526
205 0.205444
210 0.243606
215 0.204855
220 0.261422
225 0.17488
230 0.228261
235 0.204099
240 0.203232
245 0.179743
250 0.190857
255 0.241495
260 0.311365
265 0.283505
270 0.229743
275 0.287318
280 0.19753
285 0.216198
290 0.253943
295 0.210285
300 0.258051
305 0.218213
310 0.204871
315 0.203069
320 0.263936
325 0.210915
330 0.481853
335 8.25612
340 119.408
345 182.64
350 47.7958
355 7.58925
360 3.75681
365 3.12617
370 2.89206
375 3.42574
380 7.09437
385 10.711
390 9.59711
395 9.00383
400 8.92728
405 9.35595
410 9.31694
415 9.7044
420 9.94868
425 10.3032
430 10.075
435 9.82864
440 9.54039
445 8.93327
450 8.64822
455 8.29435
460 8.10782
465 7.31504
470 6.30464
475 6.17734
480 6.38032
485 5.55901
490 5.21196
495 4.74994
500 4.27973
505 3.95018
510 3.68591
515 3.23438
520 2.69013
525 2.6382
530 2.20227
535 2.37095
540 2.11995
545 1.85689
550 1.49231
555 1.4749
560 1.32692
565 1.20503
570 0.891834
575 0.791349
580 0.660363
585 0.619508
590 0.522642
595 0.421018
600 0.137088
Ex : 353
200 0.207909
205 0.237007
210 0.244306
215 0.176198
220 0.190673
225 0.229759
230 0.217337
235 0.221653
240 0.245576
245 0.204645
250 0.254765
255 0.178816
260 0.182252
265 0.187801
270 0.230566
275 0.196614
280 0.233035
285 0.343317
290 0.206458
295 0.224589
300 0.21188
305 0.247781
310 0.297543
315 0.208977
320 0.216477
325 0.210913
330 0.339027
335 0.479647
340 8.34511
345 125.671
350 183.778
355 45.6599
360 7.09479
365 3.17181
370 3.11385
375 2.85444
380 2.98947
385 6.61407
390 11.5569
395 11.3546
400 10.4917
405 9.58948
410 9.2077
415 9.73826
420 10.5541
425 10.3917
430 10.2222
435 9.70118
440 9.28704
445 8.72993
450 8.6969
455 8.16186
460 7.9877
465 7.38064
470 6.97218
475 6.43873
480 6.07506
485 5.60079
490 5.14024
495 4.81137
500 4.24021
505 3.83089
510 3.66146
515 3.17167
520 2.9049
525 2.64192
530 2.43955
535 2.13609
540 2.04525
545 1.92852
550 1.65865
555 1.33292
560 1.25617
565 1.16498
570 0.986298
575 0.808549
580 0.763788
585 0.582963
590 0.432878
595 0.363988
600 0.596571
Ex : 358
200 0.146198
205 0.215727
210 0.210161
215 0.228963
220 0.228603
225 0.199521
230 0.219115
235 0.181001
240 0.17752
245 0.175198
250 0.200692
255 0.150748
260 0.213155
265 0.19262
270 0.220268
275 0.295499
280 0.21602
285 0.211265
290 0.231329
295 0.245729
300 0.211138
305 0.261231
310 0.148093
315 0.197585
320 0.233643
325 0.208822
330 0.24261
335 0.27265
340 0.467501
345 7.91864
350 122.033
355 186.484
360 48.0032
365 7.23522
370 2.87122
375 3.11694
380 2.91784
385 3.34134
390 6.3216
395 11.7695
400 12.2837
405 10.6321
410 9.57851
415 9.22662
420 10.2739
425 10.4715
430 9.85982
435 9.81999
440 9.20279
445 8.84433
450 8.74977
455 8.68098
460 8.21998
465 7.54024
470 7.02699
475 6.5665
480 5.78396
485 5.95773
490 5.44669
495 5.15187
500 4.63961
505 4.31481
510 3.59942
515 3.63952
520 3.07095
525 2.72256
530 2.53147
535 2.33676
540 2.08779
545 1.78946
550 1.46595
555 1.3669
560 1.3331
565 1.18142
570 1.01825
575 0.848763
580 0.756103
585 0.623306
590 0.617829
595 0.50669
600 0.319709
Ex : 363
200 0.172925
205 0.203229
210 0.163559
215 0.192844
220 0.178691
225 0.173397
230 0.191704
235 0.253606
240 0.26816
245 0.176833
250 0.210968
255 0.197539
260 0.345553
265 0.19585
270 0.154026
275 0.16111
280 0.206733
285 0.217951
290 0.154328
295 0.161991
300 0.218289
305 0.189297
310 0.167611
315 0.249437
320 0.241395
325 0.216967
330 0.204993
335 0.253352
340 0.372254
345 0.381543
350 7.28741
355 118.061
360 186.88
365 48.8651
370 7.26018
375 2.87584
380 3.13486
385 3.33813
390 4.11064
395 6.66767
400 11.3062
405 12.5946
410 10.9768
415 9.70181
420 9.48466
425 9.3156
430 9.25389
435 9.29971
440 9.58155
445 9.40864
450 9.33782
455 8.811
460 8.34455
465 7.84395
470 7.75125
475 7.02565
480 6.08742
485 6.0809
490 5.48802
495 4.9442
500 4.57414
505 4.24456
510 3.60086
515 3.59176
520 3.00101
525 2.67417
530 2.32869
535 2.16589
540 1.82217
545 1.86285
550 1.58789
555 1.47847
560 1.36514
565 1.09933
570 0.891008
575 0.663617
580 0.648073
585 0.528881
590 0.420578
595 0.41488
600 1.00874
Ex : 368
200 0.206004
205 0.213578
210 0.155704
215 0.133953
220 0.157577
225 0.174097
230 0.121357
235 0.124859
240 0.205852
245 0.131995
250 0.198104
255 0.229105
260 0.196388
265 0.170115
270 0.140807
275 0.169027
280 0.200774
285 0.156721
290 0.148164
295 0.140723
300 0.168577
305 0.195166
310 0.182388
315 0.136795
320 0.17045
325 0.192615
330 0.254167
335 0.232419
340 0.298135
345 0.247301
350 0.434596
355 6.28531
360 115.124
365 193.608
370 52.5942
375 7.78643
380 3.01238
385 3.68274
390 4.58191
395 5.63104
400 7.58878
405 10.6375
410 13.541
415 12.0678
420 10.9808
425 9.81323
430 9.30852
435 9.00209
440 9.09809
445 8.86981
450 8.54549
455 8.10066
460 8.09649
465 7.40534
470 7.09764
475 6.72414
480 6.08657
485 5.73766
490 5.31829
495 5.17516
500 4.54956
505 3.92086
510 3.91652
515 3.56129
520 2.94741
525 2.7136
530 2.40955
535 2.21955
540 1.9652
545 1.83031
550 1.62846
555 1.46076
560 1.34376
565 1.25225
570 0.93661
575 0.739103
580 0.653497
585 0.563357
590 0.463498
595 0.329771
600 0.811395
Ex : 373
200 0.208941
205 0.167369
210 0.184945
215 0.140541
220 0.149646
225 0.169758
230 0.187572
235 0.190862
240 0.146541
245 0.197466
250 0.19489
255 0.17057
260 0.189794
265 0.157901
270 0.174678
275 0.186194
280 0.186362
285 0.174711
290 0.133944
295 0.167493
300 0.190173
305 0.224862
310 0.174458
315 0.180836
320 0.205126
325 0.141922
330 0.14638
335 0.239779
340 0.248367
345 0.278462
350 0.330861
355 0.410113
360 7.24442
365 119.937
370 193.189
375 52.7103
380 7.92581
385 3.4441
390 5.07424
395 6.5987
400 7.14138
405 7.49192
410 10.5762
415 13.7609
420 12.9357
425 11.5018
430 10.2824
435 9.21046
440 8.96384
445 8.9345
450 8.45872
455 8.20627
460 7.80157
465 7.35675
470 6.91952
475 6.97296
480 6.0029
485 5.91745
490 5.50072
495 4.9266
500 4.5588
505 3.98743
510 3.83259
515 3.38846
520 3.08893
525 2.74248
530 2.29682
535 2.2164
540 1.94948
545 1.80599
550 1.58089
555 1.50878
560 1.34002
565 1.05205
570 0.87207
575 0.764432
580 0.654714
585 0.524763
590 0.514172
595 0.367678
600 0.716764
Ex : 378
200 0.170763
205 0.188993
210 0.207586
215 0.223693
220 0.244318
225 0.131889
230 0.174009
235 0.17336
240 0.132264
245 0.18276
250 0.174684
255 0.167256
260 0.142588
265 0.132115
270 0.164173
275 0.208418
280 0.19738
285 0.182915
290 0.173165
295 0.142118
300 0.176792
305 0.206404
310 0.192297
315 0.176625
320 0.189554
325 0.184884
330 0.214807
335 0.144981
340 0.214778
345 0.207888
350 0.256076
355 0.282544
360 0.422737
365 7.2139
370 121.587
375 199.115
380 55.2068
385 8.64141
390 4.30884
395 5.97045
400 6.97215
405 6.67309
410 6.80973
415 8.97956
420 12.9273
425 12.3432
430 10.8742
435 8.97558
440 8.30556
445 8.11567
450 8.00022
455 7.76766
460 7.46717
465 7.09252
470 6.66452
475 6.38386
480 6.01869
485 5.59637
490 5.04066
495 4.78467
500 4.30954
505 3.91947
510 3.52169
515 3.40761
520 3.10474
525 2.65988
530 2.4007
535 2.19609
540 1.93826
545 1.81854
550 1.61981
555 1.34244
560 1.22492
565 1.02577
570 1.07282
575 0.803368
580 0.630757
585 0.501425
590 0.485131
595 0.375683
600 0.732433
Ex : 383
200 0.141725
205 0.144231
210 0.164691
215 0.180162
220 0.189816
225 0.164564
230 0.160045
235 0.153119
240 0.158152
245 0.222162
250 0.147679
255 0.142567
260 0.166207
265 0.167391
270 0.166637
275 0.141904
280 0.194655
285 0.163862
290 0.179783
295 0.18574
300 0.189189
305 0.199412
310 0.168466
315 0.163188
320 0.118136
325 0.213511
330 0.145919
335 0.156835
340 0.187301
345 0.188072
350 0.206292
355 0.247621
360 0.258494
365 0.342862
370 6.55626
375 121.786
380 208.606
385 58.2217
390 9.90489
395 5.3513
400 5.78535
405 5.80162
410 5.76996
415 6.31967
420 7.55412
425 10.6192
430 10.8947
435 9.06713
440 7.781
445 7.11972
450 7.1459
455 6.70731
460 6.4101
465 6.42202
470 6.41937
475 5.78073
480 5.4871
485 5.27418
490 4.72523
495 4.53906
500 4.29022
505 3.94899
510 3.46863
515 3.1019
520 2.89169
525 2.64398
530 2.23187
535 2.22628
540 1.89231
545 1.81699
550 1.5799
555 1.45339
560 1.2909
565 1.06344
570 1.08216
575 0.745711
580 0.616818
585 0.393728
590 0.338862
595 0.390668
600 0.17809
Ex : 388
200 0.114797
205 0.152191
210 0.14471
215 0.167566
220 0.164198
225 0.214052
230 0.208409
235 0.139527
240 0.153064
245 0.12719
250 0.19517
255 0.18552
260 0.135247
265 0.100938
270 0.187115
275 0.157452
280 0.172202
285 0.113685
290 0.154227
295 0.154177
300 0.218044
305 0.167822
310 0.17232
315 0.201742
320 0.158778
325 0.191247
330 0.198661
335 0.163658
340 0.222944
345 0.154276
350 0.194134
355 0.232048
360 0.24142
365 0.252048
370 0.4278
375 7.34079
380 127.191
385 210.616
390 59.4879
395 11.0803
400 6.00929
405 6.04741
410 6.30856
415 6.16092
420 6.46462
425 6.89982
430 9.14294
435 10.4469
440 9.16256
445 8.07273
450 6.79187
455 6.62731
460 6.17331
465 6.30355
470 5.66601
475 5.77905
480 5.32985
485 5.0638
490 4.74487
495 4.50739
500 4.26268
505 3.94625
510 3.50348
515 3.1622
520 3.13673
525 2.6453
530 2.47491
535 2.19319
540 1.9446
545 1.67029
550 1.58001
555 1.48865
560 1.33175
565 1.04445
570 0.920168
575 0.711066
580 0.585295
585 0.541037
590 0.429839
595 0.335885
600 0.263985
Ex : 393
200 0.138713
205 0.147069
210 0.164104
215 0.110968
220 0.113812
225 0.196042
230 0.153924
235 0.151057
240 0.157253
245 0.170678
250 0.161188
255 0.140818
260 0.137641
265 0.161429
270 0.138067
275 0.16218
280 0.145897
285 0.133988
290 0.131175
295 0.1625
300 0.144459
305 0.115858
310 0.152152
315 0.152287
320 0.16549
325 0.136427
330 0.166796
335 0.117032
340 0.156146
345 0.236183
350 0.197056
355 0.22977
360 0.207485
365 0.188451
370 0.285103
375 0.394695
380 6.68468
385 128.184
390 220.554
395 63.7107
400 12.5831
405 6.67589
410 6.50982
415 6.97448
420 7.26677
425 7.04565
430 6.69063
435 8.0014
440 10.3297
445 9.02803
450 7.94057
455 7.01219
460 6.09493
465 5.94599
470 5.31387
475 5.14814
480 4.88944
485 5.14604
490 4.75958
495 4.49518
500 4.01775
505 3.59454
510 3.25344
515 3.24222
520 2.78754
525 2.60684
530 2.36794
535 2.10725
540 1.90819
545 1.71854
550 1.4697
555 1.38557
560 1.14057
565 1.12174
570 0.895462
575 0.845739
580 0.644429
585 0.489235
590 0.43779
595 0.342653
600 0.388979
Ex : 398
200 0.169709
205 0.157683
210 0.170893
215 0.179599
220 0.111396
225 0.135704
230 0.140864
235 0.154662
240 0.163131
245 0.139689
250 0.173393
255 0.143857
260 0.174354
265 0.192665
270 0.124602
275 0.136003
280 0.1484
285 0.126784
290 0.113362
295 0.156276
300 0.107557
305 0.164783
310 0.149832
315 0.164138
320 0.175258
325 0.135999
330 0.162176
335 0.137657
340 0.161283
345 0.16407
350 0.177552
355 0.199926
360 0.206188
365 0.178124
370 0.186532
375 0.229301
380 0.37064
385 7.08588
390 132.963
395 227.151
400 64.0297
405 11.6798
410 5.72699
415 5.47444
420 6.33794
425 6.06593
430 5.79721
435 5.3112
440 6.30338
445 9.04873
450 8.80147
455 7.09109
460 6.29439
465 5.51596
470 4.87351
475 4.83067
480 4.38331
485 4.50182
490 4.32601
495 3.89228
500 3.72122
505 3.41517
510 3.20141
515 2.98935
520 2.67088
525 2.63245
530 2.23994
535 2.1097
540 1.93277
545 1.63767
550 1.56998
555 1.37566
560 1.24352
565 1.04847
570 0.906486
575 0.80404
580 0.591267
585 0.530774
590 0.35766
595 0.360156
600 0.174066
Ex : 403
200 0.14359
205 0.143148
210 0.186058
215 0.190546
220 0.188471
225 0.122788
230 0.0968895
235 0.148977
240 0.131262
245 0.198868
250 0.162872
255 0.11688
260 0.118045
265 0.129605
270 0.111973
275 0.143471
280 0.126866
285 0.153557
290 0.162028
295 0.148648
300 0.157913
305 0.127866
310 0.167444
315 0.165421
320 0.130592
325 0.102187
330 0.127379
335 0.155987
340 0.121019
345 0.165295
350 0.172986
355 0.149877
360 0.205451
365 0.163798
370 0.174174
375 0.199666
380 0.311329
385 0.487003
390 8.40599
395 136.712
400 225.034
405 63.727
410 10.1631
415 3.99105
420 3.86264
425 4.31998
430 3.76357
435 3.5821
440 3.6751
445 4.43791
450 6.98602
455 7.81715
460 5.67307
465 5.08672
470 4.52077
475 4.40866
480 3.92585
485 3.87266
490 3.77675
495 3.51775
500 3.40978
505 3.12955
510 3.02333
515 2.71478
520 2.47886
525 2.3013
530 2.16535
535 1.92343
540 1.73188
545 1.47369
550 1.5201
555 1.31695
560 1.14652
565 1.04566
570 0.849262
575 0.687107
580 0.548713
585 0.363515
590 0.393848
595 0.356947
600 0.106709
Ex : 408
200 0.119115
205 0.130069
210 0.120009
215 0.120739
220 0.122727
225 0.137319
230 0.14649
235 0.0950113
240 0.175482
245 0.0947555
250 0.14542
255 0.11713
260 0.176493
265 0.19189
270 0.178357
275 0.142556
280 0.165446
285 0.118746
290 0.155675
295 0.12203
300 0.176414
305 0.191919
310 0.167715
315 0.115811
320 0.141485
325 0.181089
330 0.19508
335 0.143624
340 0.169492
345 0.185415
350 0.169885
355 0.150389
360 0.172698
365 0.154068
370 0.197667
375 0.168795
380 0.205956
385 0.30336
390 0.501417
395 7.61685
400 137.5
405 228.68
410 61.7622
415 9.15114
420 3.1564
425 2.57473
430 3.04961
435 2.6423
440 2.52408
445 2.61568
450 2.98984
455 5.16219
460 6.96124
465 5.29354
470 4.66967
475 3.94103
480 3.52846
485 3.43156
490 3.35472
495 3.16412
500 3.075
505 2.75607
510 2.74915
515 2.65839
520 2.39189
525 2.18452
530 1.8998
535 1.84918
540 1.74034
545 1.54493
550 1.42592
555 1.19619
560 1.0449
565 0.975088
570 0.916951
575 0.672415
580 0.633552
585 0.459112
590 0.396487
595 0.332481
600 0.300974
Ex : 413
200 0.212445
205 0.192532
210 0.123997
215 0.123514
220 0.143375
225 0.148653
230 0.162388
235 0.134619
240 0.118857
245 0.120376
250 0.142593
255 0.139713
260 0.155122
265 0.121874
270 0.148203
275 0.13942
280 0.18642
285 0.171601
290 0.132121
295 0.137147
300 0.168938
305 0.13131
310 0.157911
315 0.150235
320 0.154227
325 0.153565
330 0.166095
335 0.130605
340 0.13889
345 0.191242
350 0.182245
355 0.168274
360 0.134179
365 0.159736
370 0.15856
375 0.170872
380 0.166873
385 0.204517
390 0.252256
395 0.41201
400 8.4171
405 141.862
410 229.044
415 60.1364
420 8.41356
425 2.50297
430 2.18782
435 2.39879
440 2.35294
445 2.2025
450 2.17185
455 2.53045
460 4.06199
465 6.3557
470 5.38165
475 4.19405
480 4.07858
485 3.29267
490 3.21801
495 2.88085
500 2.80635
505 2.88206
510 2.6952
515 2.34871
520 2.24928
525 2.13988
530 2.00626
535 1.78222
540 1.70828
545 1.54159
550 1.44874
555 1.32764
560 1.16212
565 0.951502
570 0.759846
575 0.593164
580 0.581525
585 0.43484
590 0.346595
595 0.33758
600 0.227472
Ex : 418
200 0.113271
205 0.092925
210 0.155198
215 0.153348
220 0.204009
225 0.116522
230 0.144029
235 0.128537
240 0.141759
245 0.153739
250 0.134213
255 0.132806
260 0.126222
265 0.13101
270 0.144421
275 0.144883
280 0.167255
285 0.153492
290 0.149524
295 0.100516
300 0.122188
305 0.124768
310 0.12798
315 0.16075
320 0.158627
325 0.166358
330 0.15269
335 0.197391
340 0.183366
345 0.163492
350 0.180713
355 0.0948073
360 0.137168
365 0.171518
370 0.154109
375 0.202399
380 0.172703
385 0.196725
390 0.235357
395 0.345551
400 0.428145
405 7.86782
410 142.417
415 231.465
420 62.6845
425 8.61509
430 2.41828
435 1.87008
440 2.32084
445 2.3064
450 2.01997
455 2.11663
460 2.11969
465 3.08715
470 5.39641
475 5.63851
480 4.10221
485 3.51864
490 3.12035
495 2.88052
500 2.71854
505 2.70333
510 2.60178
515 2.37729
520 2.18652
525 2.02772
530 1.8869
535 1.78586
540 1.58533
545 1.47145
550 1.39562
555 1.23384
560 1.0558
565 0.948763
570 0.834042
575 0.661124
580 0.590955
585 0.427991
590 0.35476
595 0.342787
600 0.246666
Ex : 423
200 0.118693
205 0.128891
210 0.128176
215 0.14039
220 0.114072
225 0.131466
230 0.117274
235 0.12521
240 0.16102
245 0.181798
250 0.124304
255 0.156465
260 0.101171
265 0.187553
270 0.159589
275 0.153998
280 0.10968
285 0.172683
290 0.143781
295 0.0999842
300 0.148235
305 0.134807
310 0.165109
315 0.149757
320 0.12004
325 0.117899
330 0.161398
335 0.177468
340 0.140402
345 0.137095
350 0.16054
355 0.140271
360 0.160277
365 0.211371
370 0.135619
375 0.16653
380 0.189944
385 0.182749
390 0.251804
395 0.23656
400 0.321349
405 0.446836
410 8.1758
415 148.578
420 233.032
425 59.5185
430 8.23635
435 2.26925
440 1.69498
445 2.0885
450 2.13877
455 2.00716
460 1.89075
465 2.0451
470 2.58801
475 4.51316
480 5.65674
485 4.13907
490 3.6103
495 3.14297
500 2.72568
505 2.36462
510 2.32178
515 2.14857
520 2.14177
525 1.92033
530 1.70668
535 1.80445
540 1.5878
545 1.50855
550 1.38128
555 1.19285
560 1.05398
565 0.972951
570 0.724709
575 0.628387
580 0.463059
585 0.423804
590 0.374533
595 0.4137
600 0.464115
Ex : 428
200 0.114159
205 0.146256
210 0.187084
215 0.127799
220 0.118178
225 0.140312
230 0.147664
235 0.0951503
240 0.226068
245 0.15792
250 0.145148
255 0.112773
260 0.15242
265 0.166105
270 0.124016
275 0.115375
280 0.114452
285 0.111924
290 0.120721
295 0.134397
300 0.157615
305 0.155295
310 0.127062
315 0.122183
320 0.168394
325 0.147426
330 0.131484
335 0.183538
340 0.151919
345 0.156177
350 0.143691
355 0.149293
360 0.175043
365 0.189009
370 0.192076
375 0.146642
380 0.185153
385 0.233501
390 0.204193
395 0.185732
400 0.217343
405 0.28933
410 0.442067
415 8.82537
420 147.013
425 233.22
430 62.24
435 8.48934
440 2.22793
445 1.56934
450 1.9422
455 2.10879
460 2.02276
465 1.79473
470 1.9068
475 2.27188
480 3.91372
485 5.58477
490 4.16643
495 3.29273
500 2.96954
505 2.50703
510 2.33549
515 1.93603
520 2.00581
525 1.91942
530 1.76425
535 1.74632
540 1.57885
545 1.35937
550 1.28961
555 1.1999
560 1.02106
565 0.973888
570 0.849387
575 0.638305
580 0.508932
585 0.393856
590 0.357908
595 0.35079
600 0.348036
Ex : 433
200 0.12102
205 0.12452
210 0.141269
215 0.154592
220 0.116512
225 0.190213
230 0.144735
235 0.149604
240 0.100725
245 0.149838
250 0.210431
255 0.202856
260 0.172129
265 0.134873
270 0.158511
275 0.114046
280 0.189216
285 0.210554
290 0.155031
295 0.125195
300 0.146245
305 0.120369
310 0.10624
315 0.195425
320 0.11555
325 0.155943
330 0.16681
335 0.138776
340 0.152038
345 0.16422
350 0.116847
355 0.161199
360 0.141691
365 0.142938
370 0.130624
375 0.225672
380 0.156659
385 0.193786
390 0.193695
395 0.212735
400 0.220826
405 0.19993
410 0.275292
415 0.464296
420 9.46951
425 156.563
430 239.976
435 60.5389
440 8.25107
445 2.29824
450 1.62853
455 1.94193
460 2.09877
465 1.81047
470 1.8635
475 1.91588
480 1.93357
485 3.11398
490 5.09493
495 4.50378
500 3.30425
505 2.97277
510 2.4276
515 2.11272
520 1.95396
525 1.88852
530 1.64547
535 1.54348
540 1.47017
545 1.3043
550 1.26489
555 1.11261
560 1.02159
565 0.962506
570 0.830764
575 0.7095
580 0.491994
585 0.415203
590 0.446623
595 0.356495
600 0.180809
Ex : 438
200 0.172273
205 0.138395
210 0.177997
215 0.105627
220 0.124428
225 0.114172
230 0.123706
235 0.113799
240 0.147727
245 0.193571
250 0.163642
255 0.14806
260 0.16084
265 0.135672
270 0.134415
275 0.113386
280 0.192921
285 0.137032
290 0.134821
295 0.131503
300 0.140292
305 0.146154
310 0.155544
315 0.113478
320 0.159747
325 0.148829
330 0.153057
335 0.132574
340 0.15669
345 0.161724
350 0.157388
355 0.130138
360 0.185709
365 0.169139
370 0.183819
375 0.158873
380 0.148552
385 0.169286
390 0.172323
395 0.243262
400 0.194374
405 0.254565
410 0.276956
415 0.313
420 0.426915
425 9.43094
430 156.946
435 250.385
440 64.5843
445 8.64014
450 2.30763
455 1.61742
460 1.86312
465 2.14
470 1.85678
475 1.70778
480 1.79141
485 1.79281
490 2.56633
495 4.42285
500 4.71629
505 3.18105
510 2.75984
515 2.49508
520 2.02174
525 1.79353
530 1.85467
535 1.65549
540 1.54207
545 1.34434
550 1.33218
555 1.18234
560 1.04477
565 0.914549
570 0.880748
575 0.664705
580 0.528828
585 0.49704
590 0.383325
595 0.277089
600 0.0402771
Ex : 443
200 0.134721
205 0.151697
210 0.136452
215 0.132911
220 0.149917
225 0.184463
230 0.151075
235 0.134328
240 0.0897886
245 0.126322
250 0.174133
255 0.199663
260 0.129037
265 0.160316
270 0.160084
275 0.169106
280 0.184896
285 0.126987
290 0.162697
295 0.177549
300 0.130882
305 0.144166
310 0.161906
315 0.121709
320 0.165325
325 0.120432
330 0.159965
335 0.143441
340 0.130617
345 0.131209
350 0.136238
355 0.16337
360 0.158236
365 0.174379
370 0.220362
375 0.213033
380 0.170035
385 0.155639
390 0.17231
395 0.216455
400 0.189046
405 0.248473
410 0.219613
415 0.257765
420 0.356188
425 0.439655
430 10.2513
435 164.978
440 251.676
445 64.0095
450 8.64527
455 2.16972
460 1.49797
465 1.72178
470 1.86353
475 1.91281
480 1.65941
485 1.64555
490 1.80908
495 1.99225
500 3.49675
505 4.57692
510 3.23971
515 2.56443
520 2.29451
525 2.0185
530 1.59167
535 1.60336
540 1.4345
545 1.32427
550 1.16554
555 1.18908
560 1.04299
565 0.875181
570 0.826882
575 0.618391
580 0.510831
585 0.492706
590 0.383188
595 0.35665
600 0.34883
Ex : 448
200 0.132499
205 0.147054
210 0.149362
215 0.165527
220 0.120448
225 0.206298
230 0.143041
235 0.158084
240 0.150586
245 0.147833
250 0.134373
255 0.124561
260 0.169942
265 0.126984
270 0.120213
275 0.181963
280 0.141718
285 0.108814
290 0.117886
295 0.0962544
300 0.184283
305 0.12079
310 0.136788
315 0.150502
320 0.167407
325 0.159506
330 0.127144
335 0.157941
340 0.145265
345 0.221951
350 0.171033
355 0.126935
360 0.108693
365 0.177613
370 0.15234
375 0.169479
380 0.177759
385 0.167337
390 0.183204
395 0.18206
400 0.208778
405 0.262577
410 0.221921
415 0.200648
420 0.274176
425 0.33339
430 0.511571
435 10.5043
440 176.501
445 262.361
450 65.77
455 8.74063
460 2.30804
465 1.52287
470 1.69456
475 1.98091
480 2.02107
485 1.78458
490 1.56374
495 1.72303
500 1.91578
505 2.89528
510 4.41487
515 3.62549
520 2.49538
525 2.21852
530 1.98273
535 1.73063
540 1.49435
545 1.37227
550 1.38394
555 1.25499
560 1.00988
565 1.08529
570 0.841124
575 0.65345
580 0.547677
585 0.532712
590 0.457887
595 0.344037
600 0.460097
Ex : 453
200 0.153656
205 0.160061
210 0.115501
215 0.139294
220 0.125545
225 0.179857
230 0.162241
235 0.170278
240 0.162947
245 0.140515
250 0.133536
255 0.150174
260 0.106949
265 0.136706
270 0.134512
275 0.14902
280 0.130415
285 0.156135
290 0.112348
295 0.147658
300 0.16388
305 0.139622
310 0.13555
315 0.126209
320 0.182838
325 0.135205
330 0.150227
335 0.126866
340 0.0982778
345 0.154489
350 0.198313
355 0.155371
360 0.152078
365 0.144385
370 0.180272
375 0.120585
380 0.146257
385 0.216336
390 0.13407
395 0.141123
400 0.200114
405 0.200469
410 0.17212
415 0.176903
420 0.21468
425 0.299877
430 0.310903
435 0.473149
440 10.7262
445 184.794
450 267.748
455 63.6658
460 8.56482
465 2.33612
470 1.47329
475 1.61298
480 1.93705
485 1.78737
490 1.68523
495 1.65401
500 1.65343
505 1.83381
510 2.30868
515 3.70832
520 3.725
525 2.61242
530 2.21788
535 2.12728
540 1.63355
545 1.47842
550 1.37684
555 1.30057
560 1.10501
565 0.984258
570 0.879146
575 0.663402
580 0.521796
585 0.475434
590 0.422206
595 0.355352
600 0.183013
Ex : 458
200 0.131109
205 0.142913
210 0.132779
215 0.164737
220 0.132855
225 0.154395
230 0.128005
235 0.11595
240 0.130433
245 0.123057
250 0.131594
255 0.160092
260 0.156988
265 0.127403
270 0.114206
275 0.131259
280 0.148814
285 0.143188
290 0.155654
295 0.130564
300 0.109954
305 0.176336
310 0.143054
315 0.180268
320 0.154283
325 0.162208
330 0.192247
335 0.111246
340 0.121349
345 0.160621
350 0.17683
355 0.166298
360 0.144932
365 0.183205
370 0.132014
375 0.142361
380 0.15717
385 0.168479
390 0.218843
395 0.142736
400 0.205292
405 0.169716
410 0.16022
415 0.233261
420 0.221226
425 0.276504
430 0.297487
435 0.287349
440 0.454902
445 11.8352
450 186.537
455 275.261
460 67.4532
465 8.98815
470 2.3877
475 1.39591
480 1.59027
485 2.06946
490 1.89244
495 1.65463
500 1.72653
505 1.61729
510 1.66841
515 1.84679
520 3.07725
525 3.9218
530 2.80426
535 2.09701
540 2.08728
545 1.80018
550 1.32572
555 1.28764
560 1.23117
565 1.0479
570 0.885871
575 0.657831
580 0.527205
585 0.481279
590 0.345961
595 0.308618
600 0.195982
Ex : 463
200 0.17153
205 0.114652
210 0.132075
215 0.129056
220 0.149691
225 0.121792
230 0.129471
235 0.150838
240 0.13684
245 0.159469
250 0.117548
255 0.120681
260 0.137635
265 0.159961
270 0.123818
275 0.144273
280 0.133003
285 0.140615
290 0.133385
295 0.146333
300 0.122735
305 0.10663
310 0.126042
315 0.128874
320 0.13743
325 0.131045
330 0.141958
335 0.135664
340 0.124537
345 0.162747
350 0.133281
355 0.143454
360 0.151601
365 0.18274
370 0.129344
375 0.119515
380 0.154935
385 0.160373
390 0.100565
395 0.170829
400 0.167575
405 0.154688
410 0.182409
415 0.182478
420 0.153511
425 0.210383
430 0.186774
435 0.247412
440 0.316858
445 0.416443
450 11.0713
455 188.85
460 293.831
465 71.2195
470 9.38847
475 2.44158
480 1.5435
485 1.56923
490 1.95967
495 1.83211
500 1.7635
505 1.48187
510 1.59823
515 1.67169
520 1.64656
525 2.57012
530 3.66634
535 3.40904
540 2.3676
545 1.93744
550 1.88061
555 1.38143
560 1.13584
565 1.02602
570 0.900645
575 0.762706
580 0.636311
585 0.46735
590 0.418212
595 0.36429
600 0.375465
Ex : 468
200 0.145932
205 0.146682
210 0.143865
215 0.170038
220 0.123794
225 0.144662
230 0.103035
235 0.109992
240 0.119768
245 0.102896
250 0.120624
255 0.0924266
260 0.112376
265 0.131942
270 0.136642
275 0.134568
280 0.109048
285 0.114617
290 0.115012
295 0.134863
300 0.124385
305 0.11986
310 0.141139
315 0.129664
320 0.0985237
325 0.137356
330 0.187451
335 0.116451
340 0.127907
345 0.144128
350 0.126187
355 0.132088
360 0.121212
365 0.123343
370 0.120131
375 0.113884
380 0.11492
385 0.138779
390 0.160323
395 0.131501
400 0.135947
405 0.130674
410 0.132285
415 0.142042
420 0.178179
425 0.149152
430 0.158073
435 0.200261
440 0.217009
445 0.307614
450 0.396926
455 12.2244
460 192.827
465 302.302
470 73.4116
475 9.5458
480 2.37092
485 1.49274
490 1.51486
495 1.75346
500 1.95858
505 1.74844
510 1.64369
515 1.60924
520 1.62064
525 1.7196
530 2.10416
535 3.20521
540 3.42435
545 2.41789
550 1.81856
555 1.70015
560 1.33199
565 1.14373
570 0.873532
575 0.725337
580 0.63015
585 0.507305
590 0.386592
595 0.300654
600 0.781643
Ex : 473
200 0.0954334
205 0.150198
210 0.160646
215 0.140476
220 0.12748
225 0.132069
230 0.101832
235 0.14687
240 0.146037
245 0.126905
250 0.0778947
255 0.112986
260 0.160773
265 0.158619
270 0.0987364
275 0.109833
280 0.144511
285 0.0997616
290 0.116739
295 0.172015
300 0.11324
305 0.0936847
310 0.116358
315 0.127182
320 0.129617
325 0.134994
330 0.145532
335 0.130511
340 0.116984
345 0.162341
350 0.134573
355 0.162049
360 0.101538
365 0.124986
370 0.130084
375 0.155409
380 0.141457
385 0.15724
390 0.150919
395 0.133289
400 0.114044
405 0.219549
410 0.219139
415 0.169002
420 0.184748
425 0.211207
430 0.221459
435 0.176434
440 0.250231
445 0.269584
450 0.32122
455 0.468394
460 13.6951
465 207.837
470 286.762
475 66.6922
480 8.81147
485 2.32656
490 1.54911
495 1.44859
500 1.74588
505 1.87737
510 1.60629
515 1.58243
520 1.5004
525 1.58027
530 1.68323
535 1.75971
540 2.73741
545 3.31185
550 2.51355
555 1.86219
560 1.66589
565 1.37841
570 1.04189
575 0.745386
580 0.621142
585 0.613462
590 0.486558
595 0.379137
600 0.14289
Ex : 478
200 0.140763
205 0.153283
210 0.126612
215 0.168259
220 0.144162
225 0.162776
230 0.211723
235 0.200365
240 0.19632
245 0.131881
250 0.136769
255 0.146867
260 0.167958
265 0.193638
270 0.200361
275 0.194821
280 0.135117
285 0.149341
290 0.130909
295 0.138113
300 0.176357
305 0.172189
310 0.195972
315 0.135622
320 0.148386
325 0.172916
330 0.152353
335 0.193609
340 0.191053
345 0.199772
350 0.158488
355 0.155048
360 0.164127
365 0.171571
370 0.252176
375 0.223939
380 0.145922
385 0.148954
390 0.238725
395 0.184561
400 0.149662
405 0.21318
410 0.149046
415 0.227756
420 0.223374
425 0.195384
430 0.218846
435 0.206002
440 0.252578
445 0.269807
450 0.277282
455 0.346748
460 0.485527
465 15.2064
470 208.507
475 288.364
480 70.0433
485 9.13309
490 2.27281
495 1.48897
500 1.367
505 1.62828
510 1.73477
515 1.78416
520 1.53502
525 1.73588
530 1.66218
535 1.76158
540 1.65533
545 2.29794
550 3.34461
555 2.7921
560 1.79138
565 1.53947
570 1.26071
575 0.879603
580 0.69337
585 0.598739
590 0.499023
595 0.421677
600 0.545124
Ex : 483
200 0.134807
205 0.175445
210 0.186851
215 0.154631
220 0.178898
225 0.129154
230 0.136102
235 0.150207
240 0.131723
245 0.150906
250 0.154293
255 0.14876
260 0.139822
265 0.130982
270 0.177786
275 0.162887
280 0.132916
285 0.143755
290 0.170347
295 0.174135
300 0.151339
305 0.21341
310 0.154186
315 0.142754
320 0.141025
325 0.203145
330 0.179035
335 0.154924
340 0.190089
345 0.138511
350 0.186341
355 0.192082
360 0.185536
365 0.133939
370 0.219154
375 0.172075
380 0.189074
385 0.171119
390 0.221553
395 0.145019
400 0.159901
405 0.220362
410 0.19688
415 0.185819
420 0.148819
425 0.181022
430 0.293971
435 0.205311
440 0.230005
445 0.266995
450 0.25243
455 0.281053
460 0.383548
465 0.55177
470 11.6443
475 206.028
480 317.345
485 76.9826
490 9.94397
495 2.39335
500 1.4532
505 1.32727
510 1.45528
515 1.63213
520 1.86206
525 1.70733
530 1.56819
535 1.66603
540 1.79505
545 1.74959
550 1.96656
555 3.05221
560 2.90795
565 2.02694
570 1.28829
575 1.05013
580 0.900909
585 0.597844
590 0.449014
595 0.364454
600 0.194796
Ex : 488
200 0.165096
205 0.224131
210 0.24057
215 0.172555
220 0.150737
225 0.211726
230 0.130234
235 0.16602
240 0.180094
245 0.162433
250 0.152856
255 0.207658
260 0.185591
265 0.223119
270 0.171942
275 0.159841
280 0.163102
285 0.180557
290 0.168695
295 0.20625
300 0.186149
305 0.199291
310 0.139161
315 0.177216
320 0.159939
325 0.194295
330 0.156981
335 0.170518
340 0.216175
345 0.176254
350 0.176182
355 0.190782
360 0.170346
365 0.188902
370 0.200943
375 0.143538
380 0.207062
385 0.146805
390 0.199728
395 0.199347
400 0.223484
405 0.144475
410 0.222297
415 0.175806
420 0.233855
425 0.294642
430 0.261588
435 0.167958
440 0.271823
445 0.186767
450 0.267195
455 0.258922
460 0.327171
465 0.424349
470 0.61937
475 14.2413
480 220.737
485 304.631
490 72.9275
495 9.42829
500 2.2825
505 1.37527
510 1.29069
515 1.47553
520 1.84084
525 1.7853
530 1.7373
535 1.86007
540 1.67924
545 1.85385
550 1.75739
555 1.8071
560 2.34771
565 2.67933
570 2.00753
575 1.16197
580 0.910742
585 0.783209
590 0.540018
595 0.482056
600 0.0650036
Ex : 493
200 0.182844
205 0.166968
210 0.138958
215 0.200904
220 0.190049
225 0.161042
230 0.196602
235 0.204244
240 0.186189
245 0.211843
250 0.166115
255 0.125058
260 0.203043
265 0.245098
270 0.224368
275 0.143178
280 0.150688
285 0.165896
290 0.203169
295 0.196646
300 0.190419
305 0.199344
310 0.233471
315 0.189017
320 0.195174
325 0.140011
330 0.197414
335 0.199014
340 0.191143
345 0.177469
350 0.130399
355 0.183839
360 0.156068
365 0.138172
370 0.201024
375 0.218227
380 0.219614
385 0.194091
390 0.201017
395 0.196294
400 0.218555
405 0.221653
410 0.23929
415 0.207048
420 0.20879
425 0.16356
430 0.188575
435 0.175977
440 0.203711
445 0.242418
450 0.218235
455 0.214036
460 0.281927
465 0.297775
470 0.440079
475 0.56988
480 12.5682
485 212.835
490 315.052
495 73.527
500 9.4817
505 2.25377
510 1.40015
515 1.23146
520 1.45927
525 1.68339
530 1.97557
535 2.10379
540 1.90182
545 1.97375
550 1.71425
555 1.63245
560 1.59307
565 1.74865
570 2.52892
575 1.86485
580 1.04338
585 0.820307
590 0.674987
595 0.573959
600 0.445116
Ex : 498
200 0.206621
205 0.183346
210 0.169233
215 0.245101
220 0.178593
225 0.145816
230 0.161408
235 0.178524
240 0.209854
245 0.177613
250 0.164345
255 0.173332
260 0.194201
265 0.161905
270 0.186773
275 0.206009
280 0.164788
285 0.140655
290 0.144363
295 0.167123
300 0.142811
305 0.196344
310 0.229979
315 0.155675
320 0.173233
325 0.162169
330 0.202826
335 0.236532
340 0.24468
345 0.242809
350 0.195199
355 0.209267
360 0.228398
365 0.245078
370 0.181845
375 0.218686
380 0.200696
385 0.190018
390 0.190938
395 0.206551
400 0.228123
405 0.181036
410 0.247253
415 0.221774
420 0.247363
425 0.210537
430 0.219058
435 0.289217
440 0.260689
445 0.318645
450 0.26749
455 0.243721
460 0.278087
465 0.283028
470 0.396205
475 0.45409
480 0.637551
485 15.3155
490 226.361
495 303.829
500 71.45
505 9.23166
510 2.10359
515 1.48794
520 1.50983
525 1.60826
530 1.97255
535 2.01519
540 2.10122
545 2.09308
550 1.94999
555 1.79504
560 1.58232
565 1.45447
570 1.37602
575 1.72758
580 1.78933
585 1.11355
590 0.751452
595 0.602465
600 0.463254
Ex : 503
200 0.152583
205 0.226993
210 0.235449
215 0.188893
220 0.210466
225 0.183082
230 0.151103
235 0.112376
240 0.150945
245 0.189048
250 0.187647
255 0.144393
260 0.15737
265 0.164124
270 0.176881
275 0.19979
280 0.192928
285 0.150911
290 0.258456
295 0.180561
300 0.243018
305 0.228735
310 0.18827
315 0.211432
320 0.210887
325 0.144635
330 0.144897
335 0.215558
340 0.215501
345 0.209574
350 0.263194
355 0.259926
360 0.191602
365 0.215202
370 0.225776
375 0.259465
380 0.230714
385 0.190062
390 0.2006
395 0.178859
400 0.165802
405 0.186617
410 0.210976
415 0.176925
420 0.22688
425 0.237653
430 0.279756
435 0.234984
440 0.290442
445 0.161967
450 0.262808
455 0.236197
460 0.289673
465 0.332188
470 0.286882
475 0.344315
480 0.565377
485 0.590515
490 13.0814
495 215.437
500 304.009
505 70.712
510 9.24499
515 2.23032
520 1.40281
525 1.37735
530 1.75056
535 2.20885
540 2.22049
545 2.41848
550 2.0963
555 1.96263
560 1.75257
565 1.45921
570 1.14574
575 1.10638
580 1.23784
585 1.52228
590 1.06
595 0.638027
600 0.399101
Ex : 508
200 0.17672
205 0.124632
210 0.188072
215 0.204398
220 0.185311
225 0.17055
230 0.193433
235 0.164888
240 0.163511
245 0.162698
250 0.210346
255 0.215887
260 0.182762
265 0.219026
270 0.175191
275 0.174823
280 0.2302
285 0.242336
290 0.238979
295 0.207657
300 0.192961
305 0.198075
310 0.23207
315 0.187756
320 0.17784
325 0.264604
330 0.300963
335 0.183567
340 0.202709
345 0.204073
350 0.209228
355 0.22629
360 0.212831
365 0.244294
370 0.292529
375 0.226051
380 0.184627
385 0.189723
390 0.257775
395 0.190251
400 0.235923
405 0.248737
410 0.180493
415 0.261834
420 0.234
425 0.221048
430 0.296557
435 0.226514
440 0.270253
445 0.220295
450 0.277112
455 0.210501
460 0.316625
465 0.246422
470 0.35275
475 0.321065
480 0.295257
485 0.446572
490 0.682963
495 14.2628
500 213.338
505 312.974
510 76.5161
515 9.97192
520 2.35276
525 1.69512
530 1.61432
535 2.03136
540 2.38529
545 2.38343
550 2.24891
555 2.08507
560 1.82645
565 1.52656
570 1.2028
575 1.09156
580 0.855261
585 0.84629
590 1.08763
595 0.926923
600 0.805541
Ex : 513
200 0.259152
205 0.230295
210 0.176414
215 0.252122
220 0.226067
225 0.181829
230 0.273424
235 0.182524
240 0.187924
245 0.249884
250 0.185105
255 0.179764
260 0.228193
265 0.172786
270 0.145242
275 0.196815
280 0.222594
285 0.229634
290 0.202716
295 0.19782
300 0.180762
305 0.237909
310 0.174147
315 0.161176
320 0.23549
325 0.21378
330 0.206059
335 0.202248
340 0.1643
345 0.266132
350 0.213071
355 0.175935
360 0.176801
365 0.2155
370 0.182887
375 0.229907
380 0.192524
385 0.188494
390 0.191954
395 0.154754
400 0.179279
405 0.288773
410 0.302182
415 0.258072
420 0.208253
425 0.314434
430 0.224595
435 0.249772
440 0.239504
445 0.223222
450 0.211002
455 0.228207
460 0.278575
465 0.295723
470 0.259985
475 0.306722
480 0.317126
485 0.319956
490 0.457045
495 0.670886
500 13.2557
505 212.311
510 309.874
515 77.5637
520 10.2742
525 2.60772
530 2.1351
535 2.27668
540 2.46491
545 2.66656
550 2.67954
555 2.47256
560 2.16304
565 1.67961
570 1.36458
575 1.14287
580 0.84782
585 0.818149
590 0.618698
595 0.793343
600 0.882119
Ex : 518
200 0.145993
205 0.257768
210 0.191052
215 0.188483
220 0.227693
225 0.187894
230 0.197577
235 0.217742
240 0.186665
245 0.263499
250 0.212292
255 0.183372
260 0.230575
265 0.197141
270 0.199411
275 0.123332
280 0.164114
285 0.202273
290 0.215405
295 0.157601
300 0.198749
305 0.249955
310 0.270025
315 0.215986
320 0.17796
325 0.236589
330 0.171279
335 0.246973
340 0.1824
345 0.190598
350 0.215809
355 0.217994
360 0.219387
365 0.232247
370 0.232044
375 0.263108
380 0.344927
385 0.229334
390 0.23298
395 0.168077
400 0.185831
405 0.20817
410 0.249839
415 0.204614
420 0.278491
425 0.273856
430 0.26022
435 0.240468
440 0.246936
445 0.253237
450 0.302013
455 0.237689
460 0.2466
465 0.244987
470 0.200126
475 0.284236
480 0.280976
485 0.270736
490 0.473046
495 0.482071
500 0.695018
505 13.9237
510 208.23
515 304.188
520 75.6106
525 10.4168
530 2.85084
535 2.59313
540 2.90618
545 2.9279
550 3.1293
555 2.7937
560 2.71122
565 2.02265
570 1.64745
575 1.36412
580 0.916483
585 0.829061
590 0.759048
595 0.616326
600 0.210063
Ex : 523
200 0.145311
205 0.162677
210 0.171273
215 0.178917
220 0.216011
225 0.183895
230 0.188185
235 0.202176
240 0.197132
245 0.219669
250 0.294895
255 0.211535
260 0.247298
265 0.179865
270 0.207914
275 0.200145
280 0.218801
285 0.235974
290 0.188057
295 0.256872
300 0.23656
305 0.192873
310 0.185889
315 0.211668
320 0.156128
325 0.239213
330 0.227911
335 0.25761
340 0.223231
345 0.187705
350 0.303988
355 0.312185
360 0.269347
365 0.214921
370 0.219768
375 0.200618
380 0.188045
385 0.338139
390 0.265192
395 0.27122
400 0.235501
405 0.268776
410 0.19867
415 0.281525
420 0.295361
425 0.233297
430 0.243785
435 0.241848
440 0.237566
445 0.22329
450 0.279165
455 0.331114
460 0.226773
465 0.221961
470 0.199044
475 0.274325
480 0.277935
485 0.281556
490 0.346063
495 0.387528
500 0.393657
505 0.724307
510 12.1179
515 195.295
520 297.953
525 77.6815
530 10.8616
535 3.71482
540 3.28804
545 3.4176
550 3.42879
555 3.02017
560 2.84604
565 2.4498
570 1.88948
575 1.38752
580 1.21993
585 0.814487
590 0.665573
595 0.596594
600 0.297006
Ex : 528
200 0.177872
205 0.197525
210 0.216788
215 0.207652
220 0.278802
225 0.158266
230 0.257985
235 0.119256
240 0.142908
245 0.203704
250 0.267803
255 0.236819
260 0.20742
265 0.304471
270 0.244393
275 0.182145
280 0.233567
285 0.25302
290 0.189685
295 0.189058
300 0.194585
305 0.204155
310 0.263277
315 0.248438
320 0.204626
325 0.22052
330 0.182492
335 0.215656
340 0.301082
345 0.205705
350 0.240515
355 0.215574
360 0.213925
365 0.22111
370 0.176459
375 0.2638
380 0.224065
385 0.18351
390 0.219088
395 0.213933
400 0.191715
405 0.29284
410 0.311987
415 0.217607
420 0.288791
425 0.184492
430 0.221891
435 0.29124
440 0.302941
445 0.263367
450 0.262966
455 0.247373
460 0.303918
465 0.263023
470 0.32096
475 0.244392
480 0.246697
485 0.254043
490 0.373166
495 0.416938
500 0.342307
505 0.423557
510 0.670798
515 11.7846
520 188.884
525 289.764
530 74.868
535 11.1984
540 4.34757
545 3.71279
550 3.76654
555 3.42841
560 3.25059
565 2.65427
570 2.1734
575 1.74917
580 1.20271
585 0.914586
590 0.762353
595 0.67551
600 0.207327
Ex : 533
200 0.240369
205 0.218602
210 0.239895
215 0.244806
220 0.240765
225 0.226671
230 0.300253
235 0.237542
240 0.249443
245 0.285836
250 0.215653
255 0.275183
260 0.185153
265 0.177386
270 0.218581
275 0.192195
280 0.203617
285 0.238284
290 0.17857
295 0.236498
300 0.203397
305 0.271062
310 0.271485
315 0.217715
320 0.23307
325 0.17748
330 0.190287
335 0.266346
340 0.240056
345 0.210344
350 0.297412
355 0.266645
360 0.224873
365 0.330406
370 0.251867
375 0.299461
380 0.276691
385 0.266702
390 0.209326
395 0.279224
400 0.272344
405 0.249443
410 0.338335
415 0.322745
420 0.309106
425 0.257637
430 0.208817
435 0.213394
440 0.323345
445 0.266531
450 0.271456
455 0.242129
460 0.296137
465 0.249139
470 0.322453
475 0.302678
480 0.358029
485 0.326937
490 0.226136
495 0.299277
500 0.241089
505 0.432202
510 0.529029
515 0.659297
520 11.973
525 194.648
530 308.979
535 84.3124
540 12.8999
545 4.87987
550 3.8417
555 3.18536
560 2.87696
565 2.64217
570 2.16563
575 1.53386
580 1.14609
585 0.863654
590 0.702899
595 0.696245
600 1.18112
Ex : 538
200 0.157183
205 0.23614
210 0.237276
215 0.235418
220 0.26556
225 0.192326
230 0.224958
235 0.265594
240 0.261178
245 0.20251
250 0.268487
255 0.183917
260 0.249921
265 0.246494
270 0.23385
275 0.210406
280 0.194486
285 0.206338
290 0.223045
295 0.271467
300 0.151152
305 0.167368
310 0.240453
315 0.246969
320 0.233219
325 0.267275
330 0.263839
335 0.228445
340 0.2486
345 0.253239
350 0.21016
355 0.204477
360 0.268474
365 0.237431
370 0.2103
375 0.300806
380 0.31882
385 0.30872
390 0.190927
395 0.261421
400 0.223691
405 0.231725
410 0.304631
415 0.238972
420 0.282523
425 0.290193
430 0.254689
435 0.276009
440 0.281596
445 0.252227
450 0.258069
455 0.218535
460 0.23035
465 0.294708
470 0.252212
475 0.262941
480 0.276128
485 0.260153
490 0.343957
495 0.37131
500 0.388282
505 0.367298
510 0.486048
515 0.576378
520 0.815093
525 10.3706
530 176.933
535 284.505
540 80.2099
545 12.1788
550 4.06149
555 2.98655
560 2.80511
565 2.11795
570 1.77859
575 1.36509
580 1.28274
585 0.917262
590 0.829865
595 0.651753
600 0.66497
Ex : 543
200 0.232704
205 0.202141
210 0.217746
215 0.214883
220 0.179682
225 0.238345
230 0.203539
235 0.220946
240 0.228019
245 0.247469
250 0.29929
255 0.259265
260 0.205082
265 0.221013
270 0.16525
275 0.239296
280 0.155234
285 0.197942
290 0.239767
295 0.192877
300 0.215424
305 0.257083
310 0.165423
315 0.191589
320 0.263058
325 0.255341
330 0.240136
335 0.234771
340 0.271644
345 0.279299
350 0.273379
355 0.337637
360 0.267206
365 0.349342
370 0.325516
375 0.260468
380 0.251779
385 0.289002
390 0.273961
395 0.220307
400 0.234305
405 0.296973
410 0.298928
415 0.296866
420 0.230521
425 0.297369
430 0.219084
435 0.2507
440 0.240722
445 0.275094
450 0.335805
455 0.26902
460 0.393923
465 0.304098
470 0.230198
475 0.224093
480 0.293063
485 0.256013
490 0.261357
495 0.255197
500 0.348266
505 0.306453
510 0.383235
515 0.373965
520 0.540109
525 0.938209
530 9.52014
535 169.971
540 285.397
545 80.9292
550 11.7982
555 3.46755
560 2.12867
565 1.79341
570 1.43556
575 1.06097
580 0.978729
585 0.879137
590 0.608547
595 0.500852
600 0.398401
Ex : 548
200 0.242584
205 0.176007
210 0.278169
215 0.267725
220 0.313675
225 0.249706
230 0.329886
235 0.258607
240 0.230251
245 0.196579
250 0.268257
255 0.280528
260 0.21403
265 0.296319
270 0.239401
275 0.19515
280 0.250507
285 0.300469
290 0.203934
295 0.318488
300 0.300483
305 0.26099
310 0.235651
315 0.264921
320 0.220549
325 0.328788
330 0.246863
335 0.358036
340 0.263891
345 0.261791
350 0.27626
355 0.23156
360 0.242116
365 0.19769
370 0.281811
375 0.261077
380 0.24952
385 0.260317
390 0.285675
395 0.280155
400 0.251263
405 0.32923
410 0.244198
415 0.205825
420 0.193059
425 0.295325
430 0.213358
435 0.197094
440 0.207991
445 0.251837
450 0.231095
455 0.261258
460 0.225832
465 0.318011
470 0.27625
475 0.369204
480 0.325053
485 0.244856
490 0.21978
495 0.402579
500 0.248297
505 0.310937
510 0.356111
515 0.430171
520 0.413923
525 0.559927
530 0.828654
535 11.0217
540 179.33
545 283.592
550 79.2803
555 10.5996
560 2.41653
565 1.50414
570 1.15773
575 0.882323
580 0.637567
585 0.578043
590 0.546267
595 0.50911
600 0.0680052
Ex : 553
200 0.221604
205 0.286592
210 0.24887
215 0.262219
220 0.385066
225 0.285025
230 0.235114
235 0.183049
240 0.240297
245 0.268629
250 0.260408
255 0.262721
260 0.311573
265 0.294398
270 0.255425
275 0.268012
280 0.281536
285 0.238935
290 0.231708
295 0.271035
300 0.226989
305 0.289595
310 0.252798
315 0.282075
320 0.193654
325 0.199698
330 0.328239
335 0.235476
340 0.284583
345 0.284059
350 0.316607
355 0.243667
360 0.233993
365 0.257795
370 0.328054
375 0.236389
380 0.242346
385 0.301921
390 0.305114
395 0.364156
400 0.296402
405 0.309139
410 0.27777
415 0.259101
420 0.278025
425 0.237784
430 0.307665
435 0.27317
440 0.300569
445 0.35603
450 0.286572
455 0.340856
460 0.254422
465 0.288172
470 0.258788
475 0.260946
480 0.212556
485 0.283186
490 0.29123
495 0.37888
500 0.333457
505 0.310844
510 0.325964
515 0.397558
520 0.423288
525 0.447873
530 0.587432
535 0.874689
540 8.89071
545 156.57
550 272.635
555 79.5165
560 10.4387
565 1.98343
570 1.03939
575 0.713272
580 0.557376
585 0.545387
590 0.499268
595 0.47901
600 0.549135
Ex : 558
200 0.371065
205 0.246026
210 0.201117
215 0.274624
220 0.182598
225 0.251305
230 0.242794
235 0.168873
240 0.289266
245 0.176124
250 0.304233
255 0.301074
260 0.238434
265 0.229559
270 0.244151
275 0.268728
280 0.252516
285 0.246577
290 0.207491
295 0.380496
300 0.249378
305 0.243924
310 0.265122
315 0.171306
320 0.246516
325 0.290712
330 0.301879
335 0.273725
340 0.294126
345 0.343751
350 0.256406
355 0.187447
360 0.239691
365 0.268085
370 0.349126
375 0.275029
380 0.334148
385 0.284712
390 0.260507
395 0.348862
400 0.310887
405 0.291279
410 0.245871
415 0.324745
420 0.305668
425 0.339221
430 0.32752
435 0.312745
440 0.359199
445 0.227094
450 0.309202
455 0.321561
460 0.265909
465 0.37893
470 0.264096
475 0.367206
480 0.273696
485 0.315814
490 0.223042
495 0.298069
500 0.277181
505 0.32852
510 0.267303
515 0.309313
520 0.300983
525 0.44862
530 0.534798
535 0.519115
540 0.803484
545 8.1771
550 150.686
555 267.097
560 77.8142
565 9.82297
570 1.84242
575 0.833715
580 0.643659
585 0.487953
590 0.434136
595 0.406266
600 0.265113
Ex : 563
200 0.178667
205 0.230579
210 0.306586
215 0.310062
220 0.25446
225 0.294513
230 0.214517
235 0.238005
240 0.228201
245 0.246065
250 0.262428
255 0.210608
260 0.350964
265 0.297738
270 0.227022
275 0.245307
280 0.248643
285 0.240242
290 0.277456
295 0.279352
300 0.243117
305 0.285571
310 0.207707
315 0.239028
320 0.291165
325 0.343054
330 0.367862
335 0.290588
340 0.309146
345 0.264491
350 0.267326
355 0.303615
360 0.316182
365 0.268232
370 0.245517
375 0.28847
380 0.219984
385 0.27597
390 0.283751
395 0.272627
400 0.263449
405 0.284785
410 0.288603
415 0.461578
420 0.372805
425 0.363831
430 0.268873
435 0.240418
440 0.371692
445 0.312299
450 0.346598
455 0.28751
460 0.290628
465 0.290851
470 0.285182
475 0.308813
480 0.292235
485 0.311365
490 0.355392
495 0.319425
500 0.279054
505 0.329057
510 0.262794
515 0.244466
520 0.353143
525 0.337664
530 0.328081
535 0.448748
540 0.474479
545 0.639315
550 8.27093
555 153.785
560 271.544
565 78.3361
570 9.92631
575 1.57182
580 0.62555
585 0.532725
590 0.506814
595 0.345495
600 0.593193
Ex : 568
200 0.325478
205 0.277823
210 0.298715
215 0.292252
220 0.273114
225 0.218138
230 0.258013
235 0.372364
240 0.263272
245 0.286438
250 0.261939
255 0.263557
260 0.302034
265 0.234538
270 0.285903
275 0.300178
280 0.262285
285 0.28669
290 0.305114
295 0.223617
300 0.276801
305 0.271563
310 0.282239
315 0.295573
320 0.233243
325 0.231229
330 0.28277
335 0.308394
340 0.266141
345 0.273531
350 0.310069
355 0.379042
360 0.310168
365 0.283133
370 0.261485
375 0.414932
380 0.293521
385 0.296238
390 0.309558
395 0.303607
400 0.268306
405 0.26306
410 0.305552
415 0.346787
420 0.430788
425 0.377893
430 0.281876
435 0.312323
440 0.286461
445 0.326279
450 0.27269
455 0.282208
460 0.302421
465 0.204136
470 0.24147
475 0.398229
480 0.382077
485 0.309572
490 0.369853
495 0.364258
500 0.234738
505 0.314773
510 0.199559
515 0.374948
520 0.324296
525 0.407658
530 0.40687
535 0.424799
540 0.422379
545 0.51542
550 0.595243
555 5.83104
560 131.736
565 245.233
570 75.9238
575 9.4899
580 1.50885
585 0.641109
590 0.42908
595 0.371096
600 0.730872
Ex : 573
200 0.329689
205 0.346775
210 0.325692
215 0.281614
220 0.240787
225 0.379594
230 0.380047
235 0.36101
240 0.346287
245 0.254649
250 0.237357
255 0.320593
260 0.31533
265 0.27516
270 0.209726
275 0.282499
280 0.36586
285 0.305353
290 0.334479
295 0.358239
300 0.275453
305 0.20456
310 0.366194
315 0.432188
320 0.248455
325 0.327877
330 0.312818
335 0.231119
340 0.22766
345 0.271087
350 0.319165
355 0.357218
360 0.29873
365 0.244368
370 0.313784
375 0.346936
380 0.372069
385 0.291912
390 0.284171
395 0.416237
400 0.271815
405 0.276913
410 0.295639
415 0.306418
420 0.258867
425 0.333692
430 0.322774
435 0.375216
440 0.307354
445 0.213391
450 0.24702
455 0.304164
460 0.328284
465 0.354966
470 0.321686
475 0.320332
480 0.285339
485 0.308325
490 0.430069
495 0.250147
500 0.306025
505 0.328964
510 0.296965
515 0.314585
520 0.307023
525 0.254426
530 0.321307
535 0.368419
540 0.336907
545 0.375688
550 0.47305
555 0.511456
560 5.38796
565 116.253
570 230.808
575 72.1912
580 8.97457
585 1.50971
590 0.579322
595 0.424849
600 0.395877
Ex : 578
200 0.288051
205 0.281604
210 0.242214
215 0.246014
220 0.376004
225 0.277261
230 0.264434
235 0.236262
240 0.291527
245 0.260362
250 0.270208
255 0.256197
260 0.361481
265 0.281625
270 0.308797
275 0.324786
280 0.233861
285 0.329458
290 0.301767
295 0.262753
300 0.301066
305 0.233422
310 0.241684
315 0.195876
320 0.199212
325 0.285275
330 0.286594
335 0.271729
340 0.303367
345 0.209616
350 0.293423
355 0.329363
360 0.407202
365 0.359711
370 0.279271
375 0.276295
380 0.351447
385 0.360768
390 0.319526
395 0.298463
400 0.313742
405 0.300647
410 0.319829
415 0.301953
420 0.281939
425 0.39134
430 0.312277
435 0.334865
440 0.292457
445 0.236204
450 0.251805
455 0.346551
460 0.326458
465 0.317723
470 0.324046
475 0.260145
480 0.249897
485 0.240481
490 0.239946
495 0.31847
500 0.334745
505 0.315642
510 0.316123
515 0.231481
520 0.243159
525 0.395124
530 0.379981
535 0.369926
540 0.340299
545 0.368958
550 0.377489
555 0.420462
560 0.502296
565 4.51873
570 102.802
575 200.816
580 62.3493
585 7.74571
590 1.28576
595 0.455656
600 0.0698155
Ex : 583
200 0.262012
205 0.371551
210 0.287932
215 0.307866
220 0.302318
225 0.335484
230 0.259914
235 0.345094
240 0.256248
245 0.30633
250 0.279599
255 0.360839
260 0.311834
265 0.31312
270 0.269997
275 0.364347
280 0.346992
285 0.329449
290 0.274176
295 0.236324
300 0.29488
305 0.313878
310 0.237552
315 0.200674
320 0.326766
325 0.353718
330 0.21543
335 0.384378
340 0.293825
345 0.303356
350 0.311589
355 0.414079
360 0.433744
365 0.312409
370 0.2844
375 0.342734
380 0.262297
385 0.373149
390 0.373366
395 0.412085
400 0.297211
405 0.334508
410 0.238612
415 0.246519
420 0.292183
425 0.2763
430 0.351841
435 0.366777
440 0.440945
445 0.251896
450 0.328771
455 0.263915
460 0.331214
465 0.295185
470 0.366599
475 0.266418
480 0.296651
485 0.337658
490 0.335644
495 0.278742
500 0.218984
505 0.263638
510 0.38684
515 0.438743
520 0.3881
525 0.296796
530 0.275331
535 0.295041
540 0.313242
545 0.426287
550 0.351004
555 0.432168
560 0.504353
565 0.528396
570 3.98435
575 91.6821
580 170.909
585 50.8913
590 6.443
595 1.08121
600 0.327546
Ex : 588
200 0.367469
205 0.396696
210 0.493739
215 0.284878
220 0.352474
225 0.335716
230 0.307007
235 0.304161
240 0.291971
245 0.263049
250 0.32396
255 0.221396
260 0.27296
265 0.285725
270 0.234285
275 0.210749
280 0.281628
285 0.346517
290 0.354876
295 0.249028
300 0.212013
305 0.359554
310 0.259203
315 0.384586
320 0.440369
325 0.29236
330 0.247053
335 0.254595
340 0.307776
345 0.323795
350 0.268434
355 0.341077
360 0.347349
365 0.344449
370 0.322415
375 0.246292
380 0.308668
385 0.343831
390 0.29939
395 0.35268
400 0.305658
405 0.31519
410 0.422853
415 0.387214
420 0.401593
425 0.348951
430 0.283756
435 0.357553
440 0.377984
445 0.295777
450 0.29165
455 0.259134
460 0.328865
465 0.302056
470 0.256305
475 0.355494
480 0.332552
485 0.227123
490 0.231333
495 0.352137
500 0.320095
505 0.285332
510 0.286545
515 0.375659
520 0.331632
525 0.279928
530 0.330517
535 0.27286
540 0.346101
545 0.320138
550 0.433347
555 0.377666
560 0.34293
565 0.327694
570 0.489192
575 3.63794
580 78.9768
585 146.644
590 44.0038
595 5.54791
600 1.19876
Ex : 593
200 0.251957
205 0.251781
210 0.261282
215 0.296643
220 0.239334
225 0.317286
230 0.235733
235 0.436667
240 0.262704
245 0.336707
250 0.306954
255 0.206736
260 0.304737
265 0.255991
270 0.352398
275 0.259104
280 0.344381
285 0.417073
290 0.328566
295 0.389106
300 0.306852
305 0.260842
310 0.30804
315 0.263941
320 0.230274
325 0.315414
330 0.242002
335 0.325932
340 0.254304
345 0.211119
350 0.313335
355 0.333286
360 0.265744
365 0.237027
370 0.242017
375 0.253812
380 0.389462
385 0.380422
390 0.467688
395 0.291863
400 0.242723
405 0.318407
410 0.334503
415 0.245964
420 0.285922
425 0.299923
430 0.297721
435 0.223826
440 0.295517
445 0.418594
450 0.276511
455 0.396074
460 0.303714
465 0.296532
470 0.263237
475 0.337401
480 0.366258
485 0.292921
490 0.334965
495 0.317444
500 0.342485
505 0.36964
510 0.262816
515 0.298643
520 0.361318
525 0.341517
530 0.270005
535 0.329209
540 0.298017
545 0.35238
550 0.296641
555 0.37404
560 0.377335
565 0.332518
570 0.343509
575 0.476761
580 3.13312
585 69.727
590 133.565
595 39.315
600 6.35958
Ex : 598
200 0.355351
205 0.315282
210 0.305876
215 0.328639
220 0.326406
225 0.294038
230 0.248696
235 0.356586
240 0.292871
245 0.368747
250 0.326754
255 0.231964
260 0.329729
265 0.337023
270 0.295029
275 0.294339
280 0.402106
285 0.394387
290 0.349366
295 0.285616
300 0.304692
305 0.350107
310 0.257511
315 0.311761
320 0.312749
325 0.350344
330 0.292998
335 0.313832
340 0.345493
345 0.275193
350 0.354267
355 0.327561
360 0.24345
365 0.438651
370 0.335832
375 0.267998
380 0.382496
385 0.284614
390 0.289123
395 0.330953
400 0.302738
405 0.325453
410 0.286607
415 0.356005
420 0.388675
425 0.358796
430 0.279552
435 0.487137
440 0.371615
445 0.333053
450 0.283205
455 0.383909
460 0.374405
465 0.331393
470 0.37625
475 0.45772
480 0.274178
485 0.338195
490 0.339864
495 0.295423
500 0.360211
505 0.405849
510 0.358529
515 0.34753
520 0.413004
525 0.356245
530 0.41007
535 0.258166
540 0.328345
545 0.369275
550 0.343006
555 0.283329
560 0.323813
565 0.31771
570 0.377771
575 0.397504
580 0.37687
585 2.59754
590 63.2051
595 110.86
600 62.112
Ex : 603
200 0.437366
205 0.285198
210 0.288084
215 0.48846
220 0.317053
225 0.318227
230 0.269829
235 0.288416
240 0.260444
245 0.389083
250 0.272543
255 0.286299
260 0.268381
265 0.339377
270 0.448189
275 0.368345
280 0.243722
285 0.373736
290 0.287443
295 0.375245
300 0.339784
305 0.389774
310 0.329522
315 0.239826
320 0.29103
325 0.301881
330 0.324888
335 0.293746
340 0.33518
345 0.314755
350 0.395348
355 0.405048
360 0.322868
365 0.362917
370 0.35382
375 0.268793
380 0.352117
385 0.362151
390 0.327638
395 0.298422
400 0.386524
405 0.317694
410 0.321407
415 0.355678
420 0.410823
425 0.347143
430 0.479369
435 0.490875
440 0.3148
445 0.256853
450 0.332871
455 0.309216
460 0.353014
465 0.442361
470 0.324702
475 0.257677
480 0.418794
485 0.286556
490 0.358639
495 0.383723
500 0.271955
505 0.405378
510 0.41642
515 0.348655
520 0.340078
525 0.487996
530 0.281572
535 0.350673
540 0.371646
545 0.330164
550 0.375918
555 0.450356
560 0.334994
565 0.302879
570 0.25344
575 0.342356
580 0.339895
585 0.407497
590 2.66387
595 50.7662
600 106.412
