File format V 1.0
ven. 13. janv. 16:07:14 2017
Operator : 
Comments : 

=============================================
SpectroFluorometer parameters
Mode : 3D measurement
Data : Fluorescence
Phospho. : Ordinary
Spectrum : Fluorescence

Scan speed : 2400 nm/mn
Response : 100 ms
PM Voltage : 700 V
Shutter : On

Lambda Ex. Start : 203
Lambda Ex. End : 603
Lambda Ex. Step : 5
Ex. Slit : 5 nm

Lambda Em. Start : 200
Lambda Em. End : 600
Lambda Em. Step : 5
Em. Slit : 5 nm

Repetition : 1
Decal lambda em : 10
=============================================
DATA
Ex : 203
200 8.76991
205 5.50732
210 5.58289
215 7.34633
220 6.03399
225 7.70948
230 6.78962
235 6.77394
240 5.41388
245 7.02875
250 7.29867
255 5.39598
260 5.6595
265 6.41538
270 7.01205
275 5.00948
280 6.67956
285 7.34091
290 5.46799
295 5.49229
300 6.325
305 4.32097
310 4.64265
315 5.1287
320 6.71017
325 6.45756
330 6.53861
335 5.9259
340 6.06365
345 6.57343
350 6.36205
355 5.96262
360 5.27545
365 5.51121
370 6.5524
375 5.56437
380 5.77984
385 7.4894
390 9.50708
395 8.17566
400 6.32853
405 6.38362
410 8.6934
415 6.06189
420 6.5807
425 6.36284
430 6.69059
435 9.39457
440 9.3221
445 7.04858
450 4.68588
455 6.88026
460 7.55338
465 6.25845
470 7.81436
475 7.01486
480 8.9114
485 5.65024
490 4.13187
495 6.98898
500 6.57853
505 6.54621
510 7.03334
515 8.29008
520 6.17282
525 7.69771
530 6.35246
535 7.82518
540 8.12713
545 7.14051
550 9.12771
555 6.66506
560 6.01064
565 6.25387
570 7.92034
575 5.91785
580 6.21327
585 3.81082
590 7.25743
595 5.70835
600 0.649588
Ex : 208
200 6.50754
205 5.75959
210 5.39539
215 8.4846
220 6.80774
225 5.92133
230 5.47609
235 7.23726
240 6.79724
245 6.89156
250 8.30912
255 5.3473
260 5.63985
265 7.15848
270 7.40901
275 6.32778
280 5.95633
285 4.67191
290 4.63137
295 6.49772
300 6.10807
305 6.88194
310 7.55342
315 6.42457
320 5.67681
325 6.67468
330 5.94301
335 9.90324
340 6.23874
345 6.23759
350 6.43477
355 6.21435
360 6.65317
365 7.05853
370 8.00863
375 6.71274
380 6.03469
385 8.56775
390 7.7343
395 5.09264
400 10.3072
405 10.459
410 9.45333
415 7.13081
420 7.1653
425 6.79726
430 4.79801
435 8.25836
440 8.2893
445 5.48209
450 7.02329
455 7.00673
460 7.43976
465 7.05407
470 6.35233
475 7.82106
480 5.9784
485 6.07514
490 5.28601
495 6.62189
500 6.50084
505 7.52568
510 6.08418
515 6.60321
520 7.06718
525 7.31698
530 6.13756
535 6.44406
540 5.36498
545 7.68766
550 7.33267
555 9.07612
560 5.94575
565 7.32723
570 10.7753
575 5.63069
580 9.05551
585 8.95248
590 6.98961
595 6.27658
600 0.714251
Ex : 213
200 5.181
205 6.82776
210 6.21629
215 4.27226
220 6.80087
225 5.77409
230 6.34699
235 8.23061
240 5.1716
245 9.03253
250 11.1518
255 7.1039
260 8.45298
265 7.0763
270 5.62503
275 5.19035
280 4.74966
285 4.52043
290 7.26519
295 6.26047
300 6.45618
305 6.54378
310 5.54771
315 7.77528
320 5.51511
325 6.50802
330 7.00642
335 8.08432
340 8.86667
345 7.72325
350 7.71588
355 8.24926
360 7.59378
365 6.37509
370 7.91356
375 8.1186
380 6.41914
385 9.07624
390 5.32752
395 7.04795
400 5.83206
405 6.06343
410 6.10885
415 8.09496
420 5.56095
425 9.86799
430 5.16599
435 5.43907
440 5.04172
445 6.1259
450 8.95765
455 7.51395
460 8.71856
465 9.59261
470 9.45769
475 7.41219
480 7.40766
485 5.4848
490 6.13657
495 6.56942
500 7.26225
505 5.77578
510 5.92139
515 6.56688
520 10.5467
525 6.86613
530 5.68445
535 9.92138
540 8.66782
545 6.20699
550 7.18645
555 7.4685
560 7.13462
565 5.69414
570 6.13263
575 6.68485
580 5.2489
585 6.32994
590 5.85206
595 8.94106
600 10.9134
Ex : 218
200 6.95238
205 7.59919
210 5.18602
215 7.76418
220 7.20892
225 7.58238
230 7.71078
235 6.18651
240 4.99274
245 8.51891
250 6.68098
255 4.33702
260 5.24606
265 8.63304
270 9.24398
275 5.62929
280 4.39947
285 7.47997
290 7.27313
295 6.58798
300 5.67894
305 5.83963
310 4.48603
315 5.12597
320 9.30996
325 6.76214
330 6.502
335 4.3883
340 6.53772
345 9.95636
350 8.88404
355 6.52923
360 6.40555
365 6.04615
370 7.06793
375 5.62131
380 8.43991
385 7.7533
390 7.22447
395 5.80805
400 6.79296
405 6.63051
410 7.18861
415 6.33782
420 7.51003
425 5.21279
430 4.99602
435 10.2388
440 7.9818
445 8.91285
450 3.70815
455 7.7533
460 4.90893
465 4.91447
470 6.69325
475 7.31793
480 8.00186
485 6.78907
490 5.23904
495 6.76632
500 6.32627
505 5.68433
510 7.94933
515 7.17105
520 7.16717
525 6.54746
530 7.28808
535 7.33639
540 4.34325
545 9.03836
550 10.0757
555 6.91888
560 11.1377
565 8.85655
570 5.89551
575 7.94358
580 8.31738
585 5.66746
590 6.84836
595 4.85502
600 0.552483
Ex : 223
200 5.19911
205 3.98055
210 8.08238
215 7.35507
220 6.51262
225 5.18405
230 4.48373
235 5.89818
240 7.80454
245 5.53214
250 4.37045
255 8.51383
260 6.26601
265 5.5465
270 6.20159
275 5.22814
280 6.69674
285 6.75507
290 8.10544
295 4.88612
300 7.15886
305 6.21608
310 4.8835
315 5.12917
320 6.39544
325 6.28132
330 5.6528
335 6.6075
340 6.86594
345 7.36227
350 6.05528
355 8.25
360 7.78676
365 8.3349
370 6.09558
375 6.59531
380 5.22718
385 5.94503
390 6.92829
395 6.00023
400 10.1412
405 6.55253
410 8.15683
415 9.19546
420 5.34661
425 8.71998
430 6.23435
435 6.7549
440 5.57835
445 6.75692
450 6.71286
455 6.47542
460 10.7455
465 5.84816
470 7.59828
475 6.59517
480 6.42221
485 5.53828
490 6.66123
495 5.62221
500 5.66299
505 4.05166
510 6.18218
515 6.52991
520 7.18388
525 8.39122
530 5.9006
535 5.38719
540 3.98295
545 4.57194
550 6.71965
555 9.5875
560 6.1328
565 6.39667
570 6.30412
575 8.84349
580 6.28538
585 12.5951
590 6.41517
595 7.40663
600 4.23996
Ex : 228
200 6.89024
205 5.93323
210 7.91942
215 8.1533
220 7.02583
225 8.58857
230 6.15761
235 6.17341
240 9.20487
245 5.60993
250 8.87859
255 8.60426
260 7.24341
265 5.20788
270 4.44073
275 5.74932
280 8.62621
285 4.43555
290 5.38069
295 6.11263
300 4.98355
305 6.2243
310 3.6648
315 4.06439
320 5.06531
325 4.90812
330 7.28683
335 4.84064
340 5.86071
345 5.99983
350 8.28148
355 6.98608
360 8.70327
365 5.93387
370 6.87107
375 7.26538
380 4.77807
385 6.29197
390 6.09408
395 4.62927
400 7.5201
405 6.65781
410 4.77637
415 4.38502
420 6.27349
425 4.23232
430 8.73586
435 8.21892
440 7.00656
445 5.47003
450 5.45153
455 7.95064
460 8.33492
465 6.28768
470 7.67854
475 5.62672
480 5.44184
485 5.28766
490 5.81198
495 6.35677
500 6.6402
505 6.96286
510 7.34648
515 5.82713
520 6.70948
525 6.79667
530 5.03584
535 5.21995
540 8.39499
545 5.34894
550 6.61561
555 6.20397
560 4.31839
565 5.39373
570 5.6265
575 6.35998
580 6.69699
585 4.60619
590 4.41673
595 5.60303
600 5.29017
Ex : 233
200 5.68924
205 6.37423
210 5.60297
215 6.49083
220 4.6707
225 4.91912
230 5.21515
235 5.23514
240 4.49504
245 4.9201
250 6.54621
255 8.20295
260 6.09346
265 6.73604
270 6.49546
275 5.99707
280 6.23037
285 5.86892
290 3.99888
295 5.90947
300 5.25119
305 4.03604
310 8.69687
315 7.3408
320 7.29089
325 5.40192
330 4.63553
335 5.66822
340 6.93491
345 6.33334
350 5.83748
355 6.02616
360 8.16531
365 5.35651
370 4.87125
375 5.94056
380 5.41792
385 4.62704
390 5.99207
395 5.47381
400 8.84509
405 5.01506
410 5.43418
415 4.58279
420 8.34382
425 6.39747
430 6.90296
435 6.28074
440 6.11841
445 4.56494
450 6.06971
455 8.27226
460 5.58217
465 5.64322
470 8.28438
475 6.74877
480 5.21986
485 5.96085
490 9.00061
495 6.09025
500 5.21864
505 6.41593
510 4.58893
515 5.51548
520 4.21257
525 8.08876
530 7.72564
535 6.8393
540 6.22789
545 5.92368
550 7.22919
555 7.40159
560 5.41379
565 6.76524
570 4.75597
575 7.21275
580 7.04186
585 4.26248
590 5.17381
595 3.55234
600 5.57376
Ex : 238
200 5.42751
205 5.87295
210 5.63106
215 4.64951
220 3.41335
225 4.13801
230 7.33551
235 4.10559
240 3.06251
245 5.514
250 4.64403
255 5.52284
260 3.87077
265 6.36741
270 6.14607
275 6.2302
280 4.12346
285 4.93046
290 4.08212
295 6.16106
300 3.62856
305 5.50941
310 4.7313
315 3.64688
320 5.9266
325 4.17329
330 4.28749
335 4.47743
340 5.88391
345 5.82747
350 5.11114
355 4.81836
360 4.5802
365 6.57748
370 6.19942
375 4.22765
380 6.68452
385 3.95366
390 5.46111
395 7.22284
400 4.28204
405 6.38639
410 4.21826
415 4.73571
420 6.05569
425 5.29281
430 5.83925
435 5.32022
440 4.01014
445 7.18187
450 5.16308
455 6.78765
460 6.55185
465 6.48924
470 6.41866
475 5.01485
480 4.73849
485 3.64094
490 5.3623
495 4.19801
500 6.84994
505 6.60083
510 4.74068
515 4.58975
520 6.24803
525 4.35989
530 5.74493
535 4.8422
540 4.58309
545 6.39386
550 5.13476
555 7.22587
560 4.8151
565 5.0679
570 6.86194
575 6.14091
580 5.49989
585 7.8549
590 4.85492
595 4.91074
600 7.39525
Ex : 243
200 3.66981
205 4.41299
210 6.40441
215 3.62731
220 4.52021
225 5.26088
230 3.61968
235 3.0091
240 4.37115
245 2.81389
250 4.23927
255 5.10497
260 3.84697
265 4.04013
270 2.90249
275 3.40266
280 4.38096
285 5.48775
290 3.91107
295 2.90227
300 4.10473
305 5.38594
310 3.92497
315 4.34195
320 6.67685
325 3.33401
330 4.37606
335 6.24505
340 3.70701
345 4.88145
350 5.58592
355 5.5275
360 5.07966
365 5.80753
370 4.90807
375 5.75797
380 4.7957
385 5.53839
390 5.33189
395 3.36979
400 4.70939
405 5.74749
410 5.12606
415 3.95826
420 6.27449
425 6.90286
430 6.37818
435 3.97799
440 6.80381
445 5.26324
450 4.89318
455 3.88752
460 6.55719
465 4.26126
470 5.24575
475 5.07926
480 5.70448
485 6.06773
490 6.65778
495 4.91828
500 4.42397
505 5.31468
510 5.12234
515 6.22104
520 5.03352
525 4.34356
530 4.89323
535 4.60014
540 4.71514
545 5.92445
550 4.91343
555 4.07219
560 4.28699
565 6.59798
570 5.03958
575 4.19806
580 6.14056
585 5.15923
590 5.68277
595 4.30403
600 2.16372
Ex : 248
200 3.03683
205 3.16345
210 4.05126
215 2.47301
220 4.2731
225 4.4175
230 7.12617
235 3.58992
240 5.55788
245 5.21076
250 3.10265
255 4.19829
260 4.0277
265 3.37296
270 3.04497
275 4.06449
280 3.568
285 2.94749
290 4.93131
295 3.03412
300 4.41272
305 3.92949
310 4.2841
315 3.77032
320 2.92087
325 2.75648
330 4.05978
335 3.65182
340 4.25921
345 4.90808
350 4.06897
355 4.38549
360 4.05408
365 3.44875
370 2.99835
375 4.84928
380 2.62641
385 4.15602
390 4.65356
395 3.76356
400 6.30386
405 5.3499
410 3.58785
415 3.35627
420 6.3152
425 5.28946
430 4.07224
435 3.11209
440 4.11559
445 6.54624
450 4.0746
455 4.33326
460 5.13536
465 4.34189
470 4.45896
475 7.50817
480 4.84106
485 5.4466
490 4.82154
495 4.87834
500 4.66156
505 3.40939
510 4.53965
515 4.04886
520 6.34785
525 4.73948
530 3.2262
535 4.61225
540 3.32339
545 3.17699
550 4.72596
555 3.99223
560 3.69407
565 2.9679
570 5.31468
575 4.60566
580 4.21366
585 5.74853
590 3.3486
595 4.20613
600 22.4368
Ex : 253
200 3.50585
205 3.28074
210 2.27424
215 2.81252
220 4.21034
225 3.38818
230 3.62547
235 4.25064
240 4.86402
245 2.94755
250 3.27942
255 4.72032
260 3.74727
265 2.99934
270 4.56369
275 2.48627
280 6.63544
285 3.06954
290 3.21528
295 4.26086
300 2.96795
305 3.53065
310 3.6862
315 4.98951
320 2.67362
325 2.55516
330 2.82462
335 2.58189
340 3.17397
345 3.55544
350 3.78152
355 4.17546
360 3.81512
365 4.11253
370 3.50488
375 4.57905
380 4.04873
385 4.84914
390 3.41721
395 3.81919
400 3.06579
405 3.81737
410 3.95601
415 2.37347
420 3.75069
425 3.14949
430 4.2288
435 3.33139
440 4.07746
445 4.518
450 3.84242
455 2.96114
460 4.46211
465 4.41134
470 4.16553
475 3.53175
480 3.86221
485 4.03379
490 3.10926
495 5.01421
500 4.75686
505 4.77874
510 3.76223
515 3.42296
520 3.18247
525 2.20859
530 2.24582
535 2.77504
540 2.98305
545 3.82112
550 4.13603
555 2.59167
560 2.86259
565 2.98857
570 3.21307
575 4.23409
580 3.43725
585 4.38754
590 4.52787
595 3.26704
600 3.91659
Ex : 258
200 3.10232
205 2.26987
210 2.94986
215 3.83896
220 3.08321
225 2.54809
230 2.85944
235 3.13582
240 2.54828
245 3.16306
250 3.71609
255 2.88513
260 2.78215
265 2.59237
270 2.52086
275 3.72805
280 3.26113
285 2.07337
290 1.74679
295 3.97828
300 3.36301
305 3.18574
310 3.35497
315 3.32156
320 2.24154
325 2.87325
330 3.17361
335 3.32086
340 2.37447
345 3.64798
350 3.40177
355 2.68133
360 2.89894
365 2.79007
370 3.01046
375 4.35776
380 2.60968
385 2.95199
390 2.69681
395 4.67148
400 2.28659
405 3.39408
410 3.68873
415 2.7221
420 3.0264
425 3.69287
430 4.07247
435 3.19517
440 3.47393
445 3.26731
450 3.34371
455 2.95397
460 3.6714
465 3.03825
470 3.56061
475 3.45087
480 3.33088
485 3.58382
490 2.76808
495 3.11732
500 2.62842
505 3.14119
510 3.89006
515 4.32618
520 3.0747
525 2.80788
530 2.74398
535 3.41654
540 2.64042
545 3.11351
550 2.61298
555 2.24803
560 2.18711
565 3.0899
570 3.17136
575 3.47387
580 2.7459
585 3.0075
590 2.95939
595 1.66694
600 1.9621
Ex : 263
200 1.79102
205 1.3808
210 2.87835
215 2.80667
220 1.8368
225 2.36104
230 2.22379
235 2.74393
240 2.5885
245 2.11412
250 2.56199
255 1.89502
260 2.99884
265 1.40082
270 2.91787
275 1.89082
280 2.68358
285 1.60756
290 2.5023
295 2.81997
300 2.20811
305 2.2931
310 2.0153
315 1.60225
320 2.35079
325 1.79708
330 2.01314
335 2.45293
340 2.35246
345 2.2306
350 2.28238
355 2.3855
360 1.33408
365 3.05427
370 2.78805
375 2.97169
380 2.94955
385 3.24414
390 3.3698
395 1.67602
400 2.31761
405 2.62833
410 2.91229
415 2.52085
420 2.42032
425 1.99288
430 3.50546
435 3.25582
440 1.92307
445 4.29875
450 2.25196
455 2.83793
460 2.26923
465 2.93217
470 3.46979
475 2.76921
480 2.30187
485 2.28189
490 1.94676
495 2.33951
500 2.03727
505 2.10271
510 2.42497
515 2.83014
520 4.0613
525 2.95876
530 3.36095
535 2.54198
540 2.3713
545 2.17848
550 2.26873
555 2.45738
560 1.78002
565 1.72672
570 2.32092
575 2.24898
580 2.08142
585 1.53699
590 1.89339
595 1.9621
600 3.00005
Ex : 268
200 1.98301
205 2.63859
210 1.64323
215 1.47009
220 1.52176
225 1.8138
230 1.60163
235 1.57974
240 1.21478
245 1.5888
250 2.13705
255 1.23435
260 2.29649
265 1.80838
270 1.58641
275 1.25695
280 1.38306
285 1.90488
290 1.58506
295 2.50992
300 2.21703
305 1.45539
310 1.87702
315 2.36769
320 1.93887
325 1.687
330 2.24676
335 1.63691
340 1.79126
345 2.0577
350 1.82287
355 1.33642
360 1.74768
365 2.41162
370 2.0253
375 2.17707
380 2.99265
385 2.859
390 1.89569
395 2.68736
400 1.719
405 1.88828
410 2.47718
415 2.39106
420 2.6564
425 1.76839
430 2.46216
435 2.61484
440 2.60413
445 2.02634
450 2.96232
455 2.40859
460 2.2598
465 1.8499
470 1.54692
475 1.4847
480 1.8931
485 1.66788
490 1.93611
495 1.69221
500 2.15528
505 1.58672
510 1.22848
515 2.05447
520 2.16252
525 3.00416
530 2.64426
535 2.98143
540 2.10402
545 1.82613
550 2.36017
555 1.47213
560 1.43165
565 1.91053
570 2.07198
575 2.57234
580 0.987587
585 1.73598
590 1.46481
595 1.96233
600 1.57593
Ex : 273
200 1.24725
205 1.88543
210 1.13012
215 1.25302
220 1.15263
225 1.09939
230 1.3387
235 1.65091
240 1.79177
245 0.95424
250 1.1945
255 1.59834
260 1.38287
265 1.54607
270 1.43862
275 1.59645
280 1.36328
285 2.32072
290 1.82243
295 2.01308
300 1.68732
305 1.97241
310 1.08132
315 1.23349
320 1.16215
325 1.36815
330 2.16749
335 1.22496
340 1.50071
345 1.40418
350 1.46303
355 1.34006
360 1.51342
365 1.08509
370 1.45234
375 1.45792
380 1.56248
385 2.07643
390 1.1153
395 2.14789
400 1.69646
405 1.52996
410 1.51376
415 1.62462
420 2.33452
425 1.8453
430 2.12373
435 2.11314
440 1.71086
445 1.57681
450 2.03079
455 1.54562
460 1.71371
465 1.92599
470 1.28297
475 1.09093
480 1.94474
485 2.03213
490 1.87924
495 1.70494
500 1.64376
505 1.47012
510 1.49124
515 2.39379
520 2.19983
525 1.65163
530 2.24614
535 2.24063
540 2.57645
545 1.94654
550 1.44739
555 0.996582
560 1.87875
565 1.84181
570 1.13522
575 1.00386
580 1.66375
585 2.11366
590 1.98889
595 1.57411
600 0.908943
Ex : 278
200 1.13824
205 1.0623
210 1.14035
215 1.44285
220 0.886013
225 1.52315
230 1.02338
235 1.18435
240 1.50383
245 1.05437
250 0.957116
255 1.06499
260 1.18581
265 0.896016
270 1.30409
275 1.24053
280 1.08066
285 1.17345
290 1.09815
295 1.3262
300 1.58725
305 0.78492
310 0.974053
315 1.40967
320 1.23319
325 1.01626
330 0.93997
335 1.22499
340 1.26514
345 1.02139
350 1.2691
355 1.03572
360 1.37393
365 1.28774
370 1.21746
375 1.13774
380 1.81112
385 1.48364
390 1.53635
395 1.67445
400 1.7312
405 1.4532
410 1.34869
415 1.35103
420 1.17469
425 1.54778
430 1.60623
435 1.9339
440 1.47687
445 1.46193
450 1.73167
455 1.36848
460 1.46795
465 1.56131
470 1.79049
475 1.54586
480 1.32272
485 1.34436
490 1.70754
495 1.52362
500 1.05885
505 1.11039
510 1.3014
515 0.92699
520 0.921299
525 1.27222
530 0.923692
535 1.06265
540 1.11342
545 1.62773
550 2.11312
555 2.05855
560 1.39799
565 1.99538
570 0.998542
575 1.41467
580 1.47277
585 1.12783
590 1.09196
595 1.33704
600 0.15215
Ex : 283
200 0.816312
205 1.12203
210 0.946518
215 0.706217
220 0.900118
225 0.869858
230 1.03841
235 0.7624
240 0.784513
245 0.72071
250 1.34025
255 0.88969
260 0.977715
265 1.24745
270 0.673555
275 0.867179
280 1.10444
285 1.07072
290 1.16934
295 0.894563
300 0.972837
305 0.871267
310 0.664494
315 0.980219
320 0.888734
325 0.925695
330 0.98288
335 0.789209
340 0.591561
345 1.13392
350 1.44638
355 1.59734
360 1.62636
365 1.5043
370 1.29556
375 1.72201
380 1.3977
385 1.67271
390 1.29268
395 1.30967
400 0.902063
405 1.40758
410 1.27839
415 1.43872
420 1.4421
425 1.38937
430 1.16949
435 1.26043
440 1.18048
445 1.19506
450 1.74605
455 1.4789
460 1.4343
465 1.44696
470 1.01617
475 1.16053
480 1.44411
485 1.47504
490 1.35926
495 1.46037
500 1.38587
505 1.09233
510 0.931272
515 0.719267
520 1.25366
525 1.35843
530 1.06145
535 0.95919
540 1.17577
545 0.754079
550 0.94091
555 1.70614
560 2.00235
565 1.37712
570 0.969933
575 1.06931
580 1.10485
585 0.940889
590 0.826647
595 1.05554
600 0.120116
Ex : 288
200 0.759036
205 0.848828
210 1.0628
215 0.737123
220 0.731571
225 0.909761
230 0.800571
235 0.961333
240 1.06361
245 0.802809
250 0.78271
255 1.11862
260 0.801302
265 1.00972
270 0.730279
275 1.2836
280 1.56989
285 0.999396
290 0.662184
295 0.821873
300 0.672868
305 0.411517
310 0.771765
315 1.13164
320 0.994781
325 0.89884
330 1.08667
335 0.800862
340 0.920805
345 1.24222
350 0.901624
355 0.996423
360 0.923471
365 1.03767
370 1.06858
375 1.37289
380 1.15889
385 1.30647
390 1.16499
395 1.63101
400 1.58151
405 1.39364
410 1.03969
415 1.07102
420 1.09042
425 0.954934
430 0.988714
435 0.991085
440 1.33125
445 1.07341
450 1.06726
455 1.70116
460 1.51805
465 1.32533
470 1.05753
475 1.09078
480 0.88578
485 1.02018
490 0.965969
495 0.945313
500 0.932554
505 0.849872
510 0.8271
515 1.10539
520 0.843241
525 0.945279
530 1.1407
535 0.986075
540 0.742182
545 0.811862
550 0.723183
555 0.924008
560 0.904287
565 1.41891
570 1.9298
575 1.59991
580 0.949492
585 0.895843
590 0.740194
595 1.00462
600 0.114322
Ex : 293
200 0.759686
205 0.846367
210 0.68477
215 0.545372
220 0.55184
225 0.442411
230 0.798873
235 0.641756
240 0.926166
245 0.992482
250 0.725052
255 0.592403
260 0.824379
265 0.881646
270 0.609545
275 0.670091
280 0.733335
285 0.929675
290 1.03246
295 1.16643
300 0.752903
305 0.756723
310 0.684466
315 0.625355
320 0.473741
325 0.632944
330 0.796981
335 0.522411
340 0.709536
345 0.668915
350 0.667951
355 0.588107
360 0.675972
365 0.957415
370 1.20988
375 0.883469
380 0.962705
385 0.987408
390 1.04066
395 1.1647
400 0.878609
405 0.960121
410 1.0284
415 1.47634
420 1.09664
425 0.958997
430 1.14024
435 1.55537
440 1.24088
445 1.07205
450 1.10584
455 0.874258
460 0.767023
465 0.924498
470 1.08299
475 0.918675
480 0.786879
485 0.84109
490 0.892599
495 1.24079
500 0.730228
505 0.803219
510 0.942054
515 0.702407
520 0.862621
525 0.933248
530 0.636499
535 0.878591
540 0.800403
545 0.495416
550 0.849063
555 0.724366
560 0.590456
565 0.625269
570 0.795311
575 1.18962
580 1.91041
585 1.91112
590 0.932583
595 0.868611
600 0.86098
Ex : 298
200 0.796862
205 0.587184
210 0.738428
215 0.51205
220 0.758004
225 0.710517
230 0.727729
235 0.714304
240 0.472625
245 0.55636
250 0.508499
255 0.442206
260 0.520714
265 0.697368
270 0.698093
275 0.658676
280 0.596251
285 0.776509
290 0.96616
295 1.3866
300 0.669385
305 0.457447
310 0.671864
315 0.525491
320 0.689751
325 0.721152
330 0.567266
335 0.606038
340 0.758022
345 0.696986
350 0.773793
355 0.781872
360 0.651087
365 0.684214
370 0.581481
375 1.07539
380 1.06301
385 1.1273
390 0.956475
395 1.01369
400 0.903175
405 1.06372
410 1.04074
415 1.15373
420 1.18555
425 1.10092
430 1.03474
435 1.2239
440 0.846033
445 0.864421
450 0.78304
455 0.992844
460 1.04122
465 1.20231
470 0.872047
475 0.935191
480 0.706618
485 1.00362
490 0.899907
495 0.967983
500 0.984556
505 0.861142
510 0.709687
515 0.836628
520 0.567238
525 0.764528
530 0.582446
535 0.540066
540 0.485261
545 0.674121
550 0.628069
555 0.530673
560 0.721975
565 0.665207
570 0.667009
575 0.562837
580 0.685493
585 1.28457
590 1.80106
595 1.54596
600 1.83554
Ex : 303
200 0.347325
205 0.341281
210 0.496296
215 0.543608
220 0.602578
225 0.552318
230 0.618986
235 0.642225
240 0.512885
245 0.530321
250 0.525057
255 0.508469
260 0.343949
265 0.490137
270 0.484252
275 0.45478
280 0.474668
285 0.554147
290 0.561157
295 0.923176
300 0.993569
305 0.815182
310 0.582764
315 0.543528
320 0.539599
325 0.542277
330 0.616837
335 0.512292
340 0.609207
345 0.591223
350 0.550303
355 0.423275
360 0.743235
365 1.21977
370 0.802054
375 0.738945
380 1.14463
385 0.771839
390 1.19146
395 0.810944
400 1.27133
405 0.91553
410 0.744737
415 1.03382
420 0.765103
425 0.906763
430 0.894714
435 0.851018
440 1.0393
445 0.732229
450 0.834289
455 0.713011
460 0.996605
465 0.767006
470 0.898858
475 0.704719
480 0.697104
485 0.558537
490 0.554054
495 0.561498
500 0.976603
505 0.658534
510 0.566394
515 0.590307
520 0.640465
525 0.576407
530 0.835023
535 0.643656
540 0.626253
545 0.631742
550 0.520966
555 0.70119
560 0.505065
565 0.438795
570 0.555152
575 0.589481
580 0.608135
585 0.699489
590 0.571381
595 1.06071
600 1.06144
Ex : 308
200 0.562253
205 0.784225
210 0.459077
215 0.671882
220 0.425435
225 0.539516
230 0.656978
235 0.502973
240 0.477369
245 0.380189
250 0.462074
255 0.526929
260 0.403432
265 0.502138
270 0.376139
275 0.413535
280 0.40224
285 0.509491
290 0.365514
295 0.474146
300 0.736639
305 1.21773
310 0.623771
315 0.470997
320 0.335744
325 0.461328
330 0.676002
335 0.387345
340 0.516914
345 0.637627
350 0.521919
355 0.624376
360 0.543305
365 0.893986
370 0.717071
375 0.86781
380 0.909722
385 0.877285
390 0.827837
395 0.837463
400 0.797971
405 0.836417
410 0.943874
415 1.05559
420 1.07794
425 1.16965
430 0.915635
435 0.787897
440 0.827676
445 0.964218
450 0.956827
455 0.774553
460 0.773386
465 0.802433
470 0.827304
475 0.979182
480 0.76063
485 0.750267
490 0.592366
495 0.676601
500 0.681251
505 0.661856
510 0.52133
515 0.595521
520 0.493637
525 0.587019
530 0.528913
535 0.588183
540 0.601883
545 0.702744
550 0.604446
555 0.614251
560 0.473436
565 0.424411
570 0.424765
575 0.34655
580 0.513439
585 0.562837
590 0.431527
595 0.565814
600 0.735028
Ex : 313
200 0.387914
205 0.323713
210 0.293397
215 0.352247
220 0.243806
225 0.262738
230 0.341553
235 0.477514
240 0.332124
245 0.507973
250 0.491496
255 0.487264
260 0.453003
265 0.268235
270 0.493328
275 0.337763
280 0.314207
285 0.328503
290 0.345262
295 0.373521
300 0.397755
305 0.783851
310 1.01284
315 0.49692
320 0.417442
325 0.585629
330 0.487944
335 0.593762
340 0.543211
345 0.501733
350 0.497377
355 0.513705
360 0.884262
365 0.681932
370 0.872155
375 1.09387
380 1.07568
385 0.978441
390 1.36135
395 1.30025
400 1.04729
405 1.08538
410 1.21004
415 1.22611
420 1.04541
425 1.24653
430 1.24948
435 1.04174
440 1.16541
445 1.07419
450 1.08601
455 1.1479
460 0.966388
465 1.01623
470 0.853252
475 0.81741
480 0.938087
485 0.691502
490 0.522433
495 0.850805
500 0.722857
505 0.742116
510 0.612483
515 0.693836
520 0.623917
525 0.521732
530 0.385105
535 0.528563
540 0.541537
545 0.556017
550 0.470135
555 0.563482
560 0.602174
565 0.472669
570 0.320135
575 0.52158
580 0.38161
585 0.496665
590 0.540556
595 0.553735
600 0.063013
Ex : 318
200 0.324138
205 0.333354
210 0.346089
215 0.405955
220 0.404512
225 0.442168
230 0.407523
235 0.325831
240 0.399208
245 0.359392
250 0.488348
255 0.339111
260 0.376725
265 0.355215
270 0.457162
275 0.447691
280 0.386074
285 0.413356
290 0.248521
295 0.307771
300 0.535384
305 0.393394
310 1.24924
315 2.23686
320 1.1221
325 0.657439
330 0.738135
335 1.09013
340 1.22468
345 1.58788
350 1.94459
355 2.47162
360 3.17644
365 3.49869
370 4.14022
375 4.81675
380 5.72504
385 6.10644
390 6.64979
395 7.36916
400 7.37479
405 7.15383
410 7.27402
415 7.99464
420 7.79832
425 7.64418
430 7.32488
435 7.33757
440 7.1969
445 6.4257
450 5.86255
455 5.82385
460 5.67723
465 5.10467
470 4.47216
475 4.53331
480 3.89284
485 3.65962
490 2.93823
495 2.94025
500 2.5366
505 2.3315
510 1.82823
515 1.73659
520 1.6067
525 1.36444
530 1.05008
535 1.15439
540 0.986267
545 0.805346
550 0.677938
555 0.759581
560 0.678923
565 0.569569
570 0.518573
575 0.48255
580 0.408478
585 0.395289
590 0.444959
595 0.48548
600 1.51941
Ex : 323
200 0.297543
205 0.267339
210 0.386948
215 0.356068
220 0.285234
225 0.313341
230 0.284517
235 0.321955
240 0.364428
245 0.303719
250 0.335322
255 0.38285
260 0.274768
265 0.432091
270 0.328254
275 0.387956
280 0.368114
285 0.275326
290 0.322024
295 0.271731
300 0.21733
305 0.330199
310 0.369009
315 5.04261
320 18.2013
325 7.11541
330 2.49057
335 3.07422
340 3.95488
345 5.4143
350 8.36418
355 10.5962
360 13.3304
365 15.5942
370 18.2133
375 21.3393
380 25.0035
385 27.1646
390 29.3846
395 31.2263
400 32.1518
405 33.222
410 34.6668
415 33.9126
420 33.967
425 32.7474
430 31.4058
435 29.6122
440 29.2233
445 28.2985
450 27.477
455 25.5827
460 23.8341
465 22.7646
470 20.1154
475 18.4062
480 17.0459
485 15.3604
490 13.4456
495 12.359
500 10.6397
505 9.41231
510 8.44184
515 7.44702
520 5.86094
525 5.10778
530 4.73158
535 3.97625
540 3.59277
545 2.88518
550 2.88188
555 2.53497
560 1.95714
565 1.64508
570 1.4815
575 1.11615
580 0.908439
585 0.68859
590 0.591596
595 0.663277
600 0.169211
Ex : 328
200 0.242456
205 0.388616
210 0.29967
215 0.269462
220 0.345129
225 0.275311
230 0.273038
235 0.231229
240 0.325666
245 0.279494
250 0.462752
255 0.213922
260 0.332556
265 0.388071
270 0.48541
275 0.375523
280 0.349404
285 0.409779
290 0.293576
295 0.375481
300 0.361407
305 0.382771
310 0.557305
315 1.47578
320 38.5523
325 85.5026
330 28.8098
335 6.65687
340 5.8047
345 7.00829
350 9.15344
355 12.9612
360 18.042
365 20.1267
370 22.0411
375 25.4432
380 28.0628
385 32.1199
390 34.6133
395 37.1258
400 38.0805
405 39.0493
410 38.9254
415 39.0706
420 39.2131
425 37.2986
430 37.2306
435 36.1785
440 34.0157
445 32.8865
450 31.5736
455 28.7202
460 27.2468
465 25.3564
470 22.4519
475 21.8425
480 20.3056
485 17.9014
490 16.5106
495 14.9765
500 13.7103
505 12.0704
510 11.2333
515 9.15569
520 8.17048
525 7.07949
530 6.14937
535 5.20094
540 4.53439
545 3.93585
550 3.29621
555 2.84045
560 2.5249
565 2.29602
570 1.89186
575 1.54063
580 1.39373
585 1.10433
590 0.926886
595 0.726376
600 1.12571
Ex : 333
200 0.568058
205 0.353128
210 0.353775
215 0.315835
220 0.332581
225 0.200828
230 0.331644
235 0.256979
240 0.222695
245 0.28698
250 0.227165
255 0.345363
260 0.346556
265 0.304842
270 0.408368
275 0.362505
280 0.304599
285 0.308895
290 0.354749
295 0.286151
300 0.307207
305 0.263127
310 0.287656
315 0.386057
320 6.19663
325 108.731
330 186.461
335 51.5069
340 9.52313
345 5.92837
350 6.49401
355 7.19716
360 10.9117
365 15.0592
370 15.9419
375 15.9733
380 17.4276
385 18.3893
390 19.4414
395 21.5433
400 21.9934
405 22.2182
410 22.3128
415 22.7331
420 22.9308
425 21.9947
430 20.7679
435 20.4015
440 20.0076
445 18.2923
450 18.3256
455 17.5412
460 16.0521
465 15.3183
470 14.3766
475 13.9637
480 13.103
485 12.0363
490 11.5195
495 10.0063
500 9.6228
505 8.41375
510 7.63311
515 7.053
520 6.04082
525 5.53476
530 5.13023
535 4.58964
540 4.07233
545 3.36172
550 3.03198
555 2.72445
560 2.31223
565 2.22058
570 1.69056
575 1.53139
580 1.31599
585 1.11562
590 0.903374
595 0.610798
600 0.475238
Ex : 338
200 0.190909
205 0.349168
210 0.252041
215 0.199619
220 0.207098
225 0.265775
230 0.324717
235 0.263648
240 0.354637
245 0.241459
250 0.275388
255 0.23346
260 0.230719
265 0.239597
270 0.218543
275 0.235299
280 0.264317
285 0.348859
290 0.338414
295 0.413071
300 0.287154
305 0.287268
310 0.31465
315 0.326789
320 0.55971
325 11.8018
330 166.251
335 245.48
340 62.2802
345 10.1182
350 5.04676
355 4.65788
360 4.48458
365 6.44022
370 10.6289
375 11.4562
380 9.64127
385 9.20023
390 9.85508
395 10.3129
400 10.8491
405 11.3141
410 10.7088
415 11.4104
420 11.2809
425 11.1929
430 10.9372
435 10.6408
440 10.5157
445 10.5665
450 10.231
455 10.6
460 10.211
465 10.2127
470 9.64544
475 9.92037
480 9.19938
485 9.12657
490 8.66891
495 8.18461
500 7.92984
505 7.02347
510 6.4246
515 5.97248
520 5.58484
525 4.83334
530 4.48446
535 4.06311
540 4.04251
545 3.52733
550 2.76349
555 2.63755
560 2.52236
565 1.79047
570 1.59736
575 1.51039
580 1.35435
585 1.19281
590 0.95653
595 0.839404
600 0.095521
Ex : 343
200 0.248822
205 0.237345
210 0.208816
215 0.250854
220 0.252748
225 0.263357
230 0.260796
235 0.250307
240 0.358058
245 0.269293
250 0.232497
255 0.253739
260 0.243347
265 0.27958
270 0.26234
275 0.242434
280 0.320109
285 0.274341
290 0.322483
295 0.166793
300 0.256704
305 0.34677
310 0.279182
315 0.271624
320 0.300337
325 0.452235
330 14.1067
335 190.566
340 271.879
345 67.1741
350 9.97048
355 3.82981
360 3.12119
365 2.59758
370 3.9148
375 8.32763
380 9.52857
385 7.3687
390 6.62727
395 6.43943
400 6.70512
405 7.03493
410 7.07823
415 7.28306
420 7.41535
425 7.84405
430 7.87553
435 8.08751
440 7.91332
445 8.24722
450 8.30827
455 8.52213
460 8.85129
465 9.12271
470 9.11417
475 9.10073
480 8.89566
485 8.89425
490 8.61303
495 8.32801
500 7.99843
505 7.5308
510 7.09753
515 6.43169
520 6.34768
525 5.24936
530 4.98618
535 4.51234
540 4.17647
545 3.60937
550 3.29072
555 2.80991
560 2.78136
565 2.25284
570 1.93143
575 1.59212
580 1.34939
585 1.06012
590 0.837029
595 0.815583
600 0.885729
Ex : 348
200 0.197448
205 0.220717
210 0.241292
215 0.252001
220 0.25431
225 0.22385
230 0.237329
235 0.198817
240 0.247651
245 0.387918
250 0.272631
255 0.233868
260 0.230702
265 0.288401
270 0.256807
275 0.196171
280 0.14969
285 0.254433
290 0.178587
295 0.263477
300 0.307867
305 0.27066
310 0.304444
315 0.254121
320 0.323534
325 0.394624
330 0.49422
335 13.8856
340 193.428
345 284.55
350 74.4523
355 10.5722
360 3.43502
365 2.74869
370 2.33934
375 3.12684
380 6.34703
385 8.70237
390 6.86384
395 5.87284
400 5.91187
405 5.78364
410 6.12145
415 6.0102
420 6.53794
425 6.60654
430 6.76823
435 6.91592
440 7.2893
445 7.53958
450 7.85386
455 8.59932
460 9.12282
465 9.03041
470 9.778
475 10.025
480 10.1788
485 10.1182
490 9.67453
495 9.4378
500 9.11072
505 8.78147
510 8.5754
515 7.5204
520 7.07761
525 6.25797
530 5.80771
535 5.18327
540 4.83548
545 4.21759
550 4.07668
555 3.62253
560 3.17595
565 2.95967
570 2.1719
575 1.99463
580 1.48357
585 1.22267
590 1.05521
595 0.809624
600 0.540573
Ex : 353
200 0.239946
205 0.285243
210 0.225396
215 0.212828
220 0.231229
225 0.286564
230 0.248452
235 0.169059
240 0.16907
245 0.198258
250 0.223676
255 0.238888
260 0.218135
265 0.185388
270 0.183096
275 0.272021
280 0.227433
285 0.199774
290 0.191357
295 0.225989
300 0.201388
305 0.280206
310 0.178731
315 0.173029
320 0.221215
325 0.385835
330 0.410779
335 0.547935
340 14.21
345 199.301
350 282.46
355 70.2793
360 9.8284
365 3.2805
370 2.71395
375 2.61555
380 2.66711
385 5.41776
390 8.34748
395 7.38855
400 6.15668
405 5.79813
410 5.70241
415 5.97689
420 6.0092
425 6.07971
430 6.3018
435 6.60685
440 7.04656
445 7.50678
450 8.21134
455 8.85363
460 9.4237
465 10.5098
470 10.505
475 11.1877
480 11.1023
485 11.5418
490 11.3788
495 10.7993
500 10.9287
505 10.3055
510 9.70978
515 8.89657
520 8.49199
525 7.81936
530 6.98076
535 6.16485
540 5.93846
545 5.17179
550 4.45895
555 4.28131
560 3.74259
565 3.18577
570 2.75809
575 2.14977
580 1.81545
585 1.36346
590 1.09025
595 0.870089
600 1.13714
Ex : 358
200 0.222306
205 0.217526
210 0.23544
215 0.175165
220 0.134071
225 0.213205
230 0.180664
235 0.212089
240 0.229967
245 0.266028
250 0.17342
255 0.205555
260 0.24035
265 0.187361
270 0.177796
275 0.188418
280 0.182692
285 0.283269
290 0.182036
295 0.145257
300 0.146821
305 0.255159
310 0.239774
315 0.18273
320 0.190319
325 0.238477
330 0.372434
335 0.475799
340 0.542192
345 13.4895
350 188.58
355 282.424
360 71.827
365 9.98124
370 3.3268
375 2.91682
380 2.58173
385 2.65082
390 4.04235
395 8.32553
400 8.20783
405 6.56248
410 5.63467
415 5.77584
420 5.68217
425 5.82256
430 6.21198
435 6.68668
440 7.14433
445 7.38804
450 8.52686
455 9.23816
460 10.3808
465 11.0944
470 11.2874
475 12.2712
480 12.2715
485 12.1059
490 12.3366
495 12.5871
500 11.9973
505 11.0678
510 10.7103
515 10.0811
520 9.20295
525 8.60456
530 7.65539
535 7.11425
540 6.35353
545 5.79287
550 5.07043
555 4.42473
560 4.05069
565 3.43794
570 2.87598
575 2.26949
580 1.96538
585 1.59962
590 1.11406
595 0.980724
600 0.389991
Ex : 363
200 0.12787
205 0.18059
210 0.162993
215 0.25942
220 0.137035
225 0.170517
230 0.118434
235 0.166401
240 0.141684
245 0.227244
250 0.248932
255 0.199534
260 0.241297
265 0.225585
270 0.261573
275 0.246145
280 0.245025
285 0.167215
290 0.249402
295 0.248674
300 0.162035
305 0.161227
310 0.168736
315 0.157506
320 0.193108
325 0.208236
330 0.266879
335 0.357148
340 0.368166
345 0.542621
350 11.6374
355 183.327
360 280.299
365 73.5696
370 10.1644
375 3.45178
380 3.00373
385 2.67102
390 2.77287
395 3.63805
400 7.29149
405 8.41099
410 7.0436
415 6.2262
420 5.33483
425 5.65954
430 6.03121
435 6.29578
440 7.00297
445 8.02171
450 8.81475
455 9.75223
460 11.6702
465 11.9067
470 12.8387
475 13.5244
480 13.794
485 13.7295
490 14.0432
495 14.1149
500 14.0353
505 12.4908
510 11.7699
515 11.1511
520 10.5108
525 9.30147
530 8.37443
535 7.43303
540 7.29437
545 6.23888
550 5.90207
555 5.15636
560 4.45716
565 3.76895
570 3.16875
575 2.53083
580 1.89731
585 1.61675
590 1.32269
595 1.03871
600 1.654
Ex : 368
200 0.191242
205 0.136719
210 0.149573
215 0.189286
220 0.188823
225 0.142795
230 0.214171
235 0.186027
240 0.189181
245 0.232191
250 0.136373
255 0.130371
260 0.195246
265 0.222107
270 0.250759
275 0.173402
280 0.150112
285 0.163771
290 0.16471
295 0.127222
300 0.149604
305 0.189691
310 0.228702
315 0.208047
320 0.222035
325 0.220349
330 0.230416
335 0.279899
340 0.275699
345 0.364768
350 0.548234
355 9.97693
360 175.329
365 282.715
370 78.1235
375 10.8043
380 3.27789
385 2.66509
390 2.85697
395 2.30975
400 3.19619
405 6.0137
410 8.0315
415 6.76527
420 5.98611
425 5.58099
430 5.44896
435 6.22764
440 6.81815
445 7.47343
450 9.20455
455 10.5842
460 11.8343
465 13.1488
470 14.2971
475 15.5166
480 15.7173
485 15.899
490 16.5083
495 15.9937
500 15.3238
505 14.7832
510 14.4119
515 13.1411
520 12.6071
525 11.2931
530 10.1363
535 9.46161
540 8.70795
545 7.53456
550 6.93544
555 5.97106
560 5.32258
565 4.63526
570 3.98249
575 3.15731
580 2.44829
585 2.05043
590 1.60234
595 1.17909
600 0.869969
Ex : 373
200 0.209718
205 0.158658
210 0.239559
215 0.173642
220 0.125469
225 0.185659
230 0.19779
235 0.148088
240 0.190963
245 0.171125
250 0.179797
255 0.172545
260 0.202086
265 0.202581
270 0.196338
275 0.150628
280 0.171663
285 0.164696
290 0.147429
295 0.173303
300 0.192421
305 0.203319
310 0.218347
315 0.166776
320 0.164742
325 0.213995
330 0.227477
335 0.258227
340 0.219596
345 0.302356
350 0.270321
355 0.489499
360 11.3887
365 176.817
370 281.474
375 78.9208
380 11.0155
385 3.23701
390 2.89599
395 3.01752
400 2.81757
405 3.11624
410 5.66206
415 7.99947
420 6.88247
425 6.00544
430 5.5913
435 5.28067
440 5.97255
445 7.65529
450 8.76347
455 10.8669
460 12.0526
465 13.7364
470 14.8829
475 16.141
480 17.2231
485 17.0989
490 17.5521
495 17.6522
500 17.0346
505 16.6167
510 15.4107
515 14.6789
520 12.9949
525 12.374
530 11.3741
535 10.1395
540 9.24408
545 8.57722
550 7.7688
555 6.51251
560 5.96369
565 4.9586
570 4.38752
575 3.2387
580 2.46618
585 2.06879
590 1.68333
595 1.28133
600 0.796978
Ex : 378
200 0.13347
205 0.198016
210 0.163148
215 0.11223
220 0.134693
225 0.167421
230 0.161195
235 0.162632
240 0.18158
245 0.159954
250 0.122756
255 0.206447
260 0.200016
265 0.17391
270 0.152174
275 0.131376
280 0.163001
285 0.187663
290 0.176691
295 0.121588
300 0.209333
305 0.226234
310 0.198224
315 0.139818
320 0.148964
325 0.157022
330 0.162191
335 0.188107
340 0.208877
345 0.212016
350 0.228777
355 0.296421
360 0.529038
365 10.9496
370 183.397
375 296.377
380 82.0431
385 11.5476
390 3.47347
395 3.53531
400 3.46689
405 3.42877
410 3.37861
415 4.8758
420 7.81432
425 7.48079
430 6.16587
435 6.21475
440 6.21078
445 7.32679
450 8.71459
455 10.4535
460 11.8788
465 12.8127
470 14.5001
475 15.6503
480 16.1785
485 16.8309
490 16.5576
495 16.9465
500 16.4092
505 15.4092
510 14.9473
515 13.8333
520 12.7343
525 11.5926
530 10.6343
535 9.77423
540 8.9557
545 8.08527
550 7.42977
555 6.50392
560 5.4789
565 4.94981
570 4.04006
575 3.23105
580 2.51938
585 2.02802
590 1.5655
595 1.34626
600 1.64128
Ex : 383
200 0.125361
205 0.200857
210 0.136755
215 0.143861
220 0.157407
225 0.161043
230 0.149045
235 0.150934
240 0.230344
245 0.151652
250 0.192985
255 0.14415
260 0.169418
265 0.166265
270 0.164915
275 0.154249
280 0.143026
285 0.134873
290 0.11499
295 0.13832
300 0.143563
305 0.142543
310 0.177516
315 0.147424
320 0.186376
325 0.225005
330 0.199604
335 0.1973
340 0.16275
345 0.21499
350 0.254754
355 0.360478
360 0.373421
365 0.484043
370 10.4314
375 184.529
380 309.249
385 86.0678
390 12.0427
395 3.43825
400 3.16719
405 3.4289
410 3.1776
415 3.20543
420 4.22456
425 6.90714
430 7.92871
435 6.74985
440 6.79548
445 7.14681
450 8.56243
455 10.3558
460 11.7936
465 13.115
470 14.4111
475 15.5648
480 15.8954
485 16.5758
490 17.1109
495 17.1023
500 17.0444
505 16.1471
510 14.8791
515 13.9165
520 13.2887
525 11.6314
530 10.9223
535 9.69305
540 8.67252
545 8.14598
550 7.40037
555 6.3941
560 5.62257
565 4.92936
570 4.01954
575 3.13245
580 2.56158
585 2.03034
590 1.55035
595 1.22564
600 0.916205
Ex : 388
200 0.106974
205 0.141374
210 0.138516
215 0.193166
220 0.168538
225 0.155375
230 0.100588
235 0.13017
240 0.195896
245 0.130059
250 0.136533
255 0.208204
260 0.126847
265 0.140282
270 0.0953056
275 0.100767
280 0.2046
285 0.186182
290 0.169443
295 0.12336
300 0.123934
305 0.150343
310 0.168803
315 0.179204
320 0.18144
325 0.284976
330 0.220266
335 0.174917
340 0.165072
345 0.239665
350 0.201208
355 0.235015
360 0.237876
365 0.364512
370 0.501599
375 11.0413
380 190.274
385 307.302
390 85.3028
395 11.7453
400 3.20136
405 2.89578
410 3.21506
415 3.17287
420 3.02309
425 3.70588
430 5.97232
435 7.85194
440 7.31283
445 7.75813
450 8.57955
455 10.0597
460 11.6845
465 13.5937
470 14.3235
475 15.7269
480 16.2525
485 17.2653
490 17.5664
495 17.343
500 17.1977
505 16.5351
510 15.8644
515 14.6265
520 13.1054
525 12.5197
530 11.4029
535 10.1309
540 9.26971
545 8.66558
550 7.78404
555 6.68059
560 5.9131
565 4.95626
570 4.41035
575 3.367
580 2.56834
585 2.10783
590 1.6163
595 1.21104
600 0.739889
Ex : 393
200 0.11836
205 0.173511
210 0.200161
215 0.159229
220 0.174549
225 0.149899
230 0.222678
235 0.186154
240 0.171611
245 0.140802
250 0.130193
255 0.140812
260 0.199188
265 0.167845
270 0.135207
275 0.142184
280 0.12594
285 0.162263
290 0.132774
295 0.1476
300 0.123533
305 0.179995
310 0.134367
315 0.148524
320 0.130624
325 0.224566
330 0.164642
335 0.225611
340 0.151902
345 0.131245
350 0.209002
355 0.300833
360 0.202672
365 0.238909
370 0.36266
375 0.49866
380 9.74954
385 188.569
390 315.456
395 87.1958
400 11.7908
405 2.96979
410 2.76103
415 2.96078
420 2.66395
425 2.55954
430 3.26873
435 5.28995
440 8.52527
445 8.36756
450 9.01144
455 10.4737
460 11.8018
465 13.6483
470 14.9762
475 16.3937
480 16.9613
485 17.7792
490 18.2719
495 18.0563
500 18.065
505 17.2692
510 16.2209
515 15.2313
520 14.2815
525 13.0505
530 11.8274
535 10.469
540 9.9266
545 8.77715
550 7.99696
555 6.96445
560 6.35522
565 5.00643
570 4.53368
575 3.61024
580 2.76313
585 2.11779
590 1.75958
595 1.52992
600 2.68234
Ex : 398
200 0.120149
205 0.131174
210 0.109898
215 0.110586
220 0.127648
225 0.108369
230 0.111086
235 0.0875676
240 0.154971
245 0.139461
250 0.120412
255 0.128751
260 0.0907141
265 0.117578
270 0.0846277
275 0.161659
280 0.149707
285 0.167915
290 0.167185
295 0.138765
300 0.194535
305 0.146123
310 0.191734
315 0.155339
320 0.169372
325 0.125372
330 0.162421
335 0.163787
340 0.155336
345 0.176117
350 0.152367
355 0.186542
360 0.178671
365 0.261732
370 0.259546
375 0.282236
380 0.593023
385 10.3474
390 194.342
395 325.945
400 88.9236
405 11.8587
410 3.1575
415 2.61823
420 2.67218
425 2.60163
430 2.7356
435 3.59977
440 5.34168
445 8.94747
450 10.4187
455 11.0274
460 12.3834
465 13.6307
470 15.013
475 16.6143
480 17.1478
485 17.9387
490 19.0126
495 18.7235
500 18.9831
505 17.7057
510 17.1551
515 15.9875
520 14.6512
525 13.5958
530 12.6194
535 11.1178
540 10.0953
545 9.03973
550 8.3749
555 7.45509
560 6.46273
565 5.63572
570 4.59004
575 3.6156
580 2.85792
585 2.14886
590 1.51635
595 1.29355
600 1.34099
Ex : 403
200 0.114656
205 0.121556
210 0.206215
215 0.180729
220 0.115451
225 0.108348
230 0.127501
235 0.137112
240 0.0881956
245 0.147928
250 0.126666
255 0.115506
260 0.167387
265 0.173566
270 0.135679
275 0.151316
280 0.119603
285 0.228971
290 0.159305
295 0.125369
300 0.169896
305 0.184725
310 0.13312
315 0.123363
320 0.149218
325 0.130615
330 0.189796
335 0.177099
340 0.156273
345 0.183598
350 0.180184
355 0.133851
360 0.226345
365 0.204413
370 0.248023
375 0.22582
380 0.346339
385 0.536939
390 12.0759
395 198.906
400 322.949
405 88.8539
410 12.219
415 3.15456
420 2.5159
425 2.93675
430 2.90498
435 3.28115
440 4.0174
445 6.12035
450 9.85026
455 12.3804
460 13.1505
465 14.4396
470 15.8386
475 16.7681
480 18.3287
485 18.6742
490 19.0486
495 19.1889
500 18.7481
505 17.6584
510 17.1122
515 16.1494
520 15.0124
525 13.6796
530 12.6522
535 11.5446
540 10.5115
545 9.38952
550 8.54941
555 7.36294
560 6.54773
565 5.59685
570 4.81369
575 3.79736
580 3.0298
585 2.18434
590 1.91102
595 1.38548
600 1.09564
Ex : 408
200 0.124177
205 0.124495
210 0.103399
215 0.0934505
220 0.15254
225 0.112704
230 0.168743
235 0.164875
240 0.148312
245 0.142557
250 0.226381
255 0.100573
260 0.113327
265 0.105113
270 0.122937
275 0.114411
280 0.147538
285 0.148956
290 0.0930663
295 0.126558
300 0.116433
305 0.172428
310 0.16082
315 0.16518
320 0.142699
325 0.139158
330 0.0989721
335 0.155614
340 0.138057
345 0.182534
350 0.196221
355 0.206946
360 0.164052
365 0.186024
370 0.201956
375 0.239255
380 0.28761
385 0.355296
390 0.546103
395 11.0834
400 203.683
405 331.032
410 88.6389
415 12.0828
420 3.08656
425 2.39068
430 2.85615
435 3.24395
440 3.74876
445 4.98226
450 7.49071
455 11.2257
460 14.2152
465 15.2291
470 16.2827
475 16.8212
480 18.1997
485 18.7529
490 19.564
495 19.2147
500 18.6938
505 17.8919
510 16.8858
515 16.1518
520 15.0335
525 13.6237
530 12.7597
535 11.7265
540 10.5503
545 9.39668
550 8.3471
555 7.45994
560 6.4559
565 5.69667
570 4.68507
575 3.75442
580 3.07056
585 2.38253
590 1.77854
595 1.37252
600 1.22928
Ex : 413
200 0.174572
205 0.114734
210 0.16461
215 0.127138
220 0.117482
225 0.173095
230 0.178537
235 0.167128
240 0.160882
245 0.112847
250 0.135702
255 0.147295
260 0.160033
265 0.141497
270 0.179528
275 0.116575
280 0.110949
285 0.14512
290 0.133508
295 0.101207
300 0.157004
305 0.157268
310 0.130998
315 0.161859
320 0.164848
325 0.139489
330 0.140785
335 0.114122
340 0.186224
345 0.129265
350 0.144837
355 0.166262
360 0.175456
365 0.136072
370 0.200334
375 0.176929
380 0.215835
385 0.221203
390 0.333578
395 0.456699
400 12.4997
405 209.576
410 335.131
415 87.2146
420 11.7431
425 3.03001
430 2.31247
435 3.0451
440 3.61955
445 4.59493
450 6.18382
455 8.60884
460 11.7281
465 16.1618
470 16.6881
475 17.0848
480 17.9008
485 18.1995
490 18.9624
495 18.5665
500 18.2666
505 17.5833
510 17.1449
515 15.7934
520 14.9471
525 13.5294
530 12.2257
535 11.611
540 10.6903
545 9.22808
550 8.34749
555 7.59591
560 6.43954
565 5.71464
570 4.71123
575 3.73505
580 2.87582
585 2.47469
590 1.78227
595 1.31321
600 1.49515
Ex : 418
200 0.156307
205 0.12249
210 0.138228
215 0.113773
220 0.11081
225 0.115233
230 0.135826
235 0.111454
240 0.161323
245 0.167748
250 0.158289
255 0.176453
260 0.11759
265 0.127674
270 0.172226
275 0.154269
280 0.0981
285 0.131144
290 0.222805
295 0.157117
300 0.135388
305 0.120152
310 0.173199
315 0.14504
320 0.180965
325 0.182215
330 0.134419
335 0.130551
340 0.160769
345 0.218731
350 0.16787
355 0.186063
360 0.193569
365 0.204708
370 0.190568
375 0.214775
380 0.207681
385 0.272329
390 0.279416
395 0.392727
400 0.605604
405 11.7964
410 212.768
415 345.971
420 92.7188
425 12.2283
430 3.04294
435 2.39972
440 3.47002
445 4.6194
450 6.01917
455 8.02612
460 9.81382
465 12.4578
470 16.2221
475 17.7484
480 17.2742
485 17.5526
490 18.4983
495 18.0173
500 17.4521
505 16.7626
510 15.9734
515 15.1191
520 13.9745
525 13.0067
530 11.7352
535 11.1543
540 9.90569
545 8.90497
550 7.92428
555 7.02873
560 6.22963
565 5.34949
570 4.46214
575 3.5263
580 2.96678
585 2.26044
590 1.74278
595 1.37384
600 0.858281
Ex : 423
200 0.186057
205 0.102111
210 0.170353
215 0.109773
220 0.148341
225 0.160648
230 0.118475
235 0.193613
240 0.164605
245 0.165734
250 0.150124
255 0.18953
260 0.126917
265 0.126215
270 0.154915
275 0.153594
280 0.132027
285 0.130413
290 0.127138
295 0.143761
300 0.112075
305 0.106839
310 0.128062
315 0.161077
320 0.157175
325 0.196031
330 0.127402
335 0.189148
340 0.191924
345 0.139017
350 0.187971
355 0.162638
360 0.175263
365 0.185112
370 0.163121
375 0.218718
380 0.226069
385 0.22911
390 0.270513
395 0.269232
400 0.356939
405 0.559608
410 12.171
415 227.524
420 348.546
425 90.3151
430 12.0098
435 3.13582
440 2.88775
445 4.02137
450 5.62095
455 7.41785
460 8.76211
465 10.9107
470 12.5527
475 15.965
480 17.9073
485 16.9587
490 17.0209
495 16.5982
500 16.2964
505 15.8902
510 14.8056
515 13.9849
520 13.0794
525 11.6776
530 10.9213
535 10.062
540 9.05827
545 7.89053
550 7.30042
555 6.39965
560 5.98147
565 5.13068
570 4.15171
575 3.23236
580 2.47276
585 2.04635
590 1.57786
595 1.24244
600 1.36799
Ex : 428
200 0.122832
205 0.127878
210 0.14821
215 0.14438
220 0.151968
225 0.112999
230 0.133518
235 0.130063
240 0.111935
245 0.107696
250 0.118282
255 0.140851
260 0.164957
265 0.169392
270 0.181715
275 0.105807
280 0.116183
285 0.131615
290 0.1486
295 0.147305
300 0.160566
305 0.201747
310 0.139126
315 0.114236
320 0.191064
325 0.167485
330 0.16232
335 0.125402
340 0.153559
345 0.141977
350 0.219434
355 0.245471
360 0.192269
365 0.180749
370 0.243561
375 0.13927
380 0.220083
385 0.242084
390 0.246672
395 0.339719
400 0.330576
405 0.370709
410 0.536166
415 14.4473
420 229.112
425 360.848
430 96.5603
435 12.9353
440 3.76704
445 3.59382
450 5.14175
455 7.00832
460 7.97783
465 9.62155
470 10.6642
475 12.3147
480 14.1462
485 16.4177
490 16.2065
495 15.4566
500 15.056
505 14.2479
510 13.4508
515 12.6815
520 11.55
525 11.0124
530 9.97822
535 9.15102
540 8.18061
545 7.41266
550 6.75483
555 5.87588
560 5.08834
565 4.45119
570 3.5832
575 2.97868
580 2.43427
585 1.87978
590 1.51643
595 1.20932
600 0.69075
Ex : 433
200 0.15868
205 0.130842
210 0.122068
215 0.132343
220 0.158705
225 0.123151
230 0.112922
235 0.146786
240 0.216328
245 0.155563
250 0.138308
255 0.126757
260 0.167497
265 0.113257
270 0.192263
275 0.159811
280 0.200021
285 0.168048
290 0.133285
295 0.0774567
300 0.151195
305 0.151854
310 0.188419
315 0.111636
320 0.161348
325 0.183721
330 0.13407
335 0.148022
340 0.168884
345 0.152249
350 0.151623
355 0.160627
360 0.162108
365 0.142435
370 0.186203
375 0.160203
380 0.199852
385 0.183766
390 0.213337
395 0.241207
400 0.214935
405 0.284653
410 0.369154
415 0.591341
420 15.8773
425 251.838
430 378.642
435 95.7681
440 13.0642
445 4.26502
450 4.19427
455 5.86585
460 7.50283
465 8.43884
470 9.24449
475 10.388
480 11.4471
485 13.0157
490 15.1955
495 14.5437
500 13.7567
505 12.6934
510 11.8823
515 10.745
520 10.3438
525 9.31122
530 8.77574
535 8.21615
540 7.38821
545 6.41976
550 5.83294
555 5.30109
560 4.74115
565 4.01231
570 3.07751
575 2.56776
580 2.08873
585 1.55727
590 1.44033
595 1.02162
600 1.02649
Ex : 438
200 0.116659
205 0.12961
210 0.17769
215 0.139161
220 0.121504
225 0.133684
230 0.142518
235 0.139328
240 0.119573
245 0.11973
250 0.164417
255 0.113243
260 0.133439
265 0.162127
270 0.199021
275 0.177675
280 0.136537
285 0.135807
290 0.151881
295 0.114491
300 0.125468
305 0.0945449
310 0.125274
315 0.156728
320 0.137167
325 0.169059
330 0.135138
335 0.141817
340 0.0885349
345 0.15611
350 0.155833
355 0.140705
360 0.141179
365 0.181705
370 0.214305
375 0.1676
380 0.164037
385 0.203471
390 0.179343
395 0.160365
400 0.24012
405 0.23544
410 0.316473
415 0.394265
420 0.577686
425 15.4747
430 252.05
435 401.758
440 103.361
445 14.397
450 5.10335
455 4.74433
460 6.13368
465 7.34161
470 8.12357
475 8.53382
480 9.681
485 10.0773
490 10.902
495 12.7969
500 12.9971
505 11.3209
510 10.5067
515 9.6214
520 8.93364
525 8.16172
530 7.64564
535 6.86758
540 6.09887
545 5.75203
550 5.02055
555 4.48304
560 3.8606
565 3.34182
570 2.9622
575 2.26681
580 1.90316
585 1.43143
590 1.03821
595 0.844623
600 0.608868
Ex : 443
200 0.159197
205 0.161017
210 0.132239
215 0.168691
220 0.133457
225 0.143145
230 0.188972
235 0.16672
240 0.168205
245 0.119638
250 0.144435
255 0.168992
260 0.154058
265 0.152012
270 0.114076
275 0.108903
280 0.184433
285 0.147136
290 0.126952
295 0.155106
300 0.118988
305 0.110795
310 0.146536
315 0.101421
320 0.144919
325 0.191282
330 0.0977399
335 0.144299
340 0.182248
345 0.117797
350 0.194207
355 0.16931
360 0.180518
365 0.17573
370 0.192301
375 0.202474
380 0.220302
385 0.227316
390 0.198487
395 0.14241
400 0.181507
405 0.212189
410 0.314623
415 0.35056
420 0.429378
425 0.667254
430 17.8512
435 276.168
440 409.146
445 103.973
450 15.03
455 5.46144
460 5.01265
465 5.79657
470 6.68106
475 7.19507
480 7.49447
485 8.1957
490 8.6227
495 8.56684
500 9.80079
505 10.8707
510 9.18946
515 8.30202
520 7.85293
525 7.07027
530 6.14097
535 5.58289
540 5.23981
545 4.80957
550 4.31171
555 3.81483
560 3.41368
565 2.87025
570 2.46135
575 2.11897
580 1.67553
585 1.16464
590 0.971968
595 0.759751
600 0.346929
Ex : 448
200 0.126989
205 0.155914
210 0.116313
215 0.141851
220 0.141615
225 0.128048
230 0.144087
235 0.159711
240 0.150643
245 0.107579
250 0.119889
255 0.14472
260 0.142154
265 0.132666
270 0.156904
275 0.156414
280 0.0923787
285 0.100473
290 0.142049
295 0.133127
300 0.132217
305 0.114585
310 0.111276
315 0.159053
320 0.146846
325 0.177463
330 0.156545
335 0.180121
340 0.14675
345 0.195689
350 0.172165
355 0.147743
360 0.179287
365 0.181986
370 0.150611
375 0.15383
380 0.171237
385 0.159586
390 0.246455
395 0.171991
400 0.185762
405 0.181767
410 0.232733
415 0.283174
420 0.26347
425 0.466879
430 0.681699
435 18.4313
440 290.358
445 432.759
450 109.512
455 15.8543
460 5.18134
465 4.58666
470 4.96303
475 5.7349
480 5.98444
485 5.90843
490 6.38319
495 6.41008
500 6.81512
505 7.14656
510 8.4281
515 7.5913
520 6.24672
525 5.5977
530 5.09101
535 4.57231
540 4.08302
545 3.68856
550 3.3285
555 2.96437
560 2.69577
565 2.25497
570 1.9282
575 1.56063
580 1.16794
585 1.03341
590 0.830916
595 0.694145
600 1.07034
Ex : 453
200 0.122449
205 0.150689
210 0.0929691
215 0.147454
220 0.121214
225 0.139091
230 0.150541
235 0.151213
240 0.125424
245 0.168665
250 0.121792
255 0.16603
260 0.155967
265 0.120665
270 0.163972
275 0.176237
280 0.131356
285 0.148293
290 0.176951
295 0.157953
300 0.174487
305 0.170789
310 0.181213
315 0.160363
320 0.145745
325 0.206529
330 0.196183
335 0.154732
340 0.168872
345 0.173427
350 0.191584
355 0.165598
360 0.164103
365 0.14736
370 0.146703
375 0.182007
380 0.163779
385 0.17199
390 0.146597
395 0.176703
400 0.166595
405 0.207625
410 0.201165
415 0.184069
420 0.260014
425 0.364162
430 0.4474
435 0.684186
440 19.1351
445 314.415
450 454.545
455 106.886
460 15.2797
465 4.81046
470 3.76293
475 4.28696
480 4.63913
485 4.82249
490 4.6065
495 4.67951
500 4.60598
505 4.61886
510 4.90385
515 6.48008
520 6.01416
525 4.65308
530 4.15748
535 3.82573
540 3.27125
545 2.9018
550 2.58839
555 2.33023
560 2.07029
565 1.69385
570 1.46833
575 1.26747
580 0.984107
585 0.890945
590 0.706365
595 0.592114
600 0.461559
Ex : 458
200 0.138534
205 0.129991
210 0.140701
215 0.179359
220 0.151203
225 0.15327
230 0.173461
235 0.124901
240 0.146926
245 0.162982
250 0.168725
255 0.172907
260 0.14035
265 0.148196
270 0.0900931
275 0.135726
280 0.169114
285 0.263384
290 0.129085
295 0.147352
300 0.140108
305 0.141783
310 0.171512
315 0.146048
320 0.155058
325 0.120661
330 0.134532
335 0.126093
340 0.110288
345 0.192993
350 0.154038
355 0.143318
360 0.160306
365 0.190047
370 0.168874
375 0.146477
380 0.156326
385 0.193758
390 0.131322
395 0.2046
400 0.195762
405 0.200943
410 0.276455
415 0.288352
420 0.178654
425 0.2374
430 0.307191
435 0.494522
440 0.791408
445 20.9116
450 318.165
455 466.759
460 113.914
465 15.5028
470 4.24337
475 3.00367
480 3.21852
485 3.50919
490 3.58184
495 3.26549
500 3.15304
505 3.09179
510 2.97237
515 3.13679
520 4.33244
525 5.15243
530 3.8115
535 2.97461
540 2.85679
545 2.34096
550 2.04997
555 1.72539
560 1.62806
565 1.41619
570 1.2634
575 1.08449
580 0.841642
585 0.600268
590 0.576991
595 0.5411
600 0.848989
Ex : 463
200 0.142815
205 0.157332
210 0.113001
215 0.145239
220 0.123043
225 0.157923
230 0.15626
235 0.144289
240 0.135995
245 0.146884
250 0.137198
255 0.143621
260 0.135917
265 0.175883
270 0.107851
275 0.152898
280 0.164127
285 0.120755
290 0.12643
295 0.112268
300 0.164133
305 0.130478
310 0.129273
315 0.119086
320 0.16075
325 0.159454
330 0.152201
335 0.164335
340 0.147743
345 0.160061
350 0.179889
355 0.17922
360 0.202567
365 0.148468
370 0.175932
375 0.160855
380 0.18684
385 0.162284
390 0.148772
395 0.178503
400 0.152869
405 0.186464
410 0.213316
415 0.199317
420 0.195121
425 0.25226
430 0.241962
435 0.334761
440 0.503504
445 0.79628
450 20.5547
455 324.113
460 485.652
465 117.395
470 15.325
475 3.88818
480 2.36316
485 2.35081
490 2.66482
495 2.64638
500 2.35955
505 2.20368
510 2.22806
515 2.21689
520 2.29612
525 2.96344
530 4.03644
535 3.4055
540 2.4626
545 2.12916
550 1.84391
555 1.67071
560 1.37395
565 1.18777
570 1.05819
575 0.870087
580 0.701163
585 0.58023
590 0.467854
595 0.424574
600 0.172163
Ex : 468
200 0.121453
205 0.151869
210 0.177931
215 0.138459
220 0.157649
225 0.101586
230 0.151072
235 0.138563
240 0.101268
245 0.097157
250 0.136426
255 0.17692
260 0.142784
265 0.144323
270 0.092786
275 0.099391
280 0.1476
285 0.116328
290 0.17884
295 0.176352
300 0.136651
305 0.147405
310 0.122091
315 0.120322
320 0.122306
325 0.125141
330 0.137554
335 0.138076
340 0.131782
345 0.141521
350 0.134339
355 0.15904
360 0.156291
365 0.127356
370 0.123474
375 0.111774
380 0.139922
385 0.132148
390 0.14726
395 0.165577
400 0.153122
405 0.128953
410 0.177172
415 0.169794
420 0.172215
425 0.195843
430 0.215321
435 0.196565
440 0.343357
445 0.474977
450 0.731477
455 21.7227
460 324.231
465 501.14
470 120.796
475 15.4257
480 3.51941
485 1.9515
490 1.93726
495 2.27322
500 2.15239
505 2.02659
510 1.79201
515 1.72174
520 1.79758
525 1.85128
530 2.11526
535 3.3566
540 3.30276
545 2.2785
550 1.85526
555 1.70677
560 1.42526
565 1.146
570 0.901974
575 0.880099
580 0.713547
585 0.527192
590 0.474038
595 0.383419
600 0.279298
Ex : 473
200 0.104154
205 0.126371
210 0.173586
215 0.148293
220 0.119564
225 0.125912
230 0.104299
235 0.158261
240 0.116663
245 0.149028
250 0.10752
255 0.128335
260 0.155398
265 0.145974
270 0.114802
275 0.149035
280 0.14084
285 0.126027
290 0.167688
295 0.140966
300 0.134437
305 0.166826
310 0.140011
315 0.121642
320 0.178696
325 0.134736
330 0.0922357
335 0.157035
340 0.161856
345 0.146846
350 0.148482
355 0.12999
360 0.135965
365 0.12617
370 0.146696
375 0.161774
380 0.166564
385 0.158793
390 0.159815
395 0.125763
400 0.178109
405 0.174782
410 0.185998
415 0.193028
420 0.17823
425 0.179827
430 0.163398
435 0.208251
440 0.28227
445 0.33144
450 0.47129
455 0.816435
460 24.5156
465 355.574
470 486.978
475 112.952
480 14.4386
485 3.23667
490 1.86518
495 1.64775
500 1.89847
505 1.87283
510 1.69183
515 1.50012
520 1.55284
525 1.52478
530 1.58482
535 1.79451
540 2.70728
545 3.1505
550 2.28953
555 1.65169
560 1.45035
565 1.4207
570 1.05079
575 0.830585
580 0.738276
585 0.53834
590 0.423697
595 0.429465
600 0.216323
Ex : 478
200 0.158516
205 0.183772
210 0.168814
215 0.113574
220 0.141731
225 0.169591
230 0.13319
235 0.140037
240 0.112053
245 0.178025
250 0.220678
255 0.128409
260 0.119512
265 0.197584
270 0.155806
275 0.178762
280 0.209573
285 0.181465
290 0.133907
295 0.204723
300 0.19377
305 0.14932
310 0.181473
315 0.141877
320 0.158345
325 0.158841
330 0.168619
335 0.139482
340 0.165078
345 0.159117
350 0.184497
355 0.156929
360 0.14575
365 0.151035
370 0.174385
375 0.170768
380 0.201674
385 0.141999
390 0.195345
395 0.258168
400 0.206875
405 0.178718
410 0.215532
415 0.238277
420 0.195026
425 0.208185
430 0.262129
435 0.230833
440 0.256387
445 0.332638
450 0.447278
455 0.657387
460 0.876354
465 26.7401
470 354.349
475 479.942
480 116.561
485 14.8216
490 3.19251
495 1.56344
500 1.39724
505 1.54963
510 1.78455
515 1.71912
520 1.41443
525 1.42961
530 1.36528
535 1.33684
540 1.53614
545 2.06484
550 2.84265
555 2.33346
560 1.49963
565 1.29567
570 1.08842
575 0.85165
580 0.679114
585 0.497391
590 0.407555
595 0.430862
600 0.616705
Ex : 483
200 0.173692
205 0.225833
210 0.139187
215 0.138954
220 0.146011
225 0.160754
230 0.135475
235 0.11833
240 0.142441
245 0.178734
250 0.163157
255 0.13089
260 0.210633
265 0.126553
270 0.146596
275 0.163749
280 0.14872
285 0.174605
290 0.148307
295 0.137478
300 0.188847
305 0.184754
310 0.19408
315 0.142434
320 0.140247
325 0.24005
330 0.182542
335 0.160676
340 0.153784
345 0.178906
350 0.151892
355 0.146111
360 0.19081
365 0.128676
370 0.1843
375 0.132149
380 0.20703
385 0.190708
390 0.0986756
395 0.139591
400 0.173346
405 0.208428
410 0.347363
415 0.170659
420 0.177777
425 0.239364
430 0.236898
435 0.266715
440 0.203156
445 0.232693
450 0.349061
455 0.405703
460 0.546323
465 0.886756
470 20.9483
475 344.283
480 512.063
485 122.751
490 15.478
495 2.97419
500 1.50593
505 1.28853
510 1.45084
515 1.68787
520 1.61482
525 1.40815
530 1.37737
535 1.40299
540 1.17793
545 1.33925
550 1.62352
555 2.39694
560 2.61847
565 1.59177
570 1.07658
575 0.904534
580 0.705154
585 0.583236
590 0.442979
595 0.413555
600 0.262371
Ex : 488
200 0.148508
205 0.148091
210 0.148175
215 0.194432
220 0.15191
225 0.152927
230 0.143135
235 0.140936
240 0.180678
245 0.213572
250 0.181858
255 0.168711
260 0.11993
265 0.168095
270 0.188302
275 0.209413
280 0.175282
285 0.103689
290 0.190277
295 0.17339
300 0.261258
305 0.171092
310 0.167061
315 0.11949
320 0.14074
325 0.140501
330 0.225053
335 0.130684
340 0.194139
345 0.174411
350 0.148477
355 0.147994
360 0.137657
365 0.205896
370 0.195301
375 0.200207
380 0.171632
385 0.134283
390 0.196931
395 0.165197
400 0.14906
405 0.23334
410 0.154958
415 0.198468
420 0.172754
425 0.253942
430 0.227031
435 0.202682
440 0.295565
445 0.285906
450 0.312167
455 0.417177
460 0.375316
465 0.610576
470 0.797393
475 24.1582
480 365.992
485 496.983
490 116.572
495 14.5026
500 2.78648
505 1.41129
510 1.21311
515 1.52633
520 1.51611
525 1.56339
530 1.50974
535 1.3908
540 1.19121
545 1.3539
550 1.28193
555 1.27113
560 1.94093
565 2.36097
570 1.57104
575 1.01389
580 0.831214
585 0.617983
590 0.607402
595 0.41005
600 0.730989
Ex : 493
200 0.198091
205 0.194189
210 0.262751
215 0.211366
220 0.155291
225 0.170337
230 0.2027
235 0.187049
240 0.175341
245 0.157566
250 0.191477
255 0.144704
260 0.116827
265 0.151617
270 0.158825
275 0.166653
280 0.163113
285 0.182689
290 0.158539
295 0.221963
300 0.218479
305 0.132981
310 0.217796
315 0.192511
320 0.150606
325 0.15783
330 0.210819
335 0.175378
340 0.204326
345 0.20387
350 0.157749
355 0.252003
360 0.202477
365 0.192989
370 0.166767
375 0.166448
380 0.242522
385 0.223275
390 0.134297
395 0.184964
400 0.194625
405 0.164776
410 0.216363
415 0.162323
420 0.228635
425 0.269645
430 0.22252
435 0.255878
440 0.240014
445 0.254854
450 0.25853
455 0.276772
460 0.341561
465 0.457792
470 0.48641
475 0.803356
480 22.0136
485 352.461
490 513.146
495 118.591
500 14.787
505 2.72345
510 1.43206
515 1.1461
520 1.33096
525 1.47491
530 1.58564
535 1.50123
540 1.29934
545 1.30136
550 1.19327
555 1.15318
560 1.10459
565 1.32504
570 1.88445
575 1.59804
580 0.864413
585 0.674977
590 0.664244
595 0.449086
600 0.492508
Ex : 498
200 0.182487
205 0.202133
210 0.175387
215 0.220571
220 0.124291
225 0.136792
230 0.209485
235 0.171569
240 0.248372
245 0.183847
250 0.223569
255 0.13185
260 0.176566
265 0.157051
270 0.163962
275 0.202128
280 0.176448
285 0.228524
290 0.264194
295 0.189027
300 0.234819
305 0.17081
310 0.190793
315 0.162619
320 0.217711
325 0.167399
330 0.197546
335 0.225043
340 0.230428
345 0.185543
350 0.127757
355 0.219109
360 0.126795
365 0.204067
370 0.166916
375 0.212355
380 0.175231
385 0.152678
390 0.29669
395 0.263241
400 0.211386
405 0.219277
410 0.226632
415 0.254276
420 0.209324
425 0.207528
430 0.199978
435 0.234997
440 0.257832
445 0.217638
450 0.217837
455 0.252724
460 0.323141
465 0.409981
470 0.389417
475 0.509479
480 0.857201
485 25.6616
490 366.694
495 491.325
500 112.838
505 14.072
510 2.79449
515 1.33843
520 1.32908
525 1.34936
530 1.52572
535 1.69944
540 1.44527
545 1.29645
550 1.18217
555 1.11967
560 1.09273
565 0.920309
570 0.988784
575 1.41495
580 1.4606
585 0.938225
590 0.652233
595 0.566657
600 0.2564
Ex : 503
200 0.158163
205 0.225105
210 0.150558
215 0.144828
220 0.151334
225 0.210048
230 0.176406
235 0.19443
240 0.255052
245 0.208764
250 0.150303
255 0.161491
260 0.153848
265 0.202968
270 0.227218
275 0.259223
280 0.227414
285 0.24705
290 0.239443
295 0.171372
300 0.207781
305 0.168025
310 0.175191
315 0.196229
320 0.212501
325 0.186765
330 0.239397
335 0.166579
340 0.2125
345 0.203806
350 0.192907
355 0.206546
360 0.203552
365 0.201123
370 0.193603
375 0.24666
380 0.298888
385 0.277485
390 0.215382
395 0.238949
400 0.179689
405 0.266479
410 0.252254
415 0.234666
420 0.255285
425 0.300059
430 0.266688
435 0.211958
440 0.281935
445 0.251271
450 0.342576
455 0.263094
460 0.351126
465 0.379822
470 0.45159
475 0.486963
480 0.647354
485 0.856213
490 22.723
495 358.058
500 500.794
505 115.234
510 14.3788
515 2.7242
520 1.51859
525 1.23275
530 1.39422
535 1.52255
540 1.38366
545 1.42187
550 1.19777
555 1.22086
560 1.00134
565 0.838169
570 0.814342
575 0.808555
580 0.951937
585 1.16524
590 0.93126
595 0.551823
600 0.253548
Ex : 508
200 0.234938
205 0.229343
210 0.20152
215 0.248553
220 0.208984
225 0.159984
230 0.161387
235 0.178884
240 0.322866
245 0.219146
250 0.265375
255 0.167599
260 0.159237
265 0.208021
270 0.167243
275 0.258546
280 0.290777
285 0.183939
290 0.208044
295 0.204627
300 0.191651
305 0.20574
310 0.246806
315 0.242687
320 0.177561
325 0.162184
330 0.235077
335 0.23018
340 0.187492
345 0.192894
350 0.2561
355 0.236378
360 0.258339
365 0.203622
370 0.261061
375 0.235553
380 0.258126
385 0.201341
390 0.207771
395 0.200195
400 0.192786
405 0.201492
410 0.240567
415 0.266763
420 0.205677
425 0.183837
430 0.196799
435 0.2322
440 0.292843
445 0.304709
450 0.248047
455 0.285921
460 0.279474
465 0.267567
470 0.344601
475 0.445129
480 0.528014
485 0.633368
490 0.788446
495 24.7025
500 356.092
505 489.751
510 118.489
515 14.7184
520 2.90718
525 1.60995
530 1.2493
535 1.24683
540 1.30694
545 1.48197
550 1.35189
555 1.16522
560 1.0394
565 0.778635
570 0.784986
575 0.715781
580 0.565552
585 0.60077
590 0.946042
595 0.785052
600 0.814786
Ex : 513
200 0.192842
205 0.244811
210 0.22143
215 0.207157
220 0.255858
225 0.217202
230 0.164681
235 0.178556
240 0.215639
245 0.184015
250 0.201914
255 0.2521
260 0.218908
265 0.193991
270 0.257176
275 0.175247
280 0.156032
285 0.144227
290 0.186929
295 0.162142
300 0.192131
305 0.22268
310 0.192109
315 0.182952
320 0.223369
325 0.235548
330 0.19508
335 0.310886
340 0.187882
345 0.160667
350 0.282506
355 0.274504
360 0.266878
365 0.263714
370 0.233117
375 0.254858
380 0.281278
385 0.311862
390 0.218929
395 0.216421
400 0.238245
405 0.208616
410 0.297181
415 0.221112
420 0.287647
425 0.20969
430 0.229852
435 0.22627
440 0.237432
445 0.213971
450 0.326133
455 0.286228
460 0.222336
465 0.258927
470 0.36001
475 0.341639
480 0.404757
485 0.345813
490 0.615051
495 0.853282
500 22.0432
505 340.237
510 489.726
515 119.272
520 15.049
525 2.87894
530 1.61111
535 1.3178
540 1.22481
545 1.34045
550 1.25946
555 1.20074
560 1.13759
565 0.937815
570 0.767994
575 0.714772
580 0.590119
585 0.494185
590 0.535211
595 0.673105
600 0.345398
Ex : 518
200 0.186401
205 0.173467
210 0.21301
215 0.255984
220 0.251887
225 0.210826
230 0.161208
235 0.188134
240 0.216756
245 0.224242
250 0.119721
255 0.199633
260 0.3168
265 0.237142
270 0.235086
275 0.225411
280 0.231334
285 0.282668
290 0.304323
295 0.263996
300 0.20178
305 0.173284
310 0.17198
315 0.17029
320 0.221921
325 0.182028
330 0.225126
335 0.222171
340 0.207372
345 0.21248
350 0.224649
355 0.43567
360 0.27228
365 0.185786
370 0.189013
375 0.27215
380 0.28423
385 0.299562
390 0.269343
395 0.248605
400 0.262568
405 0.204004
410 0.226137
415 0.305263
420 0.276069
425 0.226103
430 0.322215
435 0.223001
440 0.26805
445 0.251167
450 0.293595
455 0.256628
460 0.249973
465 0.317296
470 0.315499
475 0.333495
480 0.319164
485 0.285402
490 0.392765
495 0.596563
500 0.791901
505 21.4731
510 330.395
515 483.498
520 119.415
525 14.9674
530 2.85754
535 1.62292
540 1.48784
545 1.31563
550 1.35202
555 1.39371
560 1.28173
565 0.96531
570 0.7764
575 0.786219
580 0.688125
585 0.58028
590 0.450297
595 0.348309
600 0.242815
Ex : 523
200 0.341259
205 0.25358
210 0.166973
215 0.274653
220 0.219031
225 0.238111
230 0.264365
235 0.206183
240 0.168956
245 0.230735
250 0.226381
255 0.237624
260 0.196481
265 0.168516
270 0.199646
275 0.241859
280 0.195288
285 0.165862
290 0.258857
295 0.254834
300 0.214774
305 0.204858
310 0.246569
315 0.252586
320 0.254687
325 0.177113
330 0.196153
335 0.274645
340 0.233041
345 0.188907
350 0.219748
355 0.268704
360 0.218221
365 0.239258
370 0.205199
375 0.232406
380 0.258779
385 0.237512
390 0.219471
395 0.218489
400 0.20219
405 0.195197
410 0.240882
415 0.253526
420 0.315753
425 0.220086
430 0.211064
435 0.221821
440 0.333183
445 0.261136
450 0.25994
455 0.331053
460 0.303491
465 0.289529
470 0.298894
475 0.257233
480 0.307343
485 0.358431
490 0.364263
495 0.46409
500 0.529518
505 0.750866
510 19.6146
515 308.734
520 470.224
525 120.274
530 15.0658
535 2.96723
540 1.64267
545 1.35665
550 1.4389
555 1.23944
560 1.17418
565 1.17484
570 0.77883
575 0.873653
580 0.626304
585 0.572567
590 0.438594
595 0.481739
600 0.647844
Ex : 528
200 0.196975
205 0.214489
210 0.24004
215 0.14178
220 0.242147
225 0.335824
230 0.286638
235 0.238573
240 0.218564
245 0.219353
250 0.198198
255 0.183803
260 0.244378
265 0.197444
270 0.178138
275 0.163729
280 0.109402
285 0.228398
290 0.285102
295 0.241493
300 0.230118
305 0.257226
310 0.299392
315 0.260948
320 0.209425
325 0.279955
330 0.238821
335 0.206239
340 0.199889
345 0.23306
350 0.247324
355 0.248449
360 0.258865
365 0.2166
370 0.279325
375 0.233337
380 0.215545
385 0.340832
390 0.29186
395 0.253126
400 0.233202
405 0.249836
410 0.235977
415 0.169707
420 0.248703
425 0.258193
430 0.288845
435 0.31828
440 0.293708
445 0.267629
450 0.300704
455 0.388277
460 0.279259
465 0.279048
470 0.252502
475 0.357134
480 0.333407
485 0.240638
490 0.402847
495 0.317964
500 0.41202
505 0.584648
510 0.784575
515 17.8998
520 305.063
525 466.912
530 118.766
535 14.9667
540 2.90479
545 1.60773
550 1.4138
555 1.24344
560 1.14057
565 1.18994
570 1.03468
575 0.786561
580 0.714185
585 0.475424
590 0.497647
595 0.451076
600 0.0513308
Ex : 533
200 0.212531
205 0.231841
210 0.197005
215 0.184589
220 0.240238
225 0.183943
230 0.211967
235 0.17616
240 0.280039
245 0.186993
250 0.190156
255 0.266022
260 0.196443
265 0.18846
270 0.164408
275 0.202811
280 0.267178
285 0.274826
290 0.148596
295 0.250199
300 0.247481
305 0.251667
310 0.209532
315 0.210281
320 0.252682
325 0.180267
330 0.252527
335 0.199615
340 0.251975
345 0.179949
350 0.235963
355 0.259064
360 0.253379
365 0.246717
370 0.231483
375 0.222615
380 0.279219
385 0.219431
390 0.235939
395 0.212814
400 0.196082
405 0.229674
410 0.302274
415 0.264376
420 0.237809
425 0.260996
430 0.277358
435 0.273358
440 0.324905
445 0.289107
450 0.252872
455 0.233857
460 0.308498
465 0.306898
470 0.268942
475 0.337817
480 0.331671
485 0.274483
490 0.346292
495 0.307182
500 0.445103
505 0.528991
510 0.570585
515 0.725563
520 18.5087
525 289.119
530 447.067
535 118.002
540 14.8755
545 2.7819
550 1.4575
555 1.26732
560 1.04216
565 0.946098
570 0.864518
575 0.668546
580 0.63623
585 0.535488
590 0.483494
595 0.39577
600 0.376771
Ex : 538
200 0.292224
205 0.278752
210 0.230737
215 0.202624
220 0.26302
225 0.177395
230 0.155718
235 0.194135
240 0.275057
245 0.182043
250 0.2825
255 0.270822
260 0.231844
265 0.250407
270 0.226424
275 0.203266
280 0.246691
285 0.199123
290 0.171324
295 0.223115
300 0.295289
305 0.285197
310 0.190769
315 0.218381
320 0.227885
325 0.230095
330 0.327835
335 0.267168
340 0.343333
345 0.338668
350 0.24004
355 0.231294
360 0.312269
365 0.198649
370 0.227612
375 0.252008
380 0.22965
385 0.166735
390 0.258812
395 0.269792
400 0.228748
405 0.250296
410 0.239676
415 0.312092
420 0.272308
425 0.203687
430 0.306464
435 0.225257
440 0.319932
445 0.302092
450 0.312007
455 0.231364
460 0.266657
465 0.327401
470 0.273908
475 0.380406
480 0.25851
485 0.238884
490 0.370059
495 0.335146
500 0.32398
505 0.405982
510 0.497842
515 0.607082
520 0.704772
525 15.2804
530 272.764
535 441.953
540 119.417
545 14.9989
550 2.82001
555 1.30174
560 0.942421
565 0.893686
570 0.707281
575 0.627795
580 0.594473
585 0.597717
590 0.415825
595 0.382783
600 0.0782153
Ex : 543
200 0.322734
205 0.307601
210 0.282712
215 0.271891
220 0.259575
225 0.241976
230 0.252904
235 0.21158
240 0.251399
245 0.340481
250 0.281394
255 0.298826
260 0.177258
265 0.198966
270 0.202407
275 0.260108
280 0.305886
285 0.178288
290 0.156618
295 0.214206
300 0.314078
305 0.36148
310 0.176187
315 0.287201
320 0.297868
325 0.242707
330 0.263583
335 0.263264
340 0.272607
345 0.291158
350 0.206699
355 0.303038
360 0.304388
365 0.23816
370 0.365249
375 0.231956
380 0.301224
385 0.201984
390 0.232729
395 0.205936
400 0.245888
405 0.276389
410 0.270443
415 0.274587
420 0.282032
425 0.243343
430 0.353059
435 0.267688
440 0.277887
445 0.282938
450 0.279487
455 0.265914
460 0.231659
465 0.323903
470 0.337697
475 0.34039
480 0.254847
485 0.358939
490 0.341615
495 0.271385
500 0.295836
505 0.475324
510 0.482371
515 0.460892
520 0.629415
525 0.710078
530 13.6895
535 256.552
540 434.475
545 121.067
550 15.1606
555 2.88852
560 1.21852
565 0.837846
570 0.773471
575 0.745734
580 0.551832
585 0.504751
590 0.443007
595 0.417293
600 0.389883
Ex : 548
200 0.174033
205 0.264283
210 0.257316
215 0.228724
220 0.257336
225 0.263991
230 0.262328
235 0.301238
240 0.23051
245 0.207407
250 0.226971
255 0.195067
260 0.225981
265 0.207437
270 0.200174
275 0.191159
280 0.22785
285 0.234125
290 0.149723
295 0.262301
300 0.255324
305 0.27305
310 0.26608
315 0.296661
320 0.204592
325 0.250734
330 0.188759
335 0.193853
340 0.257426
345 0.22882
350 0.328857
355 0.244283
360 0.21818
365 0.227857
370 0.265032
375 0.301495
380 0.382892
385 0.312156
390 0.288404
395 0.245885
400 0.258183
405 0.307025
410 0.23492
415 0.315548
420 0.303565
425 0.18795
430 0.306028
435 0.284439
440 0.263751
445 0.430632
450 0.188144
455 0.25929
460 0.309432
465 0.318083
470 0.284647
475 0.273698
480 0.171622
485 0.351918
490 0.368631
495 0.284036
500 0.279947
505 0.397348
510 0.33299
515 0.427335
520 0.494829
525 0.441218
530 0.806474
535 15.1623
540 258.825
545 420.647
550 118.177
555 14.8071
560 2.55392
565 1.10885
570 0.668043
575 0.642414
580 0.566628
585 0.52991
590 0.436523
595 0.30218
600 0.164711
Ex : 553
200 0.22195
205 0.347257
210 0.25809
215 0.263008
220 0.323878
225 0.285577
230 0.280039
235 0.261283
240 0.240746
245 0.239926
250 0.193586
255 0.209416
260 0.224555
265 0.327689
270 0.297159
275 0.233715
280 0.205985
285 0.245825
290 0.224737
295 0.222693
300 0.234532
305 0.218492
310 0.199896
315 0.338716
320 0.348562
325 0.284551
330 0.246265
335 0.250057
340 0.225106
345 0.364192
350 0.27121
355 0.307737
360 0.332729
365 0.326122
370 0.402373
375 0.243362
380 0.221626
385 0.300754
390 0.298549
395 0.276116
400 0.258429
405 0.229444
410 0.305121
415 0.254026
420 0.297988
425 0.413381
430 0.354367
435 0.221851
440 0.167902
445 0.183594
450 0.316636
455 0.400607
460 0.355508
465 0.28921
470 0.397992
475 0.328222
480 0.32614
485 0.351274
490 0.318342
495 0.359155
500 0.320027
505 0.338723
510 0.32291
515 0.407264
520 0.44906
525 0.463534
530 0.567941
535 0.890436
540 13.3556
545 241.367
550 411.472
555 117.326
560 14.5209
565 2.49573
570 0.676351
575 0.651898
580 0.505455
585 0.322818
590 0.381263
595 0.369155
600 0.0420084
Ex : 558
200 0.244822
205 0.340232
210 0.250385
215 0.227159
220 0.288075
225 0.261292
230 0.234963
235 0.274753
240 0.193127
245 0.308075
250 0.215352
255 0.303531
260 0.274988
265 0.246841
270 0.264824
275 0.251522
280 0.196572
285 0.2327
290 0.286259
295 0.271553
300 0.253341
305 0.278459
310 0.361419
315 0.223868
320 0.265873
325 0.266559
330 0.33948
335 0.262466
340 0.364119
345 0.230113
350 0.204854
355 0.355142
360 0.217602
365 0.242866
370 0.165345
375 0.294035
380 0.265495
385 0.284605
390 0.311172
395 0.276516
400 0.352717
405 0.359493
410 0.287775
415 0.234206
420 0.336032
425 0.261508
430 0.330042
435 0.376264
440 0.275301
445 0.228204
450 0.307738
455 0.299651
460 0.433343
465 0.343222
470 0.263606
475 0.415361
480 0.30249
485 0.276463
490 0.24852
495 0.192731
500 0.450885
505 0.398707
510 0.315591
515 0.32501
520 0.367843
525 0.517454
530 0.445749
535 0.546872
540 0.732628
545 12.0666
550 227.62
555 396.205
560 113.724
565 13.8018
570 2.0865
575 0.837303
580 0.542271
585 0.430641
590 0.463452
595 0.4073
600 0.0463492
Ex : 563
200 0.400397
205 0.34092
210 0.318642
215 0.215983
220 0.218831
225 0.276348
230 0.204925
235 0.241393
240 0.245444
245 0.370043
250 0.243594
255 0.305887
260 0.281801
265 0.206331
270 0.296702
275 0.303295
280 0.314748
285 0.264493
290 0.237038
295 0.249685
300 0.325766
305 0.185111
310 0.348986
315 0.312644
320 0.213745
325 0.293619
330 0.221847
335 0.308444
340 0.287443
345 0.28256
350 0.316536
355 0.256996
360 0.226467
365 0.267264
370 0.256423
375 0.350005
380 0.261414
385 0.249368
390 0.279676
395 0.307118
400 0.267724
405 0.313297
410 0.28343
415 0.315741
420 0.253714
425 0.243126
430 0.278252
435 0.232938
440 0.293577
445 0.394292
450 0.213078
455 0.338685
460 0.340832
465 0.310153
470 0.197844
475 0.254339
480 0.375824
485 0.340112
490 0.38687
495 0.250787
500 0.314442
505 0.343316
510 0.341103
515 0.327772
520 0.273947
525 0.426419
530 0.414485
535 0.53255
540 0.615059
545 0.648393
550 11.8752
555 220.609
560 381.621
565 111.43
570 13.6255
575 2.21464
580 0.736105
585 0.543753
590 0.39046
595 0.310918
600 0.342144
Ex : 568
200 0.227358
205 0.289965
210 0.284642
215 0.276432
220 0.248894
225 0.244204
230 0.263556
235 0.250073
240 0.228406
245 0.223769
250 0.229886
255 0.237574
260 0.23506
265 0.183269
270 0.286926
275 0.238314
280 0.223384
285 0.259383
290 0.206086
295 0.213393
300 0.387153
305 0.229382
310 0.317597
315 0.313378
320 0.296974
325 0.213219
330 0.253459
335 0.334844
340 0.295524
345 0.318466
350 0.362722
355 0.299005
360 0.291602
365 0.376722
370 0.291441
375 0.301567
380 0.357854
385 0.293884
390 0.324892
395 0.274538
400 0.295184
405 0.271834
410 0.255209
415 0.366744
420 0.36353
425 0.35539
430 0.315048
435 0.415294
440 0.309168
445 0.249156
450 0.281012
455 0.373666
460 0.309461
465 0.335992
470 0.346893
475 0.260572
480 0.352354
485 0.369498
490 0.268101
495 0.287378
500 0.280452
505 0.298559
510 0.325711
515 0.354456
520 0.352883
525 0.435115
530 0.361369
535 0.388659
540 0.491717
545 0.518505
550 0.676079
555 8.47452
560 196.495
565 363.842
570 112.653
575 13.9855
580 2.21922
585 0.704158
590 0.449336
595 0.523933
600 0.775627
Ex : 573
200 0.217586
205 0.371013
210 0.241482
215 0.198708
220 0.25484
225 0.286763
230 0.293196
235 0.359449
240 0.286654
245 0.242962
250 0.256782
255 0.330487
260 0.310275
265 0.356817
270 0.357445
275 0.211371
280 0.235501
285 0.21739
290 0.242785
295 0.256196
300 0.315982
305 0.297501
310 0.275599
315 0.310344
320 0.265527
325 0.330264
330 0.292514
335 0.27119
340 0.202978
345 0.315024
350 0.320313
355 0.218195
360 0.217564
365 0.360721
370 0.252958
375 0.220319
380 0.364254
385 0.257271
390 0.301577
395 0.278224
400 0.276735
405 0.262468
410 0.340558
415 0.298858
420 0.241237
425 0.263049
430 0.272518
435 0.284872
440 0.279727
445 0.232482
450 0.34925
455 0.230735
460 0.24547
465 0.296402
470 0.262791
475 0.411951
480 0.209356
485 0.311386
490 0.460254
495 0.252916
500 0.235104
505 0.251725
510 0.371878
515 0.467517
520 0.2636
525 0.293032
530 0.334094
535 0.412652
540 0.353052
545 0.287068
550 0.468888
555 0.574578
560 8.0529
565 185.99
570 349.153
575 106.976
580 13.1748
585 2.01522
590 0.551082
595 0.471229
600 1.60676
Ex : 578
200 0.277336
205 0.313048
210 0.242098
215 0.236574
220 0.179689
225 0.228099
230 0.195418
235 0.362937
240 0.227652
245 0.357492
250 0.295617
255 0.240914
260 0.390183
265 0.215666
270 0.265117
275 0.235906
280 0.178444
285 0.225556
290 0.279102
295 0.24768
300 0.22149
305 0.318326
310 0.280264
315 0.212757
320 0.240224
325 0.265255
330 0.268238
335 0.330379
340 0.22503
345 0.267028
350 0.332539
355 0.3417
360 0.297515
365 0.315032
370 0.261902
375 0.284786
380 0.312699
385 0.306747
390 0.278517
395 0.38314
400 0.297287
405 0.321292
410 0.280602
415 0.280787
420 0.354774
425 0.311107
430 0.259908
435 0.257686
440 0.3217
445 0.336695
450 0.311392
455 0.251543
460 0.329372
465 0.3506
470 0.319393
475 0.310231
480 0.321855
485 0.399197
490 0.382457
495 0.301943
500 0.356737
505 0.48646
510 0.392655
515 0.366416
520 0.254077
525 0.374553
530 0.320489
535 0.399374
540 0.341541
545 0.374275
550 0.393894
555 0.4544
560 0.688125
565 6.72098
570 148.243
575 291.093
580 91.4659
585 11.1283
590 1.6409
595 0.514798
600 0.797085
Ex : 583
200 0.282801
205 0.271531
210 0.27407
215 0.360977
220 0.261366
225 0.187307
230 0.213675
235 0.290834
240 0.244213
245 0.272103
250 0.355391
255 0.35607
260 0.234691
265 0.200277
270 0.272972
275 0.303776
280 0.314912
285 0.222542
290 0.253411
295 0.289395
300 0.220343
305 0.235429
310 0.200583
315 0.28541
320 0.296868
325 0.334352
330 0.264834
335 0.285637
340 0.301806
345 0.235596
350 0.219536
355 0.26561
360 0.310272
365 0.250505
370 0.284008
375 0.282688
380 0.254174
385 0.214854
390 0.285053
395 0.226062
400 0.371653
405 0.260337
410 0.269295
415 0.323722
420 0.31893
425 0.299035
430 0.337467
435 0.264609
440 0.276415
445 0.235612
450 0.459304
455 0.275186
460 0.35022
465 0.309356
470 0.320816
475 0.394682
480 0.271564
485 0.345273
490 0.371123
495 0.518789
500 0.353524
505 0.368831
510 0.286836
515 0.507967
520 0.324214
525 0.288811
530 0.365689
535 0.3524
540 0.348958
545 0.358932
550 0.370141
555 0.342003
560 0.560331
565 0.637333
570 5.61805
575 134.897
580 251.085
585 73.5597
590 9.09816
595 1.36218
600 0.302711
Ex : 588
200 0.264768
205 0.287288
210 0.237394
215 0.243955
220 0.315174
225 0.229595
230 0.276672
235 0.223516
240 0.239276
245 0.208096
250 0.286091
255 0.247498
260 0.293146
265 0.315211
270 0.234955
275 0.261721
280 0.187561
285 0.187576
290 0.303069
295 0.283832
300 0.355746
305 0.214294
310 0.231146
315 0.282269
320 0.257775
325 0.17672
330 0.392029
335 0.246157
340 0.299869
345 0.310252
350 0.472447
355 0.333881
360 0.303083
365 0.177184
370 0.394094
375 0.268562
380 0.230358
385 0.366069
390 0.397019
395 0.416662
400 0.365018
405 0.27329
410 0.328278
415 0.280625
420 0.380628
425 0.472998
430 0.372903
435 0.255801
440 0.271369
445 0.244792
450 0.274242
455 0.350467
460 0.45447
465 0.302203
470 0.44528
475 0.328177
480 0.339775
485 0.270279
490 0.283397
495 0.310126
500 0.269057
505 0.339575
510 0.302692
515 0.303624
520 0.304279
525 0.274128
530 0.253222
535 0.252968
540 0.325029
545 0.318117
550 0.273409
555 0.300463
560 0.404746
565 0.459085
570 0.431549
575 4.86748
580 108.981
585 213.287
590 65.1323
595 8.04874
600 1.35902
Ex : 593
200 0.374908
205 0.412929
210 0.273662
215 0.27813
220 0.315229
225 0.285347
230 0.311185
235 0.312361
240 0.253018
245 0.317139
250 0.229048
255 0.340999
260 0.347489
265 0.231366
270 0.265484
275 0.335736
280 0.388152
285 0.455962
290 0.34756
295 0.305692
300 0.282963
305 0.277832
310 0.186714
315 0.240746
320 0.275408
325 0.293816
330 0.312209
335 0.282086
340 0.257999
345 0.219438
350 0.212994
355 0.27117
360 0.322995
365 0.227431
370 0.35422
375 0.331817
380 0.340076
385 0.280659
390 0.301716
395 0.345072
400 0.390272
405 0.289452
410 0.206765
415 0.23322
420 0.339308
425 0.311932
430 0.300339
435 0.243084
440 0.450779
445 0.490174
450 0.335972
455 0.29251
460 0.222622
465 0.270212
470 0.389263
475 0.421331
480 0.266669
485 0.293211
490 0.449771
495 0.336392
500 0.318386
505 0.29662
510 0.34878
515 0.464634
520 0.353232
525 0.350112
530 0.37048
535 0.357301
540 0.381318
545 0.440628
550 0.358043
555 0.36711
560 0.425638
565 0.444151
570 0.466028
575 0.51743
580 4.27835
585 94.6696
590 183.752
595 54.6022
600 9.47884
Ex : 598
200 0.352784
205 0.310039
210 0.289636
215 0.271738
220 0.192768
225 0.211702
230 0.231666
235 0.273256
240 0.273114
245 0.226222
250 0.251689
255 0.235864
260 0.297813
265 0.215803
270 0.325335
275 0.317757
280 0.277898
285 0.372313
290 0.304252
295 0.281626
300 0.323889
305 0.323443
310 0.477667
315 0.430894
320 0.336238
325 0.279221
330 0.284434
335 0.311957
340 0.266176
345 0.32278
350 0.273214
355 0.242983
360 0.253176
365 0.281323
370 0.271107
375 0.249209
380 0.294427
385 0.356461
390 0.314812
395 0.300806
400 0.280761
405 0.365984
410 0.293962
415 0.458982
420 0.359657
425 0.252043
430 0.380464
435 0.255579
440 0.387219
445 0.369679
450 0.351854
455 0.328073
460 0.40647
465 0.248016
470 0.361604
475 0.348337
480 0.259087
485 0.366921
490 0.25641
495 0.303361
500 0.416724
505 0.28563
510 0.328827
515 0.353213
520 0.398916
525 0.338075
530 0.44255
535 0.266012
540 0.370565
545 0.275562
550 0.391034
555 0.235863
560 0.242655
565 0.344212
570 0.431553
575 0.555953
580 0.529239
585 3.87997
590 84.8363
595 162.001
600 96.5026
Ex : 603
200 0.378842
205 0.327281
210 0.35245
215 0.315006
220 0.253671
225 0.233706
230 0.279898
235 0.380714
240 0.303993
245 0.272242
250 0.364315
255 0.230335
260 0.310986
265 0.327323
270 0.259069
275 0.255685
280 0.182932
285 0.238127
290 0.32495
295 0.277447
300 0.287662
305 0.350667
310 0.360641
315 0.276631
320 0.352482
325 0.306526
330 0.26125
335 0.415012
340 0.26806
345 0.319173
350 0.276014
355 0.250421
360 0.286973
365 0.30181
370 0.328196
375 0.274682
380 0.431599
385 0.45946
390 0.391243
395 0.455858
400 0.233352
405 0.254216
410 0.27996
415 0.349254
420 0.267973
425 0.36148
430 0.330783
435 0.33601
440 0.342741
445 0.427588
450 0.287945
455 0.32787
460 0.277339
465 0.267738
470 0.279365
475 0.398496
480 0.314434
485 0.350212
490 0.333874
495 0.334408
500 0.382242
505 0.333002
510 0.373918
515 0.362658
520 0.440392
525 0.321227
530 0.329667
535 0.480706
540 0.412894
545 0.351128
550 0.410324
555 0.362658
560 0.315996
565 0.297195
570 0.34006
575 0.429134
580 0.400321
585 0.401326
590 3.75883
595 73.2202
600 144.405
