File format V 1.0
sam. 21. janv. 12:05:58 2017
Operator : 
Comments : 

=============================================
SpectroFluorometer parameters
Mode : 3D measurement
Data : Fluorescence
Phospho. : Ordinary
Spectrum : Fluorescence

Scan speed : 2400 nm/mn
Response : 100 ms
PM Voltage : 700 V
Shutter : On

Lambda Ex. Start : 203
Lambda Ex. End : 603
Lambda Ex. Step : 5
Ex. Slit : 5 nm

Lambda Em. Start : 200
Lambda Em. End : 600
Lambda Em. Step : 5
Em. Slit : 5 nm

Repetition : 1
Decal lambda em : 10
=============================================
DATA
Ex : 203
200 5.35747
205 4.35569
210 3.6768
215 5.84903
220 7.01048
225 5.7508
230 6.71283
235 3.89381
240 6.55833
245 3.11796
250 3.39323
255 4.68941
260 4.734
265 4.31563
270 7.29499
275 5.28103
280 4.48569
285 6.06786
290 6.25192
295 4.20814
300 4.14104
305 4.85256
310 5.81996
315 5.72862
320 3.94904
325 4.05632
330 5.3647
335 6.17502
340 6.21041
345 3.87569
350 6.35189
355 4.0511
360 4.45528
365 4.59625
370 4.40622
375 5.72203
380 8.76138
385 5.99832
390 6.22243
395 5.10235
400 7.55739
405 4.02262
410 3.93347
415 4.66895
420 5.65254
425 4.97579
430 4.65767
435 4.28787
440 4.64959
445 4.04896
450 2.4668
455 8.00756
460 5.36994
465 4.6137
470 3.7786
475 6.9083
480 5.16332
485 4.47385
490 6.64147
495 7.59157
500 4.3139
505 5.06356
510 4.5702
515 7.94468
520 5.23895
525 3.81764
530 3.86404
535 6.54757
540 4.02879
545 4.30001
550 5.76013
555 4.15204
560 5.96782
565 4.78451
570 4.07643
575 3.65996
580 5.1443
585 7.63457
590 6.10585
595 6.33509
600 9.76019
Ex : 208
200 4.36199
205 3.31188
210 4.48675
215 5.42197
220 4.9234
225 4.58846
230 3.02884
235 5.0221
240 4.62271
245 6.39404
250 4.45054
255 4.49641
260 4.12124
265 3.41033
270 5.10219
275 5.58579
280 5.47073
285 4.61671
290 3.66736
295 5.67313
300 4.19834
305 6.21078
310 5.35413
315 8.09537
320 3.7347
325 5.87824
330 5.76459
335 4.3405
340 6.65595
345 6.05384
350 5.56737
355 6.65888
360 5.96367
365 4.74451
370 5.81968
375 5.51283
380 4.25233
385 3.91794
390 4.05426
395 5.59565
400 3.54921
405 5.37265
410 5.02486
415 4.29931
420 4.01668
425 4.49785
430 4.45454
435 5.88829
440 4.77133
445 5.02176
450 3.47033
455 5.11866
460 5.7371
465 4.97561
470 3.10905
475 5.02774
480 3.67584
485 6.80635
490 6.02935
495 5.75196
500 5.83014
505 5.27767
510 3.57271
515 4.97198
520 5.45764
525 4.86461
530 5.25908
535 3.38915
540 3.76328
545 4.23535
550 5.22181
555 4.40857
560 5.01443
565 4.27696
570 5.02198
575 5.40681
580 4.85548
585 6.55315
590 5.1646
595 3.91934
600 3.99082
Ex : 213
200 2.88235
205 5.60742
210 5.02501
215 5.07168
220 4.16279
225 6.98991
230 6.75677
235 5.94662
240 6.92135
245 5.35136
250 6.04723
255 5.22837
260 4.68514
265 4.8539
270 4.75219
275 6.60512
280 5.74323
285 3.87792
290 3.18694
295 5.58374
300 4.15912
305 5.24777
310 5.41513
315 5.0765
320 3.31154
325 4.37695
330 6.83504
335 5.34582
340 5.31753
345 4.30803
350 6.17706
355 4.67655
360 2.67876
365 5.52898
370 4.27825
375 3.90084
380 4.31244
385 4.1931
390 3.60176
395 4.82912
400 5.15696
405 7.50086
410 6.55059
415 5.27725
420 6.60847
425 6.33754
430 3.77692
435 4.74675
440 3.93471
445 4.88284
450 4.88687
455 4.97137
460 3.76393
465 4.45127
470 4.38764
475 4.8385
480 3.06887
485 4.80806
490 6.78324
495 4.89538
500 5.001
505 5.36835
510 7.4334
515 3.51228
520 7.20969
525 4.06985
530 5.02729
535 4.28922
540 5.71454
545 6.64383
550 4.2143
555 3.04186
560 4.69435
565 3.65008
570 4.05819
575 4.14547
580 3.95091
585 4.1559
590 7.2186
595 3.38947
600 33.5297
Ex : 218
200 3.08756
205 6.06612
210 3.77772
215 6.74409
220 7.4179
225 5.29164
230 4.63579
235 4.32672
240 3.67521
245 6.31827
250 5.54579
255 5.54701
260 4.4402
265 7.66742
270 4.67681
275 4.82811
280 6.84613
285 4.72971
290 5.12493
295 6.123
300 5.24304
305 5.4485
310 7.36078
315 4.29502
320 6.3083
325 4.64815
330 4.45588
335 5.94737
340 4.67482
345 4.41322
350 4.44685
355 5.22612
360 3.71889
365 3.69921
370 4.55657
375 4.78803
380 5.32248
385 3.17059
390 5.23294
395 5.53233
400 6.39202
405 5.98869
410 4.69434
415 4.88748
420 5.03429
425 3.87785
430 7.76024
435 5.12862
440 5.27575
445 5.62083
450 5.45714
455 5.74464
460 4.78534
465 4.56003
470 6.70173
475 3.33816
480 5.661
485 5.31237
490 9.96764
495 5.21581
500 2.56753
505 4.75064
510 4.45771
515 3.82339
520 4.62978
525 4.03045
530 3.71085
535 4.70688
540 5.06792
545 5.45685
550 3.18585
555 3.50816
560 7.2886
565 5.94213
570 7.04683
575 4.4843
580 6.75188
585 5.60143
590 4.79283
595 5.47861
600 0.623445
Ex : 223
200 3.34513
205 4.47237
210 5.00161
215 4.38352
220 4.12991
225 2.44657
230 4.05356
235 5.42402
240 6.10784
245 3.91614
250 5.23958
255 4.8636
260 6.41203
265 4.05293
270 5.68744
275 6.1281
280 3.31302
285 4.08295
290 2.67621
295 3.64515
300 2.91017
305 4.3818
310 3.5619
315 7.64266
320 3.60853
325 4.71242
330 4.62523
335 3.18875
340 2.82497
345 7.50911
350 6.45547
355 6.15346
360 5.18004
365 4.4562
370 6.12256
375 5.97624
380 4.6121
385 3.92672
390 3.33096
395 5.26928
400 5.61085
405 3.1072
410 2.56507
415 3.82074
420 4.78121
425 5.66618
430 4.65666
435 4.94538
440 3.42174
445 4.32459
450 5.25648
455 4.21587
460 5.78122
465 6.28788
470 6.64078
475 3.5045
480 5.74671
485 4.3613
490 4.68093
495 4.01083
500 3.52435
505 4.43136
510 3.83437
515 4.39203
520 4.46479
525 4.00191
530 3.68817
535 4.29833
540 4.88077
545 2.66923
550 3.21231
555 3.28296
560 5.91436
565 5.10795
570 3.86165
575 7.0221
580 4.19111
585 3.81469
590 5.68092
595 6.07065
600 9.42625
Ex : 228
200 3.38136
205 4.56849
210 4.2269
215 4.90085
220 5.22232
225 6.04499
230 6.14323
235 3.70316
240 3.70835
245 3.5618
250 4.66287
255 3.53915
260 3.69171
265 5.12997
270 3.99107
275 4.0103
280 4.33398
285 2.81901
290 3.61901
295 3.46431
300 4.77659
305 5.52608
310 3.73631
315 3.56292
320 5.33472
325 5.51528
330 5.2223
335 4.14293
340 3.43191
345 3.51832
350 5.07237
355 4.68174
360 4.94844
365 4.94907
370 3.91274
375 4.46726
380 5.32914
385 2.95046
390 3.46058
395 4.92588
400 3.86503
405 5.95231
410 3.19387
415 4.15942
420 4.39794
425 4.58439
430 3.37808
435 5.06751
440 6.18668
445 6.12913
450 5.82812
455 4.20425
460 4.04616
465 5.14003
470 6.27232
475 4.31588
480 3.74564
485 2.74494
490 2.31466
495 6.09159
500 4.76825
505 4.72097
510 6.50308
515 4.66251
520 3.26844
525 3.95173
530 4.38339
535 3.71894
540 3.82592
545 4.10087
550 4.30428
555 3.30823
560 4.04579
565 4.91633
570 5.1801
575 4.60795
580 3.72954
585 3.46482
590 8.72611
595 7.3645
600 0.838052
Ex : 233
200 4.868
205 4.16721
210 7.2306
215 6.36339
220 4.41491
225 6.82842
230 4.94509
235 3.91946
240 4.35096
245 3.38695
250 5.09575
255 4.27712
260 2.47196
265 3.63748
270 5.05221
275 3.52661
280 4.58728
285 4.29461
290 3.31964
295 3.10784
300 5.05165
305 4.50514
310 3.83078
315 3.04531
320 4.43416
325 4.08969
330 2.91421
335 5.27928
340 5.30741
345 2.938
350 3.41389
355 3.88182
360 2.62418
365 4.61101
370 4.54194
375 4.65603
380 4.65577
385 3.91286
390 4.65651
395 4.64813
400 4.35457
405 4.01925
410 3.43502
415 3.97808
420 2.67842
425 3.18676
430 4.44287
435 5.55371
440 4.1663
445 4.55954
450 5.23798
455 3.96502
460 4.9673
465 2.54537
470 3.30133
475 4.98534
480 3.28999
485 3.2277
490 4.96492
495 6.15893
500 4.17333
505 3.57843
510 4.08015
515 4.72023
520 4.14104
525 3.82404
530 4.37467
535 7.90294
540 5.23591
545 6.1346
550 3.91785
555 5.53794
560 4.53739
565 3.95038
570 5.93423
575 3.83435
580 2.70337
585 4.69378
590 5.96213
595 3.38631
600 8.50888
Ex : 238
200 2.59091
205 4.22423
210 4.34248
215 3.09738
220 2.52257
225 4.90176
230 3.31247
235 3.60617
240 3.60657
245 2.57455
250 3.56535
255 3.62945
260 2.85402
265 3.97541
270 4.1109
275 2.65335
280 4.72689
285 4.66695
290 3.45941
295 3.07769
300 3.13638
305 3.46186
310 4.58094
315 3.94184
320 5.44791
325 2.79686
330 4.87229
335 4.4724
340 5.45957
345 3.47612
350 3.18559
355 3.94745
360 4.63423
365 2.17499
370 4.36985
375 2.84384
380 4.16905
385 5.36371
390 5.28036
395 3.27189
400 4.60607
405 3.78454
410 3.3678
415 2.51762
420 3.04357
425 2.86292
430 4.49127
435 3.72593
440 3.83374
445 4.25996
450 3.23752
455 6.67066
460 3.27762
465 3.80702
470 4.87064
475 3.69626
480 1.90283
485 4.54541
490 3.9235
495 4.95412
500 3.57878
505 3.06586
510 3.6887
515 2.99839
520 3.96295
525 2.79624
530 3.74507
535 3.39884
540 4.56735
545 4.78846
550 4.24797
555 3.75265
560 2.08252
565 3.69913
570 3.5179
575 3.41953
580 2.8681
585 3.1016
590 5.58123
595 4.3812
600 0.498564
Ex : 243
200 3.77044
205 2.51055
210 2.54426
215 3.00906
220 3.10546
225 4.2241
230 6.34611
235 2.7076
240 2.60039
245 3.76343
250 3.07833
255 3.87567
260 2.33305
265 3.44865
270 3.01793
275 5.93776
280 4.28825
285 4.00528
290 2.62769
295 3.78591
300 3.68762
305 4.21455
310 3.82201
315 2.79143
320 3.16458
325 2.48594
330 3.64542
335 4.38827
340 4.22791
345 3.32963
350 4.45599
355 3.35752
360 2.65332
365 3.06238
370 2.98841
375 4.16083
380 2.33157
385 2.8379
390 3.52001
395 3.11422
400 3.6503
405 3.94404
410 3.67588
415 3.49215
420 3.2411
425 3.28297
430 2.61075
435 4.86553
440 3.32752
445 5.09115
450 2.90062
455 4.60437
460 3.5869
465 2.33013
470 3.49623
475 3.50917
480 4.29628
485 4.92281
490 4.37898
495 3.75988
500 3.35937
505 4.81884
510 2.72529
515 2.96315
520 3.77054
525 2.57925
530 3.28074
535 3.92091
540 2.22992
545 2.16864
550 4.37845
555 3.13766
560 2.90851
565 4.14195
570 2.06161
575 3.30031
580 2.69354
585 4.78567
590 4.95274
595 4.70193
600 6.02953
Ex : 248
200 2.00275
205 3.20194
210 2.72345
215 3.08553
220 1.98948
225 3.13418
230 1.77793
235 2.36778
240 2.50357
245 3.47918
250 3.62603
255 1.9854
260 3.59898
265 3.0731
270 3.4214
275 2.34832
280 3.13873
285 2.468
290 3.40959
295 3.67245
300 3.01252
305 3.68752
310 3.67546
315 2.67557
320 2.13791
325 2.59314
330 3.57926
335 2.51114
340 2.25588
345 2.58419
350 2.62323
355 3.55446
360 4.15494
365 3.41193
370 4.14725
375 3.88912
380 2.74863
385 2.35862
390 2.6193
395 3.57456
400 3.02553
405 2.90093
410 2.39876
415 3.60539
420 5.15985
425 2.83206
430 2.0873
435 4.05805
440 3.12281
445 1.78394
450 3.12059
455 3.51098
460 3.97744
465 2.05507
470 2.90901
475 5.9198
480 3.28868
485 3.15261
490 2.78377
495 3.19253
500 3.05562
505 2.76178
510 2.73077
515 2.97679
520 3.1829
525 2.29295
530 1.73633
535 3.58017
540 4.36368
545 3.75829
550 3.1735
555 2.76008
560 2.92875
565 3.01565
570 2.53586
575 2.07336
580 3.58942
585 2.04581
590 3.82805
595 3.36104
600 0.382474
Ex : 253
200 2.91648
205 2.66294
210 2.91468
215 2.06742
220 1.28114
225 2.96404
230 2.60182
235 3.07625
240 3.35058
245 2.16363
250 2.99143
255 1.93597
260 2.35525
265 2.41551
270 1.83638
275 1.10507
280 2.17896
285 1.99204
290 2.81246
295 2.95127
300 2.19936
305 2.93938
310 2.23752
315 2.30792
320 3.73143
325 2.54674
330 2.63265
335 1.82528
340 2.49723
345 2.46387
350 2.57214
355 2.8973
360 2.28846
365 2.91697
370 2.39177
375 2.64267
380 2.89287
385 2.65672
390 1.5824
395 2.32529
400 2.76138
405 3.17735
410 2.56247
415 2.97395
420 2.49631
425 3.40014
430 2.75834
435 2.97448
440 2.47929
445 2.91864
450 3.47614
455 2.36159
460 2.02082
465 2.95955
470 2.83539
475 3.2708
480 2.85962
485 2.05955
490 2.8113
495 3.03564
500 2.98568
505 2.61547
510 2.58257
515 3.10543
520 2.76865
525 2.93575
530 2.35039
535 3.66928
540 3.20909
545 3.12047
550 2.72225
555 2.27369
560 1.86421
565 1.77364
570 2.9921
575 2.90836
580 3.47942
585 3.13549
590 2.58368
595 3.13218
600 0.35643
Ex : 258
200 1.3279
205 1.43082
210 1.65829
215 1.80961
220 1.52206
225 2.15049
230 2.6002
235 1.94716
240 2.24474
245 3.12126
250 2.03397
255 1.31442
260 2.51007
265 2.03259
270 2.34139
275 1.2455
280 2.07082
285 1.98026
290 2.31575
295 2.31629
300 2.94139
305 3.06009
310 2.15153
315 1.88744
320 1.34671
325 2.12114
330 2.22298
335 2.17039
340 4.22366
345 2.7018
350 2.18708
355 2.16407
360 2.03115
365 2.83497
370 1.66631
375 2.80963
380 1.90247
385 2.28268
390 1.72534
395 2.46383
400 1.6704
405 1.88728
410 1.54896
415 2.1812
420 2.43138
425 1.88694
430 1.3177
435 3.52768
440 2.24303
445 1.85534
450 2.3432
455 1.90968
460 1.56117
465 1.50946
470 2.75233
475 1.81131
480 2.28763
485 2.16631
490 1.13592
495 2.47114
500 1.898
505 2.21359
510 2.10308
515 3.11024
520 1.87178
525 1.77977
530 3.33909
535 1.59851
540 1.91925
545 2.68849
550 1.4212
555 2.48905
560 1.31551
565 1.49719
570 1.38606
575 2.97776
580 1.41328
585 1.38039
590 1.93585
595 1.626
600 6.61001
Ex : 263
200 1.06704
205 2.18084
210 1.40862
215 1.09023
220 2.3089
225 2.1388
230 2.3759
235 0.93338
240 1.19538
245 1.06369
250 1.03969
255 1.34789
260 1.58825
265 1.18773
270 1.34091
275 1.2259
280 1.97989
285 1.36067
290 1.8483
295 2.29933
300 1.29426
305 1.90458
310 1.468
315 1.92269
320 1.87815
325 1.21688
330 2.39427
335 1.19447
340 1.30172
345 1.72641
350 1.52131
355 1.322
360 1.75539
365 1.64731
370 1.7142
375 1.86601
380 2.13584
385 1.83543
390 2.4135
395 2.72437
400 1.75265
405 1.61095
410 2.44619
415 1.65973
420 2.09791
425 1.83028
430 2.34928
435 1.55993
440 1.28815
445 1.34721
450 1.43367
455 1.5966
460 1.92628
465 1.31919
470 2.07408
475 1.76606
480 1.3371
485 1.67576
490 2.02338
495 1.18315
500 1.134
505 1.74365
510 1.21373
515 1.39399
520 2.04877
525 1.8723
530 1.41476
535 1.68759
540 2.3528
545 1.78108
550 1.19724
555 1.7011
560 1.67575
565 2.11971
570 2.09156
575 1.46555
580 1.29815
585 1.65971
590 2.30261
595 1.60591
600 0.428915
Ex : 268
200 1.36219
205 1.51008
210 1.12207
215 0.918579
220 0.845071
225 1.30182
230 0.910689
235 1.63741
240 1.49221
245 1.37179
250 1.05652
255 1.08599
260 0.738805
265 1.27244
270 1.34772
275 1.11002
280 1.30313
285 1.08842
290 0.965852
295 0.793026
300 0.904648
305 0.964786
310 1.38556
315 1.53926
320 1.13572
325 1.70449
330 0.916784
335 1.49766
340 1.32451
345 1.37102
350 1.20493
355 1.04078
360 1.53982
365 1.39516
370 1.80313
375 1.07394
380 1.07698
385 0.916233
390 1.36895
395 0.951248
400 1.78004
405 1.4049
410 2.58743
415 1.82647
420 1.67428
425 1.86424
430 2.04904
435 1.91779
440 1.78164
445 1.76295
450 1.70563
455 1.50642
460 1.27866
465 1.03476
470 1.22322
475 1.52846
480 1.46712
485 1.2451
490 1.17408
495 0.90702
500 1.43506
505 1.5784
510 0.803512
515 1.17722
520 1.18347
525 1.77471
530 1.55957
535 0.983206
540 1.32442
545 1.31945
550 1.52324
555 1.43683
560 1.37472
565 1.16791
570 1.35646
575 1.14062
580 0.879024
585 1.57325
590 1.08378
595 0.924166
600 3.07395
Ex : 273
200 0.632258
205 1.47139
210 1.20683
215 1.08289
220 0.967631
225 1.01949
230 0.62194
235 0.674324
240 0.703502
245 1.31126
250 1.04637
255 0.83675
260 0.889832
265 1.16207
270 0.721664
275 0.76981
280 1.09641
285 0.742952
290 0.530972
295 0.665532
300 0.868698
305 0.755955
310 0.8072
315 0.818807
320 0.596627
325 1.11938
330 1.2368
335 1.31443
340 1.40093
345 0.81136
350 0.985203
355 1.05595
360 0.873811
365 1.35634
370 1.35608
375 1.11619
380 1.23247
385 0.945965
390 1.33062
395 1.05833
400 0.71922
405 1.33576
410 1.3485
415 2.09963
420 1.22443
425 1.20923
430 1.49913
435 0.77625
440 1.29157
445 1.20357
450 1.3901
455 1.01726
460 1.66496
465 1.65651
470 1.79933
475 1.12175
480 0.983409
485 1.0792
490 1.20138
495 0.919281
500 1.17288
505 1.01721
510 1.39427
515 1.17064
520 2.16061
525 0.839162
530 0.847399
535 1.07773
540 1.72358
545 1.12727
550 1.17835
555 0.804108
560 0.914113
565 0.846518
570 1.41525
575 0.711799
580 0.663605
585 0.964179
590 0.97282
595 1.3368
600 0.841392
Ex : 278
200 0.911402
205 0.902332
210 1.09531
215 0.909117
220 0.853055
225 0.801617
230 0.671194
235 1.14486
240 0.940385
245 1.24229
250 0.65689
255 0.547987
260 0.648531
265 0.821234
270 0.759959
275 1.27013
280 0.807131
285 1.18492
290 0.636999
295 0.855835
300 0.862187
305 0.880178
310 0.672774
315 0.594827
320 0.885042
325 0.629435
330 0.874903
335 1.01021
340 0.998408
345 0.792628
350 0.82123
355 0.823308
360 1.05027
365 0.735503
370 0.835209
375 0.847223
380 0.79296
385 1.01867
390 0.915282
395 1.03033
400 1.59266
405 1.33127
410 1.17831
415 1.1108
420 0.897136
425 0.759068
430 1.03244
435 1.34787
440 1.18535
445 1.1636
450 1.05068
455 1.27981
460 0.990908
465 0.998284
470 1.10426
475 0.899188
480 0.833186
485 0.928688
490 1.14931
495 1.00323
500 0.993487
505 0.908384
510 0.64984
515 0.98062
520 1.26366
525 0.814159
530 0.961849
535 0.61238
540 1.12043
545 1.23184
550 1.24315
555 1.28945
560 0.773059
565 0.563794
570 0.67278
575 0.759732
580 0.756292
585 0.72121
590 0.839665
595 0.674016
600 0.0767005
Ex : 283
200 0.619727
205 0.869023
210 0.665125
215 0.620514
220 0.626639
225 0.615077
230 0.672497
235 0.620013
240 0.578108
245 0.698954
250 0.906127
255 0.576715
260 0.678754
265 0.744176
270 0.628008
275 0.659206
280 0.451309
285 0.73628
290 0.486346
295 0.80618
300 0.688571
305 0.799181
310 0.919064
315 1.54026
320 0.779532
325 0.77324
330 0.73072
335 0.817059
340 0.993531
345 1.09683
350 0.649457
355 0.422098
360 1.08175
365 0.580272
370 0.648051
375 0.805399
380 1.05295
385 1.35901
390 1.26326
395 1.02538
400 0.750503
405 1.13625
410 1.0566
415 0.707979
420 0.751621
425 0.782201
430 0.847111
435 0.648553
440 1.00569
445 0.758537
450 0.527142
455 0.729068
460 0.946446
465 0.946491
470 0.684142
475 1.25617
480 1.34432
485 0.985041
490 0.681634
495 0.759921
500 0.69549
505 1.1194
510 0.70678
515 0.823992
520 0.678616
525 0.838626
530 0.978184
535 0.83974
540 0.41243
545 0.678044
550 0.843014
555 0.748864
560 1.07683
565 0.983982
570 0.73059
575 0.557623
580 0.780912
585 0.712362
590 0.431504
595 0.554426
600 0.2068
Ex : 288
200 0.405084
205 0.552499
210 0.509338
215 0.410801
220 0.520809
225 0.657791
230 0.643191
235 0.582796
240 0.79398
245 0.558671
250 0.571421
255 0.812715
260 0.45195
265 0.441322
270 0.631732
275 0.604477
280 0.527653
285 0.551953
290 0.798982
295 0.527946
300 0.591607
305 0.563462
310 0.521054
315 0.548101
320 0.622963
325 0.37271
330 0.794768
335 0.648102
340 0.512495
345 0.484127
350 0.609625
355 0.64804
360 0.969055
365 0.788388
370 1.03548
375 0.706235
380 0.662359
385 0.713286
390 0.659212
395 0.79575
400 1.1586
405 0.830666
410 0.911045
415 0.8006
420 1.13831
425 0.811969
430 0.832674
435 0.538579
440 0.911467
445 0.994305
450 1.39295
455 1.12502
460 0.58619
465 0.828658
470 0.591437
475 0.564594
480 0.788406
485 0.713129
490 0.716416
495 0.713836
500 0.663346
505 0.641566
510 0.833165
515 0.534295
520 0.707802
525 0.428114
530 0.551934
535 0.478516
540 0.468047
545 0.602349
550 0.856659
555 0.512232
560 0.537514
565 0.591156
570 0.81929
575 1.16062
580 0.479727
585 0.422041
590 0.839332
595 0.559073
600 0.187277
Ex : 293
200 0.59503
205 0.477716
210 0.512358
215 0.410934
220 0.364184
225 0.687909
230 0.358396
235 0.538885
240 0.473174
245 0.445462
250 0.491717
255 0.547502
260 0.519059
265 0.717283
270 0.576317
275 0.408603
280 0.389396
285 0.503444
290 0.748117
295 0.521221
300 0.482933
305 0.483098
310 0.674063
315 0.456804
320 0.578892
325 0.307042
330 0.452976
335 0.309831
340 0.559907
345 0.585817
350 0.712915
355 0.652577
360 0.638134
365 0.694819
370 0.508077
375 0.688738
380 0.639027
385 0.739856
390 0.994067
395 0.81834
400 0.841067
405 0.936331
410 0.946924
415 1.03544
420 0.938404
425 0.999264
430 0.892146
435 0.791434
440 0.725078
445 0.791888
450 0.734022
455 0.538516
460 0.75215
465 0.992511
470 0.745177
475 0.766494
480 0.761156
485 1.05165
490 0.618967
495 0.720765
500 0.604431
505 0.527761
510 0.561369
515 0.596518
520 0.629764
525 0.595898
530 0.463283
535 0.606441
540 0.698063
545 0.597449
550 0.500353
555 0.428438
560 0.506922
565 0.383095
570 0.517476
575 0.62794
580 0.796229
585 0.564808
590 0.463706
595 0.535248
600 0.0609091
Ex : 298
200 0.558363
205 0.363369
210 0.228185
215 0.502319
220 0.268468
225 0.362472
230 0.309288
235 0.391706
240 0.383068
245 0.635116
250 0.470669
255 0.294081
260 0.429246
265 0.342464
270 0.465366
275 0.426609
280 0.439529
285 0.375378
290 0.642113
295 0.603787
300 0.308844
305 0.5075
310 0.418491
315 0.344343
320 0.606887
325 0.479495
330 0.376254
335 0.466404
340 0.481593
345 0.454224
350 0.673909
355 0.81549
360 0.640235
365 0.758926
370 0.385587
375 0.732948
380 0.731349
385 0.620416
390 0.59304
395 0.728274
400 0.872932
405 0.652673
410 0.826334
415 0.846552
420 0.696549
425 0.924384
430 0.930165
435 0.781087
440 0.82201
445 0.738609
450 0.760184
455 0.8736
460 0.847135
465 0.681138
470 0.783464
475 0.733205
480 0.741248
485 0.5889
490 0.64092
495 0.460851
500 0.560956
505 0.516134
510 0.625395
515 0.650608
520 0.542084
525 0.735941
530 0.524296
535 0.483373
540 0.437332
545 0.569985
550 0.429494
555 0.516231
560 0.442046
565 0.462684
570 0.471942
575 0.329215
580 0.515262
585 0.808335
590 0.657012
595 0.702568
600 0.0799496
Ex : 303
200 0.621631
205 0.272449
210 0.222555
215 0.244593
220 0.212591
225 0.25528
230 0.357578
235 0.369582
240 0.336304
245 0.439772
250 0.432659
255 0.245995
260 0.473616
265 0.384489
270 0.296683
275 0.499603
280 0.468874
285 0.362884
290 0.428634
295 0.578542
300 0.540195
305 0.537501
310 0.429466
315 0.294355
320 0.377766
325 0.31581
330 0.450437
335 0.376525
340 0.288892
345 0.350434
350 0.455481
355 0.508913
360 0.489685
365 0.656471
370 0.639851
375 0.643545
380 0.590708
385 0.59479
390 0.691799
395 0.695104
400 0.478804
405 0.635414
410 0.770185
415 0.725787
420 0.796093
425 0.736327
430 0.841804
435 0.651353
440 0.753144
445 0.77817
450 0.674153
455 0.648511
460 0.563311
465 0.511302
470 0.564541
475 0.474968
480 0.47285
485 0.396248
490 0.53049
495 0.465678
500 0.577871
505 0.35043
510 0.429328
515 0.539209
520 0.408897
525 0.366766
530 0.3863
535 0.547441
540 0.485073
545 0.484385
550 0.349792
555 0.425371
560 0.402321
565 0.312858
570 0.521167
575 0.373007
580 0.352337
585 0.344884
590 0.310941
595 0.436994
600 0.766511
Ex : 308
200 0.33075
205 0.298058
210 0.357846
215 0.38605
220 0.305493
225 0.251465
230 0.343392
235 0.202041
240 0.487392
245 0.313061
250 0.266569
255 0.272831
260 0.283811
265 0.230216
270 0.510918
275 0.243496
280 0.240794
285 0.259516
290 0.250873
295 0.318023
300 0.457626
305 0.499343
310 0.358272
315 0.510858
320 0.534572
325 0.275602
330 0.330306
335 0.323694
340 0.498394
345 0.432976
350 0.438377
355 0.493677
360 0.403972
365 0.577305
370 0.663813
375 0.526006
380 0.512311
385 0.61695
390 0.73942
395 0.699286
400 0.598221
405 0.680697
410 0.661322
415 0.540589
420 0.675
425 0.707107
430 0.56959
435 0.598661
440 0.622728
445 0.489126
450 0.639394
455 0.559396
460 0.671538
465 0.67634
470 0.639621
475 0.408684
480 0.591672
485 0.401931
490 0.685805
495 0.432579
500 0.512869
505 0.452972
510 0.452117
515 0.340743
520 0.405298
525 0.399657
530 0.395039
535 0.440029
540 0.290428
545 0.456934
550 0.375342
555 0.337653
560 0.384947
565 0.405979
570 0.276252
575 0.413797
580 0.374677
585 0.328723
590 0.225826
595 0.405021
600 0.0460899
Ex : 313
200 0.195724
205 0.215644
210 0.232682
215 0.303202
220 0.410505
225 0.236439
230 0.263144
235 0.476844
240 0.32893
245 0.259953
250 0.326545
255 0.234749
260 0.30416
265 0.33794
270 0.238323
275 0.362414
280 0.367026
285 0.239028
290 0.323414
295 0.327887
300 0.261535
305 0.426042
310 0.41381
315 0.287267
320 0.236522
325 0.381299
330 0.359628
335 0.388653
340 0.28612
345 0.599563
350 0.295485
355 0.562264
360 0.544562
365 0.735602
370 0.703267
375 0.898498
380 0.77683
385 1.00797
390 1.03503
395 0.866061
400 0.837139
405 0.921769
410 0.95754
415 1.05256
420 0.964179
425 1.13264
430 1.12886
435 1.19712
440 1.04917
445 0.920196
450 0.766141
455 0.956232
460 0.848993
465 0.614237
470 0.79739
475 0.948783
480 0.547038
485 0.58411
490 0.690167
495 0.623857
500 0.568592
505 0.473249
510 0.544509
515 0.346709
520 0.371535
525 0.46878
530 0.398324
535 0.43159
540 0.281479
545 0.403428
550 0.297012
555 0.353898
560 0.253394
565 0.221382
570 0.357824
575 0.408729
580 0.272994
585 0.431287
590 0.344889
595 0.224544
600 0.0960458
Ex : 318
200 0.201131
205 0.172743
210 0.229641
215 0.247628
220 0.29565
225 0.160465
230 0.177085
235 0.245272
240 0.196765
245 0.173441
250 0.226423
255 0.176791
260 0.191221
265 0.236551
270 0.159531
275 0.271261
280 0.160792
285 0.225909
290 0.210583
295 0.283747
300 0.223723
305 0.26065
310 0.416741
315 0.622663
320 0.562601
325 0.463284
330 0.642193
335 0.665273
340 1.02551
345 1.4257
350 2.38244
355 2.86509
360 2.97298
365 4.02041
370 5.01085
375 5.94859
380 6.82742
385 7.72796
390 8.40367
395 9.23722
400 9.59037
405 9.41092
410 10.2222
415 10.0253
420 9.88588
425 9.65048
430 9.36124
435 9.25661
440 9.48143
445 8.39245
450 8.34444
455 7.62705
460 6.8202
465 5.97853
470 6.1893
475 5.70746
480 5.17963
485 4.31047
490 3.73744
495 3.52812
500 2.87844
505 2.5326
510 2.41893
515 2.06475
520 1.69104
525 1.47211
530 1.42828
535 1.28501
540 1.07546
545 0.788304
550 0.75205
555 0.847001
560 0.67366
565 0.50195
570 0.419208
575 0.396748
580 0.408246
585 0.370796
590 0.270872
595 0.262668
600 0.221749
Ex : 323
200 0.179881
205 0.171107
210 0.255027
215 0.249685
220 0.226855
225 0.242377
230 0.239266
235 0.212914
240 0.352197
245 0.256812
250 0.237592
255 0.276775
260 0.327356
265 0.241473
270 0.2342
275 0.196984
280 0.231436
285 0.243293
290 0.1482
295 0.165753
300 0.252157
305 0.228405
310 0.324369
315 3.1618
320 13.2118
325 5.9426
330 1.97649
335 2.71982
340 4.07459
345 6.17853
350 8.84776
355 11.2193
360 13.7993
365 16.763
370 19.4229
375 23.457
380 26.652
385 29.4483
390 32.7328
395 33.7547
400 36.042
405 36.0996
410 36.8644
415 37.4899
420 36.073
425 35.6238
430 34.9842
435 33.5941
440 32.2894
445 30.6248
450 29.7471
455 28.5516
460 26.2531
465 23.6376
470 21.7477
475 20.5993
480 18.0543
485 16.909
490 14.5196
495 13.1979
500 12.1422
505 10.8838
510 9.20099
515 7.92303
520 6.85038
525 5.98484
530 5.10195
535 4.86785
540 3.94995
545 3.31665
550 3.22302
555 2.45921
560 1.9386
565 1.55824
570 1.46247
575 1.03382
580 0.887483
585 0.770507
590 0.582726
595 0.508329
600 0.123491
Ex : 328
200 0.160064
205 0.307667
210 0.2487
215 0.233113
220 0.174737
225 0.195791
230 0.294848
235 0.229234
240 0.299384
245 0.184285
250 0.244455
255 0.228461
260 0.176169
265 0.23232
270 0.139676
275 0.34555
280 0.318899
285 0.191263
290 0.159289
295 0.264995
300 0.327044
305 0.181541
310 0.344291
315 0.921623
320 27.3746
325 62.9138
330 20.5522
335 5.78746
340 5.37732
345 7.00056
350 9.16011
355 13.3653
360 18.0903
365 20.6996
370 22.9938
375 24.9137
380 28.5393
385 31.5036
390 33.8496
395 35.8063
400 37.7654
405 37.9698
410 37.9363
415 38.8052
420 37.34
425 36.6542
430 35.136
435 34.7941
440 33.3252
445 32.3918
450 31.3722
455 29.2145
460 27.7595
465 25.7637
470 24.2755
475 22.8974
480 20.7192
485 18.666
490 16.647
495 15.2925
500 14.1937
505 12.0236
510 10.9733
515 9.27801
520 8.6128
525 7.54595
530 6.83155
535 6.13155
540 5.73808
545 4.59039
550 3.86074
555 3.68019
560 2.98478
565 2.5947
570 1.94871
575 1.65349
580 1.30084
585 1.15159
590 0.939541
595 0.694715
600 0.079056
Ex : 333
200 0.107904
205 0.172858
210 0.264163
215 0.194008
220 0.186505
225 0.232645
230 0.15758
235 0.164017
240 0.207131
245 0.1241
250 0.24252
255 0.212585
260 0.177763
265 0.264812
270 0.173134
275 0.214485
280 0.209428
285 0.157174
290 0.315099
295 0.266735
300 0.211492
305 0.143034
310 0.162861
315 0.319753
320 4.12093
325 74.5876
330 125.34
335 33.6637
340 6.98871
345 5.27878
350 6.11275
355 6.69578
360 10.3499
365 14.9766
370 16.3559
375 16.2272
380 17.9207
385 18.0398
390 19.843
395 20.8491
400 21.0748
405 21.866
410 21.6963
415 22.577
420 21.6633
425 20.7244
430 20.3729
435 19.9192
440 19.9565
445 19.29
450 18.9157
455 18.3808
460 18.0802
465 16.5277
470 16.5115
475 15.4699
480 15.1668
485 13.6916
490 13.3308
495 12.2887
500 11.7233
505 10.7197
510 9.43368
515 8.56993
520 8.05882
525 6.71228
530 5.99151
535 5.43896
540 5.11079
545 4.58441
550 3.89561
555 3.57849
560 2.89369
565 2.65317
570 2.34687
575 1.83433
580 1.48343
585 1.24873
590 0.712329
595 0.698603
600 0.745869
Ex : 338
200 0.268523
205 0.241765
210 0.232819
215 0.352966
220 0.15367
225 0.134487
230 0.18176
235 0.165535
240 0.198451
245 0.216379
250 0.220229
255 0.199776
260 0.146173
265 0.229932
270 0.240205
275 0.160055
280 0.190724
285 0.178075
290 0.176946
295 0.202844
300 0.183462
305 0.184304
310 0.184012
315 0.235298
320 0.314649
325 6.95074
330 104.978
335 157.645
340 39.7013
345 7.18546
350 4.34437
355 4.51501
360 4.63087
365 6.69111
370 11.1704
375 12.4086
380 11.2358
385 10.9158
390 10.9916
395 11.6474
400 11.9617
405 11.9387
410 12.3883
415 12.1255
420 12.0634
425 12.005
430 12.4602
435 12.3299
440 12.4609
445 12.4694
450 12.446
455 12.4897
460 12.855
465 13.2418
470 13.3772
475 13.3675
480 12.3942
485 12.3884
490 12.4702
495 11.6056
500 11.0976
505 10.6905
510 9.82759
515 9.04658
520 8.06283
525 7.45651
530 6.67714
535 5.98447
540 5.00781
545 4.7411
550 4.33069
555 3.71892
560 3.31322
565 3.16689
570 2.60731
575 2.11649
580 1.48255
585 1.23471
590 1.05648
595 1.04267
600 0.561754
Ex : 343
200 0.11345
205 0.0811964
210 0.197252
215 0.202394
220 0.199885
225 0.145263
230 0.0840467
235 0.183913
240 0.176984
245 0.155204
250 0.236117
255 0.277165
260 0.164367
265 0.14469
270 0.165864
275 0.203518
280 0.168341
285 0.175888
290 0.14206
295 0.183067
300 0.15377
305 0.185524
310 0.170305
315 0.16574
320 0.332127
325 0.326297
330 8.16628
335 119.048
340 173.004
345 42.1383
350 7.37889
355 3.70425
360 3.14206
365 2.96918
370 4.72423
375 8.97629
380 10.5219
385 9.1688
390 7.83848
395 7.7433
400 8.48078
405 8.76157
410 9.25287
415 9.57238
420 8.89592
425 9.55995
430 9.31425
435 9.45287
440 10.0249
445 10.2936
450 10.9607
455 12.3306
460 12.3259
465 13.1973
470 13.3921
475 13.3009
480 13.5455
485 13.5605
490 13.4487
495 12.6212
500 12.1263
505 11.7473
510 10.6879
515 9.83054
520 9.21498
525 8.38438
530 7.98714
535 7.25486
540 6.35543
545 5.93407
550 5.18498
555 4.60787
560 3.83687
565 3.54865
570 3.09624
575 2.19876
580 1.82496
585 1.41488
590 1.1797
595 0.910344
600 0.879746
Ex : 348
200 0.12932
205 0.173068
210 0.147502
215 0.178753
220 0.204775
225 0.115504
230 0.111625
235 0.132803
240 0.131621
245 0.148868
250 0.10851
255 0.164149
260 0.199514
265 0.137421
270 0.216186
275 0.1439
280 0.162724
285 0.127838
290 0.114877
295 0.158123
300 0.158795
305 0.196491
310 0.228027
315 0.170214
320 0.184409
325 0.179368
330 0.301302
335 8.04143
340 119.139
345 175.187
350 45.3814
355 6.83195
360 2.99994
365 2.86414
370 2.69273
375 3.81403
380 7.27914
385 9.77358
390 8.40709
395 7.52036
400 6.88364
405 7.64392
410 7.65227
415 7.7494
420 8.20733
425 8.525
430 8.68082
435 9.38352
440 9.59106
445 10.3706
450 11.0034
455 12.0706
460 13.2449
465 14.462
470 14.7362
475 15.2038
480 15.3958
485 15.8538
490 15.8431
495 15.3427
500 14.5152
505 14.6818
510 13.379
515 12.331
520 11.2835
525 10.4154
530 9.2508
535 8.65378
540 7.82215
545 6.93214
550 6.35587
555 5.59835
560 4.71598
565 4.35493
570 3.5821
575 2.85305
580 2.29294
585 1.77813
590 1.36612
595 1.09221
600 0.607191
Ex : 353
200 0.194746
205 0.102088
210 0.150258
215 0.143033
220 0.178492
225 0.138952
230 0.164011
235 0.122288
240 0.217661
245 0.20375
250 0.11573
255 0.209787
260 0.126848
265 0.162514
270 0.174917
275 0.151146
280 0.175693
285 0.201715
290 0.168651
295 0.132884
300 0.128313
305 0.130643
310 0.232063
315 0.244867
320 0.140604
325 0.156172
330 0.209761
335 0.32241
340 7.49655
345 116.843
350 172.715
355 42.5707
360 6.38195
365 2.67316
370 2.70149
375 3.12468
380 3.60198
385 6.0096
390 8.59363
395 8.57777
400 7.83362
405 7.07052
410 7.09301
415 7.07186
420 7.31291
425 7.71946
430 8.54734
435 8.6438
440 9.37882
445 10.4818
450 12.0662
455 13.5016
460 14.4695
465 15.6077
470 16.181
475 17.33
480 17.8138
485 18.0374
490 18.5652
495 17.8617
500 17.8703
505 16.7736
510 15.7894
515 14.8609
520 14.0567
525 12.3442
530 11.834
535 10.2246
540 9.79894
545 8.51464
550 7.30593
555 6.50242
560 6.00773
565 4.87686
570 4.36938
575 3.38142
580 2.47349
585 2.24249
590 1.65884
595 1.34242
600 1.47464
Ex : 358
200 0.160978
205 0.163037
210 0.120312
215 0.143528
220 0.0979146
225 0.101383
230 0.106328
235 0.119682
240 0.0842812
245 0.136586
250 0.0927778
255 0.187088
260 0.0881151
265 0.103079
270 0.133318
275 0.135636
280 0.142273
285 0.174165
290 0.141546
295 0.190098
300 0.0894536
305 0.121163
310 0.152616
315 0.125687
320 0.176598
325 0.210107
330 0.164124
335 0.182178
340 0.432084
345 7.15168
350 113.943
355 171.332
360 42.9232
365 6.29683
370 2.84769
375 3.32431
380 3.30191
385 3.39328
390 5.06566
395 9.0651
400 9.08315
405 8.06024
410 7.44965
415 7.25836
420 7.62577
425 7.79903
430 8.36529
435 8.70112
440 9.47383
445 10.6718
450 11.9192
455 13.4933
460 15.0506
465 16.6894
470 17.7425
475 18.7808
480 19.365
485 19.5908
490 20.0001
495 20.2841
500 19.4952
505 18.4469
510 17.6596
515 15.9947
520 15.3698
525 14.3872
530 12.2762
535 11.1164
540 10.5032
545 9.51945
550 8.3888
555 7.36045
560 6.9933
565 5.69614
570 4.85844
575 3.84283
580 2.99093
585 2.17387
590 1.83689
595 1.55666
600 1.87149
Ex : 363
200 0.148057
205 0.149894
210 0.117168
215 0.13753
220 0.109531
225 0.108868
230 0.126687
235 0.133456
240 0.181182
245 0.122262
250 0.127177
255 0.147263
260 0.129195
265 0.124971
270 0.104637
275 0.120317
280 0.113147
285 0.155544
290 0.137135
295 0.0905471
300 0.127769
305 0.146457
310 0.177879
315 0.167891
320 0.129584
325 0.133361
330 0.14655
335 0.226581
340 0.249893
345 0.377092
350 6.49424
355 107.582
360 166.634
365 43.4226
370 6.50243
375 3.08732
380 3.63052
385 3.44731
390 3.37495
395 4.67245
400 8.24793
405 9.67205
410 8.60584
415 7.49566
420 7.29111
425 7.67579
430 8.17611
435 8.52206
440 9.33663
445 10.834
450 12.357
455 14.0395
460 16.1614
465 17.9422
470 19.1885
475 20.3232
480 21.5337
485 22.0324
490 22.6303
495 22.3481
500 21.9755
505 20.0895
510 19.3565
515 18.3946
520 17.2117
525 15.8229
530 14.6585
535 13.5395
540 11.9283
545 10.502
550 9.51409
555 8.71865
560 7.79022
565 6.38646
570 5.26757
575 4.1575
580 3.53659
585 2.57098
590 1.98894
595 1.63291
600 2.24935
Ex : 368
200 0.106749
205 0.113954
210 0.111618
215 0.114542
220 0.0921096
225 0.0856034
230 0.136245
235 0.110841
240 0.11782
245 0.114207
250 0.0929546
255 0.120495
260 0.168401
265 0.130705
270 0.102065
275 0.143323
280 0.110267
285 0.172387
290 0.159057
295 0.116761
300 0.105933
305 0.109538
310 0.125313
315 0.155051
320 0.160026
325 0.114055
330 0.138231
335 0.185857
340 0.134315
345 0.161564
350 0.28944
355 5.44065
360 101.997
365 165.068
370 44.456
375 6.72459
380 2.89614
385 3.30996
390 3.25991
395 3.17049
400 4.17765
405 7.22625
410 9.22094
415 8.04529
420 7.20486
425 6.71797
430 6.92149
435 7.71268
440 8.63858
445 10.4241
450 12.241
455 15.2083
460 17.111
465 20.3572
470 21.9716
475 24.2545
480 24.4939
485 25.6053
490 26.1754
495 26.1185
500 25.2061
505 24.5803
510 23.1069
515 21.2408
520 20.1168
525 18.7338
530 17.3282
535 15.5845
540 14.7421
545 13.322
550 11.83
555 10.3126
560 8.78696
565 8.13433
570 6.65824
575 5.10666
580 4.05506
585 3.25384
590 2.46928
595 2.02882
600 1.28148
Ex : 373
200 0.115306
205 0.0980923
210 0.0977488
215 0.115404
220 0.197152
225 0.120983
230 0.160829
235 0.160436
240 0.117535
245 0.109151
250 0.134687
255 0.112258
260 0.0750508
265 0.101412
270 0.115148
275 0.103586
280 0.102187
285 0.114017
290 0.133854
295 0.131262
300 0.135167
305 0.212478
310 0.128833
315 0.142142
320 0.0895804
325 0.0925334
330 0.125547
335 0.122103
340 0.163591
345 0.160858
350 0.191347
355 0.288411
360 6.10512
365 101.676
370 163.784
375 45.4572
380 7.21568
385 2.93673
390 3.31306
395 3.30752
400 3.48957
405 4.04969
410 6.15739
415 8.44322
420 7.60592
425 7.20307
430 6.50906
435 6.87926
440 8.18619
445 9.80439
450 11.9944
455 15.2657
460 17.6441
465 20.1602
470 22.5741
475 24.805
480 26.7825
485 27.2783
490 27.9388
495 28.3804
500 27.9616
505 26.3354
510 25.1796
515 24.003
520 22.0326
525 20.5879
530 18.5274
535 17.2832
540 15.592
545 14.0566
550 12.8534
555 11.361
560 9.90073
565 8.84289
570 7.23138
575 5.69981
580 4.49347
585 3.34532
590 2.52259
595 2.2287
600 1.02053
Ex : 378
200 0.0628655
205 0.110326
210 0.110394
215 0.0945958
220 0.099883
225 0.0964342
230 0.166161
235 0.128107
240 0.117316
245 0.113865
250 0.0986683
255 0.127416
260 0.118913
265 0.0608656
270 0.105354
275 0.100976
280 0.0994439
285 0.0912114
290 0.105775
295 0.110038
300 0.141914
305 0.112973
310 0.173464
315 0.102296
320 0.136909
325 0.134334
330 0.0964156
335 0.161211
340 0.171569
345 0.194429
350 0.166403
355 0.159551
360 0.24838
365 5.92794
370 105.097
375 173.317
380 47.4924
385 7.82846
390 3.32495
395 3.83305
400 4.15246
405 4.31095
410 4.32708
415 5.78463
420 8.59912
425 8.59531
430 7.68215
435 7.47319
440 8.00017
445 9.50439
450 11.666
455 14.7258
460 17.5108
465 19.461
470 21.6282
475 23.8303
480 25.7264
485 26.0439
490 26.5629
495 27.3262
500 26.5608
505 25.0359
510 24.5961
515 22.2435
520 21.2995
525 19.8956
530 17.7364
535 16.2659
540 14.4226
545 13.7186
550 12.8188
555 11.1306
560 10.0423
565 8.41558
570 6.8479
575 5.34621
580 4.35409
585 3.2325
590 2.5284
595 1.91148
600 1.47571
Ex : 383
200 0.0742455
205 0.0779256
210 0.115895
215 0.130394
220 0.0948999
225 0.151182
230 0.104916
235 0.116624
240 0.13762
245 0.124922
250 0.110309
255 0.110529
260 0.101448
265 0.10964
270 0.126214
275 0.106297
280 0.0985287
285 0.0946402
290 0.143975
295 0.117565
300 0.11049
305 0.105151
310 0.0828521
315 0.11187
320 0.124255
325 0.138765
330 0.114993
335 0.0721881
340 0.108592
345 0.127989
350 0.158821
355 0.179588
360 0.205958
365 0.234228
370 5.74184
375 106.112
380 181.1
385 50.4999
390 8.3502
395 3.40972
400 3.58643
405 4.40844
410 4.5166
415 4.27595
420 5.34801
425 7.75747
430 8.51306
435 8.38106
440 8.75286
445 9.52256
450 11.2667
455 13.9266
460 16.9112
465 19.7241
470 22.4454
475 23.6451
480 24.9591
485 25.8022
490 27.1786
495 27.2356
500 26.4061
505 25.3723
510 24.452
515 22.3931
520 20.8689
525 19.4164
530 18.5693
535 16.5633
540 15.0986
545 13.7868
550 12.5926
555 10.9465
560 9.57475
565 8.13922
570 6.78476
575 5.41462
580 4.55035
585 3.3801
590 2.59723
595 1.94887
600 1.53197
Ex : 388
200 0.106077
205 0.14257
210 0.143698
215 0.124258
220 0.11932
225 0.11342
230 0.0861454
235 0.101094
240 0.124872
245 0.133241
250 0.129299
255 0.117281
260 0.133247
265 0.129152
270 0.115795
275 0.161671
280 0.091234
285 0.0628652
290 0.0776891
295 0.101771
300 0.0815148
305 0.102085
310 0.109557
315 0.0944741
320 0.094556
325 0.113379
330 0.106756
335 0.149606
340 0.105468
345 0.143208
350 0.168522
355 0.1934
360 0.136266
365 0.211977
370 0.289444
375 6.34737
380 108.392
385 179.707
390 49.5049
395 7.62483
400 3.07309
405 3.55688
410 4.06254
415 3.63341
420 3.66417
425 4.2444
430 6.79696
435 8.89219
440 8.79078
445 10.0381
450 11.5391
455 13.9402
460 17.2052
465 19.782
470 22.6657
475 24.2326
480 25.9302
485 26.6257
490 28.0417
495 28.288
500 27.7667
505 26.3931
510 25.1703
515 23.3207
520 22.5578
525 20.4121
530 18.7692
535 17.0359
540 15.3992
545 14.0341
550 12.8104
555 11.4248
560 9.95854
565 8.75466
570 6.91679
575 5.74162
580 4.40066
585 3.3675
590 2.74392
595 2.17187
600 1.79634
Ex : 393
200 0.106747
205 0.0981054
210 0.141866
215 0.106057
220 0.092439
225 0.0877788
230 0.112158
235 0.106915
240 0.133578
245 0.121268
250 0.112233
255 0.0727518
260 0.0850923
265 0.109903
270 0.110079
275 0.0828104
280 0.0932546
285 0.066509
290 0.118515
295 0.0685434
300 0.110488
305 0.109012
310 0.143877
315 0.116378
320 0.0949302
325 0.127285
330 0.084452
335 0.103998
340 0.164299
345 0.168877
350 0.10203
355 0.132582
360 0.177234
365 0.189611
370 0.147743
375 0.304823
380 5.42056
385 107.983
390 182.989
395 51.4822
400 7.40294
405 2.72442
410 2.63388
415 3.09526
420 2.89639
425 2.85031
430 3.58352
435 5.79448
440 9.20328
445 10.0824
450 11.984
455 14.8282
460 17.3706
465 20.0797
470 22.6419
475 25.1514
480 26.7632
485 28.3802
490 29.4303
495 29.384
500 28.5805
505 28.4019
510 26.3616
515 24.7679
520 23.079
525 21.7846
530 19.6114
535 18.3259
540 16.8737
545 15.1436
550 13.4189
555 12.1037
560 10.9468
565 9.39781
570 7.5607
575 6.19412
580 4.8736
585 3.63236
590 2.99605
595 2.17131
600 1.73578
Ex : 398
200 0.105364
205 0.106351
210 0.11142
215 0.117573
220 0.125719
225 0.0884918
230 0.172984
235 0.125911
240 0.0844242
245 0.127219
250 0.116448
255 0.0783275
260 0.101854
265 0.0916888
270 0.0987939
275 0.08909
280 0.0527034
285 0.106804
290 0.104926
295 0.102025
300 0.0891745
305 0.104715
310 0.157551
315 0.145795
320 0.147321
325 0.110327
330 0.106962
335 0.122776
340 0.0662454
345 0.0945473
350 0.118683
355 0.145242
360 0.114875
365 0.117047
370 0.168939
375 0.124168
380 0.240823
385 6.11079
390 110.901
395 186.798
400 51.21
405 7.43777
410 2.56038
415 2.35394
420 2.62869
425 2.6862
430 3.05247
435 3.98434
440 6.08556
445 10.2216
450 13.1365
455 15.0609
460 17.8129
465 20.6237
470 22.8924
475 26.1164
480 28.0006
485 29.3289
490 30.099
495 30.2
500 30.0764
505 29.6349
510 27.7814
515 25.9218
520 24.3198
525 22.3705
530 20.5989
535 19.2574
540 17.6272
545 15.8892
550 14.1097
555 12.9087
560 10.9788
565 9.5966
570 8.06977
575 6.46014
580 5.04541
585 3.82282
590 2.85955
595 2.38097
600 3.03355
Ex : 403
200 0.0829411
205 0.0905294
210 0.111285
215 0.0811131
220 0.0819508
225 0.0697618
230 0.0844813
235 0.0879002
240 0.0967354
245 0.0878003
250 0.139326
255 0.172222
260 0.113861
265 0.114098
270 0.0845611
275 0.0937954
280 0.100701
285 0.093761
290 0.0919581
295 0.141784
300 0.131499
305 0.106383
310 0.117278
315 0.0820905
320 0.0578759
325 0.0682595
330 0.117589
335 0.169766
340 0.106434
345 0.0795262
350 0.116903
355 0.147198
360 0.105537
365 0.119055
370 0.185297
375 0.200086
380 0.202332
385 0.296674
390 6.46277
395 113.505
400 185.751
405 51.2783
410 7.47341
415 2.64521
420 2.31583
425 2.8596
430 3.08795
435 3.56422
440 5.10453
445 7.61926
450 12.7094
455 16.3596
460 18.7834
465 21.0179
470 24.1574
475 25.8591
480 28.1496
485 30.1709
490 31.0858
495 31.1144
500 30.713
505 30.1908
510 28.3341
515 26.3015
520 25.0161
525 22.7854
530 21.2202
535 19.503
540 17.7052
545 15.8194
550 14.4253
555 13.0281
560 11.4693
565 9.65018
570 7.92551
575 6.3254
580 5.26215
585 3.88552
590 3.05692
595 2.39671
600 1.97605
Ex : 408
200 0.123055
205 0.106467
210 0.0791792
215 0.0653939
220 0.143252
225 0.0548695
230 0.086144
235 0.131238
240 0.0912196
245 0.094935
250 0.108548
255 0.10942
260 0.100301
265 0.0693441
270 0.0794136
275 0.102512
280 0.14381
285 0.0864153
290 0.0888216
295 0.0788412
300 0.162468
305 0.175789
310 0.116439
315 0.0886227
320 0.11887
325 0.113306
330 0.0989119
335 0.123163
340 0.130145
345 0.0991589
350 0.106651
355 0.139331
360 0.136695
365 0.135303
370 0.104718
375 0.132665
380 0.140146
385 0.17152
390 0.271164
395 6.1296
400 113.959
405 190.09
410 50.6326
415 7.3241
420 2.30065
425 2.18541
430 2.95015
435 3.64152
440 4.75094
445 6.81571
450 10.1343
455 15.0779
460 20.0462
465 22.4132
470 24.3696
475 26.7366
480 28.2819
485 29.2234
490 30.9334
495 30.8307
500 30.7186
505 30.056
510 28.1955
515 26.9322
520 24.9026
525 22.6375
530 20.8406
535 19.3108
540 17.7147
545 16.0338
550 14.4754
555 12.8897
560 11.5379
565 9.88122
570 8.16645
575 6.25562
580 4.91244
585 3.89003
590 2.94094
595 2.40993
600 2.38567
Ex : 413
200 0.117917
205 0.14026
210 0.0647552
215 0.118392
220 0.145453
225 0.12489
230 0.1134
235 0.105005
240 0.124653
245 0.0983642
250 0.0968323
255 0.135972
260 0.0756985
265 0.10879
270 0.106279
275 0.0832415
280 0.156378
285 0.102272
290 0.0816352
295 0.107011
300 0.0905268
305 0.0848284
310 0.084672
315 0.078988
320 0.0663956
325 0.110094
330 0.0980361
335 0.0789156
340 0.0914768
345 0.0800375
350 0.0961219
355 0.119945
360 0.0804094
365 0.0719931
370 0.110205
375 0.17132
380 0.148061
385 0.167109
390 0.225421
395 0.255278
400 7.03751
405 121.644
410 195.84
415 51.3702
420 7.24464
425 2.21701
430 2.19949
435 3.01913
440 4.37227
445 6.1598
450 8.90288
455 12.4038
460 17.3739
465 22.8386
470 25.2362
475 26.3282
480 27.5546
485 29.2461
490 30.2023
495 30.4738
500 30.4114
505 29.5871
510 28.0803
515 26.7029
520 24.9979
525 22.8
530 21.4009
535 19.3583
540 17.509
545 15.9616
550 14.5684
555 12.3994
560 11.023
565 9.55969
570 8.02698
575 6.48452
580 5.10506
585 3.86449
590 3.09452
595 2.44484
600 1.7827
Ex : 418
200 0.133297
205 0.0982111
210 0.0851078
215 0.0711264
220 0.0870936
225 0.100102
230 0.0822005
235 0.0891159
240 0.137118
245 0.0904606
250 0.0846496
255 0.131296
260 0.127433
265 0.111246
270 0.0832605
275 0.0695101
280 0.0806903
285 0.0947108
290 0.0744854
295 0.091549
300 0.104542
305 0.101225
310 0.0906829
315 0.0936121
320 0.0873414
325 0.114153
330 0.0688756
335 0.0969168
340 0.0920225
345 0.117601
350 0.123618
355 0.0855139
360 0.145819
365 0.10026
370 0.0927596
375 0.0882354
380 0.136203
385 0.138628
390 0.181466
395 0.193408
400 0.282694
405 6.47937
410 123.028
415 202.009
420 53.9002
425 7.39541
430 2.35167
435 2.49076
440 3.92404
445 5.72307
450 8.52106
455 11.8005
460 15.3986
465 19.0915
470 23.5252
475 26.7776
480 27.6618
485 28.7751
490 29.0484
495 28.9272
500 28.7071
505 28.5539
510 27.0757
515 24.9696
520 23.3667
525 22.0055
530 20.1044
535 18.5434
540 17.0379
545 15.5929
550 13.7311
555 12.2755
560 10.8033
565 9.18883
570 7.63891
575 6.38624
580 4.86381
585 3.84253
590 3.12839
595 2.18102
600 1.38137
Ex : 423
200 0.141765
205 0.107132
210 0.144869
215 0.0923533
220 0.069165
225 0.0711364
230 0.0815786
235 0.121746
240 0.0882862
245 0.105409
250 0.154701
255 0.10619
260 0.106455
265 0.141794
270 0.1328
275 0.110065
280 0.071004
285 0.0654144
290 0.0857057
295 0.0938898
300 0.12762
305 0.150019
310 0.0989639
315 0.0971401
320 0.113404
325 0.145513
330 0.132588
335 0.114372
340 0.100491
345 0.0772646
350 0.107628
355 0.102906
360 0.101599
365 0.132887
370 0.142864
375 0.139132
380 0.115428
385 0.135179
390 0.122841
395 0.197582
400 0.241301
405 0.340978
410 6.86007
415 127.037
420 201.61
425 51.4666
430 7.275
435 2.79968
440 3.02754
445 5.35064
450 7.96649
455 10.653
460 13.9538
465 17.1868
470 19.9883
475 23.9388
480 26.7045
485 26.8173
490 27.6089
495 27.6827
500 27.0815
505 26.0441
510 24.8772
515 23.1838
520 21.582
525 20.0189
530 18.3644
535 16.9977
540 15.7401
545 14.4971
550 12.6594
555 11.264
560 9.93235
565 8.51539
570 7.22836
575 5.85821
580 4.55518
585 3.36586
590 2.66215
595 2.04888
600 1.02089
Ex : 428
200 0.0983998
205 0.0855554
210 0.101319
215 0.0933058
220 0.111732
225 0.0999008
230 0.111266
235 0.137277
240 0.0989126
245 0.0681459
250 0.077763
255 0.129615
260 0.126355
265 0.113689
270 0.0841781
275 0.0751922
280 0.0956046
285 0.0897302
290 0.0854473
295 0.135127
300 0.0728727
305 0.132557
310 0.120786
315 0.125203
320 0.0588538
325 0.14042
330 0.126039
335 0.139992
340 0.156746
345 0.118984
350 0.116994
355 0.108721
360 0.128515
365 0.0644256
370 0.156546
375 0.129742
380 0.106365
385 0.109103
390 0.133517
395 0.100278
400 0.159112
405 0.15991
410 0.282989
415 7.81864
420 133.504
425 211.026
430 55.9901
435 8.21697
440 3.50724
445 4.49532
450 6.93589
455 9.78884
460 12.4362
465 14.9954
470 17.6033
475 19.99
480 22.8313
485 26.0887
490 25.1428
495 25.2687
500 24.4898
505 23.6105
510 22.6614
515 21.5897
520 19.996
525 18.0321
530 16.9252
535 15.2113
540 14.2368
545 13.3975
550 11.9009
555 10.5232
560 9.10033
565 8.01147
570 6.58699
575 5.33096
580 4.3132
585 3.14802
590 2.36123
595 1.94326
600 1.55341
Ex : 433
200 0.0988021
205 0.0957571
210 0.10926
215 0.121211
220 0.102853
225 0.0971892
230 0.197667
235 0.0988721
240 0.0908155
245 0.116345
250 0.113056
255 0.11303
260 0.0919761
265 0.127876
270 0.124886
275 0.10018
280 0.0627805
285 0.067479
290 0.0898358
295 0.0786842
300 0.088557
305 0.0826607
310 0.0599319
315 0.0805688
320 0.0909564
325 0.0885492
330 0.0878036
335 0.126388
340 0.135144
345 0.133659
350 0.129905
355 0.102858
360 0.0793896
365 0.139045
370 0.0885223
375 0.0827976
380 0.136145
385 0.104944
390 0.136166
395 0.104802
400 0.126621
405 0.167896
410 0.229724
415 0.307923
420 8.75991
425 145.639
430 219.079
435 56.1745
440 8.94988
445 4.5304
450 5.84808
455 8.67429
460 11.3506
465 13.4595
470 15.1198
475 17.207
480 18.9042
485 20.5588
490 23.201
495 23.5399
500 21.8676
505 21.6026
510 20.1357
515 18.5826
520 17.4201
525 16.2779
530 15.29
535 13.8907
540 12.4687
545 11.3106
550 10.3741
555 9.15282
560 7.97268
565 6.64263
570 5.86939
575 4.65271
580 3.70319
585 2.73719
590 2.15614
595 1.75783
600 1.76357
Ex : 438
200 0.119099
205 0.079981
210 0.169726
215 0.0919118
220 0.082506
225 0.111403
230 0.101542
235 0.0957416
240 0.0852732
245 0.105764
250 0.083963
255 0.0674278
260 0.0761592
265 0.100377
270 0.127515
275 0.158528
280 0.070552
285 0.130947
290 0.107477
295 0.116603
300 0.111475
305 0.124794
310 0.0982136
315 0.0785361
320 0.0786777
325 0.0726956
330 0.0986766
335 0.0848589
340 0.099693
345 0.13819
350 0.0909297
355 0.0926642
360 0.106805
365 0.102888
370 0.102349
375 0.108428
380 0.0984369
385 0.0932418
390 0.150175
395 0.129924
400 0.131134
405 0.19071
410 0.158392
415 0.188596
420 0.353895
425 8.82806
430 145.973
435 235.81
440 61.13
445 10.1357
450 5.87416
455 7.10838
460 8.95043
465 11.5725
470 12.8281
475 14.5097
480 16.0689
485 17.049
490 18.1901
495 20.0191
500 19.9869
505 18.2617
510 17.2339
515 15.9357
520 14.7226
525 13.9459
530 12.7095
535 11.7933
540 10.7179
545 9.41744
550 8.52851
555 8.11175
560 6.681
565 5.76635
570 4.69959
575 3.98809
580 3.03027
585 2.49516
590 1.73967
595 1.3591
600 0.880814
Ex : 443
200 0.136206
205 0.169294
210 0.0839005
215 0.0932197
220 0.0864927
225 0.147649
230 0.123042
235 0.101321
240 0.116156
245 0.102519
250 0.0966457
255 0.124193
260 0.117824
265 0.0909381
270 0.0680705
275 0.100587
280 0.108635
285 0.0835294
290 0.101782
295 0.0706964
300 0.124647
305 0.0916384
310 0.13275
315 0.118153
320 0.11586
325 0.108897
330 0.112521
335 0.120105
340 0.120687
345 0.0905131
350 0.0951032
355 0.147062
360 0.144752
365 0.0722673
370 0.102635
375 0.121822
380 0.0854978
385 0.123516
390 0.165855
395 0.103623
400 0.11634
405 0.16028
410 0.189954
415 0.16536
420 0.248683
425 0.369612
430 10.0515
435 161.854
440 244.305
445 63.1037
450 11.078
455 6.68307
460 7.36399
465 9.14602
470 11.0349
475 11.6618
480 12.5621
485 13.4212
490 14.2296
495 14.7252
500 15.6777
505 16.4765
510 14.7227
515 13.3471
520 12.5782
525 11.5175
530 10.4509
535 9.29494
540 8.51777
545 7.99645
550 7.21651
555 6.29315
560 5.42009
565 4.87981
570 3.91667
575 3.27914
580 2.60136
585 1.94124
590 1.44512
595 1.08268
600 1.12657
Ex : 448
200 0.167647
205 0.12009
210 0.0816859
215 0.119695
220 0.0952854
225 0.129416
230 0.120267
235 0.10839
240 0.111057
245 0.123807
250 0.0972893
255 0.108962
260 0.151209
265 0.0991503
270 0.122938
275 0.111133
280 0.0831915
285 0.0898024
290 0.0988611
295 0.0669731
300 0.0952559
305 0.120379
310 0.0821115
315 0.0781413
320 0.0932653
325 0.111918
330 0.111678
335 0.076847
340 0.0698426
345 0.0791065
350 0.109524
355 0.133231
360 0.102226
365 0.123377
370 0.0989203
375 0.124836
380 0.130743
385 0.0733848
390 0.111687
395 0.126706
400 0.139705
405 0.0952904
410 0.156083
415 0.13336
420 0.221801
425 0.350055
430 0.415602
435 10.4914
440 173.241
445 259.497
450 66.4202
455 11.6364
460 6.34584
465 6.68176
470 7.7061
475 8.9696
480 10.057
485 10.195
490 10.6109
495 10.6204
500 10.9496
505 11.4985
510 12.5398
515 11.5421
520 9.52824
525 9.00289
530 8.14708
535 7.03607
540 6.52533
545 6.20722
550 5.4086
555 4.98191
560 4.33914
565 3.95584
570 3.24611
575 2.47294
580 2.13434
585 1.58381
590 1.17983
595 0.905394
600 0.929153
Ex : 453
200 0.098549
205 0.108518
210 0.123767
215 0.0779094
220 0.101118
225 0.0945377
230 0.102488
235 0.112379
240 0.113299
245 0.0931112
250 0.0791815
255 0.143064
260 0.108249
265 0.0794129
270 0.113755
275 0.0758494
280 0.0932628
285 0.153034
290 0.114879
295 0.0900838
300 0.0787223
305 0.0922316
310 0.133645
315 0.0832734
320 0.062916
325 0.11796
330 0.115483
335 0.116395
340 0.129371
345 0.114682
350 0.114462
355 0.122792
360 0.101509
365 0.0824449
370 0.0896562
375 0.0949882
380 0.153021
385 0.0954127
390 0.0841071
395 0.119588
400 0.110656
405 0.129767
410 0.115221
415 0.171559
420 0.168643
425 0.205077
430 0.282705
435 0.501225
440 11.3466
445 187.687
450 270.948
455 65.7894
460 11.3257
465 5.50624
470 5.39189
475 6.20776
480 6.90517
485 7.41966
490 7.38468
495 7.49397
500 7.36919
505 7.32734
510 7.54796
515 8.5522
520 8.1487
525 6.77992
530 6.13626
535 5.42191
540 4.88263
545 4.45793
550 3.85581
555 3.47415
560 3.31384
565 2.64985
570 2.34132
575 1.94003
580 1.54855
585 1.16494
590 0.918419
595 0.776119
600 0.178633
Ex : 458
200 0.116413
205 0.13388
210 0.0778767
215 0.0744259
220 0.142095
225 0.116745
230 0.108258
235 0.10451
240 0.087298
245 0.114247
250 0.100313
255 0.104622
260 0.0952305
265 0.136745
270 0.107805
275 0.0773997
280 0.0629635
285 0.0900736
290 0.0870459
295 0.101206
300 0.111249
305 0.161429
310 0.0887824
315 0.105334
320 0.107374
325 0.103963
330 0.0938825
335 0.0890519
340 0.134482
345 0.0782522
350 0.103532
355 0.107444
360 0.161404
365 0.124832
370 0.100115
375 0.176802
380 0.10817
385 0.102766
390 0.155962
395 0.100814
400 0.0923877
405 0.101386
410 0.122852
415 0.170043
420 0.109864
425 0.112354
430 0.267799
435 0.356923
440 0.540418
445 11.8674
450 197.069
455 291.49
460 72.7183
465 11.3632
470 4.48638
475 3.93735
480 4.50893
485 4.96293
490 4.98337
495 5.14952
500 5.00027
505 4.78818
510 4.63979
515 4.76339
520 5.65476
525 5.99367
530 4.88916
535 4.43482
540 4.00513
545 3.15282
550 2.79183
555 2.56988
560 2.25175
565 1.88824
570 1.54028
575 1.44206
580 1.09219
585 0.914944
590 0.743124
595 0.642971
600 0.626677
Ex : 463
200 0.0621758
205 0.159807
210 0.0793892
215 0.0956442
220 0.105908
225 0.0987608
230 0.108061
235 0.0987126
240 0.0826083
245 0.0821397
250 0.116499
255 0.0795852
260 0.106344
265 0.12703
270 0.107229
275 0.0768433
280 0.0885186
285 0.14137
290 0.0950331
295 0.0958905
300 0.127719
305 0.126318
310 0.0985465
315 0.112466
320 0.116656
325 0.0734189
330 0.100148
335 0.0962528
340 0.0855878
345 0.0779294
350 0.0952033
355 0.0802818
360 0.100473
365 0.0916201
370 0.096302
375 0.137935
380 0.113877
385 0.12608
390 0.103435
395 0.0872356
400 0.112158
405 0.128504
410 0.144387
415 0.118836
420 0.117728
425 0.14254
430 0.116534
435 0.193727
440 0.290466
445 0.507032
450 12.2288
455 195.875
460 297.696
465 72.7317
470 10.42
475 3.72252
480 3.11675
485 3.05259
490 3.659
495 3.58906
500 3.41757
505 3.28527
510 3.2215
515 2.93663
520 3.05286
525 3.63554
530 4.59465
535 3.84181
540 2.93473
545 2.61051
550 2.41319
555 2.21619
560 1.68746
565 1.43309
570 1.25565
575 1.14347
580 0.863119
585 0.689507
590 0.56808
595 0.475657
600 0.0733336
Ex : 468
200 0.0903349
205 0.0732184
210 0.0936508
215 0.0548311
220 0.0643059
225 0.0916508
230 0.0898728
235 0.0675916
240 0.0910907
245 0.0686095
250 0.0908504
255 0.0544097
260 0.136896
265 0.0972131
270 0.11038
275 0.0931356
280 0.0926882
285 0.0760721
290 0.113341
295 0.0925998
300 0.106208
305 0.0991092
310 0.0697956
315 0.101971
320 0.0821592
325 0.0848123
330 0.099682
335 0.105934
340 0.0846634
345 0.0843175
350 0.103025
355 0.0800895
360 0.0822181
365 0.105564
370 0.10563
375 0.117545
380 0.11956
385 0.137718
390 0.0999456
395 0.105295
400 0.107753
405 0.101365
410 0.118275
415 0.123637
420 0.144294
425 0.118238
430 0.104498
435 0.178312
440 0.227286
445 0.329946
450 0.537886
455 12.9894
460 198.626
465 307.22
470 75.0855
475 10.1451
480 3.0633
485 2.1863
490 2.18021
495 2.47371
500 2.45629
505 2.44102
510 2.25526
515 2.35636
520 2.16489
525 2.23589
530 2.45899
535 3.36396
540 3.56115
545 2.51966
550 2.16115
555 1.88567
560 1.65694
565 1.17565
570 0.966806
575 0.985406
580 0.699257
585 0.616802
590 0.578593
595 0.43164
600 0.608827
Ex : 473
200 0.0818066
205 0.107426
210 0.126634
215 0.0915017
220 0.0771947
225 0.127108
230 0.120103
235 0.0514568
240 0.125687
245 0.082951
250 0.0986192
255 0.0986301
260 0.0807311
265 0.125406
270 0.0886436
275 0.0833236
280 0.0853613
285 0.0792126
290 0.0970774
295 0.0991034
300 0.111864
305 0.188252
310 0.0885152
315 0.115173
320 0.0584292
325 0.102882
330 0.124544
335 0.0727641
340 0.0829297
345 0.0820716
350 0.0874623
355 0.14041
360 0.114577
365 0.127206
370 0.0933231
375 0.121732
380 0.0936613
385 0.117549
390 0.111179
395 0.111543
400 0.11837
405 0.0708171
410 0.096251
415 0.13292
420 0.112419
425 0.130251
430 0.145736
435 0.178574
440 0.179234
445 0.205421
450 0.325089
455 0.53725
460 14.5644
465 213.885
470 299.853
475 70.1038
480 9.60047
485 2.50053
490 1.73312
495 1.74984
500 2.03044
505 2.07056
510 1.94078
515 1.83934
520 1.66278
525 1.72378
530 1.77831
535 1.90277
540 2.65209
545 3.2833
550 2.20605
555 1.75924
560 1.64429
565 1.30608
570 1.03877
575 0.76966
580 0.672456
585 0.52399
590 0.439385
595 0.351544
600 0.604895
Ex : 478
200 0.133079
205 0.133903
210 0.103979
215 0.105615
220 0.114142
225 0.135624
230 0.127853
235 0.0758033
240 0.12043
245 0.169861
250 0.133752
255 0.120602
260 0.112429
265 0.097071
270 0.0758199
275 0.113665
280 0.0952211
285 0.0812999
290 0.0926875
295 0.161141
300 0.102745
305 0.122743
310 0.111173
315 0.108265
320 0.100895
325 0.10794
330 0.135529
335 0.138931
340 0.123012
345 0.106372
350 0.146852
355 0.155365
360 0.138354
365 0.086145
370 0.137714
375 0.11688
380 0.114993
385 0.11675
390 0.110027
395 0.109078
400 0.163222
405 0.150625
410 0.182683
415 0.120216
420 0.108486
425 0.143643
430 0.119306
435 0.205938
440 0.153687
445 0.220452
450 0.254322
455 0.348942
460 0.577869
465 15.4208
470 217.462
475 298.489
480 72.2646
485 9.56445
490 2.32592
495 1.3563
500 1.38956
505 1.57085
510 1.59673
515 1.49576
520 1.41732
525 1.49998
530 1.51742
535 1.45456
540 1.51836
545 1.91968
550 2.68514
555 2.30107
560 1.5319
565 1.35008
570 1.18686
575 0.866071
580 0.650512
585 0.509535
590 0.410887
595 0.391654
600 0.153345
Ex : 483
200 0.094074
205 0.10446
210 0.0819535
215 0.148162
220 0.072751
225 0.107407
230 0.108646
235 0.0721995
240 0.14516
245 0.0907188
250 0.124238
255 0.117538
260 0.139794
265 0.0900349
270 0.115784
275 0.0866263
280 0.165746
285 0.108903
290 0.0857457
295 0.147548
300 0.119448
305 0.144041
310 0.138637
315 0.134814
320 0.166269
325 0.127334
330 0.118437
335 0.113317
340 0.0936774
345 0.153108
350 0.101329
355 0.105239
360 0.130096
365 0.0958413
370 0.145082
375 0.10295
380 0.0970829
385 0.132703
390 0.105303
395 0.0761192
400 0.107536
405 0.0880201
410 0.140546
415 0.151244
420 0.093715
425 0.182025
430 0.176903
435 0.151398
440 0.114034
445 0.148384
450 0.203617
455 0.269618
460 0.293759
465 0.508951
470 12.1916
475 210.36
480 316.415
485 76.5862
490 9.8751
495 2.26043
500 1.25488
505 1.25624
510 1.33284
515 1.49585
520 1.544
525 1.44745
530 1.32346
535 1.19063
540 1.21158
545 1.1448
550 1.45726
555 2.15871
560 2.37529
565 1.57147
570 1.22186
575 1.00723
580 0.806263
585 0.571355
590 0.444712
595 0.402166
600 0.0677629
Ex : 488
200 0.0952825
205 0.0955394
210 0.119302
215 0.121066
220 0.106947
225 0.0849506
230 0.123586
235 0.221326
240 0.118167
245 0.117274
250 0.12862
255 0.0841328
260 0.128589
265 0.112897
270 0.124588
275 0.125523
280 0.112472
285 0.0943713
290 0.088535
295 0.165693
300 0.106105
305 0.0795827
310 0.171025
315 0.135976
320 0.162841
325 0.156768
330 0.145601
335 0.105081
340 0.0968596
345 0.114638
350 0.134675
355 0.148319
360 0.155262
365 0.162399
370 0.106517
375 0.144927
380 0.140282
385 0.142194
390 0.131151
395 0.112152
400 0.110739
405 0.160163
410 0.147728
415 0.156987
420 0.122031
425 0.167164
430 0.171886
435 0.153383
440 0.133739
445 0.194178
450 0.152101
455 0.195317
460 0.252496
465 0.393728
470 0.574467
475 14.4392
480 222.441
485 306.133
490 71.7033
495 9.15894
500 2.03433
505 1.21366
510 1.06204
515 1.38151
520 1.39447
525 1.48051
530 1.3641
535 1.31035
540 1.13983
545 1.01242
550 1.06787
555 1.17617
560 1.8045
565 2.02183
570 1.53515
575 1.07206
580 0.847307
585 0.62113
590 0.484049
595 0.396193
600 0.537033
Ex : 493
200 0.15163
205 0.156311
210 0.109538
215 0.0873252
220 0.135642
225 0.131785
230 0.0975933
235 0.0898611
240 0.0873586
245 0.144671
250 0.137501
255 0.110707
260 0.142045
265 0.14129
270 0.170222
275 0.118407
280 0.138161
285 0.117052
290 0.146358
295 0.107622
300 0.203488
305 0.133037
310 0.119481
315 0.117265
320 0.118136
325 0.125097
330 0.145123
335 0.130481
340 0.163664
345 0.159391
350 0.150348
355 0.0948014
360 0.092922
365 0.106346
370 0.174751
375 0.133067
380 0.121767
385 0.112177
390 0.121802
395 0.16573
400 0.139428
405 0.0891577
410 0.132608
415 0.134457
420 0.158987
425 0.15967
430 0.12806
435 0.142423
440 0.123388
445 0.151174
450 0.159293
455 0.190189
460 0.2349
465 0.318026
470 0.378987
475 0.426768
480 12.6745
485 216.626
490 321.788
495 74.9149
500 9.40249
505 2.17834
510 1.37537
515 1.0437
520 1.1972
525 1.36326
530 1.45594
535 1.23008
540 1.00899
545 0.980379
550 1.02545
555 0.932486
560 1.06873
565 1.23933
570 1.79056
575 1.57154
580 0.916399
585 0.718369
590 0.579696
595 0.392623
600 0.479227
Ex : 498
200 0.109076
205 0.131739
210 0.107551
215 0.113713
220 0.119471
225 0.0857856
230 0.130654
235 0.123804
240 0.100835
245 0.108399
250 0.203145
255 0.120421
260 0.146028
265 0.138478
270 0.186313
275 0.139583
280 0.14074
285 0.0876291
290 0.140204
295 0.125697
300 0.0887361
305 0.138785
310 0.119101
315 0.14128
320 0.114329
325 0.187948
330 0.124699
335 0.134464
340 0.148781
345 0.129692
350 0.0926422
355 0.137614
360 0.136214
365 0.145879
370 0.152537
375 0.141868
380 0.176111
385 0.181634
390 0.172433
395 0.163637
400 0.115567
405 0.190282
410 0.132737
415 0.178322
420 0.123091
425 0.135848
430 0.132727
435 0.202619
440 0.154711
445 0.207493
450 0.130878
455 0.174183
460 0.19512
465 0.224689
470 0.241107
475 0.376851
480 0.466423
485 15.3135
490 227.005
495 310.208
500 72.9223
505 9.31931
510 1.98023
515 1.29533
520 1.07917
525 1.15482
530 1.25316
535 1.31993
540 1.25235
545 1.11234
550 1.00672
555 0.990803
560 1.01229
565 0.826833
570 0.972399
575 1.16606
580 1.30897
585 0.830806
590 0.564784
595 0.543515
600 1.27415
Ex : 503
200 0.118633
205 0.154275
210 0.15319
215 0.127695
220 0.159371
225 0.159921
230 0.207141
235 0.100955
240 0.119068
245 0.189764
250 0.1259
255 0.14907
260 0.129453
265 0.19573
270 0.121237
275 0.1438
280 0.14703
285 0.185629
290 0.126301
295 0.118872
300 0.106985
305 0.142381
310 0.182141
315 0.2031
320 0.151002
325 0.120877
330 0.132825
335 0.196858
340 0.110098
345 0.126903
350 0.129944
355 0.135277
360 0.156403
365 0.131622
370 0.160681
375 0.123848
380 0.0933735
385 0.199115
390 0.138047
395 0.162335
400 0.15797
405 0.169472
410 0.180413
415 0.138423
420 0.136307
425 0.199943
430 0.195644
435 0.150657
440 0.132397
445 0.152085
450 0.183094
455 0.154257
460 0.19656
465 0.252106
470 0.207723
475 0.250056
480 0.329236
485 0.545951
490 14.7467
495 225.32
500 314.691
505 73.3739
510 9.4457
515 2.11757
520 1.24488
525 0.988968
530 1.14349
535 1.30409
540 1.30026
545 1.2318
550 0.955241
555 1.06623
560 0.935243
565 0.820109
570 0.788136
575 0.81993
580 0.974471
585 1.0371
590 0.860128
595 0.566442
600 0.498393
Ex : 508
200 0.127893
205 0.150807
210 0.142827
215 0.197469
220 0.116923
225 0.174717
230 0.127347
235 0.18641
240 0.151029
245 0.131503
250 0.116372
255 0.14976
260 0.125062
265 0.222625
270 0.14629
275 0.143996
280 0.165279
285 0.148479
290 0.116587
295 0.0834064
300 0.137233
305 0.15302
310 0.129828
315 0.150432
320 0.200732
325 0.142477
330 0.165391
335 0.144209
340 0.130606
345 0.124691
350 0.122184
355 0.148073
360 0.217331
365 0.104106
370 0.201979
375 0.152461
380 0.153829
385 0.144424
390 0.194261
395 0.121202
400 0.138886
405 0.190206
410 0.152436
415 0.176663
420 0.179438
425 0.162984
430 0.151937
435 0.0996071
440 0.169799
445 0.16576
450 0.229936
455 0.169304
460 0.169448
465 0.192129
470 0.203034
475 0.211368
480 0.234215
485 0.308018
490 0.439362
495 15.6188
500 227.584
505 306.594
510 75.3553
515 9.62585
520 2.05341
525 1.21574
530 1.09741
535 1.06777
540 1.18793
545 1.10428
550 1.03382
555 0.994314
560 0.835218
565 0.869414
570 0.704505
575 0.794988
580 0.550051
585 0.653464
590 0.794056
595 0.726328
600 0.389416
Ex : 513
200 0.119763
205 0.132483
210 0.193217
215 0.168958
220 0.180979
225 0.134816
230 0.124806
235 0.130349
240 0.157695
245 0.160535
250 0.250989
255 0.167551
260 0.132103
265 0.121123
270 0.153034
275 0.168905
280 0.152576
285 0.139493
290 0.107668
295 0.155088
300 0.145408
305 0.154708
310 0.179112
315 0.188445
320 0.139133
325 0.144027
330 0.10393
335 0.153378
340 0.142156
345 0.130835
350 0.160475
355 0.122855
360 0.104301
365 0.147127
370 0.187334
375 0.269372
380 0.128661
385 0.135057
390 0.155527
395 0.14655
400 0.179782
405 0.139671
410 0.189792
415 0.190957
420 0.121508
425 0.184834
430 0.160744
435 0.236774
440 0.152296
445 0.168705
450 0.150333
455 0.133699
460 0.138643
465 0.215683
470 0.241259
475 0.204488
480 0.294763
485 0.301814
490 0.31264
495 0.461246
500 13.5722
505 219.361
510 312.623
515 77.0223
520 9.64739
525 1.99248
530 1.24785
535 0.89529
540 0.972462
545 1.07336
550 1.18941
555 0.986123
560 0.821722
565 0.775843
570 0.686366
575 0.711733
580 0.631054
585 0.460554
590 0.447204
595 0.643811
600 0.726028
Ex : 518
200 0.0980345
205 0.243506
210 0.159003
215 0.161852
220 0.113088
225 0.152127
230 0.128656
235 0.130242
240 0.122936
245 0.173839
250 0.12891
255 0.109241
260 0.121192
265 0.149652
270 0.115258
275 0.175406
280 0.158259
285 0.172393
290 0.159968
295 0.14201
300 0.137559
305 0.0755135
310 0.11662
315 0.0871301
320 0.12143
325 0.189254
330 0.173988
335 0.221916
340 0.158189
345 0.168724
350 0.1432
355 0.183297
360 0.174595
365 0.203607
370 0.142076
375 0.201597
380 0.151818
385 0.163516
390 0.156896
395 0.158822
400 0.130544
405 0.183967
410 0.211669
415 0.180672
420 0.1616
425 0.139138
430 0.201676
435 0.174044
440 0.189991
445 0.184684
450 0.163072
455 0.203954
460 0.152712
465 0.205124
470 0.2971
475 0.223002
480 0.194361
485 0.204565
490 0.309582
495 0.319781
500 0.534321
505 14.5012
510 215.127
515 309.237
520 76.878
525 9.81647
530 2.02017
535 1.21426
540 0.918089
545 0.902563
550 0.859744
555 1.10466
560 0.995487
565 0.903225
570 0.645927
575 0.560518
580 0.477897
585 0.607819
590 0.415126
595 0.297167
600 0.194135
Ex : 523
200 0.138419
205 0.235586
210 0.12348
215 0.198178
220 0.140941
225 0.13128
230 0.159632
235 0.181669
240 0.118156
245 0.200102
250 0.156321
255 0.127832
260 0.125184
265 0.110179
270 0.130528
275 0.158659
280 0.181929
285 0.287835
290 0.206308
295 0.128601
300 0.162687
305 0.12861
310 0.113766
315 0.128418
320 0.190287
325 0.128074
330 0.107712
335 0.109546
340 0.157648
345 0.198574
350 0.166009
355 0.118615
360 0.148128
365 0.142554
370 0.194151
375 0.164926
380 0.189593
385 0.163823
390 0.143721
395 0.262293
400 0.185944
405 0.198224
410 0.194356
415 0.152307
420 0.199353
425 0.232146
430 0.169317
435 0.173067
440 0.201644
445 0.201958
450 0.16724
455 0.234523
460 0.233842
465 0.241895
470 0.266775
475 0.195494
480 0.27263
485 0.227762
490 0.224524
495 0.358678
500 0.327552
505 0.54148
510 13.3239
515 210.271
520 311.323
525 80.1018
530 9.96572
535 1.9301
540 1.00297
545 0.830349
550 0.913037
555 0.885207
560 0.854499
565 0.730052
570 0.759495
575 0.6735
580 0.502006
585 0.364764
590 0.452194
595 0.33722
600 0.304695
Ex : 528
200 0.125962
205 0.227783
210 0.134496
215 0.179481
220 0.179164
225 0.183817
230 0.149917
235 0.171182
240 0.13799
245 0.110344
250 0.168422
255 0.25638
260 0.1208
265 0.121334
270 0.125226
275 0.126328
280 0.172495
285 0.139948
290 0.138243
295 0.0979967
300 0.152876
305 0.155619
310 0.204712
315 0.24576
320 0.2463
325 0.198641
330 0.178294
335 0.236907
340 0.321788
345 0.219377
350 0.178013
355 0.144335
360 0.167385
365 0.123388
370 0.176642
375 0.12576
380 0.204687
385 0.235153
390 0.138093
395 0.145573
400 0.165179
405 0.143276
410 0.188959
415 0.117401
420 0.276832
425 0.157989
430 0.153956
435 0.180656
440 0.195098
445 0.210326
450 0.229841
455 0.19108
460 0.243295
465 0.196563
470 0.177548
475 0.252161
480 0.260152
485 0.232485
490 0.36511
495 0.274699
500 0.272775
505 0.39014
510 0.531598
515 12.1131
520 199.4
525 298.974
530 76.2217
535 9.62821
540 1.63628
545 0.950431
550 0.811583
555 0.77247
560 0.698886
565 0.831364
570 0.904895
575 0.723671
580 0.526932
585 0.420773
590 0.284135
595 0.465239
600 0.50802
Ex : 533
200 0.197885
205 0.24537
210 0.209638
215 0.216709
220 0.182303
225 0.295582
230 0.163845
235 0.200956
240 0.155875
245 0.210504
250 0.193099
255 0.150672
260 0.216174
265 0.1076
270 0.107157
275 0.107486
280 0.156571
285 0.139393
290 0.143158
295 0.143482
300 0.15813
305 0.144223
310 0.151608
315 0.166882
320 0.167125
325 0.196377
330 0.176505
335 0.11771
340 0.223198
345 0.155407
350 0.140811
355 0.142994
360 0.217564
365 0.230391
370 0.203128
375 0.166849
380 0.14994
385 0.100225
390 0.152288
395 0.218472
400 0.222778
405 0.170689
410 0.143913
415 0.179173
420 0.258252
425 0.227185
430 0.150566
435 0.161435
440 0.157279
445 0.165165
450 0.158691
455 0.197198
460 0.170456
465 0.261789
470 0.153116
475 0.164612
480 0.220507
485 0.175131
490 0.251072
495 0.258319
500 0.311804
505 0.261509
510 0.408769
515 0.520711
520 12.2899
525 196.864
530 298.375
535 78.5955
540 9.76899
545 1.70275
550 0.915845
555 0.795352
560 0.674446
565 0.585765
570 0.565773
575 0.695449
580 0.463469
585 0.427478
590 0.325113
595 0.357123
600 0.1588
Ex : 538
200 0.183754
205 0.156744
210 0.18574
215 0.182996
220 0.166843
225 0.151947
230 0.189234
235 0.163575
240 0.16664
245 0.199127
250 0.176677
255 0.185292
260 0.177014
265 0.204181
270 0.198315
275 0.131132
280 0.17766
285 0.241921
290 0.18082
295 0.24385
300 0.206664
305 0.200953
310 0.15039
315 0.209687
320 0.141835
325 0.175815
330 0.213316
335 0.152874
340 0.226202
345 0.190856
350 0.157703
355 0.235556
360 0.180764
365 0.143836
370 0.195046
375 0.127568
380 0.218331
385 0.146295
390 0.205135
395 0.152277
400 0.151691
405 0.166607
410 0.163214
415 0.127642
420 0.209269
425 0.269798
430 0.246996
435 0.195804
440 0.23213
445 0.180936
450 0.151785
455 0.255636
460 0.201191
465 0.191283
470 0.24411
475 0.16626
480 0.188271
485 0.241696
490 0.170177
495 0.211726
500 0.276808
505 0.278465
510 0.269742
515 0.369442
520 0.485082
525 9.78305
530 180.156
535 293.049
540 80.1898
545 9.90338
550 1.79895
555 0.985907
560 0.773049
565 0.744503
570 0.55523
575 0.578953
580 0.558667
585 0.515513
590 0.354798
595 0.376669
600 0.301129
Ex : 543
200 0.137621
205 0.178144
210 0.176185
215 0.171015
220 0.136944
225 0.152895
230 0.199035
235 0.17279
240 0.158347
245 0.155739
250 0.190141
255 0.144015
260 0.129753
265 0.104814
270 0.250243
275 0.2004
280 0.194895
285 0.108875
290 0.127764
295 0.185111
300 0.132929
305 0.153256
310 0.158251
315 0.117072
320 0.237734
325 0.235177
330 0.157042
335 0.155508
340 0.211748
345 0.164384
350 0.151202
355 0.223012
360 0.178211
365 0.225566
370 0.186921
375 0.144673
380 0.187257
385 0.172898
390 0.176094
395 0.190448
400 0.176721
405 0.194126
410 0.139377
415 0.25638
420 0.173447
425 0.187856
430 0.227615
435 0.218111
440 0.22477
445 0.219147
450 0.169686
455 0.250178
460 0.193979
465 0.262314
470 0.242604
475 0.26407
480 0.169951
485 0.268997
490 0.25013
495 0.209863
500 0.209279
505 0.255085
510 0.237348
515 0.217928
520 0.386891
525 0.5323
530 9.52792
535 173.837
540 290.589
545 79.957
550 9.92566
555 1.73432
560 0.770162
565 0.679152
570 0.590765
575 0.468658
580 0.570937
585 0.521974
590 0.435602
595 0.383288
600 0.820988
Ex : 548
200 0.155962
205 0.173412
210 0.19377
215 0.15893
220 0.160947
225 0.230536
230 0.182343
235 0.228138
240 0.14661
245 0.141908
250 0.206794
255 0.221323
260 0.192224
265 0.234706
270 0.215733
275 0.12103
280 0.15968
285 0.187466
290 0.181854
295 0.186058
300 0.152235
305 0.198339
310 0.16384
315 0.220282
320 0.200162
325 0.135658
330 0.308213
335 0.222184
340 0.184994
345 0.135376
350 0.126133
355 0.165081
360 0.203427
365 0.211291
370 0.253534
375 0.189431
380 0.194994
385 0.144694
390 0.165747
395 0.186886
400 0.195573
405 0.137847
410 0.210692
415 0.276078
420 0.179975
425 0.267847
430 0.289015
435 0.205694
440 0.17803
445 0.225776
450 0.184467
455 0.229374
460 0.217474
465 0.123314
470 0.206808
475 0.241047
480 0.197254
485 0.178858
490 0.296279
495 0.21332
500 0.229797
505 0.298137
510 0.254867
515 0.455998
520 0.446259
525 0.41349
530 0.352408
535 9.67456
540 173.993
545 285.847
550 78.1592
555 9.66268
560 1.65845
565 0.746467
570 0.631774
575 0.460905
580 0.417228
585 0.574081
590 0.427041
595 0.359732
600 0.122489
Ex : 553
200 0.159704
205 0.173849
210 0.151322
215 0.161868
220 0.261513
225 0.32402
230 0.263412
235 0.207902
240 0.151127
245 0.156362
250 0.170042
255 0.119495
260 0.152105
265 0.157694
270 0.15671
275 0.150144
280 0.165582
285 0.123382
290 0.194788
295 0.149706
300 0.226145
305 0.164204
310 0.159778
315 0.190093
320 0.169046
325 0.238607
330 0.213299
335 0.200533
340 0.169644
345 0.172536
350 0.196319
355 0.110868
360 0.220508
365 0.173803
370 0.176827
375 0.183086
380 0.271767
385 0.182817
390 0.251277
395 0.203316
400 0.159171
405 0.133774
410 0.210832
415 0.166012
420 0.204687
425 0.18302
430 0.165648
435 0.216613
440 0.219897
445 0.254804
450 0.225784
455 0.229736
460 0.307089
465 0.24744
470 0.21804
475 0.173701
480 0.235557
485 0.163532
490 0.330207
495 0.182568
500 0.247846
505 0.228153
510 0.273331
515 0.254411
520 0.282979
525 0.340022
530 0.339395
535 0.514851
540 8.51467
545 169.416
550 284.026
555 79.8898
560 9.97829
565 1.75658
570 0.712017
575 0.478157
580 0.486473
585 0.381492
590 0.330608
595 0.334039
600 0.413808
Ex : 558
200 0.147445
205 0.173762
210 0.148061
215 0.206828
220 0.18659
225 0.228336
230 0.187792
235 0.138896
240 0.157397
245 0.190869
250 0.136161
255 0.189145
260 0.13823
265 0.176784
270 0.166745
275 0.157862
280 0.265905
285 0.187915
290 0.191787
295 0.114468
300 0.166917
305 0.170584
310 0.216012
315 0.213884
320 0.216464
325 0.166453
330 0.156602
335 0.190444
340 0.115472
345 0.175795
350 0.232885
355 0.195632
360 0.134347
365 0.219755
370 0.225534
375 0.141915
380 0.206704
385 0.226359
390 0.231738
395 0.145185
400 0.214638
405 0.214355
410 0.202644
415 0.147401
420 0.285378
425 0.33217
430 0.218864
435 0.253348
440 0.190366
445 0.212403
450 0.32267
455 0.247778
460 0.230601
465 0.205909
470 0.191004
475 0.109906
480 0.182978
485 0.15058
490 0.181792
495 0.267051
500 0.280285
505 0.229876
510 0.303414
515 0.27802
520 0.29641
525 0.374788
530 0.263861
535 0.361927
540 0.440202
545 8.49352
550 155.089
555 278.653
560 80.7008
565 9.94264
570 1.68581
575 0.592795
580 0.502834
585 0.437471
590 0.328098
595 0.461814
600 0.231498
Ex : 563
200 0.206788
205 0.246704
210 0.237882
215 0.218731
220 0.24602
225 0.219596
230 0.161545
235 0.189045
240 0.195281
245 0.222529
250 0.238169
255 0.175924
260 0.293524
265 0.21101
270 0.25821
275 0.227471
280 0.20563
285 0.139041
290 0.119264
295 0.130115
300 0.241493
305 0.203959
310 0.174917
315 0.16972
320 0.167084
325 0.12608
330 0.232002
335 0.181522
340 0.270248
345 0.166681
350 0.151947
355 0.266853
360 0.189872
365 0.234997
370 0.198618
375 0.22696
380 0.197214
385 0.264263
390 0.216545
395 0.19708
400 0.220699
405 0.318361
410 0.250592
415 0.17692
420 0.198614
425 0.193934
430 0.148949
435 0.173765
440 0.219893
445 0.157771
450 0.21293
455 0.226702
460 0.17786
465 0.197114
470 0.153323
475 0.21148
480 0.407114
485 0.195346
490 0.189791
495 0.23612
500 0.232256
505 0.230755
510 0.254024
515 0.279586
520 0.170202
525 0.283005
530 0.405802
535 0.368344
540 0.380136
545 0.391545
550 7.9239
555 155.483
560 269.18
565 79.058
570 9.57082
575 1.56469
580 0.513873
585 0.434412
590 0.31388
595 0.290331
600 0.168023
Ex : 568
200 0.199481
205 0.155914
210 0.273345
215 0.235892
220 0.259193
225 0.139205
230 0.180716
235 0.239973
240 0.25422
245 0.239303
250 0.207643
255 0.177286
260 0.133168
265 0.229055
270 0.149274
275 0.161
280 0.208139
285 0.113734
290 0.314524
295 0.173328
300 0.218915
305 0.263739
310 0.123679
315 0.152143
320 0.134666
325 0.356384
330 0.238286
335 0.191964
340 0.199229
345 0.207581
350 0.210466
355 0.141579
360 0.199674
365 0.23951
370 0.184112
375 0.19052
380 0.282337
385 0.206228
390 0.187248
395 0.135187
400 0.15567
405 0.177655
410 0.201667
415 0.158061
420 0.17918
425 0.282706
430 0.241206
435 0.215409
440 0.158449
445 0.218954
450 0.228324
455 0.314312
460 0.264798
465 0.217803
470 0.267608
475 0.313431
480 0.261475
485 0.265343
490 0.245555
495 0.214261
500 0.241048
505 0.171377
510 0.312363
515 0.293949
520 0.202741
525 0.220214
530 0.170547
535 0.230353
540 0.527967
545 0.436356
550 0.466625
555 6.09067
560 138.304
565 254.291
570 76.6538
575 9.50047
580 1.41034
585 0.516162
590 0.500606
595 0.364541
600 0.0414834
Ex : 573
200 0.189825
205 0.180942
210 0.202891
215 0.156917
220 0.207821
225 0.166417
230 0.200758
235 0.194802
240 0.169744
245 0.219938
250 0.148178
255 0.208776
260 0.219255
265 0.132937
270 0.167397
275 0.278696
280 0.178519
285 0.198327
290 0.258325
295 0.191705
300 0.23036
305 0.200833
310 0.238304
315 0.205342
320 0.267452
325 0.27686
330 0.21326
335 0.198611
340 0.201837
345 0.192929
350 0.130962
355 0.119705
360 0.273681
365 0.188424
370 0.252768
375 0.189946
380 0.238941
385 0.292366
390 0.198608
395 0.259635
400 0.204753
405 0.136471
410 0.266264
415 0.263621
420 0.179456
425 0.213314
430 0.305111
435 0.237388
440 0.255472
445 0.232516
450 0.219742
455 0.214556
460 0.177917
465 0.160728
470 0.205694
475 0.264352
480 0.173686
485 0.209295
490 0.291815
495 0.209704
500 0.263289
505 0.211044
510 0.230688
515 0.235304
520 0.290158
525 0.215381
530 0.219483
535 0.18175
540 0.310374
545 0.34436
550 0.287015
555 0.473835
560 5.18591
565 118.624
570 235.64
575 73.3892
580 8.96267
585 1.31388
590 0.566886
595 0.307939
600 0.340845
Ex : 578
200 0.221973
205 0.183334
210 0.228607
215 0.18671
220 0.144767
225 0.166145
230 0.221419
235 0.220017
240 0.218441
245 0.212093
250 0.229458
255 0.26192
260 0.26834
265 0.316512
270 0.243784
275 0.218875
280 0.179721
285 0.25216
290 0.318778
295 0.240443
300 0.143155
305 0.26233
310 0.17042
315 0.197922
320 0.230152
325 0.235469
330 0.209158
335 0.240283
340 0.200531
345 0.117457
350 0.220762
355 0.174134
360 0.250041
365 0.331713
370 0.199395
375 0.233721
380 0.175345
385 0.257226
390 0.168326
395 0.193689
400 0.217486
405 0.239208
410 0.200911
415 0.209045
420 0.263102
425 0.192932
430 0.245134
435 0.203689
440 0.256262
445 0.324001
450 0.220569
455 0.178212
460 0.216616
465 0.256711
470 0.292765
475 0.307317
480 0.250322
485 0.287396
490 0.213647
495 0.229628
500 0.246679
505 0.196211
510 0.234014
515 0.199488
520 0.211222
525 0.243971
530 0.227221
535 0.225532
540 0.183434
545 0.315302
550 0.316344
555 0.282141
560 0.47659
565 4.29241
570 107.177
575 204.608
580 62.799
585 7.61352
590 1.12924
595 0.487799
600 0.376598
Ex : 583
200 0.139059
205 0.174182
210 0.265444
215 0.253864
220 0.180073
225 0.229638
230 0.220892
235 0.174842
240 0.194574
245 0.251753
250 0.20551
255 0.199931
260 0.265692
265 0.202477
270 0.189729
275 0.297779
280 0.159922
285 0.172437
290 0.301352
295 0.240937
300 0.237495
305 0.166811
310 0.238402
315 0.221798
320 0.169266
325 0.180203
330 0.174041
335 0.224988
340 0.22931
345 0.295291
350 0.236055
355 0.167903
360 0.299352
365 0.255221
370 0.222371
375 0.245436
380 0.16717
385 0.290155
390 0.169662
395 0.219702
400 0.159227
405 0.376049
410 0.219843
415 0.414928
420 0.209738
425 0.329215
430 0.228053
435 0.235533
440 0.189796
445 0.254569
450 0.244558
455 0.221247
460 0.334881
465 0.181898
470 0.208629
475 0.296261
480 0.175015
485 0.222414
490 0.177505
495 0.261172
500 0.208351
505 0.271922
510 0.247106
515 0.246511
520 0.30039
525 0.306594
530 0.29332
535 0.191641
540 0.18804
545 0.27245
550 0.250302
555 0.277118
560 0.382081
565 0.477107
570 3.73813
575 95.7845
580 181.432
585 53.0737
590 6.67188
595 1.02063
600 0.116144
Ex : 588
200 0.277192
205 0.177207
210 0.269272
215 0.20605
220 0.187409
225 0.208566
230 0.255698
235 0.176199
240 0.242295
245 0.211218
250 0.199907
255 0.154875
260 0.127113
265 0.185561
270 0.224598
275 0.284457
280 0.157575
285 0.248462
290 0.232909
295 0.186057
300 0.18704
305 0.244375
310 0.181275
315 0.232671
320 0.2969
325 0.269543
330 0.206105
335 0.199362
340 0.274956
345 0.197238
350 0.182148
355 0.175594
360 0.161065
365 0.190491
370 0.152458
375 0.212871
380 0.20784
385 0.163124
390 0.205812
395 0.214732
400 0.210525
405 0.263037
410 0.305934
415 0.215001
420 0.199192
425 0.288284
430 0.269323
435 0.227055
440 0.230936
445 0.25784
450 0.205567
455 0.320795
460 0.2829
465 0.261287
470 0.317398
475 0.295682
480 0.306301
485 0.23444
490 0.234004
495 0.245944
500 0.214128
505 0.193666
510 0.33056
515 0.267899
520 0.275982
525 0.302186
530 0.246202
535 0.228658
540 0.288038
545 0.290015
550 0.426109
555 0.299262
560 0.204097
565 0.379573
570 0.319939
575 3.30169
580 80.0345
585 153.877
590 45.6055
595 5.64386
600 1.20557
Ex : 593
200 0.140562
205 0.185056
210 0.177018
215 0.204357
220 0.274131
225 0.290119
230 0.250317
235 0.210582
240 0.241254
245 0.16074
250 0.218019
255 0.157757
260 0.213805
265 0.169076
270 0.13432
275 0.202194
280 0.204301
285 0.22207
290 0.161374
295 0.175202
300 0.171756
305 0.181356
310 0.293118
315 0.160443
320 0.210526
325 0.169242
330 0.273075
335 0.256159
340 0.194239
345 0.265532
350 0.269611
355 0.232153
360 0.215833
365 0.217843
370 0.14409
375 0.320433
380 0.188004
385 0.325787
390 0.258667
395 0.202415
400 0.208769
405 0.176116
410 0.305305
415 0.280721
420 0.247651
425 0.206243
430 0.34134
435 0.243678
440 0.287573
445 0.150052
450 0.271491
455 0.194614
460 0.271007
465 0.215841
470 0.162601
475 0.232715
480 0.21892
485 0.226431
490 0.348254
495 0.215849
500 0.260669
505 0.258603
510 0.179231
515 0.239532
520 0.287826
525 0.222362
530 0.255371
535 0.304647
540 0.225584
545 0.233839
550 0.220542
555 0.23251
560 0.262507
565 0.138881
570 0.336721
575 0.34774
580 3.07025
585 70.3818
590 129.914
595 39.7025
600 5.33387
Ex : 598
200 0.146341
205 0.296976
210 0.232608
215 0.233948
220 0.233623
225 0.150412
230 0.249333
235 0.216048
240 0.216134
245 0.222244
250 0.220556
255 0.160782
260 0.17164
265 0.301829
270 0.204853
275 0.213722
280 0.267902
285 0.196049
290 0.110427
295 0.14487
300 0.315876
305 0.212087
310 0.186332
315 0.169054
320 0.222649
325 0.20665
330 0.269923
335 0.179631
340 0.203255
345 0.220024
350 0.273239
355 0.206381
360 0.21378
365 0.161105
370 0.191639
375 0.225214
380 0.255956
385 0.270689
390 0.289495
395 0.233002
400 0.3697
405 0.264157
410 0.280316
415 0.272943
420 0.263258
425 0.245362
430 0.341576
435 0.234172
440 0.212491
445 0.131955
450 0.266943
455 0.2262
460 0.19739
465 0.287121
470 0.266768
475 0.22986
480 0.245474
485 0.227081
490 0.306032
495 0.357826
500 0.228073
505 0.181222
510 0.226155
515 0.225461
520 0.328149
525 0.386901
530 0.262126
535 0.188923
540 0.264907
545 0.220929
550 0.282501
555 0.225715
560 0.211145
565 0.461317
570 0.340141
575 0.33012
580 0.302626
585 2.77701
590 62.1269
595 113.328
600 67.6212
Ex : 603
200 0.186352
205 0.170617
210 0.277091
215 0.341973
220 0.331081
225 0.25385
230 0.243122
235 0.206511
240 0.251238
245 0.21029
250 0.264335
255 0.184478
260 0.169626
265 0.204705
270 0.18512
275 0.20831
280 0.26329
285 0.214851
290 0.216086
295 0.288136
300 0.216764
305 0.311177
310 0.208242
315 0.217601
320 0.27648
325 0.370278
330 0.246098
335 0.270972
340 0.2252
345 0.205363
350 0.179464
355 0.190117
360 0.254758
365 0.26658
370 0.290808
375 0.232974
380 0.227669
385 0.28967
390 0.231142
395 0.316908
400 0.224316
405 0.289057
410 0.354453
415 0.178368
420 0.204598
425 0.278317
430 0.401565
435 0.272667
440 0.174904
445 0.159025
450 0.22667
455 0.247993
460 0.30595
465 0.184132
470 0.298847
475 0.249933
480 0.269022
485 0.268335
490 0.284136
495 0.343335
500 0.216125
505 0.267048
510 0.253934
515 0.255795
520 0.259813
525 0.250838
530 0.23565
535 0.342545
540 0.421414
545 0.340798
550 0.371596
555 0.358402
560 0.280309
565 0.398514
570 0.228072
575 0.298517
580 0.353786
585 0.43857
590 2.57882
595 53.1686
600 120.728
