File format V 1.0
ven. 13. janv. 15:19:55 2017
Operator : 
Comments : 

=============================================
SpectroFluorometer parameters
Mode : 3D measurement
Data : Fluorescence
Phospho. : Ordinary
Spectrum : Fluorescence

Scan speed : 2400 nm/mn
Response : 100 ms
PM Voltage : 700 V
Shutter : On

Lambda Ex. Start : 203
Lambda Ex. End : 603
Lambda Ex. Step : 5
Ex. Slit : 5 nm

Lambda Em. Start : 200
Lambda Em. End : 600
Lambda Em. Step : 5
Em. Slit : 5 nm

Repetition : 1
Decal lambda em : 10
=============================================
DATA
Ex : 203
200 4.88288
205 4.87372
210 3.51404
215 5.98947
220 5.76447
225 6.74071
230 3.82962
235 9.49871
240 7.83567
245 9.45687
250 6.74287
255 5.28001
260 9.2597
265 6.06766
270 4.8677
275 5.66073
280 10.1764
285 7.09192
290 6.08646
295 5.03585
300 3.92233
305 4.67712
310 5.94169
315 5.02973
320 5.93535
325 8.36145
330 8.20729
335 7.71699
340 7.72139
345 8.06722
350 7.06957
355 4.97171
360 9.41502
365 5.37705
370 5.15972
375 5.16588
380 8.66125
385 6.05453
390 5.21511
395 6.65409
400 4.28972
405 5.56879
410 8.42545
415 5.70307
420 8.47712
425 6.03943
430 5.30878
435 5.42026
440 5.53342
445 7.48701
450 5.09687
455 5.66036
460 7.42551
465 5.57003
470 7.17328
475 6.17928
480 8.69558
485 6.25611
490 6.66785
495 6.25893
500 5.45947
505 6.79515
510 11.6794
515 7.77683
520 9.37027
525 8.83703
530 6.73474
535 8.00651
540 5.20153
545 4.95993
550 3.6203
555 6.95199
560 5.00679
565 4.95372
570 8.43922
575 4.15462
580 6.59123
585 8.64846
590 5.09024
595 9.10573
600 1.0362
Ex : 208
200 4.66822
205 4.92957
210 5.42913
215 6.01372
220 6.30658
225 6.56499
230 2.31667
235 5.46212
240 6.20982
245 5.40972
250 7.76798
255 6.61338
260 5.22122
265 5.88699
270 5.42803
275 4.52791
280 4.92445
285 5.00836
290 6.45718
295 10.406
300 7.07201
305 5.22784
310 6.28966
315 6.79486
320 5.66556
325 6.46144
330 5.46851
335 7.83388
340 5.27756
345 6.28603
350 9.72438
355 9.36843
360 6.82216
365 7.56646
370 4.84118
375 8.11346
380 5.88774
385 5.46689
390 8.39276
395 7.08999
400 9.86079
405 6.26044
410 7.17214
415 9.67428
420 6.15723
425 5.45356
430 8.15333
435 4.42898
440 7.2953
445 10.2239
450 10.6106
455 5.86499
460 6.41053
465 5.73302
470 6.29225
475 7.8294
480 7.01533
485 4.13389
490 7.50208
495 7.78671
500 5.08002
505 6.33245
510 7.58579
515 7.34992
520 6.31474
525 11.0191
530 7.93671
535 7.38256
540 9.26944
545 6.58305
550 6.63772
555 5.66254
560 9.68034
565 6.30286
570 8.04896
575 8.41941
580 6.32572
585 5.9869
590 5.71525
595 5.81096
600 0.661266
Ex : 213
200 5.75909
205 7.63721
210 6.03582
215 8.26837
220 5.91728
225 5.88896
230 9.45084
235 7.12108
240 5.51145
245 5.68151
250 7.09015
255 7.04177
260 6.22827
265 4.83766
270 6.09124
275 8.87225
280 5.76611
285 6.50853
290 7.09042
295 8.77835
300 4.90236
305 7.56955
310 10.0202
315 6.69917
320 7.58894
325 10.5714
330 8.05575
335 5.93853
340 5.87402
345 8.37755
350 8.13075
355 5.97989
360 8.5975
365 8.63533
370 5.87735
375 6.66373
380 4.51236
385 6.78052
390 4.65023
395 5.03304
400 6.62778
405 7.48767
410 7.07989
415 8.47112
420 6.64707
425 8.88787
430 7.69202
435 8.39527
440 5.39414
445 5.62745
450 6.92
455 7.35946
460 6.83189
465 8.25828
470 6.34725
475 6.50487
480 7.04698
485 7.95843
490 7.60051
495 11.0894
500 6.16799
505 7.1979
510 6.73811
515 8.23324
520 5.91329
525 4.70779
530 7.42449
535 5.24246
540 5.51681
545 6.63669
550 7.53857
555 7.43546
560 9.11461
565 5.54654
570 7.2009
575 7.67607
580 3.98093
585 3.57245
590 5.91053
595 6.07802
600 2.24251
Ex : 218
200 7.02752
205 8.37236
210 5.91047
215 4.46444
220 6.58781
225 7.08258
230 4.85946
235 4.8084
240 4.47545
245 9.45737
250 5.58891
255 6.63709
260 6.94237
265 7.85834
270 6.03662
275 6.55409
280 6.11493
285 5.52749
290 7.60837
295 9.30262
300 5.80641
305 5.73592
310 6.0652
315 3.96659
320 5.0934
325 6.85582
330 6.60379
335 8.10527
340 9.10391
345 5.53381
350 5.80268
355 5.52859
360 5.70324
365 5.21147
370 7.7843
375 5.99885
380 3.94388
385 6.93796
390 3.73046
395 5.31306
400 7.83089
405 5.59482
410 6.30067
415 5.93259
420 6.04796
425 5.98485
430 7.22091
435 6.80159
440 9.63173
445 7.14138
450 9.91711
455 7.64997
460 6.41032
465 5.50225
470 6.50393
475 6.34335
480 7.46776
485 12.3304
490 8.12114
495 7.25182
500 5.20241
505 6.38354
510 4.97087
515 8.67551
520 4.44127
525 5.07614
530 5.33495
535 6.1601
540 7.16986
545 8.15101
550 6.07156
555 3.85116
560 6.31034
565 4.21125
570 4.16251
575 10.8495
580 7.62652
585 6.95956
590 6.45493
595 7.22669
600 15.4447
Ex : 223
200 4.92887
205 7.16493
210 4.49467
215 3.92374
220 6.7202
225 6.46559
230 7.42758
235 7.06776
240 5.65655
245 4.116
250 6.07974
255 6.0294
260 7.65365
265 8.47217
270 5.53178
275 4.90655
280 5.35404
285 4.83888
290 5.83063
295 6.97094
300 4.45857
305 5.28078
310 8.22622
315 6.27773
320 5.19352
325 5.52957
330 4.55562
335 4.62334
340 4.7629
345 4.71819
350 4.77273
355 6.39206
360 4.88172
365 5.01387
370 8.93573
375 6.2815
380 3.80888
385 7.44722
390 5.94797
395 6.76646
400 9.43027
405 7.13492
410 6.31851
415 7.47386
420 5.10878
425 6.13625
430 5.86071
435 9.35013
440 6.7781
445 7.60554
450 6.05795
455 8.04298
460 8.04066
465 5.98761
470 6.91224
475 5.64851
480 8.28531
485 4.98565
490 6.23745
495 7.14388
500 4.47353
505 4.2785
510 6.0846
515 6.42108
520 4.16675
525 5.90873
530 6.07233
535 10.2197
540 6.95231
545 5.71536
550 6.01286
555 4.60198
560 6.15301
565 8.39703
570 6.43354
575 4.55458
580 5.3319
585 5.13716
590 5.81041
595 3.60723
600 30.5414
Ex : 228
200 6.05042
205 6.69545
210 3.59614
215 4.30475
220 5.26085
225 4.07701
230 6.67859
235 5.83908
240 5.06828
245 4.50652
250 6.24685
255 4.89152
260 8.14569
265 5.66503
270 5.39963
275 6.58386
280 9.27594
285 6.03282
290 6.71433
295 5.26987
300 5.42758
305 6.4956
310 7.40843
315 6.44468
320 6.82797
325 5.50736
330 7.2639
335 6.85641
340 6.02039
345 5.45665
350 5.31745
355 6.32341
360 5.16236
365 3.47773
370 4.02214
375 4.25095
380 7.7393
385 3.97685
390 5.74614
395 5.16213
400 5.88143
405 6.83105
410 5.48249
415 6.53787
420 4.23935
425 6.67449
430 7.24159
435 4.98886
440 5.41154
445 5.64502
450 5.56304
455 4.64023
460 5.21559
465 5.08753
470 5.04658
475 5.46801
480 7.07552
485 4.50212
490 8.08501
495 8.58201
500 6.70048
505 5.50466
510 7.09973
515 8.78764
520 7.08527
525 7.8882
530 5.72042
535 6.34403
540 4.29017
545 4.6135
550 8.50851
555 4.76783
560 5.75796
565 7.45694
570 7.76889
575 6.18973
580 6.35629
585 9.08
590 6.47926
595 7.0768
600 11.4398
Ex : 233
200 3.39516
205 5.47747
210 6.49012
215 5.73674
220 3.37601
225 4.89507
230 3.89001
235 4.4692
240 5.14811
245 7.31729
250 6.3555
255 6.71514
260 5.74575
265 5.14816
270 7.06621
275 4.51594
280 6.62906
285 3.94614
290 4.66032
295 6.11192
300 4.36117
305 4.8699
310 6.62631
315 6.33319
320 4.44421
325 5.52261
330 5.58903
335 7.52457
340 6.54789
345 4.28994
350 6.44107
355 7.11223
360 6.23875
365 5.25344
370 3.8254
375 5.17868
380 5.52928
385 6.36095
390 6.58116
395 4.3533
400 5.18808
405 7.996
410 6.69566
415 6.9216
420 6.4363
425 6.54241
430 4.70192
435 5.66086
440 6.11992
445 6.80414
450 5.01566
455 8.52117
460 4.07316
465 5.67848
470 7.76488
475 11.8331
480 6.38297
485 6.90404
490 4.70246
495 4.30863
500 5.81419
505 4.77462
510 7.51753
515 5.11686
520 7.72487
525 4.65443
530 7.42194
535 6.88689
540 6.68936
545 4.2448
550 4.24214
555 6.28737
560 4.8908
565 7.42367
570 5.12988
575 4.99698
580 3.03971
585 4.84428
590 7.43695
595 6.4265
600 0.731311
Ex : 238
200 3.58423
205 6.29757
210 6.71428
215 6.66045
220 4.68751
225 4.51974
230 4.63534
235 4.38526
240 6.24782
245 4.86447
250 4.14088
255 8.19981
260 5.4733
265 3.28145
270 4.17761
275 4.13978
280 4.62994
285 4.52961
290 5.09753
295 5.84611
300 5.19367
305 6.23107
310 5.34031
315 3.94381
320 4.15856
325 4.88777
330 4.60558
335 5.32878
340 5.92362
345 4.84299
350 5.75956
355 4.39679
360 7.94445
365 7.88616
370 5.41431
375 7.54165
380 5.423
385 5.19919
390 6.96063
395 5.67878
400 4.02868
405 5.99141
410 5.22695
415 5.81394
420 5.39379
425 5.04823
430 5.21805
435 5.48124
440 6.68675
445 7.36841
450 5.62913
455 6.83037
460 5.50369
465 5.69882
470 7.13267
475 4.32279
480 5.13797
485 4.92225
490 5.48423
495 4.52403
500 4.6068
505 4.97832
510 4.58143
515 4.2853
520 5.77576
525 5.36297
530 3.64635
535 4.46051
540 4.90068
545 4.65187
550 2.91434
555 4.24853
560 5.13351
565 5.81911
570 4.04828
575 4.17902
580 5.00468
585 5.58047
590 5.7422
595 4.42958
600 2.8082
Ex : 243
200 3.43607
205 4.1182
210 2.85791
215 3.34358
220 2.69024
225 3.94192
230 3.92968
235 5.87666
240 4.63458
245 4.94958
250 5.73524
255 5.0326
260 5.07276
265 3.52473
270 4.61562
275 6.27505
280 4.05942
285 3.28221
290 3.901
295 3.76004
300 3.72281
305 3.35184
310 3.76406
315 3.22104
320 5.21999
325 4.04449
330 4.52275
335 6.93892
340 3.92889
345 6.88234
350 5.77517
355 3.26657
360 4.33428
365 4.03804
370 4.58229
375 4.47458
380 4.487
385 4.28698
390 6.91354
395 5.79584
400 6.36246
405 4.38719
410 4.90186
415 3.80528
420 4.38823
425 4.95378
430 4.66015
435 4.85874
440 6.13344
445 5.13186
450 4.60488
455 4.11651
460 5.17149
465 3.67713
470 4.31891
475 5.98361
480 3.74533
485 5.63155
490 3.71834
495 3.44632
500 4.23239
505 3.43755
510 4.68181
515 3.73247
520 4.76598
525 3.68247
530 4.18258
535 3.92859
540 3.86155
545 3.31816
550 6.01235
555 6.07046
560 4.59126
565 4.63657
570 3.43583
575 6.06925
580 4.24694
585 3.07216
590 3.51011
595 4.60382
600 0.523897
Ex : 248
200 4.58892
205 5.26915
210 3.78741
215 4.44811
220 3.75734
225 2.85257
230 5.07337
235 4.85074
240 3.30705
245 4.83512
250 3.6339
255 3.64093
260 3.02413
265 5.19943
270 3.62192
275 4.18039
280 4.09049
285 5.21143
290 3.79568
295 3.48859
300 3.63409
305 4.36622
310 4.15561
315 3.17156
320 5.3065
325 3.86289
330 4.89406
335 5.36398
340 5.89597
345 5.1898
350 5.47805
355 4.48415
360 4.56447
365 4.50606
370 3.36072
375 4.41673
380 4.6765
385 3.19592
390 4.58648
395 2.88094
400 3.22997
405 3.86467
410 5.495
415 3.40982
420 4.09044
425 3.43838
430 4.29556
435 3.21427
440 4.39103
445 3.71964
450 3.8091
455 3.35897
460 3.51016
465 4.00627
470 3.72958
475 4.33723
480 4.37304
485 3.99891
490 5.83119
495 5.1276
500 4.40817
505 4.3538
510 3.69424
515 3.16687
520 4.67746
525 4.22937
530 4.97088
535 5.18519
540 3.80877
545 3.39728
550 3.43403
555 3.11513
560 4.75605
565 4.20963
570 3.24279
575 4.30203
580 4.05735
585 3.92643
590 4.85686
595 3.34977
600 8.35703
Ex : 253
200 2.77458
205 4.43161
210 2.95364
215 2.8548
220 3.65837
225 2.59095
230 2.32803
235 3.9009
240 3.31606
245 3.09083
250 2.2839
255 3.83896
260 3.90443
265 2.98334
270 3.19855
275 4.2942
280 4.1552
285 4.57476
290 3.07269
295 3.69366
300 2.86173
305 4.11799
310 2.79569
315 2.46191
320 4.65237
325 3.23331
330 2.9698
335 4.33995
340 3.4099
345 5.48896
350 4.1738
355 4.0986
360 3.84559
365 3.20223
370 2.78781
375 3.42003
380 4.3091
385 3.79178
390 3.14989
395 3.39748
400 5.13103
405 3.48134
410 2.71524
415 3.94984
420 4.12487
425 4.71127
430 3.28421
435 2.97092
440 3.98326
445 3.58118
450 3.03009
455 3.3718
460 4.13982
465 4.3936
470 4.05339
475 3.47222
480 3.62029
485 3.14927
490 2.48228
495 2.80655
500 4.29072
505 3.20481
510 3.01255
515 3.27276
520 2.59548
525 4.15166
530 2.69742
535 2.15973
540 3.17475
545 5.28204
550 3.99112
555 4.71402
560 3.69751
565 3.89173
570 2.57449
575 2.84833
580 4.12491
585 2.96954
590 3.09015
595 3.61262
600 0.411102
Ex : 258
200 3.03482
205 2.26805
210 2.84854
215 2.06014
220 2.78951
225 3.14917
230 2.73675
235 2.29484
240 2.4673
245 2.563
250 2.75218
255 1.92431
260 1.64005
265 2.02734
270 2.66118
275 1.79195
280 2.06039
285 2.42055
290 2.5971
295 2.97345
300 2.05637
305 2.84213
310 2.14468
315 3.31824
320 2.79199
325 3.6246
330 2.81813
335 2.45428
340 2.74156
345 2.27918
350 4.31771
355 2.4141
360 2.32395
365 3.17652
370 3.62698
375 4.00755
380 3.34152
385 3.51036
390 3.41363
395 2.91794
400 3.2495
405 3.14772
410 2.41546
415 2.64495
420 2.9596
425 3.1672
430 3.37732
435 3.05698
440 3.79206
445 3.24901
450 3.74432
455 3.70624
460 3.87419
465 3.86321
470 3.03259
475 4.06371
480 3.50357
485 2.15915
490 2.74255
495 2.70307
500 2.9487
505 2.51158
510 3.97213
515 3.33608
520 2.96833
525 2.56651
530 4.08255
535 3.46079
540 2.77638
545 2.38317
550 2.80122
555 2.90024
560 2.58943
565 2.27386
570 3.35787
575 2.07597
580 2.41519
585 2.06979
590 3.14415
595 2.17503
600 3.57077
Ex : 263
200 1.50467
205 1.63931
210 2.88593
215 2.95256
220 1.96093
225 1.72596
230 1.9435
235 2.16474
240 1.63077
245 2.55383
250 1.72315
255 1.76883
260 1.27147
265 2.6112
270 1.73302
275 2.03757
280 1.58294
285 1.96747
290 2.63562
295 1.73213
300 2.75105
305 2.2298
310 2.07893
315 2.30671
320 2.09968
325 2.42944
330 1.33822
335 2.79041
340 1.6223
345 1.36714
350 1.87094
355 1.8822
360 2.62078
365 2.88518
370 1.79748
375 2.03454
380 2.58685
385 2.24657
390 3.43258
395 2.5043
400 1.76879
405 1.95841
410 1.91671
415 2.38812
420 2.57069
425 2.08995
430 3.94054
435 2.56016
440 2.98595
445 2.79674
450 2.81788
455 1.72593
460 2.29427
465 3.72682
470 2.85941
475 2.24821
480 3.38197
485 3.56758
490 2.53481
495 2.05118
500 2.47335
505 2.42816
510 2.57904
515 2.3916
520 3.28299
525 2.48631
530 2.54845
535 2.50761
540 1.896
545 2.15475
550 1.82761
555 2.85109
560 2.33223
565 2.55464
570 1.95595
575 1.76679
580 2.522
585 2.16754
590 2.56614
595 1.49058
600 0.169623
Ex : 268
200 2.27694
205 1.59386
210 1.21307
215 1.83325
220 1.4302
225 1.49484
230 2.28012
235 0.972405
240 1.69103
245 1.50243
250 1.96548
255 2.3345
260 1.42319
265 1.91383
270 1.60848
275 2.66265
280 1.54368
285 2.21625
290 2.03443
295 1.5791
300 2.47429
305 2.11929
310 2.05487
315 1.75146
320 2.49811
325 1.20252
330 1.85054
335 1.22006
340 1.44604
345 2.13092
350 1.95611
355 2.0965
360 1.55908
365 2.54099
370 3.34361
375 1.68172
380 2.4169
385 1.99013
390 2.10474
395 2.20898
400 1.98953
405 2.34515
410 2.56497
415 2.08426
420 2.27859
425 1.7206
430 1.25139
435 1.7684
440 1.97365
445 1.81759
450 2.01937
455 1.44244
460 1.7883
465 1.53281
470 2.09454
475 1.91086
480 1.95809
485 1.55939
490 1.96545
495 1.52394
500 2.57775
505 2.19313
510 1.75279
515 1.48297
520 1.86805
525 1.61682
530 2.18185
535 2.26892
540 1.3902
545 2.04456
550 2.13497
555 1.74928
560 2.23931
565 2.30438
570 2.26192
575 1.62865
580 1.57003
585 1.10743
590 1.67219
595 2.02244
600 1.02307
Ex : 273
200 1.5103
205 1.24695
210 1.92142
215 1.80553
220 1.12139
225 1.43698
230 1.30586
235 1.40145
240 1.46663
245 1.2139
250 1.41901
255 1.14177
260 0.949824
265 1.0722
270 1.48575
275 2.17216
280 1.48377
285 1.22015
290 1.37406
295 1.39503
300 1.07883
305 1.6312
310 1.4917
315 1.49362
320 1.63108
325 1.9328
330 2.39737
335 1.85385
340 1.3463
345 1.46573
350 1.39022
355 1.37852
360 1.45921
365 1.83091
370 1.89729
375 1.29914
380 1.88313
385 2.44218
390 1.36226
395 2.05992
400 1.93304
405 2.36504
410 1.67993
415 1.47194
420 1.42548
425 1.97437
430 1.40688
435 2.0748
440 2.14919
445 2.20453
450 1.84531
455 1.64848
460 1.9164
465 2.04438
470 2.38847
475 1.87664
480 1.68133
485 2.06926
490 1.27233
495 1.62448
500 1.26224
505 1.3555
510 1.01444
515 1.67197
520 1.71278
525 1.41063
530 1.49163
535 1.32225
540 2.25933
545 1.84191
550 1.98291
555 1.51915
560 1.62392
565 1.11358
570 0.874932
575 1.51677
580 1.76419
585 1.08065
590 1.09807
595 1.98036
600 0.225358
Ex : 278
200 0.918585
205 1.16164
210 1.01172
215 1.09784
220 0.972252
225 1.03729
230 1.10937
235 0.835947
240 0.967949
245 1.52793
250 1.09114
255 0.717418
260 0.847065
265 1.27183
270 1.50727
275 0.884644
280 1.13607
285 0.93329
290 1.36779
295 1.11263
300 0.91683
305 1.07224
310 0.764278
315 0.900117
320 0.75562
325 1.4637
330 1.05127
335 1.28794
340 1.43612
345 1.54106
350 1.48151
355 0.95294
360 1.3401
365 1.04531
370 1.31046
375 1.809
380 1.51459
385 1.89007
390 1.54183
395 1.31307
400 1.54089
405 1.1891
410 1.7826
415 1.58156
420 1.36626
425 2.20312
430 2.32596
435 1.558
440 1.58673
445 1.73361
450 1.46882
455 1.3955
460 1.40007
465 1.53663
470 1.44576
475 1.09167
480 1.77985
485 1.22821
490 1.54237
495 1.46168
500 1.67435
505 1.37849
510 1.52473
515 1.58446
520 1.26565
525 1.32019
530 1.06598
535 1.20925
540 1.27087
545 1.46359
550 1.85351
555 1.9242
560 1.39119
565 1.63556
570 1.41568
575 1.22918
580 1.28957
585 1.25302
590 1.04049
595 1.63301
600 1.9287
Ex : 283
200 1.03157
205 1.05392
210 1.01103
215 1.20392
220 1.26763
225 0.877345
230 0.606944
235 0.620484
240 1.06191
245 0.939537
250 1.08715
255 0.853165
260 0.688094
265 0.867262
270 1.009
275 0.883229
280 1.08381
285 0.951487
290 1.34398
295 1.01447
300 1.04534
305 0.971545
310 0.595742
315 0.74982
320 0.740722
325 0.875283
330 1.32755
335 1.09979
340 0.850562
345 0.75173
350 0.932633
355 1.01924
360 1.58473
365 1.08689
370 1.30692
375 1.12373
380 1.47478
385 1.30573
390 1.38072
395 1.29557
400 1.45999
405 1.93183
410 1.52293
415 0.989097
420 1.06679
425 1.21461
430 1.59474
435 1.55683
440 1.27306
445 1.14216
450 1.116
455 1.37377
460 1.28266
465 1.17997
470 0.907848
475 1.48042
480 1.28836
485 1.15212
490 1.14567
495 1.20486
500 0.731619
505 1.15239
510 0.777844
515 1.04878
520 1.48754
525 0.948418
530 1.50691
535 1.00096
540 1.16669
545 1.49145
550 1.20485
555 1.40015
560 1.46483
565 1.49569
570 0.936517
575 0.978641
580 1.33889
585 0.914422
590 0.874643
595 0.870627
600 0.0990741
Ex : 288
200 0.722892
205 0.646257
210 0.72734
215 0.790077
220 0.631647
225 0.591324
230 0.922436
235 0.904502
240 0.651482
245 0.762664
250 1.00417
255 0.63058
260 0.629109
265 0.643866
270 0.627855
275 1.11757
280 0.952137
285 1.40009
290 1.06859
295 0.978282
300 0.888228
305 0.727665
310 0.770705
315 1.03004
320 0.780332
325 1.09641
330 0.954196
335 0.708932
340 0.887201
345 0.729696
350 0.839938
355 0.988982
360 1.20488
365 0.952377
370 0.94098
375 1.3329
380 0.901225
385 1.11359
390 1.23422
395 1.30694
400 0.864465
405 1.77788
410 1.67626
415 1.26137
420 1.05456
425 1.00826
430 1.37719
435 1.31041
440 0.935333
445 1.35102
450 0.928782
455 1.15584
460 1.32376
465 1.05406
470 0.823293
475 1.17933
480 0.823814
485 0.770587
490 0.859166
495 1.1433
500 0.802448
505 1.10748
510 0.706432
515 0.79852
520 0.751827
525 0.831778
530 0.983983
535 0.994096
540 0.973656
545 0.662741
550 0.977132
555 0.779912
560 0.90596
565 1.04453
570 1.33211
575 0.92553
580 0.825362
585 1.03053
590 0.841089
595 0.734067
600 0.460171
Ex : 293
200 0.85022
205 0.59861
210 0.635413
215 0.773302
220 0.846529
225 0.853858
230 0.626051
235 0.454489
240 0.615949
245 0.62397
250 0.612061
255 0.726179
260 0.455613
265 1.07395
270 0.929651
275 0.697177
280 0.661334
285 0.658366
290 0.984791
295 0.985942
300 0.624774
305 0.658404
310 0.606821
315 0.816926
320 0.864207
325 0.791282
330 0.693895
335 0.563027
340 1.16365
345 0.826975
350 0.918738
355 1.21132
360 0.695808
365 1.06302
370 1.08044
375 1.01179
380 1.1489
385 1.11271
390 1.13016
395 1.3111
400 0.945458
405 0.806505
410 1.38811
415 1.14283
420 1.07372
425 1.07663
430 1.18596
435 1.07321
440 0.797164
445 0.733552
450 1.1863
455 1.07873
460 0.889025
465 0.9563
470 0.988854
475 1.10289
480 0.962353
485 0.850701
490 0.734575
495 0.753168
500 0.550537
505 0.918294
510 0.688658
515 0.566719
520 0.694533
525 0.623612
530 0.686323
535 0.73879
540 0.710845
545 0.64296
550 1.12859
555 0.663421
560 0.664544
565 0.923258
570 0.895769
575 0.71131
580 1.15478
585 1.02509
590 0.89285
595 0.843165
600 0.493836
Ex : 298
200 0.702656
205 0.539487
210 0.530311
215 0.618286
220 0.823536
225 0.675096
230 0.515511
235 0.441273
240 0.511056
245 0.553913
250 0.609856
255 0.701695
260 0.769586
265 0.547356
270 0.642341
275 0.496238
280 0.320843
285 0.442435
290 0.531846
295 0.578364
300 0.787428
305 0.48878
310 0.650731
315 0.537492
320 0.799858
325 0.768974
330 0.747355
335 0.727393
340 0.605015
345 0.53481
350 0.675908
355 0.899052
360 0.827659
365 0.679385
370 0.924027
375 0.558654
380 0.963152
385 0.659356
390 0.828496
395 1.38112
400 1.35413
405 1.27588
410 1.08548
415 1.25183
420 1.06719
425 0.80466
430 1.14797
435 1.24058
440 1.07629
445 1.1317
450 1.05259
455 1.34421
460 0.788754
465 0.911848
470 1.09287
475 0.923558
480 0.850392
485 0.878359
490 1.14102
495 0.792398
500 0.565073
505 0.676576
510 0.615894
515 0.569967
520 0.938787
525 0.915707
530 1.00581
535 0.731839
540 0.694233
545 0.692967
550 0.966212
555 0.680875
560 0.621896
565 0.612465
570 0.887818
575 0.756316
580 0.577896
585 0.825746
590 1.03061
595 1.01193
600 1.82192
Ex : 303
200 0.538261
205 0.487043
210 0.69751
215 0.560427
220 0.39159
225 0.486834
230 0.502038
235 0.417181
240 0.794659
245 0.763368
250 0.421598
255 0.498386
260 0.512069
265 0.407472
270 0.434375
275 0.804767
280 0.46303
285 0.423839
290 0.564257
295 0.609955
300 0.677325
305 0.551364
310 0.440355
315 0.491375
320 0.440803
325 0.507514
330 0.363421
335 0.798267
340 0.45312
345 0.787116
350 0.623497
355 0.693851
360 0.588683
365 0.850546
370 0.624853
375 0.721749
380 1.02706
385 0.887574
390 0.987206
395 0.791099
400 1.27241
405 0.810527
410 1.15191
415 1.0249
420 1.14358
425 1.07116
430 0.969465
435 1.11319
440 0.847651
445 0.72994
450 0.870429
455 0.943134
460 0.748444
465 0.899922
470 1.04987
475 0.90942
480 1.38278
485 0.864394
490 0.689167
495 0.464855
500 0.615789
505 0.694021
510 0.592829
515 0.715798
520 0.57696
525 0.687884
530 0.573975
535 0.797965
540 0.464626
545 0.462883
550 0.569682
555 0.610597
560 0.544545
565 0.545171
570 0.383688
575 0.409434
580 0.370196
585 0.455488
590 0.803853
595 0.815496
600 0.627336
Ex : 308
200 0.545811
205 0.398258
210 0.662013
215 0.485858
220 0.373631
225 0.299585
230 0.326639
235 0.272536
240 0.405631
245 0.36599
250 0.448081
255 0.511129
260 0.346297
265 0.34021
270 0.30648
275 0.321606
280 0.422846
285 0.322105
290 0.461775
295 0.354272
300 0.558291
305 0.761169
310 0.450422
315 0.679883
320 0.505261
325 0.497535
330 0.54024
335 0.628566
340 0.513457
345 0.605174
350 0.600356
355 0.608025
360 0.81727
365 0.869455
370 0.865775
375 0.76694
380 0.750688
385 0.927841
390 0.875993
395 0.960686
400 0.896218
405 1.16754
410 1.14868
415 1.01926
420 0.939395
425 0.851543
430 1.16135
435 1.16965
440 1.09192
445 0.971198
450 0.904239
455 0.849664
460 0.993717
465 0.995494
470 0.80444
475 0.585473
480 0.514093
485 0.773408
490 0.739123
495 0.696486
500 0.605287
505 0.543202
510 0.528099
515 0.772981
520 0.738837
525 0.492712
530 0.576584
535 0.894661
540 0.624771
545 0.448727
550 0.540907
555 0.420999
560 0.476537
565 0.459794
570 0.451333
575 0.544758
580 0.50994
585 0.598105
590 0.387095
595 0.481182
600 0.0547566
Ex : 313
200 0.375215
205 0.337327
210 0.272085
215 0.441974
220 0.511275
225 0.362147
230 0.211445
235 0.325181
240 0.319841
245 0.39897
250 0.412451
255 0.341399
260 0.458335
265 0.392039
270 0.365537
275 0.59438
280 0.391616
285 0.318701
290 0.336741
295 0.316995
300 0.364002
305 0.698497
310 0.64868
315 0.458319
320 0.583775
325 0.456792
330 0.450101
335 0.490615
340 0.501741
345 0.569742
350 0.58914
355 0.630036
360 0.811687
365 0.794901
370 0.747342
375 1.20077
380 1.00534
385 1.05323
390 1.34354
395 1.18533
400 1.22776
405 1.26338
410 1.26571
415 1.48038
420 1.21736
425 1.33018
430 1.22878
435 1.22192
440 1.34553
445 1.21134
450 1.23067
455 1.29144
460 1.25433
465 1.1233
470 0.905302
475 1.13272
480 0.77502
485 0.913006
490 0.827527
495 0.962705
500 0.754529
505 0.600965
510 0.625884
515 0.512027
520 0.741393
525 0.573591
530 0.539077
535 0.576922
540 0.461593
545 0.421631
550 0.444202
555 0.394074
560 0.341099
565 0.523487
570 0.488818
575 0.471994
580 0.427162
585 0.380647
590 0.483094
595 0.367991
600 0.0632303
Ex : 318
200 0.331625
205 0.325457
210 0.388667
215 0.433628
220 0.31628
225 0.442416
230 0.258064
235 0.29989
240 0.739621
245 0.441777
250 0.427195
255 0.501817
260 0.487388
265 0.309911
270 0.445791
275 0.387216
280 0.41084
285 0.413623
290 0.321162
295 0.385872
300 0.381534
305 0.376203
310 0.643038
315 0.815652
320 0.696697
325 0.448552
330 0.631801
335 1.01162
340 1.01765
345 1.63491
350 2.217
355 2.57151
360 3.17786
365 3.97205
370 4.30996
375 5.21104
380 6.08646
385 6.54051
390 7.08836
395 7.67694
400 7.83981
405 7.96165
410 8.82986
415 8.83057
420 8.37719
425 8.07192
430 7.57104
435 8.00065
440 7.67527
445 6.95538
450 6.91507
455 6.90564
460 6.33542
465 5.56303
470 4.97281
475 5.00194
480 4.34601
485 3.69435
490 3.53616
495 3.14272
500 2.4546
505 2.45345
510 2.03396
515 1.81498
520 1.51957
525 1.62677
530 1.35581
535 1.26473
540 0.979984
545 0.868282
550 0.818048
555 0.930278
560 0.660596
565 0.642472
570 0.46249
575 0.580307
580 0.406375
585 0.433686
590 0.433702
595 0.425905
600 0.210461
Ex : 323
200 0.271318
205 0.439625
210 0.454867
215 0.342943
220 0.33245
225 0.352205
230 0.233623
235 0.247218
240 0.314341
245 0.363511
250 0.235661
255 0.42361
260 0.268061
265 0.290599
270 0.308302
275 0.533943
280 0.340088
285 0.401581
290 0.384108
295 0.362932
300 0.381991
305 0.385759
310 0.466327
315 2.13458
320 9.88367
325 4.9446
330 2.12059
335 2.66621
340 4.07561
345 5.98965
350 8.46398
355 11.7199
360 13.0606
365 16.5556
370 19.6926
375 22.2226
380 25.8057
385 28.7517
390 30.1611
395 32.345
400 34.3328
405 34.189
410 35.8804
415 35.283
420 35.2401
425 34.4579
430 33.1524
435 32.1788
440 31.617
445 30.1818
450 28.5445
455 26.3309
460 24.7872
465 22.9086
470 20.4698
475 18.5173
480 16.8141
485 15.8959
490 13.9371
495 12.362
500 10.7656
505 9.87406
510 8.60227
515 7.12765
520 6.60231
525 5.5513
530 4.84729
535 3.97329
540 3.74056
545 3.23122
550 2.74866
555 2.22906
560 1.99039
565 2.03563
570 1.38617
575 1.17072
580 0.960768
585 0.907774
590 0.709125
595 0.70547
600 0.927386
Ex : 328
200 0.270505
205 0.27506
210 0.257207
215 0.339523
220 0.405654
225 0.346444
230 0.247491
235 0.295811
240 0.436516
245 0.389585
250 0.215754
255 0.37737
260 0.321443
265 0.314051
270 0.340117
275 0.36752
280 0.296646
285 0.439367
290 0.258201
295 0.273546
300 0.234352
305 0.454561
310 0.43987
315 0.728087
320 24.4559
325 65.2594
330 23.5575
335 6.12906
340 5.83571
345 7.63399
350 9.74146
355 13.4429
360 18.6206
365 20.5018
370 22.3792
375 26.1906
380 29.2859
385 32.7054
390 35.7167
395 38.5254
400 39.16
405 40.2394
410 39.444
415 39.7253
420 38.9401
425 39.1351
430 37.4997
435 37.6328
440 35.7563
445 33.9511
450 31.5027
455 30.0189
460 28.0345
465 25.8775
470 24.208
475 22.0148
480 20.7272
485 18.7509
490 16.2262
495 15.0673
500 13.4122
505 12.1164
510 10.8057
515 9.42265
520 8.32238
525 7.05036
530 6.07851
535 5.61632
540 4.8349
545 4.09797
550 3.58394
555 3.15698
560 2.70731
565 2.49103
570 2.18459
575 1.64837
580 1.40373
585 1.01108
590 0.832915
595 0.877457
600 0.0998513
Ex : 333
200 0.354366
205 0.273193
210 0.221146
215 0.350954
220 0.273202
225 0.24029
230 0.230881
235 0.309205
240 0.294452
245 0.207154
250 0.314716
255 0.352375
260 0.257431
265 0.225873
270 0.256551
275 0.241033
280 0.367501
285 0.346105
290 0.261358
295 0.285969
300 0.206651
305 0.288601
310 0.276044
315 0.286951
320 4.48267
325 91.2783
330 169.942
335 48.0336
340 9.21742
345 6.24508
350 6.60479
355 7.23793
360 10.7921
365 15.4203
370 16.4
375 16.4855
380 17.8769
385 18.8247
390 20.8186
395 21.7579
400 22.2937
405 23.1231
410 23.2676
415 23.2168
420 23.4546
425 22.4129
430 21.365
435 21.4581
440 20.5474
445 19.6123
450 18.8383
455 17.8181
460 17.378
465 16.1458
470 15.4392
475 14.7089
480 13.8552
485 12.8329
490 12.466
495 10.7467
500 9.97544
505 8.9437
510 7.96664
515 7.15509
520 6.79774
525 6.10281
530 5.20776
535 4.8563
540 3.82895
545 3.6839
550 3.38338
555 2.90078
560 2.61297
565 2.26427
570 1.77129
575 1.49241
580 1.35396
585 1.10378
590 0.98448
595 0.940804
600 0.816023
Ex : 338
200 0.301288
205 0.202112
210 0.221924
215 0.251558
220 0.310586
225 0.291038
230 0.265113
235 0.283832
240 0.322805
245 0.283098
250 0.348574
255 0.205993
260 0.221263
265 0.330656
270 0.212593
275 0.254279
280 0.314462
285 0.276347
290 0.323621
295 0.301204
300 0.250691
305 0.203569
310 0.33514
315 0.236956
320 0.390614
325 10.1542
330 152.023
335 229.845
340 61.1696
345 9.83922
350 5.03484
355 4.78883
360 4.76988
365 6.59264
370 10.836
375 11.5594
380 10.7127
385 9.80723
390 10.5561
395 11.2612
400 11.922
405 11.8055
410 11.8336
415 12.1683
420 12.6519
425 12.4542
430 11.9622
435 11.9624
440 11.5123
445 11.2225
450 11.3623
455 12.0624
460 11.2085
465 10.6941
470 11.0627
475 10.5903
480 10.3605
485 9.50109
490 9.25725
495 8.99714
500 8.20849
505 7.68704
510 7.53342
515 6.84593
520 6.04649
525 5.18731
530 4.82496
535 4.77014
540 4.05154
545 3.62214
550 3.30375
555 3.19364
560 2.65957
565 2.15601
570 1.86138
575 1.62622
580 1.32781
585 1.09716
590 0.933322
595 0.781102
600 0.936278
Ex : 343
200 0.20412
205 0.317168
210 0.179645
215 0.241994
220 0.253156
225 0.154762
230 0.199229
235 0.197402
240 0.295293
245 0.225734
250 0.16207
255 0.206592
260 0.208777
265 0.219317
270 0.282069
275 0.179541
280 0.291332
285 0.194625
290 0.294945
295 0.176004
300 0.308622
305 0.28174
310 0.246297
315 0.332709
320 0.406832
325 0.481285
330 13.4
335 178.464
340 261.482
345 65.7086
350 9.91529
355 4.07724
360 3.51458
365 3.01831
370 4.37486
375 9.02662
380 9.91955
385 7.80377
390 6.92799
395 7.07216
400 8.00463
405 8.12011
410 8.38431
415 8.45924
420 9.06104
425 8.81043
430 8.94777
435 9.34773
440 9.54929
445 9.20555
450 9.50838
455 10.4198
460 9.98633
465 10.1892
470 10.0046
475 10.3052
480 9.77956
485 9.93532
490 9.72991
495 9.30199
500 8.79175
505 8.81088
510 7.49975
515 7.07046
520 6.65787
525 6.20511
530 5.38437
535 5.03596
540 4.48515
545 4.15217
550 3.95636
555 3.53702
560 3.15941
565 2.46232
570 2.35462
575 1.92193
580 1.21015
585 1.12221
590 0.896543
595 0.772785
600 1.10241
Ex : 348
200 0.236224
205 0.191133
210 0.213376
215 0.233963
220 0.154081
225 0.267255
230 0.179823
235 0.193406
240 0.207294
245 0.208307
250 0.301625
255 0.234988
260 0.30475
265 0.236655
270 0.172816
275 0.150108
280 0.142479
285 0.263105
290 0.237626
295 0.216682
300 0.357243
305 0.238636
310 0.288879
315 0.329012
320 0.297867
325 0.358963
330 0.535123
335 12.5657
340 176.009
345 262.716
350 69.8453
355 9.81672
360 3.35042
365 2.82501
370 2.61917
375 3.5392
380 6.60076
385 9.3455
390 7.51726
395 7.10333
400 7.03006
405 7.10606
410 7.35833
415 8.25588
420 8.27444
425 8.46776
430 8.48269
435 8.50115
440 9.20477
445 9.59546
450 9.76117
455 10.6032
460 10.5628
465 11.706
470 10.9237
475 11.8498
480 11.7139
485 11.8972
490 11.5768
495 11.5992
500 10.5307
505 9.84476
510 9.1383
515 8.79977
520 7.96965
525 7.49826
530 6.83272
535 6.22847
540 5.47228
545 5.00545
550 4.26804
555 3.65898
560 3.43894
565 3.10975
570 2.35636
575 2.11531
580 1.61193
585 1.30238
590 1.07979
595 0.907706
600 1.38158
Ex : 353
200 0.227156
205 0.163929
210 0.150127
215 0.263332
220 0.182128
225 0.186144
230 0.195701
235 0.176739
240 0.195144
245 0.161512
250 0.153983
255 0.26708
260 0.208745
265 0.199234
270 0.288774
275 0.187613
280 0.188772
285 0.230498
290 0.225435
295 0.184586
300 0.197261
305 0.252473
310 0.2639
315 0.215782
320 0.261752
325 0.363743
330 0.286777
335 0.422448
340 12.9514
345 184.9
350 266.034
355 67.7845
360 9.57083
365 3.21059
370 2.83759
375 2.86243
380 2.96252
385 5.59635
390 9.58099
395 8.63689
400 7.54119
405 6.91348
410 7.33859
415 7.69854
420 8.06069
425 7.92167
430 8.46336
435 8.66726
440 9.31896
445 9.69987
450 10.5126
455 11.0772
460 11.6154
465 12.1304
470 12.8607
475 13.0243
480 13.8342
485 12.9519
490 13.0561
495 12.732
500 12.5921
505 11.7686
510 10.5966
515 10.2827
520 9.56953
525 8.6719
530 7.78215
535 7.20512
540 6.5316
545 5.80861
550 5.09237
555 4.50556
560 4.10243
565 3.38299
570 2.9017
575 2.31626
580 2.13972
585 1.6841
590 1.37599
595 1.12136
600 0.665303
Ex : 358
200 0.147014
205 0.149305
210 0.227717
215 0.149811
220 0.197289
225 0.269005
230 0.162556
235 0.162301
240 0.209335
245 0.256078
250 0.282868
255 0.180525
260 0.198257
265 0.206234
270 0.195605
275 0.198149
280 0.204202
285 0.171013
290 0.168018
295 0.23085
300 0.18157
305 0.204072
310 0.226903
315 0.218816
320 0.206412
325 0.244306
330 0.275929
335 0.400764
340 0.524641
345 12.0785
350 166.398
355 256.865
360 67.56
365 9.36676
370 3.2839
375 3.14863
380 2.92575
385 3.03711
390 5.1668
395 9.49803
400 9.52481
405 7.8887
410 7.37645
415 7.75652
420 7.80838
425 7.90268
430 8.05856
435 8.61974
440 9.0907
445 9.89036
450 10.7793
455 11.5452
460 12.4199
465 13.0749
470 14.1441
475 14.3036
480 14.7974
485 14.8606
490 14.3836
495 14.6141
500 13.9586
505 12.5886
510 12.0478
515 11.2097
520 10.254
525 9.19198
530 8.5852
535 7.93141
540 7.20274
545 6.50947
550 5.68424
555 5.0597
560 4.50792
565 4.05039
570 3.20351
575 2.57372
580 2.0351
585 1.69263
590 1.28785
595 1.08383
600 1.0142
Ex : 363
200 0.152467
205 0.229955
210 0.192774
215 0.225772
220 0.20626
225 0.161911
230 0.150115
235 0.159039
240 0.259275
245 0.190259
250 0.117914
255 0.179516
260 0.210864
265 0.199064
270 0.144613
275 0.122809
280 0.123609
285 0.183444
290 0.181108
295 0.151787
300 0.281502
305 0.193657
310 0.170752
315 0.254781
320 0.278264
325 0.235787
330 0.256079
335 0.3487
340 0.366298
345 0.530613
350 11.2184
355 166.099
360 254.684
365 68.799
370 9.36877
375 3.25176
380 3.03001
385 3.13646
390 3.26082
395 5.03122
400 8.41319
405 9.48941
410 8.61327
415 8.21676
420 7.53873
425 8.01716
430 8.05403
435 8.69968
440 9.58035
445 10.3014
450 11.4457
455 12.0235
460 13.676
465 14.2846
470 15.4953
475 15.8578
480 16.3428
485 16.5245
490 16.1029
495 15.6569
500 15.6576
505 14.5341
510 13.7222
515 12.7935
520 11.3703
525 10.7479
530 9.74252
535 9.09002
540 8.01399
545 7.32571
550 6.72058
555 5.93687
560 5.11455
565 4.45356
570 3.55182
575 2.85977
580 2.33614
585 1.85642
590 1.42657
595 1.22011
600 0.998593
Ex : 368
200 0.155753
205 0.211147
210 0.140381
215 0.182419
220 0.151037
225 0.225879
230 0.203797
235 0.224051
240 0.115007
245 0.148344
250 0.133003
255 0.173719
260 0.173584
265 0.167226
270 0.235065
275 0.178735
280 0.14439
285 0.186949
290 0.150698
295 0.199065
300 0.197336
305 0.181561
310 0.263504
315 0.224355
320 0.215201
325 0.196997
330 0.249061
335 0.224154
340 0.300726
345 0.415711
350 0.482416
355 9.70158
360 158.121
365 256.462
370 72.0716
375 10.0747
380 3.31985
385 3.44614
390 4.01049
395 4.35781
400 4.91948
405 7.81956
410 10.2591
415 9.64031
420 8.66562
425 8.23974
430 8.03649
435 8.74535
440 9.44174
445 10.135
450 11.947
455 13.0597
460 15.224
465 15.6605
470 16.7663
475 18.0675
480 18.3577
485 19.1846
490 19.0545
495 18.7205
500 18.564
505 17.473
510 16.004
515 15.1175
520 14.2047
525 12.5828
530 11.7395
535 10.7549
540 9.63929
545 8.81876
550 8.02868
555 6.93681
560 5.87953
565 5.14302
570 4.39679
575 3.41733
580 2.84581
585 2.17415
590 1.58464
595 1.256
600 1.33003
Ex : 373
200 0.123958
205 0.220249
210 0.138578
215 0.165252
220 0.216079
225 0.165464
230 0.145549
235 0.125119
240 0.161247
245 0.109857
250 0.135755
255 0.179975
260 0.19848
265 0.172698
270 0.187333
275 0.197145
280 0.173733
285 0.152294
290 0.177495
295 0.132783
300 0.163213
305 0.151238
310 0.125393
315 0.135249
320 0.126776
325 0.18238
330 0.204852
335 0.208412
340 0.291182
345 0.256736
350 0.422633
355 0.407987
360 9.95647
365 155.395
370 253.368
375 72.2741
380 10.3902
385 3.72628
390 4.10968
395 4.57357
400 4.48435
405 4.92319
410 7.72568
415 10.6144
420 9.82273
425 8.51665
430 7.8404
435 7.99811
440 9.12152
445 10.2919
450 11.4303
455 13.3615
460 14.7723
465 16.2052
470 17.4316
475 18.5679
480 19.9596
485 20.4744
490 20.5975
495 19.5668
500 19.1638
505 18.6401
510 17.6088
515 15.9587
520 15.0163
525 14.1196
530 12.7853
535 11.607
540 10.7461
545 9.44454
550 8.27019
555 7.31717
560 6.7597
565 5.76345
570 4.80912
575 3.81259
580 3.1735
585 2.32144
590 1.84587
595 1.45652
600 0.93483
Ex : 378
200 0.118664
205 0.107245
210 0.147535
215 0.163436
220 0.11889
225 0.186322
230 0.172987
235 0.154163
240 0.196293
245 0.146754
250 0.182107
255 0.125708
260 0.138557
265 0.147397
270 0.218711
275 0.194839
280 0.151034
285 0.159974
290 0.191308
295 0.176621
300 0.142479
305 0.217924
310 0.200057
315 0.146507
320 0.169769
325 0.154966
330 0.202689
335 0.222
340 0.21014
345 0.185975
350 0.227489
355 0.339176
360 0.40888
365 10.21
370 168.47
375 268.055
380 75.5676
385 10.9158
390 4.06788
395 4.37367
400 4.46537
405 4.7463
410 5.30176
415 7.05464
420 9.78074
425 9.61785
430 8.30684
435 8.18323
440 8.3807
445 9.28897
450 11.2798
455 12.4934
460 13.8173
465 15.8668
470 16.9256
475 18.3094
480 18.5726
485 19.1536
490 19.1103
495 19.0068
500 18.2386
505 17.2601
510 16.8957
515 15.6052
520 14.1096
525 12.7993
530 12.1412
535 10.8822
540 9.85717
545 8.85018
550 7.9689
555 7.07652
560 6.29594
565 5.21491
570 4.34289
575 3.80576
580 2.80775
585 2.15823
590 1.71205
595 1.40718
600 1.29643
Ex : 383
200 0.170844
205 0.161539
210 0.135021
215 0.17399
220 0.162219
225 0.141081
230 0.185769
235 0.140233
240 0.134023
245 0.15377
250 0.185141
255 0.207519
260 0.159566
265 0.183691
270 0.171089
275 0.207386
280 0.15722
285 0.174118
290 0.175006
295 0.176615
300 0.133828
305 0.110913
310 0.159337
315 0.154169
320 0.185863
325 0.224242
330 0.172613
335 0.223629
340 0.147089
345 0.205608
350 0.250487
355 0.217293
360 0.287721
365 0.406175
370 9.14535
375 160.453
380 271.815
385 80.0771
390 11.9059
395 4.40258
400 3.97147
405 4.46045
410 4.73992
415 5.19994
420 6.3179
425 8.88938
430 9.99289
435 9.22246
440 9.1708
445 9.67493
450 10.9083
455 12.2584
460 14.1071
465 15.6288
470 16.7979
475 17.8031
480 18.9664
485 19.6012
490 19.7212
495 19.0934
500 18.9209
505 17.9079
510 17.5934
515 15.8098
520 14.9549
525 13.4176
530 12.2336
535 11.1191
540 10.1874
545 9.36226
550 8.18134
555 7.26962
560 6.37203
565 5.33947
570 4.36716
575 3.58994
580 2.95334
585 2.34777
590 1.82484
595 1.3488
600 2.12477
Ex : 388
200 0.0887016
205 0.108913
210 0.153693
215 0.0922219
220 0.151524
225 0.106939
230 0.148959
235 0.174175
240 0.128413
245 0.195717
250 0.157681
255 0.155406
260 0.177166
265 0.134308
270 0.167207
275 0.188663
280 0.159321
285 0.208711
290 0.178123
295 0.146127
300 0.139133
305 0.171252
310 0.13554
315 0.134269
320 0.136342
325 0.162743
330 0.144792
335 0.219339
340 0.187953
345 0.2188
350 0.181173
355 0.219768
360 0.250051
365 0.27806
370 0.461049
375 10.7674
380 165.858
385 273.67
390 78.086
395 12.0482
400 4.58834
405 4.4244
410 5.23714
415 5.45214
420 5.82988
425 5.88464
430 8.46057
435 10.452
440 10.2816
445 10.4136
450 10.9866
455 12.7946
460 14.9787
465 16.3605
470 17.5878
475 18.9081
480 19.7238
485 20.7136
490 20.9331
495 20.1664
500 19.8175
505 18.8456
510 17.957
515 16.4033
520 15.3471
525 14.4655
530 13.2957
535 11.9643
540 11.0077
545 9.94859
550 8.87483
555 7.85304
560 6.70186
565 5.55998
570 4.73842
575 3.92524
580 3.11523
585 2.36102
590 1.89438
595 1.60401
600 1.17656
Ex : 393
200 0.130043
205 0.155665
210 0.193861
215 0.11092
220 0.123484
225 0.161053
230 0.134108
235 0.14595
240 0.102949
245 0.145846
250 0.132968
255 0.124856
260 0.168751
265 0.148858
270 0.117871
275 0.129308
280 0.126002
285 0.132638
290 0.132054
295 0.21015
300 0.164081
305 0.141395
310 0.167466
315 0.159178
320 0.0952957
325 0.132373
330 0.199064
335 0.198025
340 0.1793
345 0.214592
350 0.172223
355 0.178116
360 0.21511
365 0.228887
370 0.332653
375 0.558019
380 9.07148
385 166.581
390 291.397
395 84.4376
400 12.8348
405 4.90379
410 4.99082
415 5.38797
420 5.31212
425 5.11009
430 5.28763
435 7.92506
440 10.6423
445 11.2753
450 11.8336
455 12.7034
460 14.4456
465 16.2532
470 18.1437
475 19.2458
480 20.1623
485 21.0944
490 21.4115
495 21.0276
500 20.7372
505 19.974
510 18.905
515 17.3221
520 15.6342
525 14.6666
530 13.8179
535 12.423
540 11.3905
545 10.1534
550 9.08696
555 8.01243
560 6.69742
565 6.00727
570 4.86437
575 4.09161
580 3.21808
585 2.62132
590 1.94313
595 1.6495
600 0.910747
Ex : 398
200 0.135316
205 0.124357
210 0.120484
215 0.122
220 0.117132
225 0.115197
230 0.153989
235 0.119747
240 0.110183
245 0.135906
250 0.126277
255 0.122926
260 0.136442
265 0.117675
270 0.202123
275 0.138422
280 0.180863
285 0.172089
290 0.130149
295 0.129938
300 0.109791
305 0.172974
310 0.147234
315 0.0832345
320 0.142129
325 0.210249
330 0.161249
335 0.183902
340 0.175547
345 0.161775
350 0.169965
355 0.227672
360 0.173851
365 0.263042
370 0.267505
375 0.326132
380 0.448429
385 9.60616
390 171.766
395 291.594
400 80.8304
405 11.8718
410 4.32527
415 4.1294
420 4.47614
425 4.10863
430 4.14841
435 4.79155
440 6.94994
445 10.6618
450 12.1956
455 13.2694
460 15.0206
465 16.0543
470 17.4406
475 18.8118
480 20.1474
485 21.0075
490 21.7598
495 21.374
500 21.3802
505 20.5174
510 18.7721
515 17.5421
520 16.416
525 15.6544
530 14.1699
535 12.9064
540 11.2863
545 10.2569
550 9.56021
555 8.14876
560 7.11135
565 6.20067
570 5.0382
575 4.08566
580 3.21793
585 2.57357
590 1.92554
595 1.49817
600 1.08996
Ex : 403
200 0.110566
205 0.114614
210 0.114294
215 0.135916
220 0.108434
225 0.122548
230 0.0860569
235 0.114953
240 0.113416
245 0.108993
250 0.150428
255 0.114843
260 0.127356
265 0.125725
270 0.120247
275 0.0848965
280 0.118978
285 0.129163
290 0.133146
295 0.123068
300 0.175259
305 0.133092
310 0.105444
315 0.146086
320 0.146509
325 0.115399
330 0.128016
335 0.13679
340 0.128127
345 0.128142
350 0.136324
355 0.138204
360 0.146765
365 0.221024
370 0.245807
375 0.215089
380 0.349933
385 0.532661
390 10.497
395 172.204
400 282.087
405 80.5198
410 11.7496
415 3.80491
420 3.40607
425 3.78947
430 3.59033
435 4.23175
440 5.40925
445 7.21493
450 11.4195
455 13.9736
460 14.9019
465 16.5142
470 17.5629
475 18.9075
480 19.819
485 20.8884
490 22.0891
495 21.3176
500 21.0525
505 20.4545
510 19.2736
515 17.8089
520 16.6229
525 15.5547
530 14.6019
535 12.9738
540 11.8528
545 10.8002
550 9.04278
555 8.33444
560 7.68097
565 5.98177
570 5.25426
575 4.32821
580 3.40415
585 2.62894
590 1.85465
595 1.6229
600 1.10144
Ex : 408
200 0.0947718
205 0.0914353
210 0.115024
215 0.135978
220 0.125902
225 0.157469
230 0.120289
235 0.152958
240 0.159688
245 0.143936
250 0.127319
255 0.160664
260 0.126237
265 0.119384
270 0.188269
275 0.156636
280 0.128273
285 0.137659
290 0.161625
295 0.148169
300 0.135911
305 0.150406
310 0.0969176
315 0.109864
320 0.178027
325 0.11781
330 0.226679
335 0.1848
340 0.140536
345 0.178155
350 0.200013
355 0.178778
360 0.195342
365 0.227298
370 0.190287
375 0.211091
380 0.207073
385 0.311109
390 0.503583
395 10.3676
400 175.089
405 283.787
410 78.861
415 11.2947
420 3.64071
425 2.96006
430 3.33897
435 3.85844
440 4.95058
445 6.27045
450 8.29734
455 12.4033
460 16.6324
465 17.1288
470 18.2769
475 19.2632
480 19.981
485 20.6502
490 21.8444
495 21.9304
500 21.076
505 20.4172
510 19.5267
515 18.3944
520 16.7433
525 15.5613
530 14.2412
535 12.9484
540 11.5077
545 10.459
550 9.53796
555 8.52498
560 7.46696
565 6.27487
570 5.34646
575 4.3575
580 3.23817
585 2.58611
590 2.07482
595 1.61995
600 1.04771
Ex : 413
200 0.148763
205 0.160842
210 0.164969
215 0.134822
220 0.0963213
225 0.138684
230 0.166192
235 0.129973
240 0.133189
245 0.0781709
250 0.156088
255 0.153331
260 0.132814
265 0.0994157
270 0.164969
275 0.143843
280 0.125
285 0.143068
290 0.14091
295 0.135065
300 0.174943
305 0.121962
310 0.121224
315 0.184059
320 0.102851
325 0.136864
330 0.165297
335 0.166928
340 0.176418
345 0.141872
350 0.171413
355 0.205049
360 0.226977
365 0.165397
370 0.248181
375 0.19227
380 0.216758
385 0.226731
390 0.344271
395 0.506331
400 11.1994
405 182.08
410 303.152
415 82.2234
420 11.2899
425 3.22748
430 2.78865
435 3.64989
440 4.27038
445 5.28964
450 7.0262
455 10.1212
460 13.1439
465 17.1719
470 17.9509
475 18.9169
480 19.5174
485 20.5736
490 21.15
495 21.1504
500 20.5113
505 19.8966
510 18.6734
515 17.8422
520 16.4672
525 15.1205
530 13.7781
535 12.9378
540 11.6547
545 10.4702
550 9.44347
555 8.42213
560 7.46519
565 6.23272
570 5.36341
575 4.19556
580 3.26245
585 2.7069
590 2.03798
595 1.56632
600 1.82024
Ex : 418
200 0.143025
205 0.145237
210 0.185496
215 0.142917
220 0.0847476
225 0.10692
230 0.115976
235 0.111953
240 0.147591
245 0.112841
250 0.160365
255 0.105543
260 0.152843
265 0.146272
270 0.115973
275 0.125649
280 0.125504
285 0.139497
290 0.112178
295 0.116013
300 0.103963
305 0.0989415
310 0.11481
315 0.127849
320 0.14346
325 0.152497
330 0.109206
335 0.121582
340 0.183926
345 0.137815
350 0.173324
355 0.168711
360 0.164411
365 0.196175
370 0.182656
375 0.160472
380 0.218022
385 0.19685
390 0.266994
395 0.369205
400 0.622448
405 10.7769
410 184.156
415 314.249
420 87.746
425 11.8146
430 3.14574
435 2.58107
440 3.70167
445 5.09227
450 6.57422
455 8.50648
460 11.1277
465 13.7399
470 17.6192
475 19.0448
480 19.4287
485 19.9745
490 20.018
495 20.0768
500 19.7461
505 19.3041
510 18.4581
515 16.5922
520 15.749
525 14.2847
530 13.1756
535 12.4174
540 11.235
545 9.89984
550 8.99878
555 7.64989
560 7.15638
565 6.17104
570 4.98925
575 3.98634
580 3.30362
585 2.47543
590 1.86386
595 1.51095
600 1.18683
Ex : 423
200 0.126667
205 0.107413
210 0.132291
215 0.104056
220 0.164777
225 0.154248
230 0.10181
235 0.100282
240 0.131195
245 0.178026
250 0.116389
255 0.104985
260 0.122783
265 0.130876
270 0.125434
275 0.13769
280 0.142568
285 0.116595
290 0.116599
295 0.107636
300 0.172838
305 0.134427
310 0.17
315 0.203694
320 0.210089
325 0.141901
330 0.126095
335 0.185902
340 0.172896
345 0.162339
350 0.139728
355 0.161146
360 0.185675
365 0.123638
370 0.197184
375 0.215598
380 0.129007
385 0.197721
390 0.203796
395 0.263358
400 0.350776
405 0.495948
410 11.186
415 201.585
420 315.888
425 83.5293
430 11.2526
435 3.1405
440 2.94328
445 4.35153
450 5.93487
455 7.95238
460 9.91257
465 12.0384
470 14.3194
475 17.5989
480 19.211
485 18.9545
490 18.6226
495 18.7855
500 18.0405
505 17.7558
510 16.677
515 15.4673
520 14.8421
525 13.7136
530 12.6392
535 11.166
540 10.173
545 9.30507
550 8.49374
555 7.65464
560 6.3097
565 5.4255
570 4.72706
575 3.76061
580 2.93162
585 2.23962
590 1.83192
595 1.3936
600 1.26489
Ex : 428
200 0.118555
205 0.133956
210 0.167052
215 0.109879
220 0.12327
225 0.135693
230 0.167182
235 0.131778
240 0.177275
245 0.123907
250 0.117427
255 0.104266
260 0.14321
265 0.0937969
270 0.110405
275 0.141671
280 0.110734
285 0.168514
290 0.136245
295 0.138966
300 0.145957
305 0.120239
310 0.139817
315 0.151775
320 0.133205
325 0.117227
330 0.100071
335 0.150316
340 0.144625
345 0.139284
350 0.114672
355 0.178967
360 0.153796
365 0.209971
370 0.184288
375 0.190549
380 0.181193
385 0.221387
390 0.146791
395 0.231619
400 0.257208
405 0.295244
410 0.531875
415 12.7963
420 211.198
425 326.794
430 89.8789
435 12.1618
440 3.80301
445 3.93225
450 5.51603
455 7.51718
460 8.99762
465 10.5033
470 12.2706
475 13.9035
480 16.4179
485 18.3218
490 18.376
495 17.4397
500 17.2529
505 16.1469
510 14.8451
515 14.209
520 13.2776
525 12.7263
530 11.1736
535 10.6165
540 9.42925
545 8.36055
550 7.35242
555 6.84447
560 6.07443
565 5.07217
570 4.36302
575 3.63857
580 2.58407
585 1.94558
590 1.51647
595 1.38436
600 1.14026
Ex : 433
200 0.169634
205 0.100713
210 0.149128
215 0.132315
220 0.137242
225 0.130557
230 0.139165
235 0.14969
240 0.127495
245 0.172824
250 0.173222
255 0.123518
260 0.156186
265 0.132192
270 0.133741
275 0.109021
280 0.117891
285 0.185189
290 0.190446
295 0.149352
300 0.148765
305 0.129505
310 0.118814
315 0.133798
320 0.190701
325 0.188881
330 0.177828
335 0.177328
340 0.171419
345 0.116638
350 0.152502
355 0.156888
360 0.146939
365 0.221943
370 0.186901
375 0.162166
380 0.194232
385 0.180489
390 0.209625
395 0.20319
400 0.250831
405 0.323562
410 0.3723
415 0.590269
420 14.5128
425 225
430 342.627
435 89.5889
440 12.5434
445 4.49673
450 4.61585
455 6.52323
460 7.97554
465 9.35259
470 10.5883
475 11.5502
480 12.9234
485 14.9263
490 17.0004
495 16.6972
500 15.0688
505 14.4624
510 13.5179
515 12.9447
520 11.4912
525 11.1181
530 9.92013
535 9.05766
540 8.44657
545 7.30675
550 6.51459
555 5.73889
560 5.14201
565 4.45894
570 3.76915
575 3.02315
580 2.45222
585 1.77364
590 1.52874
595 1.22331
600 0.912025
Ex : 438
200 0.184103
205 0.132702
210 0.165598
215 0.143105
220 0.111121
225 0.127163
230 0.128188
235 0.160252
240 0.122248
245 0.141738
250 0.16501
255 0.158731
260 0.169015
265 0.131518
270 0.136714
275 0.166666
280 0.111754
285 0.122436
290 0.11692
295 0.111693
300 0.167538
305 0.121454
310 0.126982
315 0.113587
320 0.143751
325 0.159274
330 0.138203
335 0.136544
340 0.137697
345 0.11567
350 0.137702
355 0.155799
360 0.161959
365 0.15008
370 0.164331
375 0.175198
380 0.206409
385 0.179271
390 0.185171
395 0.202258
400 0.190387
405 0.210785
410 0.269304
415 0.318585
420 0.57315
425 17.2179
430 245.418
435 379.849
440 97.3899
445 13.7997
450 5.28011
455 5.43367
460 6.79465
465 8.28384
470 9.08816
475 9.79029
480 10.7696
485 11.3189
490 12.6241
495 14.2224
500 14.8126
505 12.9779
510 11.8392
515 11.1463
520 10.1567
525 9.12318
530 8.49323
535 7.9289
540 6.82723
545 6.42573
550 5.87466
555 5.0051
560 4.49028
565 3.99591
570 3.29696
575 2.57688
580 1.98378
585 1.58206
590 1.36907
595 1.02325
600 1.16216
Ex : 443
200 0.115622
205 0.110781
210 0.163698
215 0.121876
220 0.137053
225 0.153833
230 0.145428
235 0.139749
240 0.0979628
245 0.133435
250 0.137866
255 0.186298
260 0.148499
265 0.133853
270 0.130998
275 0.130991
280 0.131687
285 0.174555
290 0.195999
295 0.100589
300 0.10576
305 0.120237
310 0.113672
315 0.133353
320 0.146791
325 0.147134
330 0.146774
335 0.100085
340 0.189936
345 0.133888
350 0.173948
355 0.148775
360 0.165733
365 0.114757
370 0.155619
375 0.181932
380 0.167809
385 0.202461
390 0.201948
395 0.148586
400 0.169093
405 0.220968
410 0.225307
415 0.295238
420 0.485016
425 0.599922
430 17.1147
435 244.651
440 378.146
445 98.3333
450 14.4713
455 5.54724
460 5.27066
465 6.54496
470 7.61599
475 8.37058
480 9.02926
485 9.34609
490 9.8398
495 10.2357
500 11.5963
505 12.0773
510 10.134
515 9.18905
520 8.49075
525 7.66422
530 7.30924
535 6.39867
540 5.89532
545 5.36437
550 4.83792
555 4.5972
560 3.71615
565 3.33064
570 2.82326
575 2.28485
580 1.90429
585 1.44855
590 1.10566
595 0.812269
600 0.877186
Ex : 448
200 0.154574
205 0.140372
210 0.11965
215 0.133752
220 0.113933
225 0.165269
230 0.160228
235 0.195717
240 0.129298
245 0.14717
250 0.144984
255 0.150889
260 0.15399
265 0.159917
270 0.17074
275 0.149379
280 0.190124
285 0.12059
290 0.133579
295 0.178496
300 0.12958
305 0.132748
310 0.153047
315 0.145261
320 0.197776
325 0.148944
330 0.135177
335 0.137791
340 0.161171
345 0.145085
350 0.17802
355 0.123491
360 0.150076
365 0.187477
370 0.118582
375 0.139542
380 0.195298
385 0.15684
390 0.214607
395 0.15727
400 0.222521
405 0.225105
410 0.232847
415 0.253922
420 0.276792
425 0.460603
430 0.615915
435 17.5259
440 277.221
445 416.609
450 106.342
455 15.383
460 5.60885
465 5.01755
470 5.4675
475 6.35404
480 7.04471
485 7.01207
490 7.25769
495 7.30742
500 7.35487
505 8.21372
510 9.20807
515 8.36408
520 7.10467
525 6.40157
530 5.70538
535 5.06514
540 4.48273
545 4.11411
550 3.85597
555 3.37653
560 3.20689
565 2.77421
570 2.22678
575 1.74163
580 1.53997
585 1.18294
590 0.859527
595 0.72133
600 0.635962
Ex : 453
200 0.159175
205 0.111665
210 0.128094
215 0.144708
220 0.133757
225 0.157633
230 0.16447
235 0.132045
240 0.118514
245 0.177784
250 0.131665
255 0.108753
260 0.102491
265 0.196049
270 0.118446
275 0.125801
280 0.135892
285 0.130801
290 0.12784
295 0.183384
300 0.176659
305 0.190079
310 0.13627
315 0.130996
320 0.123366
325 0.158822
330 0.161521
335 0.161399
340 0.157577
345 0.135862
350 0.127724
355 0.119327
360 0.141408
365 0.183515
370 0.110288
375 0.168196
380 0.151164
385 0.147526
390 0.17128
395 0.194066
400 0.172799
405 0.232272
410 0.188921
415 0.266022
420 0.272204
425 0.327932
430 0.37714
435 0.72602
440 17.8763
445 278.591
450 406.716
455 100.186
460 14.4773
465 5.02017
470 4.32154
475 4.80582
480 5.404
485 5.42582
490 5.49572
495 5.47039
500 5.43567
505 5.43115
510 5.481
515 6.82768
520 6.68445
525 5.32156
530 4.42396
535 4.12491
540 3.57729
545 3.07385
550 2.94499
555 2.76453
560 2.26946
565 2.07698
570 1.64047
575 1.28686
580 1.20796
585 0.900743
590 0.862018
595 0.625021
600 0.569438
Ex : 458
200 0.129252
205 0.153414
210 0.122877
215 0.118976
220 0.147438
225 0.132269
230 0.159452
235 0.161591
240 0.137018
245 0.156916
250 0.134104
255 0.117496
260 0.152966
265 0.132828
270 0.124264
275 0.135772
280 0.117983
285 0.184309
290 0.15836
295 0.115518
300 0.0896886
305 0.115843
310 0.120654
315 0.0961821
320 0.130175
325 0.159627
330 0.148701
335 0.13545
340 0.166804
345 0.20783
350 0.177739
355 0.153805
360 0.18791
365 0.178932
370 0.167946
375 0.145443
380 0.148436
385 0.172936
390 0.168629
395 0.190622
400 0.18954
405 0.216141
410 0.2279
415 0.218608
420 0.222665
425 0.273621
430 0.324367
435 0.528086
440 0.739285
445 19.9868
450 289.682
455 464.538
460 125.301
465 16.8618
470 4.61737
475 3.308
480 3.38097
485 4.14523
490 4.23275
495 3.88418
500 3.83877
505 3.60419
510 3.64917
515 3.75402
520 4.62548
525 5.47145
530 4.26604
535 3.39902
540 3.00945
545 2.64402
550 2.19989
555 1.97718
560 1.73361
565 1.56911
570 1.4408
575 1.23901
580 0.877697
585 0.760488
590 0.566361
595 0.56791
600 0.175767
Ex : 463
200 0.0938784
205 0.101227
210 0.169796
215 0.115983
220 0.110462
225 0.130368
230 0.108002
235 0.165877
240 0.16472
245 0.122358
250 0.146976
255 0.126807
260 0.11949
265 0.133856
270 0.119905
275 0.103566
280 0.147034
285 0.120459
290 0.130226
295 0.135002
300 0.110187
305 0.160959
310 0.124488
315 0.10617
320 0.0897845
325 0.148764
330 0.147783
335 0.184923
340 0.127725
345 0.14121
350 0.145722
355 0.173349
360 0.145917
365 0.155513
370 0.207145
375 0.159489
380 0.173313
385 0.134375
390 0.142953
395 0.144343
400 0.165821
405 0.157044
410 0.221202
415 0.220909
420 0.197248
425 0.278632
430 0.266488
435 0.309294
440 0.451791
445 0.88131
450 20.8073
455 365.727
460 546.29
465 128.072
470 16.9134
475 4.006
480 2.69964
485 2.59881
490 3.10199
495 2.96903
500 3.05841
505 2.60018
510 2.70183
515 2.64548
520 2.69776
525 3.21888
530 4.43376
535 3.67194
540 2.77729
545 2.47304
550 2.16724
555 1.75997
560 1.48118
565 1.42566
570 1.25104
575 0.9914
580 0.825029
585 0.640944
590 0.562724
595 0.466302
600 0.0612943
Ex : 468
200 0.0974607
205 0.122151
210 0.135098
215 0.123363
220 0.119587
225 0.123384
230 0.0918183
235 0.106667
240 0.148666
245 0.183246
250 0.191847
255 0.125082
260 0.154554
265 0.142184
270 0.189089
275 0.12942
280 0.164148
285 0.118326
290 0.156231
295 0.126219
300 0.131473
305 0.133499
310 0.116737
315 0.118062
320 0.148821
325 0.169196
330 0.113791
335 0.128065
340 0.147213
345 0.148174
350 0.133026
355 0.137082
360 0.232266
365 0.152847
370 0.136889
375 0.12406
380 0.156286
385 0.162567
390 0.167566
395 0.170284
400 0.197589
405 0.174766
410 0.166379
415 0.172194
420 0.194007
425 0.226563
430 0.225675
435 0.260736
440 0.306822
445 0.516115
450 0.756685
455 20.7305
460 299.526
465 460.462
470 113.532
475 14.8289
480 3.49189
485 2.14206
490 2.06504
495 2.3845
500 2.34502
505 2.21061
510 2.05695
515 2.04985
520 1.9442
525 2.03499
530 2.3425
535 3.4089
540 3.56372
545 2.52131
550 1.9177
555 1.94336
560 1.5355
565 1.23146
570 1.04989
575 0.926975
580 0.69848
585 0.669151
590 0.575215
595 0.471351
600 0.255712
Ex : 473
200 0.144788
205 0.155475
210 0.102211
215 0.186781
220 0.195649
225 0.165981
230 0.157996
235 0.102036
240 0.132049
245 0.139857
250 0.129734
255 0.130199
260 0.110115
265 0.163775
270 0.165874
275 0.129441
280 0.123987
285 0.18356
290 0.1265
295 0.148436
300 0.103379
305 0.126089
310 0.142909
315 0.164513
320 0.162183
325 0.125082
330 0.159319
335 0.142058
340 0.121118
345 0.139322
350 0.118696
355 0.185034
360 0.152871
365 0.158979
370 0.142491
375 0.173758
380 0.147996
385 0.12927
390 0.191281
395 0.208866
400 0.151258
405 0.159346
410 0.15182
415 0.167447
420 0.193692
425 0.187031
430 0.232281
435 0.255338
440 0.278565
445 0.330117
450 0.45292
455 0.772839
460 23.3413
465 353.517
470 475.242
475 111.28
480 14.3468
485 3.18375
490 1.85654
495 1.65485
500 2.03706
505 2.03108
510 1.91183
515 1.71304
520 1.61221
525 1.71284
530 1.74991
535 1.94986
540 2.72825
545 3.37948
550 2.36628
555 1.7675
560 1.72274
565 1.40899
570 1.03989
575 0.811773
580 0.710068
585 0.666182
590 0.562179
595 0.432626
600 0.482028
Ex : 478
200 0.170895
205 0.207508
210 0.147593
215 0.185108
220 0.148733
225 0.195937
230 0.13396
235 0.177553
240 0.155279
245 0.231485
250 0.146784
255 0.164643
260 0.191183
265 0.169695
270 0.122021
275 0.164241
280 0.158498
285 0.135112
290 0.226939
295 0.155246
300 0.148825
305 0.124327
310 0.162437
315 0.156472
320 0.181237
325 0.182026
330 0.105463
335 0.154777
340 0.125183
345 0.13233
350 0.188666
355 0.134295
360 0.107913
365 0.144801
370 0.190395
375 0.231139
380 0.164438
385 0.17454
390 0.190454
395 0.200512
400 0.223786
405 0.169421
410 0.168736
415 0.204028
420 0.189753
425 0.199737
430 0.228323
435 0.211064
440 0.225186
445 0.348587
450 0.363359
455 0.526665
460 0.846366
465 23.3269
470 321.119
475 469.41
480 115.641
485 14.6708
490 3.19187
495 1.65119
500 1.55304
505 1.61577
510 1.88116
515 1.90614
520 1.60339
525 1.57079
530 1.58695
535 1.52161
540 1.56899
545 2.07507
550 2.82601
555 2.56594
560 1.63141
565 1.31593
570 1.23657
575 0.943825
580 0.795692
585 0.619594
590 0.451615
595 0.428425
600 0.903419
Ex : 483
200 0.236116
205 0.15971
210 0.167766
215 0.209519
220 0.242428
225 0.137355
230 0.11787
235 0.159483
240 0.18335
245 0.223995
250 0.174417
255 0.153916
260 0.141204
265 0.153616
270 0.162442
275 0.148328
280 0.0907792
285 0.126517
290 0.13121
295 0.141713
300 0.12862
305 0.165707
310 0.187279
315 0.163078
320 0.141749
325 0.135107
330 0.131182
335 0.175079
340 0.174505
345 0.150885
350 0.171957
355 0.149672
360 0.172029
365 0.181746
370 0.183603
375 0.227754
380 0.179495
385 0.171221
390 0.154387
395 0.230186
400 0.167584
405 0.247513
410 0.197052
415 0.147764
420 0.227036
425 0.190579
430 0.166509
435 0.195652
440 0.199475
445 0.248866
450 0.296525
455 0.381783
460 0.505852
465 0.829158
470 19.3757
475 314.371
480 471.998
485 118.26
490 14.9107
495 2.9721
500 1.6894
505 1.34026
510 1.44086
515 1.68706
520 1.65701
525 1.5096
530 1.48446
535 1.48568
540 1.27967
545 1.4212
550 1.68021
555 2.60042
560 2.50628
565 1.637
570 1.19577
575 1.00446
580 0.863446
585 0.624705
590 0.514864
595 0.476123
600 0.610779
Ex : 488
200 0.115984
205 0.222426
210 0.187816
215 0.143799
220 0.16916
225 0.136424
230 0.149511
235 0.197131
240 0.156544
245 0.186184
250 0.153505
255 0.15061
260 0.212305
265 0.119362
270 0.178577
275 0.164419
280 0.222321
285 0.175589
290 0.145654
295 0.133955
300 0.15098
305 0.130552
310 0.138338
315 0.133112
320 0.192816
325 0.283227
330 0.216733
335 0.154152
340 0.20011
345 0.247599
350 0.126404
355 0.180945
360 0.16208
365 0.159596
370 0.164487
375 0.190178
380 0.218374
385 0.178779
390 0.20687
395 0.222203
400 0.19656
405 0.181172
410 0.21295
415 0.253916
420 0.262565
425 0.225501
430 0.199004
435 0.20501
440 0.299542
445 0.186762
450 0.247692
455 0.332049
460 0.445997
465 0.702746
470 0.886414
475 22.8266
480 354.555
485 524.997
490 119.646
495 15.1844
500 2.9229
505 1.34007
510 1.23515
515 1.45761
520 1.69011
525 1.66975
530 1.46016
535 1.5092
540 1.3213
545 1.38006
550 1.22726
555 1.2405
560 1.87904
565 2.23768
570 1.74976
575 1.12278
580 0.966621
585 0.671049
590 0.575918
595 0.453773
600 0.437397
Ex : 493
200 0.196942
205 0.228428
210 0.112148
215 0.174349
220 0.169434
225 0.212958
230 0.128834
235 0.166921
240 0.16773
245 0.210245
250 0.243102
255 0.246573
260 0.126508
265 0.140985
270 0.142864
275 0.185559
280 0.147449
285 0.143136
290 0.170102
295 0.141687
300 0.153947
305 0.196139
310 0.178838
315 0.133831
320 0.167192
325 0.236752
330 0.170712
335 0.158869
340 0.195661
345 0.173947
350 0.153839
355 0.236654
360 0.26646
365 0.200097
370 0.2947
375 0.19609
380 0.16155
385 0.202144
390 0.156767
395 0.17126
400 0.213796
405 0.202023
410 0.198683
415 0.182787
420 0.20028
425 0.224031
430 0.234901
435 0.236882
440 0.242308
445 0.232807
450 0.264827
455 0.321958
460 0.362442
465 0.431009
470 0.645984
475 0.908525
480 24.4958
485 369.171
490 596.531
495 142.779
500 17.5025
505 3.21986
510 1.46989
515 1.13776
520 1.47307
525 1.55209
530 1.47372
535 1.56841
540 1.29663
545 1.18224
550 1.13215
555 1.03886
560 1.14822
565 1.39931
570 2.02545
575 1.65559
580 1.06724
585 0.793296
590 0.677161
595 0.512324
600 0.440979
Ex : 498
200 0.166667
205 0.163748
210 0.199994
215 0.123621
220 0.207633
225 0.222581
230 0.237387
235 0.168359
240 0.169811
245 0.162832
250 0.184485
255 0.150817
260 0.170923
265 0.134925
270 0.211899
275 0.101097
280 0.156895
285 0.17869
290 0.203162
295 0.17696
300 0.210879
305 0.259338
310 0.218299
315 0.144727
320 0.169291
325 0.234696
330 0.158914
335 0.186957
340 0.212421
345 0.164833
350 0.204135
355 0.18015
360 0.134282
365 0.19333
370 0.1781
375 0.182636
380 0.245621
385 0.165932
390 0.207023
395 0.16473
400 0.180878
405 0.222464
410 0.18887
415 0.196346
420 0.273641
425 0.268464
430 0.255957
435 0.209632
440 0.21661
445 0.211629
450 0.272344
455 0.282142
460 0.37064
465 0.437142
470 0.450538
475 0.553162
480 0.687449
485 23.6292
490 340.529
495 460.816
500 109.78
505 13.7476
510 2.60153
515 1.35472
520 1.39108
525 1.39743
530 1.46147
535 1.51826
540 1.44996
545 1.31068
550 1.23139
555 1.00037
560 1.0337
565 0.944995
570 1.08176
575 1.56317
580 1.5102
585 0.853916
590 0.686785
595 0.55067
600 0.840429
Ex : 503
200 0.191426
205 0.140741
210 0.201267
215 0.171124
220 0.192354
225 0.196235
230 0.215345
235 0.244547
240 0.162731
245 0.16655
250 0.17415
255 0.159549
260 0.200599
265 0.150239
270 0.207605
275 0.188025
280 0.229462
285 0.170195
290 0.226779
295 0.276223
300 0.184135
305 0.127275
310 0.197545
315 0.227634
320 0.210174
325 0.211753
330 0.231094
335 0.26591
340 0.299448
345 0.228906
350 0.205457
355 0.200147
360 0.201418
365 0.204985
370 0.202528
375 0.175412
380 0.193423
385 0.268858
390 0.254822
395 0.294698
400 0.25184
405 0.234479
410 0.288851
415 0.225544
420 0.307562
425 0.251871
430 0.238397
435 0.242587
440 0.24828
445 0.246946
450 0.255471
455 0.286188
460 0.299473
465 0.361053
470 0.362599
475 0.505238
480 0.604956
485 0.816303
490 24.1087
495 360.284
500 522.169
505 119.376
510 14.9625
515 2.78371
520 1.56393
525 1.40231
530 1.22487
535 1.44696
540 1.34844
545 1.18249
550 1.34627
555 1.06488
560 0.888838
565 0.896842
570 0.918964
575 0.825811
580 0.969835
585 1.24882
590 0.8988
595 0.563997
600 0.219167
Ex : 508
200 0.228089
205 0.222901
210 0.161674
215 0.165543
220 0.239699
225 0.197647
230 0.21143
235 0.169057
240 0.205373
245 0.211952
250 0.219942
255 0.205882
260 0.245914
265 0.221286
270 0.201951
275 0.148769
280 0.141443
285 0.169281
290 0.227157
295 0.249613
300 0.241149
305 0.151851
310 0.183541
315 0.238457
320 0.202889
325 0.175332
330 0.138504
335 0.208926
340 0.189938
345 0.186473
350 0.208807
355 0.201416
360 0.200377
365 0.226072
370 0.244304
375 0.200774
380 0.231296
385 0.221755
390 0.252799
395 0.235595
400 0.255387
405 0.165016
410 0.254543
415 0.317926
420 0.192516
425 0.180057
430 0.28547
435 0.297066
440 0.234093
445 0.195655
450 0.178228
455 0.183605
460 0.264612
465 0.282062
470 0.298233
475 0.38056
480 0.380383
485 0.421418
490 0.662663
495 24.3143
500 340.873
505 469.74
510 118.976
515 14.9762
520 2.83557
525 1.48498
530 1.20147
535 1.1654
540 1.33709
545 1.28468
550 1.22365
555 1.0725
560 0.882549
565 0.805462
570 0.887125
575 0.678736
580 0.844563
585 0.832355
590 1.015
595 0.761338
600 1.19236
Ex : 513
200 0.263615
205 0.281305
210 0.209637
215 0.179215
220 0.208327
225 0.203134
230 0.192918
235 0.163754
240 0.241678
245 0.20268
250 0.190689
255 0.257094
260 0.243154
265 0.168866
270 0.187504
275 0.194756
280 0.147347
285 0.167272
290 0.200575
295 0.181531
300 0.253757
305 0.192524
310 0.200994
315 0.189648
320 0.208626
325 0.170603
330 0.173986
335 0.218109
340 0.232154
345 0.186106
350 0.253043
355 0.125514
360 0.159755
365 0.231411
370 0.214653
375 0.172533
380 0.235383
385 0.296702
390 0.233845
395 0.201183
400 0.20972
405 0.244433
410 0.209153
415 0.230114
420 0.261838
425 0.188513
430 0.181471
435 0.221763
440 0.265117
445 0.301868
450 0.250916
455 0.260698
460 0.2892
465 0.254461
470 0.346591
475 0.288052
480 0.313589
485 0.4246
490 0.490102
495 0.808287
500 21.688
505 334.013
510 476.557
515 118.326
520 14.8811
525 2.70733
530 1.6402
535 1.09898
540 1.1485
545 1.36145
550 1.26132
555 1.28082
560 1.05621
565 0.873116
570 0.888083
575 0.800914
580 0.655364
585 0.555528
590 0.475233
595 0.704178
600 1.07234
Ex : 518
200 0.211058
205 0.169299
210 0.185675
215 0.146895
220 0.168088
225 0.315253
230 0.197222
235 0.225239
240 0.199492
245 0.253835
250 0.289577
255 0.25023
260 0.218473
265 0.189344
270 0.180267
275 0.246825
280 0.22032
285 0.145109
290 0.194503
295 0.215798
300 0.190877
305 0.154277
310 0.22928
315 0.20516
320 0.282234
325 0.238412
330 0.20707
335 0.281997
340 0.234269
345 0.250855
350 0.245317
355 0.179105
360 0.245548
365 0.215872
370 0.223052
375 0.26449
380 0.203193
385 0.207475
390 0.190297
395 0.212758
400 0.22082
405 0.238603
410 0.248703
415 0.192112
420 0.262027
425 0.227285
430 0.198614
435 0.278247
440 0.245071
445 0.247093
450 0.284389
455 0.238877
460 0.269822
465 0.313309
470 0.374527
475 0.350038
480 0.326357
485 0.317578
490 0.397491
495 0.7446
500 0.741264
505 19.5282
510 307.531
515 472.09
520 124.733
525 15.6488
530 2.88401
535 1.65332
540 1.28295
545 1.03614
550 1.14137
555 1.12817
560 1.07136
565 1.06553
570 0.803892
575 0.580613
580 0.564665
585 0.510064
590 0.447142
595 0.614206
600 0.547749
Ex : 523
200 0.209322
205 0.18863
210 0.165482
215 0.195555
220 0.188948
225 0.182845
230 0.188417
235 0.218709
240 0.20658
245 0.215983
250 0.252223
255 0.17667
260 0.256004
265 0.181197
270 0.212686
275 0.285758
280 0.290368
285 0.206975
290 0.279412
295 0.248383
300 0.251235
305 0.145043
310 0.221576
315 0.164231
320 0.285588
325 0.214353
330 0.244755
335 0.235732
340 0.221852
345 0.258503
350 0.287342
355 0.177365
360 0.213098
365 0.239882
370 0.224985
375 0.324933
380 0.245514
385 0.247585
390 0.250606
395 0.192328
400 0.285448
405 0.313103
410 0.204604
415 0.200502
420 0.207165
425 0.257984
430 0.253451
435 0.229336
440 0.278003
445 0.265834
450 0.304964
455 0.242225
460 0.264406
465 0.268093
470 0.256994
475 0.268506
480 0.214401
485 0.331338
490 0.411985
495 0.387022
500 0.645198
505 0.812569
510 18.4816
515 302.917
520 484.473
525 124.539
530 15.5762
535 2.717
540 1.41885
545 1.04552
550 0.895876
555 1.07445
560 1.14965
565 1.02962
570 0.820601
575 0.734079
580 0.562248
585 0.548713
590 0.502373
595 0.517925
600 0.297358
Ex : 528
200 0.225527
205 0.1884
210 0.211499
215 0.14415
220 0.217283
225 0.241746
230 0.259833
235 0.195044
240 0.173872
245 0.18655
250 0.201838
255 0.201627
260 0.238364
265 0.215225
270 0.210979
275 0.318305
280 0.238375
285 0.186612
290 0.354657
295 0.177606
300 0.299142
305 0.1723
310 0.229861
315 0.180222
320 0.23606
325 0.219067
330 0.189919
335 0.232576
340 0.254989
345 0.188644
350 0.292396
355 0.214396
360 0.209731
365 0.355008
370 0.238222
375 0.330135
380 0.261606
385 0.159059
390 0.246506
395 0.271291
400 0.355891
405 0.251895
410 0.21517
415 0.246397
420 0.242302
425 0.230356
430 0.29659
435 0.244389
440 0.284443
445 0.277962
450 0.264965
455 0.247544
460 0.29628
465 0.317141
470 0.230579
475 0.271678
480 0.257555
485 0.320615
490 0.287971
495 0.360171
500 0.49841
505 0.55868
510 0.677605
515 17.1139
520 280.058
525 425.146
530 111.166
535 14.026
540 2.59665
545 1.26861
550 1.09381
555 0.889814
560 0.851428
565 0.956252
570 0.884053
575 0.848888
580 0.534716
585 0.47158
590 0.417126
595 0.468694
600 0.415241
Ex : 533
200 0.262679
205 0.195575
210 0.182336
215 0.222616
220 0.307473
225 0.198621
230 0.191463
235 0.171261
240 0.16959
245 0.219811
250 0.223416
255 0.236425
260 0.228387
265 0.241587
270 0.265452
275 0.260807
280 0.262111
285 0.227054
290 0.22405
295 0.188506
300 0.229011
305 0.191156
310 0.266219
315 0.309278
320 0.207369
325 0.297617
330 0.254365
335 0.313947
340 0.284588
345 0.195166
350 0.211052
355 0.245511
360 0.180775
365 0.248505
370 0.325242
375 0.213318
380 0.233774
385 0.244891
390 0.186106
395 0.233245
400 0.224137
405 0.182399
410 0.241706
415 0.301978
420 0.156603
425 0.200128
430 0.263583
435 0.241323
440 0.239903
445 0.260187
450 0.313368
455 0.31661
460 0.295001
465 0.292535
470 0.36881
475 0.292693
480 0.410947
485 0.369632
490 0.348931
495 0.439015
500 0.35784
505 0.459517
510 0.561108
515 0.761465
520 22.2965
525 309.397
530 451.377
535 117.381
540 14.5013
545 2.59503
550 1.28715
555 0.823048
560 0.893529
565 0.73956
570 0.820038
575 0.857574
580 0.696781
585 0.487372
590 0.482462
595 0.391029
600 0.0444976
Ex : 538
200 0.201386
205 0.229745
210 0.196604
215 0.149502
220 0.233769
225 0.229842
230 0.284621
235 0.257685
240 0.217985
245 0.195632
250 0.219013
255 0.202589
260 0.272652
265 0.265304
270 0.210236
275 0.201188
280 0.26252
285 0.19433
290 0.204989
295 0.20925
300 0.202115
305 0.192769
310 0.356897
315 0.271248
320 0.190796
325 0.229282
330 0.166896
335 0.231375
340 0.306853
345 0.248818
350 0.277067
355 0.261758
360 0.237331
365 0.287579
370 0.252294
375 0.140443
380 0.210218
385 0.311476
390 0.301471
395 0.284183
400 0.346161
405 0.342148
410 0.273891
415 0.307572
420 0.353013
425 0.292562
430 0.272638
435 0.226282
440 0.262742
445 0.290596
450 0.34719
455 0.387564
460 0.272633
465 0.297888
470 0.290846
475 0.339009
480 0.301406
485 0.358322
490 0.365411
495 0.369377
500 0.516706
505 0.472925
510 0.477278
515 0.554219
520 0.914827
525 22.8618
530 284.464
535 456.823
540 124.741
545 15.4475
550 2.71363
555 1.09833
560 0.826954
565 0.75525
570 0.630475
575 0.580725
580 0.584336
585 0.552687
590 0.541238
595 0.455224
600 0.334792
Ex : 543
200 0.24683
205 0.275049
210 0.196458
215 0.256925
220 0.240427
225 0.179949
230 0.294741
235 0.182971
240 0.242403
245 0.17693
250 0.232165
255 0.1656
260 0.225989
265 0.3142
270 0.202817
275 0.322228
280 0.232322
285 0.27488
290 0.364497
295 0.250196
300 0.177457
305 0.244225
310 0.328541
315 0.2555
320 0.198861
325 0.241822
330 0.324708
335 0.197707
340 0.232205
345 0.262237
350 0.277247
355 0.254877
360 0.217786
365 0.281668
370 0.203905
375 0.253014
380 0.276668
385 0.317931
390 0.238292
395 0.255807
400 0.205311
405 0.2014
410 0.283645
415 0.244238
420 0.317854
425 0.304765
430 0.336139
435 0.303352
440 0.272673
445 0.194651
450 0.38191
455 0.290111
460 0.262233
465 0.278268
470 0.28707
475 0.215278
480 0.224138
485 0.251673
490 0.293622
495 0.254934
500 0.340653
505 0.434698
510 0.373458
515 0.406319
520 0.594966
525 0.759534
530 14.8787
535 286.478
540 494.499
545 151.939
550 18.791
555 3.06852
560 1.13927
565 0.936991
570 0.54491
575 0.532495
580 0.55204
585 0.510692
590 0.543331
595 0.407235
600 0.168577
Ex : 548
200 0.225874
205 0.225802
210 0.167831
215 0.221844
220 0.198638
225 0.208043
230 0.246038
235 0.238999
240 0.211502
245 0.273628
250 0.297148
255 0.308
260 0.315558
265 0.245881
270 0.269096
275 0.183203
280 0.294194
285 0.293717
290 0.259082
295 0.209477
300 0.272154
305 0.242883
310 0.207829
315 0.316575
320 0.234948
325 0.302822
330 0.243258
335 0.193161
340 0.231606
345 0.199361
350 0.241726
355 0.275237
360 0.273385
365 0.209246
370 0.293461
375 0.219691
380 0.248165
385 0.213011
390 0.188803
395 0.282541
400 0.331642
405 0.245864
410 0.357406
415 0.329093
420 0.293599
425 0.259572
430 0.393922
435 0.298931
440 0.288118
445 0.285334
450 0.323525
455 0.216698
460 0.28387
465 0.367174
470 0.262278
475 0.294863
480 0.356716
485 0.348072
490 0.467598
495 0.335698
500 0.287361
505 0.290249
510 0.369754
515 0.429682
520 0.48084
525 0.592788
530 0.823758
535 21.7165
540 254.543
545 464.224
550 150.365
555 18.2632
560 2.83726
565 1.00356
570 0.703974
575 0.707837
580 0.493148
585 0.513814
590 0.502572
595 0.353379
600 0.947147
Ex : 553
200 0.18647
205 0.254001
210 0.261021
215 0.283233
220 0.264709
225 0.242327
230 0.261133
235 0.255924
240 0.206109
245 0.316514
250 0.34512
255 0.242521
260 0.283308
265 0.287465
270 0.222677
275 0.233544
280 0.294186
285 0.247772
290 0.210224
295 0.21705
300 0.293803
305 0.214221
310 0.229475
315 0.334757
320 0.318311
325 0.212185
330 0.236408
335 0.253007
340 0.165986
345 0.178834
350 0.264838
355 0.351265
360 0.248596
365 0.259317
370 0.279287
375 0.291052
380 0.304683
385 0.326238
390 0.195539
395 0.289097
400 0.295287
405 0.278288
410 0.213945
415 0.27569
420 0.253464
425 0.230178
430 0.26429
435 0.264229
440 0.305462
445 0.426256
450 0.339554
455 0.404907
460 0.34722
465 0.247403
470 0.222421
475 0.305245
480 0.333436
485 0.321657
490 0.284507
495 0.309976
500 0.341419
505 0.325305
510 0.367228
515 0.437785
520 0.402124
525 0.537711
530 0.642567
535 0.767166
540 14.2131
545 258.23
550 481.045
555 138.821
560 17.1687
565 2.69007
570 0.835158
575 0.676079
580 0.466044
585 0.402627
590 0.494407
595 0.552018
600 0.591337
Ex : 558
200 0.250662
205 0.265361
210 0.26395
215 0.246972
220 0.236406
225 0.329089
230 0.234605
235 0.211455
240 0.258917
245 0.169903
250 0.341219
255 0.344735
260 0.236252
265 0.221301
270 0.196258
275 0.223588
280 0.228666
285 0.277108
290 0.271556
295 0.26941
300 0.185707
305 0.193516
310 0.322208
315 0.271269
320 0.253013
325 0.289308
330 0.339598
335 0.279714
340 0.255025
345 0.266642
350 0.299312
355 0.303723
360 0.41933
365 0.279562
370 0.272059
375 0.247716
380 0.27885
385 0.358007
390 0.277158
395 0.251974
400 0.334982
405 0.242324
410 0.217278
415 0.263831
420 0.219003
425 0.243715
430 0.364937
435 0.285762
440 0.243545
445 0.227048
450 0.274121
455 0.340831
460 0.298673
465 0.328774
470 0.269653
475 0.224156
480 0.37365
485 0.261792
490 0.284141
495 0.368816
500 0.225113
505 0.334595
510 0.352025
515 0.356719
520 0.445625
525 0.424613
530 0.504188
535 0.610328
540 0.79361
545 18.9233
550 309.157
555 423.38
560 123.544
565 15.1703
570 2.28146
575 0.700748
580 0.488811
585 0.441286
590 0.437792
595 0.382425
600 0.786609
Ex : 563
200 0.254543
205 0.190057
210 0.245894
215 0.267896
220 0.24478
225 0.271768
230 0.23183
235 0.268507
240 0.267554
245 0.299507
250 0.331786
255 0.289791
260 0.264469
265 0.193437
270 0.298714
275 0.242999
280 0.318851
285 0.262318
290 0.263134
295 0.252173
300 0.233194
305 0.203967
310 0.255448
315 0.23038
320 0.265153
325 0.273557
330 0.315828
335 0.27458
340 0.301321
345 0.247224
350 0.209161
355 0.291067
360 0.226834
365 0.276114
370 0.290542
375 0.245735
380 0.271326
385 0.217359
390 0.265116
395 0.202415
400 0.344909
405 0.214637
410 0.342167
415 0.311071
420 0.268076
425 0.326314
430 0.348499
435 0.285477
440 0.371585
445 0.377257
450 0.339644
455 0.298571
460 0.305572
465 0.284766
470 0.289524
475 0.413777
480 0.294788
485 0.232013
490 0.320438
495 0.315912
500 0.342499
505 0.318807
510 0.419347
515 0.300108
520 0.438743
525 0.312718
530 0.368632
535 0.538822
540 0.47783
545 0.833292
550 18.6326
555 316.842
560 482.888
565 141.765
570 17.2526
575 2.63023
580 0.822814
585 0.542516
590 0.409337
595 0.344257
600 0.346161
Ex : 568
200 0.263141
205 0.174725
210 0.173542
215 0.182364
220 0.28702
225 0.25898
230 0.229358
235 0.299615
240 0.268744
245 0.213654
250 0.360812
255 0.327076
260 0.246837
265 0.23501
270 0.241818
275 0.336434
280 0.3342
285 0.249912
290 0.202682
295 0.248756
300 0.320545
305 0.232978
310 0.215865
315 0.255839
320 0.261891
325 0.317492
330 0.294664
335 0.27818
340 0.238022
345 0.280227
350 0.253789
355 0.182197
360 0.25944
365 0.268424
370 0.273727
375 0.23233
380 0.280359
385 0.345902
390 0.307203
395 0.259553
400 0.279061
405 0.311396
410 0.310358
415 0.230661
420 0.241785
425 0.277368
430 0.266789
435 0.259008
440 0.285392
445 0.356249
450 0.303279
455 0.304778
460 0.26904
465 0.443776
470 0.322467
475 0.367465
480 0.266674
485 0.45129
490 0.372896
495 0.263214
500 0.331158
505 0.441382
510 0.385525
515 0.29983
520 0.334525
525 0.323263
530 0.529856
535 0.36112
540 0.525702
545 0.559223
550 0.673278
555 13.0216
560 260.492
565 491.121
570 141.865
575 17.4019
580 2.56476
585 0.689173
590 0.53987
595 0.393972
600 0.493765
Ex : 573
200 0.22835
205 0.211765
210 0.267919
215 0.214404
220 0.258091
225 0.340118
230 0.265684
235 0.302114
240 0.400706
245 0.238855
250 0.329332
255 0.293012
260 0.291526
265 0.270255
270 0.198887
275 0.304881
280 0.226442
285 0.335602
290 0.347745
295 0.275489
300 0.321364
305 0.296357
310 0.166907
315 0.233114
320 0.272279
325 0.259973
330 0.243485
335 0.250952
340 0.205626
345 0.285361
350 0.253195
355 0.243502
360 0.288604
365 0.344083
370 0.287045
375 0.253709
380 0.27404
385 0.300424
390 0.246068
395 0.288464
400 0.451408
405 0.328
410 0.419233
415 0.326294
420 0.348888
425 0.22782
430 0.286281
435 0.2846
440 0.373534
445 0.355699
450 0.397398
455 0.29284
460 0.305237
465 0.244371
470 0.392708
475 0.411433
480 0.407753
485 0.296249
490 0.322738
495 0.32349
500 0.335424
505 0.250252
510 0.312028
515 0.315294
520 0.389003
525 0.350473
530 0.276522
535 0.39612
540 0.34293
545 0.491089
550 0.53932
555 0.541579
560 8.34349
565 162.427
570 330.398
575 116.161
580 14.3841
585 2.19759
590 0.84088
595 0.364494
600 1.15369
Ex : 578
200 0.299686
205 0.22528
210 0.328686
215 0.317515
220 0.298953
225 0.331644
230 0.2838
235 0.275642
240 0.238029
245 0.197625
250 0.211904
255 0.304201
260 0.365111
265 0.294728
270 0.311819
275 0.220122
280 0.211998
285 0.245712
290 0.228572
295 0.287025
300 0.200674
305 0.358236
310 0.201412
315 0.256046
320 0.305558
325 0.281994
330 0.237044
335 0.188103
340 0.255444
345 0.428186
350 0.31018
355 0.379513
360 0.373656
365 0.296692
370 0.251638
375 0.253369
380 0.265988
385 0.28543
390 0.29057
395 0.272813
400 0.324379
405 0.344868
410 0.303387
415 0.229824
420 0.314978
425 0.285874
430 0.248405
435 0.243903
440 0.307586
445 0.360501
450 0.347502
455 0.30619
460 0.265866
465 0.27899
470 0.349796
475 0.208705
480 0.282053
485 0.251684
490 0.36006
495 0.286466
500 0.368027
505 0.306098
510 0.255421
515 0.260488
520 0.327567
525 0.296869
530 0.320649
535 0.371313
540 0.3769
545 0.431622
550 0.483339
555 0.57386
560 0.615859
565 14.541
570 213.646
575 378.188
580 121.893
585 14.9383
590 2.1654
595 0.732211
600 0.205558
Ex : 583
200 0.273952
205 0.244096
210 0.309025
215 0.222529
220 0.256752
225 0.156404
230 0.248895
235 0.259123
240 0.218465
245 0.393373
250 0.281258
255 0.232097
260 0.274445
265 0.228435
270 0.345644
275 0.351441
280 0.278831
285 0.26719
290 0.267754
295 0.262437
300 0.27074
305 0.222273
310 0.274127
315 0.273358
320 0.481937
325 0.237086
330 0.306047
335 0.187391
340 0.162559
345 0.378927
350 0.243309
355 0.337173
360 0.379827
365 0.288282
370 0.223205
375 0.340555
380 0.368089
385 0.335461
390 0.206657
395 0.203615
400 0.228669
405 0.302676
410 0.298918
415 0.343443
420 0.310931
425 0.330885
430 0.323956
435 0.244197
440 0.222529
445 0.286412
450 0.287862
455 0.351761
460 0.307986
465 0.295161
470 0.258061
475 0.41806
480 0.402298
485 0.343354
490 0.305357
495 0.300793
500 0.357853
505 0.349245
510 0.323005
515 0.277841
520 0.294742
525 0.320633
530 0.353887
535 0.289147
540 0.400306
545 0.302222
550 0.354046
555 0.599293
560 0.511299
565 0.57109
570 8.09868
575 179.534
580 436.538
585 131.974
590 16.0626
595 2.33485
600 0.392297
Ex : 588
200 0.350506
205 0.247688
210 0.203766
215 0.208209
220 0.256426
225 0.282831
230 0.258826
235 0.228199
240 0.368383
245 0.274365
250 0.364058
255 0.229688
260 0.257636
265 0.258815
270 0.153933
275 0.24566
280 0.238065
285 0.214548
290 0.299227
295 0.331954
300 0.315383
305 0.239073
310 0.257898
315 0.258593
320 0.206668
325 0.285987
330 0.268529
335 0.279978
340 0.290813
345 0.267978
350 0.258903
355 0.281057
360 0.297671
365 0.398458
370 0.385414
375 0.264269
380 0.259969
385 0.230599
390 0.202098
395 0.273985
400 0.254107
405 0.190516
410 0.337833
415 0.376227
420 0.306602
425 0.286835
430 0.27153
435 0.363245
440 0.334452
445 0.276586
450 0.230831
455 0.389412
460 0.40284
465 0.438268
470 0.303546
475 0.364946
480 0.368547
485 0.236659
490 0.399096
495 0.339823
500 0.492154
505 0.309342
510 0.327679
515 0.398101
520 0.279914
525 0.255726
530 0.250144
535 0.308742
540 0.349221
545 0.515126
550 0.395182
555 0.533694
560 0.383775
565 0.434315
570 0.522044
575 6.08346
580 163.418
585 363.398
590 138.367
595 17.1616
600 2.91703
Ex : 593
200 0.329044
205 0.246693
210 0.3371
215 0.35912
220 0.311829
225 0.398291
230 0.265485
235 0.340473
240 0.281551
245 0.310042
250 0.272349
255 0.295428
260 0.310853
265 0.263395
270 0.360637
275 0.353373
280 0.262257
285 0.35615
290 0.32861
295 0.309566
300 0.248838
305 0.232157
310 0.329538
315 0.191871
320 0.298139
325 0.252315
330 0.245162
335 0.307874
340 0.327598
345 0.305095
350 0.318697
355 0.374868
360 0.47985
365 0.22325
370 0.239891
375 0.304718
380 0.342949
385 0.26792
390 0.324796
395 0.270861
400 0.351424
405 0.406996
410 0.297065
415 0.288323
420 0.325027
425 0.395372
430 0.268959
435 0.273962
440 0.385723
445 0.313465
450 0.349613
455 0.26863
460 0.309283
465 0.314012
470 0.377817
475 0.374076
480 0.369785
485 0.320366
490 0.284067
495 0.288322
500 0.291354
505 0.302073
510 0.374318
515 0.363715
520 0.327065
525 0.29884
530 0.29977
535 0.316989
540 0.29887
545 0.318404
550 0.397224
555 0.341042
560 0.388644
565 0.443116
570 0.512085
575 0.553486
580 4.6374
585 120.582
590 216.078
595 64.1291
600 8.77693
Ex : 598
200 0.369098
205 0.315951
210 0.269301
215 0.378377
220 0.354886
225 0.220451
230 0.216473
235 0.221739
240 0.318513
245 0.40804
250 0.247648
255 0.400594
260 0.224169
265 0.259782
270 0.302082
275 0.335419
280 0.305716
285 0.320435
290 0.278203
295 0.304442
300 0.374181
305 0.19569
310 0.295026
315 0.320432
320 0.285956
325 0.33763
330 0.311473
335 0.229843
340 0.280208
345 0.312782
350 0.360116
355 0.28442
360 0.208339
365 0.306587
370 0.290031
375 0.315103
380 0.370626
385 0.537564
390 0.355772
395 0.363117
400 0.258527
405 0.335463
410 0.301742
415 0.361358
420 0.41209
425 0.559298
430 0.365321
435 0.274387
440 0.347983
445 0.321284
450 0.334246
455 0.234532
460 0.384854
465 0.494223
470 0.380856
475 0.472822
480 0.272657
485 0.26829
490 0.187396
495 0.311368
500 0.314664
505 0.31586
510 0.345417
515 0.350755
520 0.349399
525 0.411001
530 0.369325
535 0.285596
540 0.338699
545 0.438119
550 0.352891
555 0.329681
560 0.281832
565 0.328047
570 0.433682
575 0.513912
580 0.722103
585 6.69868
590 119.913
595 226.228
600 162.09
Ex : 603
200 0.380886
205 0.269505
210 0.260174
215 0.286177
220 0.272051
225 0.357944
230 0.200981
235 0.239407
240 0.378018
245 0.351262
250 0.255332
255 0.246541
260 0.284344
265 0.370422
270 0.341128
275 0.38163
280 0.373529
285 0.345625
290 0.247807
295 0.235517
300 0.239304
305 0.349537
310 0.219637
315 0.381703
320 0.323996
325 0.232607
330 0.383478
335 0.382781
340 0.374005
345 0.3081
350 0.360216
355 0.259264
360 0.324249
365 0.229653
370 0.21455
375 0.337591
380 0.268637
385 0.311981
390 0.327312
395 0.196792
400 0.284317
405 0.392665
410 0.461323
415 0.41104
420 0.379593
425 0.312778
430 0.457586
435 0.333488
440 0.379771
445 0.3382
450 0.347581
455 0.302634
460 0.439181
465 0.299818
470 0.410942
475 0.461925
480 0.265554
485 0.247205
490 0.304757
495 0.26896
500 0.298483
505 0.301597
510 0.368879
515 0.386096
520 0.374412
525 0.319423
530 0.409146
535 0.375439
540 0.303898
545 0.274659
550 0.431528
555 0.338827
560 0.414868
565 0.371783
570 0.461344
575 0.530015
580 0.458081
585 0.507516
590 5.9872
595 210.64
600 518.003
