File format V 1.0
ven. 20. janv. 19:02:48 2017
Operator : 
Comments : 

=============================================
SpectroFluorometer parameters
Mode : 3D measurement
Data : Fluorescence
Phospho. : Ordinary
Spectrum : Fluorescence

Scan speed : 2400 nm/mn
Response : 100 ms
PM Voltage : 700 V
Shutter : On

Lambda Ex. Start : 203
Lambda Ex. End : 603
Lambda Ex. Step : 5
Ex. Slit : 5 nm

Lambda Em. Start : 200
Lambda Em. End : 600
Lambda Em. Step : 5
Em. Slit : 5 nm

Repetition : 1
Decal lambda em : 10
=============================================
DATA
Ex : 203
200 7.21951
205 8.30598
210 8.92102
215 10.9293
220 10.6098
225 6.65558
230 6.34315
235 5.28175
240 8.10033
245 11.9255
250 10.8587
255 9.14011
260 9.66695
265 7.9903
270 11.3408
275 8.24681
280 8.93109
285 10.4022
290 9.59389
295 11.8441
300 9.5421
305 10.1974
310 5.90914
315 6.92675
320 10.0763
325 7.44248
330 9.88371
335 7.42568
340 8.06593
345 9.72608
350 7.98423
355 10.1919
360 12.9656
365 11.8033
370 7.10349
375 7.66137
380 9.4965
385 9.57657
390 7.95468
395 9.49304
400 8.53675
405 10.9856
410 9.7899
415 7.86987
420 8.42395
425 7.24372
430 7.75281
435 10.2992
440 12.6381
445 10.5729
450 11.493
455 12.6144
460 10.7319
465 10.412
470 8.68197
475 7.79885
480 7.49014
485 15.546
490 9.39618
495 8.67238
500 10.5414
505 10.1023
510 9.01257
515 9.18211
520 9.60742
525 10.8005
530 9.0777
535 9.20057
540 8.83856
545 7.70718
550 9.05994
555 10.8772
560 9.51655
565 6.01628
570 8.50282
575 8.47166
580 10.9152
585 9.33824
590 8.0529
595 7.48638
600 21.8254
Ex : 208
200 9.36
205 9.23645
210 8.49518
215 11.0164
220 9.94624
225 7.19467
230 9.07987
235 7.23238
240 12.4411
245 10.5732
250 11.4152
255 9.86565
260 9.56312
265 7.13313
270 8.41396
275 10.3061
280 8.6544
285 7.85601
290 9.50513
295 8.25266
300 9.31454
305 13.1623
310 8.31999
315 11.3821
320 9.6713
325 8.97398
330 9.18067
335 9.84522
340 12.1321
345 10.3644
350 7.40309
355 8.77993
360 8.31133
365 10.9639
370 7.51987
375 10.8004
380 9.66214
385 8.59353
390 9.23273
395 11.6356
400 8.09111
405 13.1392
410 9.26202
415 9.50383
420 9.7663
425 10.7027
430 10.7697
435 14.9134
440 10.075
445 9.68627
450 10.5639
455 8.6479
460 8.08604
465 11.3189
470 10.509
475 7.52999
480 8.74281
485 10.3506
490 12.5007
495 8.30015
500 10.2323
505 9.2727
510 12.3757
515 13.6397
520 10.7325
525 9.23569
530 8.75765
535 11.4072
540 10.0719
545 13.1582
550 8.8554
555 8.5485
560 9.98325
565 8.63007
570 7.6712
575 11.0727
580 8.40505
585 7.01427
590 8.47306
595 9.14981
600 5.82671
Ex : 213
200 7.3653
205 8.729
210 8.48913
215 8.73209
220 10.5131
225 10.1785
230 10.3437
235 10.8016
240 12.5964
245 10.2173
250 10.6389
255 11.4415
260 9.94779
265 8.08193
270 6.91703
275 8.3964
280 9.02209
285 9.06931
290 6.34928
295 5.66229
300 6.19054
305 11.8605
310 7.8975
315 8.02844
320 6.98349
325 7.9693
330 6.26349
335 5.60839
340 7.86618
345 11.2516
350 8.46893
355 7.28275
360 7.0449
365 6.76547
370 9.42092
375 9.82484
380 7.61962
385 7.7659
390 11.2523
395 8.08636
400 10.5491
405 8.89986
410 10.8525
415 7.56985
420 8.07135
425 8.98254
430 9.43693
435 8.91276
440 8.28645
445 8.73033
450 10.0369
455 6.46759
460 11.1662
465 8.73493
470 10.0219
475 8.35293
480 10.42
485 9.18679
490 11.0546
495 11.3002
500 7.42179
505 6.6049
510 9.50963
515 10.2203
520 9.15987
525 7.82815
530 9.41642
535 8.74263
540 8.46719
545 11.8949
550 10.5391
555 10.3787
560 11.8498
565 6.64305
570 8.49088
575 8.73501
580 11.0192
585 9.125
590 8.72442
595 7.47522
600 0.850652
Ex : 218
200 14.3272
205 10.0152
210 10.2336
215 10.0348
220 8.33459
225 10.0159
230 9.3217
235 10.4035
240 8.70283
245 7.49061
250 12.3294
255 10.9297
260 15.3096
265 8.23829
270 7.58401
275 10.3744
280 11.4605
285 7.40779
290 7.93261
295 7.46386
300 12.3871
305 6.99727
310 12.1175
315 7.78885
320 8.66383
325 11.5813
330 10.4864
335 8.65254
340 10.4539
345 9.12596
350 8.23682
355 8.44185
360 8.34422
365 9.8441
370 12.4763
375 10.625
380 8.46414
385 10.7992
390 7.01054
395 9.15099
400 10.9492
405 11.0837
410 12.9803
415 9.95695
420 8.16578
425 8.98907
430 11.7681
435 9.95389
440 11.7836
445 11.1967
450 13.4377
455 11.2815
460 10.0789
465 7.05497
470 7.92559
475 7.96067
480 9.17344
485 10.8262
490 8.60914
495 8.52439
500 13.4764
505 10.0372
510 8.40559
515 11.4488
520 11.6462
525 5.2811
530 7.70326
535 12.9207
540 6.51578
545 5.53715
550 11.2392
555 8.94323
560 9.06986
565 7.38595
570 8.39977
575 8.66252
580 8.53069
585 7.65645
590 7.02828
595 10.3348
600 27.7622
Ex : 223
200 5.34434
205 8.41481
210 6.3696
215 7.31476
220 10.4165
225 9.84139
230 7.02529
235 10.1189
240 11.1656
245 8.65175
250 9.26843
255 9.66295
260 10.6568
265 9.92704
270 9.79029
275 9.56775
280 6.47016
285 12.7021
290 8.87904
295 7.56025
300 7.55698
305 11.7064
310 6.97912
315 9.09268
320 7.34991
325 7.43587
330 7.92349
335 7.38394
340 9.06273
345 9.83695
350 8.04313
355 9.36028
360 9.24111
365 8.98678
370 9.10253
375 6.11568
380 8.77718
385 7.92228
390 10.8823
395 11.7304
400 6.87665
405 9.08424
410 9.23114
415 11.9325
420 12.0565
425 10.7411
430 8.27145
435 8.07774
440 9.27316
445 11.2193
450 8.61448
455 8.62282
460 9.43059
465 10.9457
470 10.9495
475 9.22185
480 9.83421
485 7.96026
490 7.57198
495 5.39789
500 9.1703
505 9.2557
510 10.8054
515 9.48488
520 7.85397
525 8.77805
530 7.66
535 9.26341
540 6.70668
545 9.20264
550 7.55119
555 9.54409
560 8.59099
565 7.58115
570 8.79042
575 7.01652
580 5.58076
585 10.5082
590 10.2311
595 9.2214
600 1.04936
Ex : 228
200 10.65
205 6.37622
210 6.82751
215 7.32152
220 7.4456
225 8.78228
230 7.26264
235 6.68904
240 8.88083
245 10.4859
250 9.27149
255 7.30069
260 8.24651
265 7.70235
270 7.2049
275 7.8605
280 9.7713
285 8.09798
290 7.53396
295 8.25771
300 10.1482
305 8.00312
310 8.89397
315 8.67471
320 8.32492
325 6.52673
330 9.88946
335 10.1097
340 8.32352
345 6.70549
350 14.772
355 9.45611
360 7.13707
365 9.20183
370 9.38694
375 9.88142
380 7.06658
385 9.85555
390 10.9123
395 10.2472
400 8.2712
405 8.67365
410 9.66708
415 8.98384
420 9.7616
425 8.93766
430 11.151
435 8.6997
440 7.49703
445 7.53434
450 8.63372
455 6.33892
460 9.35017
465 7.19958
470 8.30991
475 7.01928
480 9.09199
485 12.0494
490 7.48393
495 9.22996
500 7.00217
505 9.897
510 7.91653
515 7.81326
520 6.45146
525 9.75473
530 9.59409
535 11.539
540 7.5427
545 10.6798
550 6.81279
555 9.02147
560 10.2065
565 8.27462
570 6.98108
575 9.58228
580 9.7348
585 8.186
590 8.87558
595 7.88921
600 11.912
Ex : 233
200 4.88755
205 10.3452
210 10.4046
215 8.17976
220 11.4443
225 6.90529
230 5.61108
235 7.08667
240 7.24136
245 7.15953
250 9.20738
255 7.9558
260 7.94284
265 8.46825
270 10.198
275 6.23507
280 10.1359
285 7.79257
290 9.54049
295 9.32079
300 7.70912
305 6.02227
310 7.43409
315 7.53048
320 7.03095
325 8.46135
330 5.71411
335 6.52451
340 8.09274
345 8.20749
350 7.59652
355 8.44327
360 11.4099
365 8.99869
370 9.87193
375 7.29665
380 6.16926
385 7.00558
390 6.51631
395 9.16401
400 6.84083
405 9.11239
410 11.0252
415 9.54722
420 7.8966
425 8.39041
430 7.86719
435 5.26933
440 8.67785
445 8.28797
450 8.08425
455 6.65192
460 7.06442
465 7.74401
470 7.98583
475 11.841
480 8.79947
485 8.30901
490 7.69545
495 6.77153
500 8.67406
505 9.01761
510 8.80075
515 8.22775
520 8.46138
525 7.07264
530 8.06802
535 7.53084
540 8.22811
545 9.89965
550 9.40746
555 10.4805
560 9.28713
565 9.75409
570 9.14097
575 10.3417
580 8.48433
585 7.85061
590 9.33563
595 8.74034
600 6.75494
Ex : 238
200 8.75182
205 6.78438
210 8.85578
215 7.3845
220 6.8966
225 6.41712
230 6.72139
235 6.19287
240 10.1414
245 8.81005
250 9.98003
255 7.72582
260 10.6785
265 6.90846
270 3.45437
275 6.40417
280 8.8312
285 9.28818
290 10.2438
295 9.28043
300 8.48185
305 7.5926
310 6.67764
315 7.87985
320 9.35621
325 10.4946
330 9.34276
335 5.00547
340 7.11513
345 7.56111
350 6.81398
355 7.46368
360 9.56367
365 10.0321
370 7.60016
375 8.48016
380 8.00064
385 9.03564
390 10.6962
395 5.8042
400 6.58512
405 7.97326
410 8.71661
415 6.15562
420 8.85154
425 6.50421
430 8.93754
435 8.09351
440 5.412
445 7.5243
450 5.72708
455 7.7768
460 10.2596
465 8.25387
470 10.7672
475 10.0873
480 8.37919
485 7.45342
490 8.36902
495 6.31723
500 5.99421
505 7.95294
510 8.90556
515 9.89932
520 7.54549
525 8.13055
530 7.46672
535 7.67927
540 7.57763
545 8.16122
550 7.68602
555 7.37668
560 6.04065
565 7.39232
570 7.37979
575 5.0746
580 5.58616
585 7.45747
590 8.93482
595 8.59006
600 6.82646
Ex : 243
200 6.19601
205 5.74767
210 6.22884
215 6.36667
220 6.67557
225 7.71946
230 6.60942
235 9.13608
240 7.61257
245 6.19476
250 6.06546
255 6.44343
260 6.19214
265 7.44964
270 7.96902
275 6.51855
280 5.83231
285 7.21709
290 5.03294
295 8.0121
300 8.62458
305 9.18451
310 5.93376
315 7.02313
320 6.91371
325 6.56995
330 6.72383
335 6.58674
340 5.37451
345 6.04177
350 4.21562
355 7.79233
360 6.90883
365 7.45369
370 7.12046
375 7.89696
380 7.81217
385 8.95087
390 9.12734
395 7.04121
400 8.20092
405 6.9359
410 7.57686
415 6.54264
420 7.61186
425 6.7686
430 8.0792
435 5.55892
440 6.02899
445 5.21687
450 9.22264
455 7.22523
460 5.39069
465 8.30743
470 6.83918
475 7.89371
480 8.65462
485 7.02689
490 6.41599
495 7.99127
500 5.37134
505 5.75938
510 4.6632
515 5.52256
520 8.61009
525 7.71914
530 5.93347
535 7.3615
540 6.22805
545 6.9648
550 4.14509
555 4.77153
560 6.27534
565 5.36314
570 7.93087
575 4.04314
580 6.75069
585 5.48292
590 4.56698
595 6.35456
600 4.93259
Ex : 248
200 6.17729
205 7.75985
210 4.9736
215 4.09126
220 4.19124
225 6.0751
230 6.79382
235 4.98884
240 4.90229
245 6.06752
250 6.98199
255 5.22049
260 6.21089
265 5.17034
270 5.84105
275 5.66628
280 5.42646
285 6.70725
290 4.60764
295 6.21101
300 6.05987
305 3.7311
310 7.2481
315 5.68041
320 6.18392
325 5.81917
330 7.77238
335 5.04862
340 4.65775
345 3.96344
350 4.97637
355 6.10249
360 5.64282
365 6.71966
370 4.02255
375 5.85735
380 5.66838
385 7.19352
390 6.52101
395 5.1112
400 3.81468
405 4.52048
410 6.31039
415 4.48572
420 5.20123
425 5.45862
430 8.3521
435 5.14513
440 5.8246
445 4.86616
450 4.58241
455 6.04281
460 5.15362
465 5.8857
470 6.2627
475 5.01931
480 4.62275
485 4.5895
490 5.48261
495 5.97452
500 5.63249
505 5.0597
510 5.09927
515 5.64359
520 5.30521
525 6.44759
530 6.32243
535 6.56432
540 5.3766
545 3.64136
550 6.26876
555 5.03173
560 5.27051
565 5.21509
570 6.59396
575 6.21144
580 7.14455
585 4.61068
590 6.6833
595 7.24605
600 4.76326
Ex : 253
200 3.80365
205 4.81022
210 5.20364
215 3.90714
220 3.02589
225 5.31341
230 3.56005
235 3.87768
240 2.80161
245 4.29102
250 5.08469
255 4.87478
260 4.87574
265 4.71809
270 4.22392
275 4.97499
280 4.56237
285 7.05599
290 4.45435
295 5.38515
300 4.39565
305 3.70732
310 4.72508
315 3.69884
320 3.03625
325 4.34403
330 7.36782
335 4.78139
340 4.46476
345 4.95605
350 4.25267
355 5.19492
360 3.69392
365 4.92889
370 4.94505
375 3.90717
380 4.15546
385 4.80338
390 3.50978
395 5.03298
400 4.85189
405 4.71014
410 4.68749
415 5.95223
420 5.0859
425 5.2308
430 6.38568
435 4.40473
440 4.55395
445 4.91767
450 4.03532
455 4.89228
460 3.80614
465 5.7149
470 6.18911
475 5.3308
480 4.50756
485 4.7708
490 3.8972
495 5.09554
500 3.97275
505 4.65468
510 5.83221
515 4.31585
520 4.7063
525 4.22324
530 4.59165
535 5.39033
540 5.28918
545 5.42284
550 3.76343
555 4.22389
560 5.65122
565 5.72357
570 4.95105
575 4.3303
580 3.93958
585 5.57951
590 3.9292
595 4.35551
600 6.99447
Ex : 258
200 4.93609
205 3.60474
210 3.85786
215 3.3736
220 3.31428
225 3.893
230 3.79089
235 4.03366
240 4.15294
245 3.63712
250 3.77872
255 4.49149
260 2.35428
265 3.54618
270 3.48714
275 4.81137
280 3.01333
285 3.23517
290 3.86326
295 4.06329
300 3.32952
305 4.57953
310 3.53803
315 3.0629
320 3.29588
325 4.97891
330 5.7572
335 5.01629
340 3.55947
345 2.90482
350 2.80286
355 3.54399
360 4.41507
365 3.98504
370 4.13097
375 3.34904
380 5.91358
385 4.86366
390 3.88808
395 3.05459
400 4.40923
405 3.95642
410 3.65012
415 3.05148
420 5.64597
425 2.95128
430 3.63565
435 3.39231
440 5.65261
445 3.31917
450 3.20439
455 3.79741
460 3.06561
465 5.14011
470 4.24927
475 3.73296
480 5.29637
485 5.83079
490 3.7177
495 5.2596
500 4.82663
505 5.88292
510 5.23289
515 4.52633
520 3.89012
525 2.93831
530 3.49601
535 3.90706
540 4.25511
545 3.85281
550 3.4939
555 4.15679
560 3.45663
565 3.14126
570 3.25388
575 3.1625
580 4.21512
585 4.2765
590 4.84495
595 3.20154
600 3.18406
Ex : 263
200 3.32641
205 2.00437
210 2.37743
215 3.43556
220 2.41231
225 2.70731
230 2.91883
235 2.43177
240 2.49489
245 3.0216
250 3.03623
255 3.93837
260 3.87232
265 3.28051
270 2.76262
275 3.13634
280 3.78057
285 3.68008
290 2.6561
295 1.7828
300 2.45744
305 2.86496
310 2.01774
315 2.57394
320 2.65257
325 2.03945
330 3.27126
335 2.27359
340 2.17817
345 4.08445
350 2.72144
355 2.76665
360 2.41303
365 3.14021
370 3.6325
375 4.05413
380 3.688
385 3.07167
390 2.68847
395 2.75973
400 3.58027
405 2.81438
410 2.86231
415 2.96677
420 3.29162
425 3.95973
430 4.98205
435 3.13613
440 3.0724
445 3.86388
450 2.59073
455 3.25062
460 3.02852
465 3.23759
470 4.05959
475 3.86499
480 2.71961
485 4.19081
490 3.39749
495 2.18439
500 3.1859
505 3.35094
510 2.35276
515 2.41918
520 4.15363
525 3.58459
530 3.31606
535 2.49566
540 3.13601
545 3.448
550 2.88205
555 2.75528
560 3.10207
565 2.31502
570 2.62621
575 4.36118
580 2.92932
585 2.42554
590 3.35882
595 2.67068
600 1.60368
Ex : 268
200 2.03832
205 1.86932
210 2.17209
215 2.06685
220 1.87259
225 2.07296
230 2.98807
235 1.78666
240 1.90364
245 2.49058
250 1.94237
255 2.24574
260 2.14457
265 2.05673
270 2.05497
275 2.45254
280 2.94732
285 2.56544
290 3.09437
295 2.06801
300 2.33114
305 2.14002
310 1.87179
315 2.34437
320 3.08006
325 2.70883
330 2.64471
335 1.92072
340 2.93811
345 2.94548
350 2.1183
355 2.86959
360 3.47535
365 2.05982
370 3.2653
375 3.40753
380 3.38449
385 3.09151
390 2.84899
395 3.4509
400 2.21
405 2.67882
410 2.4069
415 1.46657
420 2.31423
425 2.71795
430 2.31016
435 2.19965
440 3.1471
445 2.1933
450 2.91873
455 2.42507
460 2.62606
465 3.03558
470 3.29204
475 2.38321
480 2.42873
485 3.10419
490 2.96449
495 2.08179
500 2.12035
505 2.301
510 1.96857
515 2.00068
520 3.15001
525 3.1486
530 2.82678
535 2.96967
540 2.51125
545 2.29689
550 1.74963
555 2.37962
560 2.94228
565 3.55719
570 2.50469
575 2.1909
580 1.93105
585 2.35047
590 2.70534
595 2.26284
600 0.257503
Ex : 273
200 1.79884
205 2.1315
210 1.83446
215 2.44097
220 1.46403
225 1.79794
230 1.98829
235 1.4166
240 2.28687
245 2.59121
250 1.74447
255 1.69171
260 1.57969
265 1.52551
270 1.97462
275 1.82827
280 1.21589
285 1.85273
290 1.66091
295 2.37671
300 1.65083
305 1.22278
310 1.56702
315 1.58946
320 1.92624
325 2.07321
330 2.17838
335 1.97938
340 1.9199
345 2.10823
350 2.11059
355 2.27845
360 1.77602
365 1.84593
370 2.4786
375 2.09816
380 2.27131
385 1.9055
390 2.72964
395 2.03059
400 2.56498
405 2.67855
410 2.32844
415 2.68078
420 2.83191
425 2.25065
430 2.47601
435 2.21096
440 1.73906
445 2.60789
450 3.10366
455 2.3084
460 3.11929
465 2.59674
470 2.37935
475 2.19863
480 2.01479
485 1.73126
490 2.2397
495 2.02034
500 2.00231
505 2.18715
510 2.38083
515 2.94606
520 2.13661
525 2.31124
530 2.06417
535 2.88651
540 2.48513
545 2.59251
550 2.37912
555 2.87473
560 2.84236
565 1.62916
570 2.06642
575 1.51174
580 1.81103
585 1.8664
590 1.84533
595 1.53154
600 5.52695
Ex : 278
200 1.1568
205 1.00351
210 1.53967
215 1.2375
220 1.78551
225 1.34523
230 1.61267
235 1.47907
240 1.54495
245 1.44089
250 1.36605
255 1.64634
260 2.18202
265 1.74826
270 2.13137
275 1.87971
280 1.33365
285 1.88769
290 1.65839
295 1.69184
300 1.67911
305 1.47004
310 1.71457
315 1.39946
320 1.76307
325 2.03197
330 1.86969
335 1.38438
340 1.58075
345 1.92433
350 1.96907
355 1.52987
360 1.47188
365 1.74129
370 1.68819
375 1.90347
380 1.77948
385 1.49301
390 1.56707
395 1.63917
400 1.88335
405 1.66395
410 2.13056
415 1.81872
420 1.81179
425 1.99087
430 2.19152
435 2.11687
440 2.17019
445 1.48963
450 1.55259
455 1.7751
460 2.06495
465 1.69651
470 1.71606
475 2.13494
480 1.93434
485 1.84091
490 1.62713
495 1.68456
500 2.44282
505 2.14689
510 1.39954
515 1.49001
520 1.56589
525 2.11022
530 2.24085
535 1.69062
540 1.7654
545 2.41857
550 2.37807
555 2.16022
560 1.2692
565 2.00997
570 1.55115
575 1.63683
580 1.53462
585 1.18508
590 1.84713
595 1.31974
600 3.45867
Ex : 283
200 1.57564
205 1.45931
210 1.17099
215 1.35786
220 1.03295
225 1.67753
230 1.56297
235 1.11949
240 1.10335
245 1.1177
250 1.47558
255 1.19129
260 1.30071
265 1.32522
270 1.19712
275 1.5153
280 1.29853
285 1.67087
290 1.51315
295 1.14696
300 1.08304
305 1.61535
310 1.55729
315 1.57541
320 1.57078
325 1.10361
330 1.46861
335 1.46234
340 1.53999
345 1.59818
350 1.73942
355 1.79382
360 1.31038
365 1.34421
370 1.32209
375 1.62047
380 1.7007
385 1.43144
390 1.79461
395 1.65733
400 1.57993
405 1.95398
410 1.64112
415 1.72893
420 2.26119
425 1.48203
430 1.55179
435 1.48339
440 1.47343
445 1.50861
450 1.40708
455 1.25806
460 1.5983
465 1.71058
470 1.65806
475 1.50138
480 1.74501
485 1.92112
490 1.60454
495 1.59909
500 1.48217
505 1.38675
510 1.78351
515 1.28916
520 1.33072
525 1.76073
530 1.32569
535 1.19239
540 1.30213
545 1.43499
550 1.86409
555 1.41841
560 1.91287
565 1.49496
570 1.33707
575 1.36738
580 1.20515
585 1.85543
590 2.00928
595 1.60619
600 1.5367
Ex : 288
200 0.811086
205 0.929213
210 1.06346
215 0.986145
220 0.684705
225 0.957087
230 0.763668
235 1.23261
240 0.891831
245 0.985667
250 1.15651
255 1.21245
260 0.974221
265 1.45101
270 1.12178
275 1.41021
280 0.977932
285 1.49065
290 1.45211
295 1.20848
300 1.04568
305 1.64834
310 1.14129
315 1.15637
320 1.15997
325 1.2003
330 1.34961
335 1.29866
340 1.03399
345 1.03097
350 0.948167
355 1.04038
360 0.935662
365 1.63791
370 1.49902
375 1.37658
380 1.12228
385 1.73958
390 1.62433
395 1.7298
400 1.62771
405 1.32521
410 1.50176
415 1.66321
420 1.38783
425 1.05361
430 1.56384
435 1.78672
440 1.50514
445 2.1333
450 1.17933
455 1.45049
460 1.21221
465 1.13424
470 1.28994
475 1.57565
480 1.2328
485 1.58544
490 1.277
495 1.30024
500 1.32555
505 1.15821
510 1.3852
515 1.77098
520 1.61744
525 1.11832
530 1.10269
535 1.16822
540 1.34707
545 0.981533
550 0.907929
555 0.601214
560 0.924148
565 1.35861
570 1.27595
575 1.65394
580 1.25964
585 1.05481
590 1.36152
595 0.865814
600 0.0985263
Ex : 293
200 1.11271
205 0.961477
210 1.20271
215 1.18327
220 0.907613
225 1.27568
230 0.841103
235 0.988387
240 1.10286
245 0.985615
250 1.14728
255 1.32931
260 1.29361
265 0.712916
270 0.913362
275 0.852781
280 0.845681
285 1.06433
290 1.41289
295 1.13941
300 1.04742
305 0.913093
310 0.965517
315 0.720855
320 1.03998
325 1.03323
330 0.846273
335 1.02436
340 1.21499
345 1.08369
350 1.02152
355 1.1257
360 1.26208
365 0.8788
370 1.32155
375 0.908646
380 0.949731
385 1.52393
390 1.20228
395 1.20526
400 1.27026
405 1.55228
410 1.42425
415 1.44416
420 1.10851
425 1.34478
430 1.29027
435 1.31493
440 1.40158
445 1.11393
450 1.3696
455 1.12161
460 1.18843
465 1.12918
470 1.22588
475 1.26065
480 1.02319
485 1.323
490 1.09279
495 1.14623
500 1.13725
505 1.3248
510 1.238
515 1.46954
520 0.79071
525 1.18796
530 0.848124
535 1.05925
540 0.980603
545 0.892796
550 0.890143
555 0.818248
560 1.00946
565 0.86939
570 0.853912
575 1.47809
580 1.25521
585 1.13897
590 1.32987
595 0.863231
600 0.0982325
Ex : 298
200 1.16618
205 0.824479
210 0.914104
215 0.820161
220 0.680773
225 0.871984
230 0.591732
235 0.792344
240 1.22204
245 1.00243
250 0.667904
255 0.856895
260 0.717403
265 0.905454
270 0.643214
275 0.774789
280 0.995007
285 0.899594
290 0.707436
295 1.07182
300 0.935478
305 0.871117
310 0.649149
315 0.682572
320 0.966106
325 0.834473
330 0.737885
335 0.937865
340 0.742472
345 1.02858
350 0.803941
355 1.64113
360 0.983211
365 0.746553
370 0.923195
375 1.09445
380 0.980383
385 1.1004
390 1.26398
395 1.24487
400 1.23532
405 0.949832
410 1.20727
415 1.22614
420 0.916131
425 1.03125
430 1.26716
435 1.20005
440 1.33228
445 1.10365
450 1.10496
455 1.25035
460 1.10782
465 1.23642
470 1.21983
475 1.04035
480 1.12598
485 1.11638
490 1.10014
495 0.866694
500 0.916432
505 1.14489
510 0.84835
515 1.06746
520 1.1125
525 0.82405
530 0.800321
535 0.684258
540 0.747767
545 0.906234
550 0.988582
555 0.863811
560 0.818199
565 0.87876
570 0.894179
575 0.630999
580 0.828708
585 0.898486
590 1.11229
595 1.45718
600 0.8463
Ex : 303
200 0.832244
205 0.959438
210 0.661103
215 0.755697
220 0.63105
225 0.499454
230 0.74596
235 0.628434
240 0.625229
245 0.691101
250 0.457979
255 0.63326
260 0.800726
265 0.867321
270 0.554031
275 0.686418
280 0.62241
285 0.77132
290 0.885941
295 1.20987
300 1.10424
305 0.740194
310 0.753199
315 0.791488
320 0.847535
325 0.726933
330 0.697518
335 0.764095
340 0.759647
345 0.741408
350 1.02857
355 1.07283
360 0.99626
365 1.09233
370 0.90703
375 1.1757
380 0.931471
385 0.933537
390 1.02374
395 0.983591
400 0.839312
405 1.1146
410 1.03003
415 0.84443
420 1.03234
425 1.28031
430 1.55261
435 1.04652
440 1.11534
445 1.10906
450 1.31694
455 0.778191
460 1.09688
465 0.893295
470 0.968337
475 0.918471
480 0.828528
485 0.92641
490 0.981891
495 0.757674
500 0.767132
505 0.906182
510 1.06654
515 0.983858
520 1.02155
525 0.59749
530 0.752965
535 0.480563
540 0.656992
545 0.808981
550 0.867733
555 0.557428
560 0.642575
565 0.956078
570 0.637865
575 1.03156
580 0.811874
585 0.510017
590 0.716835
595 1.05464
600 1.87857
Ex : 308
200 0.732584
205 0.645214
210 0.718898
215 0.878819
220 0.639711
225 0.578747
230 0.837854
235 0.567852
240 0.606697
245 0.706409
250 0.607155
255 0.660373
260 0.5022
265 0.553158
270 0.554069
275 0.59546
280 0.602708
285 0.45933
290 0.69448
295 0.654747
300 0.583585
305 0.895791
310 0.731162
315 0.646086
320 0.900589
325 0.879669
330 0.657433
335 0.71107
340 0.733758
345 0.755742
350 0.776129
355 0.7803
360 0.729407
365 0.963984
370 1.05159
375 0.886215
380 0.791953
385 1.03525
390 1.00459
395 0.834341
400 0.851095
405 1.06921
410 0.878459
415 1.24162
420 1.09961
425 1.24247
430 0.982496
435 1.04882
440 1.00441
445 1.10512
450 0.903951
455 1.08091
460 0.765673
465 0.916188
470 0.811036
475 0.854319
480 0.812788
485 1.08454
490 0.737118
495 0.97209
500 0.593093
505 0.793562
510 0.750647
515 0.761155
520 0.866292
525 0.705322
530 0.604244
535 0.517901
540 0.643697
545 0.551932
550 0.716904
555 0.740531
560 0.664727
565 0.892796
570 0.659757
575 0.579991
580 0.830732
585 0.558384
590 0.517208
595 0.689148
600 0.721831
Ex : 313
200 0.396076
205 0.560045
210 0.496901
215 0.519961
220 0.662133
225 0.642186
230 0.626442
235 0.522367
240 0.572933
245 0.499128
250 0.457521
255 0.529427
260 0.601028
265 0.406092
270 0.55211
275 0.524419
280 0.57477
285 0.479647
290 0.441918
295 0.498793
300 0.399619
305 0.793066
310 0.771047
315 0.493866
320 0.781852
325 0.575939
330 0.771837
335 0.860355
340 0.822128
345 0.816651
350 0.813478
355 1.10124
360 0.965931
365 1.13706
370 0.991197
375 1.29827
380 1.08786
385 1.36636
390 1.24199
395 1.35949
400 1.40381
405 1.28862
410 1.3251
415 1.46147
420 1.57815
425 1.54998
430 1.46826
435 1.38564
440 1.31614
445 1.29936
450 1.5498
455 1.2954
460 1.45365
465 1.12803
470 1.21242
475 0.950701
480 0.923413
485 0.795593
490 0.942907
495 1.08769
500 0.73765
505 0.794529
510 0.848208
515 0.804018
520 0.801619
525 0.859062
530 0.661869
535 0.828984
540 0.664719
545 0.592826
550 0.765344
555 0.47109
560 0.529955
565 0.567324
570 0.4803
575 0.65985
580 0.649588
585 0.466336
590 0.62046
595 0.536028
600 1.09668
Ex : 318
200 0.583312
205 0.533328
210 0.484537
215 0.609779
220 0.498805
225 0.760492
230 0.473116
235 0.429031
240 0.528114
245 0.673186
250 0.515089
255 0.530452
260 0.44979
265 0.551876
270 0.555137
275 0.491748
280 0.497593
285 0.649604
290 0.627856
295 0.460133
300 0.730219
305 0.377745
310 0.675119
315 1.40466
320 0.838543
325 0.601696
330 0.681909
335 1.16206
340 1.25848
345 2.01705
350 2.62273
355 3.23615
360 3.61289
365 4.74761
370 5.40529
375 5.90961
380 7.21967
385 8.19078
390 8.59586
395 9.5219
400 9.39593
405 9.94095
410 10.4266
415 10.4194
420 10.3933
425 9.50229
430 9.50956
435 9.16149
440 9.09322
445 8.41335
450 8.31148
455 7.73348
460 7.43349
465 6.84908
470 5.7507
475 6.00423
480 4.89876
485 4.81701
490 3.9746
495 3.45672
500 3.10637
505 3.04874
510 2.51156
515 2.32009
520 1.79643
525 1.71697
530 1.63952
535 1.51046
540 1.30612
545 1.24134
550 1.18116
555 0.988324
560 1.03993
565 1.06855
570 0.769051
575 0.568558
580 0.516047
585 0.521643
590 0.536373
595 0.616998
600 0.985003
Ex : 323
200 0.443719
205 0.473054
210 0.508394
215 0.342234
220 0.393426
225 0.381718
230 0.434137
235 0.501617
240 0.383291
245 0.530837
250 0.449143
255 0.441154
260 0.390383
265 0.38462
270 0.578686
275 0.453909
280 0.498818
285 0.414926
290 0.553016
295 0.467498
300 0.47051
305 0.447817
310 0.451939
315 4.20248
320 17.7359
325 7.95022
330 2.92971
335 3.76075
340 4.72177
345 6.26124
350 8.8296
355 12.4361
360 14.5286
365 17.038
370 20.0902
375 23.7185
380 27.2087
385 29.1518
390 31.9795
395 33.5963
400 35.5139
405 35.5529
410 36.2165
415 36.5947
420 36.1753
425 35.0756
430 34.2121
435 33.7541
440 33.0617
445 32.2575
450 29.6719
455 28.6377
460 26.5734
465 23.6309
470 21.9697
475 20.3968
480 18.69
485 16.7401
490 14.2133
495 13.288
500 12.2586
505 10.889
510 9.04237
515 8.49804
520 7.31894
525 6.08014
530 5.69034
535 4.96517
540 4.09744
545 3.46837
550 3.11979
555 2.44652
560 2.54892
565 2.29696
570 2.0872
575 1.32092
580 1.07466
585 1.041
590 0.756803
595 0.642631
600 2.26754
Ex : 328
200 0.451317
205 0.56397
210 0.568542
215 0.4691
220 0.424441
225 0.366175
230 0.370266
235 0.43153
240 0.470951
245 0.512516
250 0.386146
255 0.387527
260 0.317481
265 0.427997
270 0.389198
275 0.513574
280 0.423769
285 0.44024
290 0.450881
295 0.530278
300 0.543694
305 0.606053
310 0.401798
315 1.19284
320 37.4806
325 85.3896
330 27.6006
335 6.90662
340 6.28337
345 6.92287
350 9.35328
355 13.0813
360 18.0157
365 19.7365
370 22.4127
375 25.5345
380 29.0167
385 31.8559
390 34.4759
395 36.8002
400 37.5671
405 38.3436
410 38.7784
415 38.4792
420 36.714
425 37.3266
430 36.1659
435 34.5207
440 34.1527
445 33.016
450 31.337
455 28.6559
460 26.6725
465 25.7522
470 24.044
475 22.2934
480 20.1944
485 18.8612
490 16.8772
495 14.8439
500 13.7538
505 12.7859
510 10.9658
515 9.86112
520 8.56799
525 7.93693
530 6.38367
535 6.10966
540 5.07464
545 4.67347
550 3.86085
555 3.48501
560 3.19668
565 2.90747
570 2.47354
575 1.88948
580 1.40867
585 1.20911
590 1.10828
595 0.977093
600 0.525519
Ex : 333
200 0.407803
205 0.367873
210 0.441318
215 0.314839
220 0.386242
225 0.363106
230 0.36851
235 0.379808
240 0.455732
245 0.382574
250 0.510029
255 0.467789
260 0.498837
265 0.409388
270 0.270841
275 0.418326
280 0.496412
285 0.338578
290 0.391573
295 0.369395
300 0.371501
305 0.459312
310 0.474077
315 0.357163
320 4.95673
325 95.5335
330 164.82
335 43.719
340 8.86193
345 5.92429
350 6.59558
355 7.05423
360 10.0469
365 14.6759
370 15.8687
375 16.774
380 16.6318
385 18.3767
390 18.9214
395 20.0994
400 21.2014
405 21.3369
410 21.7846
415 21.6103
420 21.5691
425 20.2831
430 19.9445
435 19.9294
440 19.0282
445 18.7857
450 17.9576
455 17.6971
460 16.9987
465 15.8444
470 15.0348
475 15.0148
480 14.0981
485 13.6372
490 12.7423
495 11.1906
500 10.4173
505 9.61218
510 9.20194
515 8.55947
520 7.76125
525 6.49566
530 5.73403
535 5.5517
540 4.8414
545 4.30902
550 3.86109
555 3.55439
560 3.02497
565 2.5631
570 2.20967
575 1.73741
580 1.67064
585 1.41442
590 1.12537
595 0.939636
600 1.54109
Ex : 338
200 0.389874
205 0.39616
210 0.335577
215 0.330133
220 0.291597
225 0.286275
230 0.384149
235 0.361954
240 0.30934
245 0.385892
250 0.366155
255 0.275208
260 0.271161
265 0.302031
270 0.464026
275 0.354798
280 0.325653
285 0.509301
290 0.392292
295 0.457303
300 0.420478
305 0.443042
310 0.44546
315 0.435984
320 0.51356
325 9.472
330 143.108
335 209.605
340 52.6964
345 8.95504
350 4.91285
355 4.36408
360 4.29787
365 6.38285
370 11.1137
375 12.3518
380 11.2517
385 10.1054
390 9.6574
395 10.8277
400 11.7961
405 11.4378
410 11.3714
415 11.4068
420 11.3866
425 11.0502
430 11.2836
435 11.156
440 11.1206
445 11.4673
450 11.4737
455 11.4732
460 12.0911
465 11.7104
470 11.8779
475 11.6777
480 11.4423
485 11.6679
490 11.083
495 10.1417
500 9.8552
505 9.45713
510 8.87739
515 8.15025
520 7.44852
525 6.87492
530 6.49546
535 5.55527
540 5.32995
545 4.66088
550 4.46044
555 3.75212
560 3.49222
565 2.65838
570 2.37129
575 2.24376
580 1.48148
585 1.30847
590 1.15731
595 1.0176
600 1.02714
Ex : 343
200 0.357857
205 0.315386
210 0.315928
215 0.261811
220 0.249769
225 0.241482
230 0.388991
235 0.390043
240 0.312383
245 0.301943
250 0.346595
255 0.296776
260 0.262871
265 0.301299
270 0.341869
275 0.405315
280 0.261418
285 0.334766
290 0.363714
295 0.271931
300 0.35583
305 0.333466
310 0.290729
315 0.385305
320 0.434897
325 0.632045
330 11.2704
335 160.536
340 230.683
345 55.8774
350 8.70147
355 4.13943
360 3.21491
365 2.81989
370 4.21591
375 8.65544
380 9.79685
385 8.40029
390 7.16061
395 7.12351
400 7.7266
405 7.65703
410 7.97062
415 8.13991
420 8.14136
425 7.99519
430 8.20806
435 8.62374
440 8.62134
445 8.7376
450 9.60143
455 9.9161
460 10.7559
465 11.2755
470 11.5911
475 11.7129
480 12.0003
485 11.7488
490 12.1518
495 12.0128
500 11.2207
505 10.6115
510 10.2305
515 9.23596
520 8.4505
525 7.94817
530 7.23526
535 6.97205
540 5.85036
545 5.70482
550 5.26285
555 4.52866
560 4.2604
565 3.30484
570 3.11708
575 2.37577
580 2.12572
585 1.72597
590 1.40444
595 1.09433
600 0.194494
Ex : 348
200 0.239657
205 0.36772
210 0.325472
215 0.365487
220 0.36301
225 0.277483
230 0.352822
235 0.319853
240 0.25352
245 0.296093
250 0.29975
255 0.270934
260 0.270877
265 0.315925
270 0.198022
275 0.316553
280 0.257217
285 0.332208
290 0.252877
295 0.328842
300 0.348986
305 0.277078
310 0.260959
315 0.413405
320 0.398223
325 0.517133
330 0.505416
335 10.4319
340 157.458
345 235.309
350 60.6628
355 8.88147
360 3.60639
365 2.97329
370 2.5136
375 3.34327
380 6.4367
385 8.67353
390 7.28255
395 6.52469
400 5.96604
405 6.19574
410 6.45746
415 6.80329
420 7.12575
425 7.22112
430 7.23267
435 7.73252
440 8.42906
445 8.73578
450 9.69107
455 10.6545
460 11.9274
465 12.4727
470 13.0547
475 14.0356
480 13.8128
485 14.1113
490 14.5222
495 13.9738
500 13.3563
505 13.3585
510 12.7598
515 11.3087
520 10.6875
525 10.0994
530 9.06015
535 8.55042
540 7.67139
545 6.69399
550 6.16266
555 5.59282
560 4.99735
565 4.23866
570 3.65511
575 2.86756
580 2.40217
585 1.87831
590 1.51341
595 1.22325
600 1.37664
Ex : 353
200 0.321496
205 0.319319
210 0.303531
215 0.298989
220 0.269309
225 0.260416
230 0.26978
235 0.251737
240 0.33095
245 0.289069
250 0.235109
255 0.325368
260 0.344648
265 0.248784
270 0.376157
275 0.290465
280 0.33571
285 0.249272
290 0.313355
295 0.329693
300 0.342263
305 0.292544
310 0.433654
315 0.296754
320 0.391622
325 0.3491
330 0.40406
335 0.392756
340 10.5766
345 160.224
350 230.3
355 57.0167
360 8.28613
365 2.98756
370 2.83538
375 3.04405
380 3.19959
385 5.5455
390 8.72383
395 8.44759
400 6.94773
405 6.09342
410 6.12076
415 6.13441
420 6.13364
425 6.70277
430 7.18972
435 7.23323
440 7.98509
445 8.84658
450 10.2614
455 11.2384
460 12.8625
465 14.0264
470 14.9063
475 15.4388
480 16.1024
485 16.2038
490 16.5384
495 16.5465
500 16.4409
505 16.1225
510 15.3198
515 13.9478
520 12.5252
525 11.5193
530 10.7194
535 9.28335
540 8.89202
545 8.16367
550 7.62283
555 6.80165
560 5.67152
565 5.02363
570 4.06648
575 3.47363
580 2.72828
585 1.97308
590 1.72619
595 1.28923
600 1.16059
Ex : 358
200 0.180926
205 0.290361
210 0.300998
215 0.311233
220 0.265199
225 0.241566
230 0.220613
235 0.242288
240 0.24713
245 0.274683
250 0.286597
255 0.209877
260 0.314374
265 0.267299
270 0.277032
275 0.329982
280 0.258008
285 0.244975
290 0.225832
295 0.232921
300 0.28278
305 0.28506
310 0.285928
315 0.356737
320 0.341377
325 0.340425
330 0.334519
335 0.3829
340 0.538515
345 9.92439
350 152.597
355 232.55
360 58.4103
365 8.21778
370 3.15044
375 3.69494
380 2.99461
385 3.01359
390 4.93834
395 8.59559
400 8.61733
405 7.07444
410 6.67775
415 6.11877
420 6.6636
425 6.69522
430 6.83438
435 7.14395
440 7.55662
445 8.68823
450 10.5613
455 12.0391
460 13.1488
465 15.4129
470 16.1601
475 16.8986
480 17.8116
485 18.7627
490 18.4499
495 18.3263
500 17.6768
505 17.7073
510 16.6023
515 15.3537
520 14.5655
525 12.8389
530 12.0063
535 10.9731
540 10.1631
545 8.84778
550 7.78471
555 7.03775
560 6.48334
565 5.71223
570 4.8256
575 3.79896
580 2.91182
585 2.30129
590 1.79273
595 1.48941
600 1.57809
Ex : 363
200 0.237917
205 0.21581
210 0.217571
215 0.291144
220 0.322478
225 0.335573
230 0.293354
235 0.269453
240 0.251557
245 0.394956
250 0.324326
255 0.302066
260 0.251628
265 0.251702
270 0.261623
275 0.206134
280 0.302285
285 0.269252
290 0.307297
295 0.220705
300 0.260258
305 0.251351
310 0.318359
315 0.245091
320 0.254601
325 0.283824
330 0.315576
335 0.273835
340 0.317246
345 0.48354
350 9.15613
355 146.188
360 227.057
365 59.9452
370 8.66075
375 3.40962
380 3.31804
385 3.35671
390 3.09636
395 4.15204
400 7.46949
405 8.63554
410 7.51976
415 6.74447
420 6.53631
425 6.30665
430 6.57736
435 7.26907
440 7.82792
445 9.02501
450 10.6831
455 12.4375
460 14.9176
465 16.1625
470 17.9467
475 19.1301
480 19.8618
485 20.9016
490 21.3624
495 20.8587
500 20.5836
505 19.3195
510 18.4436
515 17.3501
520 16.88
525 15.1027
530 13.7948
535 12.8178
540 11.2568
545 10.5613
550 9.30153
555 8.51618
560 7.05413
565 6.28967
570 5.39981
575 4.44171
580 3.35929
585 2.5829
590 2.19756
595 1.76052
600 1.99447
Ex : 368
200 0.246648
205 0.273721
210 0.336854
215 0.193745
220 0.221797
225 0.252185
230 0.230067
235 0.163448
240 0.237053
245 0.179318
250 0.198641
255 0.204759
260 0.231993
265 0.234153
270 0.160516
275 0.258379
280 0.260654
285 0.393822
290 0.27148
295 0.258358
300 0.173371
305 0.231609
310 0.240207
315 0.294298
320 0.266301
325 0.266586
330 0.287519
335 0.244824
340 0.31778
345 0.350603
350 0.434037
355 7.3881
360 137.485
365 226.257
370 62.1561
375 8.98792
380 3.35015
385 3.33965
390 3.10784
395 2.97514
400 3.59986
405 6.33964
410 8.9457
415 7.69156
420 6.42083
425 5.90276
430 6.13223
435 6.77727
440 8.18815
445 9.24848
450 11.0362
455 13.9054
460 16.3595
465 18.4349
470 20.4534
475 21.9702
480 22.6594
485 24.4072
490 25.1051
495 24.4769
500 23.9244
505 23.5096
510 22.3805
515 21.008
520 19.596
525 18.2552
530 16.7315
535 15.4786
540 13.9816
545 12.3367
550 11.2674
555 10.0149
560 8.94076
565 7.88687
570 6.38576
575 5.30327
580 4.0022
585 3.36154
590 2.55439
595 1.88706
600 1.71072
Ex : 373
200 0.288933
205 0.265542
210 0.306774
215 0.24492
220 0.21969
225 0.218093
230 0.226402
235 0.244338
240 0.251223
245 0.201106
250 0.177379
255 0.246294
260 0.242977
265 0.271411
270 0.221043
275 0.155418
280 0.149644
285 0.179262
290 0.178285
295 0.178631
300 0.198198
305 0.194754
310 0.154607
315 0.231145
320 0.277398
325 0.260633
330 0.23471
335 0.263324
340 0.304209
345 0.353378
350 0.278675
355 0.472969
360 8.24513
365 139.17
370 228.224
375 62.8983
380 9.27774
385 3.47402
390 3.19211
395 3.43055
400 3.06937
405 3.5008
410 5.79507
415 8.02555
420 7.33151
425 6.67259
430 5.91101
435 6.12285
440 6.99942
445 9.14601
450 11.1252
455 13.6966
460 16.7158
465 19.6888
470 22.3589
475 23.9537
480 25.3022
485 26.1488
490 26.6384
495 26.8602
500 26.327
505 25.6908
510 24.028
515 22.9833
520 21.515
525 20.2437
530 18.932
535 16.8265
540 15.4363
545 13.5537
550 12.4777
555 11.1772
560 9.99515
565 8.27938
570 7.24509
575 5.82273
580 4.55631
585 3.54501
590 2.78165
595 2.24059
600 1.87711
Ex : 378
200 0.133837
205 0.132892
210 0.317744
215 0.190452
220 0.162525
225 0.247068
230 0.183858
235 0.232325
240 0.226267
245 0.180477
250 0.22637
255 0.206902
260 0.296108
265 0.23307
270 0.23224
275 0.172683
280 0.186148
285 0.183411
290 0.282267
295 0.226973
300 0.177684
305 0.237335
310 0.212556
315 0.222594
320 0.27277
325 0.19689
330 0.226703
335 0.245529
340 0.295371
345 0.304757
350 0.256757
355 0.38384
360 0.52593
365 8.07985
370 147.624
375 243.571
380 68.0045
385 10.1507
390 3.6204
395 3.78599
400 4.13607
405 3.68136
410 4.0307
415 5.2099
420 8.05393
425 7.74333
430 7.26667
435 7.00789
440 7.18231
445 8.50358
450 10.805
455 13.5945
460 15.7262
465 19.0563
470 21.1907
475 22.8397
480 24.2627
485 25.3897
490 26.0626
495 25.5464
500 25.4801
505 24.8033
510 23.1998
515 22.0164
520 20.8782
525 19.3724
530 17.1993
535 16.0884
540 14.3949
545 13.1619
550 12.0241
555 10.6082
560 9.34151
565 7.94415
570 6.58353
575 5.41998
580 4.2561
585 3.42949
590 2.52779
595 2.17514
600 0.767526
Ex : 383
200 0.224777
205 0.259672
210 0.189681
215 0.24747
220 0.214425
225 0.295036
230 0.187707
235 0.198919
240 0.210075
245 0.171761
250 0.221337
255 0.280551
260 0.257983
265 0.183603
270 0.239143
275 0.178778
280 0.214756
285 0.168443
290 0.189785
295 0.211838
300 0.147909
305 0.209762
310 0.242038
315 0.277831
320 0.301867
325 0.291698
330 0.259463
335 0.214061
340 0.245742
345 0.242947
350 0.244886
355 0.343857
360 0.270524
365 0.494599
370 8.21345
375 148.209
380 252.885
385 70.2348
390 10.3872
395 3.50453
400 3.50396
405 3.84876
410 3.63365
415 3.77081
420 4.68393
425 7.20704
430 8.38444
435 7.6019
440 7.87918
445 8.45057
450 10.998
455 13.666
460 16.5526
465 18.5
470 21.1725
475 23.0028
480 24.1628
485 25.6574
490 25.9591
495 25.8361
500 25.2517
505 24.8599
510 23.5076
515 22.3426
520 20.6518
525 19.4949
530 17.9512
535 16.2678
540 14.4993
545 13.6251
550 12.2151
555 10.4565
560 9.37467
565 7.75656
570 6.70616
575 5.42704
580 4.30779
585 3.35912
590 2.80456
595 2.21364
600 2.50258
Ex : 388
200 0.153749
205 0.217683
210 0.172715
215 0.215037
220 0.20197
225 0.187161
230 0.24978
235 0.198017
240 0.218048
245 0.190799
250 0.194402
255 0.233826
260 0.225313
265 0.205778
270 0.209566
275 0.195418
280 0.185792
285 0.222604
290 0.230813
295 0.1748
300 0.24427
305 0.173992
310 0.172568
315 0.220238
320 0.207345
325 0.233996
330 0.169411
335 0.268216
340 0.26149
345 0.160673
350 0.161695
355 0.241112
360 0.264927
365 0.412205
370 0.566367
375 8.47613
380 156.038
385 259.935
390 71.651
395 10.3072
400 3.06422
405 3.12539
410 3.66934
415 3.41136
420 3.56898
425 3.87727
430 6.48484
435 8.23716
440 8.57023
445 9.46836
450 10.8786
455 13.3932
460 16.6902
465 19.3073
470 21.7434
475 23.6377
480 25.2528
485 26.5873
490 27.0607
495 27.3817
500 27.0968
505 26.1685
510 24.5716
515 23.293
520 22.1799
525 20.3596
530 18.5091
535 16.883
540 15.3965
545 14.3258
550 12.4832
555 11.258
560 10.1536
565 8.72654
570 7.36481
575 5.73642
580 4.60839
585 3.44804
590 2.63569
595 2.39622
600 2.59643
Ex : 393
200 0.22369
205 0.179774
210 0.170112
215 0.179221
220 0.161033
225 0.232199
230 0.216469
235 0.171258
240 0.163761
245 0.204588
250 0.167445
255 0.198659
260 0.223332
265 0.120511
270 0.230026
275 0.16943
280 0.218496
285 0.207272
290 0.218108
295 0.234832
300 0.181363
305 0.188958
310 0.198575
315 0.227598
320 0.225797
325 0.220841
330 0.17535
335 0.21301
340 0.27355
345 0.225429
350 0.217669
355 0.25634
360 0.264209
365 0.252099
370 0.380225
375 0.469684
380 7.33035
385 155.808
390 265.842
395 73.2294
400 10.3098
405 3.05758
410 2.93049
415 3.06062
420 2.80449
425 2.94864
430 3.41841
435 5.47651
440 8.73044
445 10.0113
450 11.4426
455 14.0688
460 17.1037
465 19.7733
470 21.9744
475 24.1324
480 25.797
485 27.597
490 28.4808
495 28.438
500 28.0856
505 27.6557
510 26.2727
515 24.5613
520 22.6117
525 21.5309
530 19.7853
535 17.9148
540 16.4755
545 14.9071
550 13.7511
555 11.891
560 10.6283
565 9.34986
570 7.49517
575 5.94659
580 4.72292
585 3.73743
590 2.84685
595 2.23881
600 2.76993
Ex : 398
200 0.11415
205 0.170396
210 0.191038
215 0.165259
220 0.190147
225 0.173878
230 0.183871
235 0.137302
240 0.163192
245 0.134363
250 0.182551
255 0.15167
260 0.209665
265 0.181751
270 0.195105
275 0.19009
280 0.15311
285 0.130937
290 0.170892
295 0.170906
300 0.176122
305 0.154185
310 0.127114
315 0.195496
320 0.161063
325 0.167938
330 0.233921
335 0.164496
340 0.199313
345 0.21698
350 0.232601
355 0.179035
360 0.189271
365 0.224885
370 0.284827
375 0.381016
380 0.497069
385 8.13335
390 158.831
395 274.501
400 74.9958
405 10.2659
410 2.96606
415 2.61853
420 2.9443
425 2.78073
430 3.08469
435 3.71591
440 6.0139
445 10.2241
450 12.5999
455 14.7868
460 17.7825
465 20.3183
470 22.818
475 25.1176
480 27.263
485 28.127
490 29.923
495 30.26
500 29.2261
505 28.5317
510 27.0119
515 25.3509
520 23.9431
525 22.1027
530 20.7652
535 18.6093
540 17.6351
545 15.8146
550 14.1096
555 12.3719
560 10.7336
565 9.60767
570 7.87773
575 6.40501
580 4.93093
585 3.87855
590 3.10719
595 2.3208
600 1.51503
Ex : 403
200 0.205856
205 0.181967
210 0.196638
215 0.229292
220 0.191571
225 0.181969
230 0.169838
235 0.138728
240 0.184106
245 0.169028
250 0.252392
255 0.14717
260 0.187442
265 0.204301
270 0.251871
275 0.179892
280 0.246303
285 0.169237
290 0.193395
295 0.170617
300 0.16076
305 0.177215
310 0.184422
315 0.168809
320 0.16799
325 0.201297
330 0.179808
335 0.186793
340 0.196987
345 0.224057
350 0.180429
355 0.188722
360 0.190936
365 0.235475
370 0.278234
375 0.297567
380 0.415701
385 0.56391
390 9.2167
395 161.858
400 269.982
405 75.8912
410 10.6309
415 3.28418
420 2.55699
425 3.11204
430 3.01855
435 3.83483
440 5.30626
445 7.60229
450 12.0975
455 16.4501
460 18.6241
465 21.5438
470 24.0533
475 25.984
480 27.9937
485 29.6975
490 30.449
495 30.279
500 30.8442
505 29.1139
510 27.6264
515 26.204
520 24.8304
525 22.682
530 20.8324
535 19.2536
540 17.5306
545 16.1069
550 14.3189
555 12.7231
560 11.5241
565 9.86228
570 8.13301
575 6.53134
580 5.1856
585 4.11152
590 3.07309
595 2.47127
600 1.71864
Ex : 408
200 0.269968
205 0.172056
210 0.156058
215 0.205231
220 0.185653
225 0.176281
230 0.193077
235 0.167572
240 0.161242
245 0.192405
250 0.21533
255 0.161112
260 0.228082
265 0.181526
270 0.144134
275 0.19124
280 0.185047
285 0.143968
290 0.145318
295 0.162421
300 0.190051
305 0.252649
310 0.183547
315 0.167681
320 0.178973
325 0.224141
330 0.188897
335 0.21419
340 0.162662
345 0.161153
350 0.239564
355 0.223758
360 0.201448
365 0.255592
370 0.272815
375 0.237454
380 0.287477
385 0.390883
390 0.522589
395 8.55174
400 167.46
405 282.599
410 75.6844
415 10.7219
420 2.97162
425 2.47689
430 3.02666
435 3.46809
440 4.4259
445 6.72733
450 9.88679
455 15.0091
460 20.1355
465 22.1931
470 23.9608
475 26.2842
480 27.7151
485 29.6537
490 30.3837
495 30.7155
500 30.2591
505 29.4014
510 28.2031
515 26.3077
520 24.528
525 23.1612
530 20.9486
535 19.4966
540 17.7606
545 16.3583
550 14.6287
555 12.8912
560 11.5385
565 9.79733
570 8.30283
575 6.67349
580 5.27826
585 4.04124
590 3.27774
595 2.56894
600 3.63821
Ex : 413
200 0.284607
205 0.169055
210 0.166121
215 0.139467
220 0.187993
225 0.148745
230 0.195316
235 0.130789
240 0.142916
245 0.172895
250 0.217285
255 0.216835
260 0.158851
265 0.151959
270 0.202555
275 0.176395
280 0.247488
285 0.166038
290 0.184358
295 0.158239
300 0.15835
305 0.204915
310 0.141922
315 0.204479
320 0.168296
325 0.194551
330 0.222107
335 0.190223
340 0.184028
345 0.16543
350 0.201557
355 0.183347
360 0.214069
365 0.222937
370 0.24575
375 0.319056
380 0.267912
385 0.291641
390 0.325962
395 0.498071
400 10.2082
405 175.029
410 287.571
415 76.0919
420 10.2828
425 2.88466
430 2.41832
435 3.14699
440 4.38833
445 6.2309
450 8.95948
455 12.7457
460 17.2638
465 22.28
470 24.0611
475 25.8292
480 28.3013
485 29.0873
490 29.8746
495 30.4708
500 29.8107
505 29.248
510 28.5091
515 26.1472
520 24.4531
525 23.0282
530 20.9492
535 19.2145
540 17.7743
545 15.8057
550 14.4487
555 12.5876
560 11.3557
565 9.79833
570 8.14332
575 6.70268
580 5.05449
585 3.97769
590 3.13753
595 2.51475
600 2.05265
Ex : 418
200 0.189928
205 0.181148
210 0.127945
215 0.149507
220 0.17459
225 0.1587
230 0.138634
235 0.173584
240 0.163952
245 0.172865
250 0.225946
255 0.187051
260 0.161473
265 0.14591
270 0.175634
275 0.215577
280 0.217035
285 0.202332
290 0.240018
295 0.192071
300 0.209246
305 0.193377
310 0.183684
315 0.169364
320 0.184083
325 0.224151
330 0.15919
335 0.199654
340 0.212515
345 0.189063
350 0.253478
355 0.231567
360 0.181862
365 0.209148
370 0.257663
375 0.260293
380 0.228573
385 0.265761
390 0.220043
395 0.312615
400 0.498441
405 9.94348
410 180.011
415 300.499
420 81.6175
425 10.9916
430 2.90935
435 2.59444
440 4.23461
445 5.94031
450 8.41101
455 11.6058
460 15.0683
465 19.0269
470 23.8386
475 25.6895
480 26.7464
485 28.7674
490 28.5113
495 28.7437
500 28.7853
505 28.0969
510 26.0522
515 25.0465
520 23.3129
525 21.3666
530 20.3718
535 18.6932
540 16.5591
545 15.161
550 13.7353
555 11.9676
560 10.835
565 9.31244
570 7.49557
575 6.08789
580 4.80569
585 3.95981
590 2.99898
595 2.43032
600 2.19912
Ex : 423
200 0.173783
205 0.229399
210 0.250654
215 0.165863
220 0.171881
225 0.172201
230 0.210618
235 0.146943
240 0.176595
245 0.23024
250 0.185382
255 0.193961
260 0.157343
265 0.135475
270 0.221294
275 0.189955
280 0.170659
285 0.1266
290 0.182763
295 0.116776
300 0.181799
305 0.174944
310 0.121529
315 0.173594
320 0.185768
325 0.216934
330 0.162676
335 0.189041
340 0.199058
345 0.18127
350 0.182961
355 0.226922
360 0.180739
365 0.192159
370 0.24865
375 0.184589
380 0.243984
385 0.194229
390 0.317225
395 0.308772
400 0.378761
405 0.501217
410 10.0567
415 192.11
420 305.514
425 78.3052
430 10.6424
435 3.25239
440 3.37927
445 5.19864
450 7.73764
455 10.8609
460 13.6875
465 16.7164
470 19.7046
475 23.9199
480 26.54
485 26.487
490 27.2897
495 27.4922
500 26.7524
505 25.8614
510 24.563
515 23.4723
520 21.7286
525 20.3816
530 18.6935
535 17.1964
540 15.5446
545 14.0759
550 12.8156
555 11.6081
560 9.97579
565 8.71909
570 7.32919
575 6.05589
580 4.46397
585 3.33729
590 2.70568
595 2.12889
600 1.93331
Ex : 428
200 0.169446
205 0.208067
210 0.189463
215 0.192369
220 0.151457
225 0.127339
230 0.154828
235 0.158802
240 0.166836
245 0.173459
250 0.162304
255 0.204085
260 0.152968
265 0.181511
270 0.199388
275 0.16852
280 0.171321
285 0.218384
290 0.180432
295 0.19574
300 0.152655
305 0.188065
310 0.168994
315 0.148168
320 0.183507
325 0.18524
330 0.173736
335 0.228521
340 0.200546
345 0.160953
350 0.194844
355 0.265213
360 0.197969
365 0.182217
370 0.212119
375 0.269339
380 0.245543
385 0.234886
390 0.30012
395 0.22233
400 0.296985
405 0.332395
410 0.494586
415 11.1885
420 199.04
425 320.824
430 85.445
435 11.8229
440 4.03428
445 4.68394
450 7.27144
455 9.90721
460 12.5282
465 14.9859
470 17.1605
475 19.4812
480 22.3633
485 25.1665
490 25.5408
495 24.625
500 24.4364
505 23.5659
510 22.3952
515 21.1076
520 20.1314
525 18.213
530 16.3219
535 15.6077
540 14.2265
545 12.8669
550 11.8429
555 10.4433
560 9.08627
565 7.70282
570 6.26577
575 5.11206
580 4.28462
585 3.31001
590 2.64504
595 2.06096
600 1.65783
Ex : 433
200 0.191141
205 0.253237
210 0.174989
215 0.135366
220 0.150426
225 0.222877
230 0.227932
235 0.243964
240 0.1683
245 0.202823
250 0.159525
255 0.14586
260 0.150627
265 0.16723
270 0.192755
275 0.210042
280 0.176965
285 0.217304
290 0.170167
295 0.191264
300 0.152117
305 0.142019
310 0.222059
315 0.157516
320 0.160059
325 0.153694
330 0.236487
335 0.215297
340 0.178015
345 0.186737
350 0.216241
355 0.22302
360 0.177887
365 0.192384
370 0.187556
375 0.234547
380 0.251154
385 0.259028
390 0.257698
395 0.301341
400 0.348188
405 0.340199
410 0.40354
415 0.559132
420 12.3379
425 217.543
430 331.74
435 85.6759
440 12.4917
445 5.14522
450 6.25311
455 8.68627
460 11.2814
465 12.9442
470 15.1141
475 17.1191
480 18.6993
485 21.4711
490 23.6509
495 23.6871
500 22.403
505 21.2094
510 20.2147
515 18.4114
520 17.3225
525 15.7762
530 15.0752
535 13.9607
540 12.3335
545 11.6103
550 10.3786
555 9.24497
560 8.14218
565 6.86583
570 5.64442
575 4.85999
580 3.7731
585 2.91492
590 2.15691
595 1.80539
600 1.6071
Ex : 438
200 0.14632
205 0.163349
210 0.194357
215 0.226797
220 0.197579
225 0.240187
230 0.205224
235 0.17429
240 0.223592
245 0.150008
250 0.171798
255 0.205731
260 0.138314
265 0.164324
270 0.200061
275 0.152058
280 0.27079
285 0.195602
290 0.19093
295 0.206261
300 0.189702
305 0.176623
310 0.181837
315 0.251867
320 0.157708
325 0.178505
330 0.158372
335 0.20001
340 0.244347
345 0.255701
350 0.187031
355 0.173412
360 0.192208
365 0.179689
370 0.194851
375 0.212221
380 0.221195
385 0.213959
390 0.271439
395 0.265109
400 0.270212
405 0.25953
410 0.303019
415 0.345851
420 0.560434
425 12.5666
430 224.247
435 366.14
440 94.5219
445 14.3598
450 6.2728
455 7.34656
460 9.19372
465 11.6754
470 12.7548
475 13.923
480 15.6102
485 16.6312
490 17.7278
495 19.9359
500 19.5984
505 18.2134
510 17.3885
515 15.9623
520 14.2708
525 13.3041
530 12.2263
535 11.6932
540 10.3685
545 9.57028
550 8.52022
555 7.6966
560 6.68506
565 5.65694
570 4.89614
575 4.01981
580 3.1779
585 2.36307
590 1.94611
595 1.59449
600 1.56802
Ex : 443
200 0.151297
205 0.178266
210 0.191581
215 0.175942
220 0.140358
225 0.190435
230 0.17962
235 0.166859
240 0.221792
245 0.214387
250 0.173457
255 0.216849
260 0.157568
265 0.187542
270 0.166253
275 0.206092
280 0.208084
285 0.217004
290 0.228078
295 0.181837
300 0.22027
305 0.149199
310 0.190744
315 0.247882
320 0.215179
325 0.153367
330 0.184207
335 0.175066
340 0.225847
345 0.241438
350 0.185368
355 0.163005
360 0.223593
365 0.209404
370 0.225117
375 0.225249
380 0.243357
385 0.183611
390 0.225586
395 0.277638
400 0.259068
405 0.260216
410 0.27352
415 0.326623
420 0.424243
425 0.668155
430 14.8305
435 242.793
440 376.297
445 97.1713
450 14.958
455 7.05695
460 7.44251
465 9.1851
470 10.6198
475 11.8381
480 12.441
485 13.2825
490 14.0184
495 14.5579
500 15.7692
505 16.1787
510 14.945
515 13.3884
520 12.3977
525 11.195
530 10.0927
535 9.39963
540 8.52572
545 7.89326
550 6.84609
555 6.32528
560 5.53449
565 4.78847
570 4.02298
575 3.25281
580 2.5758
585 2.1248
590 1.56801
595 1.28594
600 1.24883
Ex : 448
200 0.173054
205 0.211975
210 0.177892
215 0.21936
220 0.179917
225 0.184355
230 0.191125
235 0.149641
240 0.198291
245 0.181583
250 0.238924
255 0.162395
260 0.141678
265 0.217224
270 0.177403
275 0.219126
280 0.207941
285 0.264157
290 0.200901
295 0.172921
300 0.189969
305 0.177376
310 0.25102
315 0.183747
320 0.150807
325 0.199269
330 0.181352
335 0.166755
340 0.177646
345 0.174372
350 0.217161
355 0.156819
360 0.199116
365 0.223352
370 0.175759
375 0.2218
380 0.150155
385 0.223029
390 0.225287
395 0.193763
400 0.236694
405 0.235959
410 0.227727
415 0.321509
420 0.328435
425 0.376473
430 0.707639
435 15.2784
440 263.541
445 401.025
450 102.987
455 16.0853
460 6.96415
465 6.7549
470 7.91024
475 9.08794
480 9.70664
485 9.83165
490 10.5325
495 10.83
500 10.7275
505 11.1948
510 12.1992
515 11.0441
520 9.87317
525 9.05587
530 7.86147
535 7.20871
540 6.53491
545 5.96133
550 5.21751
555 4.8279
560 4.25928
565 3.87968
570 3.04514
575 2.47432
580 2.08956
585 1.61823
590 1.43345
595 0.98167
600 1.07655
Ex : 453
200 0.18215
205 0.12986
210 0.151678
215 0.133476
220 0.21032
225 0.15887
230 0.168687
235 0.16942
240 0.196439
245 0.13256
250 0.187079
255 0.209913
260 0.182524
265 0.175279
270 0.195809
275 0.193497
280 0.162536
285 0.222269
290 0.190818
295 0.174571
300 0.227338
305 0.163225
310 0.195965
315 0.157079
320 0.127716
325 0.179376
330 0.201547
335 0.171968
340 0.17078
345 0.202452
350 0.176265
355 0.191948
360 0.252255
365 0.181523
370 0.201819
375 0.194947
380 0.182146
385 0.220622
390 0.226531
395 0.211687
400 0.168742
405 0.252345
410 0.268221
415 0.279933
420 0.287544
425 0.321688
430 0.434047
435 0.779168
440 16.8885
445 293.333
450 425.553
455 103.464
460 15.8256
465 6.08857
470 5.40965
475 6.08125
480 7.00376
485 7.29975
490 7.36276
495 7.49767
500 7.10073
505 7.33253
510 7.90933
515 8.58696
520 8.38947
525 6.56677
530 6.08689
535 5.77075
540 4.84324
545 4.39129
550 3.90705
555 3.43566
560 3.30876
565 2.69506
570 2.2993
575 1.90009
580 1.53106
585 1.11253
590 1.00536
595 0.810889
600 0.597867
Ex : 458
200 0.178255
205 0.17082
210 0.164436
215 0.168302
220 0.155155
225 0.210567
230 0.1306
235 0.154006
240 0.161185
245 0.140217
250 0.171493
255 0.165515
260 0.226346
265 0.206462
270 0.190335
275 0.167491
280 0.193516
285 0.186698
290 0.222352
295 0.24035
300 0.188318
305 0.187435
310 0.191886
315 0.219713
320 0.232305
325 0.203775
330 0.207279
335 0.167449
340 0.170191
345 0.198772
350 0.154565
355 0.176718
360 0.138111
365 0.199308
370 0.153282
375 0.161895
380 0.180994
385 0.198657
390 0.232858
395 0.217811
400 0.224247
405 0.27473
410 0.250994
415 0.235069
420 0.303413
425 0.350038
430 0.357256
435 0.453682
440 0.853892
445 18.985
450 295.745
455 444.918
460 110.316
465 15.983
470 5.22424
475 4.10581
480 4.66046
485 5.05563
490 4.95126
495 5.06243
500 4.71518
505 4.88959
510 4.68839
515 4.8452
520 5.31811
525 5.99709
530 4.82819
535 4.06935
540 3.86109
545 3.32761
550 2.73887
555 2.4787
560 2.34917
565 1.9543
570 1.73441
575 1.44511
580 1.19209
585 0.915523
590 0.775996
595 0.582655
600 1.18735
Ex : 463
200 0.144028
205 0.178949
210 0.222964
215 0.149046
220 0.254567
225 0.19156
230 0.174225
235 0.149248
240 0.202347
245 0.147053
250 0.133563
255 0.159954
260 0.148238
265 0.165812
270 0.178673
275 0.158849
280 0.202173
285 0.197844
290 0.145546
295 0.154853
300 0.141128
305 0.178874
310 0.19236
315 0.23367
320 0.181212
325 0.210969
330 0.230422
335 0.191622
340 0.216791
345 0.178149
350 0.182056
355 0.2302
360 0.202204
365 0.188921
370 0.220338
375 0.177415
380 0.175159
385 0.207577
390 0.154935
395 0.189965
400 0.25122
405 0.200233
410 0.201231
415 0.270166
420 0.314554
425 0.216268
430 0.226703
435 0.311295
440 0.449795
445 0.76541
450 17.822
455 304.404
460 463.553
465 113.658
470 15.3454
475 4.41658
480 3.24711
485 3.32701
490 3.41923
495 3.44161
500 3.18896
505 3.15465
510 2.98381
515 3.12636
520 2.92129
525 3.64713
530 4.53292
535 3.97714
540 2.9862
545 2.52224
550 2.30498
555 1.95144
560 1.72551
565 1.55227
570 1.31072
575 1.23686
580 0.954539
585 0.714131
590 0.578589
595 0.599723
600 0.278208
Ex : 468
200 0.143907
205 0.185797
210 0.185884
215 0.193353
220 0.185943
225 0.192639
230 0.172358
235 0.119703
240 0.158384
245 0.168762
250 0.192249
255 0.180576
260 0.152922
265 0.124202
270 0.149883
275 0.117675
280 0.154359
285 0.195364
290 0.148909
295 0.193912
300 0.164771
305 0.181166
310 0.140327
315 0.164254
320 0.145097
325 0.170765
330 0.225387
335 0.17385
340 0.151953
345 0.140461
350 0.171524
355 0.214971
360 0.171819
365 0.145487
370 0.205573
375 0.20972
380 0.182422
385 0.164768
390 0.144988
395 0.167417
400 0.187726
405 0.219365
410 0.198636
415 0.242598
420 0.245548
425 0.218155
430 0.352149
435 0.30184
440 0.318761
445 0.514597
450 0.827311
455 19.7681
460 304.575
465 477.809
470 116.213
475 15.1105
480 3.71584
485 2.37379
490 2.34079
495 2.71926
500 2.56686
505 2.48128
510 2.33782
515 2.01728
520 2.0328
525 2.08146
530 2.3154
535 3.27361
540 3.34644
545 2.28797
550 1.96819
555 1.93458
560 1.48028
565 1.21912
570 1.00323
575 0.785789
580 0.759045
585 0.609447
590 0.537706
595 0.484286
600 0.287152
Ex : 473
200 0.201257
205 0.140186
210 0.15556
215 0.176167
220 0.186486
225 0.153088
230 0.16343
235 0.139025
240 0.180439
245 0.144616
250 0.124201
255 0.164514
260 0.131817
265 0.145096
270 0.182493
275 0.242602
280 0.203474
285 0.161511
290 0.144297
295 0.1653
300 0.158378
305 0.160478
310 0.190112
315 0.162811
320 0.122712
325 0.10821
330 0.17578
335 0.187203
340 0.118529
345 0.177318
350 0.204179
355 0.174447
360 0.170612
365 0.223331
370 0.209318
375 0.156358
380 0.23822
385 0.197362
390 0.211825
395 0.256614
400 0.257378
405 0.213084
410 0.192094
415 0.22943
420 0.197285
425 0.23121
430 0.198068
435 0.230998
440 0.308727
445 0.354912
450 0.504265
455 0.77523
460 22.1637
465 337.54
470 482.647
475 112.226
480 14.5621
485 3.25916
490 2.06698
495 1.76434
500 2.07088
505 1.92711
510 2.01035
515 1.80755
520 1.73239
525 1.63606
530 1.75677
535 1.72795
540 2.59931
545 3.0569
550 2.27782
555 1.67162
560 1.52619
565 1.25992
570 0.991377
575 0.857466
580 0.635223
585 0.610282
590 0.514835
595 0.509499
600 0.511569
Ex : 478
200 0.203056
205 0.201784
210 0.214904
215 0.172817
220 0.201101
225 0.267044
230 0.178281
235 0.168506
240 0.1373
245 0.200958
250 0.151331
255 0.166686
260 0.188412
265 0.19497
270 0.168054
275 0.192546
280 0.204125
285 0.192544
290 0.184777
295 0.216364
300 0.21812
305 0.173737
310 0.208433
315 0.244568
320 0.173163
325 0.134793
330 0.196198
335 0.263336
340 0.227866
345 0.197749
350 0.192399
355 0.187846
360 0.186853
365 0.234477
370 0.225309
375 0.20719
380 0.179087
385 0.171761
390 0.192445
395 0.214808
400 0.206759
405 0.251892
410 0.300495
415 0.211741
420 0.247878
425 0.220453
430 0.247898
435 0.275483
440 0.266963
445 0.29393
450 0.424588
455 0.628778
460 0.949717
465 23.6043
470 334.18
475 474.229
480 115.379
485 14.5938
490 3.23015
495 1.7224
500 1.57223
505 1.62567
510 1.861
515 1.52846
520 1.53149
525 1.42875
530 1.30301
535 1.35897
540 1.36504
545 1.88928
550 2.73986
555 2.19987
560 1.48045
565 1.34455
570 1.18914
575 0.888512
580 0.658793
585 0.524244
590 0.54405
595 0.439744
600 0.508745
Ex : 483
200 0.158789
205 0.16397
210 0.17335
215 0.269904
220 0.231463
225 0.190246
230 0.230071
235 0.226747
240 0.190037
245 0.191786
250 0.175512
255 0.216366
260 0.205362
265 0.23817
270 0.191025
275 0.233087
280 0.222523
285 0.204325
290 0.176923
295 0.161775
300 0.240375
305 0.20312
310 0.187126
315 0.226372
320 0.223196
325 0.179246
330 0.207828
335 0.204599
340 0.186767
345 0.141031
350 0.258976
355 0.17934
360 0.234955
365 0.204838
370 0.175528
375 0.240718
380 0.254052
385 0.196123
390 0.222438
395 0.254187
400 0.180915
405 0.237782
410 0.280766
415 0.244271
420 0.223319
425 0.276012
430 0.235093
435 0.279847
440 0.249077
445 0.256212
450 0.397289
455 0.388051
460 0.528574
465 0.902002
470 18.2613
475 328.886
480 503.631
485 121.594
490 15.1385
495 3.11065
500 1.60726
505 1.2802
510 1.30031
515 1.67753
520 1.42209
525 1.41325
530 1.28979
535 1.20849
540 1.18864
545 1.23764
550 1.45339
555 2.20887
560 2.3
565 1.53546
570 1.23145
575 1.1006
580 0.857889
585 0.675508
590 0.556181
595 0.472186
600 0.255356
Ex : 488
200 0.280792
205 0.240142
210 0.193942
215 0.207972
220 0.265624
225 0.178331
230 0.241507
235 0.312628
240 0.237697
245 0.226884
250 0.255236
255 0.198297
260 0.300078
265 0.30331
270 0.199651
275 0.246088
280 0.180498
285 0.211178
290 0.253203
295 0.195701
300 0.222192
305 0.214034
310 0.182447
315 0.28027
320 0.186462
325 0.194025
330 0.152039
335 0.192572
340 0.21612
345 0.201618
350 0.302551
355 0.26718
360 0.215896
365 0.196706
370 0.218718
375 0.246858
380 0.238006
385 0.340724
390 0.223185
395 0.23821
400 0.239776
405 0.211838
410 0.231535
415 0.331775
420 0.280609
425 0.283592
430 0.319175
435 0.259326
440 0.307772
445 0.25195
450 0.336319
455 0.364543
460 0.522342
465 0.656097
470 0.792204
475 21.7282
480 348.499
485 486.926
490 115.06
495 14.5285
500 2.71256
505 1.36384
510 1.1187
515 1.32513
520 1.44213
525 1.47837
530 1.29277
535 1.20063
540 1.21108
545 1.08295
550 1.12012
555 1.15405
560 1.75141
565 2.11357
570 1.4206
575 0.950875
580 0.995247
585 0.819439
590 0.532561
595 0.505697
600 0.257546
Ex : 493
200 0.252339
205 0.184166
210 0.175897
215 0.176903
220 0.175311
225 0.20106
230 0.249482
235 0.241444
240 0.263967
245 0.261735
250 0.187385
255 0.228649
260 0.197332
265 0.22214
270 0.211796
275 0.216758
280 0.251341
285 0.227683
290 0.287195
295 0.260994
300 0.194014
305 0.256788
310 0.214482
315 0.221992
320 0.247202
325 0.148039
330 0.266658
335 0.250554
340 0.289666
345 0.190508
350 0.159909
355 0.228683
360 0.179859
365 0.239077
370 0.227733
375 0.209211
380 0.227307
385 0.241037
390 0.221933
395 0.253926
400 0.24168
405 0.263906
410 0.297011
415 0.299246
420 0.253694
425 0.219392
430 0.237688
435 0.292752
440 0.280062
445 0.314436
450 0.275711
455 0.310476
460 0.42029
465 0.58829
470 0.574724
475 0.726638
480 20.1641
485 343.861
490 522.267
495 125.237
500 15.5121
505 3.01326
510 1.46285
515 1.25584
520 1.14414
525 1.42916
530 1.34711
535 1.30023
540 1.10698
545 1.07627
550 1.03037
555 1.04507
560 0.969264
565 1.15206
570 1.95509
575 1.61447
580 0.951046
585 0.770449
590 0.619198
595 0.593395
600 0.522512
Ex : 498
200 0.263525
205 0.206246
210 0.236989
215 0.252261
220 0.186538
225 0.225609
230 0.227654
235 0.231204
240 0.220236
245 0.259379
250 0.204781
255 0.240169
260 0.197684
265 0.187986
270 0.169656
275 0.248873
280 0.232331
285 0.289298
290 0.317232
295 0.234385
300 0.308007
305 0.188474
310 0.238221
315 0.229586
320 0.260195
325 0.249811
330 0.27517
335 0.263661
340 0.421178
345 0.270025
350 0.221274
355 0.311409
360 0.227227
365 0.281799
370 0.233353
375 0.260439
380 0.348593
385 0.305283
390 0.283976
395 0.233672
400 0.208132
405 0.213015
410 0.223908
415 0.266773
420 0.230935
425 0.233706
430 0.20615
435 0.349941
440 0.318763
445 0.296659
450 0.302657
455 0.309353
460 0.354415
465 0.420721
470 0.506191
475 0.598308
480 0.828698
485 24.2332
490 363.033
495 492.628
500 114.591
505 14.094
510 2.67532
515 1.44842
520 1.33427
525 1.31837
530 1.36481
535 1.33971
540 1.41031
545 1.24814
550 0.943204
555 0.964361
560 1.02718
565 0.839548
570 0.865574
575 1.33262
580 1.3901
585 0.803788
590 0.775732
595 0.631756
600 0.663967
Ex : 503
200 0.279367
205 0.26305
210 0.184508
215 0.258448
220 0.205974
225 0.252033
230 0.21212
235 0.344879
240 0.28591
245 0.245987
250 0.255658
255 0.301494
260 0.288192
265 0.19551
270 0.170657
275 0.278556
280 0.251578
285 0.217788
290 0.166308
295 0.273683
300 0.19466
305 0.25466
310 0.247624
315 0.222553
320 0.265017
325 0.259502
330 0.255953
335 0.257071
340 0.290145
345 0.239307
350 0.226808
355 0.209752
360 0.187314
365 0.222327
370 0.253467
375 0.216536
380 0.314115
385 0.310904
390 0.233212
395 0.369191
400 0.225028
405 0.222241
410 0.292854
415 0.280318
420 0.247549
425 0.325439
430 0.429841
435 0.29312
440 0.361357
445 0.272161
450 0.284505
455 0.235662
460 0.344544
465 0.437879
470 0.356476
475 0.441847
480 0.703676
485 0.823084
490 22.4854
495 364.27
500 516.689
505 119.551
510 14.9281
515 2.74599
520 1.41428
525 1.1943
530 1.13194
535 1.34747
540 1.31527
545 1.10893
550 1.00358
555 0.977887
560 0.795682
565 0.908191
570 0.745915
575 0.763656
580 1.12697
585 1.13506
590 0.88313
595 0.521521
600 1.1953
Ex : 508
200 0.25273
205 0.234114
210 0.289757
215 0.230208
220 0.226488
225 0.31479
230 0.282436
235 0.243971
240 0.272209
245 0.186902
250 0.196054
255 0.247341
260 0.278375
265 0.206462
270 0.208419
275 0.291807
280 0.254182
285 0.281494
290 0.237178
295 0.192308
300 0.295311
305 0.227353
310 0.330912
315 0.191044
320 0.267517
325 0.256332
330 0.239478
335 0.290299
340 0.220942
345 0.277958
350 0.238804
355 0.252179
360 0.238785
365 0.302492
370 0.241783
375 0.248638
380 0.224905
385 0.23523
390 0.295124
395 0.286125
400 0.32672
405 0.264303
410 0.316719
415 0.266342
420 0.24851
425 0.295661
430 0.419144
435 0.361736
440 0.287443
445 0.270975
450 0.310594
455 0.331746
460 0.349445
465 0.393102
470 0.398655
475 0.46839
480 0.507107
485 0.680174
490 0.835055
495 23.5912
500 361.088
505 507.835
510 123.451
515 15.3836
520 2.8587
525 1.44859
530 1.14451
535 1.07197
540 1.19082
545 1.24221
550 1.21721
555 0.977404
560 0.708946
565 0.799452
570 0.777553
575 0.694203
580 0.583345
585 0.689134
590 0.888114
595 0.806726
600 0.349223
Ex : 513
200 0.197465
205 0.276056
210 0.309198
215 0.217129
220 0.279296
225 0.262767
230 0.432988
235 0.244789
240 0.278323
245 0.346112
250 0.375071
255 0.31427
260 0.272285
265 0.293391
270 0.217557
275 0.273467
280 0.233333
285 0.256562
290 0.215841
295 0.236089
300 0.413875
305 0.361507
310 0.285383
315 0.261399
320 0.237421
325 0.237224
330 0.233397
335 0.255622
340 0.307225
345 0.238017
350 0.277139
355 0.272016
360 0.281143
365 0.257912
370 0.277185
375 0.303773
380 0.221056
385 0.292247
390 0.352815
395 0.371895
400 0.295655
405 0.334852
410 0.30876
415 0.445063
420 0.324472
425 0.270179
430 0.309031
435 0.322343
440 0.315079
445 0.277988
450 0.299563
455 0.361191
460 0.380256
465 0.388893
470 0.425102
475 0.384749
480 0.432198
485 0.481269
490 0.615799
495 0.976728
500 22.0223
505 356.046
510 518.585
515 127.896
520 15.8758
525 2.91154
530 1.34472
535 1.24594
540 1.15219
545 1.1074
550 1.22661
555 1.08353
560 1.07377
565 0.745528
570 0.622894
575 0.817639
580 0.628189
585 0.613095
590 0.621939
595 0.708759
600 0.474522
Ex : 518
200 0.313158
205 0.272673
210 0.238997
215 0.285757
220 0.343186
225 0.246047
230 0.368345
235 0.256718
240 0.271002
245 0.382385
250 0.262507
255 0.296855
260 0.267963
265 0.282873
270 0.255766
275 0.220132
280 0.330001
285 0.322157
290 0.326691
295 0.273158
300 0.239151
305 0.324851
310 0.272954
315 0.267275
320 0.30821
325 0.297959
330 0.28447
335 0.312919
340 0.272698
345 0.278441
350 0.320956
355 0.295978
360 0.299415
365 0.320471
370 0.279663
375 0.244849
380 0.235744
385 0.251562
390 0.326684
395 0.300368
400 0.273146
405 0.342244
410 0.278866
415 0.371578
420 0.264075
425 0.240387
430 0.394471
435 0.379032
440 0.361079
445 0.296619
450 0.271755
455 0.265048
460 0.249574
465 0.304653
470 0.372585
475 0.23761
480 0.342557
485 0.463581
490 0.477252
495 0.604444
500 0.767408
505 22.6644
510 344.833
515 504.314
520 125.265
525 15.541
530 2.99701
535 1.42914
540 0.990962
545 0.912045
550 1.00988
555 1.04968
560 1.11038
565 0.923962
570 0.800973
575 0.694073
580 0.664196
585 0.628492
590 0.548559
595 0.449119
600 0.492005
Ex : 523
200 0.427022
205 0.280368
210 0.262774
215 0.276199
220 0.2778
225 0.254287
230 0.334315
235 0.234539
240 0.296982
245 0.242548
250 0.268556
255 0.281507
260 0.245767
265 0.329376
270 0.25611
275 0.297727
280 0.24122
285 0.282317
290 0.222971
295 0.205687
300 0.301588
305 0.280997
310 0.286041
315 0.182206
320 0.316904
325 0.266214
330 0.276431
335 0.2552
340 0.279282
345 0.26107
350 0.253027
355 0.26818
360 0.217445
365 0.292346
370 0.280821
375 0.451824
380 0.308189
385 0.251789
390 0.270574
395 0.295981
400 0.260441
405 0.293872
410 0.253202
415 0.267284
420 0.306771
425 0.286492
430 0.241485
435 0.3415
440 0.313511
445 0.422334
450 0.411546
455 0.369319
460 0.360118
465 0.366527
470 0.336377
475 0.347391
480 0.345161
485 0.343938
490 0.422842
495 0.422219
500 0.701539
505 1.0435
510 20.188
515 328.762
520 498.594
525 128.866
530 16.0577
535 2.84644
540 1.23571
545 1.06779
550 0.842275
555 0.936972
560 1.01626
565 1.04664
570 0.803907
575 0.65828
580 0.620824
585 0.481109
590 0.451876
595 0.48875
600 0.457179
Ex : 528
200 0.291851
205 0.299186
210 0.343859
215 0.2379
220 0.270903
225 0.327067
230 0.295199
235 0.264209
240 0.276416
245 0.229141
250 0.263993
255 0.230533
260 0.487292
265 0.326987
270 0.290831
275 0.352319
280 0.220888
285 0.308352
290 0.410405
295 0.325586
300 0.249653
305 0.304829
310 0.227994
315 0.257551
320 0.24802
325 0.231842
330 0.283834
335 0.247418
340 0.237333
345 0.28777
350 0.347349
355 0.330796
360 0.239337
365 0.27568
370 0.25634
375 0.284201
380 0.340946
385 0.357226
390 0.289015
395 0.317222
400 0.313173
405 0.25787
410 0.322735
415 0.34457
420 0.399309
425 0.323759
430 0.30918
435 0.355585
440 0.287292
445 0.296399
450 0.276299
455 0.28691
460 0.269167
465 0.346679
470 0.383722
475 0.350202
480 0.294464
485 0.458148
490 0.364541
495 0.559181
500 0.459061
505 0.705472
510 0.825293
515 18.8694
520 321.462
525 494.56
530 125.215
535 15.4005
540 2.74457
545 1.12335
550 0.976847
555 0.826222
560 0.828092
565 0.81625
570 0.886671
575 0.611988
580 0.613942
585 0.529373
590 0.525251
595 0.387213
600 0.124627
Ex : 533
200 0.277246
205 0.264185
210 0.239823
215 0.316314
220 0.264834
225 0.22124
230 0.3629
235 0.323986
240 0.337956
245 0.253617
250 0.294687
255 0.365348
260 0.336625
265 0.299388
270 0.369729
275 0.365271
280 0.22246
285 0.32134
290 0.30244
295 0.38197
300 0.328193
305 0.385927
310 0.27132
315 0.324592
320 0.261239
325 0.320473
330 0.308433
335 0.297452
340 0.352859
345 0.390884
350 0.246265
355 0.317098
360 0.262245
365 0.312348
370 0.30328
375 0.388266
380 0.306949
385 0.287056
390 0.257249
395 0.348251
400 0.253025
405 0.314526
410 0.308344
415 0.281893
420 0.335832
425 0.418286
430 0.334684
435 0.280045
440 0.344867
445 0.276501
450 0.351912
455 0.323931
460 0.333318
465 0.420803
470 0.354572
475 0.332897
480 0.322684
485 0.289401
490 0.366993
495 0.453893
500 0.446581
505 0.554386
510 0.75461
515 0.741154
520 18.2083
525 303.949
530 472.353
535 126.162
540 15.5251
545 2.86122
550 1.28435
555 0.895604
560 0.809287
565 0.751531
570 0.776182
575 0.686637
580 0.566983
585 0.452051
590 0.470851
595 0.403297
600 0.27483
Ex : 538
200 0.313834
205 0.31988
210 0.244791
215 0.333589
220 0.394552
225 0.336674
230 0.378048
235 0.30166
240 0.317107
245 0.38107
250 0.219249
255 0.216906
260 0.352154
265 0.273042
270 0.229533
275 0.309218
280 0.261173
285 0.39276
290 0.324032
295 0.310166
300 0.301567
305 0.290048
310 0.337889
315 0.347791
320 0.300717
325 0.27877
330 0.27473
335 0.24894
340 0.293513
345 0.310226
350 0.294191
355 0.329322
360 0.400733
365 0.348258
370 0.303875
375 0.369411
380 0.301256
385 0.293887
390 0.342189
395 0.349287
400 0.35004
405 0.282991
410 0.260243
415 0.270611
420 0.388362
425 0.265504
430 0.405893
435 0.300725
440 0.33534
445 0.395941
450 0.391025
455 0.358029
460 0.366989
465 0.396268
470 0.402405
475 0.445601
480 0.465946
485 0.361785
490 0.328701
495 0.53706
500 0.490669
505 0.367975
510 0.504009
515 0.589782
520 0.866448
525 16.5298
530 303.588
535 490.47
540 133.205
545 16.342
550 2.63698
555 1.06241
560 0.873115
565 0.731256
570 0.631857
575 0.679613
580 0.637623
585 0.53902
590 0.453097
595 0.489564
600 0.0607745
Ex : 543
200 0.400612
205 0.2628
210 0.34035
215 0.458804
220 0.379007
225 0.360049
230 0.337419
235 0.343827
240 0.301869
245 0.408151
250 0.247732
255 0.315826
260 0.312948
265 0.348514
270 0.336504
275 0.382879
280 0.354976
285 0.24354
290 0.332502
295 0.397602
300 0.29534
305 0.327854
310 0.242417
315 0.236674
320 0.28086
325 0.289673
330 0.258764
335 0.271934
340 0.378924
345 0.327405
350 0.303267
355 0.250384
360 0.365062
365 0.371729
370 0.352206
375 0.462757
380 0.345797
385 0.267224
390 0.357919
395 0.420514
400 0.398915
405 0.380222
410 0.472894
415 0.363289
420 0.275055
425 0.363101
430 0.303368
435 0.359393
440 0.340811
445 0.398683
450 0.294284
455 0.443945
460 0.242398
465 0.33097
470 0.256952
475 0.320377
480 0.412281
485 0.424918
490 0.328292
495 0.309789
500 0.338029
505 0.528733
510 0.466802
515 0.513956
520 0.562545
525 0.692016
530 14.5115
535 287.229
540 485.336
545 137.268
550 16.8263
555 2.74312
560 0.90238
565 0.797999
570 0.729309
575 0.661588
580 0.637687
585 0.579271
590 0.556254
595 0.474964
600 0.98717
Ex : 548
200 0.323634
205 0.416048
210 0.354756
215 0.42892
220 0.347364
225 0.284584
230 0.274754
235 0.303827
240 0.379663
245 0.268674
250 0.320417
255 0.2927
260 0.338426
265 0.265218
270 0.3369
275 0.433523
280 0.328658
285 0.298596
290 0.458656
295 0.303202
300 0.301589
305 0.351377
310 0.41118
315 0.38196
320 0.262146
325 0.29258
330 0.344577
335 0.345627
340 0.35526
345 0.272192
350 0.35901
355 0.32753
360 0.250972
365 0.398667
370 0.341488
375 0.362007
380 0.387436
385 0.454905
390 0.301503
395 0.318609
400 0.351599
405 0.301153
410 0.324523
415 0.362015
420 0.404698
425 0.361557
430 0.300761
435 0.372559
440 0.414563
445 0.564277
450 0.356315
455 0.422218
460 0.440144
465 0.315566
470 0.362252
475 0.338832
480 0.420178
485 0.410335
490 0.389028
495 0.523729
500 0.358389
505 0.376574
510 0.403866
515 0.460691
520 0.468408
525 0.539458
530 0.804192
535 16.8005
540 291.114
545 471.233
550 131.494
555 16.1429
560 2.5893
565 1.02387
570 0.848317
575 0.681221
580 0.657782
585 0.538275
590 0.568493
595 0.495739
600 0.0882529
Ex : 553
200 0.390634
205 0.340377
210 0.376878
215 0.338113
220 0.321262
225 0.260891
230 0.351355
235 0.434843
240 0.355567
245 0.432475
250 0.349414
255 0.265279
260 0.293912
265 0.372924
270 0.270093
275 0.309774
280 0.256704
285 0.349303
290 0.288724
295 0.281177
300 0.438343
305 0.348073
310 0.321852
315 0.318689
320 0.404097
325 0.318279
330 0.276941
335 0.333877
340 0.362221
345 0.319102
350 0.430852
355 0.330372
360 0.33962
365 0.34809
370 0.260047
375 0.356679
380 0.34525
385 0.294026
390 0.287634
395 0.372023
400 0.371155
405 0.379657
410 0.293689
415 0.375283
420 0.355476
425 0.365494
430 0.322448
435 0.431141
440 0.443222
445 0.333212
450 0.374568
455 0.529342
460 0.372791
465 0.368504
470 0.369368
475 0.386007
480 0.407055
485 0.349068
490 0.301187
495 0.347276
500 0.417288
505 0.395576
510 0.397894
515 0.35755
520 0.407483
525 0.504327
530 0.600261
535 0.791935
540 13.9694
545 273.601
550 462.568
555 132.441
560 16.3341
565 2.59457
570 1.05133
575 0.857093
580 0.577025
585 0.497929
590 0.512976
595 0.473135
600 0.382065
Ex : 558
200 0.274186
205 0.289995
210 0.339141
215 0.348391
220 0.316584
225 0.380946
230 0.380756
235 0.240654
240 0.347141
245 0.363165
250 0.377937
255 0.271184
260 0.378154
265 0.37749
270 0.331714
275 0.350637
280 0.427692
285 0.392519
290 0.361313
295 0.43521
300 0.38175
305 0.33293
310 0.432374
315 0.390217
320 0.425328
325 0.493324
330 0.331436
335 0.329685
340 0.361728
345 0.407919
350 0.328283
355 0.381158
360 0.323904
365 0.407901
370 0.291047
375 0.423497
380 0.414312
385 0.355216
390 0.322415
395 0.371068
400 0.275316
405 0.32259
410 0.341346
415 0.508274
420 0.340931
425 0.403609
430 0.307321
435 0.403443
440 0.353582
445 0.426301
450 0.35736
455 0.42345
460 0.408322
465 0.440666
470 0.270572
475 0.428189
480 0.362725
485 0.482085
490 0.464508
495 0.380363
500 0.447746
505 0.339012
510 0.421549
515 0.485199
520 0.41265
525 0.434935
530 0.653904
535 0.658981
540 0.829312
545 12.5506
550 259.103
555 455.639
560 132.564
565 16.3131
570 2.61824
575 0.935066
580 0.717795
585 0.527003
590 0.604454
595 0.481206
600 0.653235
Ex : 563
200 0.244898
205 0.308966
210 0.373734
215 0.367308
220 0.287889
225 0.310944
230 0.210176
235 0.375336
240 0.300504
245 0.430993
250 0.387158
255 0.296938
260 0.35973
265 0.359908
270 0.380374
275 0.332101
280 0.351609
285 0.309482
290 0.302678
295 0.319424
300 0.323345
305 0.340378
310 0.309189
315 0.472902
320 0.292681
325 0.364235
330 0.327971
335 0.416105
340 0.297253
345 0.295082
350 0.336615
355 0.287226
360 0.28787
365 0.363829
370 0.339887
375 0.380929
380 0.331059
385 0.366967
390 0.28303
395 0.308335
400 0.326249
405 0.433314
410 0.37322
415 0.370373
420 0.405054
425 0.387801
430 0.424455
435 0.413027
440 0.340867
445 0.315206
450 0.449068
455 0.346642
460 0.278415
465 0.388847
470 0.36099
475 0.423459
480 0.452111
485 0.38011
490 0.421047
495 0.341689
500 0.428556
505 0.410467
510 0.435965
515 0.380924
520 0.448633
525 0.572613
530 0.475717
535 0.568965
540 0.623
545 0.65779
550 12.5679
555 247.81
560 431.968
565 126.811
570 15.5016
575 2.35632
580 0.996948
585 0.620944
590 0.483619
595 0.523683
600 0.281144
Ex : 568
200 0.341338
205 0.286737
210 0.374398
215 0.412611
220 0.346001
225 0.316663
230 0.265571
235 0.357278
240 0.266538
245 0.445717
250 0.343784
255 0.32387
260 0.406071
265 0.511344
270 0.387949
275 0.379657
280 0.369245
285 0.351166
290 0.200084
295 0.317308
300 0.411716
305 0.38241
310 0.504423
315 0.368631
320 0.257426
325 0.383718
330 0.413231
335 0.358895
340 0.398379
345 0.269507
350 0.318872
355 0.326411
360 0.329106
365 0.447934
370 0.330599
375 0.294795
380 0.335727
385 0.35576
390 0.333345
395 0.313635
400 0.4973
405 0.433515
410 0.337467
415 0.318845
420 0.454511
425 0.343424
430 0.390588
435 0.401933
440 0.325168
445 0.464666
450 0.332739
455 0.43451
460 0.457832
465 0.375894
470 0.398299
475 0.507411
480 0.380989
485 0.40939
490 0.384751
495 0.448311
500 0.310519
505 0.350459
510 0.487803
515 0.419909
520 0.383561
525 0.471694
530 0.371957
535 0.59561
540 0.640287
545 0.577556
550 0.636679
555 9.38843
560 229.546
565 427.094
570 130.036
575 16.2662
580 2.46201
585 0.8647
590 0.602616
595 0.454966
600 0.907834
Ex : 573
200 0.32314
205 0.390164
210 0.470925
215 0.479335
220 0.394756
225 0.381277
230 0.322898
235 0.330278
240 0.438747
245 0.37119
250 0.30233
255 0.409262
260 0.448131
265 0.502617
270 0.300709
275 0.275494
280 0.496297
285 0.372099
290 0.328249
295 0.288316
300 0.352519
305 0.440712
310 0.377215
315 0.315501
320 0.268601
325 0.420259
330 0.445365
335 0.441601
340 0.331399
345 0.299781
350 0.470276
355 0.423616
360 0.37182
365 0.36753
370 0.403089
375 0.321845
380 0.414799
385 0.386644
390 0.342599
395 0.393972
400 0.314353
405 0.323726
410 0.238228
415 0.368503
420 0.510305
425 0.479247
430 0.435666
435 0.593498
440 0.439501
445 0.399607
450 0.400431
455 0.489337
460 0.541187
465 0.552112
470 0.428276
475 0.366541
480 0.298146
485 0.448684
490 0.362391
495 0.39268
500 0.450119
505 0.423338
510 0.396072
515 0.386443
520 0.370138
525 0.414017
530 0.414242
535 0.445916
540 0.510016
545 0.608192
550 0.557599
555 0.826803
560 8.86778
565 197.236
570 392.472
575 126.244
580 15.5892
585 2.38809
590 0.735993
595 0.459228
600 0.0522584
Ex : 578
200 0.320697
205 0.326747
210 0.459373
215 0.420196
220 0.454044
225 0.387301
230 0.377992
235 0.387143
240 0.320026
245 0.419432
250 0.415467
255 0.337705
260 0.33028
265 0.426058
270 0.322528
275 0.352877
280 0.410662
285 0.512295
290 0.469435
295 0.393622
300 0.441862
305 0.554795
310 0.493788
315 0.480206
320 0.331964
325 0.383664
330 0.40257
335 0.520781
340 0.303533
345 0.326909
350 0.380139
355 0.330317
360 0.47009
365 0.368572
370 0.354792
375 0.364331
380 0.36474
385 0.418427
390 0.455379
395 0.31383
400 0.205528
405 0.265066
410 0.341323
415 0.361525
420 0.301735
425 0.337187
430 0.366367
435 0.395233
440 0.420532
445 0.386608
450 0.399876
455 0.450965
460 0.484083
465 0.411325
470 0.338617
475 0.370081
480 0.378954
485 0.3953
490 0.590293
495 0.568038
500 0.415893
505 0.414729
510 0.491667
515 0.396494
520 0.545912
525 0.41703
530 0.373434
535 0.406901
540 0.406057
545 0.541708
550 0.506344
555 0.657195
560 0.719906
565 7.69126
570 183.801
575 346.176
580 106.107
585 12.9965
590 2.02866
595 0.635928
600 0.223209
Ex : 583
200 0.467435
205 0.360052
210 0.311582
215 0.451785
220 0.343026
225 0.448341
230 0.445907
235 0.434958
240 0.28326
245 0.396361
250 0.411473
255 0.252929
260 0.475814
265 0.317763
270 0.304825
275 0.398679
280 0.264879
285 0.322254
290 0.366589
295 0.256146
300 0.354351
305 0.356769
310 0.403116
315 0.340176
320 0.33766
325 0.232697
330 0.278712
335 0.318346
340 0.348158
345 0.385417
350 0.412902
355 0.337028
360 0.368132
365 0.34541
370 0.422365
375 0.441984
380 0.303899
385 0.388001
390 0.47752
395 0.372315
400 0.378913
405 0.41906
410 0.430915
415 0.351605
420 0.396218
425 0.361869
430 0.437502
435 0.32584
440 0.617523
445 0.456962
450 0.526155
455 0.427107
460 0.385698
465 0.411147
470 0.383902
475 0.285478
480 0.3609
485 0.349429
490 0.373325
495 0.56001
500 0.478713
505 0.418575
510 0.41336
515 0.456032
520 0.405377
525 0.360204
530 0.440003
535 0.383864
540 0.39936
545 0.423816
550 0.451162
555 0.48405
560 0.582951
565 0.777653
570 6.67566
575 167.321
580 312.922
585 90.3178
590 11.1872
595 1.89887
600 2.47012
Ex : 588
200 0.408152
205 0.360687
210 0.27315
215 0.284954
220 0.434054
225 0.450064
230 0.497319
235 0.449941
240 0.290338
245 0.42792
250 0.268706
255 0.410472
260 0.329675
265 0.376768
270 0.564553
275 0.406302
280 0.321684
285 0.365847
290 0.289555
295 0.312103
300 0.32404
305 0.316054
310 0.328838
315 0.352078
320 0.313306
325 0.373925
330 0.352284
335 0.343289
340 0.31132
345 0.378719
350 0.392212
355 0.291114
360 0.301954
365 0.333388
370 0.423787
375 0.399072
380 0.343033
385 0.289885
390 0.387145
395 0.4831
400 0.351241
405 0.473394
410 0.437715
415 0.548725
420 0.424899
425 0.351915
430 0.285344
435 0.432405
440 0.425648
445 0.450829
450 0.388403
455 0.445081
460 0.33138
465 0.373873
470 0.442018
475 0.372217
480 0.422043
485 0.368117
490 0.424444
495 0.33517
500 0.35212
505 0.243932
510 0.276745
515 0.396046
520 0.426656
525 0.386045
530 0.713427
535 0.52865
540 0.406511
545 0.353191
550 0.357701
555 0.467671
560 0.500031
565 0.676437
570 0.791375
575 6.26584
580 138.364
585 267.698
590 80.3745
595 9.95169
600 1.31373
Ex : 593
200 0.374028
205 0.296419
210 0.371743
215 0.421093
220 0.29211
225 0.360075
230 0.361898
235 0.305022
240 0.352688
245 0.420756
250 0.333987
255 0.290458
260 0.372705
265 0.383844
270 0.304209
275 0.325074
280 0.347392
285 0.453773
290 0.373571
295 0.331538
300 0.539068
305 0.477231
310 0.332794
315 0.350868
320 0.364779
325 0.352055
330 0.383581
335 0.346812
340 0.393338
345 0.254914
350 0.384806
355 0.359041
360 0.443524
365 0.584501
370 0.392217
375 0.320791
380 0.337142
385 0.363391
390 0.471375
395 0.423765
400 0.384282
405 0.424014
410 0.392839
415 0.545315
420 0.547099
425 0.413427
430 0.372667
435 0.328405
440 0.435977
445 0.411376
450 0.576541
455 0.414314
460 0.550388
465 0.563331
470 0.420001
475 0.42556
480 0.395202
485 0.309332
490 0.372924
495 0.395364
500 0.370838
505 0.433771
510 0.367347
515 0.436835
520 0.415579
525 0.4318
530 0.405051
535 0.372554
540 0.475864
545 0.451671
550 0.459653
555 0.453944
560 0.468178
565 0.560162
570 0.55623
575 0.621146
580 5.26198
585 121.963
590 225.096
595 67.7339
600 10.2034
Ex : 598
200 0.379119
205 0.39773
210 0.4236
215 0.456415
220 0.341604
225 0.411157
230 0.523178
235 0.475236
240 0.335308
245 0.328733
250 0.427798
255 0.300924
260 0.348829
265 0.408329
270 0.357222
275 0.366923
280 0.316051
285 0.338991
290 0.503225
295 0.434847
300 0.294845
305 0.397522
310 0.333377
315 0.3835
320 0.394046
325 0.396108
330 0.449821
335 0.457379
340 0.491524
345 0.419097
350 0.343211
355 0.380026
360 0.495105
365 0.545196
370 0.442722
375 0.326257
380 0.471008
385 0.495636
390 0.612447
395 0.497419
400 0.422553
405 0.422847
410 0.40306
415 0.480436
420 0.397537
425 0.455754
430 0.563451
435 0.414359
440 0.529398
445 0.577401
450 0.289234
455 0.596395
460 0.498989
465 0.465541
470 0.465058
475 0.422159
480 0.435488
485 0.374303
490 0.499732
495 0.568281
500 0.449897
505 0.52288
510 0.5741
515 0.42222
520 0.347998
525 0.553008
530 0.488615
535 0.388196
540 0.429903
545 0.389823
550 0.530201
555 0.501576
560 0.482179
565 0.377869
570 0.430581
575 0.457295
580 0.692734
585 5.06795
590 103.465
595 189.831
600 125.68
Ex : 603
200 0.400826
205 0.526868
210 0.487613
215 0.450894
220 0.459532
225 0.476722
230 0.335598
235 0.500854
240 0.366132
245 0.453557
250 0.521285
255 0.424119
260 0.601357
265 0.381373
270 0.616153
275 0.383597
280 0.336786
285 0.326852
290 0.370815
295 0.458152
300 0.433119
305 0.326811
310 0.347499
315 0.533239
320 0.545453
325 0.408284
330 0.543519
335 0.424763
340 0.345775
345 0.26649
350 0.492005
355 0.5455
360 0.478886
365 0.40034
370 0.470158
375 0.402859
380 0.389009
385 0.404941
390 0.472949
395 0.425454
400 0.490691
405 0.755793
410 0.455763
415 0.354277
420 0.363647
425 0.488451
430 0.371422
435 0.442464
440 0.367802
445 0.41007
450 0.433214
455 0.436471
460 0.437117
465 0.369218
470 0.419781
475 0.533824
480 0.467085
485 0.39694
490 0.348345
495 0.474444
500 0.416646
505 0.621165
510 0.475818
515 0.464647
520 0.481665
525 0.376341
530 0.556115
535 0.517823
540 0.603941
545 0.435469
550 0.350195
555 0.514688
560 0.430923
565 0.528061
570 0.600159
575 0.437978
580 0.717723
585 0.618806
590 4.35404
595 91.6445
600 201.941
