File format V 1.0
ven. 13. janv. 18:44:27 2017
Operator : 
Comments : 

=============================================
SpectroFluorometer parameters
Mode : 3D measurement
Data : Fluorescence
Phospho. : Ordinary
Spectrum : Fluorescence

Scan speed : 2400 nm/mn
Response : 100 ms
PM Voltage : 700 V
Shutter : On

Lambda Ex. Start : 203
Lambda Ex. End : 603
Lambda Ex. Step : 5
Ex. Slit : 5 nm

Lambda Em. Start : 200
Lambda Em. End : 600
Lambda Em. Step : 5
Em. Slit : 5 nm

Repetition : 1
Decal lambda em : 10
=============================================
DATA
Ex : 203
200 3.81604
205 6.1414
210 8.04697
215 4.01088
220 4.59632
225 5.03039
230 6.2408
235 5.37095
240 5.99659
245 7.2403
250 6.14548
255 7.50863
260 5.93648
265 5.4368
270 5.571
275 6.33812
280 6.21829
285 6.69684
290 6.39134
295 6.69246
300 6.37141
305 5.74287
310 7.89305
315 7.30646
320 5.78997
325 9.31369
330 5.67347
335 6.35671
340 5.89289
345 4.61066
350 4.37451
355 4.68241
360 6.29533
365 4.18666
370 4.29236
375 6.62271
380 4.71202
385 5.19747
390 4.59511
395 7.46619
400 6.38105
405 9.3285
410 5.95439
415 5.94393
420 5.81069
425 4.14834
430 5.91949
435 6.82567
440 4.42737
445 3.50589
450 4.52209
455 9.74699
460 6.31884
465 5.5591
470 5.35196
475 4.53662
480 4.87308
485 4.00236
490 5.36873
495 6.59067
500 6.71974
505 7.27913
510 7.1701
515 8.40405
520 6.25753
525 5.12159
530 5.10668
535 5.0205
540 7.15569
545 7.68777
550 3.95049
555 4.6423
560 6.07871
565 5.78956
570 3.88572
575 4.27201
580 8.51213
585 6.83507
590 9.62781
595 6.81291
600 0.775284
Ex : 208
200 8.35981
205 7.38301
210 7.13096
215 5.76018
220 5.19991
225 8.02221
230 4.77691
235 5.50802
240 7.55715
245 6.1772
250 4.14929
255 6.45074
260 6.251
265 5.85575
270 5.81742
275 7.95263
280 7.08284
285 6.39202
290 9.04762
295 6.61184
300 7.40943
305 9.16524
310 6.12473
315 6.42892
320 8.0069
325 4.11701
330 4.73363
335 4.25992
340 5.59177
345 4.74508
350 7.30773
355 6.27479
360 4.33104
365 4.94402
370 9.14286
375 6.11318
380 4.32506
385 3.67465
390 5.71905
395 6.59924
400 4.85746
405 6.80611
410 6.71117
415 7.24791
420 7.1839
425 6.60314
430 5.66134
435 9.45193
440 7.78657
445 6.81257
450 6.62583
455 4.8924
460 4.86691
465 6.9726
470 5.46579
475 8.56037
480 4.75086
485 5.02599
490 5.01186
495 5.2016
500 5.82819
505 4.50053
510 4.99217
515 7.47539
520 7.87838
525 8.6986
530 7.02633
535 6.6977
540 8.85673
545 4.89189
550 5.16163
555 3.69545
560 6.90358
565 6.12012
570 8.01726
575 4.9759
580 3.94678
585 6.11313
590 3.95927
595 6.056
600 16.8624
Ex : 213
200 5.45833
205 3.3394
210 5.57179
215 3.92393
220 5.29508
225 6.11812
230 4.82756
235 4.43076
240 6.08646
245 4.24171
250 5.77483
255 5.78299
260 7.19327
265 8.22612
270 7.17104
275 5.76811
280 6.32235
285 4.48878
290 8.15282
295 4.68085
300 6.53723
305 7.02477
310 4.66423
315 8.54881
320 5.00806
325 7.45343
330 5.61204
335 5.33464
340 4.6272
345 6.33286
350 4.30727
355 6.11712
360 5.25057
365 6.80488
370 5.59105
375 3.80184
380 6.23894
385 6.25192
390 7.79306
395 9.11586
400 6.70638
405 3.90897
410 3.86934
415 11.079
420 8.48796
425 10.7271
430 5.66008
435 4.3603
440 6.94509
445 10.1037
450 8.35869
455 5.27651
460 6.11644
465 7.51298
470 8.41578
475 7.63586
480 7.33781
485 4.8944
490 6.01814
495 7.60831
500 6.27249
505 6.09696
510 6.51621
515 5.32226
520 4.85221
525 8.13088
530 5.72026
535 5.11872
540 7.84012
545 5.48314
550 5.36751
555 6.19471
560 7.74678
565 4.30281
570 9.18604
575 4.61835
580 4.1478
585 9.12576
590 7.77116
595 3.95165
600 4.7541
Ex : 218
200 6
205 3.08519
210 5.53477
215 5.01772
220 6.25383
225 3.7402
230 3.41656
235 6.55442
240 6.01986
245 7.68476
250 7.09023
255 3.81056
260 5.84478
265 4.38717
270 5.3232
275 3.70747
280 6.29739
285 5.07757
290 5.30556
295 6.74123
300 5.49494
305 7.1699
310 6.26917
315 4.93286
320 3.96982
325 4.98124
330 8.38014
335 5.89401
340 3.5579
345 7.28745
350 10.8235
355 5.06379
360 5.69512
365 8.04273
370 3.96424
375 4.64743
380 7.03744
385 7.00426
390 6.61715
395 6.31083
400 7.58729
405 7.98098
410 5.51165
415 8.08751
420 7.86446
425 6.01568
430 7.5634
435 5.19974
440 6.47893
445 5.7591
450 8.09947
455 4.86082
460 4.36973
465 10.1006
470 6.43738
475 6.17187
480 7.43667
485 6.52791
490 4.82361
495 4.59842
500 4.13535
505 6.50657
510 6.74425
515 9.20731
520 8.17052
525 5.27297
530 6.03736
535 6.179
540 3.58428
545 5.55919
550 5.02163
555 5.73252
560 9.06929
565 6.68727
570 6.1975
575 6.31372
580 6.3549
585 7.56639
590 4.81543
595 5.3192
600 3.26392
Ex : 223
200 4.68722
205 5.18596
210 7.25934
215 7.41409
220 5.99725
225 6.05483
230 5.01778
235 4.39797
240 6.80911
245 5.69108
250 5.98437
255 5.90879
260 6.38759
265 5.50591
270 4.95772
275 6.87837
280 5.80723
285 6.49468
290 6.78023
295 5.78928
300 5.14864
305 6.04554
310 7.45872
315 5.24521
320 6.27574
325 6.64328
330 5.7246
335 7.2265
340 4.2022
345 2.80887
350 5.73181
355 5.56458
360 4.66001
365 5.36654
370 7.50209
375 5.12062
380 6.41233
385 4.23875
390 7.14119
395 5.51246
400 9.46483
405 7.1158
410 6.24432
415 6.61861
420 6.76478
425 5.17313
430 4.71531
435 5.43296
440 6.69848
445 7.39238
450 6.33166
455 6.21743
460 6.35607
465 7.35294
470 7.094
475 6.41989
480 4.31213
485 6.59343
490 4.04873
495 5.82206
500 9.59241
505 6.34406
510 9.79365
515 7.11913
520 7.04998
525 5.13165
530 7.31749
535 5.93521
540 9.22512
545 4.53635
550 3.86456
555 5.77341
560 4.03613
565 6.74861
570 6.45833
575 8.39513
580 7.81087
585 6.32236
590 5.322
595 4.30929
600 5.27588
Ex : 228
200 4.03463
205 7.15121
210 6.39457
215 3.82543
220 6.03504
225 3.84242
230 6.36592
235 3.00111
240 4.0206
245 5.32214
250 7.35874
255 7.95365
260 5.72869
265 4.01177
270 4.51891
275 5.79864
280 5.36473
285 4.12047
290 7.48947
295 4.81065
300 5.60762
305 5.59938
310 6.41898
315 5.13904
320 6.11874
325 5.91098
330 7.39039
335 4.64825
340 7.765
345 5.78544
350 5.27655
355 8.94215
360 6.26484
365 5.41417
370 8.05461
375 5.67597
380 8.18256
385 5.01171
390 4.00435
395 4.21427
400 4.42613
405 4.73733
410 4.1985
415 4.36701
420 6.70038
425 6.35391
430 6.003
435 5.1693
440 5.99615
445 5.71343
450 7.34849
455 6.22162
460 5.0059
465 5.50273
470 4.44199
475 6.27161
480 5.10549
485 4.65832
490 5.85924
495 5.29222
500 6.80955
505 6.39934
510 7.45772
515 8.37334
520 6.55397
525 6.33998
530 4.77214
535 5.33898
540 4.34199
545 5.019
550 4.29399
555 4.46313
560 4.11152
565 5.30243
570 3.8234
575 6.05831
580 7.66295
585 8.51198
590 7.01992
595 5.08615
600 0.578785
Ex : 233
200 5.62963
205 5.60337
210 5.39478
215 4.01693
220 4.89181
225 4.10148
230 3.60458
235 4.8019
240 5.5746
245 4.83645
250 7.25535
255 5.35313
260 8.67173
265 4.98038
270 4.62202
275 5.16463
280 4.66352
285 8.30629
290 7.56941
295 7.32267
300 4.16693
305 6.5429
310 4.07065
315 4.29769
320 5.01088
325 5.09098
330 7.69428
335 9.29266
340 5.36912
345 6.23597
350 4.50002
355 5.24321
360 5.76431
365 5.83824
370 6.29415
375 8.41693
380 7.01901
385 5.77679
390 5.97845
395 6.73605
400 4.71135
405 3.98978
410 5.39811
415 7.65942
420 4.29198
425 5.14562
430 5.28315
435 4.84816
440 6.30842
445 6.99146
450 5.02805
455 6.47436
460 6.46927
465 6.66803
470 6.11501
475 3.8862
480 4.92009
485 7.57132
490 5.21367
495 7.13184
500 4.10319
505 4.62716
510 5.06316
515 8.27697
520 5.41685
525 6.69865
530 5.39317
535 5.85308
540 5.68557
545 9.3798
550 4.95821
555 4.81439
560 2.91234
565 5.54186
570 4.79653
575 4.93977
580 4.14031
585 7.76952
590 5.89084
595 4.24376
600 4.38222
Ex : 238
200 3.65074
205 3.83412
210 4.54031
215 4.13726
220 3.48788
225 5.12001
230 5.28126
235 5.14973
240 4.84259
245 4.18847
250 4.0732
255 4.47385
260 3.51654
265 4.12484
270 3.99767
275 3.93104
280 4.18833
285 5.13327
290 6.55564
295 4.73392
300 3.78382
305 6.02783
310 5.66668
315 2.88316
320 4.09931
325 3.98807
330 4.51873
335 3.95614
340 4.13083
345 5.65272
350 4.82981
355 3.98323
360 5.19344
365 5.47178
370 3.53962
375 4.86751
380 4.43064
385 4.64313
390 6.4478
395 4.81093
400 5.13527
405 3.9953
410 3.17323
415 6.60657
420 6.20196
425 5.17631
430 7.05052
435 4.10352
440 3.59474
445 3.65961
450 4.6677
455 4.2984
460 7.85827
465 6.7038
470 4.54353
475 4.76039
480 4.09317
485 5.26606
490 5.27663
495 4.94425
500 5.39021
505 4.82366
510 4.4796
515 2.72186
520 7.23737
525 4.78669
530 6.91049
535 6.54842
540 4.49832
545 5.02747
550 7.76206
555 4.18951
560 4.06752
565 4.86937
570 4.20805
575 4.35264
580 3.85194
585 5.00294
590 5.18086
595 3.75458
600 1.06026
Ex : 243
200 2.44554
205 3.63409
210 5.11338
215 5.38541
220 4.03441
225 3.55145
230 5.20998
235 3.34995
240 3.53926
245 5.03642
250 4.85178
255 4.78023
260 3.16604
265 3.96146
270 2.98493
275 3.12241
280 5.83206
285 4.32946
290 5.17646
295 4.1136
300 4.41405
305 3.29209
310 3.94594
315 4.37108
320 5.63981
325 3.14968
330 4.27875
335 5.45949
340 4.81277
345 4.77287
350 2.74847
355 2.85461
360 5.49689
365 4.59136
370 4.59728
375 4.55493
380 4.85576
385 6.73862
390 6.50383
395 3.73731
400 4.58341
405 5.35729
410 4.71416
415 4.87497
420 4.09659
425 3.50333
430 4.30615
435 4.03765
440 5.5302
445 4.12438
450 4.71487
455 5.34479
460 3.96092
465 4.59513
470 3.7282
475 3.42464
480 6.02452
485 5.31679
490 6.65188
495 4.32141
500 3.96272
505 5.78941
510 4.8278
515 4.30493
520 5.13396
525 4.9096
530 4.07736
535 5.02809
540 4.79468
545 4.42388
550 4.83667
555 4.45321
560 4.95873
565 4.89885
570 2.44143
575 6.33699
580 4.47203
585 4.20976
590 2.54197
595 4.29746
600 1.88164
Ex : 248
200 4.86667
205 3.51483
210 3.33441
215 2.73831
220 5.05344
225 3.37711
230 3.1967
235 2.76281
240 2.53755
245 2.86585
250 2.93462
255 2.87356
260 3.35807
265 4.37633
270 3.22632
275 4.51001
280 3.27702
285 3.21935
290 2.5692
295 3.64081
300 3.30627
305 4.30648
310 3.25687
315 2.76752
320 2.47092
325 3.78367
330 4.0038
335 3.70845
340 2.93677
345 5.67764
350 3.44747
355 5.02936
360 3.92105
365 3.57956
370 4.01292
375 3.33682
380 4.30872
385 4.0482
390 4.08063
395 3.3306
400 3.08046
405 3.21871
410 3.57971
415 4.40974
420 5.79663
425 3.6903
430 4.42789
435 3.5835
440 4.04096
445 3.57898
450 2.58617
455 4.20371
460 4.16787
465 3.75453
470 3.91421
475 3.80451
480 5.85734
485 5.53677
490 4.9356
495 6.21838
500 2.95581
505 3.67115
510 3.47618
515 4.63877
520 4.36978
525 5.3461
530 3.68088
535 3.63168
540 3.86787
545 3.12236
550 4.19899
555 4.59482
560 3.98666
565 4.92161
570 2.98116
575 5.66689
580 4.55035
585 3.11221
590 4.19261
595 4.13302
600 0.470322
Ex : 253
200 4.05556
205 4.74296
210 2.7225
215 3.04153
220 2.99808
225 2.96892
230 2.92298
235 2.70678
240 2.03436
245 3.13753
250 2.91455
255 3.96332
260 3.39338
265 3.5055
270 2.02541
275 2.85408
280 2.43804
285 1.49115
290 3.93007
295 2.4906
300 3.36445
305 2.82549
310 2.30013
315 4.1305
320 3.81645
325 2.62798
330 2.33912
335 2.68152
340 2.64881
345 3.89323
350 3.245
355 5.56503
360 3.61415
365 2.7575
370 2.52272
375 4.17942
380 3.32193
385 4.41833
390 2.93099
395 3.43633
400 4.10148
405 3.03605
410 4.28076
415 3.96034
420 3.02436
425 4.16578
430 2.89755
435 2.46007
440 2.934
445 3.48876
450 3.15432
455 3.49525
460 5.52222
465 4.3067
470 3.62422
475 4.33242
480 3.03331
485 4.24715
490 4.64777
495 4.93359
500 4.06555
505 4.68424
510 3.56001
515 3.48954
520 2.92278
525 4.02291
530 2.73195
535 3.1383
540 2.72249
545 2.96624
550 2.5183
555 2.85167
560 3.0228
565 3.9787
570 3.93878
575 3.54993
580 3.26311
585 3.21429
590 2.56913
595 2.46836
600 0.28089
Ex : 258
200 1.53635
205 1.6923
210 1.97014
215 2.70767
220 1.80086
225 2.32278
230 2.33864
235 2.85685
240 1.99865
245 2.62905
250 1.87563
255 1.82741
260 2.27517
265 2.10924
270 1.70995
275 1.62999
280 2.29198
285 2.21907
290 3.31506
295 3.02357
300 1.62706
305 1.53395
310 3.05602
315 2.19993
320 2.949
325 2.53824
330 2.18938
335 2.90952
340 2.87004
345 1.85343
350 3.26858
355 2.96511
360 2.18929
365 2.7998
370 2.76047
375 3.02923
380 2.26889
385 1.48349
390 2.51465
395 2.59307
400 2.24058
405 3.17145
410 4.24905
415 2.92365
420 2.47567
425 4.65224
430 4.00619
435 3.37145
440 2.44674
445 2.30887
450 2.47377
455 3.56578
460 3.6011
465 3.508
470 4.08852
475 3.77686
480 2.55184
485 3.36386
490 2.54828
495 2.04976
500 2.10899
505 2.75606
510 2.49345
515 2.90215
520 2.97298
525 2.52591
530 2.56325
535 2.59723
540 2.79161
545 2.90756
550 1.80551
555 1.95128
560 3.45347
565 2.43754
570 3.4245
575 3.17934
580 2.29018
585 2.51832
590 2.18079
595 3.18284
600 3.18193
Ex : 263
200 1.18097
205 1.43406
210 1.57776
215 1.75783
220 1.94567
225 1.90282
230 2.58068
235 2.44529
240 2.21772
245 1.29251
250 1.62455
255 2.02839
260 3.07644
265 2.80365
270 2.30874
275 2.19192
280 1.34901
285 2.43804
290 1.98007
295 1.67261
300 1.6905
305 1.80212
310 1.8748
315 2.16135
320 2.34824
325 2.05951
330 1.67618
335 2.76157
340 2.27794
345 1.72295
350 2.50389
355 1.76008
360 2.40595
365 1.73911
370 2.16923
375 1.96713
380 2.8161
385 1.46878
390 3.89734
395 3.23941
400 2.82358
405 2.99248
410 3.42895
415 2.14763
420 2.5488
425 2.19224
430 2.60209
435 2.66635
440 2.3184
445 1.71548
450 1.99833
455 2.61258
460 3.07288
465 3.04762
470 2.46951
475 2.89644
480 2.67468
485 2.16609
490 1.87705
495 1.74559
500 2.42661
505 2.63982
510 2.34383
515 2.26491
520 3.74847
525 2.05411
530 2.55443
535 3.59343
540 1.63246
545 1.98631
550 1.5936
555 1.45832
560 1.25159
565 1.9218
570 1.58294
575 2.99679
580 2.06545
585 1.9343
590 1.2789
595 2.57558
600 0.293092
Ex : 268
200 1.72044
205 0.924879
210 1.50457
215 1.15753
220 2.34723
225 1.50648
230 1.90946
235 1.65847
240 1.57218
245 2.52435
250 1.31204
255 1.26396
260 2.37371
265 1.92571
270 1.82269
275 1.35762
280 1.16603
285 1.32974
290 1.76662
295 1.30934
300 1.61563
305 1.41876
310 1.44617
315 1.70661
320 0.902061
325 1.39127
330 1.13533
335 0.915363
340 1.07395
345 1.32601
350 1.00848
355 1.53816
360 1.72811
365 1.383
370 2.15662
375 1.25728
380 1.7641
385 1.73086
390 1.71223
395 1.43092
400 2.16869
405 2.16525
410 1.80108
415 1.46639
420 2.6489
425 1.83145
430 1.62656
435 1.45839
440 1.39081
445 1.45324
450 1.39362
455 2.68876
460 1.98954
465 2.30117
470 2.20064
475 1.57158
480 1.69518
485 1.83997
490 2.02467
495 1.57141
500 2.47948
505 1.52807
510 1.09076
515 1.00476
520 2.08356
525 2.25321
530 2.90715
535 3.08827
540 1.93704
545 1.36604
550 1.62503
555 1.34398
560 1.09778
565 1.36251
570 2.21809
575 1.11436
580 1.24889
585 1.11871
590 1.35544
595 0.956573
600 2.86593
Ex : 273
200 1.61361
205 1.30674
210 1.15846
215 1.00558
220 1.23702
225 1.26931
230 1.62414
235 1.12703
240 1.03927
245 1.33623
250 1.01031
255 1.62898
260 1.0005
265 0.982154
270 1.12942
275 1.22731
280 1.14115
285 1.62421
290 1.33787
295 1.32882
300 1.2479
305 0.948137
310 1.45627
315 1.12945
320 1.28487
325 1.51942
330 1.65315
335 1.5192
340 0.958641
345 1.72127
350 2.08638
355 2.11505
360 1.26561
365 1.58478
370 1.10887
375 1.16099
380 1.83663
385 1.84976
390 1.99879
395 1.74576
400 2.80283
405 1.30224
410 2.40148
415 1.24431
420 1.53112
425 1.6414
430 1.82169
435 1.96994
440 1.66571
445 1.19283
450 1.97783
455 1.87036
460 1.674
465 1.86355
470 1.51165
475 0.94101
480 1.14054
485 1.32693
490 1.45929
495 1.29954
500 1.17782
505 1.60422
510 1.10018
515 1.50001
520 1.48614
525 2.37833
530 1.39311
535 1.49495
540 1.9551
545 2.03517
550 1.75601
555 1.28406
560 1.72031
565 1.03922
570 1.03729
575 1.49885
580 1.52614
585 1.77152
590 1.32175
595 2.14663
600 0.669656
Ex : 278
200 0.687914
205 1.47363
210 0.827177
215 1.41907
220 1.24123
225 1.20644
230 1.62558
235 1.1067
240 1.27646
245 1.00165
250 0.52056
255 0.910257
260 1.10592
265 1.39553
270 1.41044
275 1.29198
280 1.36228
285 1.12172
290 1.12573
295 1.29447
300 1.07723
305 1.01898
310 0.994057
315 0.830945
320 0.931893
325 0.738944
330 1.10194
335 0.903025
340 1.12588
345 0.97314
350 1.30538
355 0.960108
360 1.17226
365 0.896784
370 1.53007
375 1.33721
380 1.18607
385 1.12193
390 1.24541
395 1.52208
400 1.35187
405 1.43758
410 1.24877
415 1.61836
420 1.69247
425 1.44047
430 1.28172
435 1.42774
440 1.21572
445 1.75398
450 0.904763
455 1.2814
460 0.965097
465 0.94403
470 1.65388
475 1.07144
480 1.01034
485 1.58591
490 1.11186
495 0.897073
500 1.27777
505 1.36384
510 1.17147
515 1.02609
520 1.1968
525 1.17986
530 1.73968
535 1.65012
540 1.39176
545 1.31284
550 1.34504
555 1.21399
560 0.874478
565 0.746617
570 0.630148
575 1.04713
580 1.05521
585 1.21185
590 0.752836
595 0.63927
600 0.0727465
Ex : 283
200 0.773753
205 0.570313
210 0.930934
215 0.967761
220 0.8929
225 0.986572
230 1.03771
235 0.994479
240 1.085
245 0.631714
250 1.01935
255 0.753797
260 0.790464
265 0.919001
270 0.91077
275 0.758903
280 1.09543
285 0.942028
290 1.19725
295 0.786002
300 1.07066
305 0.844425
310 0.820832
315 0.883921
320 0.727548
325 0.732024
330 0.694264
335 0.675675
340 0.916962
345 1.04613
350 0.818841
355 1.19513
360 0.966396
365 1.39488
370 0.861247
375 1.79402
380 1.21512
385 1.22688
390 1.1116
395 1.07023
400 1.10347
405 1.22656
410 1.0584
415 1.7353
420 1.38112
425 1.28168
430 1.12908
435 1.42473
440 1.53502
445 1.06211
450 1.10824
455 1.21711
460 1.25501
465 1.50003
470 1.05569
475 1.40394
480 1.57537
485 1.53525
490 1.37007
495 0.962878
500 0.931867
505 0.698887
510 0.936749
515 0.89859
520 1.12096
525 1.08075
530 0.89177
535 1.31495
540 0.865043
545 0.893112
550 1.01233
555 1.65465
560 1.83507
565 1.79155
570 0.990516
575 0.819468
580 0.624242
585 0.82498
590 0.910649
595 0.949158
600 0.108011
Ex : 288
200 0.882688
205 1.02026
210 0.834286
215 0.553983
220 0.512044
225 0.990682
230 0.548301
235 0.871138
240 1.03925
245 0.928579
250 0.674602
255 0.749415
260 0.788431
265 0.822493
270 0.650157
275 0.614868
280 0.636936
285 1.14626
290 0.631137
295 0.78313
300 0.565286
305 1.11161
310 1.0413
315 0.85776
320 0.860898
325 1.0165
330 0.756713
335 0.912691
340 0.945703
345 1.01374
350 0.883949
355 0.725635
360 0.753353
365 0.923296
370 0.945995
375 0.796293
380 0.992708
385 1.00171
390 1.29475
395 1.60218
400 1.28457
405 1.10942
410 1.23528
415 1.16009
420 1.30172
425 1.23042
430 0.96248
435 1.2735
440 1.53038
445 1.28688
450 1.64703
455 1.3658
460 1.42908
465 1.00738
470 1.37926
475 0.930125
480 1.10595
485 0.792543
490 1.01483
495 0.678545
500 0.65927
505 1.35199
510 1.34859
515 1.05245
520 0.831709
525 1.07365
530 0.739226
535 0.578961
540 0.560509
545 0.376201
550 0.910223
555 0.925863
560 0.780904
565 1.12019
570 1.25333
575 1.05241
580 0.793479
585 0.426017
590 0.65065
595 0.602296
600 0.068539
Ex : 293
200 0.659069
205 0.540212
210 0.487062
215 0.783269
220 0.824924
225 0.688758
230 0.805531
235 0.772183
240 0.593645
245 0.528782
250 0.49059
255 0.57987
260 0.81153
265 0.467585
270 0.604723
275 0.558803
280 0.52829
285 0.712646
290 0.678666
295 0.699058
300 0.591825
305 0.419961
310 0.397538
315 0.606238
320 0.942056
325 0.843942
330 0.658902
335 0.706978
340 0.771479
345 0.992693
350 0.742647
355 0.704897
360 0.660545
365 0.724175
370 0.976935
375 0.872071
380 1.31969
385 0.692642
390 1.1653
395 1.27807
400 1.34031
405 0.997804
410 0.886802
415 0.789457
420 1.14916
425 1.28705
430 1.32164
435 1.19235
440 1.18748
445 1.14336
450 1.00052
455 1.35279
460 1.02751
465 1.33046
470 0.94699
475 1.29098
480 0.815992
485 0.700014
490 0.868988
495 0.95833
500 0.736357
505 0.726402
510 0.816132
515 0.736662
520 0.794812
525 0.839295
530 0.631766
535 0.674231
540 0.492912
545 0.553188
550 0.736711
555 0.647071
560 0.556819
565 0.592813
570 0.604421
575 1.00193
580 1.16666
585 1.27009
590 0.73577
595 0.708849
600 0.172977
Ex : 298
200 0.479864
205 0.579353
210 0.375105
215 0.710181
220 0.826418
225 0.554424
230 0.506193
235 0.889487
240 0.518748
245 0.519782
250 0.617951
255 0.513041
260 0.798538
265 0.479889
270 0.464791
275 0.538067
280 0.431962
285 0.4599
290 0.596755
295 0.5654
300 0.721321
305 0.533844
310 0.411004
315 0.658828
320 0.505729
325 0.618333
330 0.537656
335 0.582056
340 0.699619
345 0.798394
350 0.77685
355 0.838531
360 0.674687
365 0.794144
370 0.815377
375 0.96265
380 0.953496
385 0.841664
390 0.737024
395 0.947976
400 1.0395
405 1.14494
410 1.12837
415 0.961672
420 1.40981
425 0.959648
430 1.30962
435 1.03789
440 1.07586
445 0.961551
450 1.37943
455 0.940237
460 0.945542
465 1.08001
470 0.660534
475 0.846294
480 0.768387
485 0.858793
490 0.768368
495 0.94642
500 0.813091
505 0.760313
510 0.470568
515 0.563534
520 0.574931
525 0.679039
530 0.587569
535 0.482735
540 0.753395
545 0.504377
550 0.527728
555 0.695668
560 0.431675
565 0.556714
570 0.492889
575 0.412927
580 0.489901
585 0.74935
590 0.927583
595 1.29111
600 0.653326
Ex : 303
200 0.474906
205 0.31766
210 0.482384
215 0.545441
220 0.618707
225 0.475232
230 0.587885
235 0.475283
240 0.761531
245 0.495473
250 0.654962
255 0.635178
260 0.403408
265 0.427748
270 0.448045
275 0.373964
280 0.390886
285 0.466167
290 0.542272
295 0.567173
300 0.742753
305 0.731372
310 0.373683
315 0.471999
320 0.61354
325 0.418559
330 0.852873
335 0.60539
340 0.593284
345 0.654561
350 0.604365
355 0.861501
360 0.829828
365 0.866307
370 0.938179
375 0.828706
380 1.03283
385 0.754688
390 0.927708
395 1.11678
400 1.08889
405 0.972314
410 0.985272
415 0.992997
420 1.11675
425 0.957795
430 1.19047
435 1.01608
440 1.06774
445 0.8829
450 1.07639
455 0.781283
460 1.02769
465 1.00348
470 0.788327
475 0.613254
480 0.635651
485 0.722349
490 0.819268
495 0.588286
500 0.506078
505 0.879571
510 0.584642
515 0.692202
520 0.863599
525 0.511617
530 0.539635
535 0.469312
540 0.68787
545 0.701353
550 0.525221
555 0.377782
560 0.466439
565 0.384623
570 0.453872
575 0.41807
580 0.490512
585 0.298023
590 0.554451
595 0.638419
600 2.59492
Ex : 308
200 0.28692
205 0.467172
210 0.319955
215 0.463982
220 0.357695
225 0.344562
230 0.489489
235 0.346547
240 0.545796
245 0.313698
250 0.460192
255 0.525887
260 0.34895
265 0.355423
270 0.431903
275 0.420003
280 0.398965
285 0.377179
290 0.223477
295 0.479827
300 0.552874
305 0.664184
310 0.634769
315 0.455237
320 0.497673
325 0.600222
330 0.515958
335 0.445188
340 0.409223
345 0.733398
350 0.600627
355 0.678106
360 0.601583
365 0.607471
370 0.988812
375 1.13623
380 0.976908
385 1.22772
390 0.942173
395 1.11591
400 0.935243
405 1.27009
410 0.982613
415 1.16836
420 1.08525
425 0.841401
430 0.848418
435 0.897305
440 0.871449
445 0.934966
450 0.839925
455 0.842619
460 1.21227
465 0.707989
470 0.75784
475 0.669053
480 0.782144
485 0.761157
490 0.586926
495 0.784221
500 0.67201
505 0.53576
510 0.3938
515 0.484414
520 0.487007
525 0.555374
530 0.461404
535 0.558867
540 0.438238
545 0.409881
550 0.554325
555 0.428856
560 0.438639
565 0.685499
570 0.438073
575 0.516928
580 0.572852
585 0.364089
590 0.35691
595 0.352276
600 1.57298
Ex : 313
200 0.46659
205 0.388084
210 0.343413
215 0.333114
220 0.29395
225 0.489198
230 0.28296
235 0.312657
240 0.232827
245 0.334596
250 0.432622
255 0.395192
260 0.422689
265 0.468204
270 0.41291
275 0.348609
280 0.409115
285 0.382693
290 0.385929
295 0.318455
300 0.350608
305 0.530667
310 0.823054
315 0.357918
320 0.536901
325 0.43814
330 0.398398
335 0.545167
340 0.611857
345 0.498842
350 0.60963
355 0.763358
360 1.12389
365 0.98528
370 0.998839
375 0.998584
380 1.21364
385 1.28362
390 1.18619
395 1.46224
400 1.70126
405 1.46838
410 1.64946
415 1.57232
420 1.53821
425 1.3973
430 1.64534
435 1.71712
440 1.89725
445 1.51814
450 1.47163
455 1.05853
460 0.989463
465 1.10354
470 1.06767
475 0.971382
480 0.924806
485 0.964735
490 0.910407
495 0.711569
500 0.622798
505 0.617232
510 0.5099
515 0.538954
520 0.637338
525 0.726887
530 0.566918
535 0.62698
540 0.375277
545 0.500051
550 0.363853
555 0.445013
560 0.532503
565 0.431327
570 0.5221
575 0.38902
580 0.380029
585 0.443087
590 0.319858
595 0.412535
600 0.0469449
Ex : 318
200 0.442682
205 0.378675
210 0.238253
215 0.298132
220 0.380642
225 0.2002
230 0.296958
235 0.299081
240 0.400976
245 0.440262
250 0.19348
255 0.299783
260 0.322381
265 0.336048
270 0.370768
275 0.371772
280 0.320723
285 0.530845
290 0.28276
295 0.222455
300 0.270728
305 0.331692
310 0.566832
315 1.10939
320 0.630196
325 0.639599
330 0.588288
335 1.19154
340 1.42384
345 1.85337
350 2.73251
355 3.53144
360 4.17709
365 5.43511
370 6.2124
375 7.43567
380 8.29867
385 9.01268
390 10.3071
395 11.3531
400 11.5397
405 11.8129
410 12.2142
415 12.154
420 12.0383
425 11.823
430 11.3284
435 11.0369
440 10.2471
445 10.2322
450 9.86083
455 8.30475
460 8.90177
465 7.44711
470 7.04906
475 6.2578
480 5.78974
485 5.64742
490 4.57438
495 4.20543
500 3.56108
505 3.51297
510 3.05044
515 2.5359
520 2.23959
525 1.98986
530 1.52107
535 1.42932
540 1.34852
545 1.0835
550 0.920128
555 0.844274
560 1.09673
565 0.513207
570 0.498417
575 0.499478
580 0.651308
585 0.560033
590 0.468281
595 0.373269
600 1.12879
Ex : 323
200 0.34328
205 0.273996
210 0.286863
215 0.336637
220 0.237867
225 0.261676
230 0.269131
235 0.327523
240 0.303541
245 0.418196
250 0.27276
255 0.423257
260 0.366502
265 0.4628
270 0.397596
275 0.500587
280 0.312257
285 0.253266
290 0.365408
295 0.383514
300 0.262541
305 0.405334
310 0.338675
315 3.92164
320 16.0442
325 7.06519
330 2.3356
335 3.19177
340 4.643
345 6.66131
350 9.57186
355 13.3165
360 15.5043
365 17.9917
370 21.361
375 25.7082
380 29.5917
385 32.1927
390 35.0809
395 37.1354
400 39.4705
405 40.1668
410 39.7472
415 40.617
420 40.3491
425 39.5334
430 39.2168
435 37.5324
440 35.6564
445 34.5818
450 32.6868
455 32.0059
460 28.2629
465 26.8868
470 23.9716
475 22.7646
480 20.2012
485 18.5937
490 16.6987
495 14.5551
500 13.1707
505 10.9196
510 10.1256
515 8.75967
520 7.61219
525 6.28134
530 5.8736
535 5.41296
540 4.25831
545 3.80366
550 3.25131
555 2.89088
560 2.48293
565 1.85479
570 1.54241
575 1.25146
580 1.05654
585 0.766059
590 0.685469
595 0.723035
600 0.822216
Ex : 328
200 0.227019
205 0.229065
210 0.277182
215 0.269318
220 0.256179
225 0.281372
230 0.224932
235 0.257061
240 0.256551
245 0.314231
250 0.217586
255 0.265219
260 0.219391
265 0.189311
270 0.279493
275 0.27008
280 0.326012
285 0.360331
290 0.225228
295 0.352107
300 0.377083
305 0.252937
310 0.37349
315 1.12058
320 34.0303
325 77.3778
330 25.3848
335 6.21954
340 6.08149
345 7.67132
350 9.87519
355 14.1758
360 19.1264
365 21.3357
370 23.5537
375 26.3138
380 29.9041
385 33.1339
390 35.7262
395 37.6329
400 40.1879
405 40.9861
410 42.4337
415 42.8031
420 41.058
425 41.0502
430 39.8508
435 39.2697
440 37.6277
445 36.1234
450 34.8726
455 32.4539
460 30.3602
465 28.1419
470 26.7628
475 24.3899
480 22.5634
485 20.4891
490 18.5898
495 16.5343
500 14.906
505 13.0962
510 11.4366
515 10.2845
520 8.83833
525 7.51123
530 7.08691
535 6.39851
540 5.26848
545 4.6184
550 4.12784
555 3.35239
560 3.3347
565 2.62237
570 2.06163
575 1.50216
580 1.32197
585 1.03479
590 0.981335
595 0.847926
600 0.418034
Ex : 333
200 0.169843
205 0.32622
210 0.254881
215 0.383789
220 0.391188
225 0.243996
230 0.227012
235 0.364449
240 0.23189
245 0.214544
250 0.257389
255 0.257623
260 0.243894
265 0.250482
270 0.258812
275 0.265061
280 0.27848
285 0.229037
290 0.266056
295 0.192803
300 0.192416
305 0.234652
310 0.432156
315 0.297349
320 5.07518
325 99.2268
330 170.682
335 45.8841
340 8.76861
345 6.09528
350 6.3763
355 7.27691
360 10.9374
365 15.2788
370 16.5725
375 17.1804
380 17.3199
385 18.511
390 20.6966
395 21.7469
400 23.129
405 23.6063
410 24.3788
415 24.8013
420 24.5114
425 24.3655
430 23.9791
435 23.7365
440 22.7331
445 22.651
450 21.6841
455 19.9188
460 19.6073
465 18.6476
470 18.3358
475 16.6929
480 15.7085
485 14.7872
490 13.7471
495 12.1354
500 11.8675
505 10.525
510 9.37224
515 8.52967
520 7.27957
525 6.77084
530 6.33715
535 5.56603
540 4.61103
545 4.56413
550 3.78508
555 3.68708
560 3.36523
565 2.57372
570 2.03393
575 1.67272
580 1.50614
585 1.16069
590 0.861252
595 0.907091
600 1.27301
Ex : 338
200 0.174399
205 0.185436
210 0.27112
215 0.237751
220 0.303831
225 0.257361
230 0.21005
235 0.2328
240 0.372737
245 0.220389
250 0.198214
255 0.19396
260 0.294124
265 0.308515
270 0.389589
275 0.178784
280 0.161793
285 0.274843
290 0.249872
295 0.213092
300 0.167594
305 0.220879
310 0.292561
315 0.454278
320 0.386697
325 10.6027
330 155.555
335 227.168
340 56.5511
345 9.4073
350 4.83849
355 4.54212
360 4.27839
365 6.76256
370 10.5887
375 12.0136
380 10.8724
385 10.488
390 10.813
395 11.193
400 12.1911
405 13.1451
410 14.8041
415 15.6976
420 15.7845
425 14.7197
430 14.9621
435 15.5422
440 16.878
445 16.2451
450 15.9134
455 14.6216
460 15.1591
465 14.463
470 14.4904
475 14.4174
480 13.4194
485 12.6468
490 11.6264
495 11.8105
500 10.5968
505 9.78706
510 9.11532
515 8.04571
520 7.26292
525 6.69857
530 6.13178
535 5.20217
540 5.18348
545 4.36431
550 4.05304
555 3.79186
560 3.12873
565 2.65502
570 2.21234
575 1.89401
580 1.60991
585 1.10981
590 0.800003
595 1.02332
600 1.17235
Ex : 343
200 0.232075
205 0.203848
210 0.188233
215 0.228713
220 0.286967
225 0.207944
230 0.229176
235 0.23474
240 0.144967
245 0.161461
250 0.173558
255 0.192997
260 0.233619
265 0.254854
270 0.160918
275 0.176823
280 0.269265
285 0.172479
290 0.253987
295 0.178589
300 0.270532
305 0.37648
310 0.165437
315 0.295111
320 0.244349
325 0.494348
330 13.2148
335 178.018
340 255.014
345 61.3097
350 9.34012
355 3.90052
360 3.36537
365 3.08267
370 4.51846
375 8.83997
380 9.95274
385 8.41289
390 7.67399
395 7.58643
400 8.34933
405 9.9402
410 11.9229
415 13.2524
420 13.5194
425 13.8919
430 14.0421
435 14.7573
440 15.5084
445 15.5167
450 15.1734
455 15.2425
460 15.1283
465 15.7341
470 15.6378
475 14.2887
480 14.3388
485 14.0299
490 13.1637
495 13.0867
500 11.58
505 11.1926
510 10.0965
515 9.40248
520 8.35508
525 7.56898
530 6.61675
535 6.16914
540 5.72798
545 5.13107
550 4.8719
555 3.81282
560 3.58827
565 2.89038
570 2.66993
575 2.30273
580 1.66829
585 1.27505
590 1.10865
595 0.85973
600 0.629556
Ex : 348
200 0.182709
205 0.173205
210 0.180991
215 0.203385
220 0.232641
225 0.24197
230 0.258776
235 0.196526
240 0.182246
245 0.17421
250 0.156434
255 0.222
260 0.182081
265 0.150437
270 0.249367
275 0.146754
280 0.19687
285 0.221906
290 0.139066
295 0.152294
300 0.221909
305 0.314153
310 0.319459
315 0.346066
320 0.295509
325 0.330763
330 0.548137
335 12.6619
340 181.546
345 261.979
350 67.5472
355 10.066
360 3.60237
365 2.98051
370 2.85923
375 3.48365
380 7.12876
385 10.0871
390 8.30263
395 7.4143
400 7.82342
405 9.4829
410 11.5884
415 13.7483
420 13.4486
425 13.8362
430 13.9864
435 15.9301
440 16.9263
445 17.4999
450 17.14
455 17.7577
460 18.0288
465 17.2773
470 17.6077
475 17.7758
480 17.2682
485 16.7708
490 15.7931
495 15.0576
500 14.5667
505 13.5763
510 12.6349
515 11.8021
520 10.2961
525 9.38554
530 8.24253
535 7.45218
540 6.44008
545 5.8656
550 5.67279
555 5.00408
560 4.42287
565 3.64229
570 2.99204
575 2.54869
580 2.11752
585 1.65507
590 1.22244
595 1.09377
600 1.0539
Ex : 353
200 0.226313
205 0.180927
210 0.192015
215 0.174044
220 0.152219
225 0.160351
230 0.261684
235 0.238873
240 0.129117
245 0.180071
250 0.142714
255 0.162953
260 0.187385
265 0.234928
270 0.18328
275 0.123453
280 0.136428
285 0.188762
290 0.215828
295 0.21778
300 0.200377
305 0.228089
310 0.237418
315 0.239818
320 0.22149
325 0.26422
330 0.281027
335 0.463969
340 13.5625
345 183.89
350 259.502
355 63.6138
360 9.03843
365 3.38553
370 3.02975
375 2.76186
380 3.4767
385 6.15205
390 9.40773
395 9.04918
400 8.50608
405 9.38027
410 11.4616
415 12.736
420 14.1349
425 13.5917
430 14.9397
435 16.356
440 17.5338
445 17.7798
450 17.9158
455 18.5237
460 19.2968
465 19.3808
470 19.5735
475 19.4654
480 19.5319
485 18.1566
490 17.8683
495 17.8505
500 16.8046
505 15.9464
510 14.7583
515 12.997
520 11.4513
525 10.5923
530 10.1518
535 8.99469
540 8.1838
545 7.19121
550 6.61788
555 5.9854
560 4.93119
565 4.54126
570 3.535
575 2.96025
580 2.3652
585 1.84571
590 1.50873
595 1.13961
600 1.21961
Ex : 358
200 0.127922
205 0.209711
210 0.164626
215 0.210097
220 0.177592
225 0.164686
230 0.122713
235 0.175072
240 0.196536
245 0.157149
250 0.180073
255 0.144991
260 0.144342
265 0.153596
270 0.165105
275 0.176645
280 0.219841
285 0.252602
290 0.165144
295 0.186192
300 0.205211
305 0.264634
310 0.255031
315 0.188276
320 0.229458
325 0.209192
330 0.263381
335 0.315575
340 0.445317
345 12.1894
350 175.127
355 261.473
360 65.8905
365 9.22129
370 3.26519
375 3.77863
380 3.51127
385 3.41615
390 5.44284
395 9.35822
400 10.5875
405 10.7968
410 12.5906
415 13.8774
420 14.6671
425 14.409
430 15.7075
435 17.5694
440 18.7533
445 19.4069
450 19.7652
455 19.9175
460 20.39
465 21.5255
470 21.8597
475 21.4498
480 21.5322
485 20.7334
490 19.9475
495 19.2507
500 18.4894
505 16.8737
510 16.4773
515 14.2379
520 12.9895
525 12.1104
530 10.8537
535 9.8863
540 8.69437
545 8.08603
550 7.33112
555 6.20686
560 5.65446
565 4.67107
570 3.8621
575 3.32836
580 2.46229
585 1.91251
590 1.66821
595 1.10184
600 1.21321
Ex : 363
200 0.12588
205 0.134068
210 0.15927
215 0.149135
220 0.142071
225 0.164236
230 0.189531
235 0.141057
240 0.218709
245 0.226749
250 0.191158
255 0.167386
260 0.204005
265 0.158443
270 0.109746
275 0.132531
280 0.213777
285 0.189421
290 0.230501
295 0.118734
300 0.142589
305 0.159858
310 0.165682
315 0.149425
320 0.178995
325 0.233125
330 0.195061
335 0.282366
340 0.392634
345 0.516085
350 11.2447
355 171.097
360 258.286
365 67.8817
370 9.58604
375 3.29172
380 3.60983
385 3.69343
390 3.83048
395 5.31954
400 9.86573
405 13.8485
410 15.7397
415 17.0235
420 16.9162
425 16.6357
430 17.8348
435 20.5034
440 22.3509
445 22.8427
450 22.744
455 22.8146
460 23.5612
465 24.1694
470 25.0132
475 26.1954
480 24.4774
485 23.5848
490 22.7701
495 22.5983
500 21.2966
505 19.9629
510 18.2776
515 17.1647
520 15.7585
525 14.0606
530 12.7596
535 11.2788
540 10.1336
545 9.14915
550 8.281
555 6.91815
560 6.71842
565 5.47149
570 4.50543
575 3.35818
580 2.72594
585 2.18762
590 1.68934
595 1.32476
600 0.672824
Ex : 368
200 0.118257
205 0.137673
210 0.113198
215 0.229719
220 0.188273
225 0.146551
230 0.189268
235 0.200505
240 0.18458
245 0.181711
250 0.135478
255 0.10563
260 0.144745
265 0.176033
270 0.169292
275 0.136355
280 0.143931
285 0.26139
290 0.151277
295 0.176998
300 0.155616
305 0.168583
310 0.18405
315 0.204419
320 0.248999
325 0.220642
330 0.218984
335 0.209533
340 0.194575
345 0.269816
350 0.397936
355 9.50854
360 161.505
365 257.207
370 70.057
375 9.90325
380 3.30774
385 3.7706
390 3.64714
395 3.78609
400 5.89777
405 11.2346
410 16.4925
415 17.4547
420 16.9402
425 16.2284
430 17.059
435 19.6077
440 21.7878
445 22.2179
450 23.0629
455 23.6138
460 24.4479
465 26.2794
470 26.648
475 26.8143
480 27.1735
485 26.6747
490 25.7157
495 25.412
500 24.0511
505 23.0812
510 21.113
515 19.1742
520 17.6083
525 16.4292
530 14.3924
535 13.4567
540 11.9605
545 10.5447
550 9.86292
555 8.50409
560 7.61485
565 6.52776
570 5.31025
575 4.25954
580 3.48668
585 2.53318
590 1.90685
595 1.45073
600 1.92519
Ex : 373
200 0.133265
205 0.113282
210 0.139835
215 0.131048
220 0.1492
225 0.139201
230 0.153906
235 0.136884
240 0.181543
245 0.170519
250 0.124144
255 0.250932
260 0.142123
265 0.149835
270 0.120345
275 0.231318
280 0.163852
285 0.160558
290 0.131671
295 0.114849
300 0.167103
305 0.141708
310 0.159867
315 0.139118
320 0.217842
325 0.138643
330 0.148386
335 0.209611
340 0.201706
345 0.260407
350 0.262366
355 0.399038
360 10.6298
365 161.459
370 254.626
375 69.8396
380 10.186
385 3.48625
390 3.60219
395 3.98552
400 4.88714
405 7.56689
410 12.5013
415 17.0457
420 16.8008
425 15.6466
430 15.4645
435 17.154
440 19.4943
445 20.7611
450 21.0381
455 22.2301
460 23.8788
465 24.729
470 26.5932
475 26.7081
480 27.2625
485 26.6818
490 26.7351
495 26.4676
500 24.8396
505 23.6898
510 22.0676
515 20.149
520 18.6311
525 17.3155
530 15.8166
535 14.2338
540 12.9877
545 11.5758
550 10.3044
555 8.76289
560 8.1368
565 6.78827
570 5.74106
575 4.53014
580 3.49193
585 2.97078
590 1.99713
595 1.61362
600 0.486697
Ex : 378
200 0.170227
205 0.129663
210 0.085182
215 0.106841
220 0.170349
225 0.144736
230 0.110044
235 0.153859
240 0.205719
245 0.119767
250 0.162392
255 0.160935
260 0.17949
265 0.118971
270 0.161799
275 0.181417
280 0.151523
285 0.158248
290 0.130886
295 0.158366
300 0.142256
305 0.164781
310 0.139669
315 0.146014
320 0.187554
325 0.167347
330 0.139312
335 0.171536
340 0.221146
345 0.168245
350 0.19074
355 0.285795
360 0.427423
365 10.2413
370 169.311
375 268.727
380 74.3123
385 11.0827
390 4.21804
395 4.42185
400 5.644
405 7.51818
410 10.8785
415 14.8708
420 18.046
425 17.9105
430 17.2598
435 18.5028
440 20.5128
445 21.0006
450 21.6292
455 22.8286
460 23.509
465 25.0798
470 26.0957
475 26.5911
480 26.5028
485 26.6595
490 26.01
495 25.476
500 24.2537
505 22.7966
510 21.4795
515 20.3269
520 18.2849
525 16.8736
530 14.7251
535 13.5654
540 12.4679
545 11.1127
550 10.127
555 8.7984
560 7.75444
565 6.43421
570 5.65762
575 4.37516
580 3.34851
585 2.70022
590 2.22256
595 1.67387
600 1.73218
Ex : 383
200 0.0984222
205 0.0888311
210 0.139155
215 0.188097
220 0.133795
225 0.144137
230 0.1249
235 0.104251
240 0.17729
245 0.135866
250 0.09695
255 0.188693
260 0.188551
265 0.154501
270 0.145502
275 0.120156
280 0.143493
285 0.100927
290 0.13699
295 0.167829
300 0.113345
305 0.177883
310 0.184936
315 0.182954
320 0.194187
325 0.147332
330 0.139978
335 0.21522
340 0.233742
345 0.179525
350 0.164299
355 0.277281
360 0.250602
365 0.439459
370 9.91473
375 167.367
380 281.047
385 78.4342
390 11.84
395 4.57779
400 5.51015
405 8.81118
410 12.347
415 14.6947
420 15.7667
425 18.831
430 20.2363
435 21.2952
440 23.0378
445 23.108
450 22.869
455 23.9097
460 25.5699
465 26.8587
470 27.3945
475 27.8744
480 27.6381
485 27.0075
490 26.7214
495 26.1384
500 24.7426
505 23.7824
510 21.7571
515 20.475
520 18.5995
525 16.7583
530 15.458
535 14.1673
540 12.4123
545 11.1132
550 10.0418
555 8.85104
560 7.95592
565 6.65873
570 5.70403
575 4.39488
580 3.44423
585 2.72669
590 2.11164
595 1.72047
600 2.30095
Ex : 388
200 0.151096
205 0.14348
210 0.147521
215 0.160013
220 0.124852
225 0.104577
230 0.162012
235 0.111691
240 0.148825
245 0.176966
250 0.140529
255 0.116486
260 0.109969
265 0.0963256
270 0.184405
275 0.138809
280 0.133457
285 0.138219
290 0.114313
295 0.126276
300 0.148596
305 0.155919
310 0.174222
315 0.129116
320 0.114694
325 0.125431
330 0.250064
335 0.143443
340 0.133741
345 0.141808
350 0.165413
355 0.235962
360 0.204449
365 0.300671
370 0.504106
375 10.4369
380 175.41
385 280.602
390 77.2868
395 11.8511
400 5.25352
405 7.84036
410 11.7715
415 14.1265
420 14.34
425 14.1774
430 17.5342
435 21.4443
440 22.8575
445 22.819
450 22.5735
455 23.0274
460 24.4209
465 26.3319
470 27.5157
475 27.9654
480 28.5209
485 27.5164
490 27.7279
495 26.6181
500 25.3971
505 24.7779
510 22.8104
515 20.6057
520 19.5536
525 17.6286
530 15.9978
535 14.5142
540 13.1276
545 11.8343
550 10.7532
555 9.33119
560 7.96495
565 6.77377
570 5.91714
575 4.6313
580 3.53088
585 2.85376
590 2.11963
595 1.72314
600 1.40639
Ex : 393
200 0.151507
205 0.144085
210 0.161213
215 0.128949
220 0.192285
225 0.104992
230 0.112876
235 0.0880239
240 0.148288
245 0.125295
250 0.153694
255 0.13203
260 0.159705
265 0.179763
270 0.19183
275 0.121042
280 0.0789124
285 0.152653
290 0.120104
295 0.103953
300 0.152036
305 0.120241
310 0.120785
315 0.137581
320 0.138473
325 0.200412
330 0.175423
335 0.128333
340 0.149049
345 0.153046
350 0.130473
355 0.13947
360 0.192022
365 0.223809
370 0.297008
375 0.467961
380 9.42193
385 174.179
390 288.374
395 80.4785
400 12.4019
405 6.67626
410 9.09684
415 11.2701
420 11.3334
425 11.6714
430 12.4993
435 15.7083
440 20.3166
445 20.6121
450 20.8893
455 21.1764
460 22.162
465 24.6164
470 25.9257
475 26.5584
480 26.5847
485 27.264
490 26.6983
495 26.3525
500 25.7209
505 24.914
510 22.7722
515 21.2447
520 19.9692
525 18.3772
530 16.6816
535 15.189
540 13.5184
545 12.109
550 10.7236
555 9.47247
560 8.50624
565 7.17071
570 5.71938
575 4.75126
580 3.59315
585 2.90334
590 2.24747
595 1.85
600 1.10948
Ex : 398
200 0.1144
205 0.118363
210 0.0761264
215 0.0902266
220 0.120751
225 0.108905
230 0.130646
235 0.133225
240 0.118866
245 0.0981286
250 0.160892
255 0.130419
260 0.0855686
265 0.104413
270 0.116447
275 0.125077
280 0.178431
285 0.150386
290 0.13611
295 0.154799
300 0.119991
305 0.150853
310 0.220173
315 0.121429
320 0.157262
325 0.101199
330 0.139622
335 0.141561
340 0.121916
345 0.162239
350 0.163884
355 0.167576
360 0.257234
365 0.208921
370 0.236608
375 0.242333
380 0.504791
385 9.97707
390 179.562
395 298.061
400 82.2802
405 14.1153
410 8.68365
415 10.0821
420 10.2042
425 10.1141
430 11.4015
435 13.0715
440 15.9585
445 19.2658
450 20.5371
455 21.4025
460 22.3633
465 23.7411
470 25.4516
475 26.2741
480 26.9994
485 26.8892
490 26.9765
495 26.6791
500 26.2401
505 25.0405
510 23.79
515 21.5721
520 20.058
525 18.3604
530 16.7002
535 15.2702
540 14.0338
545 12.6012
550 11.1373
555 10.1093
560 8.69279
565 7.25759
570 6.28923
575 5.00951
580 3.94368
585 2.97962
590 2.28538
595 1.77953
600 1.08566
Ex : 403
200 0.116541
205 0.139452
210 0.120253
215 0.13877
220 0.195762
225 0.13352
230 0.189425
235 0.173774
240 0.1409
245 0.152317
250 0.116295
255 0.100946
260 0.104333
265 0.133109
270 0.0996771
275 0.102358
280 0.104088
285 0.15132
290 0.124211
295 0.140222
300 0.186383
305 0.148188
310 0.114194
315 0.11543
320 0.150549
325 0.143722
330 0.110904
335 0.149884
340 0.161305
345 0.141464
350 0.150952
355 0.244106
360 0.18363
365 0.260614
370 0.215848
375 0.282656
380 0.345728
385 0.452899
390 11.1714
395 182.247
400 294.066
405 84.0663
410 17.1609
415 11.0533
420 10.699
425 11.0905
430 11.8279
435 13.65
440 15.8757
445 18.1097
450 20.7001
455 23.8394
460 23.5231
465 25.5564
470 26.9933
475 27.6227
480 27.6814
485 28.0335
490 28.5041
495 28.0519
500 26.7976
505 25.7202
510 23.4698
515 22.5604
520 20.4271
525 18.6919
530 17.4601
535 15.8406
540 14.0027
545 12.7829
550 11.1594
555 10.272
560 8.76961
565 7.51043
570 6.59058
575 5.04035
580 4.20878
585 3.19893
590 2.35396
595 1.82354
600 1.38503
Ex : 408
200 0.112699
205 0.120751
210 0.108746
215 0.108977
220 0.156404
225 0.126581
230 0.146968
235 0.1267
240 0.111335
245 0.136626
250 0.137277
255 0.137899
260 0.110638
265 0.0993529
270 0.134554
275 0.115787
280 0.0992274
285 0.125582
290 0.189068
295 0.207434
300 0.121547
305 0.151619
310 0.14299
315 0.11835
320 0.168862
325 0.162736
330 0.129083
335 0.129158
340 0.135833
345 0.117574
350 0.157941
355 0.138052
360 0.19084
365 0.188558
370 0.144427
375 0.198618
380 0.241623
385 0.304389
390 0.5084
395 10.6588
400 188.185
405 303.836
410 85.2724
415 18.5727
420 10.7625
425 10.0802
430 10.9789
435 12.6527
440 15.0508
445 15.911
450 17.653
455 21.0731
460 24.3635
465 25.4072
470 26.4209
475 27.4903
480 27.2275
485 27.36
490 27.8626
495 27.5801
500 26.6552
505 25.2713
510 24.3862
515 22.6499
520 20.2189
525 18.779
530 17.3417
535 15.8693
540 14.4568
545 12.5636
550 11.3311
555 10.4799
560 8.70612
565 7.45237
570 6.32762
575 5.16809
580 3.94627
585 3.04038
590 2.43175
595 1.76731
600 2.59568
Ex : 413
200 0.0942958
205 0.126353
210 0.147981
215 0.136599
220 0.0726154
225 0.124461
230 0.0819941
235 0.083627
240 0.0924214
245 0.0920211
250 0.128396
255 0.0985447
260 0.0975164
265 0.141838
270 0.144635
275 0.118178
280 0.105914
285 0.10038
290 0.0995426
295 0.111027
300 0.152253
305 0.1241
310 0.142139
315 0.133235
320 0.128321
325 0.110314
330 0.140465
335 0.164399
340 0.107542
345 0.112745
350 0.149884
355 0.124419
360 0.133783
365 0.196438
370 0.168589
375 0.210781
380 0.169255
385 0.263834
390 0.30538
395 0.606461
400 12.7181
405 197.519
410 313.963
415 85.7023
420 15.5816
425 7.24991
430 6.9777
435 8.94792
440 10.2322
445 11.5547
450 13.2279
455 15.413
460 18.7748
465 22.3762
470 23.9602
475 24.7571
480 25.0081
485 25.5688
490 25.4062
495 25.599
500 25.0086
505 23.9636
510 22.6875
515 20.9835
520 19.5281
525 18.2641
530 16.3631
535 14.9813
540 13.7823
545 12.1707
550 11.2093
555 9.72381
560 8.44976
565 7.28352
570 6.17423
575 5.04176
580 3.72854
585 2.96799
590 2.33477
595 1.78046
600 1.04704
Ex : 418
200 0.100356
205 0.0992105
210 0.155145
215 0.13766
220 0.116667
225 0.14714
230 0.137613
235 0.108533
240 0.102649
245 0.122554
250 0.123342
255 0.106878
260 0.0800396
265 0.106903
270 0.100121
275 0.0795034
280 0.152661
285 0.132783
290 0.13069
295 0.122923
300 0.134818
305 0.153032
310 0.159387
315 0.116683
320 0.133171
325 0.130877
330 0.105899
335 0.178192
340 0.149094
345 0.11934
350 0.114233
355 0.0909677
360 0.186314
365 0.14507
370 0.221039
375 0.185603
380 0.222396
385 0.20323
390 0.247425
395 0.357344
400 0.750985
405 12.4902
410 203.873
415 328.653
420 90.016
425 13.6014
430 5.02601
435 4.85854
440 6.16467
445 7.55557
450 9.23372
455 11.4693
460 14.0347
465 16.876
470 20.8257
475 22.6436
480 23.088
485 23.0321
490 23.327
495 22.9296
500 22.9123
505 22.0271
510 21.3821
515 19.7254
520 18.0294
525 16.7012
530 15.3215
535 14.5792
540 12.6003
545 11.5883
550 10.5304
555 9.06777
560 8.00998
565 7.12724
570 5.72519
575 4.61698
580 3.61948
585 2.76918
590 2.24517
595 1.68866
600 1.0901
Ex : 423
200 0.154145
205 0.125853
210 0.137228
215 0.129657
220 0.101438
225 0.126336
230 0.0977237
235 0.0915083
240 0.102533
245 0.132216
250 0.0859893
255 0.121251
260 0.131958
265 0.161792
270 0.150304
275 0.117204
280 0.111897
285 0.134113
290 0.110972
295 0.117497
300 0.0959805
305 0.0632977
310 0.139678
315 0.124678
320 0.142548
325 0.179028
330 0.12432
335 0.15486
340 0.0855455
345 0.143822
350 0.117998
355 0.150804
360 0.187831
365 0.182813
370 0.121113
375 0.162776
380 0.124216
385 0.167848
390 0.211396
395 0.262193
400 0.441258
405 0.672525
410 12.3843
415 212.487
420 328.971
425 84.4415
430 11.8878
435 3.95107
440 3.69076
445 5.40693
450 7.21758
455 9.31
460 11.2526
465 13.5275
470 16.0909
475 19.3654
480 21.4839
485 21.4198
490 21.2099
495 21.3725
500 20.7021
505 20.0296
510 19.3434
515 18.0212
520 16.4485
525 15.645
530 14.0763
535 13.2575
540 11.9764
545 10.7359
550 9.64012
555 8.61057
560 7.72951
565 6.54947
570 5.38789
575 4.39934
580 3.37442
585 2.5826
590 2.1685
595 1.64336
600 0.756503
Ex : 428
200 0.110051
205 0.105069
210 0.107172
215 0.126142
220 0.096537
225 0.107208
230 0.15466
235 0.118823
240 0.103346
245 0.0975473
250 0.162
255 0.147106
260 0.16184
265 0.1353
270 0.146883
275 0.149036
280 0.166039
285 0.103516
290 0.15771
295 0.135799
300 0.107791
305 0.0874731
310 0.0834358
315 0.0922394
320 0.109534
325 0.132979
330 0.122466
335 0.121243
340 0.0953385
345 0.116137
350 0.144915
355 0.196662
360 0.123876
365 0.175728
370 0.135917
375 0.150649
380 0.156569
385 0.144713
390 0.159921
395 0.180665
400 0.335643
405 0.409184
410 0.577946
415 13.9505
420 219.498
425 337.561
430 88.515
435 12.2495
440 4.1279
445 4.16874
450 5.96061
455 8.18264
460 10.2963
465 11.7095
470 13.5277
475 15.4256
480 18.0927
485 20.8358
490 19.8315
495 19.4135
500 19.0517
505 18.0745
510 17.2395
515 16.0453
520 15.0544
525 13.8506
530 12.7502
535 11.8904
540 10.7834
545 9.62602
550 8.8893
555 8.10247
560 7.17659
565 5.92956
570 4.86265
575 3.72495
580 2.9415
585 2.38305
590 1.83558
595 1.41794
600 1.10959
Ex : 433
200 0.13815
205 0.152809
210 0.145241
215 0.145036
220 0.12151
225 0.140274
230 0.154235
235 0.128282
240 0.123885
245 0.130652
250 0.110732
255 0.102581
260 0.138406
265 0.132699
270 0.139217
275 0.15386
280 0.150017
285 0.110771
290 0.12348
295 0.130657
300 0.135395
305 0.137729
310 0.0927032
315 0.145623
320 0.121282
325 0.107346
330 0.130836
335 0.0990328
340 0.122808
345 0.174979
350 0.179966
355 0.159434
360 0.132193
365 0.132163
370 0.137597
375 0.165718
380 0.16608
385 0.180288
390 0.255464
395 0.225718
400 0.210321
405 0.357555
410 0.400267
415 0.625505
420 15.9974
425 240.271
430 351.585
435 89.697
440 12.5072
445 4.52901
450 5.06785
455 6.7361
460 8.92659
465 10.4774
470 11.8675
475 13.0153
480 14.1528
485 15.8292
490 18.4408
495 18.4981
500 17.0083
505 16.5479
510 15.4264
515 14.2175
520 13.0975
525 12.742
530 11.4994
535 10.5118
540 9.52353
545 8.54839
550 7.82375
555 7.05524
560 5.84988
565 5.01648
570 4.30503
575 3.47174
580 2.78925
585 2.09089
590 1.70811
595 1.40777
600 1.20209
Ex : 438
200 0.111208
205 0.143313
210 0.12476
215 0.162832
220 0.118801
225 0.110223
230 0.127237
235 0.156907
240 0.123832
245 0.156924
250 0.15119
255 0.135527
260 0.13071
265 0.158471
270 0.137564
275 0.0970584
280 0.0976162
285 0.0912453
290 0.0979467
295 0.122563
300 0.0881508
305 0.152878
310 0.205776
315 0.197644
320 0.134023
325 0.115622
330 0.118148
335 0.130629
340 0.121389
345 0.18326
350 0.153208
355 0.121221
360 0.121073
365 0.179071
370 0.157886
375 0.137285
380 0.168116
385 0.154102
390 0.216202
395 0.216286
400 0.226284
405 0.192131
410 0.245799
415 0.320545
420 0.644378
425 15.159
430 243.59
435 380.222
440 95.5669
445 13.8277
450 5.42183
455 5.78197
460 7.55426
465 9.16395
470 10.0509
475 10.972
480 11.8171
485 12.8004
490 14.1211
495 15.8867
500 15.9893
505 14.0861
510 13.3176
515 12.4105
520 11.6814
525 11.0278
530 9.92328
535 8.87799
540 8.10787
545 7.33064
550 6.71109
555 6.04358
560 5.2377
565 4.54086
570 3.69376
575 3.09905
580 2.39391
585 1.83028
590 1.36594
595 1.12151
600 1.63729
Ex : 443
200 0.173409
205 0.160339
210 0.143812
215 0.104137
220 0.16927
225 0.145453
230 0.12389
235 0.133819
240 0.14019
245 0.110491
250 0.157788
255 0.149833
260 0.117454
265 0.136889
270 0.0989332
275 0.112301
280 0.116704
285 0.185115
290 0.157415
295 0.129868
300 0.123323
305 0.143422
310 0.152472
315 0.148311
320 0.096154
325 0.11332
330 0.126334
335 0.170465
340 0.163439
345 0.141307
350 0.144083
355 0.110685
360 0.149611
365 0.142946
370 0.145157
375 0.180442
380 0.156557
385 0.20476
390 0.197531
395 0.183462
400 0.207975
405 0.202054
410 0.2694
415 0.348704
420 0.36609
425 0.658889
430 17.2922
435 263.025
440 388.84
445 97.8012
450 14.5406
455 5.88535
460 5.74113
465 7.10559
470 8.51413
475 9.06092
480 9.75235
485 10.1002
490 10.9223
495 11.1297
500 12.4287
505 13.345
510 12.0597
515 10.9035
520 10.0732
525 8.81606
530 8.21363
535 7.58393
540 7.03575
545 6.12805
550 5.48911
555 4.75006
560 4.3147
565 3.74566
570 3.14643
575 2.55862
580 1.99937
585 1.62075
590 1.19946
595 0.930287
600 0.656747
Ex : 448
200 0.134634
205 0.124159
210 0.109725
215 0.110562
220 0.15153
225 0.144326
230 0.141803
235 0.135343
240 0.0984809
245 0.101231
250 0.0919667
255 0.119657
260 0.131734
265 0.0889313
270 0.14101
275 0.161046
280 0.21313
285 0.150321
290 0.122413
295 0.148678
300 0.0934314
305 0.160916
310 0.113719
315 0.155694
320 0.176809
325 0.127635
330 0.128276
335 0.152982
340 0.174467
345 0.174735
350 0.173428
355 0.15141
360 0.117741
365 0.168916
370 0.188101
375 0.215451
380 0.178242
385 0.157869
390 0.154199
395 0.16966
400 0.208678
405 0.222111
410 0.252617
415 0.2333
420 0.304624
425 0.407323
430 0.55656
435 18.5092
440 282.009
445 411.015
450 103.067
455 15.1723
460 5.7825
465 5.51534
470 6.275
475 6.97573
480 7.69783
485 8.04262
490 8.15438
495 8.32608
500 8.73262
505 9.42315
510 10.3847
515 9.16732
520 8.1304
525 7.28062
530 6.81105
535 6.06555
540 5.38092
545 5.10448
550 4.39089
555 4.23075
560 3.61864
565 3.01601
570 2.55731
575 2.13257
580 1.67016
585 1.23702
590 1.11124
595 0.910754
600 1.02289
Ex : 453
200 0.0996986
205 0.133028
210 0.126024
215 0.103239
220 0.107927
225 0.10159
230 0.134829
235 0.143462
240 0.125196
245 0.117906
250 0.141457
255 0.146748
260 0.165507
265 0.128942
270 0.12828
275 0.137736
280 0.135153
285 0.120515
290 0.111166
295 0.0842
300 0.111636
305 0.146879
310 0.116232
315 0.0939386
320 0.119159
325 0.101217
330 0.110425
335 0.105155
340 0.160252
345 0.162696
350 0.126087
355 0.129182
360 0.118824
365 0.111253
370 0.106414
375 0.155375
380 0.132453
385 0.145655
390 0.162246
395 0.19862
400 0.191763
405 0.222829
410 0.197807
415 0.242863
420 0.294973
425 0.339701
430 0.475274
435 0.760274
440 19.7909
445 309.603
450 430.792
455 100.805
460 14.5878
465 5.32597
470 4.38671
475 5.09073
480 5.36162
485 5.81956
490 6.12165
495 6.09597
500 6.01396
505 5.88029
510 6.33458
515 8.04114
520 7.38221
525 6.03835
530 5.44332
535 4.94898
540 4.26315
545 4.04579
550 3.46432
555 3.01628
560 2.69135
565 2.49479
570 2.09318
575 1.52779
580 1.3833
585 1.07213
590 0.955705
595 0.721656
600 0.451844
Ex : 458
200 0.135783
205 0.0770324
210 0.119349
215 0.11677
220 0.128381
225 0.146818
230 0.166026
235 0.106731
240 0.0941212
245 0.150767
250 0.113968
255 0.122234
260 0.136851
265 0.257087
270 0.113236
275 0.15329
280 0.129918
285 0.20932
290 0.118703
295 0.157837
300 0.130159
305 0.106997
310 0.163283
315 0.15104
320 0.113151
325 0.110782
330 0.138792
335 0.122331
340 0.122826
345 0.140518
350 0.142571
355 0.176538
360 0.141386
365 0.189188
370 0.161352
375 0.147537
380 0.127109
385 0.11105
390 0.203797
395 0.218429
400 0.166873
405 0.152077
410 0.219427
415 0.176047
420 0.282672
425 0.217925
430 0.344233
435 0.444561
440 0.856159
445 22.5215
450 316.639
455 449.564
460 108.666
465 15.1377
470 4.65291
475 3.53127
480 3.97434
485 4.53291
490 4.36374
495 4.27038
500 4.26484
505 4.24802
510 4.25007
515 4.19718
520 5.37272
525 6.0088
530 4.64974
535 3.77604
540 3.51938
545 3.23474
550 2.67088
555 2.4512
560 2.25148
565 1.90022
570 1.65219
575 1.34778
580 1.0093
585 0.87764
590 0.71066
595 0.708744
600 0.561651
Ex : 463
200 0.145168
205 0.135057
210 0.12951
215 0.123199
220 0.115723
225 0.103375
230 0.116878
235 0.101074
240 0.101254
245 0.0859789
250 0.134642
255 0.154198
260 0.104457
265 0.0885888
270 0.087236
275 0.0873744
280 0.15127
285 0.218508
290 0.127173
295 0.115114
300 0.136966
305 0.08575
310 0.108073
315 0.147094
320 0.125381
325 0.12062
330 0.0826721
335 0.132873
340 0.105943
345 0.121889
350 0.129425
355 0.135738
360 0.121125
365 0.134203
370 0.182694
375 0.154805
380 0.149586
385 0.150772
390 0.17243
395 0.163288
400 0.198379
405 0.168238
410 0.175991
415 0.199424
420 0.193878
425 0.198447
430 0.204339
435 0.264426
440 0.421156
445 0.727867
450 20.3497
455 324.844
460 476.877
465 114.32
470 15.376
475 4.11497
480 2.87248
485 2.78267
490 3.43771
495 3.45423
500 3.0983
505 3.19285
510 2.94758
515 3.12266
520 2.99563
525 3.7785
530 4.63757
535 3.97826
540 3.20347
545 2.90408
550 2.69218
555 2.12481
560 1.75105
565 1.69205
570 1.48403
575 1.21779
580 0.883005
585 0.733755
590 0.602362
595 0.558468
600 0.203478
Ex : 468
200 0.152807
205 0.128245
210 0.120922
215 0.115988
220 0.186269
225 0.134856
230 0.115188
235 0.135154
240 0.118503
245 0.160247
250 0.0976137
255 0.1317
260 0.118645
265 0.0984525
270 0.150084
275 0.10662
280 0.0985776
285 0.120161
290 0.133728
295 0.115681
300 0.123837
305 0.12744
310 0.117482
315 0.160571
320 0.140744
325 0.116722
330 0.158816
335 0.126592
340 0.112445
345 0.144689
350 0.120046
355 0.108184
360 0.111462
365 0.162916
370 0.143237
375 0.121005
380 0.128589
385 0.101821
390 0.145402
395 0.169136
400 0.161963
405 0.13378
410 0.125933
415 0.117527
420 0.164174
425 0.209852
430 0.247396
435 0.244082
440 0.28339
445 0.483947
450 0.772714
455 22.4252
460 319.688
465 481.377
470 114.193
475 14.817
480 3.67197
485 2.28331
490 2.32199
495 2.68951
500 2.75106
505 2.5915
510 2.42959
515 2.33039
520 2.42552
525 2.3693
530 2.73549
535 3.89306
540 3.94579
545 2.78573
550 2.35138
555 2.15478
560 1.88777
565 1.51475
570 1.38281
575 1.17496
580 0.829588
585 0.706326
590 0.651713
595 0.467783
600 0.134921
Ex : 473
200 0.0680053
205 0.105255
210 0.105069
215 0.103494
220 0.120135
225 0.130341
230 0.135335
235 0.13523
240 0.108208
245 0.104022
250 0.193894
255 0.112124
260 0.123887
265 0.133387
270 0.0909208
275 0.12358
280 0.14904
285 0.108587
290 0.145508
295 0.108159
300 0.104424
305 0.0955614
310 0.138445
315 0.135556
320 0.13091
325 0.150359
330 0.201969
335 0.172383
340 0.116645
345 0.167936
350 0.134008
355 0.150662
360 0.152654
365 0.153552
370 0.20848
375 0.150768
380 0.130605
385 0.16383
390 0.138108
395 0.152626
400 0.128972
405 0.133301
410 0.172842
415 0.213055
420 0.140312
425 0.172264
430 0.179122
435 0.253104
440 0.268918
445 0.347948
450 0.436987
455 0.751902
460 26.1938
465 347.284
470 459.272
475 105.83
480 13.7568
485 3.28331
490 2.13432
495 2.07858
500 2.32182
505 2.25145
510 2.22964
515 2.04854
520 2.01104
525 2.14437
530 2.11866
535 2.0999
540 3.10361
545 3.7027
550 2.6641
555 2.12983
560 1.92554
565 1.64442
570 1.26978
575 1.11234
580 0.857185
585 0.769246
590 0.598386
595 0.530537
600 0.487928
Ex : 478
200 0.159089
205 0.134078
210 0.108832
215 0.142667
220 0.206416
225 0.132579
230 0.12872
235 0.0956515
240 0.0898228
245 0.122297
250 0.11139
255 0.135379
260 0.136533
265 0.144456
270 0.113229
275 0.119926
280 0.128562
285 0.149301
290 0.126426
295 0.135737
300 0.112459
305 0.127251
310 0.123498
315 0.17538
320 0.142887
325 0.142538
330 0.146904
335 0.164167
340 0.133213
345 0.163713
350 0.195825
355 0.122026
360 0.203836
365 0.0913187
370 0.119065
375 0.153444
380 0.098231
385 0.191447
390 0.144774
395 0.175045
400 0.137738
405 0.188181
410 0.130824
415 0.156538
420 0.248205
425 0.190421
430 0.214652
435 0.271067
440 0.283563
445 0.299699
450 0.337156
455 0.532022
460 0.785734
465 26.3397
470 351.276
475 465.95
480 110.288
485 14.1004
490 3.21856
495 2.04086
500 1.8782
505 1.8849
510 1.93159
515 1.95608
520 1.84554
525 1.8761
530 1.77644
535 1.809
540 1.90887
545 2.35805
550 3.18622
555 2.81335
560 1.95102
565 1.78092
570 1.4978
575 1.20674
580 0.934597
585 0.70008
590 0.595591
595 0.507938
600 0.434909
Ex : 483
200 0.0945191
205 0.129324
210 0.148482
215 0.117663
220 0.194572
225 0.144294
230 0.142575
235 0.140826
240 0.132326
245 0.149587
250 0.140239
255 0.173007
260 0.129554
265 0.163778
270 0.137505
275 0.136568
280 0.0914863
285 0.192573
290 0.134121
295 0.154063
300 0.152451
305 0.20289
310 0.174956
315 0.162652
320 0.14412
325 0.160348
330 0.164532
335 0.135707
340 0.168034
345 0.143551
350 0.183138
355 0.126321
360 0.180417
365 0.133502
370 0.159869
375 0.161598
380 0.168482
385 0.142424
390 0.15314
395 0.175348
400 0.156385
405 0.206763
410 0.207213
415 0.243716
420 0.213649
425 0.204032
430 0.212605
435 0.203888
440 0.231882
445 0.268957
450 0.272462
455 0.391827
460 0.48881
465 0.807409
470 21.3039
475 341.278
480 494.853
485 117.939
490 14.9496
495 3.18421
500 1.74699
505 1.49175
510 1.80621
515 1.87731
520 1.8316
525 1.78134
530 1.74421
535 1.71043
540 1.69852
545 1.69378
550 1.98187
555 2.67287
560 2.77989
565 1.9308
570 1.49844
575 1.32113
580 0.977124
585 0.679014
590 0.67524
595 0.489171
600 0.365527
Ex : 488
200 0.172471
205 0.128886
210 0.131529
215 0.181063
220 0.158988
225 0.209981
230 0.137268
235 0.115209
240 0.122259
245 0.169427
250 0.144763
255 0.201325
260 0.174569
265 0.187861
270 0.227613
275 0.126644
280 0.157353
285 0.127145
290 0.124187
295 0.144558
300 0.143814
305 0.14565
310 0.106631
315 0.141883
320 0.109235
325 0.191695
330 0.171048
335 0.153042
340 0.180698
345 0.150229
350 0.173722
355 0.207074
360 0.16566
365 0.190656
370 0.17656
375 0.165337
380 0.152881
385 0.187802
390 0.158605
395 0.175708
400 0.19919
405 0.114479
410 0.180376
415 0.166965
420 0.192636
425 0.148792
430 0.257486
435 0.230797
440 0.255541
445 0.244785
450 0.290264
455 0.383811
460 0.418621
465 0.595648
470 0.88949
475 25.2576
480 362.503
485 481.02
490 111.69
495 14.2064
500 2.92292
505 1.68592
510 1.51672
515 1.65707
520 1.9572
525 1.82129
530 1.74305
535 1.68847
540 1.49266
545 1.37155
550 1.64825
555 1.53694
560 2.19152
565 2.55457
570 1.93771
575 1.25457
580 1.00705
585 0.76737
590 0.675764
595 0.488859
600 0.0556303
Ex : 493
200 0.174745
205 0.1463
210 0.155637
215 0.103302
220 0.1552
225 0.116083
230 0.126807
235 0.127091
240 0.165074
245 0.214339
250 0.175619
255 0.142935
260 0.130559
265 0.180675
270 0.16053
275 0.152088
280 0.211518
285 0.156451
290 0.136664
295 0.117138
300 0.123832
305 0.148397
310 0.165837
315 0.166125
320 0.161531
325 0.117146
330 0.141476
335 0.198645
340 0.1761
345 0.14604
350 0.13575
355 0.172415
360 0.200072
365 0.133298
370 0.135368
375 0.184124
380 0.139363
385 0.169946
390 0.235114
395 0.210206
400 0.150533
405 0.19274
410 0.209095
415 0.145339
420 0.247105
425 0.20178
430 0.246669
435 0.200558
440 0.176029
445 0.21299
450 0.234551
455 0.283277
460 0.267587
465 0.497331
470 0.464598
475 0.900585
480 22.9118
485 350.259
490 501.028
495 113.736
500 14.1866
505 2.87815
510 1.51436
515 1.29552
520 1.62422
525 1.8453
530 1.71702
535 1.73897
540 1.57566
545 1.46444
550 1.33192
555 1.28697
560 1.20096
565 1.56224
570 2.09039
575 1.80567
580 1.12878
585 0.848919
590 0.731864
595 0.620359
600 0.493402
Ex : 498
200 0.166431
205 0.161867
210 0.147699
215 0.170056
220 0.184294
225 0.159056
230 0.169925
235 0.18053
240 0.148687
245 0.177623
250 0.14612
255 0.169878
260 0.12258
265 0.172577
270 0.145584
275 0.171875
280 0.156271
285 0.139807
290 0.178024
295 0.185991
300 0.194039
305 0.120779
310 0.15613
315 0.104982
320 0.120285
325 0.142781
330 0.203312
335 0.15293
340 0.115283
345 0.12184
350 0.197784
355 0.211516
360 0.24018
365 0.293014
370 0.182789
375 0.135359
380 0.149949
385 0.150612
390 0.21953
395 0.141013
400 0.141135
405 0.198098
410 0.280429
415 0.213524
420 0.207251
425 0.248648
430 0.278403
435 0.267756
440 0.220879
445 0.224158
450 0.24899
455 0.33618
460 0.304792
465 0.411532
470 0.358587
475 0.522852
480 0.766772
485 26.9321
490 362.469
495 476.679
500 109.421
505 13.8626
510 2.74913
515 1.55951
520 1.39715
525 1.4274
530 1.75575
535 1.70643
540 1.61979
545 1.57424
550 1.34794
555 1.38575
560 1.12047
565 1.08246
570 1.13332
575 1.66045
580 1.5157
585 1.10612
590 0.729584
595 0.629503
600 0.374515
Ex : 503
200 0.139505
205 0.184535
210 0.171666
215 0.207469
220 0.18103
225 0.164723
230 0.134654
235 0.157382
240 0.204045
245 0.14107
250 0.157303
255 0.267181
260 0.200975
265 0.175765
270 0.175541
275 0.181794
280 0.190647
285 0.196232
290 0.233611
295 0.130905
300 0.136266
305 0.168613
310 0.198555
315 0.112065
320 0.166373
325 0.175187
330 0.176925
335 0.161244
340 0.12928
345 0.149651
350 0.16413
355 0.166586
360 0.198235
365 0.208866
370 0.128841
375 0.102568
380 0.203702
385 0.244995
390 0.185503
395 0.124421
400 0.135043
405 0.192115
410 0.161799
415 0.177811
420 0.162544
425 0.21896
430 0.195414
435 0.20537
440 0.248998
445 0.243932
450 0.247669
455 0.244389
460 0.28485
465 0.361988
470 0.356167
475 0.509546
480 0.623328
485 0.870608
490 23.7657
495 360.926
500 481.998
505 108.994
510 13.7251
515 2.95923
520 1.6849
525 1.36226
530 1.29155
535 1.55594
540 1.71744
545 1.46373
550 1.27971
555 1.21707
560 1.13888
565 1.07826
570 1.02245
575 0.893445
580 1.03851
585 1.20507
590 0.910992
595 0.63231
600 0.664082
Ex : 508
200 0.237472
205 0.181508
210 0.165636
215 0.198
220 0.224817
225 0.199324
230 0.19085
235 0.214461
240 0.218449
245 0.153579
250 0.164175
255 0.140638
260 0.179567
265 0.200376
270 0.147654
275 0.172931
280 0.199754
285 0.147993
290 0.2452
295 0.141969
300 0.227772
305 0.172769
310 0.198622
315 0.227567
320 0.191469
325 0.179531
330 0.162489
335 0.14488
340 0.180246
345 0.256852
350 0.177522
355 0.178459
360 0.14045
365 0.172877
370 0.186286
375 0.213697
380 0.190062
385 0.18397
390 0.226763
395 0.21981
400 0.174143
405 0.233242
410 0.219289
415 0.301209
420 0.271315
425 0.295035
430 0.285116
435 0.228152
440 0.291804
445 0.264283
450 0.376914
455 0.253775
460 0.25171
465 0.285976
470 0.324407
475 0.355309
480 0.500188
485 0.698765
490 0.849483
495 25.7217
500 355.369
505 481.283
510 114.839
515 14.3858
520 2.90757
525 1.55854
530 1.40524
535 1.32178
540 1.43222
545 1.44299
550 1.39772
555 1.28414
560 1.0227
565 0.961616
570 0.975317
575 0.813859
580 0.755957
585 0.766892
590 1.08108
595 0.864679
600 0.576535
Ex : 513
200 0.194807
205 0.174906
210 0.215049
215 0.215321
220 0.277776
225 0.27345
230 0.162593
235 0.217101
240 0.192439
245 0.165564
250 0.1703
255 0.268282
260 0.192175
265 0.192686
270 0.195617
275 0.154821
280 0.174767
285 0.152402
290 0.169197
295 0.221301
300 0.124634
305 0.24272
310 0.179986
315 0.206016
320 0.226266
325 0.145023
330 0.141014
335 0.217664
340 0.21128
345 0.204515
350 0.199988
355 0.242609
360 0.174226
365 0.204322
370 0.198037
375 0.20527
380 0.253048
385 0.170812
390 0.169893
395 0.183784
400 0.180311
405 0.202187
410 0.171947
415 0.20094
420 0.18797
425 0.178242
430 0.235263
435 0.196101
440 0.220027
445 0.228156
450 0.246372
455 0.260516
460 0.253195
465 0.34438
470 0.276249
475 0.282049
480 0.350465
485 0.422402
490 0.592878
495 0.840252
500 23.1159
505 350.172
510 485.622
515 116.736
520 14.7221
525 2.93977
530 1.53657
535 1.32157
540 1.18965
545 1.32408
550 1.5426
555 1.31698
560 1.17264
565 0.957562
570 0.889504
575 0.817822
580 0.677554
585 0.490787
590 0.554111
595 0.78127
600 0.487485
Ex : 518
200 0.13701
205 0.2196
210 0.152473
215 0.168069
220 0.186907
225 0.140013
230 0.155329
235 0.189233
240 0.192226
245 0.185754
250 0.120991
255 0.220787
260 0.196574
265 0.16321
270 0.184417
275 0.165563
280 0.12959
285 0.211323
290 0.190596
295 0.165116
300 0.183333
305 0.157539
310 0.133869
315 0.174264
320 0.171101
325 0.162595
330 0.262362
335 0.180681
340 0.194226
345 0.23375
350 0.18632
355 0.11238
360 0.143461
365 0.147116
370 0.148742
375 0.232158
380 0.159648
385 0.309033
390 0.237218
395 0.181748
400 0.217119
405 0.190413
410 0.197834
415 0.208944
420 0.269505
425 0.229721
430 0.220071
435 0.203947
440 0.240407
445 0.219615
450 0.211054
455 0.260977
460 0.328988
465 0.336076
470 0.320893
475 0.363227
480 0.354988
485 0.364328
490 0.47191
495 0.561192
500 0.824848
505 23.1632
510 327.103
515 467.601
520 113.514
525 14.2632
530 2.79063
535 1.50031
540 1.14484
545 1.1884
550 1.29449
555 1.22654
560 1.15394
565 1.08805
570 0.889751
575 0.752625
580 0.741466
585 0.62432
590 0.536417
595 0.476191
600 1.00121
Ex : 523
200 0.15416
205 0.196759
210 0.154115
215 0.142972
220 0.187783
225 0.197552
230 0.243735
235 0.265999
240 0.153971
245 0.19817
250 0.156949
255 0.191972
260 0.156852
265 0.170017
270 0.163523
275 0.138234
280 0.157864
285 0.172424
290 0.209461
295 0.189373
300 0.171993
305 0.174099
310 0.180086
315 0.182779
320 0.189846
325 0.193141
330 0.199783
335 0.174477
340 0.22964
345 0.22736
350 0.189606
355 0.203412
360 0.20946
365 0.176399
370 0.139175
375 0.163412
380 0.197972
385 0.16873
390 0.172811
395 0.147208
400 0.290661
405 0.204408
410 0.299916
415 0.169788
420 0.256564
425 0.218967
430 0.170896
435 0.232395
440 0.232104
445 0.254201
450 0.23847
455 0.284366
460 0.2863
465 0.295643
470 0.253651
475 0.191021
480 0.298173
485 0.2622
490 0.352428
495 0.474007
500 0.478726
505 0.79576
510 20.169
515 313.758
520 466.47
525 119.8
530 14.9797
535 2.73259
540 1.56047
545 1.14065
550 1.01989
555 1.09469
560 1.06473
565 1.12299
570 0.834152
575 0.626861
580 0.607229
585 0.585729
590 0.539181
595 0.401281
600 0.273929
Ex : 528
200 0.126198
205 0.141485
210 0.176876
215 0.258914
220 0.226878
225 0.284243
230 0.162354
235 0.278934
240 0.277594
245 0.26613
250 0.184973
255 0.220707
260 0.183
265 0.155155
270 0.156414
275 0.223304
280 0.224142
285 0.182708
290 0.22745
295 0.214371
300 0.160288
305 0.153286
310 0.207702
315 0.197612
320 0.211305
325 0.135909
330 0.250132
335 0.189329
340 0.20822
345 0.243882
350 0.23791
355 0.229431
360 0.220177
365 0.236189
370 0.190146
375 0.215954
380 0.22011
385 0.16995
390 0.175532
395 0.18516
400 0.241709
405 0.196529
410 0.287857
415 0.260737
420 0.199731
425 0.242527
430 0.287146
435 0.234571
440 0.217262
445 0.277194
450 0.247368
455 0.226753
460 0.2058
465 0.253514
470 0.190986
475 0.303576
480 0.310432
485 0.266905
490 0.457791
495 0.371863
500 0.423195
505 0.596739
510 0.816813
515 19.958
520 309.067
525 450.075
530 112.662
535 14.1506
540 2.61473
545 1.35232
550 1.16039
555 0.980527
560 0.964739
565 1.02231
570 0.903515
575 0.752215
580 0.667351
585 0.52182
590 0.542008
595 0.441432
600 0.372065
Ex : 533
200 0.26494
205 0.173649
210 0.167577
215 0.179948
220 0.182115
225 0.249927
230 0.137783
235 0.24014
240 0.246427
245 0.210098
250 0.174634
255 0.19996
260 0.181849
265 0.223327
270 0.176762
275 0.276409
280 0.230098
285 0.186411
290 0.25693
295 0.188014
300 0.193089
305 0.199765
310 0.199628
315 0.216266
320 0.219559
325 0.249553
330 0.252553
335 0.245013
340 0.176273
345 0.159349
350 0.235409
355 0.201741
360 0.236375
365 0.244003
370 0.212512
375 0.267163
380 0.169885
385 0.248829
390 0.221317
395 0.256458
400 0.344868
405 0.270858
410 0.282545
415 0.160485
420 0.254256
425 0.254041
430 0.207835
435 0.176157
440 0.29268
445 0.24123
450 0.288726
455 0.244356
460 0.236906
465 0.241372
470 0.333114
475 0.296359
480 0.240724
485 0.261741
490 0.274469
495 0.287974
500 0.361971
505 0.372944
510 0.567751
515 0.694559
520 19.0709
525 296.893
530 441.573
535 113.399
540 14.0522
545 2.46784
550 1.07857
555 1.02328
560 1.00668
565 0.814264
570 0.80073
575 0.849934
580 0.674379
585 0.576142
590 0.402492
595 0.34875
600 0.681585
Ex : 538
200 0.358566
205 0.221022
210 0.180663
215 0.217572
220 0.227495
225 0.163191
230 0.211733
235 0.256621
240 0.238166
245 0.221067
250 0.282022
255 0.23906
260 0.21043
265 0.210354
270 0.194866
275 0.212675
280 0.15339
285 0.174227
290 0.231305
295 0.169368
300 0.146297
305 0.247385
310 0.193316
315 0.157935
320 0.208836
325 0.180473
330 0.243906
335 0.2066
340 0.147538
345 0.273213
350 0.222804
355 0.175895
360 0.214047
365 0.308909
370 0.196087
375 0.227077
380 0.327534
385 0.216595
390 0.22017
395 0.204974
400 0.311303
405 0.228843
410 0.27369
415 0.238704
420 0.191565
425 0.207245
430 0.185201
435 0.276583
440 0.270625
445 0.250715
450 0.247772
455 0.289673
460 0.302466
465 0.27501
470 0.220137
475 0.239485
480 0.290837
485 0.265562
490 0.308356
495 0.298424
500 0.318249
505 0.365897
510 0.494844
515 0.53461
520 0.822418
525 15.986
530 282.154
535 433.656
540 114.507
545 14.2355
550 2.52255
555 1.22115
560 0.912965
565 0.773977
570 0.781945
575 0.699681
580 0.669912
585 0.546996
590 0.474624
595 0.441065
600 0.322489
Ex : 543
200 0.291933
205 0.184847
210 0.242919
215 0.261002
220 0.263187
225 0.182869
230 0.159072
235 0.340446
240 0.316204
245 0.297406
250 0.192674
255 0.214125
260 0.234196
265 0.159551
270 0.208456
275 0.14881
280 0.172972
285 0.213938
290 0.15576
295 0.209744
300 0.185381
305 0.219279
310 0.232422
315 0.288364
320 0.229641
325 0.213415
330 0.193709
335 0.314737
340 0.195284
345 0.219251
350 0.216571
355 0.200327
360 0.261232
365 0.264567
370 0.260396
375 0.181598
380 0.234192
385 0.185697
390 0.244324
395 0.212302
400 0.234072
405 0.192375
410 0.209244
415 0.240018
420 0.196756
425 0.301071
430 0.326723
435 0.228511
440 0.237699
445 0.259116
450 0.281974
455 0.25686
460 0.271889
465 0.208786
470 0.246981
475 0.255362
480 0.266777
485 0.274384
490 0.270778
495 0.28717
500 0.342012
505 0.38153
510 0.412922
515 0.452031
520 0.48184
525 0.695125
530 14.0033
535 265.81
540 433.16
545 119.453
550 14.7633
555 2.54281
560 1.199
565 0.780997
570 0.668
575 0.51517
580 0.54432
585 0.511594
590 0.540304
595 0.525335
600 0.445305
Ex : 548
200 0.157278
205 0.157818
210 0.181858
215 0.190512
220 0.254016
225 0.242544
230 0.200274
235 0.230274
240 0.175548
245 0.165598
250 0.270899
255 0.254376
260 0.165746
265 0.212489
270 0.236208
275 0.210615
280 0.228581
285 0.227325
290 0.218631
295 0.165214
300 0.193714
305 0.355355
310 0.302753
315 0.286314
320 0.293951
325 0.360445
330 0.229034
335 0.232055
340 0.17642
345 0.172771
350 0.270386
355 0.227329
360 0.179508
365 0.258881
370 0.216816
375 0.240256
380 0.214349
385 0.20724
390 0.256584
395 0.238451
400 0.264146
405 0.272205
410 0.283623
415 0.221622
420 0.197912
425 0.165358
430 0.171991
435 0.331815
440 0.209226
445 0.234387
450 0.182451
455 0.351234
460 0.336988
465 0.285623
470 0.371496
475 0.308596
480 0.24179
485 0.257184
490 0.276986
495 0.276033
500 0.28983
505 0.289229
510 0.319212
515 0.377958
520 0.408888
525 0.47573
530 0.719761
535 15.5457
540 262.467
545 411.434
550 113.784
555 14.024
560 2.33891
565 0.922002
570 0.716568
575 0.603621
580 0.457074
585 0.475011
590 0.547234
595 0.521731
600 0.531314
Ex : 553
200 0.229585
205 0.159543
210 0.27393
215 0.350544
220 0.229543
225 0.290195
230 0.169372
235 0.222405
240 0.17157
245 0.180137
250 0.187964
255 0.278604
260 0.33991
265 0.19975
270 0.22811
275 0.167483
280 0.234369
285 0.249086
290 0.196987
295 0.179107
300 0.212689
305 0.182555
310 0.255278
315 0.332293
320 0.278605
325 0.168868
330 0.242183
335 0.136358
340 0.215747
345 0.232317
350 0.233641
355 0.17534
360 0.28353
365 0.219847
370 0.196044
375 0.230203
380 0.211472
385 0.335896
390 0.179467
395 0.204475
400 0.318158
405 0.274336
410 0.202423
415 0.238563
420 0.217332
425 0.303271
430 0.256414
435 0.273658
440 0.24805
445 0.500134
450 0.336909
455 0.262808
460 0.267491
465 0.230053
470 0.213528
475 0.295974
480 0.315602
485 0.279643
490 0.373774
495 0.31178
500 0.235064
505 0.282964
510 0.223666
515 0.278005
520 0.384786
525 0.402253
530 0.57423
535 0.65662
540 13.8328
545 246.344
550 399.676
555 111.712
560 13.7094
565 2.16956
570 0.814888
575 0.573297
580 0.489921
585 0.397299
590 0.346269
595 0.473152
600 1.15561
Ex : 558
200 0.203528
205 0.230545
210 0.197964
215 0.198016
220 0.259333
225 0.300534
230 0.249438
235 0.220521
240 0.204691
245 0.281797
250 0.257975
255 0.194367
260 0.234442
265 0.179216
270 0.203915
275 0.192515
280 0.197691
285 0.212331
290 0.302195
295 0.218798
300 0.293151
305 0.239368
310 0.309885
315 0.297317
320 0.335957
325 0.288314
330 0.25284
335 0.271783
340 0.216551
345 0.213832
350 0.234679
355 0.21687
360 0.248416
365 0.270517
370 0.247382
375 0.236299
380 0.319165
385 0.254587
390 0.320707
395 0.20478
400 0.273241
405 0.255063
410 0.297797
415 0.207978
420 0.229355
425 0.237
430 0.273484
435 0.296088
440 0.233574
445 0.327372
450 0.23363
455 0.287903
460 0.251601
465 0.309985
470 0.254941
475 0.309274
480 0.213649
485 0.281927
490 0.218359
495 0.304029
500 0.259479
505 0.368882
510 0.463429
515 0.501787
520 0.416891
525 0.417
530 0.396008
535 0.55903
540 0.633224
545 12.4211
550 235.568
555 391.069
560 110.871
565 13.5999
570 2.10329
575 0.6517
580 0.576021
585 0.385129
590 0.472284
595 0.441772
600 0.288439
Ex : 563
200 0.27918
205 0.202632
210 0.214903
215 0.237362
220 0.189747
225 0.21508
230 0.213618
235 0.211641
240 0.221973
245 0.239091
250 0.311277
255 0.174485
260 0.199778
265 0.2398
270 0.180919
275 0.312991
280 0.220853
285 0.229956
290 0.287425
295 0.342688
300 0.257462
305 0.195735
310 0.26656
315 0.270398
320 0.285254
325 0.239891
330 0.228401
335 0.176765
340 0.206432
345 0.262595
350 0.293051
355 0.263704
360 0.219644
365 0.277668
370 0.246083
375 0.274664
380 0.24294
385 0.222426
390 0.262043
395 0.222182
400 0.250425
405 0.237605
410 0.195839
415 0.27861
420 0.297347
425 0.264879
430 0.319271
435 0.273
440 0.246703
445 0.355415
450 0.296432
455 0.263282
460 0.191972
465 0.280835
470 0.283969
475 0.270929
480 0.328334
485 0.248884
490 0.296671
495 0.279151
500 0.273558
505 0.231412
510 0.313589
515 0.276893
520 0.246235
525 0.335009
530 0.327963
535 0.453972
540 0.484537
545 0.566095
550 12.0644
555 223.612
560 372.597
565 108.451
570 13.2556
575 2.06809
580 0.564948
585 0.463674
590 0.439258
595 0.403758
600 0.801492
Ex : 568
200 0.229173
205 0.303274
210 0.219243
215 0.198328
220 0.292943
225 0.185784
230 0.242763
235 0.290362
240 0.18915
245 0.16836
250 0.194766
255 0.321261
260 0.276434
265 0.227078
270 0.272491
275 0.219709
280 0.221842
285 0.293406
290 0.22038
295 0.285388
300 0.244245
305 0.241924
310 0.207904
315 0.220813
320 0.231589
325 0.251071
330 0.1784
335 0.202256
340 0.205486
345 0.241988
350 0.354409
355 0.251077
360 0.17121
365 0.286882
370 0.257588
375 0.22263
380 0.234191
385 0.256917
390 0.260872
395 0.366888
400 0.263687
405 0.334872
410 0.296162
415 0.348512
420 0.222707
425 0.291456
430 0.344789
435 0.300759
440 0.288769
445 0.345307
450 0.284025
455 0.222433
460 0.303301
465 0.233819
470 0.2333
475 0.299043
480 0.253648
485 0.294401
490 0.266188
495 0.304933
500 0.340341
505 0.25986
510 0.343717
515 0.379799
520 0.419582
525 0.295251
530 0.410628
535 0.363541
540 0.393464
545 0.447721
550 0.566988
555 9.87819
560 198.806
565 353.593
570 107.604
575 13.3769
580 2.02763
585 0.638374
590 0.502077
595 0.476164
600 0.0541856
Ex : 573
200 0.220026
205 0.196841
210 0.284131
215 0.246938
220 0.223363
225 0.339504
230 0.135319
235 0.183808
240 0.248607
245 0.232232
250 0.310996
255 0.247447
260 0.286538
265 0.269612
270 0.232414
275 0.171652
280 0.218666
285 0.18349
290 0.238022
295 0.233173
300 0.19239
305 0.515547
310 0.224496
315 0.199927
320 0.258473
325 0.250023
330 0.291945
335 0.1912
340 0.277391
345 0.289445
350 0.185826
355 0.273254
360 0.305221
365 0.171584
370 0.298489
375 0.274648
380 0.265392
385 0.177998
390 0.204857
395 0.23618
400 0.318586
405 0.36804
410 0.26987
415 0.306698
420 0.192945
425 0.215427
430 0.252931
435 0.212295
440 0.292599
445 0.343555
450 0.247614
455 0.328413
460 0.326223
465 0.293637
470 0.198676
475 0.233851
480 0.2214
485 0.322425
490 0.264183
495 0.292914
500 0.301695
505 0.238963
510 0.24607
515 0.284858
520 0.376378
525 0.342555
530 0.355774
535 0.400357
540 0.288382
545 0.543033
550 0.394769
555 0.633416
560 8.55721
565 174.689
570 327.433
575 102.144
580 12.6809
585 1.90661
590 0.551911
595 0.479612
600 0.0545781
Ex : 578
200 0.304464
205 0.214092
210 0.176249
215 0.264603
220 0.314337
225 0.321691
230 0.262473
235 0.206812
240 0.221987
245 0.215758
250 0.325614
255 0.279851
260 0.201099
265 0.273115
270 0.237519
275 0.143963
280 0.316873
285 0.278224
290 0.275858
295 0.22737
300 0.353323
305 0.33254
310 0.278776
315 0.215158
320 0.266758
325 0.282586
330 0.243768
335 0.220004
340 0.208321
345 0.196139
350 0.231878
355 0.263193
360 0.222299
365 0.318908
370 0.193805
375 0.295966
380 0.261578
385 0.343819
390 0.205288
395 0.30409
400 0.241534
405 0.279942
410 0.31791
415 0.313375
420 0.334808
425 0.237611
430 0.263944
435 0.384845
440 0.304686
445 0.257859
450 0.225583
455 0.28034
460 0.220745
465 0.37482
470 0.298451
475 0.261585
480 0.241812
485 0.2319
490 0.275463
495 0.322146
500 0.272821
505 0.260609
510 0.247451
515 0.400484
520 0.362043
525 0.328447
530 0.297946
535 0.361363
540 0.311931
545 0.387009
550 0.38033
555 0.514308
560 0.644009
565 7.34533
570 156.255
575 292.539
580 89.2837
585 10.9068
590 1.61963
595 0.475093
600 0.0540638
Ex : 583
200 0.337903
205 0.212852
210 0.188969
215 0.24459
220 0.311918
225 0.301525
230 0.202966
235 0.185659
240 0.286235
245 0.406533
250 0.302972
255 0.235084
260 0.242579
265 0.191778
270 0.160092
275 0.154214
280 0.171313
285 0.103568
290 0.296408
295 0.235924
300 0.253583
305 0.205702
310 0.314798
315 0.317235
320 0.231053
325 0.222242
330 0.179857
335 0.241522
340 0.254603
345 0.281977
350 0.322852
355 0.289134
360 0.289815
365 0.146635
370 0.209253
375 0.261637
380 0.306598
385 0.23907
390 0.256228
395 0.342331
400 0.197928
405 0.323802
410 0.407589
415 0.255735
420 0.259033
425 0.185407
430 0.325765
435 0.325464
440 0.334773
445 0.267824
450 0.176858
455 0.313598
460 0.264698
465 0.25152
470 0.242265
475 0.342398
480 0.312975
485 0.309475
490 0.25898
495 0.211003
500 0.246934
505 0.250757
510 0.287841
515 0.283357
520 0.329169
525 0.207283
530 0.233175
535 0.315431
540 0.291648
545 0.313436
550 0.431466
555 0.353632
560 0.43798
565 0.450269
570 6.21366
575 136.616
580 251.465
585 72.9325
590 9.08348
595 1.49792
600 0.375954
Ex : 588
200 0.228002
205 0.381403
210 0.261619
215 0.359657
220 0.220508
225 0.164796
230 0.282715
235 0.202819
240 0.200164
245 0.445933
250 0.376099
255 0.313107
260 0.334758
265 0.210631
270 0.195666
275 0.305396
280 0.306369
285 0.2288
290 0.236789
295 0.206052
300 0.151627
305 0.128661
310 0.173235
315 0.241699
320 0.262106
325 0.294316
330 0.322219
335 0.229136
340 0.301082
345 0.261174
350 0.222491
355 0.334596
360 0.297833
365 0.205239
370 0.189302
375 0.278162
380 0.31467
385 0.270824
390 0.235084
395 0.219555
400 0.201024
405 0.239763
410 0.300483
415 0.316232
420 0.333698
425 0.291828
430 0.299736
435 0.303953
440 0.374043
445 0.445155
450 0.298263
455 0.317413
460 0.18269
465 0.167675
470 0.252732
475 0.308597
480 0.208669
485 0.307136
490 0.292098
495 0.366098
500 0.281468
505 0.319494
510 0.253178
515 0.374585
520 0.321733
525 0.250866
530 0.339728
535 0.299131
540 0.258663
545 0.273133
550 0.234908
555 0.39559
560 0.337167
565 0.430651
570 0.51487
575 5.43514
580 115.623
585 216.098
590 63.0299
595 7.70883
600 1.02273
Ex : 593
200 0.215218
205 0.259958
210 0.208835
215 0.217229
220 0.204707
225 0.218566
230 0.190239
235 0.217197
240 0.199751
245 0.342626
250 0.272963
255 0.282098
260 0.221531
265 0.205284
270 0.214245
275 0.354092
280 0.258181
285 0.299963
290 0.248462
295 0.262949
300 0.402478
305 0.263852
310 0.19881
315 0.253929
320 0.207647
325 0.252237
330 0.182008
335 0.243335
340 0.213792
345 0.184198
350 0.373797
355 0.252024
360 0.300699
365 0.351985
370 0.326719
375 0.296608
380 0.332227
385 0.358186
390 0.3163
395 0.305187
400 0.304078
405 0.273685
410 0.34153
415 0.222956
420 0.361501
425 0.251079
430 0.242912
435 0.192176
440 0.290771
445 0.293766
450 0.379657
455 0.300563
460 0.302624
465 0.303779
470 0.288871
475 0.245968
480 0.332669
485 0.303866
490 0.268838
495 0.260835
500 0.342004
505 0.328994
510 0.1977
515 0.318942
520 0.325607
525 0.329546
530 0.254527
535 0.268005
540 0.283605
545 0.224698
550 0.234967
555 0.293327
560 0.332492
565 0.377293
570 0.415812
575 0.408577
580 4.45341
585 98.8898
590 185.087
595 54.5314
600 7.41455
Ex : 598
200 0.236342
205 0.214311
210 0.203496
215 0.319417
220 0.254403
225 0.312349
230 0.257356
235 0.231699
240 0.256959
245 0.320388
250 0.320483
255 0.332272
260 0.193022
265 0.252021
270 0.217672
275 0.190751
280 0.245238
285 0.233913
290 0.317621
295 0.243977
300 0.26382
305 0.261138
310 0.317931
315 0.286471
320 0.287402
325 0.240638
330 0.346347
335 0.311387
340 0.217264
345 0.267107
350 0.242665
355 0.197449
360 0.37633
365 0.318582
370 0.34425
375 0.309944
380 0.27499
385 0.359951
390 0.385146
395 0.324993
400 0.308252
405 0.261854
410 0.233163
415 0.230234
420 0.4024
425 0.269844
430 0.278192
435 0.302703
440 0.284503
445 0.320422
450 0.205412
455 0.405737
460 0.288444
465 0.336881
470 0.318662
475 0.332354
480 0.364716
485 0.275738
490 0.274103
495 0.336965
500 0.25053
505 0.302458
510 0.343483
515 0.285035
520 0.445101
525 0.222699
530 0.403843
535 0.205
540 0.258956
545 0.242874
550 0.383986
555 0.252387
560 0.327215
565 0.319997
570 0.407819
575 0.473118
580 0.420919
585 4.22063
590 89.6182
595 159.903
600 94.5979
Ex : 603
200 0.259304
205 0.219281
210 0.243917
215 0.272345
220 0.27122
225 0.377435
230 0.324245
235 0.255431
240 0.227801
245 0.37235
250 0.302681
255 0.318942
260 0.318383
265 0.205245
270 0.223062
275 0.245405
280 0.245936
285 0.260516
290 0.276332
295 0.314573
300 0.314226
305 0.260224
310 0.304938
315 0.304594
320 0.376617
325 0.195806
330 0.488591
335 0.261731
340 0.219236
345 0.196939
350 0.218369
355 0.244484
360 0.409235
365 0.362569
370 0.273437
375 0.261131
380 0.359479
385 0.279266
390 0.326161
395 0.256286
400 0.321158
405 0.222775
410 0.290817
415 0.253928
420 0.276517
425 0.331473
430 0.448343
435 0.37549
440 0.41528
445 0.326388
450 0.324144
455 0.292765
460 0.445797
465 0.41125
470 0.342974
475 0.343746
480 0.325979
485 0.27697
490 0.256726
495 0.269404
500 0.220917
505 0.233088
510 0.298414
515 0.252223
520 0.202262
525 0.267351
530 0.328764
535 0.336966
540 0.397457
545 0.352062
550 0.316044
555 0.269866
560 0.395999
565 0.441433
570 0.551076
575 0.426397
580 0.429706
585 0.457228
590 3.89357
595 76.016
600 152.692
