File format V 1.0
jeu. 12. janv. 20:37:45 2017
Operator : 
Comments : 

=============================================
SpectroFluorometer parameters
Mode : 3D measurement
Data : Fluorescence
Phospho. : Ordinary
Spectrum : Fluorescence

Scan speed : 2400 nm/mn
Response : 100 ms
PM Voltage : 700 V
Shutter : On

Lambda Ex. Start : 203
Lambda Ex. End : 603
Lambda Ex. Step : 5
Ex. Slit : 5 nm

Lambda Em. Start : 200
Lambda Em. End : 600
Lambda Em. Step : 5
Em. Slit : 5 nm

Repetition : 1
Decal lambda em : 10
=============================================
DATA
Ex : 203
200 10.0563
205 5.34106
210 9.72047
215 5.68982
220 6.78148
225 7.59634
230 6.51141
235 6.98293
240 7.97504
245 5.75355
250 9.15862
255 13.7123
260 9.10604
265 8.50864
270 8.12894
275 7.41363
280 9.84628
285 10.5341
290 8.37948
295 7.90485
300 5.70973
305 4.49696
310 8.10399
315 8.37122
320 9.37155
325 6.37153
330 5.86869
335 8.38174
340 9.82863
345 10.6744
350 10.9511
355 8.96356
360 9.06199
365 7.40407
370 7.2612
375 7.96759
380 5.73628
385 7.25749
390 5.32284
395 7.15097
400 9.15015
405 10.1565
410 7.28287
415 8.51513
420 11.2648
425 8.1352
430 9.53911
435 5.96394
440 9.0736
445 7.79349
450 8.49203
455 10.7967
460 7.19772
465 8.39676
470 8.65468
475 8.8949
480 6.71401
485 7.52292
490 10.0285
495 8.39905
500 6.51821
505 6.90337
510 8.2272
515 7.88215
520 5.86304
525 10.8497
530 6.96715
535 6.64666
540 10.2442
545 10.4601
550 9.3451
555 10.1243
560 8.16527
565 8.84026
570 7.60799
575 8.55628
580 7.19715
585 5.5638
590 6.811
595 8.139
600 21.0135
Ex : 208
200 10.6715
205 6.29499
210 7.96438
215 8.32221
220 8.5401
225 8.43506
230 9.59511
235 8.24174
240 10.5691
245 6.77253
250 13.0547
255 7.53015
260 7.15832
265 7.74526
270 9.26305
275 7.17847
280 6.12218
285 6.06799
290 5.70818
295 6.17429
300 5.07281
305 8.12416
310 7.68698
315 9.81404
320 8.41446
325 8.12999
330 7.33837
335 8.82434
340 11.4244
345 8.49636
350 11.0233
355 7.78457
360 9.68225
365 6.93983
370 12.9856
375 10.4846
380 9.69654
385 8.10484
390 9.29525
395 7.8811
400 6.41009
405 8.718
410 5.67089
415 11.1387
420 7.33188
425 8.67985
430 9.41106
435 6.15734
440 10.1467
445 7.98991
450 7.91154
455 7.45649
460 6.0859
465 7.49793
470 7.20767
475 6.32378
480 9.64886
485 7.23359
490 6.77827
495 11.8617
500 7.47618
505 8.07108
510 7.16875
515 9.55121
520 7.29438
525 6.01437
530 10.514
535 8.20314
540 7.13285
545 7.8392
550 5.90269
555 8.38942
560 7.67544
565 10.4542
570 7.20987
575 7.77304
580 8.27814
585 7.07472
590 7.83985
595 5.40174
600 0.614698
Ex : 213
200 5.94545
205 6.71512
210 7.96239
215 6.17716
220 7.611
225 6.71759
230 10.1293
235 9.25107
240 6.73697
245 8.44427
250 6.30797
255 7.80745
260 5.32386
265 6.50517
270 10.1123
275 10.6458
280 7.16287
285 6.32133
290 8.4472
295 7.30037
300 10.3627
305 15.3585
310 10.3509
315 9.04033
320 8.79124
325 5.06287
330 5.62664
335 10.1511
340 6.7032
345 8.63831
350 9.33924
355 4.99057
360 6.21587
365 6.99899
370 5.30696
375 8.34259
380 10.7937
385 11.9068
390 10.2532
395 10.4761
400 6.8554
405 7.45344
410 9.69724
415 11.6567
420 9.68977
425 7.58864
430 8.08796
435 9.56521
440 8.27803
445 8.46404
450 9.00621
455 8.39012
460 8.61258
465 7.52371
470 7.62992
475 7.96629
480 9.99219
485 6.15179
490 11.5816
495 8.80144
500 6.8354
505 9.69691
510 10.6863
515 9.96679
520 7.16583
525 7.87147
530 9.78437
535 8.26447
540 8.61195
545 8.07759
550 7.68811
555 8.37479
560 8.12684
565 10.0094
570 8.89872
575 7.78373
580 9.95962
585 7.66711
590 7.29431
595 7.71291
600 19.0449
Ex : 218
200 10.7397
205 7.97361
210 5.97697
215 7.27227
220 7.53373
225 11.1964
230 8.37251
235 7.90862
240 9.85907
245 7.0027
250 7.66699
255 11.7912
260 8.49412
265 7.29198
270 8.64819
275 6.65986
280 11.9334
285 6.04393
290 11.6478
295 8.21721
300 8.73637
305 8.18998
310 7.0571
315 5.65065
320 8.55556
325 9.78921
330 6.66724
335 9.33231
340 10.249
345 7.08716
350 9.00822
355 5.92138
360 9.0159
365 8.917
370 8.39571
375 9.49742
380 5.19801
385 9.14131
390 10.1349
395 8.3872
400 7.09252
405 6.9488
410 6.86468
415 6.2119
420 11.8421
425 7.10566
430 7.24588
435 7.49035
440 8.40024
445 7.59375
450 8.98225
455 7.71646
460 6.67156
465 6.81142
470 8.50454
475 7.90763
480 6.86436
485 6.51301
490 7.68383
495 9.50433
500 6.82137
505 9.84586
510 10.0356
515 8.68098
520 7.97249
525 9.20647
530 7.85045
535 6.41883
540 8.10492
545 5.28049
550 9.21426
555 8.67162
560 6.65607
565 8.50075
570 8.82081
575 9.11188
580 6.42518
585 8.69396
590 7.28688
595 8.03754
600 0.914641
Ex : 223
200 7.81106
205 6.57077
210 7.84179
215 11.0755
220 10.3725
225 9.09084
230 9.22885
235 7.55169
240 9.65222
245 7.24616
250 7.77051
255 8.41044
260 7.75699
265 6.78517
270 7.93361
275 8.63846
280 7.94545
285 7.27488
290 7.52268
295 6.58958
300 7.34855
305 7.51894
310 9.33378
315 8.29458
320 6.09604
325 8.07458
330 8.40054
335 7.31245
340 7.59282
345 8.38841
350 6.53219
355 8.27397
360 6.64697
365 8.09036
370 10.0282
375 8.58116
380 8.44247
385 10.4715
390 13.7426
395 8.25104
400 7.32305
405 6.00876
410 9.68215
415 7.67346
420 6.75674
425 6.05804
430 8.4801
435 7.37003
440 7.12815
445 9.50341
450 7.19872
455 5.99846
460 8.03054
465 8.98164
470 7.88809
475 10.3357
480 11.3402
485 8.64027
490 8.64502
495 8.03542
500 6.96018
505 8.41783
510 7.48285
515 7.19028
520 8.86132
525 8.16829
530 11.353
535 7.45451
540 8.06262
545 8.04475
550 7.24932
555 9.37927
560 9.89996
565 8.63643
570 6.72842
575 6.36314
580 8.26114
585 8.74534
590 9.55662
595 7.84534
600 6.65309
Ex : 228
200 9.47368
205 7.22889
210 7.38768
215 6.19043
220 6.99846
225 8.17492
230 5.55868
235 7.4599
240 8.64587
245 9.12231
250 9.36597
255 7.54413
260 7.31512
265 8.28479
270 6.30431
275 5.46379
280 6.68137
285 6.85348
290 7.25903
295 6.00842
300 4.94387
305 10.1771
310 8.67719
315 8.89384
320 11.1515
325 7.46479
330 6.05987
335 9.5435
340 9.59594
345 5.83297
350 6.31783
355 9.42202
360 5.93847
365 11.0033
370 5.99431
375 7.14403
380 6.48925
385 7.0305
390 7.66333
395 5.6193
400 8.36866
405 7.40602
410 11.0281
415 8.1347
420 4.82106
425 9.12022
430 8.21971
435 7.43804
440 6.75572
445 7.23449
450 9.43209
455 5.85963
460 7.5434
465 6.49721
470 10.4999
475 6.30218
480 5.33894
485 7.5682
490 9.69831
495 7.61055
500 9.98575
505 9.62153
510 7.59756
515 7.76891
520 7.13242
525 7.53947
530 7.53403
535 8.76739
540 9.63918
545 8.47771
550 8.50598
555 6.38141
560 6.77584
565 9.92313
570 6.42573
575 5.50339
580 6.17484
585 7.04122
590 6.00527
595 6.52334
600 0.742331
Ex : 233
200 9.87903
205 5.70419
210 4.83708
215 4.9701
220 7.90516
225 9.12094
230 4.94983
235 8.30672
240 6.58511
245 5.44013
250 5.32305
255 9.48672
260 7.78388
265 7.10847
270 7.36178
275 10.1246
280 8.05314
285 6.52657
290 5.98976
295 5.38739
300 7.12685
305 8.85263
310 7.07331
315 6.17054
320 5.41247
325 9.2184
330 7.57978
335 8.6727
340 6.02835
345 7.39064
350 8.37942
355 6.63841
360 8.01169
365 7.82869
370 5.94186
375 8.38502
380 6.30928
385 5.57878
390 6.84958
395 7.9423
400 6.73172
405 6.03662
410 7.46602
415 7.59312
420 9.00704
425 10.271
430 11.783
435 6.75016
440 6.62396
445 6.41943
450 7.82391
455 6.46508
460 6.68702
465 5.3927
470 8.17988
475 6.12255
480 4.96349
485 7.57278
490 7.95539
495 6.63781
500 6.22215
505 7.76659
510 6.47533
515 8.70904
520 7.06841
525 6.01644
530 6.00566
535 8.62458
540 7.85142
545 7.03167
550 6.48186
555 9.15468
560 7.73504
565 5.65088
570 5.07407
575 7.00052
580 5.81078
585 9.10512
590 7.44696
595 7.9652
600 13.6087
Ex : 238
200 6.10039
205 5.86021
210 10.0571
215 9.61375
220 5.8753
225 7.03125
230 5.41736
235 4.08104
240 8.18704
245 6.90263
250 6.22341
255 5.39727
260 8.53143
265 8.28997
270 6.83381
275 7.39065
280 7.10072
285 6.76293
290 7.16677
295 4.63358
300 5.9055
305 10.9975
310 6.1952
315 6.11475
320 4.71088
325 5.61625
330 7.84783
335 6.61929
340 7.72899
345 5.76929
350 6.44146
355 5.39653
360 5.67461
365 5.78433
370 5.58428
375 5.04263
380 6.11438
385 6.87837
390 6.78082
395 8.2805
400 7.3954
405 6.15529
410 7.44467
415 4.43953
420 7.39561
425 6.00884
430 6.23142
435 8.50698
440 8.94733
445 5.09909
450 4.13173
455 6.57251
460 6.8793
465 5.87069
470 9.65367
475 7.52092
480 7.34893
485 6.46458
490 6.27783
495 5.45381
500 7.55721
505 5.9269
510 6.39858
515 8.78517
520 7.3633
525 6.34377
530 6.42835
535 10.0175
540 8.19312
545 5.93534
550 6.52363
555 8.62013
560 7.75333
565 7.2994
570 3.71795
575 6.32307
580 5.07871
585 4.11588
590 7.38076
595 7.08011
600 8.02192
Ex : 243
200 5.71864
205 5.70401
210 6.5854
215 5.78464
220 5.10801
225 6.43587
230 4.78962
235 5.93611
240 6.93822
245 7.94225
250 5.49013
255 6.62987
260 5.50414
265 7.15263
270 6.96318
275 9.20176
280 7.26954
285 7.05291
290 6.96588
295 5.85927
300 6.72408
305 6.91518
310 6.20604
315 7.97122
320 6.52488
325 6.24771
330 5.99676
335 5.03983
340 5.10879
345 6.05773
350 4.52642
355 8.71405
360 4.83813
365 7.30079
370 5.46282
375 5.84624
380 6.2379
385 5.19866
390 4.28718
395 5.91131
400 6.50229
405 6.08836
410 3.92159
415 4.69136
420 7.71955
425 4.64327
430 5.367
435 7.08428
440 6.15177
445 5.66761
450 7.36661
455 5.31941
460 7.58536
465 7.64605
470 6.05192
475 7.04904
480 7.07281
485 6.77474
490 6.08816
495 8.51131
500 6.63851
505 5.08728
510 5.46967
515 5.75325
520 7.84112
525 4.78858
530 6.83697
535 7.01439
540 5.00216
545 6.49378
550 6.47775
555 7.50216
560 6.10809
565 6.33083
570 7.01001
575 5.95267
580 6.08203
585 5.63429
590 4.7467
595 5.84476
600 9.52715
Ex : 248
200 7.85756
205 5.56766
210 3.74832
215 7.64911
220 4.57083
225 4.61747
230 2.93163
235 7.00898
240 4.093
245 5.84312
250 3.88182
255 3.68096
260 6.96274
265 4.84506
270 3.61326
275 6.05741
280 4.77805
285 5.99388
290 3.73581
295 4.85614
300 3.92181
305 6.0221
310 6.48615
315 4.42492
320 4.19787
325 7.42713
330 5.15235
335 7.01472
340 6.9546
345 5.80495
350 5.17242
355 5.04925
360 5.88365
365 5.40248
370 4.88765
375 5.0997
380 5.09807
385 6.8117
390 6.38235
395 4.85643
400 4.81802
405 4.69121
410 6.02562
415 6.89738
420 6.10212
425 6.60333
430 6.5589
435 4.01476
440 4.22806
445 5.17108
450 7.84069
455 4.32662
460 5.40874
465 5.87063
470 5.31522
475 5.57255
480 4.0361
485 6.03094
490 6.80058
495 4.25924
500 5.07386
505 5.33116
510 4.31989
515 5.63859
520 4.44775
525 6.79182
530 4.18794
535 3.97628
540 4.36481
545 6.59861
550 6.1803
555 4.94177
560 5.62446
565 5.60659
570 5.52703
575 5.50977
580 5.48602
585 5.44216
590 5.10588
595 4.50846
600 0.513046
Ex : 253
200 4.14646
205 4.5867
210 4.41712
215 6.54302
220 4.9204
225 5.41696
230 3.03591
235 3.9541
240 2.86253
245 5.80304
250 3.94383
255 4.41917
260 4.78316
265 3.79909
270 7.88699
275 5.48924
280 5.74468
285 3.99152
290 3.25252
295 3.97479
300 4.21218
305 3.88531
310 4.14934
315 3.85924
320 4.71421
325 6.93733
330 4.62664
335 4.52016
340 4.23459
345 5.91985
350 3.52945
355 3.40039
360 4.84369
365 5.37735
370 4.99726
375 5.48117
380 4.24581
385 3.73865
390 4.85415
395 5.45758
400 5.17334
405 3.86939
410 6.87926
415 5.39298
420 5.1385
425 5.37024
430 6.73334
435 5.13143
440 5.29469
445 4.29182
450 5.71538
455 5.40695
460 4.96975
465 4.76407
470 5.27713
475 5.11527
480 6.15219
485 3.66876
490 4.04496
495 3.02404
500 3.8709
505 6.17665
510 4.96918
515 4.75108
520 4.2767
525 4.20148
530 3.67214
535 4.91462
540 4.23572
545 5.68263
550 3.95999
555 4.67949
560 4.97052
565 6.40512
570 4.85462
575 3.85805
580 3.96509
585 3.30727
590 4.70476
595 3.82077
600 1.51793
Ex : 258
200 2.44304
205 2.61419
210 3.05559
215 3.02322
220 4.3456
225 3.68036
230 2.27388
235 3.3813
240 4.67903
245 4.70649
250 4.05433
255 4.65607
260 3.46619
265 2.93786
270 3.11438
275 4.64965
280 3.71012
285 4.85699
290 2.95731
295 3.06853
300 2.62591
305 2.63293
310 2.27261
315 3.13184
320 3.04096
325 3.83166
330 2.90502
335 4.07706
340 4.35488
345 4.07138
350 2.3856
355 3.55466
360 3.45636
365 4.228
370 2.76852
375 3.8486
380 4.41644
385 3.84667
390 4.00086
395 2.93144
400 2.90524
405 4.21584
410 3.67982
415 2.40295
420 3.62275
425 4.97393
430 4.7422
435 2.99389
440 2.84463
445 4.16266
450 2.53779
455 3.00349
460 2.82709
465 3.3045
470 3.64976
475 3.01037
480 3.60227
485 3.5752
490 4.02157
495 5.65646
500 4.61146
505 5.22534
510 3.56359
515 5.17141
520 3.66176
525 5.04053
530 3.65538
535 2.68473
540 6.29522
545 3.84629
550 4.37679
555 4.95713
560 3.21729
565 2.96247
570 3.4649
575 3.23769
580 2.74213
585 3.19757
590 3.76956
595 3.69197
600 1.82329
Ex : 263
200 5.4281
205 2.98746
210 2.41617
215 2.85727
220 2.77383
225 1.52183
230 2.45873
235 2.67681
240 2.38712
245 2.52009
250 2.01223
255 2.59762
260 1.91642
265 2.6031
270 3.35179
275 2.19471
280 3.68935
285 2.53331
290 3.00796
295 3.1715
300 2.97588
305 3.05457
310 2.85053
315 2.61644
320 2.53533
325 3.14968
330 4.36927
335 2.83316
340 2.60036
345 2.14969
350 4.25517
355 2.0402
360 3.74754
365 3.19845
370 2.42086
375 2.63969
380 3.12581
385 3.24925
390 3.05522
395 2.65269
400 3.50831
405 3.70449
410 3.3296
415 2.63402
420 2.81508
425 3.4505
430 3.54026
435 3.63035
440 3.45174
445 2.71474
450 3.36419
455 3.01646
460 3.91302
465 4.05657
470 2.99026
475 4.17053
480 2.24553
485 3.00963
490 2.80568
495 2.95555
500 2.84256
505 2.98058
510 2.21927
515 2.80558
520 3.2125
525 4.02005
530 3.75761
535 4.24566
540 2.3864
545 2.68245
550 3.34943
555 3.91117
560 1.87552
565 2.47601
570 3.19652
575 3.52767
580 2.05607
585 2.29984
590 2.95458
595 2.54293
600 5.13396
Ex : 268
200 1.9817
205 1.91972
210 2.26345
215 2.11533
220 2.24778
225 2.46488
230 2.19642
235 2.98738
240 2.1519
245 2.25788
250 2.93218
255 2.86099
260 1.90605
265 2.35701
270 2.80431
275 2.40522
280 2.9276
285 2.56125
290 2.30884
295 2.09525
300 2.50607
305 1.98473
310 1.50883
315 2.79959
320 2.86671
325 2.59311
330 2.23007
335 3.02859
340 2.15018
345 2.73038
350 2.85509
355 2.27885
360 1.88264
365 2.02466
370 2.6953
375 2.33061
380 1.78594
385 2.3588
390 2.89031
395 2.57506
400 3.5275
405 2.74606
410 2.03507
415 1.96371
420 2.21742
425 2.74741
430 2.5185
435 2.63665
440 2.43981
445 2.96571
450 2.59737
455 2.54752
460 2.84264
465 3.49017
470 1.81225
475 2.71753
480 3.27987
485 2.84312
490 2.62883
495 2.09674
500 2.14561
505 2.84641
510 2.47929
515 2.12457
520 2.79784
525 2.15248
530 3.31185
535 2.35669
540 3.34425
545 2.59724
550 2.13026
555 2.334
560 2.19162
565 2.54579
570 2.41801
575 2.88474
580 2.03687
585 2.24178
590 1.75511
595 1.81176
600 3.22969
Ex : 273
200 1.84984
205 2.77393
210 2.02708
215 1.76139
220 1.69651
225 1.41518
230 1.72977
235 1.68654
240 1.8144
245 1.95281
250 1.29729
255 1.76285
260 1.70026
265 1.19772
270 2.07577
275 1.43762
280 2.08116
285 2.99434
290 1.65674
295 1.94086
300 1.85283
305 1.6384
310 1.80987
315 1.62618
320 1.55843
325 0.843199
330 2.26817
335 2.17101
340 1.81094
345 1.78123
350 2.20451
355 1.98959
360 1.9746
365 2.92647
370 1.94576
375 2.58557
380 2.28627
385 1.89027
390 2.98822
395 2.09523
400 2.49023
405 2.32155
410 2.01335
415 1.73883
420 1.85927
425 2.17484
430 2.52644
435 1.89465
440 1.89417
445 1.81383
450 2.93887
455 1.91427
460 2.70679
465 1.51923
470 2.74874
475 1.84186
480 3.32499
485 2.22202
490 2.14883
495 1.6615
500 1.91883
505 1.76247
510 2.2845
515 1.90577
520 1.67838
525 1.40259
530 1.84734
535 2.36909
540 2.40476
545 2.57759
550 1.66508
555 1.82246
560 1.76189
565 1.96129
570 2.16509
575 2.13434
580 1.88322
585 2.12962
590 1.70824
595 1.54188
600 3.07576
Ex : 278
200 0.884071
205 1.6826
210 1.95436
215 2.38999
220 2.15161
225 1.22366
230 1.69188
235 1.36267
240 1.22566
245 1.5983
250 1.36878
255 1.30449
260 1.64544
265 1.4316
270 1.77186
275 1.72139
280 1.64134
285 2.40984
290 1.13657
295 1.56902
300 1.69063
305 2.04002
310 1.01064
315 1.89919
320 1.48732
325 1.71614
330 1.4822
335 1.54365
340 1.67073
345 1.86679
350 1.48516
355 1.80103
360 1.88826
365 1.58216
370 1.75082
375 2.26705
380 2.01219
385 1.76983
390 1.67656
395 1.97929
400 2.03331
405 2.6076
410 2.38649
415 2.19548
420 1.7223
425 1.7283
430 1.85332
435 1.71057
440 1.92
445 1.9814
450 1.3857
455 2.24264
460 2.16426
465 2.0696
470 1.95681
475 1.97525
480 2.47621
485 1.71082
490 1.65823
495 1.15104
500 1.48029
505 1.39184
510 1.18057
515 1.34763
520 1.11918
525 1.17694
530 1.57706
535 1.65251
540 1.70073
545 1.85606
550 2.11639
555 1.94875
560 1.82681
565 1.58111
570 1.7639
575 1.18672
580 1.52709
585 1.89507
590 1.67105
595 1.24651
600 0.141849
Ex : 283
200 1.46594
205 1.45476
210 1.421
215 0.998455
220 1.40595
225 1.24633
230 1.18392
235 1.56558
240 1.18607
245 1.31505
250 0.898348
255 1.67975
260 0.994456
265 1.1177
270 1.03685
275 1.16784
280 1.31076
285 1.56089
290 1.26266
295 1.0975
300 0.948835
305 1.06163
310 1.15979
315 1.54385
320 1.28113
325 1.05449
330 1.17934
335 1.0501
340 1.49086
345 1.85691
350 1.51841
355 1.79935
360 1.01333
365 1.40901
370 1.61314
375 1.59508
380 1.42959
385 1.61164
390 1.74415
395 1.55478
400 1.65828
405 1.86609
410 1.43301
415 1.7552
420 1.95642
425 1.62655
430 1.64677
435 1.57295
440 1.63735
445 1.17157
450 1.96664
455 2.07226
460 2.13149
465 1.73421
470 1.01305
475 1.51278
480 1.30834
485 1.49076
490 1.57313
495 1.63223
500 1.44949
505 1.30852
510 1.39339
515 1.14447
520 1.37605
525 1.01995
530 1.02735
535 1.57941
540 1.5757
545 1.37963
550 1.4161
555 1.53947
560 1.51993
565 1.50489
570 1.2915
575 1.4533
580 1.20759
585 1.16314
590 0.976209
595 1.01502
600 0.115505
Ex : 288
200 0.743605
205 1.13473
210 0.794056
215 1.10816
220 0.792403
225 0.789026
230 0.745512
235 1.05071
240 1.30227
245 1.43702
250 1.09266
255 1.42297
260 1.81912
265 1.01225
270 0.876831
275 1.04721
280 1.05507
285 0.994194
290 0.965085
295 0.899569
300 1.34738
305 0.807534
310 0.765886
315 0.961412
320 1.33096
325 1.19969
330 0.849914
335 0.610187
340 1.30871
345 1.15175
350 1.23882
355 1.44324
360 1.7012
365 1.39457
370 1.40756
375 1.34762
380 1.27836
385 1.51062
390 1.23895
395 1.34553
400 1.73942
405 1.53797
410 1.49197
415 1.66934
420 1.72735
425 1.04769
430 1.13345
435 1.47009
440 1.07015
445 1.28012
450 0.906532
455 1.58661
460 1.19643
465 1.23722
470 1.38501
475 1.07118
480 1.34552
485 1.12409
490 1.11976
495 1.09514
500 0.931594
505 1.28374
510 1.59307
515 1.51004
520 1.04427
525 0.846372
530 0.840703
535 1.26635
540 1.06898
545 1.09939
550 0.880062
555 1.0332
560 1.05617
565 1.21566
570 1.7613
575 1.16546
580 1.09668
585 1.13972
590 0.919133
595 1.25926
600 0.143299
Ex : 293
200 0.788859
205 0.805621
210 0.818746
215 0.843826
220 0.707411
225 0.654065
230 1.17057
235 0.934387
240 1.28778
245 0.921503
250 0.77164
255 0.641805
260 0.811928
265 1.09501
270 0.825586
275 0.715137
280 1.03075
285 1.28483
290 1.08696
295 0.88685
300 0.946799
305 0.751406
310 1.1056
315 0.944138
320 0.972244
325 0.873797
330 0.77835
335 0.927076
340 0.930374
345 0.616368
350 0.982147
355 0.941709
360 1.23018
365 0.898588
370 1.08309
375 1.7131
380 1.23109
385 1.442
390 1.05688
395 1.23642
400 1.21258
405 1.31261
410 1.01165
415 0.997078
420 1.19551
425 0.985091
430 0.986856
435 1.14917
440 1.33779
445 1.14287
450 1.14466
455 1.37968
460 1.36229
465 1.32496
470 1.46574
475 1.06427
480 0.995635
485 0.915414
490 1.00154
495 1.02594
500 1.20674
505 1.56222
510 0.936843
515 0.997919
520 0.850114
525 1.27474
530 1.1046
535 1.12869
540 0.989099
545 1.02695
550 1.23598
555 1.13616
560 0.902262
565 0.620941
570 0.895134
575 1.32097
580 1.1058
585 1.21183
590 1.06524
595 0.806951
600 0.0918279
Ex : 298
200 0.752814
205 1.02683
210 0.900939
215 0.733797
220 0.915359
225 1.05083
230 0.769382
235 0.559899
240 0.816375
245 0.638038
250 0.735311
255 0.641251
260 0.72497
265 0.717201
270 0.585057
275 0.556973
280 0.863214
285 0.812715
290 0.915329
295 1.01619
300 0.726063
305 0.501785
310 0.754237
315 0.780312
320 0.834096
325 0.705117
330 0.635643
335 0.794456
340 0.627265
345 0.734922
350 1.05866
355 0.913305
360 1.01689
365 0.780066
370 1.13217
375 1.12809
380 1.30119
385 1.22261
390 0.94488
395 0.963267
400 0.997824
405 1.16158
410 1.14847
415 1.17994
420 1.57906
425 1.01081
430 0.973283
435 1.13883
440 1.1431
445 0.9989
450 0.809137
455 1.24056
460 1.17474
465 0.914335
470 0.892733
475 0.879303
480 0.678914
485 0.935122
490 0.89644
495 0.931198
500 0.882354
505 0.613516
510 0.777471
515 0.684258
520 0.952297
525 0.882518
530 0.797492
535 0.991678
540 0.75825
545 0.792969
550 0.736183
555 1.07159
560 0.684977
565 0.658854
570 0.77956
575 0.803601
580 0.756807
585 0.994157
590 1.20028
595 1.10692
600 0.125964
Ex : 303
200 0.911303
205 0.802671
210 0.712597
215 0.713139
220 0.700055
225 0.958535
230 0.731623
235 0.517163
240 0.688651
245 0.507571
250 0.645523
255 0.63444
260 0.53756
265 0.608046
270 0.523377
275 0.570043
280 0.689015
285 0.476374
290 0.890634
295 0.84231
300 0.707914
305 0.68907
310 0.62328
315 0.658461
320 0.592465
325 0.596045
330 0.613783
335 0.576098
340 0.627231
345 0.712453
350 0.635824
355 0.747557
360 0.90517
365 0.804847
370 0.88984
375 0.960631
380 1.15166
385 0.895476
390 0.79715
395 1.02457
400 1.00669
405 0.749323
410 1.24418
415 1.1925
420 1.19094
425 0.937984
430 0.972234
435 0.989438
440 0.945281
445 0.845017
450 0.892043
455 1.00492
460 1.32087
465 0.746713
470 0.800216
475 0.750349
480 0.730411
485 1.05791
490 0.973949
495 0.965662
500 0.900779
505 0.847057
510 0.707482
515 0.793538
520 0.592554
525 0.722665
530 0.905393
535 0.784861
540 0.715239
545 0.537857
550 0.947058
555 0.717168
560 0.695354
565 0.962883
570 0.695446
575 1.00138
580 0.986035
585 0.78876
590 0.775093
595 1.11747
600 2.52427
Ex : 308
200 0.630875
205 0.614579
210 0.433935
215 0.529382
220 0.59485
225 0.815378
230 0.543021
235 0.539289
240 0.774678
245 0.59636
250 0.538842
255 0.610245
260 0.795054
265 0.611281
270 0.629657
275 0.61915
280 0.630683
285 0.474027
290 0.627241
295 0.677906
300 0.647725
305 0.944814
310 0.68604
315 0.817035
320 0.715813
325 1.00354
330 0.891102
335 0.787835
340 0.658155
345 0.531481
350 0.736284
355 0.805924
360 1.18649
365 0.688701
370 0.603061
375 0.761881
380 0.928454
385 0.8559
390 0.933497
395 1.00813
400 1.12436
405 1.05622
410 0.949044
415 1.19281
420 1.27693
425 0.82762
430 0.862577
435 0.855027
440 1.02804
445 0.841028
450 1.04681
455 1.0044
460 0.909101
465 0.6624
470 0.852193
475 0.867159
480 0.746468
485 0.696877
490 0.74842
495 0.57548
500 0.661516
505 0.594574
510 0.952321
515 0.785529
520 0.733093
525 0.574698
530 0.580669
535 0.611458
540 0.795906
545 0.837417
550 0.716009
555 0.615936
560 0.616017
565 0.728362
570 0.461493
575 0.364726
580 0.829276
585 0.645487
590 0.594103
595 0.664576
600 0.74349
Ex : 313
200 0.438216
205 0.38875
210 0.703043
215 0.687067
220 0.754805
225 0.666566
230 0.58284
235 0.451088
240 0.562801
245 0.691558
250 0.577338
255 0.621408
260 0.449508
265 0.404879
270 0.499083
275 0.483773
280 0.793238
285 0.562548
290 0.587239
295 0.528052
300 0.583879
305 0.770591
310 0.753294
315 0.809021
320 0.524159
325 0.493701
330 0.651591
335 0.751882
340 0.856589
345 0.74491
350 0.760373
355 0.743734
360 0.69107
365 0.718285
370 0.78791
375 0.909018
380 0.937787
385 0.925207
390 0.965329
395 1.30268
400 1.31957
405 0.962761
410 1.31655
415 1.0803
420 1.00832
425 1.04364
430 1.16493
435 1.05936
440 1.11648
445 0.762417
450 0.999737
455 1.00758
460 1.18843
465 1.00343
470 0.93339
475 0.922903
480 0.835076
485 0.72652
490 0.923129
495 0.878817
500 0.741927
505 0.664533
510 0.742107
515 0.480085
520 0.506064
525 0.518403
530 0.583531
535 0.666362
540 0.599029
545 0.517224
550 0.565647
555 0.484207
560 0.70403
565 0.587904
570 0.668263
575 0.486275
580 0.561006
585 0.540046
590 0.390817
595 0.506287
600 0.943817
Ex : 318
200 0.507919
205 0.461602
210 0.588138
215 0.485193
220 0.293899
225 0.555092
230 0.415662
235 0.460991
240 0.495203
245 0.536957
250 0.45172
255 0.451276
260 0.320994
265 0.422494
270 0.391605
275 0.522467
280 0.366791
285 0.495578
290 0.434105
295 0.352365
300 0.430914
305 0.3888
310 0.759922
315 0.988101
320 0.498798
325 0.467512
330 0.725821
335 0.704404
340 1.14188
345 1.30082
350 1.96429
355 2.24066
360 3.16665
365 3.24877
370 3.67632
375 4.58785
380 5.16483
385 5.87837
390 5.41373
395 6.74072
400 6.6152
405 6.19161
410 6.41233
415 7.36421
420 6.93574
425 6.32971
430 6.41457
435 6.35869
440 6.11695
445 5.82267
450 4.99111
455 4.85599
460 5.03978
465 4.49624
470 4.37392
475 3.69988
480 3.62593
485 3.05901
490 2.88521
495 2.66586
500 2.35096
505 1.77511
510 1.95738
515 1.99253
520 1.43262
525 1.44637
530 1.19169
535 1.36196
540 0.916193
545 0.860588
550 0.868449
555 0.858429
560 0.824766
565 0.690242
570 0.68715
575 0.550499
580 0.650068
585 0.638272
590 0.567601
595 0.459832
600 0.0523272
Ex : 323
200 0.274275
205 0.289741
210 0.351101
215 0.449829
220 0.327901
225 0.36836
230 0.400987
235 0.301569
240 0.480085
245 0.466466
250 0.424979
255 0.525204
260 0.365723
265 0.562425
270 0.683128
275 0.638914
280 0.433196
285 0.289644
290 0.423487
295 0.471016
300 0.383166
305 0.470032
310 0.352156
315 2.1237
320 7.50718
325 3.83609
330 1.80358
335 2.75466
340 4.08901
345 5.44724
350 7.25195
355 10.7249
360 12.7624
365 15.1056
370 17.245
375 20.1469
380 23.1494
385 25.7034
390 27.6682
395 28.3018
400 29.6061
405 30.6041
410 30.4537
415 30.5635
420 30.1406
425 28.5447
430 28.1216
435 27.3458
440 26.7018
445 26.5012
450 23.8594
455 23.104
460 21.9529
465 19.5806
470 17.9871
475 17.3285
480 14.8551
485 14.0368
490 12.4388
495 11.174
500 9.5589
505 8.94075
510 7.39996
515 6.32959
520 5.55484
525 4.78357
530 4.21916
535 3.64053
540 3.3631
545 2.89199
550 2.32909
555 2.07431
560 1.91516
565 1.66648
570 1.40653
575 1.18257
580 0.915629
585 0.87312
590 0.639762
595 0.740017
600 1.00586
Ex : 328
200 0.318534
205 0.412923
210 0.261033
215 0.274768
220 0.350794
225 0.222939
230 0.350898
235 0.312031
240 0.350624
245 0.425972
250 0.368535
255 0.340738
260 0.406473
265 0.301482
270 0.285948
275 0.463251
280 0.487832
285 0.390537
290 0.470327
295 0.418564
300 0.500537
305 0.416357
310 0.349425
315 0.751452
320 18.5645
325 46.3372
330 15.5694
335 5.30193
340 5.50314
345 7.05165
350 9.05441
355 12.5386
360 17.6673
365 20.6594
370 22.5039
375 24.7247
380 27.0287
385 30.0314
390 31.654
395 34.5498
400 34.6521
405 35.9548
410 35.9767
415 35.0859
420 33.9262
425 33.4505
430 33.8075
435 31.8482
440 30.3902
445 29.5548
450 27.4971
455 26.3475
460 24.9054
465 22.7617
470 20.4482
475 19.0093
480 18.1469
485 16.1197
490 13.8528
495 12.6208
500 11.8312
505 10.0705
510 8.88316
515 8.07575
520 6.94897
525 5.94396
530 5.12625
535 4.48767
540 4.04258
545 3.26381
550 2.9738
555 2.81487
560 2.35928
565 1.88164
570 1.7129
575 1.26595
580 1.1981
585 0.876834
590 0.751813
595 0.751399
600 1.83374
Ex : 333
200 0.282435
205 0.49805
210 0.325
215 0.423453
220 0.276024
225 0.317002
230 0.37887
235 0.413034
240 0.3754
245 0.279063
250 0.416714
255 0.48939
260 0.417246
265 0.387605
270 0.297034
275 0.345717
280 0.284832
285 0.374845
290 0.467349
295 0.315794
300 0.394241
305 0.2487
310 0.40552
315 0.311189
320 3.01302
325 57.2071
330 99.6223
335 28.4588
340 6.69915
345 5.25477
350 5.83167
355 6.90973
360 9.92908
365 14.5359
370 15.0733
375 15.3031
380 15.7162
385 16.7233
390 17.9554
395 18.7453
400 19.9265
405 19.6541
410 20.1732
415 19.5147
420 19.1625
425 19.1842
430 17.5522
435 17.6536
440 16.8026
445 15.5207
450 15.7698
455 14.3403
460 13.5248
465 12.3759
470 12.1631
475 10.938
480 9.77278
485 9.45436
490 8.52184
495 7.42553
500 6.66033
505 5.92321
510 5.38726
515 4.76699
520 4.17051
525 3.70043
530 3.42293
535 2.70943
540 2.35855
545 2.38532
550 2.10403
555 1.81718
560 1.51809
565 1.25162
570 1.19711
575 1.21036
580 0.913643
585 0.912628
590 0.605288
595 0.528691
600 0.565519
Ex : 338
200 0.413714
205 0.330335
210 0.372671
215 0.293744
220 0.400873
225 0.356708
230 0.342923
235 0.341138
240 0.249337
245 0.307449
250 0.377618
255 0.318609
260 0.282512
265 0.460723
270 0.350046
275 0.325881
280 0.407198
285 0.536926
290 0.362495
295 0.481974
300 0.296553
305 0.338781
310 0.313428
315 0.225264
320 0.349701
325 5.65885
330 89.6095
335 137.294
340 34.6889
345 6.59167
350 4.39982
355 4.09782
360 4.09077
365 6.16588
370 10.4474
375 10.4928
380 9.07551
385 8.26058
390 8.70646
395 9.56046
400 9.49271
405 9.13274
410 9.76463
415 9.78784
420 9.00847
425 9.47903
430 9.25956
435 8.80113
440 8.67253
445 8.40868
450 7.60985
455 7.19611
460 7.0958
465 6.91173
470 6.17348
475 6.03379
480 5.8449
485 5.12512
490 4.8817
495 4.46668
500 3.6274
505 3.60945
510 3.25862
515 3.02499
520 2.75399
525 2.5434
530 2.16933
535 1.90463
540 1.74107
545 1.67418
550 1.42441
555 1.20703
560 1.31153
565 1.11123
570 1.09818
575 0.671221
580 0.608646
585 0.795786
590 0.619994
595 0.516019
600 0.525144
Ex : 343
200 0.327284
205 0.29375
210 0.278326
215 0.268864
220 0.277123
225 0.267489
230 0.235761
235 0.293573
240 0.376255
245 0.298892
250 0.409965
255 0.282114
260 0.36119
265 0.277759
270 0.242568
275 0.313517
280 0.539548
285 0.29043
290 0.354428
295 0.348301
300 0.265897
305 0.30822
310 0.327435
315 0.384463
320 0.266204
325 0.475342
330 6.92124
335 104.766
340 155.152
345 37.5255
350 6.37483
355 3.37479
360 2.82157
365 2.36496
370 3.68312
375 7.51783
380 8.42037
385 6.18015
390 5.40792
395 5.45955
400 5.57492
405 5.97063
410 5.96772
415 6.27494
420 6.37877
425 6.13832
430 6.03108
435 6.0418
440 6.20373
445 5.81617
450 5.71632
455 5.82965
460 5.61844
465 5.45433
470 4.9326
475 4.91763
480 4.31837
485 4.03392
490 3.98684
495 3.93039
500 3.7057
505 2.95321
510 2.73314
515 2.40451
520 2.3743
525 2.05153
530 1.94862
535 1.67449
540 1.39815
545 1.57772
550 1.29885
555 1.17325
560 1.12908
565 1.17621
570 0.988361
575 0.679811
580 0.667487
585 0.641312
590 0.622866
595 0.486027
600 0.492422
Ex : 348
200 0.312537
205 0.178043
210 0.228159
215 0.173798
220 0.320832
225 0.260806
230 0.260396
235 0.278271
240 0.250425
245 0.257208
250 0.293873
255 0.197087
260 0.274904
265 0.211553
270 0.299758
275 0.33323
280 0.224022
285 0.314207
290 0.251398
295 0.274761
300 0.230243
305 0.329155
310 0.197846
315 0.281976
320 0.3173
325 0.314865
330 0.35983
335 7.11898
340 105.061
345 159.948
350 41.8866
355 6.56681
360 2.86913
365 2.50122
370 2.20815
375 2.53464
380 5.57863
385 7.61302
390 5.97631
395 5.05573
400 4.77682
405 4.78082
410 4.98881
415 5.58506
420 5.46431
425 5.321
430 5.2221
435 5.72126
440 5.9635
445 5.76166
450 5.72685
455 5.7572
460 5.56353
465 5.02555
470 4.74524
475 4.78527
480 4.43448
485 4.37666
490 4.05708
495 3.64621
500 3.45109
505 3.24155
510 3.06719
515 2.85544
520 2.45942
525 2.2204
530 2.0044
535 1.66177
540 1.54018
545 1.4505
550 1.3497
555 1.10877
560 1.04807
565 0.936954
570 0.884449
575 0.755168
580 0.611378
585 0.566026
590 0.541465
595 0.487356
600 0.285216
Ex : 353
200 0.326823
205 0.285446
210 0.242324
215 0.325117
220 0.252822
225 0.296618
230 0.205254
235 0.25759
240 0.264839
245 0.20733
250 0.251286
255 0.185809
260 0.201892
265 0.216166
270 0.222774
275 0.17111
280 0.267196
285 0.291516
290 0.222211
295 0.330552
300 0.247243
305 0.292556
310 0.220814
315 0.342394
320 0.364187
325 0.27125
330 0.267865
335 0.409534
340 7.4696
345 108.331
350 158.637
355 40.0574
360 6.08517
365 2.51483
370 2.34827
375 2.19117
380 2.27002
385 4.49911
390 7.54538
395 6.54997
400 5.45452
405 4.83035
410 4.88251
415 5.32628
420 5.30197
425 5.63101
430 5.42909
435 5.61117
440 5.78593
445 5.79064
450 5.78398
455 5.36273
460 5.42709
465 5.31224
470 5.11055
475 4.81494
480 4.53553
485 4.35696
490 3.94534
495 3.75507
500 3.62145
505 3.36061
510 3.19559
515 2.58002
520 2.56589
525 2.04366
530 1.97832
535 1.67136
540 1.77549
545 1.46581
550 1.37639
555 1.28537
560 1.06031
565 1.18654
570 0.859329
575 0.627549
580 0.647746
585 0.546819
590 0.59609
595 0.485339
600 0.0552298
Ex : 358
200 0.267495
205 0.257457
210 0.284406
215 0.191043
220 0.30277
225 0.231717
230 0.316576
235 0.349777
240 0.234486
245 0.202513
250 0.237675
255 0.250638
260 0.240695
265 0.222621
270 0.269638
275 0.260217
280 0.184541
285 0.162463
290 0.251193
295 0.271836
300 0.240633
305 0.218449
310 0.292618
315 0.276272
320 0.315505
325 0.300283
330 0.303056
335 0.27513
340 0.352211
345 6.93957
350 105.121
355 162.279
360 41.0006
365 6.12405
370 2.64304
375 2.69929
380 2.09203
385 1.93617
390 3.63481
395 7.59829
400 7.34689
405 5.86602
410 5.26752
415 5.29739
420 5.49633
425 5.73299
430 5.68633
435 5.90749
440 6.01325
445 6.16664
450 5.98238
455 5.63384
460 5.37134
465 5.40865
470 5.30654
475 5.11448
480 4.90553
485 4.75886
490 4.47013
495 4.10076
500 3.78846
505 3.41729
510 3.19754
515 2.76077
520 2.51002
525 2.12312
530 2.1448
535 1.85277
540 1.59088
545 1.49079
550 1.30534
555 1.45067
560 1.21478
565 0.933647
570 0.91935
575 0.801657
580 0.73205
585 0.58091
590 0.498442
595 0.388547
600 0.47073
Ex : 363
200 0.1869
205 0.226544
210 0.226238
215 0.135551
220 0.240948
225 0.274843
230 0.267462
235 0.256317
240 0.279596
245 0.223443
250 0.240438
255 0.234028
260 0.227704
265 0.233929
270 0.235745
275 0.291671
280 0.22898
285 0.178814
290 0.206705
295 0.191065
300 0.212625
305 0.279819
310 0.193562
315 0.190751
320 0.218771
325 0.236491
330 0.148071
335 0.343777
340 0.325777
345 0.298298
350 6.67623
355 101.496
360 159.549
365 41.9961
370 6.02088
375 2.45565
380 2.33553
385 2.16581
390 2.04542
395 3.46145
400 6.4932
405 7.64291
410 6.39334
415 5.82575
420 5.53141
425 5.60095
430 5.7568
435 6.32912
440 6.55526
445 6.47074
450 6.02402
455 6.26736
460 6.11258
465 6.29807
470 6.08895
475 5.518
480 5.28925
485 5.0942
490 4.69895
495 4.30444
500 4.11051
505 3.62282
510 3.4411
515 3.05443
520 2.81851
525 2.4732
530 2.23719
535 1.97643
540 1.9794
545 1.73767
550 1.47214
555 1.30567
560 1.09874
565 1.10012
570 0.76232
575 0.661607
580 0.629857
585 0.497555
590 0.504708
595 0.408967
600 0.421975
Ex : 368
200 0.136888
205 0.200083
210 0.19963
215 0.207273
220 0.230058
225 0.235167
230 0.286455
235 0.200741
240 0.239034
245 0.148191
250 0.240837
255 0.251066
260 0.218642
265 0.284647
270 0.33636
275 0.250687
280 0.228943
285 0.192879
290 0.18594
295 0.247184
300 0.204039
305 0.168764
310 0.21962
315 0.233253
320 0.223763
325 0.273763
330 0.350791
335 0.283831
340 0.219889
345 0.330135
350 0.363876
355 5.30622
360 96.4392
365 163.075
370 44.3695
375 6.59518
380 2.41323
385 2.29976
390 2.60162
395 2.54233
400 3.20666
405 6.01376
410 8.11138
415 7.0103
420 6.24811
425 5.5726
430 5.65414
435 5.86875
440 6.21411
445 6.24233
450 6.21842
455 5.88912
460 5.81881
465 6.00106
470 5.90456
475 5.60397
480 5.35815
485 5.20418
490 4.81055
495 4.37309
500 4.19425
505 3.94872
510 3.55448
515 2.98755
520 2.95312
525 2.68247
530 2.35394
535 2.10743
540 1.75742
545 1.5716
550 1.55037
555 1.38862
560 1.27629
565 1.19886
570 0.857653
575 0.801783
580 0.658946
585 0.566891
590 0.470021
595 0.471396
600 0.810869
Ex : 373
200 0.157988
205 0.14838
210 0.125489
215 0.264879
220 0.189171
225 0.178992
230 0.145243
235 0.187031
240 0.159869
245 0.240207
250 0.214265
255 0.188755
260 0.162739
265 0.221286
270 0.179766
275 0.219095
280 0.220933
285 0.235669
290 0.155251
295 0.209928
300 0.231836
305 0.156885
310 0.16443
315 0.205157
320 0.196165
325 0.206301
330 0.241446
335 0.264981
340 0.233749
345 0.278288
350 0.300371
355 0.373076
360 6.28125
365 100.288
370 160.429
375 43.0806
380 6.37533
385 2.32626
390 2.71418
395 3.07764
400 3.38035
405 3.55065
410 5.81934
415 8.39918
420 7.25144
425 6.31671
430 5.79768
435 5.57749
440 6.14794
445 5.84102
450 6.01515
455 5.71647
460 5.73694
465 5.66859
470 5.62837
475 5.49578
480 5.04626
485 4.94184
490 4.71005
495 4.42839
500 4.13744
505 3.7023
510 3.29168
515 3.05321
520 2.70536
525 2.53501
530 2.19658
535 2.08347
540 1.73782
545 1.80172
550 1.53764
555 1.4308
560 1.29686
565 1.14196
570 0.975842
575 0.779185
580 0.588411
585 0.553812
590 0.504769
595 0.474654
600 0.0735337
Ex : 378
200 0.149496
205 0.213261
210 0.227494
215 0.132705
220 0.217324
225 0.228431
230 0.217758
235 0.155255
240 0.132907
245 0.183782
250 0.146896
255 0.198346
260 0.183002
265 0.170529
270 0.178827
275 0.105383
280 0.149064
285 0.184043
290 0.142238
295 0.159236
300 0.214553
305 0.231008
310 0.173621
315 0.235168
320 0.178189
325 0.1576
330 0.259723
335 0.189991
340 0.211983
345 0.210492
350 0.233165
355 0.264153
360 0.411937
365 5.747
370 98.5303
375 162.215
380 44.4959
385 6.71519
390 2.80122
395 3.42758
400 3.67078
405 3.68151
410 4.02647
415 5.65463
420 8.24127
425 7.70256
430 6.28438
435 6.08031
440 6.04979
445 6.1027
450 5.85509
455 5.96478
460 5.8197
465 5.92475
470 5.65135
475 5.54134
480 5.00731
485 4.6154
490 4.74063
495 4.28708
500 3.98436
505 3.59669
510 3.34574
515 3.08337
520 2.61607
525 2.49927
530 2.32169
535 2.04399
540 1.82306
545 1.6788
550 1.47848
555 1.25033
560 1.20096
565 0.972522
570 0.861594
575 0.758186
580 0.60808
585 0.52186
590 0.491505
595 0.388544
600 0.509658
Ex : 383
200 0.200936
205 0.172753
210 0.175294
215 0.181259
220 0.151061
225 0.176295
230 0.132828
235 0.160074
240 0.186686
245 0.145767
250 0.125208
255 0.143369
260 0.222591
265 0.20975
270 0.15624
275 0.20968
280 0.186633
285 0.161258
290 0.224596
295 0.217667
300 0.179683
305 0.166714
310 0.159368
315 0.203836
320 0.236358
325 0.214372
330 0.211057
335 0.209343
340 0.163466
345 0.192571
350 0.247971
355 0.323254
360 0.354389
365 0.362212
370 5.77159
375 96.7273
380 163.675
385 45.0138
390 6.94277
395 2.81473
400 3.338
405 3.74972
410 3.87324
415 4.18033
420 5.22465
425 7.72381
430 8.1211
435 7.14798
440 6.61417
445 6.25395
450 5.88843
455 5.89823
460 5.85673
465 5.81772
470 5.63703
475 5.50361
480 5.32098
485 5.05357
490 4.77704
495 4.22267
500 4.16811
505 3.69487
510 3.50114
515 3.18829
520 2.87373
525 2.51492
530 2.33564
535 2.11677
540 1.80315
545 1.73104
550 1.5834
555 1.14431
560 1.19448
565 1.08536
570 0.925605
575 0.83727
580 0.721066
585 0.561301
590 0.459484
595 0.392269
600 0.286331
Ex : 388
200 0.173035
205 0.162985
210 0.146847
215 0.209508
220 0.166686
225 0.155195
230 0.1769
235 0.134644
240 0.131851
245 0.130023
250 0.181465
255 0.121578
260 0.207601
265 0.200381
270 0.151968
275 0.156441
280 0.193158
285 0.156036
290 0.137792
295 0.167212
300 0.179987
305 0.192062
310 0.152351
315 0.174002
320 0.167286
325 0.185044
330 0.169153
335 0.168783
340 0.202942
345 0.179203
350 0.254461
355 0.189546
360 0.152005
365 0.250284
370 0.437598
375 5.7421
380 95.8836
385 160.33
390 43.7768
395 7.0705
400 2.91149
405 3.31748
410 4.08651
415 4.23716
420 4.10308
425 4.87383
430 6.92278
435 8.51477
440 7.25347
445 6.68936
450 5.85788
455 5.37183
460 5.3634
465 5.54349
470 5.63635
475 5.19385
480 5.17147
485 4.93614
490 4.47714
495 4.39535
500 3.95259
505 3.70456
510 3.37158
515 3.07889
520 2.70871
525 2.43796
530 2.1913
535 2.04321
540 1.76158
545 1.62703
550 1.50686
555 1.37802
560 1.30149
565 0.942415
570 0.85402
575 0.803416
580 0.613588
585 0.48874
590 0.412146
595 0.401672
600 0.911695
Ex : 393
200 0.174538
205 0.123155
210 0.169553
215 0.132564
220 0.11965
225 0.13806
230 0.169538
235 0.164197
240 0.162429
245 0.131718
250 0.136091
255 0.100157
260 0.15604
265 0.133265
270 0.134048
275 0.136827
280 0.290699
285 0.164144
290 0.169208
295 0.15072
300 0.106016
305 0.170476
310 0.109456
315 0.130454
320 0.129469
325 0.140272
330 0.158766
335 0.21796
340 0.224485
345 0.200042
350 0.201307
355 0.265661
360 0.168832
365 0.213268
370 0.279341
375 0.303761
380 4.79316
385 94.5576
390 161.652
395 45.81
400 7.43624
405 3.27886
410 3.86302
415 4.43156
420 4.12736
425 3.72275
430 3.97428
435 5.55816
440 7.69788
445 6.76077
450 6.04939
455 5.48294
460 4.97263
465 4.90383
470 5.04583
475 4.8675
480 4.71372
485 4.32715
490 4.35866
495 4.05645
500 3.84035
505 3.57763
510 3.45944
515 2.93507
520 2.41773
525 2.46674
530 2.07241
535 1.98596
540 1.75022
545 1.58144
550 1.56366
555 1.29428
560 1.18845
565 1.0794
570 0.843767
575 0.733281
580 0.610403
585 0.552484
590 0.390266
595 0.33859
600 0.237926
Ex : 398
200 0.172492
205 0.164881
210 0.217362
215 0.121497
220 0.168614
225 0.107779
230 0.160851
235 0.168152
240 0.134724
245 0.147308
250 0.132799
255 0.110421
260 0.124052
265 0.216846
270 0.222798
275 0.149614
280 0.191447
285 0.210524
290 0.140474
295 0.147507
300 0.169846
305 0.176077
310 0.19419
315 0.191761
320 0.157854
325 0.1882
330 0.143892
335 0.194955
340 0.172581
345 0.187252
350 0.169202
355 0.207858
360 0.210383
365 0.207147
370 0.178506
375 0.301023
380 0.333574
385 4.9679
390 95.9732
395 163.679
400 45.6071
405 7.4978
410 3.44587
415 3.61018
420 3.83755
425 3.71814
430 3.6278
435 3.78765
440 4.89065
445 6.92706
450 6.68435
455 5.30318
460 4.94433
465 4.6294
470 4.55464
475 4.5332
480 3.97659
485 3.88681
490 3.82372
495 3.71031
500 3.60897
505 3.11364
510 3.00516
515 2.59307
520 2.50411
525 2.23891
530 2.10099
535 1.84839
540 1.62998
545 1.46775
550 1.30744
555 1.21399
560 1.08022
565 0.963524
570 0.792969
575 0.726799
580 0.587491
585 0.423532
590 0.366791
595 0.34971
600 0.382261
Ex : 403
200 0.177157
205 0.164926
210 0.148117
215 0.184438
220 0.19088
225 0.121216
230 0.161286
235 0.174726
240 0.14864
245 0.160429
250 0.153203
255 0.164627
260 0.173238
265 0.171581
270 0.138843
275 0.139679
280 0.169723
285 0.197846
290 0.15621
295 0.133991
300 0.172341
305 0.142424
310 0.143015
315 0.105845
320 0.172777
325 0.139342
330 0.185207
335 0.118273
340 0.166485
345 0.131348
350 0.206529
355 0.156813
360 0.183296
365 0.152401
370 0.238948
375 0.2266
380 0.273198
385 0.352082
390 5.60094
395 98.1656
400 162.458
405 45.5689
410 7.72563
415 3.54739
420 3.40059
425 3.45558
430 3.50517
435 3.35039
440 3.60436
445 4.19692
450 6.08242
455 6.54426
460 5.40859
465 4.97078
470 4.33854
475 4.02093
480 3.93897
485 3.72102
490 3.7598
495 3.6232
500 3.49973
505 3.11514
510 2.83528
515 2.60101
520 2.40369
525 2.07666
530 1.94129
535 1.8165
540 1.5609
545 1.39208
550 1.24956
555 1.12603
560 1.06696
565 0.902825
570 0.815015
575 0.706986
580 0.62468
585 0.456088
590 0.410212
595 0.382168
600 0.140276
Ex : 408
200 0.185293
205 0.132319
210 0.167139
215 0.194618
220 0.101766
225 0.134873
230 0.125351
235 0.146538
240 0.160138
245 0.135141
250 0.156931
255 0.133192
260 0.191367
265 0.208582
270 0.177937
275 0.131945
280 0.194036
285 0.109622
290 0.161963
295 0.149093
300 0.196668
305 0.129621
310 0.146311
315 0.172252
320 0.144945
325 0.149935
330 0.154952
335 0.16432
340 0.192144
345 0.140368
350 0.15735
355 0.158267
360 0.207026
365 0.217427
370 0.199002
375 0.217231
380 0.215482
385 0.281524
390 0.403329
395 5.19879
400 99.8059
405 163.456
410 44.3972
415 7.44647
420 3.10334
425 2.80929
430 3.13346
435 3.03732
440 3.19801
445 3.2437
450 3.42699
455 5.10834
460 6.45509
465 5.16594
470 4.50777
475 4.16953
480 3.76704
485 3.50011
490 3.44893
495 3.31815
500 2.98517
505 2.97697
510 2.53094
515 2.48019
520 2.18317
525 2.0621
530 1.89935
535 1.7318
540 1.48742
545 1.34205
550 1.36896
555 1.03451
560 1.00183
565 0.896241
570 0.761908
575 0.62848
580 0.578827
585 0.439018
590 0.399217
595 0.394167
600 0.191557
Ex : 413
200 0.104645
205 0.154721
210 0.158629
215 0.151288
220 0.168031
225 0.139385
230 0.149325
235 0.162013
240 0.130745
245 0.160347
250 0.141522
255 0.186307
260 0.127628
265 0.119004
270 0.129008
275 0.173719
280 0.173755
285 0.198069
290 0.190874
295 0.117924
300 0.114867
305 0.173645
310 0.130624
315 0.221021
320 0.17125
325 0.188557
330 0.152932
335 0.167505
340 0.157593
345 0.141735
350 0.166719
355 0.160533
360 0.148474
365 0.19022
370 0.188333
375 0.16378
380 0.133804
385 0.213109
390 0.254354
395 0.326896
400 6.02336
405 102.251
410 165.394
415 43.4777
420 6.49496
425 2.56672
430 2.25624
435 2.49604
440 2.541
445 2.38252
450 2.36957
455 2.57848
460 3.77655
465 5.56439
470 4.65665
475 3.83315
480 3.62004
485 2.95948
490 2.85898
495 2.94554
500 2.76976
505 2.56907
510 2.25295
515 2.21591
520 1.98238
525 1.77864
530 1.62995
535 1.56654
540 1.58291
545 1.35895
550 1.28694
555 1.04694
560 0.926959
565 0.987305
570 0.815932
575 0.591082
580 0.459699
585 0.425107
590 0.405404
595 0.306144
600 0.342055
Ex : 418
200 0.128743
205 0.140319
210 0.137741
215 0.147709
220 0.182454
225 0.139668
230 0.159551
235 0.165728
240 0.162469
245 0.145478
250 0.122032
255 0.156004
260 0.146659
265 0.143631
270 0.0953224
275 0.137087
280 0.160946
285 0.114581
290 0.112261
295 0.146747
300 0.1853
305 0.143222
310 0.158656
315 0.13706
320 0.140596
325 0.158327
330 0.138437
335 0.181264
340 0.0940165
345 0.133139
350 0.202124
355 0.192705
360 0.145249
365 0.168476
370 0.200027
375 0.137895
380 0.167474
385 0.225829
390 0.218269
395 0.294925
400 0.406498
405 5.62531
410 103.18
415 168.898
420 45.7574
425 6.39519
430 1.95875
435 1.69683
440 1.92203
445 1.88173
450 1.68006
455 1.5893
460 1.85992
465 2.50247
470 4.68641
475 4.64947
480 3.55719
485 3.12395
490 2.58737
495 2.39484
500 2.20426
505 2.24902
510 2.18125
515 1.95692
520 1.76562
525 1.62447
530 1.57413
535 1.58175
540 1.36643
545 1.30511
550 1.11754
555 1.01443
560 1.00101
565 0.90175
570 0.724889
575 0.589872
580 0.501319
585 0.391889
590 0.379158
595 0.289018
600 0.505142
Ex : 423
200 0.185332
205 0.201239
210 0.124631
215 0.133976
220 0.158767
225 0.128471
230 0.182546
235 0.170868
240 0.189174
245 0.167668
250 0.138718
255 0.182642
260 0.181585
265 0.153535
270 0.122002
275 0.148654
280 0.171763
285 0.150375
290 0.198646
295 0.190982
300 0.115186
305 0.138429
310 0.162751
315 0.146053
320 0.157851
325 0.141927
330 0.152587
335 0.212679
340 0.162513
345 0.153331
350 0.170918
355 0.137699
360 0.216887
365 0.194512
370 0.196511
375 0.216069
380 0.197921
385 0.225514
390 0.256454
395 0.267868
400 0.323334
405 0.406858
410 5.72363
415 107.585
420 169.916
425 44.0591
430 6.0432
435 1.76404
440 1.35418
445 1.64843
450 1.82504
455 1.46638
460 1.41007
465 1.61018
470 1.95543
475 3.57363
480 4.56262
485 3.3599
490 2.74284
495 2.66124
500 2.11135
505 2.0135
510 1.90424
515 1.8166
520 1.66077
525 1.59338
530 1.43484
535 1.33373
540 1.11525
545 1.26741
550 1.03236
555 0.924686
560 0.765742
565 0.741435
570 0.711571
575 0.552844
580 0.44116
585 0.350765
590 0.353041
595 0.39745
600 0.40606
Ex : 428
200 0.168365
205 0.130644
210 0.132501
215 0.198265
220 0.131435
225 0.164533
230 0.17656
235 0.141357
240 0.130759
245 0.126757
250 0.126857
255 0.11248
260 0.163745
265 0.110744
270 0.196365
275 0.190032
280 0.147067
285 0.15068
290 0.160442
295 0.196135
300 0.187739
305 0.198025
310 0.187116
315 0.170853
320 0.107267
325 0.131356
330 0.134247
335 0.117196
340 0.148358
345 0.150868
350 0.175891
355 0.189136
360 0.127173
365 0.168757
370 0.151442
375 0.156796
380 0.166343
385 0.206054
390 0.198038
395 0.196019
400 0.195675
405 0.276846
410 0.473201
415 6.62083
420 108.518
425 174.847
430 46.3241
435 6.29509
440 1.59627
445 1.27573
450 1.54963
455 1.52532
460 1.40966
465 1.36487
470 1.44609
475 1.85999
480 3.11782
485 4.51428
490 3.63187
495 2.70897
500 2.36823
505 1.98065
510 1.75259
515 1.80363
520 1.49428
525 1.53686
530 1.32461
535 1.10626
540 1.18124
545 0.979179
550 1.00914
555 0.845634
560 0.846095
565 0.732746
570 0.599159
575 0.504137
580 0.479535
585 0.47294
590 0.398028
595 0.297415
600 0.161292
Ex : 433
200 0.17237
205 0.11828
210 0.102568
215 0.18125
220 0.151841
225 0.17842
230 0.131851
235 0.144953
240 0.132786
245 0.148219
250 0.194321
255 0.198785
260 0.176706
265 0.165481
270 0.146131
275 0.179958
280 0.187883
285 0.180661
290 0.159315
295 0.169796
300 0.156056
305 0.16949
310 0.172717
315 0.245513
320 0.143226
325 0.131339
330 0.137398
335 0.194964
340 0.216295
345 0.139147
350 0.187471
355 0.160721
360 0.156194
365 0.163235
370 0.183932
375 0.17299
380 0.174008
385 0.185343
390 0.185195
395 0.197773
400 0.182694
405 0.223621
410 0.272329
415 0.379402
420 7.28323
425 119.967
430 180.501
435 46.3139
440 6.26572
445 1.63743
450 1.25365
455 1.55317
460 1.41864
465 1.40162
470 1.3872
475 1.39349
480 1.48806
485 2.44634
490 4.09374
495 3.58119
500 2.41399
505 2.16297
510 2.07351
515 1.57038
520 1.53046
525 1.45189
530 1.35842
535 1.25333
540 1.25305
545 1.14328
550 1.04765
555 0.896692
560 0.80814
565 0.719028
570 0.623266
575 0.528452
580 0.455634
585 0.378762
590 0.331024
595 0.329828
600 0.449514
Ex : 438
200 0.159321
205 0.177124
210 0.189196
215 0.220258
220 0.186538
225 0.144819
230 0.202147
235 0.164807
240 0.128699
245 0.137396
250 0.197609
255 0.148735
260 0.181199
265 0.218489
270 0.170918
275 0.137704
280 0.159767
285 0.170461
290 0.152818
295 0.15871
300 0.152062
305 0.130323
310 0.146743
315 0.165587
320 0.211392
325 0.132109
330 0.242567
335 0.232323
340 0.171356
345 0.121138
350 0.202705
355 0.148472
360 0.144904
365 0.155708
370 0.283186
375 0.185633
380 0.143384
385 0.302102
390 0.208153
395 0.175068
400 0.175961
405 0.182998
410 0.229244
415 0.302522
420 0.348039
425 7.02533
430 117.432
435 191.646
440 49.5497
445 6.5544
450 1.78163
455 1.14414
460 1.38154
465 1.68916
470 1.44562
475 1.41329
480 1.37176
485 1.32781
490 1.92365
495 3.51165
500 3.72316
505 2.46148
510 2.16157
515 1.86739
520 1.5983
525 1.35717
530 1.21849
535 1.09149
540 1.14359
545 1.00624
550 0.924631
555 0.927867
560 0.840995
565 0.647632
570 0.512188
575 0.526537
580 0.442574
585 0.311169
590 0.334933
595 0.327629
600 0.314038
Ex : 443
200 0.227003
205 0.152422
210 0.169768
215 0.166243
220 0.156205
225 0.143235
230 0.120555
235 0.132976
240 0.216854
245 0.164365
250 0.116461
255 0.159963
260 0.217376
265 0.188515
270 0.17266
275 0.176359
280 0.146051
285 0.170653
290 0.16185
295 0.142186
300 0.145332
305 0.145766
310 0.129587
315 0.155196
320 0.145469
325 0.146112
330 0.129881
335 0.186053
340 0.174973
345 0.185194
350 0.155625
355 0.237162
360 0.174132
365 0.149296
370 0.155434
375 0.14438
380 0.180092
385 0.147439
390 0.156915
395 0.201326
400 0.204721
405 0.194916
410 0.220969
415 0.241827
420 0.241694
425 0.456939
430 7.9843
435 129.893
440 200.598
445 51.1327
450 6.92264
455 1.70257
460 1.08365
465 1.38972
470 1.43244
475 1.57257
480 1.36562
485 1.32921
490 1.30772
495 1.58254
500 2.97301
505 3.85242
510 2.62359
515 2.08518
520 1.77806
525 1.48289
530 1.34323
535 1.27314
540 1.11799
545 1.07726
550 0.91724
555 0.868115
560 0.725837
565 0.759831
570 0.57104
575 0.598111
580 0.421607
585 0.41519
590 0.333101
595 0.424347
600 0.469162
Ex : 448
200 0.212073
205 0.149633
210 0.185383
215 0.135087
220 0.146578
225 0.129879
230 0.123104
235 0.173055
240 0.173452
245 0.146175
250 0.175262
255 0.115999
260 0.125399
265 0.155666
270 0.181934
275 0.1456
280 0.153065
285 0.156004
290 0.144737
295 0.144996
300 0.170891
305 0.169302
310 0.186457
315 0.20123
320 0.162328
325 0.161422
330 0.161807
335 0.165034
340 0.143619
345 0.14146
350 0.168408
355 0.184263
360 0.138333
365 0.186654
370 0.141105
375 0.190479
380 0.166552
385 0.176611
390 0.19221
395 0.205627
400 0.148452
405 0.143402
410 0.231788
415 0.200166
420 0.239538
425 0.267411
430 0.328037
435 8.38313
440 139.268
445 209.627
450 53.6757
455 7.18496
460 1.86956
465 1.19656
470 1.38213
475 1.6248
480 1.51694
485 1.46272
490 1.31281
495 1.38748
500 1.41744
505 2.0477
510 3.50876
515 3.03034
520 1.99549
525 1.81636
530 1.5624
535 1.25029
540 1.06731
545 1.02209
550 0.92029
555 0.926849
560 0.800597
565 0.730286
570 0.63989
575 0.573348
580 0.457099
585 0.443918
590 0.361667
595 0.32076
600 0.139548
Ex : 453
200 0.159004
205 0.148823
210 0.188123
215 0.171803
220 0.162261
225 0.13131
230 0.173415
235 0.180898
240 0.234935
245 0.167519
250 0.16201
255 0.193325
260 0.167858
265 0.170083
270 0.224696
275 0.16843
280 0.13558
285 0.229932
290 0.120203
295 0.144988
300 0.171449
305 0.12732
310 0.143159
315 0.211123
320 0.170085
325 0.187207
330 0.159685
335 0.202984
340 0.177416
345 0.153257
350 0.1405
355 0.179419
360 0.142962
365 0.131066
370 0.128931
375 0.188902
380 0.232577
385 0.16808
390 0.1661
395 0.163776
400 0.162297
405 0.221402
410 0.152266
415 0.185598
420 0.298193
425 0.243574
430 0.295509
435 0.466981
440 8.95629
445 152.738
450 222.509
455 53.2223
460 7.04958
465 1.82751
470 1.15977
475 1.32277
480 1.5872
485 1.61706
490 1.32568
495 1.2758
500 1.25001
505 1.28268
510 1.7876
515 3.11545
520 3.28176
525 2.10004
530 1.64373
535 1.52341
540 1.3294
545 1.13273
550 0.995557
555 1.02963
560 0.875798
565 0.693318
570 0.698396
575 0.557704
580 0.492755
585 0.413867
590 0.381814
595 0.397731
600 0.592867
Ex : 458
200 0.105585
205 0.180387
210 0.140896
215 0.188276
220 0.21725
225 0.182749
230 0.250892
235 0.142314
240 0.162848
245 0.15835
250 0.154791
255 0.2036
260 0.170396
265 0.165621
270 0.196434
275 0.203517
280 0.181915
285 0.150147
290 0.121447
295 0.182057
300 0.124757
305 0.203103
310 0.144684
315 0.162199
320 0.144447
325 0.162523
330 0.163429
335 0.137331
340 0.128003
345 0.171953
350 0.155661
355 0.148721
360 0.154822
365 0.160597
370 0.228451
375 0.169614
380 0.148759
385 0.161612
390 0.177914
395 0.236314
400 0.201485
405 0.200586
410 0.154364
415 0.1718
420 0.181751
425 0.224913
430 0.276587
435 0.295859
440 0.428158
445 9.75265
450 155.645
455 235.196
460 57.9403
465 7.63665
470 1.99417
475 1.30465
480 1.18408
485 1.50799
490 1.41239
495 1.27934
500 1.22441
505 1.16025
510 1.21778
515 1.45151
520 2.56082
525 3.17256
530 2.33963
535 1.9273
540 1.52071
545 1.25766
550 1.01564
555 0.950662
560 0.865322
565 0.76144
570 0.66503
575 0.617316
580 0.543209
585 0.36507
590 0.368156
595 0.370564
600 0.269474
Ex : 463
200 0.154813
205 0.132447
210 0.166326
215 0.182053
220 0.148717
225 0.140465
230 0.156041
235 0.147377
240 0.244014
245 0.169192
250 0.146819
255 0.164559
260 0.140881
265 0.126791
270 0.120557
275 0.124252
280 0.130461
285 0.139219
290 0.127785
295 0.130973
300 0.167847
305 0.214196
310 0.157774
315 0.157901
320 0.171174
325 0.160507
330 0.209489
335 0.215477
340 0.13511
345 0.134432
350 0.177909
355 0.134169
360 0.176172
365 0.163867
370 0.145534
375 0.186169
380 0.196721
385 0.13891
390 0.216449
395 0.179805
400 0.159106
405 0.16351
410 0.16819
415 0.168187
420 0.171581
425 0.213034
430 0.215805
435 0.257331
440 0.262107
445 0.383121
450 9.60619
455 163.679
460 252.229
465 62.128
470 8.21327
475 1.91023
480 1.17253
485 1.249
490 1.50133
495 1.41619
500 1.33171
505 1.12523
510 1.04885
515 1.1914
520 1.26157
525 1.93041
530 3.10619
535 2.58887
540 1.67475
545 1.66204
550 1.37431
555 1.06105
560 0.973252
565 0.838821
570 0.712644
575 0.658726
580 0.450493
585 0.437417
590 0.368143
595 0.367597
600 0.259354
Ex : 468
200 0.232438
205 0.147703
210 0.1698
215 0.185833
220 0.11692
225 0.166643
230 0.144785
235 0.147056
240 0.142654
245 0.158313
250 0.159051
255 0.16038
260 0.11323
265 0.138438
270 0.148233
275 0.145206
280 0.149307
285 0.16211
290 0.170466
295 0.125499
300 0.110182
305 0.179083
310 0.149402
315 0.128477
320 0.142915
325 0.146374
330 0.164309
335 0.17309
340 0.181831
345 0.131597
350 0.141966
355 0.176269
360 0.15614
365 0.14225
370 0.161934
375 0.158564
380 0.108077
385 0.132358
390 0.131582
395 0.158413
400 0.221239
405 0.192242
410 0.188742
415 0.157149
420 0.199508
425 0.160023
430 0.177391
435 0.222541
440 0.228122
445 0.271621
450 0.430394
455 10.4268
460 168.379
465 272.314
470 66.6241
475 8.61131
480 2.05184
485 1.22622
490 1.13918
495 1.35401
500 1.54766
505 1.36333
510 1.16281
515 1.10574
520 1.23042
525 1.23014
530 1.70896
535 2.58414
540 2.76212
545 1.82527
550 1.32698
555 1.3127
560 1.09088
565 0.90292
570 0.660804
575 0.668566
580 0.608057
585 0.478967
590 0.38093
595 0.349591
600 0.118822
Ex : 473
200 0.17719
205 0.150834
210 0.160358
215 0.163545
220 0.155409
225 0.139496
230 0.18692
235 0.186253
240 0.200355
245 0.195689
250 0.136711
255 0.149438
260 0.166613
265 0.188092
270 0.185215
275 0.162842
280 0.111579
285 0.186303
290 0.163843
295 0.263934
300 0.186698
305 0.159575
310 0.15184
315 0.163459
320 0.173322
325 0.117822
330 0.195235
335 0.187408
340 0.135233
345 0.130999
350 0.191349
355 0.145071
360 0.176874
365 0.206036
370 0.15434
375 0.147844
380 0.23499
385 0.207329
390 0.185029
395 0.156453
400 0.197363
405 0.169495
410 0.215599
415 0.171036
420 0.182227
425 0.219895
430 0.227656
435 0.225474
440 0.227752
445 0.260243
450 0.345186
455 0.524311
460 12.3731
465 185.777
470 262.433
475 61.998
480 8.06666
485 2.06408
490 1.18303
495 1.09907
500 1.41044
505 1.59148
510 1.22881
515 1.13606
520 1.25767
525 1.19869
530 1.25898
535 1.3424
540 2.23911
545 2.86507
550 1.86348
555 1.3783
560 1.18602
565 1.00136
570 0.759565
575 0.642993
580 0.547621
585 0.40728
590 0.387935
595 0.326566
600 0.0498948
Ex : 478
200 0.161958
205 0.141436
210 0.186758
215 0.166578
220 0.204015
225 0.186166
230 0.150298
235 0.231273
240 0.225896
245 0.218003
250 0.208368
255 0.144541
260 0.238258
265 0.184903
270 0.22583
275 0.138065
280 0.166945
285 0.197541
290 0.220565
295 0.160416
300 0.180297
305 0.244634
310 0.192279
315 0.15146
320 0.153001
325 0.193909
330 0.215413
335 0.184527
340 0.260967
345 0.150268
350 0.164801
355 0.250609
360 0.182306
365 0.208656
370 0.231362
375 0.233701
380 0.181947
385 0.279013
390 0.24797
395 0.234157
400 0.237059
405 0.170715
410 0.182943
415 0.228446
420 0.244819
425 0.180792
430 0.219865
435 0.257489
440 0.261469
445 0.304376
450 0.322789
455 0.412129
460 0.53713
465 13.6941
470 192.335
475 268.199
480 66.0071
485 8.58483
490 2.1262
495 1.16186
500 1.10673
505 1.47232
510 1.47258
515 1.26606
520 1.26483
525 1.19122
530 1.15421
535 1.10394
540 1.32287
545 1.77232
550 2.74224
555 2.16162
560 1.31285
565 1.04361
570 0.96046
575 0.855091
580 0.611028
585 0.46608
590 0.427387
595 0.356178
600 0.53631
Ex : 483
200 0.223724
205 0.213527
210 0.223382
215 0.207488
220 0.18263
225 0.175608
230 0.169249
235 0.176681
240 0.214225
245 0.203707
250 0.17963
255 0.151149
260 0.153165
265 0.146086
270 0.178126
275 0.220859
280 0.205296
285 0.185328
290 0.194083
295 0.274711
300 0.16721
305 0.167084
310 0.23167
315 0.268718
320 0.20436
325 0.222079
330 0.215283
335 0.19664
340 0.182688
345 0.175158
350 0.188041
355 0.196546
360 0.188672
365 0.223396
370 0.217934
375 0.224285
380 0.225652
385 0.259414
390 0.206263
395 0.215173
400 0.179682
405 0.181261
410 0.221929
415 0.204292
420 0.230494
425 0.251319
430 0.262856
435 0.22962
440 0.382043
445 0.279943
450 0.265933
455 0.366314
460 0.389792
465 0.541114
470 10.8528
475 190.447
480 291.67
485 70.7586
490 9.16005
495 1.99518
500 1.14025
505 1.11017
510 1.16936
515 1.3134
520 1.37442
525 1.27381
530 1.21447
535 1.15413
540 0.977094
545 1.06118
550 1.40031
555 2.11644
560 2.27517
565 1.38671
570 0.968375
575 0.800581
580 0.774719
585 0.498678
590 0.554586
595 0.417443
600 0.300705
Ex : 488
200 0.290661
205 0.204689
210 0.202223
215 0.23934
220 0.199628
225 0.188503
230 0.217645
235 0.228067
240 0.221913
245 0.241499
250 0.202337
255 0.190253
260 0.153785
265 0.366505
270 0.247604
275 0.20433
280 0.19723
285 0.147639
290 0.27827
295 0.22166
300 0.190512
305 0.191718
310 0.216072
315 0.189569
320 0.214857
325 0.214779
330 0.17902
335 0.278352
340 0.2455
345 0.266923
350 0.171622
355 0.272266
360 0.163254
365 0.260962
370 0.215308
375 0.208698
380 0.209594
385 0.205101
390 0.274634
395 0.218974
400 0.221236
405 0.240252
410 0.248239
415 0.190463
420 0.266237
425 0.256163
430 0.240454
435 0.190923
440 0.252103
445 0.264471
450 0.271929
455 0.276534
460 0.301311
465 0.43585
470 0.546392
475 13.2024
480 204.998
485 286.485
490 68.3502
495 8.82853
500 1.97456
505 1.25753
510 1.03435
515 1.12935
520 1.39313
525 1.30885
530 1.29254
535 1.16169
540 1.1029
545 1.12245
550 1.054
555 1.0437
560 1.78789
565 2.09084
570 1.45982
575 0.878115
580 0.715915
585 0.708751
590 0.57069
595 0.408725
600 0.198143
Ex : 493
200 0.227387
205 0.205967
210 0.19447
215 0.224968
220 0.192139
225 0.189032
230 0.205989
235 0.148028
240 0.215411
245 0.173929
250 0.214382
255 0.175874
260 0.224769
265 0.298021
270 0.24422
275 0.188751
280 0.176391
285 0.212949
290 0.178624
295 0.17173
300 0.261227
305 0.206354
310 0.191639
315 0.156149
320 0.245791
325 0.207107
330 0.173515
335 0.186787
340 0.267521
345 0.220482
350 0.209931
355 0.204155
360 0.223812
365 0.198544
370 0.178869
375 0.192643
380 0.229143
385 0.24942
390 0.248626
395 0.227755
400 0.252361
405 0.250892
410 0.27003
415 0.241485
420 0.228549
425 0.257362
430 0.221192
435 0.262686
440 0.272977
445 0.274394
450 0.233765
455 0.31703
460 0.303581
465 0.42351
470 0.403367
475 0.588053
480 12.2127
485 204.582
490 309.142
495 72.425
500 9.19065
505 1.91308
510 1.1697
515 1.15473
520 1.21507
525 1.38536
530 1.34519
535 1.16466
540 1.07843
545 1.11729
550 0.986643
555 1.03594
560 0.960056
565 1.20513
570 1.69684
575 1.4274
580 0.776058
585 0.563179
590 0.578068
595 0.456055
600 0.928031
Ex : 498
200 0.316181
205 0.211807
210 0.211093
215 0.302865
220 0.318136
225 0.220224
230 0.255724
235 0.24475
240 0.246365
245 0.348053
250 0.29674
255 0.264732
260 0.207561
265 0.168204
270 0.250905
275 0.251744
280 0.223563
285 0.215729
290 0.20818
295 0.232427
300 0.179323
305 0.166848
310 0.225735
315 0.237051
320 0.196096
325 0.230151
330 0.286387
335 0.240632
340 0.221991
345 0.23896
350 0.30173
355 0.221608
360 0.185983
365 0.23048
370 0.169276
375 0.233677
380 0.230703
385 0.251478
390 0.300285
395 0.26468
400 0.241171
405 0.236328
410 0.219515
415 0.229277
420 0.199795
425 0.24369
430 0.313681
435 0.267253
440 0.240756
445 0.193972
450 0.215919
455 0.283242
460 0.270709
465 0.49439
470 0.411115
475 0.432329
480 0.602707
485 14.2266
490 216.381
495 294.867
500 68.882
505 8.91568
510 1.97678
515 1.18541
520 1.09114
525 1.23719
530 1.41327
535 1.2909
540 1.10605
545 0.977094
550 0.896488
555 1.0186
560 0.881138
565 0.806706
570 0.881082
575 1.30783
580 1.3315
585 0.903027
590 0.575642
595 0.447161
600 0.951983
Ex : 503
200 0.261006
205 0.227356
210 0.1851
215 0.201115
220 0.261092
225 0.291487
230 0.217035
235 0.193106
240 0.262682
245 0.23801
250 0.218894
255 0.236066
260 0.20663
265 0.306785
270 0.28552
275 0.23585
280 0.233554
285 0.291876
290 0.237182
295 0.196761
300 0.302633
305 0.170195
310 0.217368
315 0.272914
320 0.27689
325 0.268785
330 0.210057
335 0.248133
340 0.20688
345 0.239016
350 0.218621
355 0.235029
360 0.247782
365 0.254756
370 0.209423
375 0.210811
380 0.288908
385 0.299169
390 0.371884
395 0.206389
400 0.223672
405 0.340853
410 0.323012
415 0.299857
420 0.331269
425 0.28067
430 0.313217
435 0.252108
440 0.301727
445 0.387844
450 0.268694
455 0.330423
460 0.335791
465 0.346391
470 0.431068
475 0.446373
480 0.440733
485 0.58931
490 13.1044
495 211.177
500 299.727
505 70.0305
510 8.94381
515 1.98464
520 1.41697
525 1.18623
530 1.21644
535 1.29775
540 1.28623
545 1.16651
550 1.03544
555 0.930464
560 0.904299
565 0.737576
570 0.809927
575 0.734674
580 0.957143
585 1.14783
590 0.775292
595 0.621337
600 0.169173
Ex : 508
200 0.229126
205 0.196501
210 0.341852
215 0.254914
220 0.249544
225 0.350812
230 0.328865
235 0.234067
240 0.220318
245 0.308092
250 0.275394
255 0.221309
260 0.247293
265 0.302923
270 0.196421
275 0.21763
280 0.2679
285 0.199383
290 0.245854
295 0.280447
300 0.277958
305 0.304675
310 0.214132
315 0.215534
320 0.310109
325 0.211873
330 0.221501
335 0.297556
340 0.270704
345 0.360634
350 0.21882
355 0.17265
360 0.340315
365 0.337189
370 0.255099
375 0.254587
380 0.201127
385 0.288952
390 0.240375
395 0.280418
400 0.204937
405 0.28609
410 0.356954
415 0.308578
420 0.282305
425 0.247894
430 0.192559
435 0.346941
440 0.319615
445 0.342704
450 0.321371
455 0.262967
460 0.351439
465 0.303832
470 0.32712
475 0.354993
480 0.321499
485 0.45125
490 0.634224
495 13.7993
500 213.094
505 302.513
510 73.5774
515 9.35448
520 2.07208
525 1.38272
530 1.13445
535 1.03084
540 1.23069
545 1.12592
550 0.928746
555 1.05443
560 0.958961
565 0.81896
570 0.745088
575 0.662907
580 0.668273
585 0.629091
590 0.885706
595 0.72062
600 0.791769
Ex : 513
200 0.256172
205 0.288439
210 0.224523
215 0.228896
220 0.238819
225 0.187018
230 0.27192
235 0.259833
240 0.22884
245 0.200028
250 0.264373
255 0.287351
260 0.239603
265 0.266687
270 0.283521
275 0.303243
280 0.281122
285 0.228098
290 0.278363
295 0.325429
300 0.321937
305 0.241631
310 0.221993
315 0.27852
320 0.255319
325 0.26981
330 0.248761
335 0.189067
340 0.25381
345 0.276363
350 0.245548
355 0.331461
360 0.333054
365 0.287381
370 0.206138
375 0.29973
380 0.239753
385 0.263604
390 0.259658
395 0.24641
400 0.306102
405 0.218934
410 0.284135
415 0.277736
420 0.231537
425 0.268716
430 0.264428
435 0.359213
440 0.435942
445 0.254407
450 0.353133
455 0.358333
460 0.301431
465 0.363023
470 0.374616
475 0.339582
480 0.395083
485 0.354
490 0.413981
495 0.720561
500 13.1909
505 208.044
510 304.57
515 75.6674
520 9.6245
525 2.11833
530 1.33532
535 1.06357
540 1.01449
545 1.07445
550 1.08283
555 0.943231
560 0.894985
565 0.738095
570 0.594165
575 0.576
580 0.491182
585 0.524461
590 0.55283
595 0.698156
600 0.845558
Ex : 518
200 0.281868
205 0.216923
210 0.275727
215 0.210768
220 0.193227
225 0.228334
230 0.270109
235 0.244663
240 0.264095
245 0.303067
250 0.237752
255 0.26557
260 0.3055
265 0.234408
270 0.251687
275 0.313745
280 0.24403
285 0.187235
290 0.225752
295 0.291224
300 0.237672
305 0.303896
310 0.242509
315 0.265172
320 0.311612
325 0.263304
330 0.238596
335 0.279311
340 0.256616
345 0.301262
350 0.342811
355 0.277533
360 0.30169
365 0.254106
370 0.213899
375 0.255961
380 0.319686
385 0.217979
390 0.257627
395 0.337923
400 0.267585
405 0.266254
410 0.220535
415 0.253091
420 0.267117
425 0.235375
430 0.259185
435 0.284851
440 0.296795
445 0.3287
450 0.335651
455 0.331318
460 0.3117
465 0.257097
470 0.333403
475 0.297041
480 0.293067
485 0.313706
490 0.357299
495 0.453853
500 0.54973
505 13.0682
510 201.731
515 296.499
520 74.373
525 9.54133
530 1.95045
535 1.23766
540 1.08199
545 0.963506
550 0.884907
555 0.904792
560 0.962224
565 0.766626
570 0.706132
575 0.573776
580 0.562083
585 0.514733
590 0.467772
595 0.420464
600 0.0478472
Ex : 523
200 0.265136
205 0.364247
210 0.271633
215 0.235018
220 0.218639
225 0.228316
230 0.204491
235 0.223401
240 0.229326
245 0.281333
250 0.216261
255 0.291984
260 0.256716
265 0.240598
270 0.269768
275 0.18478
280 0.241161
285 0.253775
290 0.23728
295 0.350227
300 0.208516
305 0.250998
310 0.361125
315 0.254407
320 0.247495
325 0.285925
330 0.263942
335 0.238455
340 0.246492
345 0.373248
350 0.326564
355 0.343565
360 0.415326
365 0.266712
370 0.230191
375 0.293957
380 0.399524
385 0.279135
390 0.231179
395 0.351315
400 0.288926
405 0.341205
410 0.277292
415 0.38505
420 0.222774
425 0.256197
430 0.259001
435 0.250892
440 0.316271
445 0.235235
450 0.260583
455 0.246721
460 0.292074
465 0.300387
470 0.299051
475 0.261996
480 0.36518
485 0.39252
490 0.384469
495 0.418355
500 0.382391
505 0.753565
510 11.6582
515 197.597
520 295.249
525 76.0876
530 9.69507
535 2.07412
540 1.12896
545 0.928944
550 0.921022
555 0.790946
560 0.867136
565 0.750195
570 0.775689
575 0.605974
580 0.514306
585 0.368739
590 0.463585
595 0.415011
600 0.0472267
Ex : 528
200 0.244637
205 0.234327
210 0.291489
215 0.286325
220 0.164502
225 0.298058
230 0.369402
235 0.266931
240 0.269131
245 0.377425
250 0.23536
255 0.33782
260 0.293819
265 0.182178
270 0.293335
275 0.243901
280 0.343295
285 0.284753
290 0.365215
295 0.265052
300 0.263691
305 0.252177
310 0.218789
315 0.319076
320 0.282861
325 0.268295
330 0.241278
335 0.25463
340 0.263613
345 0.228421
350 0.27407
355 0.401773
360 0.297505
365 0.281458
370 0.259233
375 0.324865
380 0.277941
385 0.29816
390 0.341143
395 0.2674
400 0.33769
405 0.288136
410 0.236059
415 0.235039
420 0.284485
425 0.2846
430 0.275297
435 0.328857
440 0.325105
445 0.305741
450 0.30061
455 0.313288
460 0.256364
465 0.270327
470 0.249972
475 0.326543
480 0.33613
485 0.33813
490 0.345327
495 0.402857
500 0.388243
505 0.569999
510 0.693765
515 11.5008
520 191.854
525 295.821
530 75.3688
535 9.55952
540 1.8834
545 0.924235
550 1.01916
555 0.787859
560 0.790084
565 0.692015
570 0.736532
575 0.686034
580 0.546735
585 0.500736
590 0.373637
595 0.475824
600 0.44354
Ex : 533
200 0.24827
205 0.335804
210 0.270423
215 0.244546
220 0.208789
225 0.313033
230 0.230638
235 0.242143
240 0.339907
245 0.272136
250 0.330795
255 0.274186
260 0.286258
265 0.195954
270 0.293216
275 0.310597
280 0.240246
285 0.306368
290 0.209365
295 0.295439
300 0.241988
305 0.25062
310 0.309671
315 0.289598
320 0.307647
325 0.283655
330 0.337093
335 0.50234
340 0.321019
345 0.373357
350 0.245244
355 0.268576
360 0.287941
365 0.36537
370 0.314564
375 0.283929
380 0.257005
385 0.222881
390 0.295174
395 0.221522
400 0.31397
405 0.266985
410 0.253567
415 0.251933
420 0.283388
425 0.279584
430 0.223057
435 0.323743
440 0.214947
445 0.357424
450 0.285036
455 0.272744
460 0.394121
465 0.323257
470 0.359182
475 0.293788
480 0.387869
485 0.28584
490 0.248631
495 0.368458
500 0.384785
505 0.479294
510 0.509538
515 0.652483
520 11.4403
525 185.181
530 285.246
535 74.3087
540 9.43234
545 1.77325
550 0.972917
555 0.963554
560 0.722711
565 0.81656
570 0.708794
575 0.655894
580 0.675059
585 0.591824
590 0.350313
595 0.401317
600 0.729836
Ex : 538
200 0.27588
205 0.36771
210 0.332085
215 0.241532
220 0.232894
225 0.242078
230 0.23073
235 0.241881
240 0.280008
245 0.318965
250 0.26406
255 0.291666
260 0.320298
265 0.28898
270 0.299171
275 0.328986
280 0.278493
285 0.283194
290 0.245608
295 0.28307
300 0.269258
305 0.257714
310 0.266152
315 0.283847
320 0.230052
325 0.21033
330 0.352244
335 0.379839
340 0.394219
345 0.20807
350 0.28802
355 0.289706
360 0.269502
365 0.250414
370 0.279765
375 0.339538
380 0.329651
385 0.313359
390 0.336589
395 0.261197
400 0.386566
405 0.306985
410 0.24815
415 0.323219
420 0.325092
425 0.28217
430 0.406834
435 0.277874
440 0.330952
445 0.291791
450 0.336823
455 0.328811
460 0.305676
465 0.322243
470 0.256501
475 0.255834
480 0.31425
485 0.352745
490 0.292014
495 0.247768
500 0.466199
505 0.386079
510 0.437561
515 0.458713
520 0.651447
525 9.97769
530 177.981
535 289.327
540 77.0282
545 9.87871
550 1.84459
555 0.961759
560 0.836862
565 0.613073
570 0.526786
575 0.588289
580 0.547815
585 0.592579
590 0.430215
595 0.425205
600 0.10587
Ex : 543
200 0.341309
205 0.379082
210 0.298853
215 0.240309
220 0.254614
225 0.348862
230 0.296866
235 0.300536
240 0.310113
245 0.343387
250 0.198901
255 0.290134
260 0.304748
265 0.269428
270 0.30163
275 0.372357
280 0.447374
285 0.334208
290 0.234221
295 0.263741
300 0.278615
305 0.355287
310 0.360152
315 0.287548
320 0.261575
325 0.297555
330 0.232014
335 0.282661
340 0.217484
345 0.353853
350 0.272535
355 0.380615
360 0.254481
365 0.364014
370 0.302409
375 0.281974
380 0.350152
385 0.353859
390 0.249069
395 0.244879
400 0.313146
405 0.405375
410 0.284989
415 0.300857
420 0.319319
425 0.390041
430 0.34884
435 0.422737
440 0.374442
445 0.350035
450 0.283395
455 0.446328
460 0.324336
465 0.376643
470 0.433516
475 0.33788
480 0.405774
485 0.297176
490 0.393754
495 0.33767
500 0.387486
505 0.400776
510 0.428203
515 0.428059
520 0.438435
525 0.638693
530 8.8864
535 168.633
540 288.652
545 80.0057
550 10.0404
555 1.80414
560 0.87341
565 0.683405
570 0.488738
575 0.563111
580 0.546952
585 0.54673
590 0.468095
595 0.41284
600 0.49982
Ex : 548
200 0.380105
205 0.35942
210 0.332035
215 0.382433
220 0.285398
225 0.266294
230 0.312079
235 0.37575
240 0.304187
245 0.286405
250 0.362779
255 0.300989
260 0.293622
265 0.305721
270 0.310953
275 0.220985
280 0.263004
285 0.318958
290 0.251608
295 0.265999
300 0.276848
305 0.27389
310 0.285314
315 0.360365
320 0.256102
325 0.337488
330 0.373362
335 0.307373
340 0.346821
345 0.292461
350 0.484812
355 0.43206
360 0.342925
365 0.298835
370 0.317403
375 0.288125
380 0.280563
385 0.237827
390 0.33266
395 0.289401
400 0.341566
405 0.329264
410 0.360567
415 0.234658
420 0.311297
425 0.342276
430 0.332338
435 0.355725
440 0.329833
445 0.440332
450 0.357376
455 0.397507
460 0.349845
465 0.300268
470 0.284879
475 0.364064
480 0.367341
485 0.309156
490 0.324818
495 0.29634
500 0.363635
505 0.454294
510 0.441381
515 0.3829
520 0.38917
525 0.497144
530 0.68305
535 10.0775
540 173.476
545 280.496
550 76.6822
555 9.67711
560 1.83581
565 0.875345
570 0.695323
575 0.385572
580 0.542509
585 0.47659
590 0.4666
595 0.471609
600 0.224866
Ex : 553
200 0.302908
205 0.351946
210 0.265175
215 0.277431
220 0.337205
225 0.40558
230 0.304811
235 0.302337
240 0.322081
245 0.316077
250 0.380513
255 0.326871
260 0.39425
265 0.344452
270 0.278695
275 0.343879
280 0.31744
285 0.270543
290 0.281655
295 0.34701
300 0.297177
305 0.341895
310 0.318708
315 0.341415
320 0.291339
325 0.336612
330 0.329855
335 0.250642
340 0.291998
345 0.478318
350 0.300169
355 0.264241
360 0.3547
365 0.40806
370 0.331783
375 0.44484
380 0.283787
385 0.345328
390 0.297524
395 0.44722
400 0.320426
405 0.295371
410 0.293159
415 0.354352
420 0.294984
425 0.451678
430 0.296917
435 0.375355
440 0.243275
445 0.388422
450 0.34245
455 0.321484
460 0.394711
465 0.343269
470 0.507229
475 0.282554
480 0.373583
485 0.318231
490 0.301014
495 0.285294
500 0.282263
505 0.348374
510 0.338629
515 0.207667
520 0.448258
525 0.515845
530 0.490419
535 0.567017
540 8.84087
545 160.919
550 271.401
555 76.5356
560 9.53471
565 1.73257
570 0.731715
575 0.573523
580 0.557214
585 0.384808
590 0.436294
595 0.647191
600 0.0736479
Ex : 558
200 0.28448
205 0.388238
210 0.334299
215 0.43299
220 0.307203
225 0.428398
230 0.238198
235 0.296854
240 0.349231
245 0.313835
250 0.401096
255 0.348602
260 0.344868
265 0.338674
270 0.296069
275 0.232213
280 0.269056
285 0.281147
290 0.232563
295 0.350855
300 0.383464
305 0.389342
310 0.358311
315 0.257767
320 0.381812
325 0.299951
330 0.345679
335 0.47875
340 0.327522
345 0.320498
350 0.381653
355 0.371051
360 0.405157
365 0.384
370 0.311112
375 0.43268
380 0.330204
385 0.35374
390 0.266074
395 0.366701
400 0.384673
405 0.478356
410 0.453419
415 0.332545
420 0.325746
425 0.25631
430 0.313382
435 0.337967
440 0.409384
445 0.443167
450 0.42134
455 0.386109
460 0.378219
465 0.312366
470 0.377812
475 0.44711
480 0.47135
485 0.297213
490 0.278384
495 0.357189
500 0.374182
505 0.377266
510 0.417378
515 0.357449
520 0.400297
525 0.498701
530 0.494079
535 0.480429
540 0.803855
545 8.07458
550 155.036
555 273.006
560 78.1941
565 9.90282
570 1.63093
575 0.750481
580 0.52383
585 0.506306
590 0.418595
595 0.398983
600 0.602597
Ex : 563
200 0.348308
205 0.437521
210 0.330886
215 0.38505
220 0.376375
225 0.306803
230 0.308828
235 0.394819
240 0.315779
245 0.334341
250 0.326937
255 0.264301
260 0.412683
265 0.408105
270 0.499613
275 0.37923
280 0.282191
285 0.350447
290 0.415055
295 0.339548
300 0.357826
305 0.325759
310 0.331719
315 0.353319
320 0.364055
325 0.294041
330 0.346067
335 0.310246
340 0.497978
345 0.434218
350 0.405293
355 0.504329
360 0.301535
365 0.279647
370 0.271099
375 0.331346
380 0.35182
385 0.341424
390 0.368681
395 0.365866
400 0.318714
405 0.272307
410 0.349207
415 0.400289
420 0.332521
425 0.385164
430 0.42876
435 0.348632
440 0.341545
445 0.283568
450 0.315828
455 0.376221
460 0.39703
465 0.437242
470 0.314491
475 0.371966
480 0.392221
485 0.391426
490 0.4385
495 0.444798
500 0.448361
505 0.470144
510 0.362922
515 0.365843
520 0.399076
525 0.428444
530 0.406515
535 0.416598
540 0.492969
545 0.672679
550 7.76886
555 146.006
560 258.884
565 76.7861
570 9.52569
575 1.51639
580 0.592633
585 0.538712
590 0.50693
595 0.431362
600 0.0766092
Ex : 568
200 0.45674
205 0.362438
210 0.308798
215 0.32841
220 0.44483
225 0.353827
230 0.35049
235 0.238781
240 0.260834
245 0.385717
250 0.391967
255 0.476608
260 0.342103
265 0.323006
270 0.297164
275 0.296385
280 0.384862
285 0.312698
290 0.507146
295 0.282534
300 0.255195
305 0.306771
310 0.442036
315 0.354163
320 0.323833
325 0.322002
330 0.270988
335 0.322242
340 0.365196
345 0.420577
350 0.430008
355 0.271707
360 0.325408
365 0.374365
370 0.31033
375 0.425854
380 0.379953
385 0.359369
390 0.38291
395 0.347695
400 0.420815
405 0.268321
410 0.434691
415 0.396212
420 0.489212
425 0.320878
430 0.304978
435 0.368368
440 0.387184
445 0.335183
450 0.391641
455 0.351596
460 0.412406
465 0.357536
470 0.328494
475 0.426048
480 0.385955
485 0.453219
490 0.287222
495 0.418643
500 0.371508
505 0.400213
510 0.496879
515 0.353394
520 0.401848
525 0.443823
530 0.315064
535 0.357924
540 0.520083
545 0.496184
550 0.656646
555 6.23798
560 132.51
565 249.09
570 75.9379
575 9.61592
580 1.54604
585 0.671053
590 0.551144
595 0.499745
600 2.35191
Ex : 573
200 0.367289
205 0.342657
210 0.306028
215 0.360577
220 0.264618
225 0.280366
230 0.369426
235 0.315929
240 0.438237
245 0.419788
250 0.428211
255 0.413727
260 0.310011
265 0.368847
270 0.417679
275 0.422694
280 0.346331
285 0.336722
290 0.372853
295 0.369557
300 0.370221
305 0.329381
310 0.426622
315 0.355096
320 0.267902
325 0.346608
330 0.311763
335 0.335724
340 0.473966
345 0.394213
350 0.288129
355 0.378893
360 0.334519
365 0.395061
370 0.309295
375 0.412144
380 0.478809
385 0.30933
390 0.368278
395 0.434438
400 0.325475
405 0.326323
410 0.388649
415 0.415137
420 0.369459
425 0.326178
430 0.274997
435 0.42211
440 0.405015
445 0.405022
450 0.321953
455 0.355889
460 0.350123
465 0.383882
470 0.346236
475 0.305598
480 0.388475
485 0.491091
490 0.338061
495 0.488643
500 0.413975
505 0.393464
510 0.480805
515 0.489782
520 0.407115
525 0.494688
530 0.352025
535 0.445934
540 0.472787
545 0.358482
550 0.531341
555 0.659512
560 5.01179
565 112.202
570 231.5
575 73.1253
580 8.9596
585 1.61797
590 0.600942
595 0.585255
600 0.602986
Ex : 578
200 0.415061
205 0.436955
210 0.307266
215 0.480806
220 0.353219
225 0.36232
230 0.497764
235 0.2581
240 0.338855
245 0.402529
250 0.3812
255 0.285713
260 0.35685
265 0.288415
270 0.412417
275 0.312721
280 0.364558
285 0.349699
290 0.288828
295 0.368726
300 0.322596
305 0.250736
310 0.316297
315 0.346761
320 0.307456
325 0.447131
330 0.306523
335 0.276678
340 0.303316
345 0.372675
350 0.312662
355 0.353191
360 0.332486
365 0.333958
370 0.362091
375 0.437324
380 0.393519
385 0.398658
390 0.373675
395 0.377847
400 0.452081
405 0.377134
410 0.50425
415 0.367811
420 0.285864
425 0.334492
430 0.280973
435 0.405906
440 0.444392
445 0.353468
450 0.307607
455 0.382036
460 0.415989
465 0.40387
470 0.38008
475 0.326049
480 0.345623
485 0.361822
490 0.380987
495 0.297564
500 0.306949
505 0.346174
510 0.2984
515 0.3321
520 0.337303
525 0.342742
530 0.404056
535 0.371142
540 0.397552
545 0.517507
550 0.565682
555 0.417703
560 0.672376
565 4.66907
570 102.671
575 203.905
580 62.1035
585 7.79415
590 1.29911
595 0.472002
600 0.255933
Ex : 583
200 0.376998
205 0.306168
210 0.315006
215 0.261843
220 0.253457
225 0.302291
230 0.365891
235 0.460097
240 0.33345
245 0.405049
250 0.389488
255 0.332864
260 0.390588
265 0.318929
270 0.299387
275 0.333063
280 0.412047
285 0.379973
290 0.28477
295 0.418927
300 0.398258
305 0.218923
310 0.305055
315 0.353818
320 0.303565
325 0.314679
330 0.319264
335 0.318433
340 0.32483
345 0.404102
350 0.367448
355 0.373771
360 0.347143
365 0.432319
370 0.326098
375 0.404202
380 0.463451
385 0.355385
390 0.361242
395 0.371283
400 0.367904
405 0.349524
410 0.349371
415 0.308662
420 0.445952
425 0.473591
430 0.45738
435 0.422448
440 0.349976
445 0.378821
450 0.370413
455 0.409051
460 0.559403
465 0.503583
470 0.37701
475 0.37288
480 0.38344
485 0.374861
490 0.284363
495 0.477911
500 0.437131
505 0.328535
510 0.357121
515 0.32036
520 0.331758
525 0.416288
530 0.359748
535 0.345952
540 0.389614
545 0.399824
550 0.507182
555 0.513397
560 0.47624
565 0.495818
570 3.94112
575 91.6419
580 176.053
585 51.4482
590 6.51789
595 1.18665
600 0.814864
Ex : 588
200 0.348658
205 0.374508
210 0.383501
215 0.323438
220 0.314079
225 0.337832
230 0.322698
235 0.279868
240 0.387642
245 0.371791
250 0.427826
255 0.33442
260 0.302655
265 0.382674
270 0.387893
275 0.226698
280 0.413473
285 0.328432
290 0.434753
295 0.289379
300 0.313531
305 0.266895
310 0.366739
315 0.401273
320 0.300253
325 0.331963
330 0.362733
335 0.262524
340 0.423896
345 0.339838
350 0.292112
355 0.328287
360 0.373462
365 0.380837
370 0.453648
375 0.281071
380 0.387377
385 0.37551
390 0.409035
395 0.351651
400 0.350477
405 0.371848
410 0.335328
415 0.306692
420 0.466406
425 0.413671
430 0.318436
435 0.346202
440 0.312333
445 0.39833
450 0.362177
455 0.359522
460 0.415429
465 0.454614
470 0.305827
475 0.335223
480 0.369752
485 0.413307
490 0.414074
495 0.449398
500 0.397199
505 0.323829
510 0.345372
515 0.240283
520 0.285494
525 0.36252
530 0.299442
535 0.393814
540 0.352473
545 0.388333
550 0.398886
555 0.443789
560 0.586668
565 0.372031
570 0.48582
575 3.5347
580 75.2133
585 145.094
590 43.8412
595 5.62548
600 1.86672
Ex : 593
200 0.565728
205 0.385289
210 0.47333
215 0.387985
220 0.296515
225 0.44596
230 0.323922
235 0.291788
240 0.291119
245 0.575598
250 0.472547
255 0.42897
260 0.347999
265 0.418124
270 0.374548
275 0.38572
280 0.394157
285 0.324539
290 0.412752
295 0.432532
300 0.501917
305 0.415254
310 0.356971
315 0.310712
320 0.507693
325 0.378404
330 0.315096
335 0.306272
340 0.409607
345 0.397544
350 0.331311
355 0.369749
360 0.388733
365 0.339478
370 0.353641
375 0.370782
380 0.413255
385 0.330993
390 0.32612
395 0.403888
400 0.332589
405 0.351635
410 0.362097
415 0.41661
420 0.330493
425 0.352774
430 0.421257
435 0.443212
440 0.365513
445 0.303463
450 0.460051
455 0.402935
460 0.354278
465 0.256684
470 0.557968
475 0.45542
480 0.482139
485 0.321958
490 0.412086
495 0.387017
500 0.400301
505 0.288934
510 0.295731
515 0.510236
520 0.429211
525 0.296418
530 0.381515
535 0.407881
540 0.488961
545 0.379118
550 0.412793
555 0.442006
560 0.471356
565 0.3241
570 0.53926
575 0.488804
580 2.92259
585 67.8177
590 126.342
595 38.1152
600 5.85846
Ex : 598
200 0.39985
205 0.415654
210 0.259323
215 0.347801
220 0.518432
225 0.366712
230 0.268902
235 0.411713
240 0.328689
245 0.484503
250 0.255326
255 0.329108
260 0.404702
265 0.284743
270 0.306105
275 0.326665
280 0.310996
285 0.410194
290 0.37761
295 0.231667
300 0.361471
305 0.376622
310 0.332547
315 0.478446
320 0.300956
325 0.396185
330 0.273385
335 0.416816
340 0.506356
345 0.269312
350 0.324201
355 0.593716
360 0.320383
365 0.442899
370 0.315361
375 0.407758
380 0.464552
385 0.491025
390 0.365146
395 0.42883
400 0.447207
405 0.372102
410 0.473565
415 0.337013
420 0.405027
425 0.423085
430 0.394957
435 0.350549
440 0.463808
445 0.315606
450 0.317647
455 0.366364
460 0.461604
465 0.431713
470 0.336243
475 0.315776
480 0.432188
485 0.395862
490 0.597298
495 0.484315
500 0.431236
505 0.491254
510 0.361657
515 0.405563
520 0.447969
525 0.407614
530 0.397234
535 0.41019
540 0.463134
545 0.2953
550 0.297721
555 0.285841
560 0.37138
565 0.367611
570 0.396314
575 0.60271
580 0.479801
585 2.8366
590 59.5904
595 111.446
600 69.8092
Ex : 603
200 0.275131
205 0.269616
210 0.400727
215 0.347502
220 0.374518
225 0.33328
230 0.328739
235 0.280973
240 0.22829
245 0.338818
250 0.406401
255 0.348955
260 0.465573
265 0.343755
270 0.369211
275 0.263435
280 0.304797
285 0.354472
290 0.31588
295 0.320436
300 0.271884
305 0.28367
310 0.324847
315 0.503289
320 0.448624
325 0.468426
330 0.312049
335 0.379884
340 0.376491
345 0.471494
350 0.29323
355 0.370613
360 0.433152
365 0.352028
370 0.350352
375 0.380381
380 0.283539
385 0.409758
390 0.410097
395 0.303679
400 0.425182
405 0.334099
410 0.353801
415 0.327133
420 0.26461
425 0.350309
430 0.587899
435 0.317455
440 0.271329
445 0.419831
450 0.343874
455 0.529848
460 0.460661
465 0.430816
470 0.42498
475 0.336718
480 0.442666
485 0.311755
490 0.324388
495 0.269593
500 0.46762
505 0.489678
510 0.343735
515 0.334459
520 0.420771
525 0.45548
530 0.317763
535 0.381682
540 0.439226
545 0.487955
550 0.347923
555 0.429543
560 0.382991
565 0.407721
570 0.417908
575 0.389487
580 0.328344
585 0.382557
590 2.43354
595 50.0042
600 97.1206
