File format V 1.0
jeu. 12. janv. 20:22:30 2017
Operator : 
Comments : 

=============================================
SpectroFluorometer parameters
Mode : 3D measurement
Data : Fluorescence
Phospho. : Ordinary
Spectrum : Fluorescence

Scan speed : 2400 nm/mn
Response : 100 ms
PM Voltage : 700 V
Shutter : On

Lambda Ex. Start : 203
Lambda Ex. End : 603
Lambda Ex. Step : 5
Ex. Slit : 5 nm

Lambda Em. Start : 200
Lambda Em. End : 600
Lambda Em. Step : 5
Em. Slit : 5 nm

Repetition : 1
Decal lambda em : 10
=============================================
DATA
Ex : 203
200 11.8356
205 10.0009
210 9.46673
215 8.87849
220 8.77639
225 5.7004
230 13.2502
235 7.43404
240 8.65911
245 6.07376
250 7.88113
255 7.76813
260 6.70761
265 10.0301
270 10.9235
275 7.33308
280 7.34764
285 8.11824
290 7.95911
295 5.27017
300 7.80865
305 8.91107
310 8.35099
315 6.92597
320 8.32695
325 5.24652
330 9.15392
335 10.0267
340 6.42112
345 6.25402
350 7.57761
355 10.9676
360 8.62163
365 10.381
370 8.5134
375 7.37944
380 8.01338
385 7.20148
390 7.54951
395 5.19532
400 5.37849
405 7.02648
410 7.9178
415 7.57001
420 9.03656
425 8.5906
430 7.07023
435 9.60477
440 7.0505
445 7.20452
450 9.14479
455 8.77402
460 10.4621
465 9.36663
470 10.0497
475 6.26344
480 10.3217
485 7.64789
490 9.56776
495 7.7542
500 8.52485
505 5.8333
510 6.23713
515 6.92103
520 8.67942
525 7.91921
530 7.30015
535 7.35566
540 6.65089
545 10.9167
550 8.58821
555 7.80898
560 10.0027
565 7.92957
570 5.59377
575 4.27555
580 10.3638
585 13.1613
590 6.78376
595 10.3739
600 1.88947
Ex : 208
200 6.56485
205 8.48544
210 9.29266
215 5.72127
220 7.92531
225 7.88864
230 8.963
235 11.2709
240 7.102
245 10.1236
250 8.39215
255 8.44234
260 13.0337
265 8.34384
270 6.15332
275 10.1896
280 9.90486
285 9.06387
290 8.25139
295 8.01589
300 7.51272
305 7.52928
310 7.82539
315 5.77075
320 8.69105
325 8.6465
330 8.92755
335 10.0293
340 6.74695
345 9.35236
350 6.38149
355 9.43789
360 7.6452
365 8.63382
370 6.28706
375 9.00746
380 8.24866
385 6.38609
390 6.50876
395 7.4154
400 8.97762
405 6.82707
410 9.62603
415 10.2426
420 9.34966
425 9.36801
430 6.82637
435 6.6975
440 7.75422
445 6.15722
450 6.74141
455 9.69279
460 13.1971
465 8.31042
470 9.03121
475 8.39674
480 5.99398
485 9.59033
490 12.7255
495 6.50777
500 10.5285
505 7.83796
510 9.86031
515 6.60518
520 7.44787
525 7.2089
530 13.4762
535 9.18416
540 9.36927
545 7.69004
550 7.45346
555 8.51966
560 5.55036
565 7.17388
570 4.86944
575 6.68442
580 10.0658
585 8.02705
590 6.75064
595 6.76677
600 20.9755
Ex : 213
200 9.01852
205 9.0978
210 9.19748
215 8.50831
220 8.65709
225 10.0209
230 9.13347
235 6.89073
240 7.91002
245 10.3489
250 9.79759
255 5.7323
260 6.80385
265 6.87463
270 10.3143
275 7.27587
280 7.8967
285 6.7718
290 9.22177
295 7.78197
300 7.6216
305 6.21813
310 6.96119
315 8.07373
320 9.02874
325 7.26902
330 7.39527
335 5.9274
340 9.01348
345 9.02347
350 7.44548
355 8.36145
360 9.76241
365 7.74526
370 11.7885
375 7.55308
380 8.992
385 7.47988
390 7.14642
395 6.82401
400 7.81953
405 10.8982
410 8.56613
415 8.37416
420 6.54916
425 8.61033
430 11.6538
435 9.92754
440 7.71354
445 4.72833
450 6.53248
455 6.0433
460 8.79252
465 6.80349
470 6.80864
475 7.83923
480 6.10687
485 8.14899
490 7.12663
495 7.89241
500 8.09357
505 7.97736
510 9.30141
515 8.28889
520 6.66055
525 10.3212
530 8.26414
535 11.6285
540 11.5289
545 9.35253
550 7.89562
555 6.49627
560 7.75503
565 6.36383
570 7.69999
575 7.32677
580 4.87368
585 10.7693
590 7.12912
595 9.16813
600 9.46223
Ex : 218
200 6.6422
205 8.39485
210 9.55021
215 6.10072
220 7.82731
225 8.48617
230 8.2202
235 6.52057
240 5.33114
245 5.45448
250 6.84493
255 8.36339
260 8.33115
265 8.05125
270 6.75497
275 5.74176
280 7.90682
285 9.54877
290 11.0271
295 10.4615
300 9.89712
305 7.83608
310 9.75375
315 10.1893
320 8.17894
325 7.87266
330 5.04838
335 9.36625
340 7.41831
345 9.27678
350 9.69412
355 8.17622
360 9.86182
365 6.17281
370 9.28678
375 6.77026
380 8.32206
385 9.70455
390 9.20441
395 7.78819
400 6.26024
405 9.33124
410 9.61327
415 8.44616
420 7.13675
425 8.99855
430 9.685
435 8.59054
440 6.4746
445 7.40641
450 7.03275
455 5.77289
460 8.26491
465 8.78506
470 8.93293
475 5.60444
480 9.04214
485 6.63326
490 8.1279
495 7.54376
500 8.88713
505 10.6977
510 8.60781
515 9.9972
520 9.77057
525 8.86912
530 7.62867
535 7.49776
540 8.97473
545 9.6729
550 6.00412
555 10.9719
560 7.0883
565 8.52328
570 10.7818
575 11.2115
580 7.72723
585 8.55542
590 8.7195
595 8.65127
600 4.5293
Ex : 223
200 6.04889
205 7.46377
210 11.5547
215 8.62105
220 6.85884
225 8.0071
230 7.85884
235 9.93109
240 7.43247
245 6.39145
250 6.49356
255 7.00089
260 8.2424
265 13.3182
270 9.31253
275 6.66659
280 9.90641
285 6.65211
290 8.01278
295 7.47601
300 7.03791
305 8.65606
310 7.80674
315 8.4856
320 7.63822
325 6.70266
330 8.81762
335 8.75872
340 8.02804
345 11.4513
350 6.08374
355 9.89765
360 11.1604
365 9.25376
370 8.74287
375 7.02109
380 8.09688
385 8.10814
390 8.10052
395 7.60678
400 11.1084
405 9.29585
410 6.59764
415 6.744
420 8.71134
425 5.21076
430 10.0856
435 7.64242
440 8.39381
445 8.95454
450 7.79154
455 6.80266
460 9.56397
465 6.67264
470 9.50902
475 7.32943
480 9.77194
485 7.50306
490 9.40413
495 11.4362
500 12.7076
505 6.82021
510 8.30272
515 8.30645
520 6.71835
525 10.9837
530 6.37722
535 6.35271
540 9.58919
545 7.52984
550 8.48244
555 7.1286
560 8.28972
565 5.96915
570 8.88741
575 6.93369
580 7.03801
585 5.60316
590 9.90056
595 11.1743
600 1.2716
Ex : 228
200 8.69198
205 8.20014
210 8.23922
215 9.07636
220 9.06508
225 9.44485
230 9.02972
235 7.78725
240 7.93954
245 11.9938
250 8.46272
255 7.13971
260 6.97159
265 7.76975
270 7.09146
275 6.83317
280 8.70486
285 8.00636
290 6.7055
295 6.98231
300 9.42815
305 9.0255
310 7.48086
315 8.57049
320 5.97601
325 5.72683
330 8.46537
335 7.8672
340 8.68262
345 9.65038
350 7.69592
355 8.02474
360 7.55767
365 6.06304
370 7.88361
375 6.87714
380 10.8174
385 8.36554
390 9.10092
395 7.83989
400 11.0756
405 7.71042
410 8.22861
415 7.20677
420 7.86698
425 7.88336
430 8.4671
435 8.07339
440 6.57223
445 10.2656
450 9.67969
455 7.04613
460 8.35808
465 7.13038
470 9.92549
475 5.78496
480 9.73801
485 7.03193
490 7.19296
495 8.51277
500 8.24265
505 7.70349
510 6.94732
515 8.54855
520 8.83501
525 9.76725
530 7.72124
535 8.52715
540 6.69931
545 9.78588
550 9.96387
555 9.27081
560 6.78183
565 9.87624
570 6.91557
575 11.0638
580 8.54603
585 7.03662
590 6.05658
595 7.60083
600 5.73907
Ex : 233
200 6.51293
205 4.52801
210 5.02369
215 9.01599
220 9.43015
225 8.46572
230 8.22087
235 6.564
240 5.79832
245 7.78083
250 8.65762
255 7.06524
260 12.5967
265 7.02941
270 4.90903
275 6.22008
280 5.39566
285 10.1042
290 8.98846
295 11.7192
300 8.58776
305 9.63363
310 7.54002
315 9.46363
320 6.93358
325 6.79152
330 7.81684
335 6.56779
340 7.26783
345 6.63132
350 8.68897
355 6.40958
360 5.62517
365 6.0312
370 8.6694
375 6.28835
380 9.50642
385 6.25752
390 8.3813
395 8.70356
400 4.76406
405 10.5331
410 7.87445
415 6.74725
420 7.20113
425 11.4577
430 7.2611
435 7.15631
440 8.51692
445 5.95317
450 7.82364
455 6.63185
460 10.3109
465 8.26681
470 8.43702
475 6.4824
480 7.69743
485 5.78899
490 8.36222
495 6.54733
500 8.24371
505 7.55669
510 5.17585
515 6.0864
520 6.86637
525 5.97088
530 8.25631
535 5.71765
540 8.40781
545 5.69058
550 8.70601
555 5.85217
560 8.44316
565 8.04311
570 4.57727
575 5.82308
580 8.28618
585 7.62655
590 7.71439
595 6.9858
600 16.9682
Ex : 238
200 5.74329
205 5.42234
210 7.51205
215 6.08245
220 7.35826
225 5.779
230 6.59589
235 7.89447
240 8.24843
245 8.35345
250 6.06061
255 6.28764
260 6.05909
265 5.19437
270 5.39909
275 5.67598
280 3.86756
285 6.31948
290 7.32845
295 6.95714
300 5.74058
305 7.104
310 3.5902
315 6.60872
320 10.6549
325 5.58723
330 3.95492
335 5.42144
340 6.87899
345 9.06658
350 5.92468
355 5.76394
360 5.68792
365 5.91767
370 6.86969
375 7.77884
380 6.55902
385 8.23329
390 9.04128
395 6.7204
400 7.2379
405 8.02273
410 8.4338
415 6.20738
420 7.96656
425 8.80309
430 7.84282
435 9.42093
440 5.63372
445 6.04306
450 5.5209
455 9.54242
460 8.14473
465 7.28813
470 6.96778
475 8.20922
480 6.63954
485 6.04892
490 5.00144
495 6.18856
500 6.32151
505 6.83703
510 6.29558
515 5.29792
520 5.78999
525 8.79615
530 7.54711
535 6.61229
540 5.3407
545 7.88062
550 5.93203
555 7.16598
560 5.2675
565 8.25043
570 8.10436
575 8.24843
580 5.02407
585 8.73991
590 7.14429
595 6.58395
600 7.10036
Ex : 243
200 5.78893
205 7.00211
210 5.70502
215 6.14549
220 7.06778
225 4.5989
230 5.78234
235 6.77251
240 6.83108
245 6.52545
250 6.78267
255 7.98892
260 9.14329
265 7.06108
270 4.39657
275 3.76861
280 6.63228
285 5.72597
290 6.51757
295 4.45208
300 6.96104
305 8.56275
310 6.99242
315 6.04401
320 4.82872
325 5.94701
330 6.97523
335 5.69376
340 5.33595
345 5.34198
350 7.11636
355 6.32535
360 4.7494
365 8.63299
370 4.99712
375 5.24843
380 6.60941
385 5.89629
390 11.8172
395 6.44953
400 6.17415
405 7.5541
410 9.49785
415 5.08401
420 6.26987
425 8.49919
430 7.25001
435 6.5404
440 4.53698
445 8.35673
450 9.33439
455 5.8489
460 6.09725
465 7.78347
470 4.13712
475 6.7694
480 6.23901
485 7.35809
490 6.628
495 6.61422
500 5.74203
505 6.14483
510 5.73761
515 6.46005
520 4.80017
525 6.66041
530 4.11664
535 6.31139
540 5.76572
545 5.14272
550 6.38812
555 7.10305
560 6.14373
565 5.66593
570 5.1656
575 8.44673
580 5.49984
585 5.5534
590 6.67648
595 5.89385
600 31.1561
Ex : 248
200 5.61905
205 5.77036
210 5.42501
215 5.15184
220 7.53366
225 5.44563
230 7.53534
235 5.68238
240 4.81637
245 4.04973
250 4.97511
255 4.63339
260 3.32242
265 5.23224
270 4.36112
275 3.67745
280 7.5962
285 5.16395
290 4.38112
295 4.93228
300 4.45192
305 4.26914
310 3.8597
315 5.03312
320 3.99696
325 3.83214
330 4.33927
335 6.28539
340 4.10114
345 5.98843
350 6.57984
355 5.92313
360 5.90395
365 4.50757
370 5.52865
375 4.66254
380 5.05616
385 4.81159
390 4.62354
395 5.56379
400 4.29378
405 7.53488
410 4.2479
415 6.27437
420 9.42788
425 7.1191
430 5.30828
435 4.20796
440 5.36735
445 6.52228
450 5.20517
455 7.16654
460 4.75659
465 6.88885
470 6.41315
475 4.82654
480 5.19758
485 4.41613
490 4.65871
495 4.07764
500 6.18481
505 6.20732
510 4.19905
515 4.91448
520 4.98473
525 5.04645
530 5.55249
535 4.98398
540 5.06013
545 4.6115
550 4.47532
555 4.53561
560 4.63879
565 3.94841
570 5.3826
575 9.26155
580 6.57082
585 4.34207
590 5.40438
595 5.23009
600 0.595165
Ex : 253
200 4.34177
205 4.03209
210 5.75292
215 4.21559
220 4.02677
225 4.25046
230 3.36737
235 3.22837
240 4.48709
245 6.86398
250 4.59738
255 3.8265
260 5.46028
265 4.30852
270 3.91862
275 4.67553
280 4.32266
285 4.06641
290 5.52937
295 3.93383
300 4.42644
305 3.6359
310 4.82133
315 7.70059
320 4.82149
325 4.94633
330 5.72618
335 4.1019
340 4.33797
345 4.26001
350 4.61585
355 5.50217
360 7.18726
365 5.0813
370 4.54319
375 4.72142
380 4.59302
385 5.67491
390 3.25787
395 4.40529
400 4.25411
405 3.48053
410 4.54957
415 5.37842
420 5.90414
425 4.26518
430 4.30784
435 6.71923
440 3.71549
445 4.1481
450 4.36373
455 4.50158
460 4.39468
465 4.39031
470 4.14288
475 4.56783
480 5.58643
485 5.79411
490 4.96281
495 5.38836
500 3.73914
505 4.26649
510 4.96499
515 4.56991
520 5.88248
525 3.37623
530 3.45005
535 6.01858
540 3.43327
545 3.49127
550 3.28385
555 5.23072
560 5.63875
565 4.91575
570 3.99059
575 4.2137
580 5.47778
585 4.93605
590 8.21129
595 4.42846
600 4.54109
Ex : 258
200 4.84286
205 4.59521
210 2.65269
215 3.40084
220 2.51169
225 3.66158
230 3.43281
235 3.00419
240 3.04868
245 3.84105
250 5.05449
255 4.0303
260 3.09273
265 3.8139
270 2.75654
275 3.43986
280 4.33372
285 4.47455
290 3.7611
295 2.44411
300 2.95173
305 3.56924
310 3.70878
315 2.91484
320 3.30589
325 2.84677
330 4.51397
335 2.99976
340 4.34693
345 3.52162
350 3.30854
355 3.15339
360 2.98594
365 3.36646
370 4.35262
375 3.90747
380 3.46883
385 6.54184
390 5.08969
395 5.64879
400 4.09551
405 3.84802
410 4.43586
415 3.88582
420 4.59099
425 4.20359
430 3.56794
435 3.65418
440 2.66827
445 2.62763
450 4.06113
455 3.67087
460 3.64461
465 2.95125
470 3.83961
475 3.88047
480 4.30916
485 3.38073
490 2.89315
495 3.06185
500 3.35886
505 2.9016
510 4.06504
515 3.83762
520 3.70798
525 3.59162
530 3.81649
535 2.68034
540 2.61733
545 4.30869
550 3.05593
555 3.71785
560 2.57084
565 2.9493
570 3.45506
575 4.18752
580 3.99719
585 3.20696
590 3.52308
595 4.67012
600 1.49821
Ex : 263
200 3.28808
205 2.61971
210 2.90328
215 2.56867
220 3.2228
225 2.33213
230 3.23335
235 2.9391
240 3.09351
245 2.24764
250 2.289
255 2.94701
260 2.30811
265 3.40758
270 3.02001
275 2.15325
280 2.39894
285 3.04072
290 3.72607
295 4.14993
300 2.72911
305 2.71241
310 3.39772
315 2.93784
320 3.30038
325 2.38172
330 3.39811
335 3.00179
340 4.28572
345 2.91364
350 2.33559
355 2.39091
360 2.8234
365 2.62454
370 2.67497
375 2.94089
380 3.44971
385 2.74839
390 2.57683
395 2.86608
400 3.31157
405 2.09451
410 3.78466
415 3.02387
420 3.40859
425 2.68065
430 2.61126
435 2.65355
440 2.87093
445 2.68895
450 2.74788
455 4.15897
460 2.8099
465 2.92905
470 2.22657
475 2.66963
480 3.75809
485 2.86284
490 2.77708
495 3.38421
500 2.00217
505 2.81374
510 3.22928
515 3.87685
520 3.54939
525 4.18602
530 3.04854
535 2.75232
540 2.77685
545 3.65734
550 2.47899
555 3.20948
560 4.79178
565 3.14696
570 2.51266
575 2.75124
580 3.28465
585 2.3472
590 2.46227
595 2.37181
600 2.10561
Ex : 268
200 2.66176
205 1.85785
210 2.12319
215 2.86496
220 2.12143
225 2.53263
230 1.81471
235 2.30723
240 2.2401
245 1.9046
250 1.64242
255 2.02412
260 1.5376
265 2.38043
270 2.25834
275 2.59809
280 2.33533
285 1.74236
290 1.93786
295 2.57013
300 1.55713
305 2.33075
310 2.84143
315 2.07923
320 2.02191
325 2.80278
330 2.1566
335 2.32275
340 2.92293
345 2.42306
350 1.93311
355 2.02045
360 2.38111
365 1.87728
370 3.19122
375 2.16205
380 3.32726
385 2.41375
390 3.20129
395 2.35999
400 2.47634
405 2.67147
410 2.56982
415 2.79593
420 2.44788
425 2.19314
430 2.76563
435 2.75001
440 3.34357
445 2.71065
450 2.42602
455 3.27194
460 2.29285
465 1.72818
470 3.07296
475 3.27935
480 2.54037
485 2.64199
490 1.8572
495 2.73637
500 2.8555
505 2.25367
510 2.60354
515 2.4088
520 3.07222
525 3.05412
530 3.9447
535 3.11698
540 2.04333
545 2.37584
550 1.92429
555 4.30843
560 2.62746
565 2.18876
570 2.46635
575 2.60971
580 1.70496
585 2.69053
590 1.9285
595 2.43497
600 0.27709
Ex : 273
200 2.31833
205 1.12695
210 2.08656
215 1.30012
220 2.14049
225 1.77089
230 2.01594
235 1.98071
240 1.5614
245 1.94913
250 1.7465
255 1.65029
260 1.93559
265 1.72953
270 2.15064
275 1.99319
280 2.08975
285 2.43235
290 1.58976
295 2.05018
300 1.50527
305 1.43332
310 1.66764
315 1.85786
320 2.21468
325 2.08718
330 1.67079
335 1.93322
340 2.59594
345 1.69662
350 1.8827
355 1.60864
360 1.91834
365 2.79407
370 2.05565
375 2.2998
380 1.7147
385 1.95212
390 2.05185
395 2.06906
400 1.68141
405 2.0512
410 2.4899
415 1.93275
420 2.18013
425 2.17044
430 1.72588
435 2.37585
440 2.00763
445 1.99796
450 1.98628
455 1.73123
460 2.44009
465 2.10612
470 1.96767
475 2.73855
480 1.96151
485 1.78571
490 1.88238
495 1.44257
500 1.87729
505 1.792
510 1.80385
515 1.88375
520 1.90082
525 1.74494
530 1.60809
535 2.21538
540 2.61915
545 2.41803
550 2.82348
555 2.11097
560 2.03375
565 2.18689
570 1.78036
575 1.40409
580 1.51261
585 1.98786
590 1.78431
595 2.98935
600 0.340176
Ex : 278
200 1.2818
205 1.35011
210 1.22496
215 1.17278
220 1.49209
225 1.44533
230 1.21432
235 2.06423
240 1.00101
245 1.62328
250 1.15986
255 2.41539
260 1.60576
265 1.47269
270 1.68453
275 1.55514
280 1.61705
285 1.13595
290 1.6652
295 1.52315
300 1.62284
305 2.03359
310 1.25079
315 1.0995
320 1.66535
325 1.10027
330 1.57369
335 1.6713
340 0.993012
345 1.93571
350 1.75584
355 1.68233
360 1.90105
365 1.89027
370 1.60005
375 1.4413
380 1.98215
385 1.55837
390 1.52664
395 1.47863
400 1.65006
405 2.41458
410 2.44227
415 2.05424
420 1.50123
425 1.77644
430 1.61275
435 2.08572
440 2.48718
445 1.64618
450 1.99043
455 1.672
460 2.05082
465 2.35371
470 2.05448
475 1.52231
480 1.42151
485 1.30944
490 1.79482
495 1.62704
500 1.77431
505 1.59792
510 1.4411
515 1.42922
520 1.60768
525 1.52051
530 1.38569
535 2.12526
540 1.63378
545 1.89951
550 2.10973
555 2.32489
560 1.66379
565 1.5713
570 1.7122
575 1.63856
580 1.7576
585 1.02074
590 1.57792
595 1.02209
600 1.17294
Ex : 283
200 1.48032
205 1.51478
210 1.44138
215 1.10549
220 1.47315
225 1.32738
230 1.19294
235 0.981105
240 0.989341
245 0.980338
250 1.03345
255 1.22716
260 1.6414
265 1.1257
270 0.98737
275 1.61032
280 1.91631
285 1.61039
290 1.70734
295 1.00401
300 1.39642
305 1.60828
310 1.37465
315 0.967254
320 1.39007
325 1.12262
330 1.68225
335 1.12615
340 1.60733
345 0.995479
350 1.28641
355 1.40043
360 1.2286
365 1.07124
370 1.38951
375 1.70407
380 1.07491
385 1.49053
390 1.4237
395 1.55014
400 1.94229
405 1.57337
410 1.84608
415 1.11848
420 1.36533
425 1.64527
430 1.20276
435 1.63701
440 1.52214
445 1.32165
450 1.3064
455 1.37056
460 1.50904
465 1.20114
470 1.1234
475 1.46238
480 1.56782
485 1.31744
490 1.71681
495 1.14863
500 1.28218
505 1.96693
510 1.53122
515 1.21901
520 1.44017
525 0.926969
530 1.22325
535 1.15145
540 1.29062
545 1.14285
550 1.30555
555 1.71717
560 1.76544
565 2.40063
570 1.63428
575 1.31017
580 1.564
585 0.888368
590 2.07851
595 1.16882
600 0.810692
Ex : 288
200 0.688848
205 0.900825
210 0.729552
215 1.4568
220 0.971418
225 0.95481
230 1.41925
235 1.27949
240 0.807511
245 0.915189
250 1.27543
255 0.966553
260 0.992883
265 0.979937
270 0.809105
275 1.16833
280 1.13879
285 1.1926
290 0.907019
295 1.01765
300 1.05945
305 1.12851
310 0.738269
315 1.00098
320 0.916237
325 0.979964
330 1.01044
335 1.52765
340 1.04806
345 0.90166
350 1.89596
355 1.10691
360 1.1595
365 1.31573
370 1.27722
375 1.30172
380 1.22747
385 1.39105
390 1.43746
395 1.36362
400 1.21544
405 1.5488
410 1.40555
415 1.63092
420 1.88847
425 1.43166
430 1.87111
435 1.66738
440 1.45684
445 1.27053
450 1.69132
455 1.07428
460 1.12658
465 1.3034
470 1.10456
475 1.08838
480 1.24781
485 1.15036
490 1.06531
495 1.06804
500 1.11391
505 1.39229
510 1.23836
515 0.976828
520 1.2421
525 1.20347
530 1.1538
535 0.905428
540 1.14113
545 1.0303
550 1.01058
555 0.977491
560 1.05829
565 1.16011
570 1.55602
575 1.34662
580 1.25769
585 1.25967
590 1.13583
595 0.970765
600 1.88288
Ex : 293
200 0.938839
205 1.00945
210 1.0359
215 1.07716
220 0.990084
225 0.937304
230 1.13012
235 0.779893
240 0.589526
245 0.763422
250 0.893155
255 0.828839
260 1.01353
265 0.648541
270 0.882004
275 0.765022
280 1.11963
285 0.99391
290 1.28792
295 0.897867
300 1.03062
305 0.803239
310 0.822094
315 1.19652
320 1.05976
325 0.867806
330 1.29776
335 0.961954
340 0.888506
345 1.02692
350 1.1888
355 1.4824
360 1.19271
365 1.07317
370 1.04482
375 0.898096
380 1.08455
385 1.33817
390 1.05733
395 1.24432
400 1.17581
405 1.23954
410 1.16645
415 1.02647
420 1.23647
425 1.32635
430 1.25787
435 1.5592
440 1.28731
445 1.0771
450 1.16028
455 1.31178
460 1.16121
465 1.07089
470 1.05887
475 1.43533
480 1.04814
485 1.45905
490 0.82952
495 0.961477
500 0.914882
505 1.28306
510 0.877055
515 0.733208
520 0.863071
525 0.775899
530 0.79773
535 1.12167
540 0.990401
545 1.15923
550 1.29738
555 1.01514
560 0.922168
565 1.05578
570 0.625684
575 1.25062
580 1.31137
585 1.01816
590 0.889054
595 1.27545
600 1.59701
Ex : 298
200 0.891904
205 0.687066
210 0.81032
215 0.893879
220 0.851647
225 0.979864
230 0.882384
235 0.637761
240 0.766302
245 0.886769
250 0.630194
255 0.66519
260 0.808511
265 0.734543
270 0.671966
275 1.21593
280 0.733385
285 0.722479
290 0.881331
295 1.04652
300 0.805614
305 1.07003
310 0.998226
315 1.04863
320 1.08676
325 0.757598
330 0.626898
335 0.798564
340 0.687303
345 0.790541
350 0.844694
355 0.808593
360 0.782002
365 0.803255
370 0.813303
375 0.865221
380 1.35804
385 1.18804
390 1.3834
395 1.15506
400 0.827514
405 1.12956
410 1.41856
415 1.20699
420 1.06817
425 1.15259
430 1.30002
435 1.61954
440 1.09192
445 1.13579
450 1.31677
455 0.831228
460 1.02788
465 1.18407
470 0.973327
475 1.07028
480 0.734914
485 0.869601
490 0.679003
495 0.916851
500 0.983696
505 1.40027
510 0.830663
515 0.973483
520 0.890414
525 0.871973
530 0.717518
535 1.00567
540 0.698226
545 0.793612
550 0.9753
555 0.689615
560 0.785022
565 0.809626
570 0.745829
575 0.671738
580 0.841873
585 1.03896
590 1.45563
595 1.01927
600 0.115989
Ex : 303
200 1.03831
205 0.608651
210 0.951601
215 0.667067
220 0.457888
225 0.573131
230 0.720564
235 0.719066
240 0.688884
245 0.697786
250 0.860895
255 0.564353
260 0.540485
265 0.971547
270 0.754784
275 0.464732
280 0.667823
285 0.824649
290 0.501665
295 0.957325
300 1.17203
305 0.974121
310 0.58766
315 0.622957
320 0.632589
325 0.536543
330 0.631892
335 0.626662
340 0.772816
345 0.713874
350 0.756874
355 0.907104
360 1.06407
365 0.710717
370 0.533466
375 0.786753
380 1.4305
385 1.10931
390 0.868644
395 0.981159
400 0.975277
405 1.2627
410 0.8249
415 1.07753
420 1.06527
425 0.793735
430 1.18155
435 1.12551
440 1.19068
445 0.842273
450 0.716155
455 0.86558
460 0.820042
465 1.18511
470 1.02212
475 0.875815
480 0.846588
485 1.01765
490 0.88628
495 0.868006
500 0.793624
505 0.749076
510 0.842222
515 0.870171
520 0.423858
525 0.71781
530 0.739987
535 0.617471
540 0.834089
545 0.552529
550 0.653795
555 0.713968
560 0.490183
565 0.616041
570 0.611005
575 0.893947
580 0.575686
585 0.4823
590 0.974728
595 0.927701
600 4.52206
Ex : 308
200 0.374478
205 0.427222
210 0.554709
215 0.556388
220 0.669534
225 0.557944
230 0.501322
235 0.528558
240 0.413327
245 0.795948
250 0.504981
255 0.554972
260 0.70946
265 0.805838
270 0.59536
275 0.643551
280 0.501302
285 0.633401
290 0.392319
295 0.455696
300 0.923827
305 0.871331
310 0.511911
315 0.532642
320 0.636227
325 0.703948
330 0.51466
335 0.588298
340 0.673053
345 0.545215
350 0.751827
355 1.01022
360 0.794259
365 0.944452
370 0.669814
375 1.08374
380 1.00551
385 1.01259
390 0.666446
395 0.75635
400 1.04016
405 0.940298
410 1.03002
415 1.0675
420 0.95008
425 0.830426
430 0.855303
435 0.907345
440 1.05482
445 1.29157
450 1.02856
455 0.791749
460 1.25039
465 0.841664
470 0.797664
475 0.84502
480 0.65151
485 1.10196
490 0.778326
495 0.640914
500 0.484187
505 0.882077
510 0.686635
515 0.638267
520 0.536351
525 0.495701
530 0.556685
535 0.752618
540 0.841189
545 0.728199
550 0.590932
555 0.909371
560 0.624182
565 0.383095
570 0.554545
575 0.497489
580 0.560641
585 0.577254
590 0.473448
595 0.684141
600 0.0778527
Ex : 313
200 0.412985
205 0.348932
210 0.608072
215 0.51474
220 0.597933
225 0.319931
230 0.682317
235 0.685227
240 0.52824
245 0.408455
250 0.518616
255 0.602706
260 0.425454
265 0.390506
270 0.718308
275 0.86311
280 0.477132
285 0.611886
290 0.546087
295 0.626506
300 0.706843
305 0.749454
310 0.865123
315 0.588508
320 0.577011
325 0.492022
330 0.717557
335 0.525573
340 0.630282
345 0.557071
350 0.773326
355 0.548005
360 0.803939
365 0.809528
370 0.893191
375 1.00472
380 0.987512
385 1.12648
390 1.15127
395 1.20902
400 1.23418
405 1.2888
410 1.33501
415 1.03649
420 1.33981
425 0.973547
430 1.02455
435 1.09326
440 0.982068
445 1.00936
450 1.1299
455 1.11615
460 1.06083
465 0.832789
470 0.952796
475 0.82916
480 0.73266
485 0.795478
490 0.600566
495 0.67676
500 0.870988
505 0.763565
510 0.668208
515 0.582018
520 0.544744
525 0.866022
530 0.698547
535 0.539315
540 0.494281
545 0.797897
550 0.673862
555 0.55337
560 0.57769
565 0.572103
570 0.500365
575 0.400509
580 0.430471
585 0.358258
590 0.471873
595 0.609969
600 0.0694121
Ex : 318
200 0.514631
205 0.494048
210 0.44891
215 0.455082
220 0.399196
225 0.367095
230 0.396256
235 0.486748
240 0.474414
245 0.504274
250 0.492696
255 0.391075
260 0.449446
265 0.550395
270 0.648242
275 0.490408
280 0.373357
285 0.450616
290 0.464425
295 0.445143
300 0.401228
305 0.541731
310 0.592649
315 0.736586
320 0.63619
325 0.686754
330 0.726262
335 0.820748
340 1.32305
345 1.61819
350 2.05869
355 2.3367
360 2.98342
365 3.40111
370 4.21855
375 4.91702
380 5.20088
385 5.47755
390 6.04414
395 5.92177
400 6.69435
405 6.70721
410 6.58312
415 6.64098
420 6.6039
425 6.19089
430 6.91056
435 6.36571
440 6.19747
445 5.97009
450 5.91564
455 5.34484
460 5.08288
465 4.68591
470 4.24691
475 3.80691
480 3.52536
485 3.40671
490 3.11913
495 2.74285
500 2.45272
505 2.52368
510 1.91892
515 1.48165
520 1.72486
525 1.27027
530 1.09844
535 1.17068
540 1.08501
545 0.89953
550 1.05626
555 0.718726
560 0.889112
565 0.685408
570 0.482818
575 0.561963
580 0.622788
585 0.400189
590 0.406684
595 0.337762
600 1.03295
Ex : 323
200 0.303983
205 0.346065
210 0.355577
215 0.575064
220 0.449405
225 0.525581
230 0.249127
235 0.374222
240 0.301222
245 0.360752
250 0.419662
255 0.403218
260 0.304067
265 0.512699
270 0.516429
275 0.463791
280 0.30953
285 0.383536
290 0.387145
295 0.608548
300 0.478813
305 0.476601
310 0.503521
315 2.22134
320 7.45001
325 3.98752
330 2.02657
335 2.39614
340 3.6557
345 5.69319
350 7.12851
355 10.5163
360 12.1421
365 15.0526
370 18.1667
375 20.7076
380 23.4068
385 25.5779
390 27.5776
395 29.0645
400 29.5435
405 30.3811
410 30.89
415 30.9219
420 30.1564
425 29.0035
430 27.9345
435 27.9942
440 26.3153
445 24.8335
450 24.5399
455 22.987
460 21.9047
465 19.7305
470 17.8522
475 16.527
480 14.6489
485 13.9239
490 12.4828
495 11.9132
500 10.0395
505 8.94932
510 7.63427
515 6.80035
520 5.76129
525 4.94174
530 4.59755
535 4.00789
540 3.36443
545 2.73009
550 2.84979
555 2.07984
560 2.21482
565 1.69215
570 1.15886
575 1.14403
580 1.04166
585 0.93513
590 0.687207
595 0.755246
600 0.411488
Ex : 328
200 0.379771
205 0.353079
210 0.256153
215 0.715602
220 0.391836
225 0.416465
230 0.388477
235 0.372218
240 0.345379
245 0.388033
250 0.571436
255 0.52272
260 0.399933
265 0.408031
270 0.464795
275 0.47472
280 0.495488
285 0.380718
290 0.36888
295 0.442093
300 0.49592
305 0.504918
310 0.416589
315 0.831779
320 19.212
325 47.195
330 15.5529
335 5.03861
340 5.65462
345 7.09062
350 9.30485
355 12.6125
360 17.766
365 19.2842
370 21.3224
375 25.3611
380 27.9089
385 29.1579
390 31.6245
395 34.4328
400 34.7496
405 35.8049
410 35.4928
415 35.5441
420 34.692
425 34.2405
430 32.3077
435 31.5826
440 30.518
445 29.0646
450 27.4393
455 27.3587
460 24.4811
465 22.5111
470 20.8422
475 19.5538
480 17.7495
485 15.5856
490 14.7004
495 13.2768
500 11.8014
505 9.95029
510 8.61638
515 7.56261
520 6.64547
525 6.33498
530 5.03357
535 4.642
540 4.10316
545 3.46849
550 3.01389
555 2.49937
560 2.25971
565 1.88227
570 1.42355
575 1.30464
580 1.31338
585 0.877013
590 0.724793
595 0.735239
600 0.498313
Ex : 333
200 0.375294
205 0.371027
210 0.312712
215 0.325651
220 0.274322
225 0.301823
230 0.407364
235 0.35937
240 0.363246
245 0.365591
250 0.235487
255 0.25211
260 0.381046
265 0.326363
270 0.315952
275 0.309989
280 0.401969
285 0.445315
290 0.610209
295 0.342144
300 0.438623
305 0.347002
310 0.442085
315 0.383661
320 3.12261
325 56.9522
330 101.133
335 28.6714
340 6.59732
345 4.98075
350 5.94141
355 7.26019
360 10.2131
365 14.6296
370 15.9142
375 15.2174
380 16.3204
385 17.0686
390 18.2391
395 18.8583
400 19.3365
405 19.7791
410 20.128
415 19.8592
420 19.5654
425 18.9043
430 18.4601
435 17.1982
440 16.7542
445 16.1137
450 15.3396
455 14.7406
460 13.5835
465 12.7564
470 11.5314
475 10.4494
480 10.1176
485 8.99717
490 8.49522
495 7.45608
500 6.69766
505 5.93865
510 5.43619
515 4.70381
520 4.33487
525 3.56005
530 3.23996
535 2.97744
540 2.57222
545 2.07487
550 2.1287
555 1.56257
560 1.38654
565 1.4492
570 1.22018
575 0.998756
580 0.758722
585 0.800352
590 0.664155
595 0.635806
600 0.569491
Ex : 338
200 0.42095
205 0.253242
210 0.306213
215 0.267532
220 0.355107
225 0.328418
230 0.434509
235 0.326265
240 0.252733
245 0.295189
250 0.267262
255 0.247701
260 0.336233
265 0.285107
270 0.325329
275 0.390747
280 0.33598
285 0.329612
290 0.291769
295 0.328498
300 0.378229
305 0.30906
310 0.327257
315 0.391311
320 0.396709
325 5.96265
330 92.0597
335 137.723
340 35.5544
345 6.73962
350 4.33235
355 4.42752
360 3.99452
365 5.88351
370 10.2828
375 10.2181
380 8.78158
385 8.39423
390 8.832
395 8.97493
400 9.51147
405 9.69943
410 9.75596
415 9.59279
420 9.25592
425 9.08418
430 9.39631
435 8.95873
440 8.46242
445 7.91333
450 7.92589
455 7.41389
460 7.2049
465 7.1135
470 6.22202
475 6.11908
480 5.6196
485 5.14292
490 4.8048
495 4.47685
500 3.8892
505 3.34685
510 3.09699
515 2.9566
520 2.54847
525 2.2174
530 2.05917
535 1.84598
540 1.5906
545 1.44522
550 1.34368
555 1.18568
560 1.39224
565 1.1964
570 1.0115
575 0.859255
580 0.955366
585 0.677965
590 0.593187
595 0.39882
600 0.4951
Ex : 343
200 0.320058
205 0.216456
210 0.257676
215 0.348436
220 0.244215
225 0.244714
230 0.267737
235 0.25436
240 0.258223
245 0.246314
250 0.286729
255 0.190026
260 0.273171
265 0.190444
270 0.265185
275 0.246212
280 0.275842
285 0.177215
290 0.25512
295 0.26795
300 0.316216
305 0.302669
310 0.358481
315 0.363324
320 0.448978
325 0.490969
330 6.77106
335 105.237
340 155.226
345 38.5028
350 6.31398
355 3.24117
360 2.87285
365 2.57613
370 3.55264
375 7.31052
380 8.32782
385 6.27206
390 5.39059
395 5.39913
400 5.51111
405 6.00838
410 5.86276
415 5.8026
420 6.44435
425 6.53307
430 6.62777
435 6.1403
440 6.28335
445 6.11119
450 5.56926
455 5.69518
460 5.40136
465 5.4656
470 5.07832
475 4.63473
480 4.33347
485 4.19692
490 3.79424
495 3.47047
500 3.13233
505 3.15152
510 2.97399
515 2.23713
520 2.04088
525 1.93272
530 1.91805
535 1.62706
540 1.51981
545 1.43193
550 1.39408
555 1.20931
560 1.14095
565 1.08516
570 0.787491
575 0.752655
580 0.652912
585 0.664957
590 0.555503
595 0.613551
600 0.449621
Ex : 348
200 0.24215
205 0.229679
210 0.238529
215 0.286317
220 0.248484
225 0.225594
230 0.283953
235 0.316111
240 0.201591
245 0.262391
250 0.275398
255 0.241184
260 0.347099
265 0.326023
270 0.292065
275 0.275329
280 0.260959
285 0.331235
290 0.176703
295 0.273958
300 0.290872
305 0.236804
310 0.217905
315 0.381088
320 0.354552
325 0.330287
330 0.42323
335 6.98481
340 107.109
345 162.061
350 42.5098
355 6.49248
360 2.88853
365 2.34449
370 1.97152
375 2.53671
380 5.42796
385 7.65614
390 6.41173
395 4.94542
400 4.75194
405 4.88537
410 5.36874
415 5.25785
420 5.48982
425 5.517
430 5.19588
435 5.6138
440 5.8121
445 5.69451
450 5.52706
455 5.18813
460 5.36099
465 5.11893
470 4.94396
475 4.46333
480 4.55981
485 4.3362
490 4.06786
495 3.70824
500 3.40662
505 3.06449
510 2.84985
515 2.56235
520 2.34748
525 2.1735
530 1.94491
535 1.92057
540 1.5671
545 1.32597
550 1.42263
555 1.14589
560 1.11894
565 1.00701
570 0.97638
575 0.768444
580 0.692288
585 0.659391
590 0.519995
595 0.370478
600 0.521489
Ex : 353
200 0.226665
205 0.209586
210 0.300536
215 0.309448
220 0.267635
225 0.242852
230 0.368046
235 0.198293
240 0.22999
245 0.205524
250 0.274771
255 0.226287
260 0.320534
265 0.193269
270 0.274637
275 0.261448
280 0.330443
285 0.185201
290 0.181543
295 0.238055
300 0.220088
305 0.344698
310 0.334627
315 0.287936
320 0.348489
325 0.2727
330 0.41281
335 0.391187
340 7.61706
345 111.67
350 161.669
355 40.3676
360 6.02164
365 2.66634
370 2.29174
375 2.19791
380 2.13848
385 4.27466
390 7.47237
395 6.57962
400 5.3265
405 4.52684
410 4.59769
415 5.2032
420 5.32418
425 5.58244
430 5.33673
435 5.08474
440 5.41855
445 5.89744
450 5.73404
455 5.43205
460 5.49746
465 5.39358
470 5.04626
475 4.71439
480 4.47126
485 4.52466
490 4.11654
495 3.91346
500 3.27628
505 3.04605
510 3.01598
515 2.42915
520 2.44731
525 2.27587
530 2.00501
535 1.97647
540 1.59665
545 1.37086
550 1.31203
555 1.14211
560 1.05783
565 0.924092
570 0.88488
575 0.811547
580 0.653151
585 0.644909
590 0.471641
595 0.49782
600 0.369127
Ex : 358
200 0.21954
205 0.240324
210 0.182724
215 0.286118
220 0.241978
225 0.228635
230 0.261208
235 0.248934
240 0.305238
245 0.270177
250 0.258814
255 0.24513
260 0.256751
265 0.203678
270 0.248256
275 0.23757
280 0.253562
285 0.338524
290 0.254498
295 0.203248
300 0.209542
305 0.20243
310 0.242453
315 0.160086
320 0.26101
325 0.288659
330 0.25371
335 0.323588
340 0.521566
345 6.60685
350 104.769
355 161.968
360 41.684
365 6.04006
370 2.56926
375 2.81127
380 2.31347
385 2.10202
390 3.72467
395 7.31148
400 7.53896
405 6.00685
410 5.21577
415 4.87288
420 5.11688
425 5.37312
430 5.65646
435 5.68096
440 5.61265
445 6.03124
450 5.61101
455 6.01658
460 5.6666
465 5.4287
470 5.24046
475 5.05681
480 4.9955
485 4.73062
490 4.24374
495 4.16796
500 3.78371
505 3.52436
510 3.22672
515 2.83616
520 2.48477
525 2.47547
530 2.18359
535 1.8715
540 1.54971
545 1.51174
550 1.42058
555 1.17679
560 1.14583
565 1.04243
570 0.682852
575 0.715411
580 0.636268
585 0.5488
590 0.586925
595 0.484826
600 0.302927
Ex : 363
200 0.140138
205 0.183071
210 0.183646
215 0.257254
220 0.27837
225 0.198904
230 0.204379
235 0.175774
240 0.283408
245 0.183709
250 0.262423
255 0.211528
260 0.241019
265 0.209819
270 0.242991
275 0.139104
280 0.227928
285 0.188712
290 0.203453
295 0.201111
300 0.224652
305 0.182053
310 0.168028
315 0.213739
320 0.172147
325 0.171159
330 0.267452
335 0.244672
340 0.291108
345 0.333478
350 6.31908
355 102.044
360 158.809
365 41.9617
370 6.21905
375 2.46011
380 2.34606
385 2.16188
390 2.12005
395 3.53234
400 6.73418
405 7.56513
410 6.35101
415 5.60356
420 5.27265
425 5.30701
430 5.75206
435 5.83333
440 6.17877
445 6.07849
450 5.97721
455 5.69414
460 5.96339
465 5.81371
470 5.54216
475 5.4402
480 5.05399
485 4.80801
490 4.43245
495 4.17507
500 3.87152
505 3.61177
510 3.13194
515 2.76734
520 2.64851
525 2.43838
530 2.18138
535 1.90709
540 1.83379
545 1.6035
550 1.49904
555 1.31967
560 1.17313
565 0.895012
570 0.907373
575 0.81051
580 0.640845
585 0.522345
590 0.462088
595 0.404773
600 0.396112
Ex : 368
200 0.160138
205 0.156412
210 0.156474
215 0.20379
220 0.221822
225 0.192358
230 0.175088
235 0.18503
240 0.184564
245 0.164752
250 0.203831
255 0.174631
260 0.199881
265 0.159535
270 0.225786
275 0.181465
280 0.157255
285 0.164225
290 0.311609
295 0.181751
300 0.216198
305 0.216723
310 0.255105
315 0.230815
320 0.238143
325 0.215618
330 0.238178
335 0.329686
340 0.307304
345 0.24911
350 0.339359
355 5.22738
360 97.5555
365 162.236
370 43.8978
375 6.44028
380 2.27739
385 2.45472
390 2.3713
395 2.58493
400 3.25802
405 5.87146
410 8.30227
415 6.71385
420 6.04896
425 5.53798
430 5.24693
435 5.47427
440 5.85146
445 5.88871
450 5.8822
455 5.66458
460 5.56054
465 5.75353
470 5.75427
475 5.39784
480 5.22392
485 4.66863
490 4.53124
495 4.44996
500 4.12672
505 3.74229
510 3.30724
515 2.96453
520 2.77178
525 2.41506
530 2.34699
535 2.07777
540 1.86098
545 1.60162
550 1.5015
555 1.40055
560 1.09765
565 1.02868
570 0.863649
575 0.831085
580 0.630133
585 0.543556
590 0.441429
595 0.417966
600 0.382995
Ex : 373
200 0.173184
205 0.170561
210 0.162414
215 0.180593
220 0.219083
225 0.188327
230 0.157364
235 0.205588
240 0.176279
245 0.167885
250 0.188556
255 0.241353
260 0.202237
265 0.208759
270 0.220741
275 0.16276
280 0.229875
285 0.139631
290 0.188363
295 0.196888
300 0.148607
305 0.184784
310 0.172242
315 0.202219
320 0.156407
325 0.19605
330 0.250212
335 0.301396
340 0.268417
345 0.260656
350 0.333818
355 0.352564
360 6.10234
365 98.628
370 161.983
375 44.2901
380 6.57565
385 2.54545
390 2.56815
395 3.19113
400 3.29591
405 3.69478
410 5.65879
415 8.01108
420 7.27371
425 6.01168
430 5.35216
435 5.27952
440 5.44452
445 5.58327
450 5.65935
455 5.61738
460 5.2019
465 5.50571
470 5.61958
475 5.25818
480 5.10473
485 4.55946
490 4.50331
495 4.36874
500 4.01732
505 3.47
510 3.29709
515 3.03641
520 2.70984
525 2.20194
530 2.33005
535 1.91203
540 1.74725
545 1.68948
550 1.45685
555 1.30274
560 1.21837
565 0.980637
570 0.869035
575 0.795256
580 0.731453
585 0.516335
590 0.436371
595 0.372584
600 0.297811
Ex : 378
200 0.14023
205 0.190391
210 0.160942
215 0.150349
220 0.187859
225 0.234173
230 0.143839
235 0.227591
240 0.2045
245 0.159658
250 0.189942
255 0.145613
260 0.149246
265 0.136351
270 0.197767
275 0.178046
280 0.139937
285 0.195125
290 0.238191
295 0.212047
300 0.212014
305 0.173564
310 0.209854
315 0.166845
320 0.130842
325 0.159508
330 0.211638
335 0.225619
340 0.214935
345 0.315057
350 0.303536
355 0.24439
360 0.392278
365 5.80236
370 99.7257
375 164.241
380 45.1716
385 7.01579
390 2.70327
395 3.31507
400 3.69695
405 3.45691
410 3.80268
415 5.26203
420 7.94794
425 7.46066
430 6.31284
435 6.00456
440 5.27875
445 5.59415
450 5.39962
455 5.28114
460 5.4237
465 5.37258
470 5.42464
475 5.05954
480 4.61084
485 4.52443
490 4.43427
495 4.04037
500 3.83776
505 3.60606
510 3.0811
515 2.9603
520 2.59553
525 2.418
530 2.18186
535 1.9899
540 1.70389
545 1.54524
550 1.56522
555 1.34889
560 1.26754
565 1.05993
570 0.934421
575 0.812595
580 0.668755
585 0.472699
590 0.345603
595 0.398363
600 1.42957
Ex : 383
200 0.157022
205 0.116916
210 0.168254
215 0.141625
220 0.228203
225 0.131749
230 0.135884
235 0.173037
240 0.17075
245 0.177648
250 0.214714
255 0.139209
260 0.143658
265 0.163016
270 0.181577
275 0.169997
280 0.180952
285 0.18175
290 0.212864
295 0.155332
300 0.182799
305 0.174207
310 0.20563
315 0.164156
320 0.16459
325 0.20445
330 0.238661
335 0.238917
340 0.207661
345 0.25307
350 0.178588
355 0.243699
360 0.231705
365 0.344362
370 5.20237
375 95.8201
380 164.981
385 45.4624
390 6.83269
395 2.73508
400 3.07532
405 3.26709
410 3.56846
415 3.6697
420 4.35257
425 6.92089
430 7.49626
435 6.44723
440 5.79898
445 5.3748
450 5.06546
455 4.89658
460 4.874
465 5.13167
470 5.10678
475 4.93759
480 4.96004
485 4.74112
490 4.5459
495 4.11365
500 4.16578
505 3.4146
510 3.17609
515 3.21723
520 2.68212
525 2.42448
530 2.07159
535 1.89679
540 1.83215
545 1.65346
550 1.51751
555 1.31602
560 1.17704
565 1.08765
570 0.892982
575 0.778721
580 0.622183
585 0.455291
590 0.427771
595 0.323089
600 0.398198
Ex : 388
200 0.161794
205 0.164111
210 0.220312
215 0.19031
220 0.249316
225 0.192756
230 0.192931
235 0.146616
240 0.243873
245 0.222516
250 0.154372
255 0.18372
260 0.203389
265 0.200402
270 0.245468
275 0.217615
280 0.188048
285 0.177026
290 0.13172
295 0.175128
300 0.160753
305 0.164906
310 0.1444
315 0.178668
320 0.143129
325 0.15183
330 0.252892
335 0.246683
340 0.189346
345 0.150788
350 0.264025
355 0.15342
360 0.220305
365 0.312721
370 0.298904
375 5.60114
380 96.6216
385 161.875
390 44.3757
395 7.07535
400 2.90041
405 3.26735
410 3.57319
415 3.76147
420 3.49439
425 4.02032
430 5.82656
435 7.63444
440 6.0116
445 5.72574
450 5.00071
455 4.54897
460 4.84034
465 4.81361
470 5.02328
475 4.80659
480 4.66451
485 4.3448
490 4.29845
495 4.00384
500 3.84719
505 3.51307
510 3.14616
515 2.89518
520 2.63902
525 2.25348
530 2.29772
535 2.03726
540 1.8166
545 1.5925
550 1.4774
555 1.27741
560 1.23327
565 0.991062
570 0.837002
575 0.716052
580 0.609881
585 0.443074
590 0.426897
595 0.346271
600 0.187105
Ex : 393
200 0.123844
205 0.164803
210 0.190546
215 0.153975
220 0.162512
225 0.122455
230 0.148802
235 0.190684
240 0.122675
245 0.197926
250 0.212769
255 0.154492
260 0.159723
265 0.173395
270 0.137119
275 0.114401
280 0.192063
285 0.167214
290 0.213071
295 0.150653
300 0.152398
305 0.145332
310 0.161424
315 0.195991
320 0.224623
325 0.205926
330 0.165017
335 0.189616
340 0.146032
345 0.198376
350 0.181808
355 0.20807
360 0.236467
365 0.258156
370 0.299105
375 0.311568
380 4.98719
385 94.606
390 163.864
395 45.5802
400 7.29699
405 3.09833
410 3.2962
415 3.56375
420 3.55836
425 3.40833
430 3.79165
435 5.1829
440 7.38384
445 6.59764
450 5.11026
455 4.68336
460 4.45454
465 4.45011
470 4.52332
475 4.61016
480 4.37842
485 4.14675
490 3.92559
495 3.74388
500 3.60891
505 3.32123
510 3.03617
515 2.82293
520 2.50328
525 2.36878
530 2.1951
535 1.92204
540 1.72086
545 1.45959
550 1.45544
555 1.26138
560 1.21184
565 0.995689
570 0.82193
575 0.787527
580 0.516616
585 0.415386
590 0.393965
595 0.330743
600 0.193279
Ex : 398
200 0.133662
205 0.132162
210 0.107444
215 0.209416
220 0.166238
225 0.174104
230 0.164234
235 0.216183
240 0.197817
245 0.148265
250 0.123003
255 0.259342
260 0.1581
265 0.199214
270 0.196353
275 0.142218
280 0.136425
285 0.151039
290 0.100283
295 0.111546
300 0.133081
305 0.148287
310 0.187116
315 0.136963
320 0.161421
325 0.122764
330 0.15828
335 0.250702
340 0.198712
345 0.12612
350 0.123532
355 0.159629
360 0.188447
365 0.19275
370 0.240011
375 0.283739
380 0.452504
385 4.8251
390 96.1747
395 164.469
400 45.7851
405 7.30317
410 3.12045
415 3.35679
420 3.39322
425 3.4111
430 3.19817
435 3.26497
440 4.3175
445 6.68544
450 6.27442
455 5.07991
460 4.63057
465 4.00218
470 4.04189
475 3.90541
480 3.97066
485 3.71282
490 3.58155
495 3.57691
500 3.31901
505 3.0033
510 2.92925
515 2.6341
520 2.20977
525 2.25199
530 1.83607
535 1.7432
540 1.6761
545 1.45573
550 1.2898
555 1.16374
560 1.00253
565 0.924189
570 0.837954
575 0.79168
580 0.527188
585 0.430726
590 0.376722
595 0.421249
600 0.519577
Ex : 403
200 0.183872
205 0.134571
210 0.130187
215 0.096263
220 0.10118
225 0.150556
230 0.134069
235 0.177104
240 0.141637
245 0.1422
250 0.134424
255 0.145863
260 0.0951101
265 0.113189
270 0.11743
275 0.147628
280 0.164995
285 0.150146
290 0.152667
295 0.147851
300 0.161144
305 0.156514
310 0.240562
315 0.178545
320 0.1742
325 0.136237
330 0.141446
335 0.173679
340 0.13244
345 0.204293
350 0.211005
355 0.191994
360 0.187134
365 0.214893
370 0.212699
375 0.228178
380 0.282537
385 0.352653
390 5.54978
395 98.7382
400 164.644
405 46.1442
410 7.19342
415 3.03427
420 2.6088
425 3.06653
430 2.98524
435 2.94243
440 3.13429
445 3.61159
450 5.55454
455 5.99197
460 4.8388
465 4.36319
470 4.15579
475 3.95753
480 3.74112
485 3.38612
490 3.33424
495 3.2644
500 3.12991
505 2.93375
510 2.61466
515 2.53415
520 2.18338
525 1.99453
530 1.94378
535 1.80709
540 1.58272
545 1.52595
550 1.29031
555 1.14925
560 1.11366
565 0.929642
570 0.717172
575 0.716922
580 0.527302
585 0.402426
590 0.407617
595 0.358194
600 0.0407611
Ex : 408
200 0.168217
205 0.171078
210 0.154046
215 0.176611
220 0.173294
225 0.131821
230 0.183276
235 0.219546
240 0.147652
245 0.152758
250 0.170633
255 0.187062
260 0.191641
265 0.176009
270 0.284311
275 0.172372
280 0.130688
285 0.233682
290 0.170538
295 0.11268
300 0.168825
305 0.118792
310 0.157811
315 0.172653
320 0.118868
325 0.126095
330 0.159281
335 0.200138
340 0.155904
345 0.162836
350 0.215095
355 0.14495
360 0.269912
365 0.167087
370 0.215502
375 0.22937
380 0.276937
385 0.303175
390 0.409432
395 5.09215
400 98.8123
405 164.46
410 45.0962
415 7.08518
420 2.62897
425 2.42996
430 2.85409
435 2.75511
440 2.57675
445 2.69638
450 2.94661
455 4.60775
460 5.82907
465 4.62699
470 4.07833
475 3.82172
480 3.30179
485 3.1012
490 3.11519
495 2.93195
500 2.63725
505 2.65312
510 2.53549
515 2.26068
520 1.9607
525 1.87757
530 1.84157
535 1.61743
540 1.39104
545 1.35772
550 1.25664
555 1.00669
560 1.07809
565 0.964775
570 0.744451
575 0.588542
580 0.544912
585 0.439588
590 0.437841
595 0.30714
600 0.226563
Ex : 413
200 0.136431
205 0.196376
210 0.163237
215 0.177393
220 0.16719
225 0.161861
230 0.15415
235 0.175242
240 0.131107
245 0.193774
250 0.141296
255 0.152597
260 0.159934
265 0.151579
270 0.175233
275 0.200945
280 0.149931
285 0.143258
290 0.213702
295 0.234976
300 0.152944
305 0.187613
310 0.200668
315 0.160584
320 0.109663
325 0.251509
330 0.177242
335 0.171572
340 0.177114
345 0.162564
350 0.194679
355 0.134981
360 0.1419
365 0.146609
370 0.128342
375 0.169661
380 0.163589
385 0.235681
390 0.252413
395 0.376141
400 5.83781
405 102.901
410 166.82
415 43.8889
420 6.46954
425 2.18573
430 1.9452
435 2.37089
440 2.33313
445 1.99751
450 2.04708
455 2.201
460 3.45135
465 5.30412
470 4.56764
475 3.63499
480 3.28001
485 2.93373
490 2.67888
495 2.57755
500 2.41184
505 2.5103
510 2.28666
515 2.10556
520 2.04197
525 2.1352
530 1.75029
535 1.51784
540 1.46773
545 1.34231
550 1.18395
555 0.959756
560 1.01752
565 0.868539
570 0.685484
575 0.638469
580 0.486392
585 0.485086
590 0.394986
595 0.288938
600 0.03288
Ex : 418
200 0.126431
205 0.236516
210 0.216399
215 0.139415
220 0.174657
225 0.128147
230 0.157154
235 0.100222
240 0.129234
245 0.138783
250 0.114812
255 0.176034
260 0.119022
265 0.189527
270 0.201464
275 0.15299
280 0.124645
285 0.112511
290 0.175196
295 0.125142
300 0.190487
305 0.185011
310 0.163152
315 0.169129
320 0.148741
325 0.172134
330 0.202592
335 0.201933
340 0.130197
345 0.120497
350 0.110919
355 0.281466
360 0.205777
365 0.216352
370 0.180055
375 0.198954
380 0.166145
385 0.168711
390 0.219546
395 0.261314
400 0.394195
405 5.38948
410 99.86
415 168.296
420 45.597
425 6.35845
430 1.93557
435 1.42131
440 2.03802
445 1.87164
450 1.55295
455 1.61266
460 1.82957
465 2.75758
470 4.50486
475 4.52391
480 3.21051
485 3.00284
490 2.66986
495 2.31628
500 2.29974
505 2.29775
510 2.08689
515 1.87899
520 1.83054
525 1.65015
530 1.53536
535 1.52361
540 1.32513
545 1.29361
550 1.08351
555 0.955959
560 0.819037
565 0.80815
570 0.755757
575 0.59579
580 0.387902
585 0.45377
590 0.357895
595 0.278212
600 0.24155
Ex : 423
200 0.179944
205 0.138393
210 0.253517
215 0.151288
220 0.181488
225 0.150473
230 0.143372
235 0.11297
240 0.157107
245 0.140156
250 0.138074
255 0.165531
260 0.151535
265 0.148485
270 0.105769
275 0.140978
280 0.143604
285 0.158173
290 0.136086
295 0.151724
300 0.127546
305 0.144485
310 0.161443
315 0.176736
320 0.147265
325 0.210185
330 0.141436
335 0.181955
340 0.129634
345 0.146849
350 0.263526
355 0.141517
360 0.134131
365 0.180899
370 0.150386
375 0.182151
380 0.188581
385 0.190817
390 0.212724
395 0.198772
400 0.330789
405 0.371912
410 6.02824
415 108.239
420 171.223
425 44.4865
430 6.11187
435 1.75153
440 1.27615
445 1.61114
450 1.65239
455 1.50999
460 1.50418
465 1.68603
470 2.01397
475 3.72791
480 4.3764
485 3.12865
490 2.87719
495 2.49387
500 2.14143
505 1.85203
510 2.04297
515 1.72155
520 1.69115
525 1.53498
530 1.51389
535 1.33446
540 1.32375
545 1.14398
550 1.03556
555 0.970407
560 0.821198
565 0.82256
570 0.635555
575 0.550827
580 0.540151
585 0.414209
590 0.340616
595 0.332937
600 0.388314
Ex : 428
200 0.13487
205 0.136168
210 0.144785
215 0.169905
220 0.119751
225 0.109307
230 0.148057
235 0.125588
240 0.180428
245 0.123897
250 0.127359
255 0.13716
260 0.147938
265 0.129005
270 0.168993
275 0.125754
280 0.145208
285 0.145217
290 0.150745
295 0.172102
300 0.125666
305 0.128011
310 0.153387
315 0.149
320 0.130428
325 0.11357
330 0.153348
335 0.136118
340 0.175502
345 0.138888
350 0.16444
355 0.149517
360 0.154495
365 0.186623
370 0.183523
375 0.174015
380 0.182026
385 0.164275
390 0.202428
395 0.222205
400 0.24275
405 0.242035
410 0.373494
415 6.50613
420 109.233
425 176.387
430 46.7251
435 6.27761
440 1.54595
445 1.28095
450 1.65338
455 1.53135
460 1.58009
465 1.29866
470 1.52993
475 1.78301
480 3.15376
485 4.2944
490 3.48527
495 2.66575
500 2.29282
505 1.92522
510 1.70986
515 1.69472
520 1.58811
525 1.49071
530 1.39096
535 1.24631
540 1.1818
545 1.06797
550 0.960577
555 0.922135
560 0.820975
565 0.832836
570 0.599343
575 0.586962
580 0.49051
585 0.409563
590 0.419675
595 0.316274
600 0.294715
Ex : 433
200 0.174014
205 0.147146
210 0.139476
215 0.177253
220 0.16179
225 0.195382
230 0.108553
235 0.167826
240 0.170186
245 0.15522
250 0.225212
255 0.168707
260 0.172544
265 0.128869
270 0.146995
275 0.159638
280 0.130969
285 0.15439
290 0.13522
295 0.178829
300 0.159854
305 0.131418
310 0.172085
315 0.101447
320 0.146038
325 0.178653
330 0.191731
335 0.142706
340 0.228954
345 0.247373
350 0.237395
355 0.15569
360 0.189284
365 0.15816
370 0.210498
375 0.160293
380 0.185158
385 0.176098
390 0.191498
395 0.22193
400 0.219602
405 0.252836
410 0.272042
415 0.401316
420 7.02562
425 118.291
430 182.544
435 47.1772
440 6.38441
445 1.60901
450 1.2017
455 1.43598
460 1.59901
465 1.42719
470 1.28013
475 1.44796
480 1.57946
485 2.39806
490 4.13546
495 3.66031
500 2.49814
505 2.38494
510 2.00361
515 1.63923
520 1.44841
525 1.4211
530 1.26565
535 1.20076
540 1.14906
545 1.13737
550 1.21105
555 0.901314
560 0.788276
565 0.702785
570 0.623212
575 0.573665
580 0.484325
585 0.361077
590 0.351823
595 0.354687
600 0.193053
Ex : 438
200 0.154307
205 0.247554
210 0.136605
215 0.153343
220 0.173441
225 0.116085
230 0.161682
235 0.147033
240 0.12662
245 0.192788
250 0.172377
255 0.161892
260 0.13707
265 0.160711
270 0.168166
275 0.176087
280 0.140269
285 0.139415
290 0.155937
295 0.199348
300 0.184942
305 0.118784
310 0.0904926
315 0.166335
320 0.167379
325 0.200295
330 0.153812
335 0.17883
340 0.125911
345 0.170425
350 0.151135
355 0.172802
360 0.170231
365 0.152805
370 0.242896
375 0.202641
380 0.156364
385 0.151134
390 0.19338
395 0.155103
400 0.191797
405 0.229287
410 0.199616
415 0.281353
420 0.364352
425 6.94082
430 119.88
435 195.527
440 50.454
445 6.64887
450 1.84605
455 1.05623
460 1.41923
465 1.42459
470 1.49922
475 1.27875
480 1.3091
485 1.43775
490 1.90647
495 3.5301
500 3.65929
505 2.50697
510 2.25174
515 1.92195
520 1.35468
525 1.37332
530 1.29083
535 1.22256
540 1.206
545 1.0278
550 0.895337
555 0.860606
560 0.862112
565 0.736863
570 0.782199
575 0.568839
580 0.449376
585 0.391017
590 0.318432
595 0.339567
600 0.540432
Ex : 443
200 0.13578
205 0.143909
210 0.168768
215 0.216163
220 0.124739
225 0.176709
230 0.135416
235 0.138529
240 0.117352
245 0.201022
250 0.148765
255 0.145573
260 0.203052
265 0.19045
270 0.216247
275 0.187562
280 0.187556
285 0.171624
290 0.155525
295 0.173648
300 0.183042
305 0.133165
310 0.150921
315 0.155928
320 0.160252
325 0.145388
330 0.208049
335 0.204335
340 0.129705
345 0.142071
350 0.161586
355 0.172045
360 0.135685
365 0.177691
370 0.175494
375 0.141397
380 0.198439
385 0.151114
390 0.215592
395 0.157109
400 0.140445
405 0.208607
410 0.186416
415 0.226502
420 0.277884
425 0.442549
430 7.83374
435 131.831
440 200.494
445 50.0949
450 6.66484
455 1.80285
460 1.17861
465 1.39525
470 1.6294
475 1.56506
480 1.33074
485 1.3607
490 1.50605
495 1.61719
500 2.92621
505 3.75074
510 2.61587
515 1.99764
520 1.85295
525 1.53399
530 1.357
535 1.24247
540 1.05892
545 1.13399
550 0.942608
555 0.890549
560 0.741865
565 0.706749
570 0.573478
575 0.487605
580 0.438533
585 0.344973
590 0.301268
595 0.370721
600 0.0421866
Ex : 448
200 0.131405
205 0.180489
210 0.149773
215 0.232874
220 0.164155
225 0.167657
230 0.161948
235 0.193269
240 0.213236
245 0.187921
250 0.13123
255 0.139842
260 0.196941
265 0.150781
270 0.213636
275 0.211938
280 0.151881
285 0.1764
290 0.157655
295 0.166182
300 0.242308
305 0.176557
310 0.136947
315 0.145219
320 0.14095
325 0.192362
330 0.153447
335 0.16154
340 0.16464
345 0.159299
350 0.172954
355 0.106191
360 0.131855
365 0.218393
370 0.142876
375 0.161867
380 0.156845
385 0.206725
390 0.150982
395 0.229998
400 0.265768
405 0.275666
410 0.23364
415 0.206838
420 0.249897
425 0.280583
430 0.383916
435 8.38373
440 140.862
445 214.8
450 54.7734
455 7.27679
460 1.89258
465 1.12826
470 1.23588
475 1.619
480 1.57721
485 1.27769
490 1.26502
495 1.28383
500 1.47423
505 2.40886
510 3.50425
515 2.8615
520 1.8677
525 1.67909
530 1.58791
535 1.26201
540 1.16495
545 0.998769
550 0.908585
555 0.815771
560 0.779869
565 0.782071
570 0.623888
575 0.59898
580 0.512824
585 0.455646
590 0.433902
595 0.340567
600 0.656144
Ex : 453
200 0.10907
205 0.166021
210 0.16387
215 0.166293
220 0.148078
225 0.125006
230 0.104646
235 0.0976764
240 0.149913
245 0.147384
250 0.148969
255 0.123109
260 0.142928
265 0.132415
270 0.159921
275 0.169252
280 0.178686
285 0.139758
290 0.149689
295 0.145398
300 0.156852
305 0.163321
310 0.144104
315 0.166871
320 0.18208
325 0.124857
330 0.163915
335 0.185199
340 0.151425
345 0.129425
350 0.193592
355 0.199284
360 0.154401
365 0.202791
370 0.14671
375 0.179255
380 0.164731
385 0.132098
390 0.15238
395 0.143194
400 0.165845
405 0.222551
410 0.216676
415 0.235915
420 0.24069
425 0.231572
430 0.424852
435 0.451416
440 8.73555
445 154.231
450 227.577
455 53.8124
460 7.29979
465 1.86963
470 1.24285
475 1.31042
480 1.63317
485 1.47284
490 1.3301
495 1.27922
500 1.08687
505 1.19053
510 1.95245
515 3.20237
520 3.12093
525 1.95136
530 1.73798
535 1.54109
540 1.24657
545 1.18044
550 1.04858
555 1.02451
560 0.862258
565 0.793961
570 0.804155
575 0.586134
580 0.522021
585 0.421629
590 0.358308
595 0.301465
600 0.211546
Ex : 458
200 0.170144
205 0.223626
210 0.108296
215 0.153619
220 0.172969
225 0.167948
230 0.162032
235 0.185716
240 0.168018
245 0.185054
250 0.21894
255 0.184399
260 0.145533
265 0.189919
270 0.176801
275 0.162701
280 0.158685
285 0.140609
290 0.150838
295 0.173867
300 0.174561
305 0.154067
310 0.167791
315 0.136544
320 0.132523
325 0.179641
330 0.15529
335 0.244106
340 0.180683
345 0.21257
350 0.197997
355 0.1794
360 0.175168
365 0.20978
370 0.213328
375 0.154234
380 0.22313
385 0.204828
390 0.176204
395 0.173005
400 0.19394
405 0.167552
410 0.165307
415 0.247071
420 0.244472
425 0.270558
430 0.284329
435 0.30272
440 0.475441
445 9.95759
450 157.033
455 236.616
460 58.3127
465 7.73734
470 1.95409
475 1.20701
480 1.25553
485 1.52709
490 1.62072
495 1.26622
500 1.22365
505 1.15788
510 1.27578
515 1.53585
520 2.62992
525 3.35234
530 2.34248
535 1.70435
540 1.46984
545 1.20684
550 0.959
555 0.905111
560 0.814292
565 0.798929
570 0.710007
575 0.638396
580 0.440834
585 0.446991
590 0.357455
595 0.282947
600 0.225604
Ex : 463
200 0.129477
205 0.129064
210 0.172221
215 0.188973
220 0.127709
225 0.168352
230 0.174549
235 0.167142
240 0.114527
245 0.18805
250 0.125308
255 0.159146
260 0.210001
265 0.160986
270 0.18653
275 0.153808
280 0.174602
285 0.22978
290 0.189246
295 0.149627
300 0.226967
305 0.217209
310 0.173269
315 0.133989
320 0.184835
325 0.126101
330 0.196514
335 0.186213
340 0.1646
345 0.138643
350 0.144371
355 0.12201
360 0.203157
365 0.171723
370 0.200488
375 0.212016
380 0.171212
385 0.15412
390 0.216249
395 0.174776
400 0.194897
405 0.191433
410 0.135107
415 0.16547
420 0.190366
425 0.229151
430 0.246765
435 0.266814
440 0.344648
445 0.469517
450 9.81153
455 168.633
460 256.159
465 63.35
470 8.23921
475 2.07129
480 1.15251
485 1.28963
490 1.50566
495 1.52184
500 1.38858
505 1.16844
510 1.14859
515 1.15642
520 1.22092
525 1.87379
530 3.10834
535 2.64445
540 1.74832
545 1.48711
550 1.26466
555 1.07609
560 0.876388
565 0.728959
570 0.786256
575 0.715822
580 0.448427
585 0.453684
590 0.341653
595 0.332898
600 0.167967
Ex : 468
200 0.182737
205 0.172891
210 0.143974
215 0.125166
220 0.149887
225 0.169386
230 0.152241
235 0.137501
240 0.14827
245 0.164429
250 0.150948
255 0.137813
260 0.205538
265 0.157948
270 0.154366
275 0.160491
280 0.12696
285 0.159071
290 0.204303
295 0.138137
300 0.172713
305 0.116902
310 0.150436
315 0.13398
320 0.148267
325 0.210775
330 0.153953
335 0.146436
340 0.142032
345 0.119199
350 0.144626
355 0.182719
360 0.161088
365 0.129754
370 0.203448
375 0.172989
380 0.199867
385 0.167512
390 0.166956
395 0.208784
400 0.147698
405 0.208314
410 0.199863
415 0.17749
420 0.155988
425 0.170676
430 0.169511
435 0.248227
440 0.209856
445 0.273251
450 0.411557
455 10.5268
460 170.473
465 268.084
470 65.3429
475 8.42448
480 1.98747
485 1.21777
490 1.14317
495 1.5165
500 1.55822
505 1.31327
510 1.14846
515 1.05744
520 1.2516
525 1.23254
530 1.63995
535 2.63278
540 2.87906
545 1.91158
550 1.49742
555 1.23855
560 0.990137
565 0.826034
570 0.761445
575 0.628086
580 0.515446
585 0.487187
590 0.348802
595 0.371114
600 0.464808
Ex : 473
200 0.198015
205 0.189729
210 0.111847
215 0.107013
220 0.116357
225 0.131712
230 0.123815
235 0.143379
240 0.141421
245 0.162128
250 0.158744
255 0.157708
260 0.175324
265 0.198362
270 0.205303
275 0.230376
280 0.190614
285 0.163442
290 0.155279
295 0.141351
300 0.14696
305 0.181656
310 0.14417
315 0.146969
320 0.139899
325 0.202883
330 0.155394
335 0.161655
340 0.211622
345 0.267162
350 0.172787
355 0.211193
360 0.183002
365 0.178168
370 0.170242
375 0.196135
380 0.24709
385 0.172885
390 0.23201
395 0.194689
400 0.154127
405 0.16002
410 0.164425
415 0.163939
420 0.223725
425 0.2012
430 0.219031
435 0.243633
440 0.264259
445 0.23636
450 0.285393
455 0.400129
460 12.3613
465 186.617
470 266.277
475 62.5152
480 8.24711
485 2.02941
490 1.25599
495 1.22605
500 1.45033
505 1.42723
510 1.1959
515 1.11788
520 1.17405
525 1.09973
530 1.224
535 1.30625
540 2.35819
545 2.86788
550 2.03157
555 1.34576
560 1.33253
565 1.02597
570 0.809694
575 0.630832
580 0.523418
585 0.444776
590 0.362286
595 0.340216
600 0.139186
Ex : 478
200 0.186394
205 0.21774
210 0.182274
215 0.157339
220 0.131877
225 0.173938
230 0.206996
235 0.169648
240 0.181134
245 0.147458
250 0.142139
255 0.177289
260 0.216483
265 0.218075
270 0.224845
275 0.20302
280 0.252479
285 0.253496
290 0.179542
295 0.220611
300 0.218153
305 0.184827
310 0.22949
315 0.214999
320 0.152263
325 0.192275
330 0.202047
335 0.184601
340 0.175347
345 0.195694
350 0.216284
355 0.198389
360 0.221122
365 0.178743
370 0.193846
375 0.258197
380 0.250263
385 0.198506
390 0.200644
395 0.161381
400 0.209832
405 0.160702
410 0.224475
415 0.223322
420 0.231549
425 0.238839
430 0.239131
435 0.214658
440 0.203074
445 0.247185
450 0.278289
455 0.306377
460 0.469042
465 13.2581
470 193.211
475 271.762
480 65.9134
485 8.60169
490 2.08293
495 1.22372
500 1.10793
505 1.30667
510 1.53022
515 1.2799
520 1.14292
525 1.14323
530 1.22217
535 1.15763
540 1.29713
545 1.88062
550 2.69672
555 2.15998
560 1.26706
565 1.01945
570 0.970563
575 0.722752
580 0.567713
585 0.504586
590 0.465918
595 0.354442
600 0.349116
Ex : 483
200 0.225894
205 0.165652
210 0.201681
215 0.194216
220 0.240548
225 0.263128
230 0.156501
235 0.178199
240 0.170937
245 0.184885
250 0.19581
255 0.193382
260 0.157849
265 0.20355
270 0.212013
275 0.210544
280 0.173061
285 0.180935
290 0.209466
295 0.188337
300 0.210476
305 0.244577
310 0.237989
315 0.218615
320 0.20579
325 0.177795
330 0.149664
335 0.188856
340 0.187017
345 0.186926
350 0.23301
355 0.204629
360 0.179658
365 0.237761
370 0.157178
375 0.196318
380 0.213507
385 0.173594
390 0.203324
395 0.206127
400 0.177489
405 0.212765
410 0.181089
415 0.20055
420 0.230917
425 0.192524
430 0.199372
435 0.315022
440 0.280917
445 0.314182
450 0.235794
455 0.327788
460 0.414543
465 0.588199
470 10.9057
475 189.989
480 292.456
485 71.3598
490 9.36067
495 2.01472
500 1.21645
505 1.13067
510 1.19382
515 1.35566
520 1.43659
525 1.29667
530 1.18712
535 1.13753
540 1.02373
545 1.02517
550 1.22203
555 2.06342
560 2.31268
565 1.51346
570 0.989061
575 0.995879
580 0.753825
585 0.549205
590 0.430005
595 0.336883
600 0.232193
Ex : 488
200 0.21965
205 0.214577
210 0.19624
215 0.179535
220 0.21628
225 0.171634
230 0.180793
235 0.200712
240 0.185001
245 0.234824
250 0.162529
255 0.205322
260 0.167498
265 0.186158
270 0.24615
275 0.203496
280 0.231307
285 0.219373
290 0.206342
295 0.18871
300 0.170383
305 0.237049
310 0.222954
315 0.172227
320 0.234193
325 0.207483
330 0.214019
335 0.245149
340 0.276989
345 0.243497
350 0.226889
355 0.201267
360 0.188107
365 0.221161
370 0.240272
375 0.24359
380 0.205823
385 0.18518
390 0.188826
395 0.207266
400 0.239334
405 0.217235
410 0.256576
415 0.256312
420 0.216814
425 0.216021
430 0.232942
435 0.240759
440 0.203953
445 0.239539
450 0.271369
455 0.298676
460 0.302343
465 0.396821
470 0.599692
475 13.2915
480 205.87
485 287.378
490 68.4286
495 8.74214
500 1.98772
505 1.0708
510 0.938344
515 1.30904
520 1.313
525 1.30865
530 1.18384
535 1.09336
540 1.03857
545 0.991932
550 1.09855
555 0.932338
560 1.75563
565 2.0757
570 1.54386
575 1.03191
580 0.693308
585 0.657
590 0.421649
595 0.404411
600 0.397796
Ex : 493
200 0.165226
205 0.310604
210 0.255489
215 0.226501
220 0.143118
225 0.181796
230 0.195945
235 0.253212
240 0.224309
245 0.209527
250 0.285353
255 0.251596
260 0.179686
265 0.178204
270 0.198162
275 0.279036
280 0.229667
285 0.257636
290 0.231442
295 0.179754
300 0.271978
305 0.204305
310 0.267113
315 0.238518
320 0.179945
325 0.300044
330 0.238023
335 0.153801
340 0.168605
345 0.235344
350 0.212778
355 0.211774
360 0.184868
365 0.152047
370 0.314657
375 0.261489
380 0.18911
385 0.239067
390 0.23374
395 0.301923
400 0.210938
405 0.244949
410 0.299156
415 0.208706
420 0.176827
425 0.242981
430 0.195508
435 0.279169
440 0.224093
445 0.215631
450 0.233213
455 0.253756
460 0.293975
465 0.322233
470 0.395895
475 0.562299
480 12.4178
485 205.725
490 309.263
495 72.0465
500 9.24417
505 2.03082
510 1.28126
515 1.11595
520 1.21709
525 1.43108
530 1.32532
535 1.25277
540 1.17578
545 1.08666
550 1.00283
555 0.944606
560 0.918647
565 1.17683
570 1.72769
575 1.56163
580 0.879105
585 0.614355
590 0.532244
595 0.54419
600 0.446506
Ex : 498
200 0.213827
205 0.204986
210 0.334129
215 0.248055
220 0.214301
225 0.270308
230 0.201723
235 0.193181
240 0.199919
245 0.192748
250 0.21838
255 0.23905
260 0.236676
265 0.290629
270 0.328148
275 0.181985
280 0.194284
285 0.15484
290 0.199528
295 0.21656
300 0.234497
305 0.199449
310 0.18461
315 0.234358
320 0.225684
325 0.250455
330 0.218916
335 0.258859
340 0.269906
345 0.315812
350 0.190959
355 0.317013
360 0.232072
365 0.216259
370 0.274446
375 0.246141
380 0.224143
385 0.234244
390 0.210302
395 0.25906
400 0.275059
405 0.285553
410 0.292688
415 0.20711
420 0.227933
425 0.229183
430 0.266109
435 0.301687
440 0.264412
445 0.262834
450 0.294411
455 0.341759
460 0.37878
465 0.325187
470 0.370687
475 0.511542
480 0.520656
485 14.9595
490 216.651
495 302.555
500 71.1006
505 8.95585
510 1.92714
515 1.2689
520 1.14231
525 1.23977
530 1.34353
535 1.41484
540 1.30156
545 1.02464
550 0.958036
555 0.838632
560 0.845831
565 0.768367
570 0.988573
575 1.53836
580 1.52027
585 0.909213
590 0.59101
595 0.589428
600 0.245805
Ex : 503
200 0.165048
205 0.22078
210 0.286098
215 0.308053
220 0.218816
225 0.202929
230 0.216514
235 0.271696
240 0.244298
245 0.225526
250 0.16067
255 0.30697
260 0.293334
265 0.304186
270 0.24006
275 0.212746
280 0.307252
285 0.255576
290 0.236868
295 0.222261
300 0.221279
305 0.319546
310 0.252661
315 0.289117
320 0.282707
325 0.231339
330 0.271231
335 0.292402
340 0.358268
345 0.25049
350 0.307899
355 0.294185
360 0.215212
365 0.276389
370 0.262379
375 0.269147
380 0.240375
385 0.27196
390 0.300776
395 0.203428
400 0.369177
405 0.296014
410 0.331809
415 0.228211
420 0.291363
425 0.264059
430 0.327566
435 0.311334
440 0.243733
445 0.291417
450 0.280579
455 0.232036
460 0.341439
465 0.309233
470 0.348299
475 0.358796
480 0.514359
485 0.688213
490 13.0098
495 212.995
500 300.39
505 69.7047
510 8.88269
515 1.91383
520 1.37669
525 1.29868
530 1.22579
535 1.40696
540 1.26793
545 1.28495
550 1.05619
555 0.796855
560 0.860391
565 0.727538
570 0.727662
575 0.660642
580 0.986139
585 1.35452
590 0.838839
595 0.556034
600 0.0632745
Ex : 508
200 0.254612
205 0.235196
210 0.237288
215 0.184821
220 0.239271
225 0.21042
230 0.225762
235 0.173311
240 0.260928
245 0.387098
250 0.276043
255 0.284462
260 0.262579
265 0.268805
270 0.282935
275 0.198965
280 0.301321
285 0.225103
290 0.216655
295 0.298533
300 0.188271
305 0.205865
310 0.34037
315 0.256543
320 0.289045
325 0.231306
330 0.301718
335 0.279144
340 0.270109
345 0.226058
350 0.227494
355 0.304456
360 0.276347
365 0.272849
370 0.228091
375 0.303804
380 0.313746
385 0.263614
390 0.267597
395 0.235072
400 0.256245
405 0.2132
410 0.240122
415 0.203713
420 0.304372
425 0.228052
430 0.330505
435 0.275866
440 0.265622
445 0.36729
450 0.279463
455 0.343829
460 0.322499
465 0.302386
470 0.312437
475 0.365893
480 0.336264
485 0.480452
490 0.601657
495 14.5083
500 216.698
505 306.052
510 74.6828
515 9.72158
520 2.17263
525 1.4144
530 1.13932
535 1.02798
540 1.33872
545 1.19684
550 1.06679
555 0.794136
560 0.798907
565 0.863217
570 0.777124
575 0.597946
580 0.480139
585 0.644506
590 0.959643
595 0.971521
600 0.92057
Ex : 513
200 0.231314
205 0.237673
210 0.266665
215 0.244496
220 0.259028
225 0.27527
230 0.247819
235 0.178267
240 0.234806
245 0.310009
250 0.269334
255 0.257863
260 0.177724
265 0.216918
270 0.259117
275 0.270917
280 0.333165
285 0.338824
290 0.256586
295 0.181253
300 0.226529
305 0.272509
310 0.255831
315 0.223483
320 0.296389
325 0.244569
330 0.238737
335 0.258269
340 0.262953
345 0.290565
350 0.297963
355 0.209545
360 0.382502
365 0.207881
370 0.238996
375 0.219475
380 0.279919
385 0.260513
390 0.240923
395 0.300613
400 0.32571
405 0.327289
410 0.318388
415 0.347544
420 0.283995
425 0.359139
430 0.337936
435 0.399971
440 0.374563
445 0.316157
450 0.340206
455 0.293258
460 0.388012
465 0.296986
470 0.341778
475 0.359786
480 0.420942
485 0.401668
490 0.508368
495 0.523992
500 13.1331
505 213.57
510 307.629
515 76.0164
520 9.81535
525 2.06313
530 1.34626
535 1.0919
540 1.10618
545 1.04187
550 1.14636
555 1.08426
560 0.977126
565 0.738293
570 0.716481
575 0.627933
580 0.60697
585 0.632757
590 0.585446
595 0.730904
600 0.891425
Ex : 518
200 0.218992
205 0.254439
210 0.235157
215 0.388135
220 0.281903
225 0.273974
230 0.284466
235 0.283384
240 0.353497
245 0.223526
250 0.360614
255 0.333091
260 0.253273
265 0.262568
270 0.261876
275 0.273006
280 0.236982
285 0.281536
290 0.35329
295 0.31826
300 0.300326
305 0.312746
310 0.285405
315 0.238875
320 0.306583
325 0.316077
330 0.343978
335 0.305147
340 0.235963
345 0.275436
350 0.374387
355 0.23066
360 0.334895
365 0.325117
370 0.29593
375 0.247121
380 0.311873
385 0.299678
390 0.298425
395 0.283367
400 0.275965
405 0.376231
410 0.288998
415 0.2924
420 0.265203
425 0.299619
430 0.315154
435 0.218836
440 0.377311
445 0.321645
450 0.280773
455 0.386432
460 0.347997
465 0.351303
470 0.376338
475 0.302816
480 0.375504
485 0.434378
490 0.454692
495 0.444324
500 0.636028
505 13.5594
510 206.257
515 311.861
520 77.2512
525 10.0101
530 2.11223
535 1.09657
540 1.00033
545 0.965485
550 1.09282
555 1.09052
560 1.09648
565 0.97325
570 0.612342
575 0.523567
580 0.469051
585 0.592504
590 0.485006
595 0.438487
600 0.42483
Ex : 523
200 0.290803
205 0.147646
210 0.282852
215 0.247104
220 0.283144
225 0.284141
230 0.288634
235 0.328002
240 0.334435
245 0.315068
250 0.321372
255 0.226345
260 0.282643
265 0.221684
270 0.235571
275 0.26773
280 0.243198
285 0.224458
290 0.353446
295 0.249754
300 0.302645
305 0.336184
310 0.254394
315 0.267651
320 0.279317
325 0.321126
330 0.197661
335 0.265984
340 0.211077
345 0.303929
350 0.324304
355 0.245355
360 0.29716
365 0.302936
370 0.241765
375 0.33127
380 0.330062
385 0.286909
390 0.320069
395 0.314474
400 0.329409
405 0.235305
410 0.224965
415 0.24032
420 0.316975
425 0.341817
430 0.290806
435 0.307605
440 0.273988
445 0.341953
450 0.282687
455 0.413613
460 0.335506
465 0.332214
470 0.251871
475 0.244449
480 0.338795
485 0.409608
490 0.353012
495 0.531725
500 0.543921
505 0.803322
510 12.433
515 199.832
520 303.856
525 78.9325
530 10.0627
535 2.09196
540 1.17717
545 0.974591
550 0.877927
555 0.865277
560 0.993776
565 0.789668
570 0.745734
575 0.667056
580 0.520269
585 0.498145
590 0.507168
595 0.386205
600 1.18461
Ex : 528
200 0.219677
205 0.42167
210 0.364593
215 0.369369
220 0.237054
225 0.2098
230 0.27123
235 0.256585
240 0.448723
245 0.273776
250 0.311788
255 0.263025
260 0.255153
265 0.19853
270 0.264852
275 0.340429
280 0.285255
285 0.340814
290 0.302989
295 0.247155
300 0.250241
305 0.24639
310 0.289879
315 0.274157
320 0.247669
325 0.250649
330 0.347187
335 0.323746
340 0.339032
345 0.306452
350 0.320319
355 0.278065
360 0.352934
365 0.234526
370 0.275663
375 0.281574
380 0.414519
385 0.261209
390 0.391328
395 0.229602
400 0.195622
405 0.25561
410 0.228221
415 0.305376
420 0.277355
425 0.302401
430 0.288732
435 0.252848
440 0.319052
445 0.233708
450 0.299858
455 0.280213
460 0.235836
465 0.23002
470 0.318509
475 0.278232
480 0.231309
485 0.298776
490 0.300161
495 0.322787
500 0.422698
505 0.465341
510 0.640803
515 11.488
520 194.391
525 297.634
530 75.9958
535 9.60782
540 1.92341
545 1.05444
550 0.958096
555 0.632258
560 0.722119
565 0.670926
570 0.792518
575 0.721935
580 0.556044
585 0.493434
590 0.383586
595 0.37884
600 0.119585
Ex : 533
200 0.270973
205 0.228793
210 0.261651
215 0.347098
220 0.323652
225 0.359831
230 0.330056
235 0.284965
240 0.256378
245 0.299876
250 0.323148
255 0.231784
260 0.276825
265 0.289221
270 0.287494
275 0.282762
280 0.233502
285 0.343009
290 0.252356
295 0.248911
300 0.238306
305 0.31477
310 0.30439
315 0.20381
320 0.333109
325 0.220524
330 0.282095
335 0.247607
340 0.288746
345 0.418004
350 0.291614
355 0.36861
360 0.359494
365 0.307116
370 0.266951
375 0.236368
380 0.35152
385 0.280403
390 0.380972
395 0.225787
400 0.243865
405 0.263605
410 0.316632
415 0.268486
420 0.284073
425 0.344217
430 0.306034
435 0.249492
440 0.242122
445 0.365632
450 0.350074
455 0.341679
460 0.36436
465 0.308447
470 0.282773
475 0.291928
480 0.315903
485 0.320123
490 0.33157
495 0.398732
500 0.389904
505 0.467012
510 0.604669
515 0.559237
520 11.0637
525 188.539
530 296.848
535 77.7417
540 9.76816
545 1.8411
550 1.03282
555 0.633717
560 0.763331
565 0.741081
570 0.782492
575 0.74306
580 0.631576
585 0.381708
590 0.428322
595 0.468997
600 0.0533701
Ex : 538
200 0.357345
205 0.268532
210 0.320763
215 0.432122
220 0.325295
225 0.297605
230 0.29074
235 0.260152
240 0.254426
245 0.323056
250 0.329579
255 0.388165
260 0.277715
265 0.319373
270 0.256027
275 0.331185
280 0.311102
285 0.262868
290 0.326614
295 0.349885
300 0.334453
305 0.28805
310 0.235232
315 0.302235
320 0.303386
325 0.236138
330 0.352857
335 0.392982
340 0.326517
345 0.304741
350 0.345723
355 0.327668
360 0.267863
365 0.268166
370 0.338811
375 0.268605
380 0.315032
385 0.299436
390 0.320942
395 0.337653
400 0.293065
405 0.256103
410 0.194863
415 0.319902
420 0.275754
425 0.25694
430 0.283678
435 0.345174
440 0.285694
445 0.265079
450 0.224664
455 0.326646
460 0.302723
465 0.358192
470 0.339588
475 0.413996
480 0.317494
485 0.411071
490 0.361046
495 0.320296
500 0.422147
505 0.320885
510 0.413565
515 0.521512
520 0.641375
525 9.65357
530 176.154
535 287.66
540 77.9483
545 9.91661
550 1.90176
555 0.83852
560 0.768981
565 0.599691
570 0.668818
575 0.568622
580 0.522548
585 0.520414
590 0.62244
595 0.460587
600 0.0905294
Ex : 543
200 0.181413
205 0.285744
210 0.285401
215 0.280184
220 0.295563
225 0.305101
230 0.314368
235 0.294318
240 0.318394
245 0.392639
250 0.263534
255 0.304087
260 0.300407
265 0.259668
270 0.278021
275 0.297032
280 0.282459
285 0.387405
290 0.323512
295 0.274614
300 0.300161
305 0.284824
310 0.262398
315 0.335066
320 0.297208
325 0.373613
330 0.273002
335 0.298459
340 0.247509
345 0.346438
350 0.373173
355 0.285022
360 0.267531
365 0.32413
370 0.330835
375 0.31524
380 0.392795
385 0.368754
390 0.275174
395 0.344794
400 0.301379
405 0.396071
410 0.313461
415 0.259737
420 0.230158
425 0.311995
430 0.307189
435 0.408083
440 0.33058
445 0.340831
450 0.301694
455 0.256821
460 0.265334
465 0.250195
470 0.245955
475 0.344163
480 0.331688
485 0.293588
490 0.275358
495 0.368434
500 0.313049
505 0.384547
510 0.417651
515 0.429459
520 0.517019
525 0.548918
530 8.79987
535 169.519
540 289.482
545 81.9009
550 10.2869
555 1.92853
560 0.836697
565 0.787596
570 0.599697
575 0.478008
580 0.6338
585 0.651416
590 0.461865
595 0.42284
600 0.0481176
Ex : 548
200 0.340845
205 0.31878
210 0.245099
215 0.284751
220 0.244
225 0.394637
230 0.294801
235 0.278604
240 0.342383
245 0.315036
250 0.293026
255 0.248573
260 0.248723
265 0.361802
270 0.275521
275 0.254325
280 0.402776
285 0.275751
290 0.29173
295 0.277962
300 0.218547
305 0.299903
310 0.254049
315 0.306217
320 0.335898
325 0.330333
330 0.277495
335 0.284058
340 0.327082
345 0.348616
350 0.270552
355 0.294676
360 0.194507
365 0.255034
370 0.299593
375 0.296645
380 0.494772
385 0.35049
390 0.499568
395 0.345978
400 0.226041
405 0.287085
410 0.338157
415 0.27761
420 0.282342
425 0.328653
430 0.407349
435 0.337558
440 0.321955
445 0.26136
450 0.334614
455 0.378962
460 0.313242
465 0.341629
470 0.324448
475 0.300873
480 0.254012
485 0.424189
490 0.398333
495 0.361103
500 0.337421
505 0.360128
510 0.293285
515 0.446035
520 0.351145
525 0.504351
530 0.59878
535 9.68083
540 173.179
545 282.634
550 80.7594
555 10.2227
560 1.8288
565 0.695132
570 0.686586
575 0.565688
580 0.559775
585 0.551732
590 0.493465
595 0.453097
600 0.383887
Ex : 553
200 0.238988
205 0.307148
210 0.272899
215 0.272353
220 0.322675
225 0.340689
230 0.308947
235 0.255372
240 0.330921
245 0.296211
250 0.320235
255 0.322578
260 0.288613
265 0.234627
270 0.30042
275 0.240407
280 0.277011
285 0.278656
290 0.31214
295 0.341666
300 0.37884
305 0.305067
310 0.330405
315 0.321458
320 0.19815
325 0.421284
330 0.403248
335 0.333637
340 0.393717
345 0.378907
350 0.316707
355 0.360932
360 0.330619
365 0.367376
370 0.363394
375 0.380583
380 0.42219
385 0.497874
390 0.325229
395 0.406656
400 0.367436
405 0.326976
410 0.272298
415 0.301567
420 0.27855
425 0.288322
430 0.35149
435 0.353909
440 0.451889
445 0.349482
450 0.296273
455 0.37536
460 0.284294
465 0.372559
470 0.347211
475 0.35091
480 0.368046
485 0.405653
490 0.312308
495 0.443012
500 0.226507
505 0.389863
510 0.290828
515 0.398141
520 0.420602
525 0.437907
530 0.427129
535 0.547243
540 8.41533
545 162.484
550 276.604
555 78.6847
560 9.90294
565 1.70294
570 0.698086
575 0.610593
580 0.510604
585 0.463191
590 0.465775
595 0.389474
600 0.339722
Ex : 558
200 0.337011
205 0.282133
210 0.317355
215 0.261279
220 0.281985
225 0.295534
230 0.328731
235 0.405683
240 0.343485
245 0.308807
250 0.292881
255 0.31518
260 0.320595
265 0.392371
270 0.319326
275 0.368761
280 0.352103
285 0.351766
290 0.317353
295 0.35728
300 0.375291
305 0.294112
310 0.288824
315 0.275288
320 0.366328
325 0.371017
330 0.308819
335 0.395979
340 0.361836
345 0.410087
350 0.333232
355 0.368228
360 0.310115
365 0.319515
370 0.329923
375 0.30819
380 0.330344
385 0.338901
390 0.474681
395 0.262191
400 0.29502
405 0.38392
410 0.290592
415 0.371862
420 0.374691
425 0.382876
430 0.322021
435 0.351913
440 0.347745
445 0.267635
450 0.326494
455 0.320477
460 0.345027
465 0.306673
470 0.312755
475 0.305901
480 0.315266
485 0.352872
490 0.510704
495 0.346918
500 0.387286
505 0.393505
510 0.501343
515 0.440119
520 0.448646
525 0.434803
530 0.3954
535 0.497242
540 0.622877
545 7.94735
550 153.977
555 270.755
560 77.9084
565 9.73233
570 1.59333
575 0.813169
580 0.651555
585 0.530254
590 0.472276
595 0.365929
600 0.230418
Ex : 563
200 0.330173
205 0.332315
210 0.307536
215 0.341003
220 0.331116
225 0.424975
230 0.356421
235 0.285016
240 0.352973
245 0.336142
250 0.391858
255 0.42684
260 0.412123
265 0.295585
270 0.272626
275 0.334039
280 0.467775
285 0.332057
290 0.327918
295 0.423001
300 0.381334
305 0.355287
310 0.292746
315 0.318654
320 0.269937
325 0.376254
330 0.319357
335 0.382383
340 0.309085
345 0.299868
350 0.353247
355 0.364184
360 0.342681
365 0.29001
370 0.299312
375 0.381793
380 0.303567
385 0.330918
390 0.376933
395 0.353835
400 0.402224
405 0.287464
410 0.368332
415 0.411727
420 0.447534
425 0.458827
430 0.343169
435 0.285724
440 0.312333
445 0.337029
450 0.324638
455 0.410359
460 0.263848
465 0.340209
470 0.296893
475 0.283005
480 0.377667
485 0.427188
490 0.31782
495 0.363338
500 0.360976
505 0.453596
510 0.395696
515 0.353549
520 0.410444
525 0.416477
530 0.363819
535 0.348103
540 0.468156
545 0.550938
550 7.65738
555 151.532
560 261.311
565 75.7363
570 9.40522
575 1.56859
580 0.737762
585 0.574546
590 0.531139
595 0.403343
600 0.31176
Ex : 568
200 0.458012
205 0.354146
210 0.414248
215 0.396456
220 0.40127
225 0.286513
230 0.280928
235 0.284161
240 0.313265
245 0.410659
250 0.328582
255 0.265944
260 0.433404
265 0.385728
270 0.358907
275 0.397945
280 0.397777
285 0.292285
290 0.273269
295 0.342998
300 0.324979
305 0.391517
310 0.291126
315 0.365814
320 0.275277
325 0.321688
330 0.319069
335 0.401113
340 0.40341
345 0.381982
350 0.400209
355 0.396079
360 0.434411
365 0.396589
370 0.288554
375 0.362013
380 0.321643
385 0.386533
390 0.328022
395 0.387795
400 0.419224
405 0.353219
410 0.36872
415 0.365033
420 0.376028
425 0.371458
430 0.380806
435 0.405575
440 0.330119
445 0.360193
450 0.358083
455 0.404121
460 0.447561
465 0.392741
470 0.305733
475 0.274924
480 0.345433
485 0.332455
490 0.228788
495 0.294023
500 0.317551
505 0.346314
510 0.467879
515 0.345158
520 0.40345
525 0.458926
530 0.397775
535 0.445898
540 0.438762
545 0.52016
550 0.606141
555 5.73012
560 134.602
565 253.8
570 79.0184
575 9.65981
580 1.62745
585 0.634836
590 0.500721
595 0.504584
600 0.418675
Ex : 573
200 0.296019
205 0.40372
210 0.359692
215 0.439423
220 0.29152
225 0.434392
230 0.362335
235 0.256807
240 0.299089
245 0.381091
250 0.404205
255 0.39347
260 0.254525
265 0.25557
270 0.348876
275 0.375905
280 0.294107
285 0.396863
290 0.32801
295 0.391219
300 0.408331
305 0.350734
310 0.365157
315 0.341557
320 0.293188
325 0.344212
330 0.461528
335 0.393755
340 0.421416
345 0.337611
350 0.332979
355 0.370411
360 0.396185
365 0.378075
370 0.438374
375 0.49557
380 0.400687
385 0.350295
390 0.27175
395 0.269146
400 0.325284
405 0.501358
410 0.501345
415 0.328007
420 0.364409
425 0.360066
430 0.316265
435 0.332324
440 0.282746
445 0.435046
450 0.341234
455 0.316645
460 0.401204
465 0.286545
470 0.453397
475 0.418874
480 0.349626
485 0.327136
490 0.423786
495 0.3527
500 0.31071
505 0.335751
510 0.312631
515 0.391319
520 0.326345
525 0.317395
530 0.373659
535 0.43819
540 0.449465
545 0.508975
550 0.533276
555 0.769983
560 5.21485
565 114.383
570 230.674
575 72.7996
580 9.06979
585 1.59603
590 0.678768
595 0.558143
600 0.814734
Ex : 578
200 0.370872
205 0.3662
210 0.394535
215 0.37258
220 0.293383
225 0.344552
230 0.37515
235 0.268207
240 0.431217
245 0.313536
250 0.338102
255 0.373221
260 0.456427
265 0.282809
270 0.356791
275 0.285396
280 0.255651
285 0.317842
290 0.488993
295 0.440403
300 0.331704
305 0.335216
310 0.400389
315 0.43876
320 0.332696
325 0.353989
330 0.424823
335 0.372767
340 0.360142
345 0.39012
350 0.348532
355 0.31698
360 0.388682
365 0.306746
370 0.374616
375 0.426719
380 0.296016
385 0.426574
390 0.323809
395 0.432406
400 0.390894
405 0.341466
410 0.361388
415 0.322777
420 0.401842
425 0.400985
430 0.374825
435 0.348862
440 0.357683
445 0.380378
450 0.322302
455 0.316742
460 0.430647
465 0.550511
470 0.43388
475 0.27596
480 0.398808
485 0.382424
490 0.490519
495 0.424194
500 0.358192
505 0.326689
510 0.347038
515 0.309599
520 0.495009
525 0.42348
530 0.29714
535 0.330947
540 0.357343
545 0.470469
550 0.430056
555 0.527673
560 0.489356
565 4.52512
570 100.91
575 204.517
580 62.1286
585 7.78505
590 1.33356
595 0.607541
600 0.0691358
Ex : 583
200 0.292181
205 0.259294
210 0.4336
215 0.361815
220 0.365719
225 0.280796
230 0.516782
235 0.3614
240 0.30644
245 0.444674
250 0.352559
255 0.442071
260 0.281212
265 0.587941
270 0.366114
275 0.31361
280 0.298026
285 0.360153
290 0.349171
295 0.394779
300 0.363022
305 0.242969
310 0.47349
315 0.400013
320 0.243633
325 0.369028
330 0.367124
335 0.485322
340 0.384575
345 0.355595
350 0.342193
355 0.332759
360 0.319248
365 0.392321
370 0.316176
375 0.351406
380 0.348053
385 0.288426
390 0.321187
395 0.385517
400 0.275112
405 0.343574
410 0.403918
415 0.361619
420 0.426271
425 0.353187
430 0.385998
435 0.44093
440 0.338566
445 0.353491
450 0.361126
455 0.440331
460 0.507142
465 0.396802
470 0.344115
475 0.362506
480 0.289925
485 0.422472
490 0.298361
495 0.330933
500 0.404359
505 0.427566
510 0.372711
515 0.338704
520 0.476308
525 0.550049
530 0.388792
535 0.398784
540 0.521304
545 0.305227
550 0.356057
555 0.409412
560 0.515903
565 0.590844
570 3.96771
575 89.4769
580 176.411
585 52.3576
590 6.57067
595 1.12928
600 0.251591
Ex : 588
200 0.430203
205 0.374197
210 0.27926
215 0.42524
220 0.294873
225 0.449401
230 0.330686
235 0.34284
240 0.29869
245 0.308724
250 0.31088
255 0.369776
260 0.325646
265 0.302598
270 0.332225
275 0.289218
280 0.280281
285 0.465988
290 0.248442
295 0.336901
300 0.324097
305 0.284714
310 0.380121
315 0.359487
320 0.268754
325 0.397537
330 0.372286
335 0.340357
340 0.311971
345 0.323894
350 0.360531
355 0.328799
360 0.457021
365 0.326894
370 0.339798
375 0.436866
380 0.432534
385 0.355408
390 0.420702
395 0.319441
400 0.424132
405 0.396657
410 0.473788
415 0.342535
420 0.305372
425 0.294105
430 0.401038
435 0.419628
440 0.395382
445 0.367608
450 0.267177
455 0.299642
460 0.347676
465 0.313593
470 0.353089
475 0.325625
480 0.3235
485 0.398068
490 0.369732
495 0.457396
500 0.443412
505 0.333983
510 0.281173
515 0.35959
520 0.376709
525 0.362224
530 0.293153
535 0.429912
540 0.335959
545 0.427693
550 0.456217
555 0.396475
560 0.492794
565 0.489333
570 0.440122
575 3.67476
580 76.4866
585 148.931
590 44.9987
595 5.64175
600 0.673888
Ex : 593
200 0.372031
205 0.480452
210 0.324637
215 0.320489
220 0.51297
225 0.337132
230 0.304098
235 0.447236
240 0.30305
245 0.252153
250 0.323036
255 0.374012
260 0.424628
265 0.428644
270 0.535053
275 0.349285
280 0.34795
285 0.308576
290 0.408044
295 0.352257
300 0.296752
305 0.331032
310 0.328401
315 0.442782
320 0.392611
325 0.343571
330 0.413261
335 0.458559
340 0.410903
345 0.432838
350 0.411233
355 0.296613
360 0.370103
365 0.321769
370 0.379714
375 0.392805
380 0.46291
385 0.448144
390 0.26368
395 0.31234
400 0.341808
405 0.310544
410 0.472862
415 0.334192
420 0.492636
425 0.284686
430 0.273664
435 0.418377
440 0.403076
445 0.338886
450 0.393678
455 0.339191
460 0.317216
465 0.301832
470 0.333564
475 0.386195
480 0.346052
485 0.358847
490 0.377912
495 0.423329
500 0.289447
505 0.377564
510 0.416322
515 0.423913
520 0.379973
525 0.384685
530 0.338801
535 0.493714
540 0.525434
545 0.361933
550 0.385118
555 0.474239
560 0.496346
565 0.362608
570 0.570148
575 0.517194
580 2.92741
585 65.5705
590 127.876
595 39.2558
600 8.12611
Ex : 598
200 0.303194
205 0.385992
210 0.301807
215 0.380838
220 0.245727
225 0.297655
230 0.294939
235 0.402201
240 0.390617
245 0.349083
250 0.397723
255 0.341162
260 0.38638
265 0.542707
270 0.434756
275 0.516998
280 0.426442
285 0.34788
290 0.300275
295 0.424633
300 0.413034
305 0.415448
310 0.561567
315 0.413875
320 0.405926
325 0.306998
330 0.325287
335 0.380884
340 0.347513
345 0.321672
350 0.346751
355 0.413316
360 0.401449
365 0.430331
370 0.324782
375 0.320988
380 0.357469
385 0.376877
390 0.385537
395 0.385796
400 0.291315
405 0.365519
410 0.439397
415 0.351879
420 0.340106
425 0.435835
430 0.370782
435 0.345901
440 0.429672
445 0.424623
450 0.437365
455 0.336748
460 0.383925
465 0.346136
470 0.395173
475 0.403035
480 0.420417
485 0.539192
490 0.384069
495 0.435038
500 0.520548
505 0.365628
510 0.347578
515 0.447353
520 0.492672
525 0.407831
530 0.393265
535 0.461799
540 0.342198
545 0.581803
550 0.443717
555 0.317926
560 0.522199
565 0.458057
570 0.37927
575 0.412314
580 0.437268
585 2.92165
590 59.6023
595 112.201
600 68.6395
Ex : 603
200 0.302335
205 0.326049
210 0.469609
215 0.307808
220 0.387699
225 0.410261
230 0.410756
235 0.329522
240 0.463368
245 0.343933
250 0.378919
255 0.52212
260 0.433717
265 0.360495
270 0.38853
275 0.530661
280 0.396414
285 0.420482
290 0.38955
295 0.385909
300 0.335564
305 0.24101
310 0.343494
315 0.315929
320 0.329497
325 0.279566
330 0.353959
335 0.365717
340 0.495983
345 0.548796
350 0.522364
355 0.394062
360 0.402636
365 0.470374
370 0.466076
375 0.319386
380 0.347306
385 0.301869
390 0.449167
395 0.385153
400 0.371982
405 0.567238
410 0.343743
415 0.452539
420 0.456718
425 0.454904
430 0.382091
435 0.317893
440 0.403
445 0.41133
450 0.379331
455 0.341632
460 0.283694
465 0.40006
470 0.446687
475 0.400973
480 0.421867
485 0.513312
490 0.463923
495 0.402788
500 0.455657
505 0.356501
510 0.513696
515 0.390957
520 0.321916
525 0.445062
530 0.397467
535 0.391176
540 0.540865
545 0.485234
550 0.497356
555 0.310765
560 0.363587
565 0.421077
570 0.519505
575 0.33623
580 0.418484
585 0.431678
590 2.70635
595 48.7686
600 104.776
