File format V 1.0
sam. 21. janv. 01:52:04 2017
Operator : 
Comments : 

=============================================
SpectroFluorometer parameters
Mode : 3D measurement
Data : Fluorescence
Phospho. : Ordinary
Spectrum : Fluorescence

Scan speed : 2400 nm/mn
Response : 100 ms
PM Voltage : 700 V
Shutter : On

Lambda Ex. Start : 203
Lambda Ex. End : 603
Lambda Ex. Step : 5
Ex. Slit : 5 nm

Lambda Em. Start : 200
Lambda Em. End : 600
Lambda Em. Step : 5
Em. Slit : 5 nm

Repetition : 1
Decal lambda em : 10
=============================================
DATA
Ex : 203
200 5.7619
205 8.85418
210 5.74465
215 4.76535
220 4.0728
225 7.29668
230 4.35629
235 4.86797
240 9.24271
245 5.37965
250 5.40126
255 5.73941
260 4.48584
265 4.60278
270 4.96375
275 5.43421
280 5.83191
285 4.8997
290 4.70092
295 4.38971
300 3.72495
305 4.66973
310 4.46275
315 4.1352
320 4.46305
325 3.94377
330 5.92426
335 7.62362
340 6.11624
345 3.89692
350 6.57563
355 5.1793
360 2.87486
365 5.0385
370 6.43528
375 6.00544
380 6.36037
385 4.73408
390 4.51089
395 5.43885
400 5.61512
405 5.19256
410 7.26455
415 5.28152
420 4.1811
425 4.92897
430 4.90883
435 7.06353
440 4.81504
445 7.74209
450 7.44935
455 6.07546
460 5.55457
465 5.44683
470 5.87025
475 6.44441
480 6.26383
485 7.04409
490 6.69012
495 8.94814
500 5.85441
505 7.92662
510 4.20929
515 6.81355
520 5.62024
525 5.62048
530 8.60633
535 4.68917
540 8.29401
545 5.46075
550 4.92922
555 5.78863
560 5.38368
565 6.84334
570 8.45918
575 7.48958
580 5.33304
585 4.9277
590 5.71603
595 7.52416
600 0.856221
Ex : 208
200 4.91626
205 5.62872
210 7.56427
215 5.51551
220 4.28266
225 5.23615
230 5.82002
235 6.5443
240 6.61528
245 5.72384
250 4.35475
255 5.87389
260 4.70861
265 5.16765
270 4.70796
275 5.0793
280 8.45214
285 5.78083
290 4.00675
295 6.85832
300 7.91036
305 6.22229
310 6.22017
315 5.02535
320 4.77598
325 5.56374
330 9.01727
335 7.70898
340 4.43093
345 4.61078
350 6.00218
355 4.87835
360 4.05542
365 6.01193
370 5.12401
375 7.60844
380 6.62614
385 5.58461
390 8.99114
395 6.06254
400 6.3616
405 5.48727
410 6.95313
415 4.19371
420 4.84802
425 4.03742
430 5.04199
435 4.88957
440 5.32504
445 6.92851
450 5.50322
455 4.70086
460 6.00828
465 4.59085
470 5.51739
475 6.03282
480 4.55759
485 9.09121
490 8.03112
495 5.10406
500 5.48418
505 8.42897
510 5.01562
515 5.77042
520 3.58067
525 6.24164
530 5.35554
535 5.54156
540 5.67717
545 6.09506
550 6.16002
555 5.51438
560 5.31891
565 5.03629
570 5.52862
575 5.92201
580 6.05693
585 7.01862
590 5.26481
595 4.35382
600 0.495448
Ex : 213
200 7.68
205 6.06336
210 4.76744
215 6.29148
220 6.02843
225 4.6008
230 5.99664
235 7.01305
240 5.22908
245 4.19552
250 7.55738
255 6.21198
260 5.95732
265 3.46673
270 5.10274
275 5.47929
280 4.88344
285 8.79514
290 3.4645
295 6.65499
300 4.64851
305 6.22867
310 4.16319
315 6.89539
320 4.26314
325 5.6716
330 6.42811
335 6.40228
340 7.40984
345 8.32202
350 9.49756
355 7.38576
360 4.44377
365 4.31396
370 3.82573
375 7.2869
380 5.66017
385 5.47461
390 7.99038
395 7.4186
400 5.7748
405 5.45255
410 8.52744
415 6.59033
420 6.28873
425 4.63573
430 8.57608
435 6.85381
440 4.69542
445 4.77231
450 5.82412
455 4.76031
460 6.37149
465 6.88758
470 4.93947
475 4.68487
480 7.98166
485 5.07128
490 6.78985
495 4.77699
500 3.74552
505 5.95596
510 6.52313
515 4.91883
520 3.88413
525 6.88672
530 3.45116
535 5.84222
540 7.64025
545 6.57437
550 5.11064
555 10.8457
560 5.75921
565 5.94338
570 6.16027
575 6.66233
580 3.72111
585 4.84519
590 4.34613
595 4.25861
600 0.484613
Ex : 218
200 5.87264
205 6.33014
210 4.16768
215 3.54613
220 6.00795
225 5.60902
230 5.16623
235 4.42084
240 5.28498
245 4.14622
250 3.43968
255 5.53683
260 7.54892
265 8.394
270 4.39759
275 5.99234
280 5.235
285 7.19155
290 5.31469
295 7.92154
300 6.03349
305 6.22321
310 5.5256
315 3.80285
320 3.42634
325 4.5226
330 6.2084
335 4.67331
340 6.30099
345 6.44361
350 6.19964
355 6.78847
360 7.22283
365 6.39365
370 7.624
375 3.72161
380 7.67107
385 7.38561
390 5.7323
395 4.58902
400 4.14957
405 6.40002
410 3.83001
415 5.62145
420 6.37528
425 6.64906
430 5.55584
435 5.3145
440 4.63178
445 6.30811
450 6.6395
455 4.84367
460 6.32679
465 4.93369
470 5.30796
475 7.72078
480 6.33508
485 5.89966
490 4.85165
495 10.8494
500 11.7059
505 4.3435
510 5.56779
515 7.25882
520 6.03079
525 7.99855
530 7.15606
535 5.39305
540 4.72885
545 5.40122
550 5.62563
555 5.74037
560 5.22831
565 5.24858
570 5.9503
575 4.01011
580 4.98064
585 8.2442
590 7.07918
595 6.10065
600 1.80199
Ex : 223
200 4.83562
205 5.21121
210 5.35272
215 5.76639
220 4.37019
225 6.43282
230 5.10425
235 5.34161
240 7.11378
245 6.41346
250 7.61463
255 6.14576
260 5.512
265 4.72427
270 4.36044
275 5.21834
280 5.1553
285 5.89974
290 5.82351
295 8.02673
300 8.88038
305 4.58057
310 6.34992
315 8.17569
320 6.5193
325 4.09385
330 7.27174
335 5.10141
340 6.00635
345 5.9151
350 6.44239
355 4.0731
360 4.85977
365 4.24333
370 4.79359
375 4.02979
380 7.63943
385 7.28335
390 4.73578
395 6.15154
400 7.11122
405 4.42221
410 2.92751
415 6.18296
420 5.10905
425 7.76995
430 6.72394
435 4.85917
440 3.52617
445 4.91326
450 7.27697
455 6.69693
460 4.45674
465 3.66239
470 4.64795
475 5.20397
480 6.43172
485 4.8543
490 10.6091
495 5.65186
500 7.4569
505 5.75839
510 3.53988
515 6.34585
520 5.03795
525 4.44572
530 4.32006
535 4.59661
540 4.41542
545 4.12375
550 6.79115
555 6.9851
560 7.43934
565 4.94172
570 5.12059
575 4.46768
580 4.91044
585 4.22384
590 6.93072
595 5.89151
600 4.74697
Ex : 228
200 10.4155
205 4.51166
210 4.75143
215 5.21182
220 4.15795
225 4.38144
230 6.51567
235 5.65623
240 3.11613
245 5.43437
250 3.65682
255 2.99418
260 4.60532
265 5.34108
270 4.06893
275 3.94797
280 6.29133
285 4.58527
290 4.79733
295 4.88793
300 5.53958
305 3.80734
310 4.16076
315 5.643
320 5.97541
325 5.84359
330 3.10204
335 5.49802
340 5.20701
345 4.53825
350 5.43709
355 4.32794
360 6.85489
365 4.37086
370 6.09854
375 7.83982
380 5.94919
385 5.86293
390 6.78498
395 3.72753
400 3.37562
405 5.22133
410 4.77533
415 4.70239
420 5.0592
425 4.75876
430 5.60376
435 6.71329
440 4.99299
445 6.91111
450 8.79573
455 5.71996
460 5.70347
465 5.87386
470 6.35588
475 4.58811
480 4.06692
485 4.65935
490 4.21429
495 5.10471
500 3.4787
505 4.29359
510 5.64017
515 3.64221
520 5.92863
525 6.67325
530 6.18641
535 2.73181
540 4.84128
545 4.53481
550 5.83327
555 5.54195
560 7.84208
565 7.19887
570 5.6047
575 4.4575
580 4.38489
585 5.54384
590 5.2069
595 8.27296
600 64.5709
Ex : 233
200 9.05106
205 4.52774
210 3.93666
215 4.45629
220 2.73777
225 6.19168
230 4.45186
235 3.01688
240 2.46714
245 6.54452
250 4.0074
255 4.24788
260 5.49385
265 3.57072
270 4.71459
275 4.59988
280 6.40626
285 3.28221
290 4.61018
295 4.0091
300 3.35509
305 4.62625
310 5.19606
315 7.36524
320 3.32463
325 3.73658
330 6.85222
335 6.82589
340 6.09398
345 4.01578
350 6.20754
355 4.97028
360 4.30905
365 3.83239
370 4.93818
375 3.42128
380 6.19562
385 4.26156
390 2.84422
395 6.09358
400 6.16319
405 5.95638
410 6.51352
415 3.3244
420 4.56837
425 6.38499
430 3.90802
435 4.51905
440 4.11245
445 7.82422
450 6.02811
455 4.35685
460 4.65792
465 5.55945
470 7.28121
475 4.13733
480 4.33301
485 5.49935
490 5.16378
495 4.29696
500 5.09876
505 5.29749
510 4.15926
515 5.15911
520 5.13726
525 6.84412
530 4.48732
535 7.05826
540 4.70548
545 4.74304
550 5.34251
555 5.58578
560 3.65661
565 5.28437
570 5.7585
575 5.13372
580 7.09685
585 4.94572
590 4.66875
595 4.57683
600 0.520825
Ex : 238
200 2.41833
205 3.0578
210 3.6188
215 5.50207
220 4.66216
225 3.13251
230 3.42333
235 3.83745
240 4.49263
245 2.62848
250 3.31902
255 3.25196
260 4.81909
265 3.26932
270 5.44195
275 5.39919
280 2.87764
285 3.64549
290 4.91215
295 4.30703
300 3.17206
305 3.97529
310 7.35261
315 4.67692
320 5.1498
325 5.55935
330 2.89506
335 4.4199
340 4.26933
345 5.08499
350 3.98209
355 4.53724
360 3.98315
365 6.3772
370 3.58678
375 4.94421
380 4.57746
385 3.13923
390 7.65353
395 4.36205
400 4.37994
405 5.7277
410 5.07217
415 5.17057
420 4.63079
425 6.09787
430 3.38393
435 4.98291
440 6.93445
445 5.82684
450 3.26586
455 4.44752
460 4.91699
465 6.14997
470 9.38531
475 4.17511
480 4.0639
485 6.38746
490 4.53336
495 4.01261
500 4.65132
505 7.17408
510 4.84674
515 4.79909
520 9.43411
525 4.10567
530 3.50562
535 5.94765
540 5.16258
545 4.85858
550 3.90309
555 4.02126
560 3.21668
565 3.8344
570 4.53168
575 4.07729
580 2.74555
585 2.49467
590 2.86069
595 5.28898
600 0.601866
Ex : 243
200 4.85333
205 3.56414
210 4.49148
215 4.47262
220 6.83035
225 4.32506
230 6.19553
235 4.51242
240 2.67024
245 3.73719
250 3.4512
255 3.93135
260 2.63355
265 2.4989
270 2.06304
275 2.56462
280 3.11504
285 4.8525
290 2.65435
295 2.7481
300 2.93319
305 4.04185
310 3.12476
315 3.35321
320 3.63392
325 4.01169
330 5.25118
335 2.86494
340 2.91278
345 3.43472
350 3.0346
355 4.03635
360 5.74025
365 5.72494
370 2.34492
375 4.66401
380 3.38529
385 2.99769
390 2.56988
395 2.44552
400 4.58184
405 3.53878
410 3.51187
415 3.29417
420 4.71104
425 4.46785
430 4.28739
435 4.21543
440 6.02917
445 3.1833
450 3.97749
455 5.61483
460 4.16586
465 5.35405
470 3.71098
475 4.29829
480 4.8847
485 3.23579
490 5.28818
495 4.6789
500 4.77291
505 3.39935
510 3.29777
515 6.08966
520 3.1584
525 2.93448
530 3.11339
535 4.00912
540 3.76452
545 4.41938
550 2.68503
555 3.54592
560 5.95084
565 3.23632
570 4.42251
575 3.55834
580 4.86073
585 8.16683
590 5.43343
595 4.49544
600 4.38871
Ex : 248
200 1.66286
205 2.30403
210 4.32485
215 2.78601
220 3.03624
225 2.70183
230 3.21816
235 3.5576
240 3.05318
245 3.18434
250 2.91516
255 3.42338
260 4.32114
265 2.5473
270 2.73859
275 2.29591
280 3.77022
285 2.54171
290 2.71818
295 2.91534
300 1.83229
305 4.84622
310 3.59732
315 5.96048
320 2.96116
325 3.54418
330 4.31363
335 3.07869
340 3.39134
345 2.91755
350 4.68483
355 4.69321
360 4.80069
365 4.48201
370 3.24379
375 3.53001
380 3.41958
385 2.13815
390 3.20751
395 3.79115
400 3.07741
405 3.16994
410 3.89017
415 3.13258
420 3.17074
425 5.52819
430 5.10429
435 4.35771
440 2.40999
445 2.93038
450 4.59446
455 5.41557
460 3.48852
465 2.32317
470 2.39722
475 3.18967
480 3.10995
485 4.54912
490 4.21856
495 4.45531
500 2.44833
505 3.21777
510 3.47049
515 2.6756
520 3.00247
525 2.42175
530 2.40706
535 5.60642
540 2.99449
545 3.02847
550 2.73408
555 3.6901
560 2.39012
565 4.93442
570 3.80756
575 3.65584
580 2.65161
585 4.71744
590 3.60953
595 5.04935
600 7.66423
Ex : 253
200 3.95943
205 2.9294
210 2.98559
215 2.66498
220 2.33371
225 2.13597
230 1.96997
235 2.70301
240 2.99894
245 2.17525
250 4.85996
255 3.86112
260 4.26222
265 3.47569
270 3.08855
275 2.72336
280 2.12673
285 3.63316
290 1.57578
295 2.08939
300 3.28178
305 2.18243
310 3.39417
315 3.2691
320 3.14302
325 2.05149
330 3.1882
335 4.14094
340 2.73378
345 2.17127
350 3.25461
355 2.43257
360 3.2373
365 3.25327
370 3.33921
375 2.35099
380 2.33679
385 2.65605
390 2.58901
395 2.63292
400 2.58898
405 2.97843
410 3.50939
415 2.58434
420 3.13515
425 2.71716
430 3.33122
435 2.88534
440 2.89639
445 1.94257
450 2.23823
455 2.41307
460 2.97388
465 2.50588
470 4.19551
475 3.74385
480 3.67405
485 2.79049
490 3.26867
495 3.48985
500 2.78752
505 3.88143
510 2.7266
515 3.03831
520 2.83353
525 3.1934
530 2.27182
535 3.11312
540 3.72769
545 2.05713
550 3.25319
555 2.86389
560 4.132
565 2.8793
570 1.96617
575 2.84188
580 3.6749
585 3.45474
590 2.50419
595 3.00266
600 12.4531
Ex : 258
200 2.1374
205 2.19769
210 2.07372
215 2.84145
220 1.87116
225 3.59931
230 2.28533
235 1.95518
240 1.4006
245 2.39583
250 2.60133
255 2.86567
260 2.15013
265 2.2698
270 1.84629
275 3.08685
280 2.97848
285 3.02188
290 2.63955
295 1.47344
300 2.12308
305 3.29215
310 2.29243
315 2.02639
320 3.96568
325 2.93609
330 3.1678
335 1.74403
340 1.68164
345 2.22412
350 3.56147
355 2.07497
360 1.53847
365 1.69775
370 2.40957
375 2.35635
380 2.08469
385 2.25972
390 3.6961
395 2.42199
400 2.81065
405 3.67582
410 2.54587
415 2.39512
420 2.0763
425 2.7401
430 1.89597
435 3.21939
440 2.40204
445 2.3383
450 2.47567
455 2.03041
460 2.61198
465 2.7503
470 2.86233
475 1.74191
480 2.15533
485 2.18614
490 2.45463
495 2.35125
500 1.39453
505 2.13457
510 2.38945
515 1.69086
520 2.54241
525 3.05719
530 2.17927
535 2.65937
540 1.24238
545 1.60796
550 2.4986
555 2.11019
560 3.80399
565 2.09598
570 1.35839
575 2.56722
580 2.78328
585 1.80576
590 1.90144
595 2.95997
600 0.336833
Ex : 263
200 2.02853
205 2.63586
210 1.48972
215 1.60592
220 1.69545
225 2.02203
230 1.34631
235 1.20821
240 1.46414
245 1.32201
250 1.09771
255 1.92595
260 2.20544
265 2.76143
270 2.77322
275 1.86076
280 1.36808
285 2.34669
290 1.5654
295 1.956
300 1.79028
305 2.0379
310 1.46583
315 1.36602
320 1.81725
325 2.05532
330 2.08015
335 2.41281
340 2.05504
345 1.28143
350 1.72709
355 1.9286
360 1.62059
365 1.97574
370 1.64249
375 1.10942
380 1.50327
385 1.34398
390 2.06272
395 2.80034
400 2.27297
405 2.20723
410 1.8274
415 1.99524
420 1.83917
425 2.55447
430 2.35395
435 1.86437
440 1.92584
445 2.44985
450 2.10519
455 2.30246
460 2.51284
465 1.98783
470 1.3218
475 2.67238
480 2.69396
485 1.45565
490 1.69268
495 2.02448
500 2.27699
505 1.50488
510 2.62814
515 2.13393
520 1.9965
525 3.11331
530 2.94653
535 1.25164
540 1.74566
545 2.74767
550 2.776
555 1.81614
560 1.97501
565 2.40047
570 1.45749
575 1.97892
580 1.35249
585 2.90781
590 2.17961
595 1.45475
600 0.165545
Ex : 268
200 1.78998
205 1.10373
210 1.51279
215 1.58712
220 0.934979
225 1.31341
230 1.03674
235 1.47874
240 1.04005
245 1.46007
250 1.45566
255 1.37913
260 1.99973
265 1.36651
270 1.5625
275 1.04507
280 1.30159
285 1.49734
290 0.569763
295 1.94163
300 1.4383
305 1.29972
310 1.92031
315 1.17241
320 1.1496
325 1.87204
330 1.53122
335 1.69678
340 2.01102
345 1.52883
350 1.28628
355 1.52713
360 1.33007
365 1.82693
370 1.73384
375 2.0895
380 1.42633
385 1.77821
390 1.68613
395 1.37635
400 1.72834
405 1.62824
410 1.4472
415 1.40957
420 1.06147
425 1.3199
430 1.69693
435 2.10161
440 1.7612
445 1.51847
450 1.6565
455 1.27036
460 2.04511
465 1.81613
470 2.09774
475 1.68361
480 1.8462
485 2.46065
490 1.31811
495 0.945144
500 0.987458
505 1.77902
510 1.46935
515 1.4992
520 1.60366
525 1.77574
530 2.1079
535 2.12829
540 1.68267
545 1.12527
550 1.85471
555 1.33626
560 1.26169
565 1.35727
570 1.66428
575 1.28866
580 1.53048
585 1.20789
590 1.0172
595 1.93722
600 0.53062
Ex : 273
200 0.860844
205 1.09919
210 1.18716
215 1.09332
220 1.31181
225 1.2718
230 0.966637
235 1.04568
240 1.38735
245 0.943393
250 1.47624
255 1.46747
260 0.864716
265 0.584691
270 0.844876
275 1.29823
280 1.49995
285 1.54655
290 0.852417
295 0.829841
300 1.52293
305 0.846017
310 1.09444
315 0.783717
320 1.40719
325 1.39213
330 1.16909
335 0.684874
340 1.32424
345 0.759093
350 1.18334
355 0.951908
360 1.14543
365 0.876983
370 1.61863
375 0.964856
380 1.17445
385 1.12712
390 1.5467
395 0.955627
400 1.26116
405 0.974224
410 1.69847
415 1.08209
420 1.63175
425 2.01541
430 1.60331
435 1.10297
440 1.18535
445 1.10267
450 1.03668
455 1.25639
460 1.24443
465 1.59623
470 0.850349
475 1.16038
480 1.16222
485 1.85788
490 1.20265
495 1.34461
500 1.41743
505 1.27971
510 1.43898
515 0.780278
520 1.09235
525 0.878049
530 2.30765
535 1.76733
540 1.85248
545 1.53624
550 1.22616
555 1.0672
560 0.971298
565 1.04846
570 0.953784
575 0.856868
580 0.898201
585 0.991854
590 1.6633
595 0.986432
600 0.112252
Ex : 278
200 1.02206
205 0.571598
210 0.642882
215 0.559756
220 0.762545
225 0.617359
230 1.5501
235 1.00889
240 0.992408
245 1.38373
250 1.02724
255 1.0979
260 0.71811
265 0.855825
270 0.990729
275 1.53081
280 0.964771
285 1.07244
290 1.71975
295 1.03871
300 0.953744
305 1.16201
310 1.23981
315 0.841705
320 0.796319
325 0.784978
330 1.03618
335 1.03065
340 0.713713
345 0.850267
350 1.14965
355 1.37408
360 1.22731
365 1.0656
370 1.20126
375 1.17891
380 1.29047
385 0.987192
390 1.36615
395 1.10089
400 1.54966
405 1.19544
410 1.12583
415 1.3688
420 1.15741
425 1.03226
430 1.14266
435 1.40758
440 1.13869
445 1.11782
450 0.876248
455 1.24644
460 0.9376
465 0.922031
470 1.07529
475 1.02212
480 0.893711
485 1.07123
490 1.15688
495 1.29658
500 0.984875
505 0.96034
510 1.2497
515 0.881894
520 1.06471
525 1.59817
530 0.928674
535 1.02484
540 1.20854
545 1.15885
550 1.57485
555 1.13151
560 1.09553
565 0.789856
570 0.708431
575 1.31118
580 0.749011
585 0.802471
590 1.01212
595 0.803321
600 1.0367
Ex : 283
200 0.689081
205 0.670411
210 0.560859
215 0.733837
220 0.537561
225 0.711134
230 0.559808
235 0.843165
240 1.04899
245 1.09657
250 1.11638
255 0.646969
260 0.873382
265 0.744653
270 0.793342
275 1.36627
280 0.731479
285 0.550543
290 0.571243
295 1.27052
300 0.728048
305 0.715852
310 1.09248
315 0.632514
320 0.754307
325 0.877006
330 0.85236
335 1.05433
340 0.734933
345 1.10883
350 0.828376
355 0.939431
360 0.65579
365 1.15252
370 1.20594
375 0.893876
380 1.27838
385 0.774567
390 1.03267
395 0.95923
400 0.871883
405 1.33222
410 1.28813
415 0.648568
420 1.11109
425 1.04291
430 1.42231
435 0.968192
440 1.12656
445 1.19295
450 1.22205
455 1.04066
460 0.875168
465 1.00832
470 1.24708
475 0.936258
480 0.654164
485 0.961244
490 0.881394
495 0.824357
500 0.891333
505 0.867115
510 1.10664
515 0.790289
520 0.689006
525 0.96997
530 1.00993
535 0.837432
540 0.838641
545 1.06388
550 0.606972
555 0.688289
560 1.04837
565 0.995352
570 0.649373
575 0.832412
580 0.941595
585 1.48655
590 1.13165
595 0.955901
600 0.62573
Ex : 288
200 0.725458
205 0.632169
210 0.524194
215 1.28468
220 0.712626
225 0.64075
230 0.508999
235 0.818374
240 0.640155
245 0.508774
250 0.499255
255 0.654382
260 0.651841
265 0.705276
270 1.01821
275 0.718847
280 0.957586
285 0.985338
290 0.437437
295 0.285308
300 0.735969
305 0.399364
310 0.556774
315 0.535968
320 0.77125
325 0.597568
330 0.750699
335 0.687868
340 0.857559
345 0.697999
350 0.749596
355 0.990846
360 0.951951
365 0.819649
370 0.740232
375 0.912784
380 1.03394
385 0.636339
390 1.05055
395 0.856643
400 0.856591
405 0.83432
410 0.942551
415 0.884857
420 0.897582
425 0.851509
430 0.875984
435 0.611889
440 0.674085
445 0.927045
450 1.02909
455 0.945151
460 0.802853
465 0.896777
470 0.602797
475 0.95971
480 1.01911
485 0.72347
490 0.963061
495 0.829164
500 0.632796
505 0.563021
510 0.929803
515 0.720019
520 0.493122
525 0.94678
530 0.991955
535 0.740876
540 0.793771
545 0.655357
550 0.523844
555 0.838774
560 0.797437
565 1.03202
570 1.03059
575 0.721731
580 1.03216
585 0.582366
590 0.881959
595 0.912387
600 0.763327
Ex : 293
200 0.477683
205 0.558937
210 0.375882
215 0.467898
220 0.501455
225 0.452927
230 0.666536
235 0.669499
240 0.756316
245 0.498508
250 0.375694
255 0.385361
260 0.372893
265 0.737462
270 0.555413
275 0.436879
280 0.789072
285 0.600351
290 0.42442
295 0.665445
300 0.3786
305 0.479813
310 0.480165
315 0.649814
320 0.657617
325 0.855298
330 0.779521
335 0.561292
340 0.582719
345 0.687843
350 0.548358
355 0.776465
360 0.597947
365 0.514984
370 0.793928
375 0.701228
380 0.773607
385 0.60828
390 0.621874
395 0.850474
400 0.947757
405 0.651105
410 0.959033
415 0.8553
420 0.722458
425 0.632947
430 0.915302
435 0.688035
440 0.578971
445 0.697559
450 0.822011
455 0.956936
460 0.828539
465 0.792842
470 0.809306
475 0.545082
480 0.829706
485 0.553123
490 0.426079
495 0.685073
500 0.640601
505 0.519616
510 0.559269
515 0.827919
520 0.616178
525 0.695055
530 0.853023
535 0.527574
540 0.683708
545 0.376448
550 0.547429
555 0.963778
560 0.696795
565 0.657662
570 0.667056
575 0.716202
580 0.668357
585 1.06403
590 0.68371
595 0.525793
600 0.230257
Ex : 298
200 0.336507
205 0.48546
210 0.277539
215 0.704118
220 0.445429
225 0.495991
230 0.461069
235 0.488542
240 0.426255
245 0.487488
250 0.423984
255 0.420203
260 0.498323
265 0.589687
270 0.730737
275 0.436901
280 0.295409
285 0.583122
290 0.453653
295 0.70792
300 0.429144
305 0.568014
310 0.553462
315 0.467987
320 0.568979
325 0.481483
330 0.64707
335 0.577802
340 0.564729
345 0.62811
350 0.487208
355 0.521768
360 0.426744
365 0.766877
370 0.773349
375 0.777478
380 0.844365
385 0.855528
390 0.753555
395 0.67471
400 0.531648
405 0.788948
410 0.663271
415 0.839778
420 0.80534
425 0.517803
430 0.806173
435 0.551239
440 0.767051
445 0.824553
450 0.765097
455 0.612346
460 0.498706
465 0.71404
470 0.915526
475 0.502168
480 0.667258
485 0.909111
490 0.438673
495 0.671255
500 0.746362
505 0.655299
510 0.652853
515 0.552827
520 0.558239
525 0.46998
530 0.667803
535 0.487366
540 0.801056
545 0.620636
550 0.412299
555 0.640675
560 0.633884
565 0.610836
570 0.695219
575 0.460174
580 0.526869
585 0.684638
590 0.853105
595 0.650586
600 0.629789
Ex : 303
200 0.487078
205 0.505655
210 0.529991
215 0.362197
220 0.371238
225 0.428664
230 0.654299
235 0.336319
240 0.328768
245 0.372257
250 0.271279
255 0.335904
260 0.414297
265 0.569845
270 0.497149
275 0.45598
280 0.539831
285 0.364006
290 0.381552
295 0.447647
300 0.705989
305 0.472524
310 0.377694
315 0.315459
320 0.244019
325 0.378076
330 0.394538
335 0.530515
340 0.513896
345 0.483341
350 0.471492
355 0.512546
360 0.421143
365 0.432437
370 0.741506
375 0.60831
380 0.54641
385 0.671343
390 0.834621
395 0.551564
400 0.617329
405 0.786091
410 0.712471
415 0.664285
420 0.917584
425 0.77871
430 0.706536
435 0.808068
440 0.831958
445 0.877455
450 0.774534
455 0.674631
460 0.883028
465 0.759424
470 0.669805
475 0.724129
480 0.547191
485 0.573564
490 0.47041
495 0.45276
500 0.307723
505 0.758101
510 0.743534
515 0.482592
520 0.640571
525 0.687884
530 0.478624
535 0.54841
540 0.498229
545 0.467596
550 0.364744
555 0.450622
560 0.357943
565 0.62777
570 0.494296
575 0.37952
580 0.526747
585 0.307217
590 0.376179
595 0.455808
600 0.0518693
Ex : 308
200 0.245414
205 0.330196
210 0.319356
215 0.3948
220 0.272093
225 0.571262
230 0.618562
235 0.297825
240 0.379361
245 0.341794
250 0.377989
255 0.405914
260 0.358651
265 0.288508
270 0.442916
275 0.35242
280 0.361997
285 0.293333
290 0.40133
295 0.39372
300 0.476456
305 0.659003
310 0.427201
315 0.448274
320 0.286671
325 0.543128
330 0.372508
335 0.367853
340 0.563057
345 0.652608
350 0.352745
355 0.455094
360 0.414598
365 0.735792
370 0.907222
375 0.467913
380 0.674806
385 0.616071
390 0.570241
395 0.672703
400 0.702627
405 0.870062
410 0.688306
415 0.934119
420 0.62539
425 0.624796
430 0.814755
435 0.678882
440 0.573164
445 0.827252
450 0.423987
455 0.621323
460 0.536026
465 0.492208
470 0.315195
475 0.55074
480 0.798287
485 0.568466
490 0.616957
495 0.53491
500 0.326704
505 0.523765
510 0.513414
515 0.490318
520 0.424977
525 0.463343
530 0.330398
535 0.360217
540 0.515206
545 0.422388
550 0.498376
555 0.316595
560 0.359854
565 0.316146
570 0.274154
575 0.465401
580 0.280033
585 0.299207
590 0.273463
595 0.270457
600 0.0307769
Ex : 313
200 0.37721
205 0.380825
210 0.297405
215 0.370224
220 0.185859
225 0.247558
230 0.14959
235 0.371855
240 0.332142
245 0.241744
250 0.390524
255 0.293779
260 0.23311
265 0.353825
270 0.368543
275 0.322674
280 0.481811
285 0.292725
290 0.326368
295 0.289805
300 0.307559
305 0.42515
310 0.585466
315 0.39867
320 0.244963
325 0.297677
330 0.469766
335 0.487925
340 0.50675
345 0.699879
350 0.481873
355 0.559336
360 0.588056
365 0.468851
370 0.722082
375 0.707637
380 0.738564
385 0.979725
390 0.922501
395 0.864868
400 0.989868
405 0.968184
410 1.11575
415 0.982553
420 1.07934
425 1.19636
430 0.859803
435 0.868597
440 0.954601
445 0.912593
450 0.858745
455 0.835429
460 0.887038
465 0.800972
470 0.627997
475 0.881736
480 0.744118
485 0.65906
490 0.610027
495 0.55798
500 0.56947
505 0.36697
510 0.458679
515 0.476695
520 0.395133
525 0.35031
530 0.326392
535 0.52039
540 0.444698
545 0.375605
550 0.37969
555 0.360705
560 0.215897
565 0.281468
570 0.228182
575 0.386575
580 0.382885
585 0.304411
590 0.313119
595 0.393358
600 0.0447627
Ex : 318
200 0.474513
205 0.352607
210 0.256065
215 0.236411
220 0.456448
225 0.467259
230 0.276131
235 0.297642
240 0.271294
245 0.45508
250 0.416286
255 0.290766
260 0.314786
265 0.340868
270 0.263318
275 0.290429
280 0.409569
285 0.247823
290 0.271018
295 0.204287
300 0.214762
305 0.343084
310 0.547442
315 0.938483
320 0.569775
325 0.515572
330 0.742809
335 0.783076
340 1.36131
345 1.629
350 2.29815
355 2.62562
360 3.44859
365 4.27948
370 5.27594
375 6.41807
380 7.33599
385 7.40726
390 8.45739
395 8.22024
400 9.72141
405 10.0667
410 9.76933
415 9.61055
420 9.95412
425 9.70628
430 9.24315
435 9.21077
440 8.92407
445 8.36608
450 8.184
455 7.74833
460 7.17134
465 6.06245
470 5.57953
475 4.89921
480 4.90624
485 4.55045
490 4.04383
495 3.66033
500 3.43488
505 2.43002
510 2.25731
515 2.02705
520 1.86494
525 1.71974
530 1.28052
535 1.76383
540 1.06146
545 0.866452
550 0.931795
555 0.881156
560 0.841957
565 0.463564
570 0.448443
575 0.451847
580 0.326618
585 0.384433
590 0.392946
595 0.350659
600 1.15481
Ex : 323
200 0.313721
205 0.232368
210 0.261743
215 0.171029
220 0.190526
225 0.251023
230 0.246251
235 0.176189
240 0.191456
245 0.291396
250 0.263353
255 0.267173
260 0.313693
265 0.262013
270 0.281295
275 0.212974
280 0.280485
285 0.369059
290 0.328557
295 0.221397
300 0.223892
305 0.220675
310 0.323115
315 3.96363
320 15.4611
325 6.62844
330 2.29151
335 2.81834
340 4.20541
345 5.72465
350 8.85098
355 12.381
360 14.5115
365 16.9996
370 20.1809
375 23.853
380 26.7178
385 28.9667
390 31.7847
395 33.5973
400 35.1801
405 35.9981
410 36.7054
415 35.9515
420 36.0508
425 35.3395
430 34.7112
435 34.0623
440 32.6412
445 31.7152
450 29.5927
455 28.3648
460 25.9184
465 24.2084
470 21.7978
475 20.439
480 18.039
485 16.3011
490 15.3097
495 13.374
500 12.1544
505 10.8201
510 9.5568
515 7.64727
520 6.71386
525 5.76343
530 5.19312
535 4.32586
540 3.80701
545 3.38443
550 2.65144
555 2.2191
560 1.89776
565 1.82948
570 1.29336
575 1.16748
580 1.06815
585 0.825883
590 0.586362
595 0.561187
600 0.834113
Ex : 328
200 0.133021
205 0.319082
210 0.339986
215 0.217868
220 0.274425
225 0.179534
230 0.278486
235 0.249684
240 0.229376
245 0.176548
250 0.266632
255 0.132806
260 0.166434
265 0.227299
270 0.329613
275 0.414036
280 0.220942
285 0.260829
290 0.294634
295 0.26143
300 0.207355
305 0.305405
310 0.333734
315 1.29339
320 31.6558
325 72.0898
330 23.4212
335 5.78934
340 5.71993
345 7.12114
350 9.30039
355 12.753
360 17.7036
365 19.7738
370 21.1639
375 25.5794
380 28.9065
385 31.1745
390 33.5778
395 35.3443
400 36.5039
405 36.4005
410 37.0789
415 38.339
420 38.3097
425 36.6913
430 35.8893
435 34.6566
440 33.0664
445 31.821
450 30.8097
455 29.1246
460 27.3232
465 25.3787
470 23.8178
475 21.6799
480 20.2324
485 18.9357
490 16.772
495 15.2734
500 13.9084
505 12.4306
510 11.553
515 9.98154
520 7.87869
525 7.53611
530 6.29801
535 5.72384
540 5.24777
545 4.32503
550 4.12135
555 3.40742
560 2.95705
565 2.56623
570 2.07241
575 1.68603
580 1.39294
585 1.05452
590 0.777442
595 0.708504
600 0.360878
Ex : 333
200 0.250554
205 0.323529
210 0.21798
215 0.276889
220 0.193389
225 0.10468
230 0.264803
235 0.228265
240 0.345435
245 0.332268
250 0.232859
255 0.232192
260 0.210753
265 0.260359
270 0.251512
275 0.260544
280 0.199983
285 0.277187
290 0.340387
295 0.200135
300 0.286254
305 0.194079
310 0.229572
315 0.235406
320 4.36553
325 83.9937
330 142.276
335 37.8085
340 7.65119
345 5.54214
350 5.86239
355 6.77406
360 10.2133
365 14.5177
370 15.5701
375 16.2483
380 16.5511
385 18.0365
390 19.187
395 19.6986
400 20.5928
405 20.6933
410 21.8245
415 21.0549
420 20.9143
425 20.1944
430 19.9661
435 19.2653
440 19.7752
445 18.3041
450 18.4867
455 17.886
460 16.7955
465 15.8423
470 16.7221
475 14.7195
480 13.8566
485 13.507
490 12.5934
495 11.7911
500 11.3634
505 10.1795
510 9.24339
515 8.28296
520 7.41583
525 7.04418
530 5.90895
535 5.58934
540 4.57423
545 4.28465
550 4.165
555 3.56524
560 2.99689
565 2.41189
570 1.98371
575 1.86886
580 1.32017
585 1.03428
590 0.936012
595 0.774821
600 0.171253
Ex : 338
200 0.243774
205 0.142055
210 0.148489
215 0.192675
220 0.130169
225 0.217486
230 0.251551
235 0.193791
240 0.170491
245 0.166976
250 0.209883
255 0.136897
260 0.193521
265 0.163979
270 0.180324
275 0.263789
280 0.246501
285 0.239369
290 0.259072
295 0.323863
300 0.224731
305 0.220209
310 0.243373
315 0.209812
320 0.380792
325 7.58205
330 121.523
335 179.045
340 45.5488
345 7.83463
350 4.31578
355 4.13506
360 4.34677
365 6.41397
370 11.0153
375 11.8309
380 10.4525
385 9.63677
390 10.2921
395 10.6384
400 11.2438
405 11.5859
410 11.4839
415 11.4267
420 11.6263
425 11.1191
430 11.3238
435 11.2755
440 11.8413
445 11.6284
450 11.6337
455 11.7624
460 12.1881
465 11.7219
470 12.3677
475 12.7027
480 11.9771
485 11.8119
490 11.5301
495 10.9437
500 10.6666
505 9.77383
510 9.14895
515 8.72477
520 7.6753
525 6.58034
530 6.6411
535 5.85099
540 5.28792
545 4.43244
550 4.26435
555 3.69021
560 3.34836
565 2.70898
570 2.33392
575 1.88964
580 1.41553
585 1.32919
590 1.14133
595 0.822937
600 0.602743
Ex : 343
200 0.140799
205 0.163537
210 0.207654
215 0.123279
220 0.207238
225 0.226718
230 0.321761
235 0.222162
240 0.205424
245 0.210628
250 0.245729
255 0.204731
260 0.228891
265 0.225554
270 0.125234
275 0.175164
280 0.256458
285 0.321655
290 0.218898
295 0.239827
300 0.226903
305 0.181496
310 0.172562
315 0.15158
320 0.247832
325 0.49247
330 8.82311
335 134.673
340 196.216
345 47.7753
350 7.52159
355 3.89063
360 3.25333
365 2.81166
370 4.45748
375 8.77473
380 10.02
385 8.12476
390 7.13893
395 7.30432
400 7.71159
405 7.95586
410 8.10513
415 8.36736
420 8.53348
425 8.48948
430 8.95422
435 8.8128
440 9.34156
445 9.35089
450 10.1143
455 10.7097
460 11.3182
465 12.1118
470 12.4104
475 12.5283
480 12.842
485 12.7777
490 12.4167
495 12.488
500 11.7118
505 11.2258
510 10.579
515 9.69892
520 8.71224
525 8.03938
530 7.20461
535 6.6715
540 5.98514
545 5.44647
550 4.92345
555 4.46486
560 3.91404
565 3.46109
570 2.89991
575 2.34115
580 1.78526
585 1.35225
590 1.05505
595 0.902578
600 0.836322
Ex : 348
200 0.159746
205 0.168845
210 0.213463
215 0.141651
220 0.188104
225 0.276094
230 0.219587
235 0.143399
240 0.205196
245 0.238512
250 0.227646
255 0.175858
260 0.186781
265 0.15707
270 0.174975
275 0.143279
280 0.148169
285 0.25539
290 0.144778
295 0.133626
300 0.143578
305 0.200292
310 0.275679
315 0.215841
320 0.214168
325 0.205808
330 0.350527
335 9.05998
340 134.902
345 200.36
350 51.9593
355 7.59682
360 3.11609
365 2.70931
370 2.25337
375 3.67872
380 6.87446
385 9.35444
390 7.6307
395 6.60151
400 6.23604
405 6.58617
410 7.13352
415 7.49346
420 7.30439
425 8.09165
430 8.10626
435 8.21061
440 8.79198
445 9.76612
450 10.1644
455 11.382
460 12.3434
465 12.8641
470 13.615
475 14.3486
480 14.6217
485 14.245
490 15.0386
495 14.6511
500 14.4251
505 13.7365
510 12.3826
515 11.9304
520 11.0455
525 10.1327
530 9.45592
535 8.21031
540 8.25853
545 6.68665
550 6.00652
555 5.51406
560 5.00951
565 4.12504
570 3.71087
575 2.93179
580 2.16958
585 1.70075
590 1.19498
595 1.0031
600 1.34946
Ex : 353
200 0.213163
205 0.148999
210 0.16161
215 0.110295
220 0.175764
225 0.185759
230 0.175523
235 0.148077
240 0.145429
245 0.15202
250 0.159708
255 0.159628
260 0.185086
265 0.137217
270 0.135148
275 0.25753
280 0.231102
285 0.16738
290 0.214031
295 0.201476
300 0.261272
305 0.180715
310 0.17937
315 0.19593
320 0.165577
325 0.192135
330 0.228529
335 0.432535
340 8.96892
345 134.863
350 194.278
355 48.3876
360 6.98552
365 2.80825
370 2.73483
375 2.98078
380 3.05806
385 5.62884
390 8.32514
395 7.88748
400 6.9156
405 6.40465
410 6.46249
415 6.56816
420 6.83052
425 7.2858
430 7.7149
435 7.86096
440 8.53895
445 9.48004
450 10.3159
455 12.1208
460 13.5441
465 14.6709
470 15.7256
475 16.7301
480 17.0637
485 16.9133
490 17.3265
495 16.9997
500 16.9612
505 16.2446
510 15.283
515 14.8385
520 13.1179
525 11.6281
530 11.1391
535 10.3471
540 9.34228
545 7.86936
550 7.35557
555 6.65578
560 5.77368
565 5.0872
570 4.25605
575 3.36188
580 2.77207
585 1.8871
590 1.54573
595 1.35235
600 1.60449
Ex : 358
200 0.0993112
205 0.117945
210 0.134806
215 0.189402
220 0.146454
225 0.164311
230 0.179419
235 0.190158
240 0.132736
245 0.129063
250 0.119215
255 0.116082
260 0.168104
265 0.201783
270 0.128611
275 0.152635
280 0.127893
285 0.202933
290 0.164105
295 0.199485
300 0.188933
305 0.192065
310 0.178573
315 0.143889
320 0.118183
325 0.213322
330 0.183695
335 0.242899
340 0.418871
345 8.07767
350 129.002
355 198.119
360 50.2298
365 7.15769
370 2.91871
375 3.43597
380 3.33483
385 3.02586
390 4.83113
395 8.67979
400 9.13973
405 7.83277
410 6.82268
415 6.51599
420 6.59831
425 6.97399
430 7.52558
435 7.86884
440 8.72482
445 9.5555
450 10.7614
455 12.5144
460 14
465 15.9568
470 16.6863
475 17.7636
480 18.5681
485 19.2837
490 19.2466
495 18.346
500 18.2206
505 17.9983
510 16.5682
515 16.0579
520 15.1909
525 13.7573
530 12.72
535 11.4203
540 10.3402
545 9.22659
550 8.2026
555 7.32879
560 6.48246
565 5.38003
570 4.48384
575 3.77074
580 2.98835
585 2.28437
590 1.6725
595 1.32676
600 1.22742
Ex : 363
200 0.127304
205 0.186569
210 0.172092
215 0.140112
220 0.127433
225 0.190971
230 0.162361
235 0.143045
240 0.125673
245 0.166856
250 0.16803
255 0.220225
260 0.175828
265 0.128115
270 0.116401
275 0.116582
280 0.148805
285 0.125567
290 0.175332
295 0.153783
300 0.114871
305 0.135981
310 0.156979
315 0.141477
320 0.108056
325 0.111865
330 0.163037
335 0.202795
340 0.213096
345 0.314808
350 7.67804
355 122.449
360 193.722
365 50.4241
370 7.25012
375 3.00984
380 3.5025
385 3.19731
390 3.30018
395 4.42559
400 7.96908
405 8.81418
410 7.67429
415 7.31939
420 6.79505
425 6.93025
430 7.28198
435 7.82853
440 9.08088
445 9.63088
450 11.5123
455 13.8117
460 15.0254
465 17.264
470 18.8846
475 20.07
480 20.8135
485 21.3545
490 22.0784
495 21.4269
500 20.7063
505 20.5431
510 19.51
515 18.1345
520 16.4733
525 15.4795
530 13.612
535 12.9795
540 11.3904
545 10.4814
550 9.77205
555 8.39159
560 7.39013
565 6.23934
570 5.35416
575 4.26061
580 3.1778
585 2.63115
590 2.05743
595 1.76719
600 1.7833
Ex : 368
200 0.209239
205 0.108674
210 0.144935
215 0.149302
220 0.122317
225 0.129278
230 0.13397
235 0.146051
240 0.101806
245 0.134964
250 0.1627
255 0.114352
260 0.160876
265 0.170774
270 0.176046
275 0.16814
280 0.137496
285 0.120391
290 0.160204
295 0.118874
300 0.135329
305 0.145427
310 0.157706
315 0.127036
320 0.147092
325 0.166702
330 0.227789
335 0.141273
340 0.191726
345 0.192528
350 0.310884
355 6.05615
360 116.221
365 190.173
370 50.8926
375 7.45438
380 2.95806
385 3.27977
390 3.0332
395 2.94317
400 3.89224
405 6.85264
410 8.67333
415 7.66659
420 6.74557
425 6.25247
430 6.17923
435 7.36751
440 8.57161
445 9.76449
450 11.8878
455 14.0343
460 16.883
465 19.3326
470 21.4228
475 22.8486
480 24.4452
485 25.0076
490 25.4466
495 25.2082
500 25.6169
505 23.7302
510 23.0256
515 21.238
520 20.1159
525 18.409
530 17.1919
535 15.4173
540 14.0365
545 12.4935
550 11.6065
555 10.1698
560 8.99358
565 7.71363
570 6.62694
575 5.30491
580 3.88025
585 3.01596
590 2.4758
595 1.91664
600 1.54134
Ex : 373
200 0.177877
205 0.1762
210 0.0981131
215 0.111408
220 0.124516
225 0.128044
230 0.0987024
235 0.0837229
240 0.137104
245 0.161308
250 0.142008
255 0.116896
260 0.110502
265 0.144297
270 0.0892993
275 0.115081
280 0.175339
285 0.187316
290 0.0964726
295 0.0931196
300 0.11745
305 0.139847
310 0.102283
315 0.124159
320 0.129865
325 0.15224
330 0.114937
335 0.159332
340 0.171055
345 0.238875
350 0.180166
355 0.305746
360 6.94982
365 116.712
370 192.806
375 53.8595
380 8.14087
385 2.94528
390 2.94094
395 3.312
400 3.23769
405 3.68688
410 6.14774
415 8.15117
420 7.78548
425 6.83875
430 5.95209
435 6.34166
440 7.25142
445 9.38198
450 11.6551
455 14.3198
460 17.2755
465 19.888
470 22.2597
475 24.2293
480 25.5858
485 27.0957
490 27.6366
495 27.4832
500 27.2702
505 26.7316
510 25.2483
515 23.1382
520 21.8813
525 20.1874
530 18.3533
535 17.0228
540 15.7882
545 14.1057
550 12.6637
555 11.223
560 9.69727
565 8.38626
570 7.022
575 5.48351
580 4.42651
585 3.59889
590 2.56799
595 2.03891
600 1.18758
Ex : 378
200 0.0813817
205 0.130342
210 0.0764242
215 0.0929599
220 0.123931
225 0.0990873
230 0.152984
235 0.09913
240 0.167422
245 0.109942
250 0.0860347
255 0.147445
260 0.144545
265 0.0972677
270 0.180859
275 0.172859
280 0.166601
285 0.143259
290 0.123122
295 0.107433
300 0.12335
305 0.0721283
310 0.157849
315 0.107843
320 0.0882524
325 0.165376
330 0.12324
335 0.170387
340 0.153697
345 0.166454
350 0.233034
355 0.217645
360 0.326078
365 7.00219
370 121.793
375 202.962
380 55.9574
385 8.64295
390 3.45767
395 3.68885
400 3.71914
405 3.70858
410 3.79793
415 5.3174
420 8.10742
425 7.98618
430 7.26789
435 7.05542
440 7.48349
445 8.93515
450 11.3725
455 14.1052
460 16.8541
465 19.443
470 21.4978
475 23.427
480 24.8318
485 25.4855
490 26.4245
495 26.6044
500 26.1254
505 25.3577
510 24.2859
515 22.599
520 20.5939
525 19.073
530 17.7599
535 16.5982
540 14.7884
545 13.526
550 12.3476
555 10.8299
560 9.18907
565 8.20863
570 6.75994
575 5.51129
580 4.3437
585 3.15518
590 2.64917
595 2.08847
600 1.18612
Ex : 383
200 0.197778
205 0.168482
210 0.113826
215 0.165982
220 0.0994143
225 0.11083
230 0.121487
235 0.128788
240 0.0759889
245 0.127147
250 0.0971567
255 0.106297
260 0.152454
265 0.193438
270 0.166451
275 0.10335
280 0.129067
285 0.143959
290 0.113394
295 0.1323
300 0.0881218
305 0.15304
310 0.199536
315 0.113702
320 0.133099
325 0.127574
330 0.0986901
335 0.126151
340 0.14495
345 0.165474
350 0.229225
355 0.176004
360 0.234038
365 0.334243
370 6.71523
375 123.428
380 210.42
385 58.1503
390 8.90148
395 3.41441
400 3.30669
405 3.88455
410 4.08429
415 4.12776
420 5.20461
425 7.34935
430 8.45081
435 7.80684
440 8.13942
445 8.99605
450 11.3916
455 13.9758
460 17.0072
465 19.3889
470 21.5292
475 23.9397
480 24.7675
485 25.9867
490 26.805
495 26.6265
500 26.3584
505 24.9394
510 24.1788
515 22.589
520 20.8753
525 19.3565
530 17.2513
535 16.4361
540 15.0158
545 13.6697
550 12.0086
555 10.7715
560 9.3149
565 7.96516
570 6.7391
575 5.32273
580 4.14115
585 3.335
590 2.52651
595 2.00685
600 1.28205
Ex : 388
200 0.100873
205 0.0915736
210 0.123646
215 0.103519
220 0.116958
225 0.0879294
230 0.104184
235 0.107958
240 0.107866
245 0.127568
250 0.0854357
255 0.112258
260 0.0812543
265 0.119148
270 0.108253
275 0.11846
280 0.128231
285 0.168802
290 0.0965671
295 0.157869
300 0.107174
305 0.179858
310 0.151354
315 0.107638
320 0.110591
325 0.123583
330 0.141047
335 0.146824
340 0.165813
345 0.129624
350 0.157489
355 0.167192
360 0.206641
365 0.252468
370 0.309189
375 7.16571
380 129.35
385 215.152
390 59.4931
395 8.79892
400 2.88634
405 3.15102
410 3.745
415 3.5591
420 3.5518
425 4.00831
430 6.78586
435 8.66176
440 8.69586
445 9.60389
450 11.1351
455 13.664
460 16.6589
465 19.1915
470 21.9184
475 24.2253
480 25.8538
485 26.7978
490 27.5345
495 27.9149
500 27.3635
505 26.2208
510 25.2373
515 23.8327
520 22.1398
525 20.4733
530 18.756
535 17.203
540 15.74
545 14.1112
550 12.7245
555 11.5617
560 9.85511
565 8.71196
570 7.27965
575 5.80737
580 4.52782
585 3.50831
590 2.58067
595 2.1214
600 2.19372
Ex : 393
200 0.113038
205 0.0889086
210 0.083955
215 0.0843894
220 0.0929772
225 0.133319
230 0.170999
235 0.152245
240 0.122549
245 0.0880388
250 0.0876074
255 0.132472
260 0.107007
265 0.0864095
270 0.105927
275 0.0881214
280 0.073991
285 0.103447
290 0.0900358
295 0.0562276
300 0.118856
305 0.0870441
310 0.157312
315 0.143077
320 0.135751
325 0.111923
330 0.10854
335 0.144559
340 0.137383
345 0.117832
350 0.103902
355 0.108944
360 0.13368
365 0.181949
370 0.212967
375 0.352518
380 6.34781
385 125.786
390 217.26
395 59.7411
400 8.37609
405 2.56738
410 2.79361
415 2.91237
420 2.94001
425 2.85068
430 3.29871
435 5.83334
440 8.8345
445 10.1435
450 11.5653
455 13.859
460 17.0812
465 19.841
470 22.7547
475 24.8045
480 26.5193
485 27.4741
490 29.0867
495 29.4051
500 28.8635
505 27.4412
510 26.4114
515 24.4731
520 23.6271
525 21.6308
530 19.3289
535 18.0189
540 16.7657
545 14.9271
550 13.6374
555 12.2093
560 10.5419
565 9.03425
570 7.60982
575 6.15824
580 4.82712
585 3.60098
590 3.04312
595 2.25282
600 1.56973
Ex : 398
200 0.161535
205 0.110299
210 0.0925817
215 0.0984672
220 0.0836221
225 0.0809514
230 0.102351
235 0.128542
240 0.132095
245 0.148088
250 0.139015
255 0.0930596
260 0.0821093
265 0.126703
270 0.0928472
275 0.0765926
280 0.0913085
285 0.104831
290 0.072382
295 0.11615
300 0.120967
305 0.133225
310 0.0997269
315 0.123444
320 0.102436
325 0.138351
330 0.125629
335 0.14449
340 0.183396
345 0.132173
350 0.161194
355 0.137067
360 0.123659
365 0.132314
370 0.168606
375 0.225975
380 0.239479
385 6.38106
390 129.792
395 222.794
400 60.858
405 8.60298
410 2.63864
415 2.50857
420 2.91164
425 2.67822
430 3.10603
435 3.7957
440 6.16422
445 10.1987
450 12.7056
455 14.8851
460 18.065
465 20.572
470 23.5412
475 25.9584
480 27.4127
485 29.3055
490 29.6591
495 30.2242
500 29.8873
505 29.0738
510 27.8487
515 26.0441
520 24.4373
525 22.6142
530 20.8751
535 18.6108
540 17.0276
545 15.6718
550 14.5396
555 12.9717
560 11.1476
565 9.79066
570 7.70383
575 6.39298
580 4.95714
585 3.77411
590 2.97201
595 2.33662
600 1.5861
Ex : 403
200 0.10613
205 0.124889
210 0.124797
215 0.109141
220 0.0945565
225 0.118993
230 0.0887389
235 0.0972337
240 0.094094
245 0.156333
250 0.0856185
255 0.140462
260 0.101503
265 0.100193
270 0.162876
275 0.0959827
280 0.116919
285 0.0981426
290 0.103267
295 0.125755
300 0.135996
305 0.0885596
310 0.0987634
315 0.10884
320 0.0822817
325 0.118896
330 0.143649
335 0.101584
340 0.110546
345 0.141712
350 0.142146
355 0.125152
360 0.10381
365 0.179789
370 0.159328
375 0.179147
380 0.251778
385 0.288833
390 7.18915
395 133.836
400 223.566
405 61.8378
410 8.76614
415 2.7328
420 2.58249
425 2.73626
430 2.86057
435 3.43731
440 4.71328
445 7.53085
450 12.4072
455 16.8319
460 18.9832
465 21.6157
470 24.2395
475 26.0532
480 28.1335
485 29.8455
490 30.4559
495 30.9356
500 31.0406
505 29.3242
510 28.0575
515 26.5512
520 24.7024
525 23.3194
530 21.3276
535 19.6207
540 17.5408
545 15.8887
550 14.5405
555 13.0748
560 11.626
565 9.49796
570 8.09841
575 6.41011
580 5.15836
585 3.95131
590 3.00813
595 2.42417
600 1.95995
Ex : 408
200 0.0829087
205 0.156016
210 0.130818
215 0.11823
220 0.0946381
225 0.0831126
230 0.105145
235 0.100211
240 0.0999878
245 0.102977
250 0.0661388
255 0.103722
260 0.1315
265 0.132676
270 0.0881781
275 0.0720679
280 0.111846
285 0.093206
290 0.156983
295 0.0830896
300 0.0853927
305 0.113832
310 0.10278
315 0.0857875
320 0.0977172
325 0.160973
330 0.135972
335 0.0898561
340 0.0786955
345 0.128873
350 0.182957
355 0.122096
360 0.152699
365 0.131039
370 0.135388
375 0.145128
380 0.156971
385 0.267619
390 0.377974
395 7.25563
400 138.732
405 230.493
410 62.6925
415 8.92062
420 2.86929
425 2.31955
430 3.08736
435 3.6068
440 4.57334
445 6.91192
450 10.0816
455 15.1736
460 19.8631
465 22.2076
470 24.6182
475 26.5149
480 28.1723
485 30.0968
490 30.6714
495 31.2853
500 30.9296
505 30.1577
510 28.7269
515 26.4517
520 25.1939
525 23.2225
530 21.486
535 19.5948
540 18.115
545 16.0773
550 14.7356
555 12.8735
560 11.1484
565 9.81431
570 8.14626
575 6.4535
580 5.07482
585 3.90945
590 3.21224
595 2.55407
600 1.84602
Ex : 413
200 0.105004
205 0.0986198
210 0.10611
215 0.114485
220 0.118058
225 0.152425
230 0.113921
235 0.190558
240 0.148265
245 0.0918151
250 0.126037
255 0.115477
260 0.0871846
265 0.0828143
270 0.0602885
275 0.0755783
280 0.105027
285 0.103589
290 0.0948741
295 0.0984825
300 0.0758789
305 0.0964777
310 0.0828484
315 0.0969454
320 0.151819
325 0.135952
330 0.110095
335 0.0947441
340 0.178803
345 0.133555
350 0.180316
355 0.14619
360 0.144036
365 0.117252
370 0.140488
375 0.140587
380 0.181404
385 0.137545
390 0.222749
395 0.321718
400 8.24813
405 142.707
410 233.45
415 61.5625
420 8.56771
425 2.67439
430 2.36504
435 3.16161
440 4.50487
445 6.26343
450 9.34233
455 13.0328
460 17.3616
465 22.8785
470 24.4077
475 26.7402
480 28.8821
485 29.1572
490 30.0548
495 30.6379
500 30.5559
505 29.6931
510 28.1099
515 26.4548
520 24.8069
525 22.5607
530 21.273
535 19.1721
540 17.6244
545 16.1564
550 14.4524
555 12.8102
560 11.6009
565 9.90068
570 8.3521
575 6.4519
580 5.10362
585 3.97721
590 3.06167
595 2.33832
600 2.13566
Ex : 418
200 0.0727145
205 0.114374
210 0.105432
215 0.0860643
220 0.11344
225 0.0763138
230 0.112819
235 0.109147
240 0.102677
245 0.109169
250 0.130774
255 0.086832
260 0.152146
265 0.0661142
270 0.14321
275 0.146551
280 0.0898146
285 0.106465
290 0.124806
295 0.136846
300 0.10515
305 0.130662
310 0.118942
315 0.120584
320 0.113653
325 0.12189
330 0.117349
335 0.0960495
340 0.163688
345 0.114862
350 0.110441
355 0.130421
360 0.122905
365 0.134943
370 0.125297
375 0.169463
380 0.142835
385 0.182356
390 0.184326
395 0.226102
400 0.384208
405 7.83394
410 148.162
415 240.686
420 65.1075
425 8.83495
430 2.69543
435 2.48297
440 3.81207
445 5.7265
450 8.13626
455 11.3372
460 15.0643
465 18.8427
470 23.8236
475 26.5643
480 27.4293
485 28.5975
490 29.1461
495 29.1525
500 28.8431
505 28.1609
510 26.9619
515 25.364
520 23.282
525 22.1296
530 20.2567
535 18.5901
540 16.8901
545 15.292
550 13.8774
555 12.3673
560 10.8736
565 9.65253
570 7.5373
575 6.11636
580 4.96371
585 3.62051
590 2.88531
595 2.17322
600 1.98775
Ex : 423
200 0.12076
205 0.117484
210 0.0861499
215 0.124047
220 0.149759
225 0.0938505
230 0.125367
235 0.0921911
240 0.0754932
245 0.0865717
250 0.130887
255 0.0828776
260 0.109918
265 0.0985413
270 0.151898
275 0.0819276
280 0.0865199
285 0.112143
290 0.164892
295 0.12448
300 0.0938374
305 0.120089
310 0.0869809
315 0.0909109
320 0.160416
325 0.104416
330 0.135168
335 0.0994086
340 0.0948981
345 0.128414
350 0.116665
355 0.124695
360 0.129218
365 0.115133
370 0.147417
375 0.144603
380 0.142064
385 0.143084
390 0.182446
395 0.167964
400 0.212482
405 0.362213
410 8.12732
415 155.51
420 245.559
425 63.2698
430 8.78271
435 2.80432
440 3.25209
445 5.49594
450 7.90286
455 10.3818
460 14.136
465 17.0393
470 19.8421
475 23.1556
480 27.0603
485 27.1309
490 27.7392
495 28.0416
500 27.006
505 26.2831
510 24.6404
515 23.354
520 21.6213
525 20.2906
530 18.6268
535 17.2024
540 15.5085
545 14.3603
550 12.7944
555 11.5514
560 9.85514
565 8.81394
570 7.08464
575 5.67462
580 4.52127
585 3.66626
590 2.89424
595 2.16615
600 2.23541
Ex : 428
200 0.123633
205 0.138768
210 0.16111
215 0.107499
220 0.133352
225 0.143301
230 0.0910974
235 0.0935148
240 0.123151
245 0.139685
250 0.0921037
255 0.103242
260 0.108159
265 0.0803361
270 0.0865468
275 0.104595
280 0.0889234
285 0.0904638
290 0.0945905
295 0.0873504
300 0.154878
305 0.120976
310 0.0895622
315 0.147142
320 0.0949511
325 0.131832
330 0.103665
335 0.0889942
340 0.123017
345 0.0929366
350 0.124535
355 0.114765
360 0.171923
365 0.153227
370 0.156597
375 0.157314
380 0.142218
385 0.160604
390 0.144369
395 0.165775
400 0.169479
405 0.284642
410 0.337188
415 9.27209
420 159.469
425 256.602
430 68.1973
435 9.63266
440 3.94088
445 4.44603
450 7.12755
455 9.64929
460 12.3121
465 15.257
470 17.4135
475 19.8819
480 22.8447
485 25.0343
490 25.7284
495 25.2319
500 24.541
505 23.9726
510 22.2025
515 21.0754
520 20.0404
525 18.7957
530 16.9512
535 15.7124
540 14.3765
545 13.0239
550 11.4935
555 10.2669
560 8.95157
565 7.85586
570 6.57133
575 5.2756
580 4.12051
585 3.1682
590 2.50008
595 1.91599
600 1.7549
Ex : 433
200 0.138822
205 0.12669
210 0.152756
215 0.0935238
220 0.0916174
225 0.148474
230 0.104573
235 0.103688
240 0.121421
245 0.10828
250 0.128004
255 0.102402
260 0.123837
265 0.161638
270 0.12741
275 0.139072
280 0.103821
285 0.12023
290 0.13517
295 0.109221
300 0.0957109
305 0.0971585
310 0.121895
315 0.129026
320 0.110728
325 0.0936157
330 0.128794
335 0.10291
340 0.128742
345 0.0947721
350 0.112205
355 0.131146
360 0.109897
365 0.130628
370 0.0967433
375 0.124777
380 0.122408
385 0.162487
390 0.197774
395 0.150352
400 0.209731
405 0.21011
410 0.24199
415 0.413946
420 10.6092
425 179.254
430 267.923
435 68.1495
440 10.1996
445 4.98045
450 5.9783
455 8.59914
460 11.2485
465 13.0681
470 15.23
475 17.335
480 18.7195
485 21.1576
490 23.5336
495 23.3822
500 21.9863
505 21.3061
510 20.1956
515 19.191
520 17.501
525 16.1862
530 14.7591
535 13.3868
540 12.5428
545 11.5945
550 10.2437
555 9.23431
560 8.19243
565 6.8529
570 5.7496
575 4.48307
580 3.63953
585 2.68312
590 2.08407
595 1.6768
600 1.46623
Ex : 438
200 0.0868524
205 0.0950665
210 0.13191
215 0.112248
220 0.127049
225 0.12461
230 0.109305
235 0.0960346
240 0.145812
245 0.0917177
250 0.0763084
255 0.0747809
260 0.112096
265 0.125235
270 0.111754
275 0.129396
280 0.13814
285 0.0812162
290 0.124275
295 0.079436
300 0.128316
305 0.108179
310 0.122808
315 0.139454
320 0.0979607
325 0.155294
330 0.123662
335 0.0958591
340 0.151609
345 0.177184
350 0.125619
355 0.120799
360 0.105558
365 0.0888592
370 0.0831085
375 0.177848
380 0.121269
385 0.115542
390 0.143585
395 0.133486
400 0.141577
405 0.215619
410 0.208027
415 0.212075
420 0.330603
425 10.3693
430 179.415
435 288.826
440 74.3764
445 11.6549
450 6.18339
455 7.04868
460 9.24879
465 11.5208
470 12.881
475 14.5022
480 15.7731
485 17.0841
490 17.83
495 20.091
500 20.1649
505 17.8708
510 17.1321
515 15.9268
520 14.7914
525 13.6531
530 12.6846
535 11.4577
540 10.5713
545 9.45312
550 8.54032
555 7.76114
560 6.83772
565 5.85449
570 4.92345
575 3.99755
580 3.10358
585 2.35853
590 1.73948
595 1.53195
600 2.66883
Ex : 443
200 0.136936
205 0.151679
210 0.0936017
215 0.0818534
220 0.080467
225 0.0817658
230 0.11012
235 0.0867151
240 0.0951321
245 0.11225
250 0.142432
255 0.125247
260 0.079536
265 0.133024
270 0.115597
275 0.117803
280 0.121512
285 0.165141
290 0.121365
295 0.102783
300 0.091887
305 0.0927539
310 0.132472
315 0.093193
320 0.089334
325 0.0895627
330 0.11774
335 0.127091
340 0.179204
345 0.108308
350 0.135077
355 0.0969971
360 0.135255
365 0.184762
370 0.12155
375 0.172131
380 0.188211
385 0.154754
390 0.108584
395 0.177307
400 0.132213
405 0.132207
410 0.185673
415 0.181214
420 0.332744
425 0.4403
430 12.1265
435 197.872
440 305.108
445 78.592
450 12.8018
455 6.84362
460 7.50701
465 9.30711
470 10.7109
475 11.6975
480 12.8267
485 13.7105
490 13.8968
495 14.6808
500 15.6009
505 16.1255
510 14.7201
515 13.4981
520 12.8038
525 11.4745
530 10.1139
535 9.22796
540 8.56859
545 7.76156
550 6.80751
555 6.35956
560 5.7132
565 4.74475
570 3.91691
575 3.16039
580 2.59924
585 1.96503
590 1.53912
595 1.20325
600 1.10966
Ex : 448
200 0.0784266
205 0.0960203
210 0.123569
215 0.124299
220 0.109663
225 0.100289
230 0.117545
235 0.114794
240 0.100248
245 0.0781663
250 0.102982
255 0.1373
260 0.149861
265 0.150671
270 0.120964
275 0.127899
280 0.156072
285 0.103508
290 0.0819405
295 0.0961805
300 0.0960143
305 0.145112
310 0.111546
315 0.145144
320 0.137021
325 0.105388
330 0.079271
335 0.105915
340 0.110703
345 0.141185
350 0.0894073
355 0.103546
360 0.108213
365 0.121698
370 0.129793
375 0.14218
380 0.104248
385 0.0875916
390 0.131298
395 0.132217
400 0.117278
405 0.156349
410 0.151563
415 0.218025
420 0.232166
425 0.250592
430 0.505776
435 12.7408
440 215.28
445 324.145
450 83.0356
455 13.5546
460 6.69578
465 6.70595
470 8.04137
475 9.08025
480 9.62033
485 10.3521
490 10.3149
495 10.363
500 10.4999
505 11.2236
510 12.6932
515 11.1783
520 9.99733
525 8.80181
530 7.98398
535 7.28507
540 6.54921
545 6.11207
550 5.32035
555 4.82984
560 4.22855
565 3.6659
570 3.19982
575 2.45631
580 1.85333
585 1.51646
590 1.26581
595 1.08289
600 0.715033
Ex : 453
200 0.109183
205 0.115582
210 0.108843
215 0.0918316
220 0.132683
225 0.122831
230 0.0791125
235 0.100684
240 0.0999621
245 0.0977928
250 0.0995445
255 0.106174
260 0.133419
265 0.0999682
270 0.0873402
275 0.124869
280 0.141623
285 0.106026
290 0.101247
295 0.142962
300 0.1198
305 0.149259
310 0.132447
315 0.101329
320 0.105925
325 0.154703
330 0.135062
335 0.0962035
340 0.0633364
345 0.183889
350 0.117868
355 0.0980986
360 0.114514
365 0.12159
370 0.125684
375 0.129125
380 0.157033
385 0.140942
390 0.127526
395 0.15325
400 0.132681
405 0.151776
410 0.181209
415 0.155171
420 0.166321
425 0.235594
430 0.321019
435 0.556083
440 13.443
445 228.66
450 334.853
455 80.8281
460 12.863
465 5.9327
470 5.61546
475 6.35158
480 6.61023
485 7.56267
490 7.32303
495 7.50622
500 7.29886
505 7.30033
510 7.28431
515 8.33377
520 8.25274
525 6.99843
530 6.31583
535 5.6128
540 4.84592
545 4.28727
550 4.05105
555 3.43069
560 3.21255
565 2.6105
570 2.25325
575 1.85327
580 1.39441
585 1.15924
590 0.848136
595 0.699277
600 0.271492
Ex : 458
200 0.0641804
205 0.105016
210 0.147173
215 0.0919941
220 0.172236
225 0.0908467
230 0.0780882
235 0.124952
240 0.0929478
245 0.102627
250 0.0695142
255 0.116884
260 0.136344
265 0.125844
270 0.125765
275 0.08187
280 0.102749
285 0.0898081
290 0.139363
295 0.113577
300 0.137514
305 0.120514
310 0.08879
315 0.115384
320 0.131791
325 0.10082
330 0.109735
335 0.150106
340 0.126359
345 0.107368
350 0.0986
355 0.122233
360 0.12801
365 0.115235
370 0.129067
375 0.157871
380 0.107561
385 0.165674
390 0.124657
395 0.121964
400 0.144019
405 0.10941
410 0.165029
415 0.143996
420 0.170923
425 0.232882
430 0.203784
435 0.307502
440 0.63997
445 15.4716
450 238.193
455 354.264
460 87.1976
465 13.1079
470 4.92614
475 4.03499
480 4.46305
485 4.98835
490 4.96761
495 4.88289
500 4.86093
505 4.82403
510 4.81234
515 4.61243
520 5.58525
525 5.84861
530 4.8436
535 3.99053
540 3.86682
545 3.24299
550 2.75074
555 2.50559
560 2.23097
565 1.94351
570 1.64516
575 1.36443
580 1.04582
585 0.776856
590 0.668971
595 0.549426
600 0.860983
Ex : 463
200 0.0729996
205 0.125825
210 0.115418
215 0.105276
220 0.102452
225 0.113748
230 0.163888
235 0.12054
240 0.117481
245 0.115895
250 0.0943699
255 0.0906872
260 0.0639353
265 0.0869683
270 0.10883
275 0.104498
280 0.0904652
285 0.123678
290 0.117173
295 0.0726418
300 0.115607
305 0.106948
310 0.0864107
315 0.0943095
320 0.094289
325 0.141627
330 0.118348
335 0.0796842
340 0.123792
345 0.105706
350 0.0953574
355 0.117119
360 0.120846
365 0.103444
370 0.180901
375 0.105845
380 0.149651
385 0.120493
390 0.0986092
395 0.100033
400 0.16698
405 0.119726
410 0.132265
415 0.148045
420 0.147766
425 0.13561
430 0.239391
435 0.270081
440 0.304587
445 0.635022
450 14.6431
455 243.843
460 368.11
465 90.0632
470 12.6967
475 3.95017
480 3.0666
485 3.04661
490 3.54151
495 3.47531
500 3.46343
505 3.1063
510 3.19711
515 2.98655
520 2.97507
525 3.54373
530 4.54353
535 3.94947
540 2.96802
545 2.58069
550 2.38093
555 1.88911
560 1.61223
565 1.46304
570 1.32104
575 1.10658
580 0.783236
585 0.672991
590 0.582068
595 0.482963
600 0.485638
Ex : 468
200 0.122708
205 0.0846237
210 0.106639
215 0.158085
220 0.101828
225 0.0716942
230 0.0661256
235 0.0991745
240 0.10905
245 0.138773
250 0.122711
255 0.103794
260 0.0838552
265 0.0958241
270 0.0977491
275 0.126255
280 0.123284
285 0.103086
290 0.150352
295 0.0695367
300 0.100488
305 0.115035
310 0.0922233
315 0.0805575
320 0.0843652
325 0.0814516
330 0.106979
335 0.10058
340 0.0985522
345 0.13243
350 0.102318
355 0.111136
360 0.108699
365 0.11786
370 0.111499
375 0.135031
380 0.14843
385 0.122282
390 0.126162
395 0.114995
400 0.131628
405 0.105616
410 0.102485
415 0.116462
420 0.106759
425 0.142651
430 0.223508
435 0.161691
440 0.264001
445 0.395805
450 0.666277
455 16.2399
460 244.151
465 379.994
470 92.3654
475 12.4147
480 3.33578
485 2.37129
490 2.28601
495 2.54951
500 2.59257
505 2.29758
510 2.12634
515 2.03602
520 2.0111
525 1.9928
530 2.4526
535 3.29243
540 3.44811
545 2.39483
550 1.99125
555 1.7991
560 1.43286
565 1.21594
570 1.06582
575 0.811117
580 0.7094
585 0.523888
590 0.445465
595 0.41745
600 0.653201
Ex : 473
200 0.14351
205 0.0717579
210 0.113328
215 0.123719
220 0.177502
225 0.09428
230 0.122656
235 0.152108
240 0.0725561
245 0.086714
250 0.108867
255 0.0751453
260 0.1181
265 0.0722262
270 0.14298
275 0.111098
280 0.105629
285 0.0871169
290 0.140419
295 0.115748
300 0.108196
305 0.0882619
310 0.0943998
315 0.131454
320 0.119622
325 0.0829322
330 0.141683
335 0.125109
340 0.07847
345 0.0959641
350 0.0982908
355 0.0874197
360 0.1217
365 0.130666
370 0.0897049
375 0.129843
380 0.0809403
385 0.0869468
390 0.10476
395 0.0806616
400 0.119774
405 0.0898928
410 0.0931014
415 0.114099
420 0.169945
425 0.13286
430 0.18671
435 0.185393
440 0.216656
445 0.242908
450 0.380548
455 0.609553
460 17.8701
465 266.339
470 370.662
475 85.5727
480 11.3553
485 2.92266
490 1.71066
495 1.6435
500 1.85198
505 1.89826
510 1.80529
515 1.75277
520 1.58447
525 1.64263
530 1.65095
535 1.78471
540 2.41957
545 3.11103
550 2.36125
555 1.63481
560 1.51512
565 1.30095
570 0.965502
575 0.695277
580 0.643268
585 0.531297
590 0.358849
595 0.375569
600 0.290664
Ex : 478
200 0.151325
205 0.132951
210 0.121201
215 0.155378
220 0.1363
225 0.166525
230 0.133923
235 0.149541
240 0.103263
245 0.161026
250 0.104282
255 0.108351
260 0.122628
265 0.11254
270 0.152398
275 0.123337
280 0.121091
285 0.144497
290 0.11304
295 0.0871319
300 0.110441
305 0.108553
310 0.118291
315 0.162345
320 0.146266
325 0.120139
330 0.106438
335 0.119063
340 0.123607
345 0.151812
350 0.156339
355 0.124801
360 0.118145
365 0.118059
370 0.116622
375 0.121007
380 0.122262
385 0.104342
390 0.113703
395 0.157092
400 0.139269
405 0.129623
410 0.170674
415 0.187973
420 0.125136
425 0.120578
430 0.127187
435 0.186399
440 0.204485
445 0.197961
450 0.249028
455 0.404892
460 0.5967
465 19.1902
470 268.066
475 367.888
480 88.8346
485 11.412
490 2.59198
495 1.48071
500 1.24533
505 1.64179
510 1.65685
515 1.54918
520 1.4368
525 1.28861
530 1.17784
535 1.28334
540 1.31747
545 1.93245
550 2.41145
555 2.11661
560 1.45662
565 1.25684
570 1.01349
575 0.909665
580 0.584158
585 0.537339
590 0.407929
595 0.302899
600 0.358153
Ex : 483
200 0.0929902
205 0.11738
210 0.143736
215 0.0996327
220 0.0668387
225 0.133971
230 0.109635
235 0.119981
240 0.153793
245 0.102459
250 0.100887
255 0.121093
260 0.0993403
265 0.0815048
270 0.160428
275 0.111993
280 0.13203
285 0.177177
290 0.204879
295 0.13721
300 0.14648
305 0.0881585
310 0.156745
315 0.115014
320 0.121213
325 0.11236
330 0.135264
335 0.125886
340 0.16005
345 0.0899351
350 0.100239
355 0.129702
360 0.137333
365 0.171262
370 0.0904395
375 0.139987
380 0.118222
385 0.128454
390 0.121583
395 0.160784
400 0.106066
405 0.141084
410 0.145523
415 0.130329
420 0.136149
425 0.12327
430 0.157133
435 0.151063
440 0.160201
445 0.199457
450 0.277188
455 0.286185
460 0.404757
465 0.517756
470 15.0903
475 262.761
480 394.187
485 94.0041
490 11.8555
495 2.43699
500 1.38093
505 1.2415
510 1.29764
515 1.55254
520 1.42906
525 1.40182
530 1.3336
535 1.2233
540 1.12764
545 1.12786
550 1.37793
555 2.25173
560 2.39159
565 1.41392
570 1.12982
575 0.882755
580 0.66586
585 0.580406
590 0.402635
595 0.322313
600 0.690332
Ex : 488
200 0.199496
205 0.139572
210 0.13652
215 0.116579
220 0.10632
225 0.147435
230 0.0854312
235 0.148181
240 0.101172
245 0.126734
250 0.104781
255 0.122345
260 0.0838091
265 0.0851094
270 0.116113
275 0.10655
280 0.116041
285 0.134338
290 0.193177
295 0.16417
300 0.129509
305 0.141994
310 0.140122
315 0.144349
320 0.115466
325 0.13961
330 0.14361
335 0.185575
340 0.165009
345 0.15928
350 0.15111
355 0.171253
360 0.123684
365 0.159727
370 0.118836
375 0.166798
380 0.11381
385 0.146899
390 0.157097
395 0.100062
400 0.145587
405 0.128154
410 0.115866
415 0.216068
420 0.148389
425 0.144509
430 0.172819
435 0.198266
440 0.175464
445 0.216542
450 0.203247
455 0.282891
460 0.325823
465 0.439392
470 0.643463
475 17.9727
480 272.96
485 387.117
490 91.8295
495 11.6643
500 2.40944
505 1.24112
510 1.11913
515 1.23408
520 1.44194
525 1.33489
530 1.31195
535 1.0157
540 1.15299
545 1.08731
550 1.03054
555 1.10918
560 1.67323
565 2.15824
570 1.37266
575 0.867268
580 0.737989
585 0.6306
590 0.429672
595 0.38461
600 0.1376
Ex : 493
200 0.159937
205 0.162883
210 0.126058
215 0.125501
220 0.172609
225 0.151441
230 0.112921
235 0.209574
240 0.120309
245 0.122859
250 0.139148
255 0.12917
260 0.146326
265 0.140166
270 0.118898
275 0.157664
280 0.140861
285 0.0991007
290 0.128961
295 0.120389
300 0.102147
305 0.132526
310 0.149683
315 0.137365
320 0.11217
325 0.121696
330 0.0867326
335 0.165109
340 0.144159
345 0.140832
350 0.0964707
355 0.10641
360 0.117625
365 0.157927
370 0.155846
375 0.139645
380 0.0749548
385 0.156585
390 0.133808
395 0.124601
400 0.132869
405 0.195355
410 0.129278
415 0.147728
420 0.185757
425 0.176986
430 0.139609
435 0.211742
440 0.214126
445 0.288029
450 0.147856
455 0.174959
460 0.273981
465 0.30623
470 0.340946
475 0.588164
480 16.4007
485 268.635
490 402.192
495 94.376
500 11.8349
505 2.31184
510 1.26399
515 1.05196
520 1.18704
525 1.29172
530 1.34135
535 1.1254
540 1.12734
545 1.03309
550 0.916715
555 0.86254
560 0.874795
565 1.08933
570 1.77169
575 1.57851
580 0.818545
585 0.689428
590 0.521926
595 0.440926
600 0.0501757
Ex : 498
200 0.132571
205 0.140015
210 0.138929
215 0.169435
220 0.10194
225 0.143247
230 0.173165
235 0.128534
240 0.129285
245 0.147835
250 0.118917
255 0.112715
260 0.127354
265 0.0947249
270 0.104352
275 0.181992
280 0.136618
285 0.100163
290 0.128596
295 0.173413
300 0.187141
305 0.134432
310 0.147046
315 0.135624
320 0.102763
325 0.142251
330 0.156954
335 0.153808
340 0.18659
345 0.119802
350 0.18345
355 0.13582
360 0.157161
365 0.141922
370 0.231323
375 0.211189
380 0.191978
385 0.12673
390 0.175782
395 0.150526
400 0.134604
405 0.157052
410 0.131354
415 0.157381
420 0.17543
425 0.22028
430 0.173486
435 0.184966
440 0.173543
445 0.230906
450 0.172617
455 0.16754
460 0.227339
465 0.338535
470 0.332617
475 0.38708
480 0.525214
485 19.0667
490 287.311
495 391.223
500 91.1026
505 11.3032
510 2.23722
515 1.34879
520 1.19824
525 1.15922
530 1.07493
535 1.29105
540 1.17255
545 0.923888
550 1.01574
555 0.854318
560 0.903755
565 0.765656
570 0.890598
575 1.20225
580 1.30684
585 0.748142
590 0.500671
595 0.465243
600 0.136619
Ex : 503
200 0.135505
205 0.132
210 0.188293
215 0.123305
220 0.120832
225 0.241728
230 0.171013
235 0.118529
240 0.107468
245 0.143001
250 0.196814
255 0.160263
260 0.107449
265 0.108375
270 0.167793
275 0.187232
280 0.203777
285 0.143886
290 0.149155
295 0.183312
300 0.207271
305 0.156706
310 0.167252
315 0.184414
320 0.153295
325 0.175581
330 0.149479
335 0.145934
340 0.110384
345 0.134197
350 0.127622
355 0.0950956
360 0.106672
365 0.159111
370 0.1441
375 0.163953
380 0.156167
385 0.143341
390 0.106399
395 0.16199
400 0.206226
405 0.156704
410 0.142882
415 0.136465
420 0.212097
425 0.153756
430 0.129811
435 0.170585
440 0.128037
445 0.145532
450 0.141285
455 0.265676
460 0.203226
465 0.235738
470 0.273769
475 0.328071
480 0.460347
485 0.635164
490 18.0544
495 282.813
500 395.826
505 91.6798
510 11.4158
515 2.36635
520 1.36569
525 1.13903
530 1.06152
535 1.1888
540 1.25943
545 1.10843
550 1.0572
555 0.841444
560 0.707134
565 0.796007
570 0.787149
575 0.601842
580 0.871782
585 1.02478
590 0.748881
595 0.465923
600 0.649194
Ex : 508
200 0.123351
205 0.112582
210 0.189553
215 0.128493
220 0.14543
225 0.24076
230 0.210767
235 0.16093
240 0.165681
245 0.15685
250 0.242563
255 0.180469
260 0.156791
265 0.168696
270 0.156475
275 0.137463
280 0.173445
285 0.128084
290 0.148873
295 0.0993858
300 0.129785
305 0.0908755
310 0.234295
315 0.151999
320 0.158034
325 0.166053
330 0.164008
335 0.127191
340 0.151503
345 0.146909
350 0.123678
355 0.0987318
360 0.186392
365 0.200785
370 0.127149
375 0.147889
380 0.177258
385 0.198897
390 0.217009
395 0.169923
400 0.141427
405 0.125248
410 0.147777
415 0.150731
420 0.135387
425 0.245566
430 0.26338
435 0.17419
440 0.180401
445 0.157418
450 0.21158
455 0.25082
460 0.175975
465 0.176841
470 0.295778
475 0.24378
480 0.327655
485 0.387326
490 0.647408
495 19.2116
500 287.918
505 399.394
510 96.1156
515 12.0634
520 2.26038
525 1.30993
530 1.06714
535 1.06978
540 1.14399
545 1.13714
550 0.954644
555 0.844215
560 0.800626
565 0.697925
570 0.780166
575 0.630276
580 0.455664
585 0.611206
590 0.873223
595 0.646589
600 0.348178
Ex : 513
200 0.115221
205 0.135622
210 0.126857
215 0.170058
220 0.190482
225 0.143982
230 0.154236
235 0.112059
240 0.162177
245 0.119895
250 0.150846
255 0.153201
260 0.12309
265 0.158022
270 0.157339
275 0.164364
280 0.162099
285 0.204819
290 0.189903
295 0.205551
300 0.237231
305 0.157366
310 0.202702
315 0.136573
320 0.219108
325 0.216078
330 0.1164
335 0.275204
340 0.156427
345 0.214216
350 0.220319
355 0.195947
360 0.1544
365 0.144259
370 0.160836
375 0.152002
380 0.143189
385 0.170511
390 0.152925
395 0.188117
400 0.213714
405 0.200737
410 0.201551
415 0.23342
420 0.21329
425 0.200146
430 0.173566
435 0.151605
440 0.208272
445 0.258363
450 0.19577
455 0.242263
460 0.200311
465 0.22092
470 0.206109
475 0.330142
480 0.261523
485 0.297581
490 0.382542
495 0.642715
500 17.308
505 278.201
510 394.739
515 97.1306
520 12.122
525 2.22667
530 1.21031
535 0.975588
540 0.95643
545 0.796128
550 0.896086
555 0.929639
560 0.775533
565 0.708274
570 0.591029
575 0.557898
580 0.456551
585 0.430138
590 0.446219
595 0.671545
600 0.499973
Ex : 518
200 0.264964
205 0.223124
210 0.142309
215 0.265509
220 0.17216
225 0.149103
230 0.173249
235 0.245902
240 0.163146
245 0.159314
250 0.207363
255 0.219107
260 0.149725
265 0.10099
270 0.158097
275 0.178837
280 0.134645
285 0.170699
290 0.174969
295 0.126524
300 0.127853
305 0.183804
310 0.139348
315 0.209211
320 0.240247
325 0.16061
330 0.197598
335 0.174532
340 0.245557
345 0.212574
350 0.181344
355 0.179573
360 0.150438
365 0.173936
370 0.182305
375 0.167239
380 0.163529
385 0.181613
390 0.229481
395 0.193057
400 0.262686
405 0.175128
410 0.194972
415 0.165116
420 0.160711
425 0.111001
430 0.180269
435 0.136017
440 0.166677
445 0.210092
450 0.141498
455 0.207808
460 0.182915
465 0.230886
470 0.182537
475 0.189104
480 0.237529
485 0.301748
490 0.398568
495 0.360036
500 0.624249
505 17.7493
510 271.8
515 401.698
520 99.1275
525 12.324
530 2.1207
535 1.12657
540 0.858309
545 0.875158
550 0.850334
555 0.924822
560 0.768112
565 0.7899
570 0.671134
575 0.663202
580 0.511159
585 0.444331
590 0.361553
595 0.473285
600 0.709649
Ex : 523
200 0.234475
205 0.172402
210 0.160081
215 0.121064
220 0.174218
225 0.158518
230 0.144496
235 0.212312
240 0.102507
245 0.162078
250 0.142874
255 0.154429
260 0.202039
265 0.139267
270 0.161266
275 0.22221
280 0.171723
285 0.141701
290 0.195238
295 0.141644
300 0.188623
305 0.31921
310 0.172141
315 0.130638
320 0.172245
325 0.176203
330 0.111896
335 0.199625
340 0.15095
345 0.128942
350 0.170933
355 0.176055
360 0.204221
365 0.221376
370 0.146457
375 0.141929
380 0.229796
385 0.130203
390 0.183926
395 0.154169
400 0.242893
405 0.150666
410 0.158302
415 0.179022
420 0.183522
425 0.153815
430 0.20168
435 0.195686
440 0.199509
445 0.288796
450 0.185422
455 0.166757
460 0.300005
465 0.162223
470 0.301816
475 0.245215
480 0.353552
485 0.249949
490 0.287621
495 0.307209
500 0.387596
505 0.512996
510 15.942
515 258.746
520 387.707
525 97.7647
530 12.098
535 2.28707
540 1.01562
545 0.884902
550 0.740759
555 0.702046
560 0.741886
565 0.590119
570 0.62248
575 0.6587
580 0.429066
585 0.510755
590 0.43422
595 0.375978
600 0.451449
Ex : 528
200 0.200431
205 0.215082
210 0.216243
215 0.150137
220 0.164407
225 0.165468
230 0.235539
235 0.237328
240 0.124593
245 0.202085
250 0.175011
255 0.216699
260 0.176107
265 0.182435
270 0.164976
275 0.228029
280 0.105671
285 0.198469
290 0.214564
295 0.158813
300 0.181443
305 0.159981
310 0.134847
315 0.20944
320 0.203558
325 0.177686
330 0.157134
335 0.137848
340 0.1917
345 0.253897
350 0.216649
355 0.211941
360 0.152598
365 0.210265
370 0.187056
375 0.165365
380 0.129423
385 0.140795
390 0.163892
395 0.136152
400 0.231549
405 0.153846
410 0.215237
415 0.186302
420 0.122491
425 0.180336
430 0.135606
435 0.291988
440 0.250535
445 0.237082
450 0.24717
455 0.167312
460 0.275024
465 0.245408
470 0.187723
475 0.239536
480 0.243843
485 0.225049
490 0.318298
495 0.319117
500 0.361756
505 0.399264
510 0.650176
515 15.1226
520 265.753
525 411.042
530 102.986
535 12.7233
540 2.19833
545 1.05101
550 0.852317
555 0.869949
560 0.741546
565 0.729339
570 0.55296
575 0.548735
580 0.413569
585 0.461153
590 0.375397
595 0.441323
600 0.163958
Ex : 533
200 0.19251
205 0.185245
210 0.0885814
215 0.161596
220 0.252938
225 0.179898
230 0.174455
235 0.149054
240 0.167923
245 0.210146
250 0.185425
255 0.150881
260 0.151845
265 0.154794
270 0.137191
275 0.160107
280 0.163288
285 0.212571
290 0.157337
295 0.188863
300 0.138243
305 0.102291
310 0.135589
315 0.170729
320 0.19929
325 0.258102
330 0.12419
335 0.141102
340 0.148181
345 0.202412
350 0.275092
355 0.172604
360 0.203777
365 0.124765
370 0.183176
375 0.19867
380 0.128436
385 0.1973
390 0.170602
395 0.206315
400 0.156877
405 0.201557
410 0.169758
415 0.121332
420 0.158724
425 0.219541
430 0.250871
435 0.253332
440 0.19609
445 0.163896
450 0.162112
455 0.236081
460 0.234749
465 0.273734
470 0.190001
475 0.202183
480 0.222706
485 0.281253
490 0.198418
495 0.280675
500 0.277912
505 0.31633
510 0.443648
515 0.658543
520 15.5154
525 248.341
530 386.812
535 101.185
540 12.4683
545 2.0361
550 0.742727
555 0.7265
560 0.632633
565 0.526503
570 0.566483
575 0.525756
580 0.490696
585 0.34537
590 0.384759
595 0.346376
600 0.0781574
Ex : 538
200 0.266036
205 0.141443
210 0.186426
215 0.21679
220 0.310643
225 0.237267
230 0.181645
235 0.193934
240 0.128933
245 0.243852
250 0.214166
255 0.190837
260 0.164276
265 0.159504
270 0.131191
275 0.188706
280 0.146274
285 0.160906
290 0.215649
295 0.160209
300 0.147931
305 0.174476
310 0.143429
315 0.238085
320 0.139277
325 0.124507
330 0.132182
335 0.126692
340 0.160725
345 0.171804
350 0.167834
355 0.191031
360 0.179138
365 0.202171
370 0.245284
375 0.186413
380 0.141676
385 0.139025
390 0.186691
395 0.163314
400 0.2222
405 0.20948
410 0.219202
415 0.224513
420 0.196187
425 0.227876
430 0.248031
435 0.203258
440 0.228693
445 0.270178
450 0.195212
455 0.187289
460 0.259098
465 0.164047
470 0.206269
475 0.19109
480 0.208601
485 0.230277
490 0.19822
495 0.22793
500 0.214301
505 0.320232
510 0.419563
515 0.443518
520 0.553196
525 12.6613
530 235.207
535 373.942
540 100.559
545 12.2888
550 2.00023
555 0.802486
560 0.712241
565 0.668342
570 0.518673
575 0.522453
580 0.543583
585 0.331263
590 0.387323
595 0.34468
600 0.391691
Ex : 543
200 0.132181
205 0.186565
210 0.24151
215 0.1591
220 0.193005
225 0.132785
230 0.189318
235 0.185311
240 0.210537
245 0.220409
250 0.17243
255 0.142972
260 0.186565
265 0.224735
270 0.185731
275 0.177204
280 0.197356
285 0.177355
290 0.177468
295 0.227816
300 0.169257
305 0.179244
310 0.288262
315 0.180276
320 0.171289
325 0.200063
330 0.192029
335 0.225912
340 0.193886
345 0.209143
350 0.16932
355 0.19437
360 0.227747
365 0.147204
370 0.201589
375 0.150862
380 0.210456
385 0.160623
390 0.20738
395 0.185381
400 0.159326
405 0.225701
410 0.213012
415 0.211575
420 0.18581
425 0.171363
430 0.165404
435 0.178056
440 0.221864
445 0.196406
450 0.225729
455 0.157559
460 0.149375
465 0.234554
470 0.192746
475 0.229356
480 0.228271
485 0.205592
490 0.217961
495 0.239153
500 0.324352
505 0.252794
510 0.218534
515 0.331545
520 0.473903
525 0.595877
530 11.2721
535 226.294
540 378.287
545 105.218
550 12.909
555 2.05951
560 0.801865
565 0.627099
570 0.539762
575 0.48106
580 0.373666
585 0.402457
590 0.399588
595 0.295023
600 0.380798
Ex : 548
200 0.170979
205 0.170583
210 0.19921
215 0.22575
220 0.181015
225 0.287451
230 0.250533
235 0.217091
240 0.16778
245 0.279711
250 0.174993
255 0.270805
260 0.128409
265 0.26051
270 0.22097
275 0.214097
280 0.225947
285 0.200864
290 0.212229
295 0.390103
300 0.189437
305 0.173402
310 0.196156
315 0.226614
320 0.226839
325 0.176554
330 0.23663
335 0.1621
340 0.203735
345 0.188869
350 0.144386
355 0.197853
360 0.203694
365 0.140917
370 0.248391
375 0.203361
380 0.291052
385 0.224694
390 0.141367
395 0.258612
400 0.173576
405 0.194077
410 0.257393
415 0.172462
420 0.263465
425 0.203086
430 0.245144
435 0.283965
440 0.203529
445 0.202031
450 0.173605
455 0.220782
460 0.184856
465 0.194149
470 0.240156
475 0.29691
480 0.197866
485 0.282592
490 0.279595
495 0.188759
500 0.16631
505 0.228076
510 0.24412
515 0.339935
520 0.361597
525 0.413685
530 0.507131
535 12.6659
540 224.736
545 364.967
550 101.054
555 12.4095
560 1.97895
565 0.642504
570 0.573031
575 0.338807
580 0.425665
585 0.449449
590 0.315229
595 0.289036
600 0.0328913
Ex : 553
200 0.171378
205 0.157397
210 0.215384
215 0.209289
220 0.34191
225 0.257507
230 0.188291
235 0.144138
240 0.230771
245 0.161418
250 0.293266
255 0.20465
260 0.233953
265 0.239056
270 0.164521
275 0.207385
280 0.21092
285 0.218716
290 0.185371
295 0.241627
300 0.231753
305 0.185698
310 0.226764
315 0.252253
320 0.249798
325 0.228473
330 0.195273
335 0.121185
340 0.218632
345 0.160301
350 0.205505
355 0.143391
360 0.216144
365 0.248076
370 0.222932
375 0.168878
380 0.150034
385 0.118178
390 0.241989
395 0.217148
400 0.2717
405 0.174289
410 0.170598
415 0.260582
420 0.250909
425 0.216456
430 0.251159
435 0.21066
440 0.185076
445 0.170309
450 0.13528
455 0.208647
460 0.33957
465 0.155189
470 0.170521
475 0.192473
480 0.13835
485 0.197653
490 0.200943
495 0.203687
500 0.235407
505 0.209619
510 0.209168
515 0.284065
520 0.291889
525 0.275803
530 0.357617
535 0.538923
540 10.873
545 210.247
550 348.674
555 98.8155
560 12.0385
565 1.84136
570 0.772687
575 0.575
580 0.469827
585 0.391496
590 0.435805
595 0.266513
600 0.0303281
Ex : 558
200 0.315295
205 0.147598
210 0.226524
215 0.242044
220 0.216872
225 0.307843
230 0.189569
235 0.191762
240 0.244186
245 0.180314
250 0.233584
255 0.158276
260 0.169209
265 0.127587
270 0.178586
275 0.17107
280 0.209223
285 0.15678
290 0.299296
295 0.159617
300 0.140632
305 0.286176
310 0.303979
315 0.218393
320 0.158821
325 0.197576
330 0.231482
335 0.208238
340 0.330121
345 0.219181
350 0.151658
355 0.199668
360 0.187345
365 0.173371
370 0.187753
375 0.19644
380 0.198378
385 0.24974
390 0.254883
395 0.229137
400 0.198566
405 0.254244
410 0.245511
415 0.300261
420 0.314949
425 0.200552
430 0.193779
435 0.238314
440 0.269675
445 0.216147
450 0.22742
455 0.288183
460 0.234099
465 0.214223
470 0.20845
475 0.290905
480 0.195494
485 0.26737
490 0.234653
495 0.203428
500 0.227211
505 0.216142
510 0.21952
515 0.21784
520 0.230382
525 0.306085
530 0.325441
535 0.370803
540 0.450345
545 10.1821
550 206.073
555 363.325
560 102.021
565 12.5972
570 1.9214
575 0.729145
580 0.53081
585 0.336895
590 0.280632
595 0.350129
600 0.379833
Ex : 563
200 0.244092
205 0.182533
210 0.190214
215 0.246722
220 0.319068
225 0.242192
230 0.200736
235 0.285406
240 0.291106
245 0.283512
250 0.178104
255 0.195776
260 0.2487
265 0.135906
270 0.198158
275 0.153704
280 0.197975
285 0.16932
290 0.185527
295 0.176299
300 0.202512
305 0.198334
310 0.131059
315 0.235448
320 0.158739
325 0.275141
330 0.217894
335 0.158145
340 0.274766
345 0.256897
350 0.172265
355 0.168658
360 0.244757
365 0.225917
370 0.191383
375 0.187951
380 0.197678
385 0.237277
390 0.213055
395 0.215023
400 0.247171
405 0.176294
410 0.280373
415 0.23827
420 0.298201
425 0.201711
430 0.153586
435 0.325826
440 0.323774
445 0.308125
450 0.218937
455 0.214505
460 0.300693
465 0.246734
470 0.221296
475 0.273192
480 0.260149
485 0.299585
490 0.324893
495 0.202558
500 0.174418
505 0.360041
510 0.275699
515 0.228872
520 0.22748
525 0.257524
530 0.293636
535 0.326582
540 0.340475
545 0.53389
550 10.1359
555 198.768
560 332.399
565 97.0729
570 11.8529
575 1.6775
580 0.649448
585 0.496371
590 0.466566
595 0.401365
600 0.115868
Ex : 568
200 0.27349
205 0.2232
210 0.214869
215 0.310347
220 0.224461
225 0.238573
230 0.302132
235 0.202964
240 0.222952
245 0.269615
250 0.206518
255 0.195999
260 0.229123
265 0.225631
270 0.215844
275 0.18935
280 0.259952
285 0.216607
290 0.284085
295 0.207706
300 0.158861
305 0.172844
310 0.197945
315 0.292615
320 0.263007
325 0.303591
330 0.246202
335 0.189184
340 0.150893
345 0.156567
350 0.16912
355 0.194148
360 0.229696
365 0.273805
370 0.181372
375 0.249537
380 0.195795
385 0.247729
390 0.338527
395 0.19071
400 0.251076
405 0.287383
410 0.271147
415 0.175007
420 0.276636
425 0.220908
430 0.22524
435 0.304169
440 0.247101
445 0.23265
450 0.1847
455 0.189572
460 0.245169
465 0.295373
470 0.215982
475 0.355427
480 0.202984
485 0.263821
490 0.211785
495 0.236766
500 0.250116
505 0.28911
510 0.293109
515 0.254726
520 0.213463
525 0.255512
530 0.305067
535 0.31118
540 0.405971
545 0.413638
550 0.413432
555 8.0107
560 175.044
565 322.284
570 99.1311
575 12.0248
580 1.84736
585 0.527463
590 0.545254
595 0.351774
600 0.379048
Ex : 573
200 0.299352
205 0.160075
210 0.230312
215 0.13902
220 0.161182
225 0.176789
230 0.175464
235 0.180342
240 0.165206
245 0.201284
250 0.207771
255 0.207796
260 0.249492
265 0.218777
270 0.195091
275 0.193729
280 0.137567
285 0.138545
290 0.180334
295 0.258504
300 0.286214
305 0.335753
310 0.275716
315 0.278771
320 0.183551
325 0.217052
330 0.240331
335 0.17448
340 0.175756
345 0.202828
350 0.296699
355 0.307123
360 0.262204
365 0.260049
370 0.224599
375 0.248693
380 0.282218
385 0.257595
390 0.27948
395 0.272649
400 0.243964
405 0.128269
410 0.187197
415 0.230109
420 0.211126
425 0.345096
430 0.288989
435 0.24564
440 0.242164
445 0.416684
450 0.29408
455 0.242384
460 0.286452
465 0.232965
470 0.186846
475 0.244334
480 0.294169
485 0.222353
490 0.209627
495 0.217141
500 0.257999
505 0.327718
510 0.203438
515 0.245331
520 0.338892
525 0.331022
530 0.232256
535 0.284678
540 0.260812
545 0.339658
550 0.355795
555 0.472403
560 7.11104
565 151.188
570 302.921
575 96.293
580 11.7877
585 1.58568
590 0.471941
595 0.411989
600 0.266906
Ex : 578
200 0.113717
205 0.186189
210 0.260361
215 0.209299
220 0.206249
225 0.205291
230 0.234662
235 0.234405
240 0.1567
245 0.261341
250 0.188408
255 0.193229
260 0.123642
265 0.16645
270 0.225403
275 0.27419
280 0.251458
285 0.255597
290 0.226816
295 0.170754
300 0.201213
305 0.220135
310 0.248461
315 0.21506
320 0.209506
325 0.259301
330 0.257108
335 0.197739
340 0.209471
345 0.27795
350 0.143832
355 0.105217
360 0.209535
365 0.209463
370 0.266644
375 0.254364
380 0.1824
385 0.207616
390 0.232486
395 0.250333
400 0.282643
405 0.393475
410 0.241369
415 0.166316
420 0.198389
425 0.216528
430 0.193062
435 0.279083
440 0.182295
445 0.186688
450 0.183771
455 0.249062
460 0.175687
465 0.254482
470 0.234506
475 0.178554
480 0.26064
485 0.186138
490 0.271125
495 0.239938
500 0.222551
505 0.226196
510 0.322671
515 0.276986
520 0.296272
525 0.263047
530 0.267947
535 0.237055
540 0.234051
545 0.293105
550 0.296319
555 0.351246
560 0.501143
565 5.65067
570 134.733
575 266.219
580 83.4165
585 10.1757
590 1.60541
595 0.501048
600 2.60802
Ex : 583
200 0.207277
205 0.250247
210 0.232252
215 0.177386
220 0.170262
225 0.247158
230 0.316922
235 0.220076
240 0.286252
245 0.232997
250 0.141205
255 0.171912
260 0.193602
265 0.136909
270 0.272401
275 0.322502
280 0.171628
285 0.247676
290 0.214211
295 0.279668
300 0.340443
305 0.245355
310 0.16461
315 0.140438
320 0.163656
325 0.250429
330 0.172609
335 0.220112
340 0.242852
345 0.195663
350 0.194827
355 0.195875
360 0.129989
365 0.138273
370 0.191507
375 0.229489
380 0.279094
385 0.187311
390 0.175314
395 0.332599
400 0.288762
405 0.26405
410 0.257207
415 0.282784
420 0.19596
425 0.260602
430 0.201837
435 0.263523
440 0.230377
445 0.331755
450 0.252789
455 0.2173
460 0.225091
465 0.267878
470 0.387411
475 0.349668
480 0.230096
485 0.247579
490 0.287435
495 0.300094
500 0.235666
505 0.224654
510 0.184803
515 0.228876
520 0.264857
525 0.253098
530 0.297177
535 0.295082
540 0.243788
545 0.310052
550 0.291255
555 0.32046
560 0.373472
565 0.387649
570 5.01563
575 126.154
580 238.055
585 69.9702
590 8.57662
595 1.26947
600 0.229171
Ex : 588
200 0.323218
205 0.220713
210 0.187582
215 0.266897
220 0.242507
225 0.20186
230 0.180748
235 0.237684
240 0.21567
245 0.217785
250 0.237472
255 0.408957
260 0.214722
265 0.185577
270 0.203181
275 0.188151
280 0.366352
285 0.267803
290 0.227158
295 0.239135
300 0.266149
305 0.320544
310 0.266993
315 0.380606
320 0.174859
325 0.34485
330 0.257988
335 0.256785
340 0.240153
345 0.240524
350 0.218631
355 0.159575
360 0.177948
365 0.158729
370 0.217418
375 0.249091
380 0.297595
385 0.242489
390 0.283601
395 0.213892
400 0.291382
405 0.297564
410 0.172468
415 0.259756
420 0.232847
425 0.178566
430 0.186382
435 0.199163
440 0.25808
445 0.328005
450 0.204758
455 0.200639
460 0.128112
465 0.409467
470 0.267418
475 0.167006
480 0.212575
485 0.18919
490 0.246967
495 0.17
500 0.220829
505 0.379188
510 0.417048
515 0.365028
520 0.176195
525 0.234285
530 0.236449
535 0.268687
540 0.238335
545 0.251663
550 0.245734
555 0.213815
560 0.286393
565 0.346073
570 0.405117
575 4.82663
580 108
585 210.254
590 61.7378
595 7.55767
600 0.860034
Ex : 593
200 0.31163
205 0.170103
210 0.201806
215 0.309583
220 0.306789
225 0.29343
230 0.211547
235 0.282972
240 0.240212
245 0.196955
250 0.309305
255 0.315443
260 0.205476
265 0.254448
270 0.227407
275 0.267
280 0.227599
285 0.243487
290 0.227222
295 0.22195
300 0.182991
305 0.125481
310 0.234565
315 0.128823
320 0.237523
325 0.25247
330 0.158543
335 0.210599
340 0.313497
345 0.320223
350 0.218859
355 0.162714
360 0.293563
365 0.236864
370 0.25328
375 0.241081
380 0.274146
385 0.205732
390 0.27201
395 0.229766
400 0.183596
405 0.203287
410 0.255696
415 0.214358
420 0.329853
425 0.283283
430 0.208146
435 0.253876
440 0.321704
445 0.263092
450 0.233594
455 0.232504
460 0.296069
465 0.279352
470 0.231921
475 0.298734
480 0.254493
485 0.240445
490 0.218643
495 0.301168
500 0.527783
505 0.333403
510 0.226383
515 0.26135
520 0.300042
525 0.386634
530 0.317202
535 0.257102
540 0.258318
545 0.272242
550 0.247144
555 0.266704
560 0.282225
565 0.269203
570 0.262486
575 0.315595
580 3.63294
585 92.2686
590 173.53
595 50.6713
600 6.08021
Ex : 598
200 0.280048
205 0.22092
210 0.277886
215 0.290239
220 0.241692
225 0.223476
230 0.179608
235 0.253259
240 0.276985
245 0.207943
250 0.21811
255 0.217188
260 0.223872
265 0.261395
270 0.428734
275 0.31111
280 0.258413
285 0.299344
290 0.182534
295 0.200812
300 0.261595
305 0.211754
310 0.221975
315 0.16026
320 0.249328
325 0.324129
330 0.210986
335 0.242895
340 0.436057
345 0.279444
350 0.295862
355 0.135242
360 0.167043
365 0.306359
370 0.234458
375 0.272947
380 0.26314
385 0.211734
390 0.230048
395 0.211411
400 0.177787
405 0.230448
410 0.361134
415 0.25968
420 0.198546
425 0.25701
430 0.195332
435 0.23637
440 0.199993
445 0.221088
450 0.204346
455 0.248781
460 0.189824
465 0.223309
470 0.257234
475 0.217083
480 0.255194
485 0.240521
490 0.261605
495 0.203542
500 0.260465
505 0.247388
510 0.227196
515 0.200342
520 0.323512
525 0.220388
530 0.280942
535 0.255412
540 0.265327
545 0.256071
550 0.349523
555 0.179739
560 0.372461
565 0.377204
570 0.380425
575 0.437159
580 0.383895
585 3.93059
590 83.9609
595 155.184
600 86.4123
Ex : 603
200 0.255072
205 0.211437
210 0.212556
215 0.25895
220 0.359876
225 0.26153
230 0.284531
235 0.161678
240 0.272256
245 0.284473
250 0.249938
255 0.168534
260 0.193851
265 0.265747
270 0.220023
275 0.181057
280 0.270402
285 0.304892
290 0.312304
295 0.293961
300 0.29015
305 0.245736
310 0.286861
315 0.209331
320 0.211191
325 0.166224
330 0.349503
335 0.296998
340 0.287474
345 0.208769
350 0.29652
355 0.238775
360 0.295343
365 0.370378
370 0.265363
375 0.15574
380 0.289352
385 0.39856
390 0.274484
395 0.216124
400 0.223153
405 0.261555
410 0.273387
415 0.211578
420 0.261154
425 0.202159
430 0.305903
435 0.312984
440 0.150354
445 0.325731
450 0.353831
455 0.236685
460 0.308133
465 0.27284
470 0.31152
475 0.243903
480 0.26463
485 0.232922
490 0.36409
495 0.328635
500 0.312178
505 0.329385
510 0.356008
515 0.291958
520 0.404786
525 0.401208
530 0.239647
535 0.229242
540 0.272429
545 0.177254
550 0.228733
555 0.310893
560 0.293908
565 0.319772
570 0.230154
575 0.309842
580 0.28478
585 0.259478
590 3.28144
595 70.0974
600 113.948
