File format V 1.0
jeu. 12. janv. 19:03:06 2017
Operator : 
Comments : 

=============================================
SpectroFluorometer parameters
Mode : 3D measurement
Data : Fluorescence
Phospho. : Ordinary
Spectrum : Fluorescence

Scan speed : 2400 nm/mn
Response : 100 ms
PM Voltage : 700 V
Shutter : On

Lambda Ex. Start : 203
Lambda Ex. End : 603
Lambda Ex. Step : 5
Ex. Slit : 5 nm

Lambda Em. Start : 200
Lambda Em. End : 600
Lambda Em. Step : 5
Em. Slit : 5 nm

Repetition : 1
Decal lambda em : 10
=============================================
DATA
Ex : 203
200 4.3866
205 4.33939
210 7.15158
215 6.64728
220 6.30056
225 13.7304
230 6.05431
235 7.52841
240 4.94454
245 5.90927
250 5.40487
255 6.63022
260 8.62278
265 6.01315
270 5.64618
275 9.05697
280 7.27952
285 3.69449
290 7.57005
295 5.9582
300 5.54337
305 8.9451
310 8.28649
315 5.8478
320 8.78607
325 7.51882
330 4.40938
335 5.22536
340 7.67083
345 6.50317
350 7.55864
355 6.39892
360 4.44667
365 5.58547
370 6.00709
375 8.92402
380 8.06527
385 11.4955
390 7.30305
395 7.1876
400 9.56589
405 7.42036
410 5.03666
415 7.67575
420 6.60979
425 7.32154
430 8.49217
435 8.39789
440 7.21732
445 6.38469
450 8.8805
455 7.99265
460 7.16861
465 8.29146
470 5.06866
475 6.64795
480 6.59556
485 8.27415
490 6.84259
495 6.7582
500 5.00984
505 6.86122
510 6.36655
515 6.03258
520 5.4614
525 4.86618
530 6.93529
535 5.71256
540 5.00251
545 6.30093
550 5.14378
555 7.09299
560 6.84156
565 7.60988
570 7.2888
575 5.45931
580 7.15209
585 5.51581
590 6.46974
595 6.65335
600 1.82057
Ex : 208
200 4.55122
205 8.1283
210 5.51335
215 7.03934
220 7.00884
225 6.83536
230 6.05162
235 5.06558
240 5.85283
245 5.43856
250 7.58192
255 9.10036
260 6.8513
265 9.16694
270 6.31274
275 9.86238
280 8.10333
285 7.41389
290 7.33802
295 6.41673
300 7.77934
305 5.93749
310 6.69465
315 6.70512
320 5.33071
325 9.56517
330 11.3828
335 8.23872
340 4.77207
345 7.05031
350 6.77251
355 8.13593
360 8.10787
365 8.25598
370 6.15481
375 6.70453
380 7.7332
385 9.18927
390 7.58456
395 7.60711
400 6.70552
405 12.787
410 7.35108
415 5.82536
420 6.56665
425 5.89941
430 7.65189
435 8.91542
440 6.13531
445 7.16962
450 6.74959
455 7.51001
460 11.5572
465 9.60781
470 6.07709
475 6.43242
480 6.71055
485 8.26363
490 5.88548
495 4.74628
500 5.81165
505 6.74254
510 7.45409
515 6.05353
520 6.12259
525 6.0736
530 11.1977
535 8.08722
540 7.77419
545 7.40168
550 9.14277
555 5.37296
560 8.3081
565 6.62168
570 5.83775
575 7.01324
580 7.09569
585 5.58507
590 6.06409
595 9.51575
600 1.08286
Ex : 213
200 5.74163
205 5.53404
210 9.47913
215 6.89593
220 8.30833
225 6.49498
230 6.34476
235 6.10035
240 7.73931
245 5.864
250 6.71279
255 6.13324
260 7.02009
265 7.57621
270 6.23418
275 6.20222
280 7.85536
285 7.43537
290 6.40227
295 6.71262
300 8.40619
305 8.61253
310 8.68749
315 6.22102
320 6.41713
325 8.2607
330 6.03799
335 5.68724
340 6.46208
345 6.23385
350 8.72338
355 5.36885
360 11.7148
365 5.70765
370 6.66085
375 6.84562
380 7.56901
385 8.03152
390 8.80791
395 5.34756
400 5.57992
405 5.948
410 9.67034
415 6.64234
420 5.32817
425 6.18344
430 5.47143
435 6.74669
440 7.37197
445 6.87725
450 7.9512
455 7.31171
460 7.38362
465 8.42632
470 7.06972
475 9.54179
480 9.12013
485 8.85936
490 5.74015
495 6.96185
500 4.86619
505 5.85832
510 6.72096
515 5.3984
520 7.43003
525 6.44149
530 6.28832
535 8.07565
540 5.48336
545 7.39335
550 5.71546
555 6.09422
560 6.94425
565 5.20789
570 6.08012
575 7.52653
580 4.19328
585 6.92751
590 10.8832
595 6.66271
600 1.51779
Ex : 218
200 6.68269
205 7.12769
210 7.8486
215 6.01343
220 6.3234
225 7.12659
230 8.06598
235 4.96487
240 7.00716
245 6.73148
250 7.04553
255 7.26017
260 4.90188
265 7.19798
270 4.25637
275 5.55311
280 7.28275
285 5.63439
290 6.17667
295 6.46115
300 5.42595
305 6.29187
310 5.20213
315 5.63144
320 6.35855
325 7.40253
330 6.53109
335 6.0345
340 6.05057
345 8.51082
350 7.69111
355 5.79165
360 8.0553
365 5.62947
370 10.5496
375 10.1049
380 5.56217
385 7.41976
390 6.31436
395 5.82827
400 9.33262
405 7.64782
410 6.60079
415 5.36988
420 4.1386
425 6.28148
430 5.53212
435 7.03989
440 5.94891
445 7.30111
450 5.0373
455 8.79648
460 8.04823
465 5.48968
470 9.03934
475 4.19966
480 5.83293
485 5.92138
490 8.21508
495 7.01576
500 7.0831
505 7.20266
510 6.95802
515 7.05664
520 6.15173
525 8.7783
530 7.52345
535 5.54357
540 4.60419
545 5.26873
550 6.82419
555 6.56822
560 5.6933
565 6.81061
570 7.87347
575 7.67867
580 6.19989
585 7.10684
590 6.87331
595 8.7318
600 12.7675
Ex : 223
200 6.77561
205 5.84455
210 8.55997
215 6.77997
220 7.7946
225 7.57138
230 6.20908
235 5.6532
240 4.95892
245 6.55102
250 4.79966
255 4.17962
260 4.81084
265 6.04635
270 5.6032
275 7.52088
280 6.17737
285 5.74516
290 6.90452
295 6.89929
300 3.76959
305 6.75708
310 6.55763
315 8.31849
320 6.53011
325 6.24961
330 7.26477
335 6.46073
340 8.24286
345 6.69232
350 7.81427
355 5.23409
360 9.2199
365 5.32239
370 6.9897
375 6.16255
380 5.65635
385 5.35215
390 5.14883
395 7.02145
400 8.83555
405 7.35168
410 8.11257
415 6.07263
420 9.30049
425 6.12299
430 6.62144
435 7.80264
440 8.46455
445 7.52029
450 6.30752
455 8.82762
460 7.10898
465 7.39453
470 9.09693
475 6.4825
480 6.94963
485 6.92113
490 8.81481
495 7.50749
500 6.13713
505 8.84798
510 7.59828
515 8.32972
520 6.82116
525 6.1977
530 6.81674
535 3.99601
540 6.94108
545 6.66724
550 4.81573
555 5.19847
560 7.46073
565 8.87524
570 6.5589
575 5.81529
580 5.18892
585 7.19452
590 7.44257
595 7.61204
600 7.36505
Ex : 228
200 7.00976
205 7.77102
210 7.9779
215 3.69085
220 5.87099
225 5.53615
230 4.57838
235 6.89917
240 5.94785
245 5.81362
250 6.00352
255 6.00922
260 8.11636
265 6.68598
270 4.89377
275 5.66706
280 7.80542
285 6.85561
290 5.80612
295 6.96357
300 7.29797
305 5.05731
310 5.27829
315 6.9923
320 4.64212
325 4.46783
330 7.61417
335 7.7708
340 6.91776
345 7.30416
350 5.17067
355 6.92089
360 7.67935
365 7.34317
370 7.77187
375 6.47555
380 7.05404
385 5.25802
390 6.13113
395 7.44109
400 7.28894
405 8.45816
410 4.91417
415 6.94544
420 4.73437
425 6.40831
430 5.62917
435 5.75809
440 5.34764
445 8.01686
450 8.89221
455 7.14685
460 4.52426
465 5.22357
470 8.20878
475 5.88716
480 8.41768
485 5.23498
490 4.99129
495 6.01875
500 8.40346
505 7.67053
510 7.27666
515 5.66082
520 8.43539
525 6.51138
530 6.4559
535 5.1147
540 5.29024
545 7.14508
550 6.20239
555 5.90727
560 5.91312
565 5.88344
570 7.38281
575 6.18186
580 5.64089
585 8.26888
590 7.81101
595 5.36149
600 8.58595
Ex : 233
200 7.09091
205 8.47094
210 5.46694
215 8.42809
220 8.19956
225 6.24646
230 5.07746
235 7.32746
240 5.68211
245 4.82603
250 5.88274
255 6.14532
260 6.69117
265 5.83546
270 8.19867
275 5.94179
280 6.50212
285 8.26526
290 7.33304
295 6.34371
300 5.86437
305 5.92345
310 5.21774
315 5.29995
320 4.41079
325 4.75337
330 5.68242
335 5.53342
340 5.27474
345 5.52007
350 5.21011
355 5.67978
360 6.37814
365 4.99257
370 6.26951
375 5.71609
380 6.40532
385 8.80277
390 7.83594
395 6.46322
400 7.67874
405 10.6029
410 4.95559
415 6.4001
420 6.93947
425 7.9222
430 10.0282
435 5.66979
440 7.24576
445 6.14944
450 5.53115
455 5.91979
460 5.2122
465 5.64604
470 6.15532
475 4.9735
480 6.3988
485 4.77827
490 6.86941
495 5.82626
500 4.48807
505 5.6353
510 4.80258
515 5.04689
520 6.34807
525 5.3539
530 4.90566
535 4.90543
540 7.08007
545 4.6156
550 6.10126
555 10.2103
560 6.28563
565 5.77163
570 7.46824
575 5.71607
580 4.69063
585 4.27092
590 5.1997
595 5.73692
600 0.65284
Ex : 238
200 5.19844
205 4.43955
210 4.72606
215 4.25277
220 3.98155
225 6.77243
230 4.99978
235 7.13492
240 5.75422
245 6.04199
250 6.092
255 5.5481
260 7.06894
265 5.34069
270 4.76387
275 5.7468
280 4.84748
285 4.85161
290 5.33759
295 7.2314
300 5.34326
305 4.39864
310 4.07018
315 4.07588
320 5.58696
325 5.58809
330 5.43437
335 6.14846
340 6.30228
345 6.51352
350 5.94343
355 5.93402
360 7.05224
365 4.50558
370 7.24715
375 5.68254
380 7.09082
385 4.32007
390 5.33111
395 5.75072
400 5.63238
405 5.91511
410 5.30353
415 6.97335
420 8.04333
425 5.63705
430 5.38417
435 7.16467
440 5.67635
445 6.86378
450 7.36228
455 6.45268
460 6.82197
465 5.99049
470 8.36703
475 6.27665
480 5.86724
485 4.62343
490 5.45945
495 6.82469
500 6.17825
505 8.43492
510 6.27348
515 7.71567
520 6.40458
525 5.0087
530 5.78508
535 8.23133
540 7.05458
545 5.82341
550 5.77431
555 6.0258
560 4.53305
565 5.60696
570 7.12976
575 6.30715
580 6.328
585 4.99096
590 4.66939
595 4.92996
600 0.56101
Ex : 243
200 5.84249
205 5.8055
210 5.4985
215 4.71245
220 5.43769
225 5.06943
230 8.21479
235 6.84175
240 7.55147
245 5.13244
250 4.15151
255 3.78992
260 5.13498
265 6.94023
270 5.06497
275 7.16634
280 3.55987
285 4.00941
290 4.5108
295 3.93432
300 6.79397
305 5.57796
310 4.944
315 5.35515
320 5.86073
325 5.91136
330 4.71198
335 5.48046
340 5.39527
345 5.75593
350 7.36995
355 5.06194
360 7.0926
365 6.81639
370 6.25887
375 4.463
380 4.1728
385 7.33329
390 3.72964
395 4.90431
400 4.56323
405 4.909
410 5.32614
415 4.46944
420 5.23932
425 5.11072
430 5.17491
435 3.78889
440 3.9945
445 5.55255
450 4.99688
455 4.89213
460 4.80653
465 7.23166
470 6.51081
475 6.31179
480 5.21695
485 6.20736
490 5.40068
495 4.42311
500 4.402
505 4.38984
510 5.28958
515 7.11909
520 5.58124
525 4.4282
530 4.52591
535 4.1947
540 6.01611
545 5.8469
550 6.35264
555 8.59782
560 7.31113
565 4.21535
570 3.91651
575 5.08146
580 5.24726
585 4.47545
590 4.95957
595 4.07135
600 0.463304
Ex : 248
200 3.03125
205 4.52276
210 4.04816
215 3.1668
220 4.38131
225 4.76326
230 3.85276
235 5.50808
240 4.56487
245 5.4965
250 5.73402
255 4.83829
260 4.88685
265 3.22004
270 3.30414
275 3.75568
280 4.43759
285 3.6841
290 3.24946
295 4.67536
300 4.12624
305 3.78816
310 3.7488
315 4.08461
320 4.71121
325 3.81534
330 3.89331
335 4.53147
340 4.16849
345 4.01636
350 5.65965
355 3.88346
360 4.38061
365 4.64042
370 5.01089
375 4.29943
380 7.22658
385 4.83389
390 4.85602
395 6.03248
400 4.56327
405 3.617
410 5.34129
415 4.75868
420 5.73291
425 4.05507
430 4.39416
435 6.1619
440 4.60665
445 5.21199
450 5.80509
455 5.1904
460 6.60476
465 5.96708
470 6.04887
475 4.0713
480 4.11652
485 4.60591
490 3.30857
495 2.37529
500 4.17012
505 4.34467
510 4.49904
515 4.56241
520 4.36222
525 3.18492
530 4.48659
535 3.74157
540 4.0542
545 4.27447
550 5.4443
555 4.27647
560 3.70253
565 4.67078
570 6.39092
575 4.30742
580 4.78867
585 3.69082
590 4.1199
595 4.22265
600 7.01627
Ex : 253
200 2.39578
205 3.50786
210 3.39517
215 3.52791
220 2.81967
225 2.75732
230 3.30649
235 4.16856
240 3.0004
245 2.74818
250 3.33567
255 3.13769
260 3.93732
265 4.84334
270 3.64473
275 3.10434
280 2.6629
285 3.39174
290 3.55801
295 2.55611
300 3.45049
305 2.91636
310 3.85343
315 4.05676
320 5.41136
325 4.68232
330 3.66809
335 3.2709
340 4.56198
345 3.41439
350 4.04414
355 3.54793
360 3.17584
365 4.30218
370 3.38164
375 3.28708
380 3.59872
385 3.50773
390 2.86788
395 2.85477
400 3.9141
405 3.72731
410 5.43579
415 3.39534
420 5.7177
425 5.26787
430 3.78887
435 3.56057
440 3.80428
445 4.72437
450 3.22378
455 4.42586
460 3.32628
465 3.92801
470 3.96855
475 4.18784
480 3.58279
485 3.37426
490 4.14405
495 4.14848
500 4.33424
505 4.48686
510 4.16289
515 3.43169
520 2.62338
525 4.71044
530 4.92666
535 3.92355
540 4.18566
545 3.8065
550 3.68956
555 3.54552
560 3.36382
565 5.43648
570 3.38208
575 3.95968
580 4.17312
585 3.14897
590 4.01683
595 3.55425
600 4.61393
Ex : 258
200 2.19335
205 3.06693
210 3.35299
215 3.37912
220 2.29035
225 2.9839
230 2.98465
235 3.08948
240 3.18001
245 2.14759
250 2.62829
255 3.32303
260 3.02729
265 2.47788
270 2.83654
275 2.16669
280 2.33096
285 2.18942
290 2.45902
295 3.18628
300 3.32482
305 2.74343
310 2.37743
315 2.33342
320 3.23747
325 3.19897
330 4.1569
335 3.63587
340 3.05506
345 3.09356
350 4.90828
355 3.29053
360 3.09925
365 3.52096
370 3.66116
375 3.02118
380 4.10036
385 4.21694
390 3.79117
395 3.18015
400 3.99421
405 3.14331
410 3.98499
415 4.272
420 5.06743
425 4.38279
430 3.3346
435 3.59661
440 2.81799
445 2.93026
450 2.50522
455 3.03557
460 3.14328
465 3.50344
470 4.25627
475 3.41735
480 3.63524
485 3.12121
490 3.71965
495 3.1662
500 3.28533
505 3.35572
510 3.92859
515 4.13926
520 2.83489
525 3.12891
530 4.2606
535 3.35463
540 3.27505
545 3.17837
550 3.4923
555 3.51814
560 2.3853
565 2.97907
570 3.18176
575 2.79302
580 2.40202
585 2.72176
590 2.82
595 2.92185
600 0.332495
Ex : 263
200 2.86757
205 2.2648
210 1.51069
215 2.06116
220 2.66335
225 2.85299
230 2.03611
235 2.93854
240 2.57783
245 2.81515
250 2.30128
255 2.8173
260 2.25853
265 2.00989
270 1.68346
275 2.38023
280 2.82775
285 2.50018
290 1.92885
295 1.95051
300 2.12684
305 2.32633
310 2.3901
315 1.99592
320 1.98754
325 2.68501
330 2.40445
335 2.94867
340 2.31294
345 2.43219
350 2.57013
355 2.56894
360 3.00001
365 3.30688
370 2.26872
375 2.39796
380 2.95943
385 2.35649
390 2.09843
395 2.90041
400 3.21613
405 2.35024
410 2.88198
415 3.01285
420 3.72981
425 3.18152
430 2.53071
435 2.49525
440 2.62829
445 2.9501
450 2.60113
455 2.63277
460 2.8095
465 3.201
470 3.14103
475 2.8282
480 2.34405
485 2.35219
490 2.24517
495 2.01293
500 2.85313
505 2.47022
510 2.02024
515 2.3955
520 3.02073
525 2.33847
530 2.70046
535 2.37213
540 2.47053
545 2.26815
550 2.24028
555 2.04844
560 2.81698
565 2.2325
570 2.28424
575 2.49885
580 2.39001
585 2.1285
590 1.86718
595 2.35033
600 0.64726
Ex : 268
200 1.60753
205 1.71615
210 1.77261
215 2.02988
220 1.79682
225 2.02887
230 1.55957
235 1.79955
240 2.5788
245 1.99078
250 1.81473
255 2.74247
260 1.71301
265 2.79067
270 1.36258
275 1.77858
280 1.35091
285 1.92614
290 2.24039
295 1.84187
300 1.71016
305 1.26924
310 2.27084
315 1.64652
320 1.5185
325 1.56626
330 1.99278
335 1.85748
340 1.92952
345 1.70984
350 2.00421
355 2.4074
360 2.35409
365 2.59131
370 2.22368
375 2.10536
380 2.32259
385 2.87295
390 2.46285
395 1.94129
400 2.23425
405 2.62425
410 2.29136
415 2.6963
420 3.04424
425 2.60564
430 2.40109
435 1.82561
440 2.39698
445 2.08225
450 1.941
455 2.54926
460 2.6365
465 2.76693
470 2.80009
475 2.60535
480 2.20577
485 2.08835
490 1.62921
495 1.68485
500 1.93743
505 2.18681
510 1.46079
515 2.49558
520 1.76499
525 2.40373
530 2.7079
535 2.12784
540 1.6654
545 1.6511
550 1.69274
555 1.82908
560 1.51017
565 2.43659
570 2.32896
575 1.61861
580 2.34022
585 2.74548
590 1.94352
595 1.90519
600 0.659906
Ex : 273
200 2.13747
205 1.28173
210 1.23084
215 1.97584
220 1.60145
225 1.48161
230 1.44041
235 1.97434
240 1.83702
245 1.5796
250 1.56203
255 2.04201
260 1.32301
265 1.20389
270 1.53658
275 1.6564
280 1.1092
285 1.52079
290 1.45422
295 1.51062
300 1.40754
305 0.976336
310 1.19402
315 1.34123
320 1.32834
325 2.21151
330 1.40993
335 1.68744
340 1.70833
345 1.95997
350 1.93867
355 1.45101
360 2.00692
365 1.69263
370 1.66348
375 2.06388
380 1.83159
385 1.99052
390 2.40424
395 1.58595
400 2.42176
405 2.07614
410 1.74077
415 2.21645
420 2.18772
425 1.92638
430 2.17824
435 1.7668
440 2.16343
445 1.68016
450 2.49474
455 2.10889
460 2.57395
465 1.48476
470 1.44202
475 2.35274
480 2.10763
485 1.44636
490 1.61173
495 1.57629
500 1.86287
505 2.20841
510 1.66463
515 1.27962
520 1.75681
525 1.42363
530 1.48079
535 1.94481
540 1.86426
545 2.20046
550 1.26013
555 1.38585
560 1.5027
565 1.07688
570 1.46245
575 1.41374
580 1.60096
585 1.3117
590 1.39912
595 1.4518
600 0.165209
Ex : 278
200 1.34955
205 0.959582
210 1.0663
215 1.37834
220 1.30956
225 1.09995
230 1.29706
235 1.26449
240 1.41721
245 1.09782
250 1.07
255 0.909231
260 1.34399
265 1.61908
270 2.05146
275 1.29285
280 1.34478
285 1.5163
290 1.21392
295 0.981075
300 0.939682
305 1.31568
310 1.2408
315 1.56938
320 1.60725
325 1.11265
330 1.1168
335 1.18145
340 1.17009
345 1.23302
350 1.2314
355 1.20968
360 1.72927
365 1.09027
370 1.76504
375 1.4046
380 2.02592
385 1.91529
390 1.87035
395 1.70801
400 1.56315
405 1.75577
410 1.64038
415 1.64654
420 1.98521
425 1.67009
430 1.57182
435 1.94152
440 1.56668
445 2.13658
450 1.25444
455 2.25416
460 1.64086
465 1.69839
470 1.55844
475 1.41309
480 2.03968
485 1.84652
490 1.38431
495 1.07989
500 0.982261
505 1.40522
510 1.25044
515 1.66724
520 1.33848
525 1.64591
530 1.45014
535 1.22084
540 1.1324
545 1.6302
550 1.83396
555 1.98597
560 1.6703
565 1.54308
570 1.62846
575 1.10219
580 1.64521
585 1.25581
590 1.33464
595 1.443
600 1.73211
Ex : 283
200 1.01422
205 0.918266
210 1.00082
215 1.00212
220 1.16319
225 0.825859
230 1.12303
235 1.203
240 0.919353
245 0.950238
250 1.17691
255 0.654908
260 0.801011
265 1.14527
270 1.21213
275 1.52645
280 0.993744
285 0.971907
290 0.910589
295 0.904562
300 0.909065
305 0.981009
310 1.22406
315 1.13694
320 0.698698
325 1.00503
330 1.09622
335 1.32494
340 1.24897
345 1.1824
350 1.11996
355 1.73011
360 1.28328
365 1.76182
370 1.48462
375 1.46617
380 1.60945
385 1.80819
390 1.76717
395 1.49006
400 1.9168
405 1.77992
410 1.87026
415 1.85636
420 1.77525
425 1.86786
430 1.80704
435 1.74917
440 1.79936
445 1.92805
450 1.41897
455 1.38544
460 1.09272
465 1.34631
470 1.40833
475 1.3323
480 1.33967
485 0.957667
490 0.948645
495 1.05846
500 1.66982
505 0.994678
510 1.38935
515 1.15651
520 1.16373
525 0.943553
530 1.47611
535 1.26139
540 1.36324
545 1.14405
550 0.995628
555 1.96067
560 1.47835
565 1.88933
570 1.26258
575 1.08609
580 1.21983
585 1.17583
590 1.10676
595 0.924532
600 0.561737
Ex : 288
200 0.906524
205 1.22745
210 0.930652
215 1.09462
220 0.749494
225 0.658025
230 0.662527
235 0.77003
240 0.966575
245 1.04476
250 0.979455
255 0.74765
260 0.895021
265 0.715593
270 0.573518
275 0.695082
280 1.37972
285 0.77291
290 0.902591
295 0.879956
300 0.898112
305 0.898056
310 0.727982
315 0.977991
320 0.862481
325 1.04642
330 0.920028
335 0.917805
340 1.12686
345 0.891966
350 1.01126
355 1.01928
360 1.40299
365 1.0898
370 1.59843
375 2.04967
380 1.56702
385 1.46974
390 1.26187
395 1.33517
400 1.6759
405 1.3116
410 1.41723
415 1.5129
420 1.44772
425 1.07334
430 1.40197
435 1.33707
440 1.30819
445 1.26315
450 1.67001
455 1.39634
460 1.35628
465 1.30417
470 1.27832
475 0.954393
480 1.00997
485 1.1117
490 0.842395
495 1.17381
500 1.05001
505 0.865735
510 1.18927
515 1.13343
520 0.620324
525 0.918361
530 0.902539
535 1.08756
540 0.89905
545 1.11672
550 1.12922
555 0.947568
560 1.09777
565 1.11166
570 1.49589
575 1.48049
580 1.10871
585 0.655458
590 0.873725
595 0.838584
600 0.765484
Ex : 293
200 0.606575
205 0.609624
210 0.579511
215 0.71727
220 0.822019
225 0.766375
230 0.722323
235 0.827877
240 0.668954
245 1.03294
250 0.763607
255 0.433173
260 0.658028
265 0.874324
270 0.837602
275 0.862095
280 0.800824
285 0.889761
290 0.936136
295 0.679871
300 1.02555
305 0.604212
310 0.859893
315 0.874897
320 0.61328
325 0.84498
330 0.822344
335 0.899479
340 0.925565
345 0.714591
350 0.960398
355 0.999307
360 0.937399
365 1.43103
370 1.1214
375 1.06471
380 1.04207
385 1.22253
390 1.28322
395 1.2872
400 1.45241
405 1.59179
410 1.4781
415 1.43633
420 1.10504
425 1.1461
430 1.26962
435 1.82596
440 1.36652
445 1.42957
450 1.20841
455 1.14499
460 1.28735
465 1.12875
470 0.857669
475 1.24741
480 0.97002
485 1.41524
490 1.05387
495 1.35537
500 0.951725
505 0.6354
510 0.830344
515 0.657479
520 0.900448
525 0.817716
530 0.720959
535 0.880055
540 1.0855
545 0.890332
550 0.716418
555 0.642079
560 0.841361
565 0.766895
570 0.78493
575 1.50107
580 1.10551
585 1.16421
590 0.72661
595 0.761731
600 3.91737
Ex : 298
200 0.520756
205 0.467677
210 0.628698
215 0.55064
220 0.630772
225 0.597487
230 0.528405
235 0.450208
240 0.437803
245 0.643249
250 0.58765
255 0.522776
260 0.655371
265 0.808569
270 0.617064
275 0.70475
280 0.558085
285 0.657021
290 0.683955
295 0.860979
300 0.585798
305 0.67758
310 0.446528
315 0.574385
320 0.679396
325 0.683208
330 0.672111
335 0.936502
340 0.720317
345 0.810379
350 0.773976
355 0.753959
360 0.979469
365 1.19469
370 0.928892
375 0.932169
380 1.23113
385 1.33173
390 1.15128
395 1.28393
400 1.4107
405 1.08992
410 1.28278
415 1.3205
420 1.18116
425 1.68154
430 1.28913
435 1.14445
440 1.1341
445 0.995843
450 1.27274
455 0.948905
460 1.03717
465 1.18073
470 0.815336
475 1.07395
480 1.03388
485 0.90461
490 0.945836
495 0.708268
500 0.675901
505 0.81398
510 0.694275
515 0.774492
520 0.535534
525 0.7062
530 0.778634
535 0.603416
540 0.796299
545 0.820455
550 0.910546
555 0.746776
560 0.738926
565 0.729266
570 0.808582
575 0.934918
580 0.614381
585 0.919862
590 1.12402
595 0.987806
600 3.00961
Ex : 303
200 0.409146
205 0.483939
210 0.578704
215 0.441238
220 0.496506
225 0.661997
230 0.660892
235 0.615479
240 0.416613
245 0.913086
250 0.547889
255 0.693217
260 0.640005
265 0.719355
270 0.482711
275 0.517841
280 0.593713
285 0.53816
290 0.728129
295 0.862346
300 0.533255
305 0.415591
310 0.537336
315 0.42206
320 0.658437
325 0.76783
330 0.550869
335 0.498671
340 0.53746
345 0.654227
350 1.03856
355 0.640909
360 0.968828
365 0.860987
370 1.05535
375 0.920873
380 1.05404
385 0.943661
390 1.06504
395 1.14934
400 1.03195
405 1.00434
410 1.00727
415 1.0785
420 1.18653
425 0.995287
430 0.81091
435 0.97706
440 0.90356
445 1.07579
450 0.961945
455 1.02829
460 1.12532
465 0.908743
470 0.770642
475 0.764375
480 0.776844
485 0.694134
490 0.695123
495 0.459607
500 0.688041
505 0.844349
510 0.714183
515 0.510056
520 0.550219
525 1.00783
530 0.567659
535 0.427458
540 0.546864
545 0.715882
550 0.631878
555 0.504694
560 0.434692
565 0.499005
570 0.55892
575 0.539223
580 0.440606
585 0.639644
590 0.552772
595 0.894966
600 1.36356
Ex : 308
200 0.403833
205 0.51125
210 0.510995
215 0.612182
220 0.56665
225 0.538886
230 0.638261
235 0.5531
240 0.335089
245 0.417043
250 0.436599
255 0.45193
260 0.451404
265 0.481739
270 0.520605
275 0.68311
280 0.625996
285 0.450235
290 0.282839
295 0.534781
300 0.602564
305 0.901309
310 0.553939
315 0.402374
320 0.43945
325 0.540275
330 0.61917
335 0.573414
340 0.687428
345 0.645809
350 0.88941
355 0.645634
360 0.693813
365 0.732552
370 0.916849
375 0.780821
380 1.01668
385 1.14652
390 1.39058
395 1.03042
400 0.980698
405 1.27517
410 1.23515
415 1.12755
420 1.23265
425 0.988242
430 1.11657
435 1.1298
440 1.08132
445 0.806211
450 1.16327
455 0.992753
460 0.863965
465 0.983895
470 0.842655
475 0.815093
480 0.740281
485 0.601351
490 0.729345
495 0.723929
500 0.579229
505 0.756805
510 0.401999
515 0.551171
520 0.620852
525 0.792305
530 0.582882
535 0.461272
540 0.518123
545 0.583945
550 0.653927
555 0.410528
560 0.654132
565 0.555875
570 0.565345
575 0.762831
580 0.471339
585 0.33981
590 0.635704
595 0.468563
600 0.261839
Ex : 313
200 0.46433
205 0.389765
210 0.363853
215 0.471956
220 0.327081
225 0.473463
230 0.407643
235 0.391008
240 0.343006
245 0.532064
250 0.420439
255 0.412816
260 0.382706
265 0.479402
270 0.536946
275 0.465018
280 0.410744
285 0.373698
290 0.521702
295 0.41067
300 0.461987
305 0.820287
310 0.693271
315 0.481216
320 0.488954
325 0.56263
330 0.571291
335 0.608998
340 0.734983
345 0.791015
350 0.692535
355 0.72689
360 0.883746
365 0.933461
370 1.03166
375 1.13519
380 1.13811
385 1.7202
390 1.63353
395 1.50682
400 1.49707
405 1.81808
410 1.69238
415 1.50823
420 1.58934
425 1.26784
430 1.38661
435 1.7678
440 1.53239
445 1.54902
450 1.26549
455 1.36963
460 1.14179
465 1.04936
470 0.975341
475 1.16176
480 1.02334
485 0.88013
490 0.668452
495 0.633976
500 0.828921
505 0.687127
510 0.928662
515 0.704755
520 0.641442
525 0.645821
530 0.545363
535 0.734608
540 0.560824
545 0.477931
550 0.580064
555 0.611786
560 0.456684
565 0.394707
570 0.45846
575 0.492939
580 0.372126
585 0.410762
590 0.435376
595 0.45716
600 0.242725
Ex : 318
200 0.39148
205 0.43988
210 0.51758
215 0.386978
220 0.392084
225 0.37919
230 0.32918
235 0.5036
240 0.338894
245 0.393727
250 0.382013
255 0.37601
260 0.509682
265 0.479573
270 0.329502
275 0.282611
280 0.381271
285 0.274066
290 0.337304
295 0.623051
300 0.478278
305 0.351043
310 0.742153
315 1.01472
320 0.594961
325 0.561746
330 0.763611
335 0.950514
340 1.392
345 2.0943
350 2.49487
355 2.96169
360 4.0316
365 4.58403
370 5.95424
375 7.30019
380 7.93299
385 8.70628
390 9.84006
395 10.877
400 10.6487
405 11.0974
410 10.6991
415 10.7167
420 10.5149
425 10.1136
430 10.347
435 9.88258
440 9.28257
445 8.69747
450 8.32049
455 7.50999
460 7.78452
465 6.48344
470 6.13688
475 5.83405
480 5.0663
485 4.43376
490 4.02802
495 3.62176
500 3.26036
505 2.79089
510 2.33735
515 2.13409
520 1.5785
525 1.53451
530 1.49151
535 1.12609
540 1.36771
545 0.958906
550 0.859321
555 0.896955
560 0.950842
565 0.724798
570 0.721824
575 0.790523
580 0.517033
585 0.45781
590 0.655616
595 0.370008
600 0.691988
Ex : 323
200 0.414207
205 0.430417
210 0.298131
215 0.425706
220 0.349143
225 0.349117
230 0.452651
235 0.345982
240 0.355367
245 0.291131
250 0.33133
255 0.308681
260 0.323428
265 0.371721
270 0.311407
275 0.341736
280 0.394578
285 0.362171
290 0.411201
295 0.493891
300 0.354775
305 0.342752
310 0.290786
315 2.53944
320 9.7421
325 4.9264
330 2.76675
335 3.47398
340 5.21689
345 7.15036
350 10.0484
355 13.8858
360 15.9787
365 19.9887
370 23.6871
375 27.7026
380 31.4273
385 35.224
390 38.7898
395 40.3668
400 41.6144
405 43.2069
410 42.9014
415 42.146
420 42.0636
425 41.1008
430 38.9092
435 36.925
440 36.4215
445 34.0339
450 32.3787
455 29.3976
460 26.844
465 25.8571
470 22.8823
475 20.8488
480 18.7972
485 17.1768
490 15.4866
495 12.8075
500 11.3665
505 10.405
510 9.21521
515 7.93637
520 6.95625
525 5.7625
530 5.64048
535 4.65858
540 4.29165
545 3.45315
550 3.27382
555 2.53632
560 2.11477
565 2.00415
570 1.73401
575 1.38362
580 1.09181
585 0.956496
590 0.664784
595 0.77166
600 0.794985
Ex : 328
200 0.185346
205 0.381512
210 0.361967
215 0.262596
220 0.273794
225 0.298006
230 0.297289
235 0.296488
240 0.362461
245 0.320651
250 0.4037
255 0.347175
260 0.299996
265 0.258373
270 0.197288
275 0.319667
280 0.206845
285 0.413924
290 0.33317
295 0.321506
300 0.317182
305 0.367594
310 0.345001
315 0.88695
320 23.473
325 54.668
330 18.5655
335 6.29153
340 6.72052
345 8.47538
350 10.7032
355 15.693
360 21.3992
365 24.1631
370 26.8277
375 30.9239
380 34.4299
385 38.1145
390 40.8726
395 45.0446
400 45.6814
405 47.7876
410 47.6231
415 46.6479
420 46.116
425 44.2923
430 42.3815
435 40.9148
440 38.4015
445 36.6902
450 34.7117
455 31.5468
460 29.8002
465 27.18
470 24.9375
475 23.0308
480 19.9936
485 18.6263
490 16.7963
495 14.8487
500 13.2148
505 11.9615
510 10.2028
515 8.9499
520 7.55107
525 6.40292
530 5.56158
535 5.25054
540 4.23837
545 3.81453
550 3.60658
555 2.93466
560 2.351
565 2.27616
570 1.97227
575 1.43742
580 1.36132
585 0.942393
590 0.853877
595 0.605774
600 0.323308
Ex : 333
200 0.326615
205 0.348941
210 0.355567
215 0.302695
220 0.354969
225 0.285642
230 0.269369
235 0.192888
240 0.338211
245 0.287336
250 0.326871
255 0.201289
260 0.340515
265 0.330852
270 0.297894
275 0.353465
280 0.291885
285 0.278106
290 0.272243
295 0.325381
300 0.316574
305 0.376477
310 0.389494
315 0.289866
320 3.393
325 65.5598
330 116.151
335 31.9859
340 7.82134
345 6.6269
350 7.39346
355 8.44749
360 12.9877
365 17.9507
370 18.958
375 18.6632
380 20.0189
385 22.3162
390 24.2908
395 25.572
400 27.0665
405 28.0706
410 27.6192
415 27.593
420 26.5546
425 26.0586
430 24.4962
435 23.4671
440 21.9868
445 20.3245
450 19.4789
455 18.7138
460 16.5905
465 15.5013
470 14.2869
475 12.884
480 11.7606
485 10.8222
490 9.97747
495 9.0197
500 7.93229
505 6.91677
510 6.10856
515 5.14446
520 4.97594
525 4.21763
530 4.0861
535 3.15102
540 2.82236
545 2.42242
550 2.38494
555 1.84255
560 1.77147
565 1.54638
570 1.14825
575 1.10993
580 0.921141
585 0.85835
590 0.740737
595 0.580187
600 0.37111
Ex : 338
200 0.316222
205 0.194538
210 0.288254
215 0.222703
220 0.283912
225 0.289386
230 0.2748
235 0.353107
240 0.203899
245 0.304913
250 0.316322
255 0.301121
260 0.233766
265 0.253842
270 0.225571
275 0.161836
280 0.224963
285 0.338727
290 0.246423
295 0.295623
300 0.236088
305 0.273433
310 0.269573
315 0.292305
320 0.405668
325 6.47993
330 103.266
335 153.27
340 39.6869
345 7.71754
350 5.05127
355 4.66283
360 4.84681
365 7.2542
370 12.7598
375 13.3183
380 12.0858
385 11.829
390 12.4848
395 13.9407
400 14.4693
405 14.6504
410 14.8407
415 14.8621
420 14.3513
425 14.4561
430 14.2623
435 13.3017
440 12.3686
445 11.8901
450 11.1585
455 10.9798
460 9.9693
465 9.0662
470 8.31502
475 7.71073
480 7.25662
485 6.91817
490 6.02057
495 5.32448
500 5.0875
505 4.21005
510 3.89089
515 3.69282
520 3.4973
525 2.97805
530 2.72709
535 2.235
540 2.17184
545 1.81795
550 1.80903
555 1.59906
560 1.40338
565 1.12868
570 1.10026
575 1.03263
580 0.790344
585 0.603649
590 0.605553
595 0.460239
600 0.71051
Ex : 343
200 0.246667
205 0.200476
210 0.221921
215 0.174681
220 0.279547
225 0.174942
230 0.251604
235 0.289185
240 0.214413
245 0.253595
250 0.183345
255 0.251268
260 0.231283
265 0.317644
270 0.23915
275 0.258804
280 0.241186
285 0.257374
290 0.263261
295 0.247213
300 0.172771
305 0.283906
310 0.290518
315 0.209082
320 0.251107
325 0.363911
330 8.03735
335 118.762
340 174.26
345 42.9652
350 7.61907
355 3.95896
360 3.66058
365 3.48304
370 4.63962
375 9.43721
380 10.8665
385 9.54066
390 8.81816
395 9.27692
400 9.90855
405 10.5438
410 10.7875
415 11.2099
420 10.8563
425 10.781
430 10.4403
435 9.81714
440 9.33307
445 9.15949
450 8.67168
455 8.2754
460 8.07382
465 7.36729
470 7.00939
475 6.41036
480 5.96147
485 5.4168
490 4.96579
495 4.65566
500 4.43236
505 3.97057
510 3.62656
515 2.97619
520 2.73927
525 2.5481
530 2.25949
535 2.20038
540 2.1905
545 1.73547
550 1.53014
555 1.21783
560 1.32296
565 1.03923
570 0.971061
575 0.879811
580 0.767735
585 0.632979
590 0.466657
595 0.45623
600 0.608087
Ex : 348
200 0.247715
205 0.206634
210 0.234273
215 0.234942
220 0.208329
225 0.271924
230 0.20053
235 0.267124
240 0.201658
245 0.180831
250 0.276571
255 0.223381
260 0.226386
265 0.208957
270 0.345693
275 0.300492
280 0.258921
285 0.282988
290 0.336334
295 0.244155
300 0.21737
305 0.219556
310 0.15616
315 0.31326
320 0.321654
325 0.279041
330 0.361294
335 8.143
340 121.732
345 184.821
350 48.3718
355 7.64974
360 3.29001
365 3.20596
370 2.7936
375 3.63714
380 7.26489
385 10.4023
390 9.93472
395 9.12882
400 9.11353
405 9.03168
410 9.6726
415 9.75617
420 10.0475
425 9.84914
430 9.82791
435 9.74404
440 9.10508
445 8.68407
450 8.65192
455 8.44487
460 8.1599
465 7.47786
470 6.6883
475 6.11668
480 6.1382
485 5.62958
490 5.12538
495 4.67233
500 4.58818
505 4.20197
510 3.66012
515 3.051
520 2.96007
525 2.42757
530 2.37649
535 2.17051
540 2.00654
545 1.89649
550 1.55773
555 1.38655
560 1.20828
565 1.19819
570 0.988623
575 0.831842
580 0.602592
585 0.578177
590 0.646452
595 0.41738
600 1.30389
Ex : 353
200 0.186417
205 0.172667
210 0.155086
215 0.245064
220 0.230955
225 0.189722
230 0.160152
235 0.203586
240 0.218936
245 0.220922
250 0.191443
255 0.228413
260 0.180979
265 0.207028
270 0.17537
275 0.244823
280 0.22799
285 0.22398
290 0.228354
295 0.192334
300 0.165138
305 0.206006
310 0.187986
315 0.212841
320 0.212895
325 0.220184
330 0.316342
335 0.428769
340 8.56677
345 127.193
350 183.012
355 46.0973
360 7.13256
365 3.23645
370 2.92177
375 2.35961
380 3.14239
385 6.85679
390 10.9097
395 11.0725
400 9.96966
405 8.9718
410 9.36112
415 9.98593
420 10.2281
425 10.2923
430 9.6576
435 9.43247
440 9.23954
445 9.32659
450 9.16471
455 8.49381
460 8.29375
465 7.39765
470 6.96863
475 6.46662
480 6.31929
485 5.68885
490 5.15431
495 4.80745
500 4.44353
505 3.90607
510 3.60257
515 3.2965
520 2.9569
525 2.53492
530 2.34718
535 2.37889
540 2.10027
545 1.64207
550 1.38243
555 1.46508
560 1.2269
565 0.952628
570 0.919566
575 0.858591
580 0.683101
585 0.544844
590 0.470503
595 0.448986
600 0.496756
Ex : 358
200 0.313248
205 0.225391
210 0.216165
215 0.211586
220 0.210374
225 0.208685
230 0.229103
235 0.136257
240 0.193829
245 0.187433
250 0.28317
255 0.287516
260 0.208293
265 0.20981
270 0.201002
275 0.145392
280 0.332522
285 0.21412
290 0.213107
295 0.220576
300 0.176129
305 0.18138
310 0.172711
315 0.201972
320 0.209069
325 0.195263
330 0.258031
335 0.286092
340 0.546097
345 8.27121
350 123.492
355 187.369
360 47.8155
365 7.11858
370 3.11634
375 3.0442
380 2.64576
385 3.34181
390 6.35685
395 11.7823
400 12.6424
405 10.5112
410 9.73408
415 9.76068
420 9.5808
425 10.0746
430 10.0427
435 9.18598
440 8.80531
445 8.92626
450 8.83436
455 8.41087
460 8.38851
465 7.44281
470 7.07043
475 6.73512
480 6.4862
485 5.56408
490 5.38762
495 4.91469
500 4.25519
505 3.9453
510 3.63503
515 3.18697
520 2.94813
525 2.71557
530 2.34698
535 2.0718
540 1.89518
545 1.81156
550 1.59331
555 1.31056
560 1.23305
565 1.15852
570 0.938289
575 0.646623
580 0.645708
585 0.602934
590 0.552507
595 0.396337
600 0.369559
Ex : 363
200 0.155705
205 0.16775
210 0.194832
215 0.240528
220 0.163792
225 0.146511
230 0.175428
235 0.200626
240 0.214271
245 0.158249
250 0.164867
255 0.167107
260 0.171962
265 0.19113
270 0.20169
275 0.236826
280 0.196059
285 0.162119
290 0.19058
295 0.159701
300 0.172858
305 0.214657
310 0.17593
315 0.18435
320 0.199911
325 0.218811
330 0.231879
335 0.201107
340 0.222522
345 0.401613
350 7.30635
355 118.873
360 189.636
365 50.1154
370 7.44033
375 2.70412
380 3.01903
385 3.27752
390 4.1357
395 6.92058
400 11.4041
405 12.8057
410 10.6906
415 9.45586
420 9.26984
425 9.5427
430 9.56743
435 9.09152
440 8.68967
445 8.5738
450 8.95021
455 8.33378
460 8.10613
465 7.58407
470 6.88762
475 6.92673
480 6.03523
485 5.71435
490 5.41986
495 4.89687
500 4.7455
505 4.32896
510 3.82484
515 3.3581
520 2.82512
525 2.75387
530 2.43878
535 2.46027
540 2.03963
545 1.79498
550 1.60169
555 1.56549
560 1.26227
565 0.993166
570 1.0004
575 0.783105
580 0.616041
585 0.456535
590 0.499864
595 0.312994
600 0.333988
Ex : 368
200 0.194909
205 0.166817
210 0.254464
215 0.168583
220 0.119602
225 0.163704
230 0.198834
235 0.221462
240 0.171954
245 0.15368
250 0.185837
255 0.16706
260 0.158362
265 0.123798
270 0.222677
275 0.16029
280 0.22615
285 0.150746
290 0.207429
295 0.218826
300 0.312427
305 0.207418
310 0.212947
315 0.160341
320 0.211061
325 0.193829
330 0.225969
335 0.270033
340 0.279124
345 0.266438
350 0.409634
355 6.41665
360 116.093
365 193.884
370 53.0897
375 7.74857
380 2.88838
385 3.86359
390 4.77973
395 5.714
400 7.08061
405 10.6159
410 13.405
415 11.9151
420 10.6411
425 10.2691
430 9.65632
435 9.15293
440 8.9372
445 8.74893
450 8.38149
455 8.31536
460 7.78961
465 7.39353
470 7.21814
475 6.89888
480 6.37092
485 5.76633
490 5.40462
495 5.22338
500 4.63964
505 4.21373
510 3.79792
515 3.44241
520 3.17312
525 2.85683
530 2.52829
535 2.36838
540 2.1541
545 1.8782
550 1.55601
555 1.37765
560 1.27162
565 1.13314
570 0.995346
575 0.808062
580 0.705711
585 0.548913
590 0.52846
595 0.434478
600 0.0577631
Ex : 373
200 0.136072
205 0.21164
210 0.140832
215 0.142963
220 0.140825
225 0.214571
230 0.247258
235 0.165682
240 0.184583
245 0.151423
250 0.149003
255 0.147901
260 0.185011
265 0.18836
270 0.167344
275 0.132871
280 0.210842
285 0.179608
290 0.151179
295 0.183042
300 0.157954
305 0.193263
310 0.173339
315 0.161006
320 0.151304
325 0.193039
330 0.200898
335 0.1881
340 0.225943
345 0.216765
350 0.268272
355 0.359195
360 7.44253
365 122.789
370 195.855
375 53.1695
380 7.93125
385 3.51006
390 4.95232
395 6.75851
400 6.9959
405 7.69465
410 10.3281
415 13.9066
420 13.3288
425 11.7293
430 10.3017
435 9.5621
440 9.04113
445 8.87952
450 8.55836
455 8.46597
460 7.81936
465 7.3926
470 6.99363
475 6.77914
480 5.98231
485 5.85615
490 5.6766
495 5.06241
500 4.63318
505 4.16693
510 3.73794
515 3.48923
520 2.95658
525 2.78661
530 2.49585
535 2.0462
540 1.97581
545 1.92021
550 1.61696
555 1.47909
560 1.27361
565 1.08391
570 0.906895
575 0.758135
580 0.672125
585 0.53412
590 0.495033
595 0.386435
600 0.166074
Ex : 378
200 0.184092
205 0.155376
210 0.128279
215 0.120024
220 0.139308
225 0.113976
230 0.173544
235 0.182987
240 0.148812
245 0.184335
250 0.143544
255 0.137624
260 0.117251
265 0.161516
270 0.197288
275 0.142374
280 0.186001
285 0.151234
290 0.122649
295 0.136441
300 0.117812
305 0.192158
310 0.164484
315 0.17941
320 0.199312
325 0.137742
330 0.139034
335 0.19004
340 0.217493
345 0.22321
350 0.277709
355 0.275855
360 0.412078
365 7.07312
370 122.727
375 201.532
380 55.7991
385 8.73519
390 4.49522
395 6.07678
400 6.93021
405 6.89202
410 6.81666
415 9.0253
420 12.828
425 12.4153
430 10.681
435 9.03475
440 8.11307
445 7.9547
450 7.90235
455 7.69539
460 7.17999
465 7.23353
470 6.60446
475 6.3264
480 5.90254
485 5.87312
490 5.41147
495 4.86517
500 4.42373
505 4.16151
510 3.86188
515 3.34926
520 3.10611
525 2.78662
530 2.42159
535 2.19687
540 1.90866
545 1.82361
550 1.73036
555 1.41294
560 1.20999
565 1.15848
570 0.908552
575 0.716334
580 0.588276
585 0.504241
590 0.468486
595 0.324784
600 0.532191
Ex : 383
200 0.140705
205 0.158594
210 0.132429
215 0.117981
220 0.154847
225 0.145905
230 0.146577
235 0.122338
240 0.168214
245 0.212463
250 0.177102
255 0.172664
260 0.118696
265 0.124854
270 0.111008
275 0.124168
280 0.176627
285 0.130938
290 0.147395
295 0.218512
300 0.141454
305 0.146938
310 0.181039
315 0.164161
320 0.150507
325 0.167735
330 0.156729
335 0.179094
340 0.179556
345 0.192609
350 0.224551
355 0.261659
360 0.28155
365 0.400186
370 6.80781
375 121.986
380 208.361
385 58.2912
390 9.87829
395 5.24299
400 5.7658
405 5.92641
410 5.70093
415 5.8319
420 7.49034
425 10.0655
430 11.2236
435 9.18152
440 7.64776
445 7.42041
450 6.94542
455 6.94766
460 6.54846
465 6.34227
470 6.23212
475 5.78878
480 5.61451
485 5.21115
490 5.06304
495 4.4729
500 4.25619
505 3.8526
510 3.71267
515 3.08329
520 2.77129
525 2.74295
530 2.65421
535 2.29608
540 2.07918
545 1.81205
550 1.74393
555 1.38121
560 1.36749
565 1.14549
570 0.889714
575 0.622572
580 0.662885
585 0.504893
590 0.390609
595 0.403708
600 0.291135
Ex : 388
200 0.163631
205 0.162592
210 0.164708
215 0.182508
220 0.166036
225 0.151654
230 0.12277
235 0.118771
240 0.159903
245 0.179613
250 0.11393
255 0.129165
260 0.162113
265 0.0981231
270 0.1351
275 0.15249
280 0.169166
285 0.143469
290 0.147725
295 0.138331
300 0.169206
305 0.136133
310 0.131511
315 0.127347
320 0.189817
325 0.152664
330 0.182002
335 0.178043
340 0.14915
345 0.134767
350 0.176685
355 0.166567
360 0.206183
365 0.28535
370 0.346247
375 7.10714
380 128.606
385 212.613
390 60.2687
395 11.0391
400 5.83638
405 5.83858
410 6.32716
415 6.42233
420 6.40731
425 6.984
430 9.42056
435 10.658
440 9.00661
445 7.8221
450 6.96749
455 6.54846
460 6.27319
465 5.96258
470 5.65701
475 5.41165
480 5.58722
485 5.09361
490 5.07315
495 4.70279
500 4.29112
505 3.72159
510 3.48556
515 3.2442
520 2.89079
525 2.6363
530 2.49987
535 2.16042
540 1.85534
545 1.76605
550 1.64392
555 1.32545
560 1.27681
565 1.12235
570 0.944073
575 0.727049
580 0.620567
585 0.513106
590 0.418905
595 0.41538
600 0.493779
Ex : 393
200 0.169584
205 0.140053
210 0.145348
215 0.138834
220 0.130095
225 0.174585
230 0.125448
235 0.117365
240 0.161275
245 0.138336
250 0.11692
255 0.160608
260 0.14023
265 0.129314
270 0.161772
275 0.122041
280 0.147812
285 0.152246
290 0.255134
295 0.180078
300 0.148831
305 0.133397
310 0.112189
315 0.122763
320 0.213221
325 0.150061
330 0.199553
335 0.136116
340 0.165628
345 0.15864
350 0.200813
355 0.151359
360 0.195527
365 0.17049
370 0.283409
375 0.443601
380 6.63264
385 128.713
390 223.056
395 64.0555
400 12.439
405 6.52292
410 6.3526
415 7.1892
420 7.16828
425 6.95606
430 6.96457
435 8.26658
440 10.5538
445 9.63357
450 8.08526
455 6.91476
460 6.30241
465 5.97525
470 5.87188
475 5.37023
480 5.15134
485 4.89987
490 4.72481
495 4.42499
500 4.19512
505 3.77167
510 3.2621
515 3.14746
520 2.69251
525 2.53139
530 2.28693
535 2.21353
540 1.8816
545 1.66347
550 1.63072
555 1.39869
560 1.31231
565 1.01961
570 0.818415
575 0.75288
580 0.529354
585 0.497297
590 0.394636
595 0.319497
600 0.529409
Ex : 398
200 0.13767
205 0.169646
210 0.100929
215 0.134111
220 0.161116
225 0.138565
230 0.117766
235 0.147352
240 0.202546
245 0.166691
250 0.150153
255 0.118115
260 0.156697
265 0.155254
270 0.154941
275 0.140663
280 0.113981
285 0.152686
290 0.111036
295 0.116042
300 0.146731
305 0.176889
310 0.132949
315 0.166871
320 0.13928
325 0.11493
330 0.148905
335 0.179169
340 0.188818
345 0.163582
350 0.15579
355 0.141977
360 0.168088
365 0.174492
370 0.200207
375 0.270324
380 0.454955
385 7.31155
390 137.665
395 233.928
400 65.3873
405 11.8486
410 5.61543
415 5.74137
420 6.46337
425 6.10464
430 5.92138
435 5.54904
440 6.53183
445 9.14989
450 9.0393
455 7.2678
460 6.33122
465 5.37015
470 4.89644
475 5.0925
480 4.74279
485 4.59972
490 4.29131
495 4.10242
500 3.89822
505 3.43763
510 3.07714
515 2.99103
520 2.60817
525 2.50963
530 2.24045
535 2.04275
540 1.83572
545 1.70604
550 1.59395
555 1.25997
560 1.17559
565 0.992368
570 0.860857
575 0.725032
580 0.643899
585 0.463139
590 0.363233
595 0.348871
600 0.248753
Ex : 403
200 0.157241
205 0.168713
210 0.147633
215 0.122831
220 0.147224
225 0.134195
230 0.143451
235 0.12934
240 0.166225
245 0.127943
250 0.112791
255 0.137968
260 0.141947
265 0.121748
270 0.132201
275 0.166148
280 0.131808
285 0.125044
290 0.112509
295 0.0896991
300 0.145079
305 0.153298
310 0.169689
315 0.14495
320 0.130367
325 0.175937
330 0.122924
335 0.115503
340 0.159509
345 0.156758
350 0.156378
355 0.18257
360 0.170154
365 0.165408
370 0.238751
375 0.21793
380 0.241859
385 0.515403
390 8.14974
395 136.585
400 224.81
405 62.8414
410 9.82427
415 4.06284
420 3.96438
425 4.39345
430 3.84264
435 3.8225
440 3.65865
445 4.29477
450 6.99013
455 7.68402
460 5.99044
465 5.0912
470 4.60671
475 4.10796
480 4.23166
485 3.88438
490 3.7302
495 3.51831
500 3.45931
505 3.26888
510 2.99232
515 2.69598
520 2.38565
525 2.17737
530 1.86945
535 1.93113
540 1.79911
545 1.57339
550 1.41756
555 1.21113
560 1.17389
565 0.94014
570 0.815918
575 0.649709
580 0.610822
585 0.526063
590 0.387844
595 0.323419
600 0.345447
Ex : 408
200 0.122392
205 0.113511
210 0.13191
215 0.124316
220 0.149139
225 0.113002
230 0.158504
235 0.128533
240 0.109305
245 0.114794
250 0.146698
255 0.132219
260 0.129745
265 0.182609
270 0.101014
275 0.132285
280 0.142939
285 0.135529
290 0.115414
295 0.106749
300 0.178152
305 0.131293
310 0.145071
315 0.145373
320 0.149906
325 0.153952
330 0.158488
335 0.123082
340 0.144915
345 0.117933
350 0.15623
355 0.141012
360 0.131954
365 0.152797
370 0.197482
375 0.191532
380 0.196629
385 0.283807
390 0.462484
395 7.81993
400 147.865
405 244.407
410 64.3738
415 9.4619
420 3.02259
425 2.63694
430 3.01389
435 2.79485
440 2.42715
445 2.67911
450 3.22049
455 5.12939
460 6.99301
465 5.47755
470 4.45173
475 4.17751
480 3.65
485 3.48614
490 3.5615
495 3.37778
500 3.26345
505 2.90857
510 2.70376
515 2.5862
520 2.36909
525 2.1571
530 1.90608
535 1.89069
540 1.57353
545 1.52436
550 1.3831
555 1.21617
560 1.02417
565 0.950816
570 0.805919
575 0.711492
580 0.539996
585 0.445503
590 0.393731
595 0.260077
600 0.0295958
Ex : 413
200 0.12503
205 0.146099
210 0.155513
215 0.126379
220 0.125334
225 0.126364
230 0.127262
235 0.147173
240 0.104536
245 0.101699
250 0.104439
255 0.110368
260 0.142642
265 0.125603
270 0.143162
275 0.177711
280 0.11794
285 0.0982388
290 0.121482
295 0.112244
300 0.0886786
305 0.181649
310 0.152231
315 0.115022
320 0.159254
325 0.147432
330 0.131849
335 0.183148
340 0.121258
345 0.16996
350 0.149864
355 0.168211
360 0.162837
365 0.166611
370 0.215735
375 0.192179
380 0.178191
385 0.197376
390 0.331949
395 0.486793
400 8.63216
405 144.844
410 230.834
415 60.7802
420 8.60072
425 2.50444
430 2.1379
435 2.37673
440 2.52222
445 2.20776
450 2.33027
455 2.58953
460 3.98233
465 6.39453
470 5.2568
475 4.13466
480 3.80105
485 3.39379
490 3.09577
495 3.04809
500 2.89708
505 2.99773
510 2.71277
515 2.49666
520 2.15292
525 2.08946
530 2.00458
535 1.88907
540 1.68584
545 1.46789
550 1.32099
555 1.18423
560 1.27757
565 0.913028
570 0.743113
575 0.672145
580 0.508003
585 0.413766
590 0.364609
595 0.347189
600 0.335898
Ex : 418
200 0.0989982
205 0.0971638
210 0.0933125
215 0.134934
220 0.137458
225 0.142354
230 0.104434
235 0.138304
240 0.15991
245 0.140717
250 0.12436
255 0.0889404
260 0.111323
265 0.164215
270 0.125517
275 0.117996
280 0.13918
285 0.139814
290 0.150422
295 0.153505
300 0.155816
305 0.118286
310 0.116226
315 0.110347
320 0.125757
325 0.128327
330 0.131328
335 0.162669
340 0.183691
345 0.167533
350 0.139744
355 0.156143
360 0.141562
365 0.172694
370 0.164112
375 0.126019
380 0.168803
385 0.150564
390 0.212005
395 0.282778
400 0.533906
405 7.61969
410 145.935
415 236.633
420 63.4874
425 8.80852
430 2.56756
435 1.84072
440 2.31554
445 2.18837
450 2.01967
455 1.99176
460 2.32309
465 3.17935
470 5.58594
475 5.83486
480 4.25412
485 3.7554
490 3.36246
495 3.04521
500 2.80265
505 2.60847
510 2.50596
515 2.30943
520 2.14927
525 2.03941
530 2.0551
535 1.7711
540 1.73965
545 1.50473
550 1.27107
555 1.23292
560 0.962672
565 0.958706
570 0.854235
575 0.705266
580 0.570753
585 0.476779
590 0.41512
595 0.382
600 0.0434702
Ex : 423
200 0.209412
205 0.120035
210 0.149289
215 0.129829
220 0.170979
225 0.14401
230 0.113172
235 0.154652
240 0.118499
245 0.120111
250 0.107996
255 0.142433
260 0.143487
265 0.155754
270 0.0999658
275 0.116098
280 0.105396
285 0.134609
290 0.13118
295 0.0939563
300 0.102948
305 0.112274
310 0.154692
315 0.160411
320 0.088269
325 0.133383
330 0.100886
335 0.118815
340 0.131541
345 0.104388
350 0.133538
355 0.154092
360 0.14143
365 0.134665
370 0.138127
375 0.162977
380 0.164557
385 0.180952
390 0.186929
395 0.271926
400 0.262865
405 0.369948
410 8.24319
415 148.484
420 231.937
425 59.4161
430 8.15478
435 2.34159
440 1.8448
445 2.19139
450 2.10741
455 1.76093
460 1.93057
465 2.06536
470 2.63322
475 4.89804
480 5.62003
485 4.26261
490 3.56604
495 3.14485
500 2.662
505 2.45151
510 2.20326
515 2.34357
520 2.10013
525 1.85421
530 1.79541
535 1.72979
540 1.64263
545 1.39055
550 1.28562
555 1.22933
560 1.09785
565 0.934318
570 0.787459
575 0.67645
580 0.581233
585 0.459345
590 0.400932
595 0.335856
600 0.0998425
Ex : 428
200 0.12739
205 0.140487
210 0.127163
215 0.116788
220 0.143357
225 0.123505
230 0.0953707
235 0.114135
240 0.169101
245 0.158079
250 0.0960871
255 0.15354
260 0.173975
265 0.155005
270 0.160888
275 0.124696
280 0.164087
285 0.144055
290 0.128261
295 0.145972
300 0.123263
305 0.213416
310 0.0906785
315 0.122098
320 0.111951
325 0.114095
330 0.148442
335 0.175143
340 0.118145
345 0.152184
350 0.166959
355 0.162905
360 0.162272
365 0.198454
370 0.1241
375 0.187761
380 0.143472
385 0.169716
390 0.231078
395 0.229619
400 0.216518
405 0.26655
410 0.395764
415 8.91343
420 152.732
425 239.725
430 62.9756
435 8.44598
440 2.25162
445 1.66654
450 1.98135
455 2.05386
460 1.86364
465 1.86705
470 1.71949
475 2.29057
480 3.65264
485 5.49719
490 4.24909
495 3.45265
500 2.96005
505 2.59964
510 2.3808
515 2.17151
520 2.16195
525 1.87592
530 1.73844
535 1.67149
540 1.48028
545 1.48616
550 1.29745
555 1.23078
560 1.04144
565 0.968735
570 0.76435
575 0.700729
580 0.540048
585 0.477695
590 0.407409
595 0.301768
600 0.298127
Ex : 433
200 0.0963248
205 0.146449
210 0.174688
215 0.152264
220 0.148101
225 0.141543
230 0.121013
235 0.139124
240 0.127403
245 0.133841
250 0.108553
255 0.110064
260 0.122396
265 0.135109
270 0.135918
275 0.113133
280 0.146837
285 0.148705
290 0.128496
295 0.109302
300 0.141586
305 0.197661
310 0.185769
315 0.182771
320 0.147071
325 0.136812
330 0.117065
335 0.149214
340 0.161592
345 0.141731
350 0.151307
355 0.139224
360 0.128237
365 0.130896
370 0.128761
375 0.142492
380 0.188523
385 0.269847
390 0.204337
395 0.192033
400 0.237807
405 0.194671
410 0.302373
415 0.381812
420 9.82303
425 160.02
430 241.997
435 61.2532
440 8.36242
445 2.14733
450 1.55052
455 1.94749
460 2.1116
465 1.91205
470 1.71479
475 1.81736
480 2.05728
485 3.24289
490 5.12558
495 4.63843
500 3.22358
505 2.88733
510 2.372
515 2.10983
520 1.9363
525 1.99654
530 1.74126
535 1.73295
540 1.48983
545 1.44609
550 1.21668
555 1.21512
560 0.990928
565 0.935683
570 0.845398
575 0.626186
580 0.517368
585 0.417448
590 0.357247
595 0.290857
600 0.19721
Ex : 438
200 0.166087
205 0.108311
210 0.177802
215 0.142255
220 0.142373
225 0.130922
230 0.129915
235 0.0959027
240 0.103505
245 0.14344
250 0.103363
255 0.147512
260 0.125503
265 0.167247
270 0.134146
275 0.162541
280 0.189566
285 0.124244
290 0.160235
295 0.140462
300 0.154371
305 0.142234
310 0.153635
315 0.136457
320 0.227011
325 0.162548
330 0.110804
335 0.15232
340 0.143457
345 0.134509
350 0.149571
355 0.149979
360 0.138426
365 0.112474
370 0.142479
375 0.147259
380 0.123859
385 0.166496
390 0.190431
395 0.175221
400 0.197138
405 0.231561
410 0.268747
415 0.327565
420 0.444326
425 9.41369
430 160.431
435 252.338
440 64.2542
445 8.5699
450 2.30952
455 1.47652
460 1.76472
465 2.13021
470 1.88944
475 1.64531
480 1.74338
485 1.83628
490 2.54777
495 4.33071
500 4.65391
505 3.34432
510 2.81784
515 2.43778
520 1.97424
525 1.81142
530 1.64607
535 1.63511
540 1.4297
545 1.47117
550 1.22977
555 1.27024
560 0.966318
565 0.904252
570 0.756195
575 0.608323
580 0.510554
585 0.436067
590 0.356758
595 0.325061
600 0.399799
Ex : 443
200 0.116462
205 0.157457
210 0.116195
215 0.129327
220 0.133286
225 0.116762
230 0.130674
235 0.129058
240 0.14518
245 0.0797957
250 0.122988
255 0.15544
260 0.139837
265 0.139317
270 0.185133
275 0.122154
280 0.130904
285 0.115324
290 0.119961
295 0.112484
300 0.129095
305 0.160593
310 0.155136
315 0.111285
320 0.211222
325 0.163433
330 0.160394
335 0.129589
340 0.133591
345 0.201992
350 0.128437
355 0.156855
360 0.12867
365 0.125489
370 0.168443
375 0.160866
380 0.131885
385 0.150431
390 0.158997
395 0.156898
400 0.203307
405 0.198402
410 0.227736
415 0.236152
420 0.330185
425 0.472692
430 10.0137
435 168.08
440 254.715
445 63.5974
450 8.5441
455 2.31849
460 1.51578
465 1.83658
470 2.0041
475 1.91123
480 1.67852
485 1.79718
490 1.86473
495 2.10901
500 3.56051
505 4.56584
510 3.34088
515 2.69279
520 2.43719
525 2.06209
530 1.76699
535 1.62963
540 1.55551
545 1.4099
550 1.19962
555 1.13871
560 0.993195
565 0.926265
570 0.761321
575 0.602686
580 0.519919
585 0.501873
590 0.43114
595 0.334099
600 0.118855
Ex : 448
200 0.167294
205 0.203544
210 0.139572
215 0.0982392
220 0.108954
225 0.121723
230 0.131456
235 0.114944
240 0.140991
245 0.14946
250 0.128434
255 0.107806
260 0.144789
265 0.123082
270 0.125714
275 0.133836
280 0.118079
285 0.157299
290 0.142918
295 0.172345
300 0.15599
305 0.132381
310 0.142478
315 0.157234
320 0.145793
325 0.133275
330 0.132953
335 0.13851
340 0.19574
345 0.141659
350 0.165129
355 0.181805
360 0.161094
365 0.167852
370 0.12011
375 0.118958
380 0.177849
385 0.153401
390 0.191764
395 0.160655
400 0.170574
405 0.176854
410 0.206896
415 0.186553
420 0.218921
425 0.301424
430 0.45429
435 10.7736
440 175.614
445 260.548
450 65.8198
455 8.88239
460 2.3392
465 1.5712
470 1.58298
475 2.05006
480 1.80095
485 1.70049
490 1.67944
495 1.71448
500 1.8789
505 2.76847
510 4.26024
515 3.54777
520 2.72825
525 2.29657
530 2.01044
535 1.72682
540 1.45321
545 1.35055
550 1.29989
555 1.21548
560 1.11207
565 0.908727
570 0.848357
575 0.641517
580 0.501309
585 0.433105
590 0.424942
595 0.304156
600 0.0701785
Ex : 453
200 0.155534
205 0.125699
210 0.140413
215 0.131975
220 0.131029
225 0.128851
230 0.132166
235 0.115922
240 0.126031
245 0.134576
250 0.158832
255 0.132143
260 0.127721
265 0.137212
270 0.118575
275 0.116718
280 0.112589
285 0.120009
290 0.164239
295 0.130267
300 0.111658
305 0.200344
310 0.148888
315 0.131611
320 0.128588
325 0.0926734
330 0.15146
335 0.130072
340 0.145374
345 0.135783
350 0.150005
355 0.119572
360 0.173101
365 0.170115
370 0.139068
375 0.165367
380 0.0977009
385 0.178753
390 0.152939
395 0.14907
400 0.10657
405 0.169427
410 0.198842
415 0.206236
420 0.230041
425 0.256106
430 0.315825
435 0.471872
440 11.1415
445 187.079
450 268.927
455 63.0333
460 8.47366
465 2.13848
470 1.34454
475 1.68778
480 1.88001
485 2.04462
490 1.79566
495 1.72776
500 1.70764
505 1.80196
510 2.38318
515 3.96554
520 3.90021
525 2.6454
530 2.24571
535 2.05225
540 1.75069
545 1.4275
550 1.25356
555 1.15444
560 1.20701
565 0.95165
570 0.844122
575 0.671438
580 0.540047
585 0.486301
590 0.373135
595 0.306269
600 0.532814
Ex : 458
200 0.122275
205 0.14403
210 0.112541
215 0.121621
220 0.115109
225 0.122638
230 0.117651
235 0.135385
240 0.154643
245 0.139033
250 0.122576
255 0.127308
260 0.171878
265 0.20574
270 0.123697
275 0.109056
280 0.133667
285 0.122334
290 0.129878
295 0.147519
300 0.142528
305 0.1302
310 0.169281
315 0.136173
320 0.154148
325 0.154777
330 0.137697
335 0.157214
340 0.153075
345 0.153935
350 0.164905
355 0.155653
360 0.141531
365 0.185139
370 0.175833
375 0.150129
380 0.17088
385 0.159687
390 0.148886
395 0.11022
400 0.136278
405 0.230983
410 0.199582
415 0.189066
420 0.203572
425 0.194063
430 0.293941
435 0.306993
440 0.558809
445 12.2673
450 191.571
455 283.5
460 68.9045
465 9.14441
470 2.47432
475 1.53497
480 1.69015
485 2.00061
490 1.9408
495 1.68766
500 1.6067
505 1.68696
510 1.74267
515 1.79743
520 3.09356
525 4.06879
530 2.94265
535 2.25661
540 1.99687
545 1.74629
550 1.44422
555 1.31486
560 1.19959
565 0.977928
570 0.899377
575 0.6864
580 0.579171
585 0.458855
590 0.393331
595 0.308068
600 0.431821
Ex : 463
200 0.127137
205 0.132503
210 0.129131
215 0.124886
220 0.104953
225 0.132411
230 0.109702
235 0.171499
240 0.153866
245 0.147428
250 0.113203
255 0.139492
260 0.140057
265 0.148202
270 0.124319
275 0.128846
280 0.141838
285 0.151727
290 0.132909
295 0.152594
300 0.119407
305 0.147834
310 0.136857
315 0.14144
320 0.144927
325 0.121239
330 0.161497
335 0.131312
340 0.143497
345 0.155052
350 0.148651
355 0.161044
360 0.169149
365 0.154253
370 0.130239
375 0.135717
380 0.177609
385 0.147054
390 0.165042
395 0.158264
400 0.162494
405 0.172056
410 0.179411
415 0.170761
420 0.190783
425 0.165603
430 0.219419
435 0.276752
440 0.296958
445 0.494165
450 11.6598
455 195.361
460 294.852
465 72.1329
470 9.4637
475 2.40452
480 1.5147
485 1.63907
490 1.93266
495 2.06466
500 1.78319
505 1.61368
510 1.57623
515 1.59568
520 1.74377
525 2.61059
530 3.65109
535 3.17435
540 2.20327
545 1.87292
550 1.8338
555 1.44288
560 1.25949
565 0.985138
570 0.888925
575 0.733936
580 0.616741
585 0.532688
590 0.390976
595 0.384458
600 0.140427
Ex : 468
200 0.0937093
205 0.138647
210 0.152985
215 0.105204
220 0.123648
225 0.139726
230 0.086736
235 0.127593
240 0.0939523
245 0.0947325
250 0.118236
255 0.118952
260 0.188231
265 0.142133
270 0.135427
275 0.106699
280 0.096454
285 0.135714
290 0.137584
295 0.112146
300 0.123805
305 0.0931276
310 0.152504
315 0.113171
320 0.135584
325 0.15947
330 0.142755
335 0.152615
340 0.117198
345 0.13782
350 0.132947
355 0.127212
360 0.151894
365 0.0951662
370 0.165971
375 0.136253
380 0.130852
385 0.178007
390 0.144863
395 0.12943
400 0.170036
405 0.141959
410 0.184958
415 0.144542
420 0.166882
425 0.182776
430 0.166847
435 0.205234
440 0.234814
445 0.284142
450 0.461889
455 11.7971
460 196.069
465 303.958
470 73.7574
475 9.55904
480 2.44402
485 1.54701
490 1.38722
495 1.82306
500 1.84326
505 1.80974
510 1.67782
515 1.69567
520 1.60523
525 1.67787
530 2.02935
535 3.18979
540 3.63354
545 2.35193
550 1.92662
555 1.78065
560 1.36371
565 1.14736
570 0.942254
575 0.728664
580 0.583144
585 0.48312
590 0.450056
595 0.329498
600 0.167891
Ex : 473
200 0.108186
205 0.10918
210 0.124534
215 0.134325
220 0.137943
225 0.101911
230 0.145336
235 0.142623
240 0.120685
245 0.115093
250 0.129097
255 0.12314
260 0.149934
265 0.148623
270 0.133065
275 0.123105
280 0.143508
285 0.167242
290 0.156772
295 0.180504
300 0.186254
305 0.125757
310 0.150967
315 0.178358
320 0.147373
325 0.164049
330 0.130504
335 0.143813
340 0.110584
345 0.127092
350 0.156199
355 0.13537
360 0.131838
365 0.110958
370 0.156544
375 0.149848
380 0.166665
385 0.130448
390 0.117637
395 0.124563
400 0.119261
405 0.129864
410 0.140877
415 0.166468
420 0.156362
425 0.175483
430 0.15039
435 0.204657
440 0.240462
445 0.222642
450 0.357034
455 0.479241
460 14.3019
465 211.243
470 294.526
475 68.5907
480 9.1008
485 2.19525
490 1.61079
495 1.38014
500 1.79057
505 1.80813
510 1.72753
515 1.6314
520 1.51794
525 1.62604
530 1.5831
535 1.76833
540 2.91163
545 3.58675
550 2.53632
555 1.7156
560 1.58761
565 1.24584
570 1.04321
575 0.75318
580 0.736868
585 0.556877
590 0.446842
595 0.347277
600 0.356388
Ex : 478
200 0.152054
205 0.115146
210 0.137467
215 0.133346
220 0.178424
225 0.170498
230 0.172834
235 0.181193
240 0.143547
245 0.163441
250 0.147985
255 0.133359
260 0.13209
265 0.139568
270 0.14862
275 0.212868
280 0.184254
285 0.145209
290 0.16091
295 0.13933
300 0.166681
305 0.160787
310 0.120203
315 0.144025
320 0.14266
325 0.150353
330 0.15346
335 0.12822
340 0.137236
345 0.160052
350 0.191933
355 0.175409
360 0.137552
365 0.131108
370 0.152759
375 0.170105
380 0.141088
385 0.14787
390 0.183238
395 0.213899
400 0.17284
405 0.15976
410 0.175084
415 0.204161
420 0.182853
425 0.189823
430 0.172184
435 0.231188
440 0.236427
445 0.258481
450 0.262378
455 0.404049
460 0.545392
465 15.2894
470 211.349
475 295.824
480 73.0508
485 9.68144
490 2.46938
495 1.50069
500 1.37245
505 1.59295
510 1.72264
515 1.83304
520 1.69313
525 1.52119
530 1.59017
535 1.72946
540 1.89222
545 2.24143
550 3.40068
555 2.83887
560 1.85442
565 1.60106
570 1.31719
575 0.924431
580 0.704058
585 0.653475
590 0.483627
595 0.447105
600 0.532849
Ex : 483
200 0.108878
205 0.179777
210 0.184594
215 0.14333
220 0.122845
225 0.133314
230 0.164038
235 0.12779
240 0.171636
245 0.118839
250 0.152226
255 0.126347
260 0.12531
265 0.165802
270 0.136964
275 0.17469
280 0.145028
285 0.174987
290 0.146335
295 0.147546
300 0.132732
305 0.106206
310 0.144584
315 0.134742
320 0.201593
325 0.185693
330 0.161651
335 0.186664
340 0.171665
345 0.188013
350 0.152237
355 0.123952
360 0.157722
365 0.167383
370 0.142541
375 0.182365
380 0.217973
385 0.183071
390 0.161662
395 0.174137
400 0.150442
405 0.195779
410 0.18925
415 0.19922
420 0.156108
425 0.149548
430 0.233705
435 0.209398
440 0.253071
445 0.232597
450 0.255273
455 0.3174
460 0.365525
465 0.553958
470 11.6617
475 203.839
480 307.505
485 74.7973
490 9.64701
495 2.34749
500 1.5098
505 1.30236
510 1.57712
515 1.69464
520 1.70849
525 1.70114
530 1.58888
535 1.67425
540 1.72826
545 1.75218
550 2.13807
555 2.79823
560 2.84215
565 1.73916
570 1.27565
575 1.12719
580 0.870294
585 0.63757
590 0.51806
595 0.455411
600 0.476334
Ex : 488
200 0.174581
205 0.140111
210 0.148073
215 0.17039
220 0.209924
225 0.15274
230 0.218494
235 0.213261
240 0.192089
245 0.209857
250 0.181808
255 0.163541
260 0.163645
265 0.160984
270 0.21614
275 0.155912
280 0.182187
285 0.185335
290 0.169895
295 0.172565
300 0.166767
305 0.157239
310 0.190919
315 0.195635
320 0.178589
325 0.174634
330 0.160443
335 0.130921
340 0.141207
345 0.225565
350 0.17758
355 0.210892
360 0.170554
365 0.146138
370 0.154509
375 0.202388
380 0.178604
385 0.197451
390 0.210908
395 0.192871
400 0.216632
405 0.208117
410 0.154551
415 0.196123
420 0.192556
425 0.15827
430 0.183307
435 0.179437
440 0.183402
445 0.266607
450 0.24672
455 0.295935
460 0.327824
465 0.435949
470 0.637217
475 14.3622
480 220.323
485 303.47
490 72.3467
495 9.42174
500 2.32067
505 1.33484
510 1.28924
515 1.58464
520 1.73628
525 1.86652
530 1.67671
535 1.62989
540 1.84544
545 1.73964
550 1.8079
555 1.735
560 2.26435
565 2.66695
570 2.08755
575 1.27413
580 0.992134
585 0.748846
590 0.582343
595 0.365811
600 0.140474
Ex : 493
200 0.165297
205 0.21441
210 0.190411
215 0.153079
220 0.132365
225 0.14164
230 0.196446
235 0.151457
240 0.141721
245 0.191101
250 0.168881
255 0.160701
260 0.135231
265 0.196781
270 0.196369
275 0.159869
280 0.197443
285 0.194779
290 0.157054
295 0.181339
300 0.143737
305 0.199693
310 0.161257
315 0.212615
320 0.220062
325 0.143988
330 0.200729
335 0.197486
340 0.151779
345 0.174383
350 0.146583
355 0.147815
360 0.165937
365 0.182559
370 0.15728
375 0.21021
380 0.178561
385 0.159258
390 0.157164
395 0.141389
400 0.192585
405 0.2158
410 0.182686
415 0.200968
420 0.21096
425 0.205755
430 0.183572
435 0.158998
440 0.213818
445 0.216489
450 0.236389
455 0.271631
460 0.283823
465 0.309671
470 0.421238
475 0.512513
480 13.1715
485 214.926
490 315.005
495 72.5832
500 9.50707
505 2.12461
510 1.36887
515 1.44413
520 1.53477
525 1.84024
530 1.79679
535 1.92615
540 1.91345
545 1.88488
550 1.91995
555 1.61906
560 1.62548
565 1.76919
570 2.11967
575 1.88936
580 1.0778
585 0.785571
590 0.716022
595 0.500762
600 0.372527
Ex : 498
200 0.135342
205 0.163815
210 0.161609
215 0.213314
220 0.200789
225 0.158076
230 0.189558
235 0.170508
240 0.123127
245 0.149566
250 0.122531
255 0.209745
260 0.169636
265 0.174155
270 0.167355
275 0.146806
280 0.201339
285 0.231725
290 0.21104
295 0.11311
300 0.191907
305 0.195804
310 0.158498
315 0.154231
320 0.155789
325 0.154718
330 0.173322
335 0.215787
340 0.177487
345 0.161911
350 0.128511
355 0.192114
360 0.148132
365 0.188673
370 0.19657
375 0.176971
380 0.16585
385 0.153138
390 0.189203
395 0.15471
400 0.168809
405 0.185217
410 0.208668
415 0.238026
420 0.189513
425 0.186252
430 0.254046
435 0.20647
440 0.210351
445 0.197444
450 0.225391
455 0.203951
460 0.259696
465 0.295698
470 0.305297
475 0.411867
480 0.5188
485 15.2151
490 225.253
495 309.538
500 73.1256
505 9.45134
510 2.17989
515 1.51281
520 1.4378
525 1.4469
530 1.90461
535 2.02259
540 2.08327
545 2.00912
550 1.84001
555 1.82285
560 1.66256
565 1.5659
570 1.51881
575 1.74665
580 1.62782
585 1.01457
590 0.671537
595 0.636074
600 0.318137
Ex : 503
200 0.127478
205 0.168914
210 0.190002
215 0.190571
220 0.120727
225 0.164017
230 0.161144
235 0.181618
240 0.158012
245 0.194172
250 0.192975
255 0.215114
260 0.174853
265 0.207507
270 0.20234
275 0.185529
280 0.224211
285 0.275486
290 0.161322
295 0.192321
300 0.167216
305 0.144493
310 0.145268
315 0.202634
320 0.202217
325 0.226452
330 0.17372
335 0.215077
340 0.227455
345 0.250113
350 0.159731
355 0.140984
360 0.159972
365 0.196707
370 0.136435
375 0.216162
380 0.236898
385 0.234093
390 0.251317
395 0.217175
400 0.183109
405 0.20418
410 0.232922
415 0.168476
420 0.191934
425 0.228202
430 0.22132
435 0.245725
440 0.241331
445 0.362422
450 0.202788
455 0.242429
460 0.225986
465 0.239041
470 0.35129
475 0.324504
480 0.399666
485 0.62744
490 13.7313
495 225.017
500 312.309
505 72.51
510 9.56008
515 2.31416
520 1.63078
525 1.46159
530 1.80559
535 2.2083
540 2.42842
545 2.27169
550 2.23278
555 1.78296
560 1.69527
565 1.43307
570 1.21026
575 0.985752
580 1.19365
585 1.39368
590 0.902787
595 0.656188
600 0.0746717
Ex : 508
200 0.17723
205 0.155253
210 0.238658
215 0.192932
220 0.16575
225 0.18177
230 0.199647
235 0.174872
240 0.152549
245 0.155035
250 0.152098
255 0.223345
260 0.17365
265 0.21193
270 0.181206
275 0.173314
280 0.178283
285 0.200827
290 0.192752
295 0.188454
300 0.222939
305 0.127549
310 0.188477
315 0.197143
320 0.161336
325 0.157481
330 0.166551
335 0.169449
340 0.233576
345 0.233791
350 0.171163
355 0.228979
360 0.259095
365 0.156362
370 0.150763
375 0.201256
380 0.23056
385 0.211559
390 0.189017
395 0.237794
400 0.281209
405 0.177258
410 0.211074
415 0.170552
420 0.201996
425 0.209372
430 0.210013
435 0.255335
440 0.228089
445 0.248183
450 0.272561
455 0.215303
460 0.253649
465 0.277525
470 0.280732
475 0.253715
480 0.368798
485 0.395766
490 0.558408
495 15.2294
500 219.645
505 309.611
510 75.9857
515 9.8851
520 2.40123
525 1.77047
530 1.84602
535 2.17678
540 2.425
545 2.39122
550 2.2922
555 2.07893
560 1.71046
565 1.51776
570 1.29022
575 1.05331
580 0.829271
585 0.809357
590 1.102
595 0.944352
600 0.692846
Ex : 513
200 0.143478
205 0.143027
210 0.217023
215 0.162033
220 0.237877
225 0.191823
230 0.238639
235 0.182358
240 0.225894
245 0.207481
250 0.207176
255 0.274689
260 0.18285
265 0.227562
270 0.157004
275 0.236064
280 0.207137
285 0.17018
290 0.195437
295 0.190594
300 0.204461
305 0.153318
310 0.162241
315 0.168803
320 0.154973
325 0.187778
330 0.23259
335 0.198091
340 0.197135
345 0.215861
350 0.186987
355 0.203501
360 0.246985
365 0.222
370 0.22045
375 0.200997
380 0.206813
385 0.248658
390 0.257372
395 0.197928
400 0.225053
405 0.189965
410 0.18506
415 0.227438
420 0.196697
425 0.231166
430 0.216508
435 0.280233
440 0.242236
445 0.267998
450 0.216679
455 0.233199
460 0.237979
465 0.215891
470 0.344149
475 0.343283
480 0.333636
485 0.364452
490 0.432985
495 0.611214
500 14.4475
505 221.558
510 316.094
515 77.205
520 10.2138
525 2.68092
530 2.03979
535 2.19828
540 2.4036
545 2.58402
550 2.7279
555 2.2485
560 1.94252
565 1.63202
570 1.30394
575 1.09772
580 0.89286
585 0.775055
590 0.719218
595 0.846899
600 0.944956
Ex : 518
200 0.183912
205 0.178876
210 0.173234
215 0.187224
220 0.173692
225 0.189739
230 0.226731
235 0.177628
240 0.234033
245 0.202977
250 0.207703
255 0.184062
260 0.223679
265 0.153802
270 0.181935
275 0.259689
280 0.208771
285 0.219204
290 0.175851
295 0.170796
300 0.182094
305 0.222224
310 0.185282
315 0.245691
320 0.203163
325 0.2014
330 0.209666
335 0.180759
340 0.206569
345 0.193362
350 0.219528
355 0.211513
360 0.247787
365 0.216341
370 0.213145
375 0.135961
380 0.237302
385 0.22962
390 0.21076
395 0.203621
400 0.22931
405 0.238984
410 0.3052
415 0.320172
420 0.217817
425 0.219377
430 0.172871
435 0.205287
440 0.159495
445 0.207781
450 0.207978
455 0.253295
460 0.246318
465 0.27168
470 0.240349
475 0.317353
480 0.291216
485 0.359217
490 0.403653
495 0.461496
500 0.554716
505 14.3113
510 215.85
515 318.572
520 78.1326
525 10.4281
530 3.01752
535 2.63901
540 2.57076
545 2.83411
550 3.05506
555 2.93086
560 2.517
565 2.22613
570 1.55316
575 1.23382
580 0.94295
585 0.781679
590 0.711011
595 0.642796
600 1.25193
Ex : 523
200 0.184604
205 0.182078
210 0.17622
215 0.221726
220 0.244021
225 0.209592
230 0.214839
235 0.201478
240 0.172191
245 0.151511
250 0.279824
255 0.248347
260 0.192451
265 0.228642
270 0.159959
275 0.249327
280 0.207535
285 0.201068
290 0.266373
295 0.251496
300 0.207289
305 0.194471
310 0.222457
315 0.152772
320 0.235584
325 0.17593
330 0.213666
335 0.203537
340 0.240667
345 0.18156
350 0.185248
355 0.21756
360 0.213978
365 0.233651
370 0.251641
375 0.236516
380 0.212172
385 0.260633
390 0.266962
395 0.175705
400 0.209452
405 0.211345
410 0.211494
415 0.264351
420 0.214336
425 0.174554
430 0.357374
435 0.336701
440 0.278045
445 0.217989
450 0.232489
455 0.31578
460 0.224844
465 0.239975
470 0.309211
475 0.319885
480 0.276988
485 0.326079
490 0.333556
495 0.369604
500 0.438972
505 0.57866
510 12.3221
515 199.504
520 303.999
525 79.1958
530 11.0387
535 3.72734
540 3.34173
545 3.3466
550 3.444
555 3.487
560 3.14729
565 2.5756
570 1.86724
575 1.50062
580 1.27971
585 0.89664
590 0.717111
595 0.698733
600 0.399775
Ex : 528
200 0.232277
205 0.146526
210 0.256078
215 0.227084
220 0.195381
225 0.2155
230 0.211626
235 0.146782
240 0.179656
245 0.21928
250 0.18815
255 0.195817
260 0.196974
265 0.23993
270 0.228689
275 0.188719
280 0.211399
285 0.15543
290 0.186195
295 0.211158
300 0.245283
305 0.186341
310 0.257274
315 0.212462
320 0.230173
325 0.227534
330 0.244114
335 0.228159
340 0.216112
345 0.204482
350 0.222735
355 0.17384
360 0.221573
365 0.293073
370 0.189224
375 0.161728
380 0.20173
385 0.234215
390 0.259297
395 0.184557
400 0.201716
405 0.261257
410 0.249383
415 0.258376
420 0.235765
425 0.200804
430 0.261787
435 0.176269
440 0.211143
445 0.203019
450 0.281863
455 0.210247
460 0.208556
465 0.233458
470 0.277356
475 0.330571
480 0.288658
485 0.263815
490 0.235373
495 0.317466
500 0.407042
505 0.470294
510 0.691898
515 12.3143
520 197.91
525 300.767
530 77.1341
535 11.4137
540 4.3535
545 3.83224
550 4.02963
555 3.47727
560 3.20108
565 2.61291
570 2.04901
575 1.73287
580 1.33704
585 0.870817
590 0.668217
595 0.573595
600 0.141361
Ex : 533
200 0.168637
205 0.202643
210 0.240445
215 0.208233
220 0.252581
225 0.178945
230 0.205801
235 0.232258
240 0.190973
245 0.170194
250 0.236835
255 0.194349
260 0.212955
265 0.293113
270 0.222588
275 0.231812
280 0.169718
285 0.204993
290 0.270178
295 0.197055
300 0.228874
305 0.212937
310 0.293327
315 0.205436
320 0.202107
325 0.213735
330 0.225558
335 0.202663
340 0.184139
345 0.239181
350 0.208444
355 0.20261
360 0.166118
365 0.23185
370 0.203958
375 0.29772
380 0.286858
385 0.252293
390 0.223576
395 0.225444
400 0.317051
405 0.28083
410 0.218738
415 0.300392
420 0.325575
425 0.283408
430 0.238569
435 0.225407
440 0.213333
445 0.194782
450 0.189729
455 0.278384
460 0.249866
465 0.241616
470 0.270271
475 0.244054
480 0.24558
485 0.29316
490 0.335384
495 0.243025
500 0.416125
505 0.291835
510 0.488854
515 0.807042
520 20.4534
525 209.161
530 290.361
535 77.818
540 11.8383
545 4.59454
550 3.80656
555 3.69081
560 3.07961
565 2.65582
570 2.1068
575 1.62635
580 1.141
585 0.954605
590 0.757159
595 0.649907
600 0.880869
Ex : 538
200 0.264105
205 0.208953
210 0.160346
215 0.217774
220 0.215778
225 0.22329
230 0.270581
235 0.227522
240 0.301916
245 0.192563
250 0.206099
255 0.19162
260 0.28444
265 0.258807
270 0.211935
275 0.211947
280 0.235844
285 0.188632
290 0.226442
295 0.217112
300 0.231304
305 0.205861
310 0.205846
315 0.226231
320 0.20046
325 0.226543
330 0.174427
335 0.232808
340 0.205656
345 0.225429
350 0.272581
355 0.26568
360 0.277448
365 0.242568
370 0.260791
375 0.231071
380 0.270199
385 0.295315
390 0.324153
395 0.284588
400 0.245387
405 0.261884
410 0.295537
415 0.240078
420 0.209983
425 0.242691
430 0.180838
435 0.202861
440 0.195303
445 0.271642
450 0.246679
455 0.217047
460 0.373186
465 0.319908
470 0.307827
475 0.312641
480 0.198816
485 0.243773
490 0.281844
495 0.283627
500 0.253827
505 0.260656
510 0.313459
515 0.434709
520 0.694137
525 10.9901
530 183.122
535 297.398
540 83.7788
545 12.4876
550 4.30961
555 3.12557
560 2.66102
565 2.21314
570 1.72258
575 1.4683
580 1.13708
585 0.866517
590 0.713889
595 0.563915
600 0.821037
Ex : 543
200 0.278981
205 0.228995
210 0.177411
215 0.206363
220 0.253005
225 0.211823
230 0.317686
235 0.257908
240 0.19208
245 0.254457
250 0.236591
255 0.251176
260 0.275642
265 0.222167
270 0.227403
275 0.18161
280 0.215411
285 0.262515
290 0.282338
295 0.215227
300 0.182751
305 0.211941
310 0.281445
315 0.234397
320 0.22301
325 0.219492
330 0.277177
335 0.243549
340 0.25438
345 0.266512
350 0.251908
355 0.232966
360 0.217452
365 0.145437
370 0.232786
375 0.225346
380 0.221519
385 0.21972
390 0.29307
395 0.25678
400 0.240636
405 0.286628
410 0.204144
415 0.198487
420 0.309906
425 0.257702
430 0.224107
435 0.363464
440 0.321011
445 0.243623
450 0.232232
455 0.325672
460 0.233601
465 0.281836
470 0.209359
475 0.291271
480 0.242986
485 0.298688
490 0.27981
495 0.30015
500 0.365938
505 0.37304
510 0.379033
515 0.482991
520 0.729031
525 0.84243
530 9.92211
535 171.63
540 288.744
545 83.007
550 11.9805
555 3.474
560 2.2272
565 1.86513
570 1.3969
575 1.03306
580 0.913626
585 0.800969
590 0.578289
595 0.635888
600 0.442425
Ex : 548
200 0.224784
205 0.250305
210 0.195049
215 0.206735
220 0.188773
225 0.252876
230 0.256189
235 0.246695
240 0.231956
245 0.201043
250 0.193577
255 0.170916
260 0.245637
265 0.311586
270 0.230275
275 0.334444
280 0.261596
285 0.181731
290 0.27238
295 0.283627
300 0.33163
305 0.232491
310 0.317321
315 0.234233
320 0.215676
325 0.223202
330 0.225475
335 0.241811
340 0.226149
345 0.220646
350 0.239654
355 0.247701
360 0.252784
365 0.269168
370 0.297837
375 0.196949
380 0.240276
385 0.267552
390 0.253514
395 0.25392
400 0.2805
405 0.278269
410 0.264388
415 0.28125
420 0.286071
425 0.34699
430 0.378669
435 0.23381
440 0.210636
445 0.22211
450 0.201984
455 0.30853
460 0.275088
465 0.226025
470 0.27629
475 0.324615
480 0.271509
485 0.298086
490 0.384269
495 0.304938
500 0.214756
505 0.278637
510 0.319821
515 0.336389
520 0.431852
525 0.597411
530 0.857612
535 10.9207
540 173.667
545 276.877
550 77.3947
555 10.6355
560 2.54409
565 1.39351
570 1.15805
575 0.847273
580 0.648022
585 0.625377
590 0.611252
595 0.533327
600 0.141255
Ex : 553
200 0.210636
205 0.226941
210 0.201594
215 0.22886
220 0.171938
225 0.197204
230 0.214104
235 0.249352
240 0.256495
245 0.194438
250 0.302544
255 0.203519
260 0.213757
265 0.247122
270 0.265099
275 0.246187
280 0.227632
285 0.28372
290 0.223858
295 0.237276
300 0.187633
305 0.216752
310 0.214048
315 0.219905
320 0.225965
325 0.21709
330 0.258378
335 0.292453
340 0.290742
345 0.206778
350 0.243747
355 0.254074
360 0.239866
365 0.287292
370 0.314458
375 0.315658
380 0.237348
385 0.267012
390 0.274954
395 0.22988
400 0.293301
405 0.294259
410 0.251084
415 0.253347
420 0.258992
425 0.259367
430 0.218245
435 0.256247
440 0.312227
445 0.305429
450 0.321988
455 0.227661
460 0.26974
465 0.305724
470 0.339392
475 0.284623
480 0.265986
485 0.321402
490 0.310253
495 0.270909
500 0.327104
505 0.322955
510 0.271803
515 0.333351
520 0.341896
525 0.488114
530 0.659352
535 0.860055
540 9.2657
545 163.434
550 272.89
555 77.3209
560 10.1852
565 2.02168
570 0.936521
575 0.835168
580 0.659782
585 0.537535
590 0.508472
595 0.44057
600 0.215974
Ex : 558
200 0.192247
205 0.231221
210 0.22622
215 0.247101
220 0.267442
225 0.242629
230 0.206508
235 0.214155
240 0.202023
245 0.257981
250 0.238671
255 0.21558
260 0.17515
265 0.245499
270 0.244019
275 0.298279
280 0.280204
285 0.194457
290 0.243776
295 0.407744
300 0.213499
305 0.191499
310 0.245216
315 0.200644
320 0.262075
325 0.245331
330 0.247266
335 0.171024
340 0.282107
345 0.277046
350 0.283379
355 0.274473
360 0.273583
365 0.266177
370 0.309807
375 0.251621
380 0.288741
385 0.226614
390 0.291559
395 0.269035
400 0.392381
405 0.313566
410 0.331856
415 0.302345
420 0.206965
425 0.321855
430 0.21164
435 0.269793
440 0.294119
445 0.26052
450 0.300752
455 0.274998
460 0.316415
465 0.284303
470 0.313718
475 0.213784
480 0.343167
485 0.279728
490 0.282591
495 0.253837
500 0.255469
505 0.303891
510 0.261564
515 0.357922
520 0.339941
525 0.46022
530 0.492181
535 0.6204
540 0.794328
545 8.55988
550 155.002
555 272.838
560 79.8673
565 9.94403
570 1.71858
575 0.808956
580 0.576395
585 0.474123
590 0.398924
595 0.408144
600 0.110508
Ex : 563
200 0.196087
205 0.22376
210 0.244315
215 0.230401
220 0.212711
225 0.235074
230 0.247015
235 0.282124
240 0.191197
245 0.304106
250 0.304072
255 0.222829
260 0.207671
265 0.250898
270 0.227633
275 0.262659
280 0.237583
285 0.22091
290 0.287408
295 0.248283
300 0.282665
305 0.229498
310 0.215259
315 0.207467
320 0.315774
325 0.264426
330 0.238929
335 0.273032
340 0.324789
345 0.294656
350 0.226253
355 0.2764
360 0.311461
365 0.257358
370 0.257689
375 0.259491
380 0.267985
385 0.191926
390 0.30182
395 0.261686
400 0.232332
405 0.279016
410 0.251743
415 0.224717
420 0.354601
425 0.277282
430 0.28502
435 0.267734
440 0.424998
445 0.276003
450 0.372307
455 0.335118
460 0.333846
465 0.299615
470 0.320525
475 0.296336
480 0.359104
485 0.385617
490 0.307728
495 0.35006
500 0.284692
505 0.369348
510 0.324343
515 0.311055
520 0.331944
525 0.301412
530 0.426051
535 0.43044
540 0.542041
545 0.723409
550 7.98579
555 155.555
560 270.437
565 77.8969
570 9.73344
575 1.65821
580 0.622085
585 0.499881
590 0.461764
595 0.378911
600 0.639443
Ex : 568
200 0.270283
205 0.243435
210 0.234833
215 0.285256
220 0.241246
225 0.279214
230 0.327952
235 0.30333
240 0.236503
245 0.214216
250 0.338797
255 0.258911
260 0.284553
265 0.301307
270 0.220426
275 0.336346
280 0.316399
285 0.314962
290 0.360983
295 0.234675
300 0.379582
305 0.299498
310 0.275175
315 0.280049
320 0.268454
325 0.271037
330 0.215814
335 0.262554
340 0.276641
345 0.201376
350 0.292279
355 0.230859
360 0.251679
365 0.236966
370 0.277589
375 0.177537
380 0.279031
385 0.350884
390 0.297272
395 0.248213
400 0.29841
405 0.363914
410 0.277688
415 0.272422
420 0.310398
425 0.337607
430 0.315443
435 0.280903
440 0.323733
445 0.351533
450 0.302225
455 0.234467
460 0.310365
465 0.254926
470 0.318809
475 0.302615
480 0.240299
485 0.311967
490 0.41733
495 0.374044
500 0.307621
505 0.328185
510 0.282127
515 0.2097
520 0.347052
525 0.440772
530 0.446954
535 0.378722
540 0.484013
545 0.560606
550 0.593339
555 5.90466
560 134.457
565 249.252
570 77.171
575 9.82829
580 1.46722
585 0.553477
590 0.544976
595 0.359734
600 0.515084
Ex : 573
200 0.251566
205 0.246461
210 0.221917
215 0.328651
220 0.231107
225 0.237796
230 0.28156
235 0.226371
240 0.266355
245 0.24516
250 0.267217
255 0.304779
260 0.203885
265 0.170271
270 0.281955
275 0.315379
280 0.265573
285 0.22948
290 0.245103
295 0.203475
300 0.262734
305 0.245389
310 0.331
315 0.266025
320 0.186653
325 0.41542
330 0.405934
335 0.299934
340 0.27691
345 0.40235
350 0.289433
355 0.377727
360 0.332368
365 0.295492
370 0.253986
375 0.200557
380 0.240175
385 0.215067
390 0.271039
395 0.275366
400 0.259617
405 0.228142
410 0.297111
415 0.270169
420 0.316689
425 0.370128
430 0.269445
435 0.319775
440 0.25174
445 0.316999
450 0.338793
455 0.42675
460 0.282602
465 0.298735
470 0.292658
475 0.362894
480 0.311242
485 0.301293
490 0.346701
495 0.244558
500 0.293202
505 0.304325
510 0.294513
515 0.253073
520 0.275583
525 0.277349
530 0.260788
535 0.392373
540 0.402656
545 0.406508
550 0.455169
555 0.520897
560 4.94339
565 117.222
570 236.583
575 74.7912
580 9.19503
585 1.51091
590 0.581748
595 0.348888
600 0.374229
Ex : 578
200 0.294184
205 0.397188
210 0.195071
215 0.193754
220 0.260305
225 0.276175
230 0.323668
235 0.233509
240 0.251081
245 0.287521
250 0.23055
255 0.195587
260 0.222773
265 0.262057
270 0.277693
275 0.28371
280 0.208425
285 0.229106
290 0.298528
295 0.24654
300 0.240322
305 0.244852
310 0.26886
315 0.344693
320 0.303946
325 0.33288
330 0.308839
335 0.270025
340 0.288352
345 0.232281
350 0.266178
355 0.295193
360 0.296636
365 0.323499
370 0.340151
375 0.289019
380 0.252159
385 0.266351
390 0.293635
395 0.269928
400 0.240626
405 0.283146
410 0.297042
415 0.293559
420 0.350359
425 0.354772
430 0.478583
435 0.294589
440 0.261355
445 0.322941
450 0.318952
455 0.219991
460 0.267816
465 0.327416
470 0.351564
475 0.264333
480 0.233114
485 0.272736
490 0.322634
495 0.224951
500 0.237429
505 0.263176
510 0.35436
515 0.28099
520 0.318608
525 0.333825
530 0.333922
535 0.376013
540 0.318317
545 0.377983
550 0.373535
555 0.366215
560 0.569176
565 4.53372
570 107.217
575 210.024
580 64.4242
585 7.95789
590 1.26237
595 0.405664
600 0.172764
Ex : 583
200 0.292356
205 0.306118
210 0.282477
215 0.283906
220 0.200381
225 0.225046
230 0.26201
235 0.243625
240 0.232164
245 0.388419
250 0.235105
255 0.299193
260 0.303645
265 0.199432
270 0.203873
275 0.251132
280 0.261642
285 0.262596
290 0.22845
295 0.277736
300 0.217987
305 0.193084
310 0.153311
315 0.239994
320 0.337764
325 0.276989
330 0.254756
335 0.222959
340 0.255002
345 0.359274
350 0.290462
355 0.320203
360 0.325744
365 0.289675
370 0.263851
375 0.331658
380 0.28016
385 0.311149
390 0.264532
395 0.313148
400 0.308736
405 0.388663
410 0.341752
415 0.346631
420 0.239685
425 0.329198
430 0.325252
435 0.281089
440 0.328569
445 0.295095
450 0.303566
455 0.293653
460 0.216672
465 0.259699
470 0.244939
475 0.253658
480 0.222249
485 0.252702
490 0.269774
495 0.229513
500 0.284761
505 0.248241
510 0.312391
515 0.348838
520 0.294482
525 0.326535
530 0.261472
535 0.32727
540 0.336791
545 0.259802
550 0.314506
555 0.391282
560 0.495358
565 0.59844
570 3.80159
575 91.731
580 172.676
585 51.7556
590 6.55776
595 1.11235
600 0.225737
Ex : 588
200 0.223039
205 0.335682
210 0.312504
215 0.306448
220 0.286562
225 0.262412
230 0.24547
235 0.250518
240 0.349521
245 0.254253
250 0.231867
255 0.298118
260 0.220024
265 0.301545
270 0.298394
275 0.390985
280 0.232438
285 0.260667
290 0.308246
295 0.323997
300 0.235367
305 0.364553
310 0.347425
315 0.460552
320 0.279062
325 0.230155
330 0.402668
335 0.323519
340 0.349177
345 0.360342
350 0.29796
355 0.287699
360 0.31646
365 0.327686
370 0.291388
375 0.20847
380 0.229966
385 0.404876
390 0.281404
395 0.307125
400 0.278173
405 0.356658
410 0.393819
415 0.346358
420 0.272317
425 0.292486
430 0.272227
435 0.299419
440 0.332319
445 0.262052
450 0.276576
455 0.29241
460 0.299534
465 0.363265
470 0.347754
475 0.251668
480 0.290294
485 0.229766
490 0.33247
495 0.346039
500 0.285087
505 0.258238
510 0.295599
515 0.317764
520 0.322508
525 0.301113
530 0.402013
535 0.344408
540 0.301112
545 0.215855
550 0.298726
555 0.297534
560 0.356211
565 0.519474
570 0.45397
575 3.21914
580 75.3964
585 145.264
590 43.8801
595 5.50206
600 1.04053
Ex : 593
200 0.286737
205 0.286104
210 0.211713
215 0.396314
220 0.287549
225 0.225361
230 0.268983
235 0.231307
240 0.28515
245 0.273894
250 0.284209
255 0.248026
260 0.28222
265 0.286592
270 0.242123
275 0.344522
280 0.322816
285 0.311725
290 0.256784
295 0.248051
300 0.252534
305 0.225173
310 0.347112
315 0.20303
320 0.274973
325 0.288384
330 0.304025
335 0.348364
340 0.202369
345 0.29316
350 0.315466
355 0.467068
360 0.306374
365 0.301411
370 0.27333
375 0.311605
380 0.219661
385 0.246707
390 0.269086
395 0.438556
400 0.371553
405 0.34325
410 0.259975
415 0.303484
420 0.363431
425 0.307027
430 0.229823
435 0.32588
440 0.302179
445 0.377815
450 0.330027
455 0.204692
460 0.414088
465 0.383224
470 0.291516
475 0.363378
480 0.251874
485 0.295622
490 0.376383
495 0.25134
500 0.256939
505 0.338264
510 0.386764
515 0.335516
520 0.353907
525 0.276765
530 0.251473
535 0.300522
540 0.353392
545 0.252192
550 0.333306
555 0.420807
560 0.376116
565 0.451263
570 0.415411
575 0.394476
580 3.05555
585 66.5771
590 128.835
595 39.5858
600 6.06064
Ex : 598
200 0.241839
205 0.238895
210 0.284352
215 0.27405
220 0.290148
225 0.469574
230 0.306444
235 0.295638
240 0.338007
245 0.374064
250 0.236842
255 0.273817
260 0.395499
265 0.252188
270 0.258874
275 0.214785
280 0.270507
285 0.31945
290 0.235381
295 0.298779
300 0.281193
305 0.27838
310 0.282444
315 0.271471
320 0.265594
325 0.237427
330 0.286661
335 0.324862
340 0.224246
345 0.363557
350 0.297984
355 0.388024
360 0.326152
365 0.335411
370 0.348781
375 0.394908
380 0.282336
385 0.286671
390 0.355335
395 0.354814
400 0.316572
405 0.329703
410 0.326905
415 0.278496
420 0.3667
425 0.416507
430 0.331572
435 0.359517
440 0.244556
445 0.254354
450 0.33024
455 0.337534
460 0.28092
465 0.328371
470 0.269885
475 0.352695
480 0.389772
485 0.322776
490 0.320283
495 0.345429
500 0.395026
505 0.272666
510 0.301633
515 0.336273
520 0.280719
525 0.30979
530 0.313413
535 0.374119
540 0.246621
545 0.276556
550 0.396623
555 0.404375
560 0.42407
565 0.335049
570 0.378808
575 0.398688
580 0.38957
585 2.87712
590 60.4363
595 116.578
600 76.403
Ex : 603
200 0.323056
205 0.364443
210 0.385798
215 0.408201
220 0.331759
225 0.22033
230 0.33849
235 0.308633
240 0.215635
245 0.257062
250 0.300515
255 0.210641
260 0.357295
265 0.271609
270 0.284159
275 0.290929
280 0.345111
285 0.254629
290 0.337456
295 0.24741
300 0.24564
305 0.316171
310 0.263487
315 0.21001
320 0.301208
325 0.349034
330 0.329598
335 0.341184
340 0.287639
345 0.27773
350 0.289463
355 0.236457
360 0.242822
365 0.313218
370 0.336048
375 0.276868
380 0.386615
385 0.471896
390 0.3734
395 0.230195
400 0.303635
405 0.353121
410 0.273139
415 0.418818
420 0.419266
425 0.540414
430 0.412066
435 0.410449
440 0.301272
445 0.3128
450 0.304121
455 0.333732
460 0.440671
465 0.299337
470 0.357279
475 0.255204
480 0.282442
485 0.317833
490 0.330064
495 0.318751
500 0.322179
505 0.241935
510 0.326638
515 0.275992
520 0.281272
525 0.265431
530 0.425599
535 0.428208
540 0.278433
545 0.291473
550 0.28525
555 0.455393
560 0.366061
565 0.372249
570 0.339905
575 0.342406
580 0.498084
585 0.503545
590 2.66627
595 50.5134
600 113.47
