File format V 1.0
jeu. 12. janv. 19:35:11 2017
Operator : 
Comments : 

=============================================
SpectroFluorometer parameters
Mode : 3D measurement
Data : Fluorescence
Phospho. : Ordinary
Spectrum : Fluorescence

Scan speed : 2400 nm/mn
Response : 100 ms
PM Voltage : 700 V
Shutter : On

Lambda Ex. Start : 203
Lambda Ex. End : 603
Lambda Ex. Step : 5
Ex. Slit : 5 nm

Lambda Em. Start : 200
Lambda Em. End : 600
Lambda Em. Step : 5
Em. Slit : 5 nm

Repetition : 1
Decal lambda em : 10
=============================================
DATA
Ex : 203
200 7.34135
205 7.66693
210 5.47291
215 4.80238
220 8.06102
225 7.66099
230 8.30324
235 8.96394
240 10.8569
245 9.7583
250 5.77405
255 6.56943
260 8.54174
265 7.44912
270 7.66332
275 8.14462
280 5.81349
285 4.46756
290 6.98763
295 5.81557
300 9.42723
305 6.77103
310 6.67174
315 6.787
320 9.06015
325 9.37052
330 8.14682
335 6.60872
340 7.65619
345 11.4329
350 10.8807
355 7.16628
360 9.01619
365 8.70927
370 8.21671
375 7.40948
380 7.04219
385 8.18778
390 8.66783
395 10.5565
400 6.72654
405 7.75484
410 7.1388
415 5.95998
420 8.23878
425 6.57627
430 8.01689
435 6.98105
440 6.37663
445 5.60182
450 7.76678
455 7.17588
460 8.51045
465 6.25301
470 8.52868
475 9.25021
480 9.82057
485 6.57469
490 10.5357
495 5.01674
500 9.29724
505 8.7093
510 8.92472
515 7.27811
520 5.40694
525 8.4288
530 7.29041
535 8.49757
540 8.31108
545 6.59582
550 8.69374
555 6.96064
560 6.70012
565 7.10127
570 5.52032
575 8.94163
580 6.58737
585 7.60806
590 8.37012
595 7.09357
600 7.89685
Ex : 208
200 5.98571
205 4.91793
210 8.49182
215 8.3833
220 9.19097
225 7.04449
230 6.58174
235 7.79262
240 7.73781
245 6.38797
250 6.03149
255 5.83716
260 6.5384
265 5.64342
270 8.63524
275 6.41283
280 7.59331
285 6.88615
290 7.84176
295 7.92739
300 8.41729
305 6.49882
310 8.02706
315 5.73033
320 6.15703
325 6.5913
330 6.90475
335 6.6001
340 6.22391
345 4.7848
350 8.15706
355 6.72393
360 7.48918
365 6.09451
370 8.72221
375 8.78779
380 9.15721
385 7.99665
390 5.57595
395 5.78638
400 10.3897
405 8.97405
410 8.70164
415 5.89599
420 9.32688
425 7.3802
430 8.36589
435 6.44983
440 5.30711
445 6.97176
450 9.36
455 8.70971
460 6.4703
465 9.53985
470 8.31583
475 7.83901
480 10.6973
485 8.33134
490 6.09249
495 8.63505
500 9.34022
505 6.55205
510 5.97821
515 5.68838
520 4.09321
525 7.91457
530 8.27205
535 6.17478
540 8.4727
545 7.37242
550 8.16912
555 7.3515
560 5.0335
565 6.44134
570 5.8561
575 7.26738
580 6.65707
585 7.42916
590 8.08916
595 7.74469
600 0.881317
Ex : 213
200 6.14612
205 5.24658
210 7.7165
215 6.09686
220 5.89752
225 7.73566
230 5.6324
235 6.02058
240 5.37107
245 10.0438
250 9.43131
255 6.80627
260 7.60687
265 7.4148
270 7.25956
275 7.95484
280 7.12108
285 8.43995
290 7.39772
295 6.21958
300 8.70009
305 7.25472
310 7.71826
315 7.0859
320 7.48927
325 6.49252
330 5.47256
335 10.0499
340 9.07767
345 10.1033
350 12.1748
355 7.51644
360 5.14576
365 5.21578
370 8.85057
375 6.19167
380 6.69565
385 6.90266
390 10.1984
395 5.80103
400 6.38018
405 4.65882
410 8.59949
415 6.72219
420 5.28214
425 8.39315
430 8.14684
435 9.087
440 7.1322
445 6.87239
450 8.92185
455 6.25274
460 7.30195
465 6.05291
470 8.1003
475 8.97286
480 6.56879
485 9.3156
490 8.6954
495 8.71084
500 4.60491
505 6.52916
510 6.58388
515 7.0476
520 8.21188
525 8.27004
530 5.23985
535 5.10823
540 8.20753
545 7.69077
550 6.68427
555 10.6937
560 8.30219
565 9.00303
570 7.46138
575 6.08612
580 6.74616
585 7.67757
590 8.91436
595 8.67024
600 1.51836
Ex : 218
200 7.27014
205 7.25229
210 6.31375
215 9.47972
220 6.47466
225 8.59039
230 7.04149
235 7.51915
240 6.51047
245 5.79645
250 7.66603
255 8.01337
260 7.18474
265 7.7185
270 5.93516
275 8.28299
280 9.6034
285 7.60414
290 5.63565
295 6.69704
300 6.36241
305 5.05278
310 6.20757
315 5.32119
320 5.15585
325 7.99636
330 10.1801
335 7.59058
340 8.17187
345 7.74394
350 8.77726
355 11.3866
360 9.99589
365 7.15983
370 7.36548
375 6.11278
380 7.73289
385 6.46265
390 6.06089
395 4.66484
400 4.39542
405 6.8877
410 9.32749
415 7.67418
420 6.08285
425 5.27092
430 8.27736
435 7.97823
440 8.23384
445 9.52442
450 6.43255
455 6.15013
460 8.01328
465 8.72581
470 5.61903
475 8.49791
480 7.17859
485 8.78408
490 6.28626
495 6.72336
500 9.25399
505 8.85085
510 6.13392
515 6.39913
520 6.98755
525 7.36038
530 5.92597
535 6.58382
540 5.87396
545 7.88638
550 8.32408
555 6.21013
560 6.46489
565 7.95867
570 7.61292
575 8.22387
580 8.23325
585 7.07982
590 5.57659
595 5.72046
600 0.650967
Ex : 223
200 6.80734
205 7.91667
210 8.46987
215 9.5588
220 6.54031
225 9.91668
230 7.30251
235 7.11863
240 7.68487
245 9.03079
250 8.76357
255 10.8871
260 7.1596
265 5.07657
270 7.50196
275 6.61618
280 6.22192
285 6.71227
290 8.62037
295 7.7897
300 7.83379
305 7.86814
310 8.342
315 5.45627
320 8.49827
325 7.25068
330 8.87004
335 5.66896
340 5.36585
345 8.66557
350 6.62014
355 5.7517
360 9.83394
365 7.39634
370 6.42236
375 7.4159
380 10.8106
385 9.41055
390 6.94844
395 6.82955
400 7.68482
405 8.38709
410 6.40986
415 6.16099
420 12.0876
425 6.81143
430 7.90167
435 7.29821
440 6.56314
445 9.47761
450 6.88294
455 6.78564
460 7.23603
465 7.61632
470 7.80167
475 5.961
480 5.62497
485 8.83077
490 9.03313
495 6.53979
500 6.1727
505 6.15258
510 7.00295
515 6.1265
520 7.61859
525 12.1671
530 7.25515
535 5.80446
540 6.99569
545 8.26193
550 5.88037
555 7.31569
560 5.34125
565 4.57785
570 8.26019
575 5.50734
580 9.26408
585 6.00351
590 7.70141
595 6.17846
600 13.6417
Ex : 228
200 6.34894
205 7.21753
210 5.63677
215 7.40845
220 5.47652
225 7.53793
230 7.0334
235 7.78805
240 6.81397
245 6.28118
250 8.23585
255 10.6639
260 5.6251
265 7.53146
270 7.77516
275 8.33982
280 8.06821
285 9.10856
290 6.3083
295 5.79128
300 6.00681
305 6.18031
310 4.90688
315 5.35544
320 7.26742
325 6.4129
330 7.13709
335 6.70465
340 8.36716
345 6.35641
350 6.42568
355 4.51156
360 5.61495
365 6.07948
370 6.83567
375 7.99748
380 7.5991
385 6.35597
390 6.5104
395 6.84848
400 6.05184
405 7.74651
410 9.53164
415 6.39086
420 6.77429
425 8.40468
430 8.9524
435 6.74499
440 4.42696
445 8.26289
450 8.14402
455 8.11709
460 8.91995
465 6.30132
470 8.33185
475 7.4591
480 8.76721
485 6.37673
490 5.47287
495 7.61441
500 5.70593
505 7.77192
510 9.97101
515 7.25295
520 5.68782
525 6.39046
530 6.53459
535 7.19628
540 5.22307
545 5.37339
550 6.84869
555 7.40977
560 9.4085
565 6.13958
570 6.96995
575 5.23195
580 7.84069
585 6.23741
590 6.05422
595 7.49312
600 10.0945
Ex : 233
200 6.20747
205 6.28254
210 6.93721
215 7.56156
220 7.4543
225 6.77523
230 4.84537
235 6.8969
240 5.17639
245 5.96121
250 7.46758
255 6.31653
260 8.26864
265 6.49849
270 5.6899
275 7.56669
280 7.96939
285 9.36646
290 6.80229
295 4.58021
300 7.94456
305 7.68848
310 5.99357
315 5.44446
320 6.31034
325 4.64107
330 5.13851
335 7.49937
340 6.0052
345 5.96736
350 7.59301
355 7.4159
360 3.87802
365 5.24683
370 7.39639
375 8.0192
380 7.77215
385 7.39765
390 7.51891
395 6.51422
400 6.05852
405 7.5631
410 6.65249
415 8.82386
420 7.30937
425 6.67096
430 7.4264
435 6.40911
440 9.42712
445 6.29318
450 9.22444
455 8.65378
460 8.55011
465 10.7768
470 7.68242
475 6.65846
480 7.13242
485 6.98922
490 7.79636
495 6.87838
500 6.52159
505 6.93838
510 5.35893
515 7.57286
520 5.21638
525 6.36858
530 8.18586
535 6.49009
540 6.67397
545 8.76854
550 5.18852
555 6.00948
560 5.78794
565 7.95544
570 6.29817
575 6.00731
580 8.10898
585 5.37661
590 7.1382
595 6.80381
600 12.6747
Ex : 238
200 5.97154
205 3.97819
210 4.76303
215 5.88726
220 4.81145
225 8.34176
230 5.58344
235 7.54846
240 5.62456
245 4.82267
250 5.27295
255 4.71627
260 5.4717
265 4.59715
270 5.12343
275 4.99713
280 7.49147
285 4.73525
290 4.60536
295 5.39648
300 8.65469
305 5.27844
310 5.88354
315 6.34268
320 5.66406
325 6.78371
330 5.63212
335 5.36733
340 4.92031
345 6.52102
350 5.25429
355 6.06746
360 6.60315
365 7.56674
370 6.18851
375 6.11992
380 5.33377
385 6.23898
390 6.10806
395 6.90881
400 6.52695
405 5.67246
410 9.17251
415 6.3377
420 5.42208
425 5.37309
430 7.45182
435 4.4846
440 4.42742
445 5.48828
450 5.40457
455 6.77557
460 6.00205
465 5.92033
470 5.32895
475 5.77121
480 5.54954
485 5.92829
490 5.84414
495 4.32063
500 5.69641
505 6.56905
510 6.5737
515 4.48741
520 6.71742
525 5.01348
530 7.09269
535 6.85892
540 4.7154
545 7.1271
550 6.19508
555 4.96013
560 6.12305
565 7.72924
570 4.7522
575 6.66886
580 5.1794
585 5.05145
590 6.93404
595 7.23924
600 5.78654
Ex : 243
200 6.18531
205 5.23914
210 4.72461
215 5.25162
220 6.19695
225 3.55618
230 3.99511
235 5.3956
240 3.64719
245 6.20161
250 5.06464
255 5.96816
260 5.00863
265 4.00755
270 3.72084
275 3.66966
280 5.63327
285 6.64394
290 6.31469
295 5.04876
300 6.24865
305 4.73381
310 6.03754
315 5.161
320 5.28585
325 4.40254
330 4.29382
335 6.18736
340 5.41763
345 4.88156
350 4.75314
355 5.39508
360 4.67493
365 4.97813
370 4.58066
375 6.32527
380 5.82482
385 5.38517
390 6.36116
395 5.17388
400 5.38247
405 5.90856
410 4.75207
415 6.49233
420 6.4445
425 6.63633
430 6.42384
435 7.85718
440 6.16369
445 5.39705
450 6.3249
455 4.45832
460 5.14048
465 5.16527
470 6.1772
475 7.0366
480 4.84712
485 5.88425
490 5.59192
495 5.03254
500 5.41911
505 5.61673
510 5.51812
515 4.66957
520 6.83925
525 5.10486
530 4.64419
535 5.3363
540 4.31523
545 5.5443
550 4.55734
555 4.65105
560 4.79972
565 4.84235
570 4.96314
575 4.40087
580 5.42822
585 5.50075
590 5.87116
595 6.97674
600 8.10511
Ex : 248
200 3.83434
205 4.72272
210 4.04962
215 4.64523
220 6.26208
225 5.71274
230 4.80521
235 4.32613
240 3.39482
245 3.77929
250 4.44983
255 4.71311
260 4.77862
265 4.65775
270 5.80746
275 3.97603
280 5.76968
285 4.49315
290 4.27087
295 4.7608
300 5.23137
305 4.31623
310 4.66629
315 5.98801
320 6.91161
325 4.56729
330 5.21769
335 3.90891
340 7.96954
345 5.98411
350 3.77718
355 4.0158
360 6.28176
365 5.00973
370 7.82446
375 6.03038
380 4.65675
385 4.01389
390 4.98189
395 4.31908
400 3.6054
405 5.48657
410 4.70089
415 6.78268
420 4.48027
425 5.92911
430 4.11188
435 3.62637
440 4.55989
445 4.56137
450 4.7346
455 4.01795
460 4.15795
465 5.43482
470 3.86878
475 3.4828
480 4.51085
485 5.69956
490 8.66248
495 5.89479
500 5.90746
505 5.05098
510 5.6691
515 6.35903
520 5.80013
525 4.97558
530 4.40006
535 5.18892
540 4.64986
545 5.09174
550 4.42678
555 4.33948
560 3.78767
565 4.68102
570 3.36963
575 3.88673
580 4.75015
585 5.74805
590 4.5014
595 4.42542
600 2.71911
Ex : 253
200 2.98969
205 2.76855
210 3.34409
215 3.53459
220 3.80887
225 3.40953
230 2.75512
235 3.21692
240 3.25478
245 3.2141
250 3.41902
255 4.91546
260 5.26573
265 3.94763
270 4.4905
275 5.05251
280 3.45397
285 4.13744
290 3.61463
295 3.24207
300 4.42883
305 4.53383
310 5.13736
315 4.33271
320 3.90482
325 3.58924
330 3.83325
335 5.73689
340 3.95852
345 5.85631
350 5.49432
355 3.88087
360 4.49578
365 3.65015
370 3.63253
375 4.62913
380 3.93472
385 4.5101
390 4.49322
395 3.99735
400 4.56678
405 4.19441
410 4.51291
415 3.55069
420 5.61796
425 4.62384
430 5.99965
435 4.72447
440 4.20904
445 3.62431
450 6.55021
455 4.1636
460 4.18807
465 4.03325
470 3.57115
475 4.70628
480 5.30725
485 5.4746
490 3.24101
495 4.42193
500 3.37368
505 5.34076
510 3.3185
515 2.98232
520 2.92492
525 4.13555
530 7.20436
535 6.20084
540 5.99707
545 4.08648
550 3.6549
555 3.79645
560 3.37687
565 4.00082
570 5.17148
575 2.68111
580 3.91387
585 4.22341
590 4.00652
595 5.26905
600 4.69829
Ex : 258
200 3.61489
205 2.70684
210 3.98244
215 4.03853
220 3.39583
225 3.00749
230 2.32328
235 2.45085
240 3.28822
245 2.65193
250 2.56339
255 3.72323
260 2.51193
265 3.11532
270 3.90113
275 3.0725
280 3.40732
285 3.18717
290 3.03795
295 3.5582
300 3.49805
305 3.37843
310 3.4899
315 3.91349
320 3.8366
325 2.99999
330 4.63726
335 3.97301
340 3.81161
345 3.92294
350 3.28411
355 2.93954
360 4.40324
365 3.37469
370 3.50484
375 3.46168
380 3.63522
385 2.70288
390 4.11769
395 4.67426
400 2.46251
405 3.61043
410 3.358
415 3.91226
420 3.67984
425 3.58563
430 3.93078
435 4.38453
440 3.87211
445 3.18675
450 4.36154
455 3.28154
460 3.34881
465 4.0362
470 3.01443
475 3.10491
480 3.31166
485 4.48157
490 4.26986
495 2.45016
500 3.67715
505 4.99868
510 4.36425
515 3.21122
520 3.96434
525 3.7956
530 2.6352
535 3.53735
540 2.94777
545 2.92848
550 3.30323
555 3.56128
560 3.46004
565 3.48394
570 4.80537
575 3.58525
580 2.92107
585 3.12496
590 2.2326
595 2.38282
600 11.4373
Ex : 263
200 3.31596
205 2.42074
210 2.25683
215 1.91789
220 2.50364
225 1.89161
230 1.80835
235 3.00535
240 2.78199
245 2.59497
250 3.61486
255 2.62913
260 3.37535
265 2.0033
270 2.51533
275 2.57219
280 2.51796
285 2.40383
290 2.29303
295 1.64976
300 2.91845
305 3.1054
310 3.40714
315 2.38724
320 2.15575
325 2.06027
330 2.99941
335 2.47749
340 2.14477
345 1.95588
350 2.52074
355 3.45186
360 3.26435
365 2.17962
370 2.45071
375 3.07065
380 2.72607
385 2.87715
390 2.71495
395 2.45036
400 3.31577
405 2.97763
410 2.88376
415 2.58182
420 2.99738
425 2.09686
430 2.73162
435 3.01548
440 2.95678
445 2.79512
450 3.21921
455 2.26678
460 2.52651
465 2.86249
470 3.31008
475 2.86276
480 3.39305
485 2.77767
490 2.23819
495 2.07766
500 3.59884
505 2.49908
510 2.92979
515 2.39524
520 2.67863
525 3.8333
530 2.60981
535 2.21734
540 2.48332
545 3.02518
550 3.21761
555 3.33141
560 2.41392
565 3.59382
570 2.20586
575 2.68475
580 2.68483
585 2.3522
590 2.36502
595 2.03259
600 4.59902
Ex : 268
200 1.25921
205 1.89015
210 1.47475
215 2.39515
220 2.21113
225 1.69497
230 2.12685
235 2.52406
240 2.22401
245 2.27818
250 1.74711
255 1.65124
260 2.18186
265 2.94527
270 2.96771
275 1.92861
280 2.14017
285 1.65168
290 1.85666
295 2.2245
300 2.15419
305 2.43359
310 2.30525
315 1.66807
320 1.65419
325 1.53094
330 3.01359
335 1.8381
340 2.54704
345 2.10939
350 1.77345
355 2.08888
360 2.50392
365 2.68128
370 2.57889
375 2.05154
380 2.14504
385 2.78159
390 2.81187
395 1.61649
400 2.52725
405 3.01538
410 2.12743
415 2.53445
420 2.23545
425 3.0152
430 1.74588
435 2.39565
440 2.17622
445 2.29475
450 2.23593
455 2.7143
460 2.13203
465 1.8945
470 2.73149
475 1.72852
480 2.49418
485 1.99226
490 1.78851
495 2.0363
500 2.47231
505 2.17983
510 2.25851
515 2.21668
520 2.50509
525 2.05389
530 2.19383
535 2.50317
540 2.09052
545 1.84296
550 2.35941
555 2.11796
560 2.33707
565 1.94551
570 2.6382
575 2.05005
580 1.84554
585 2.42251
590 2.47446
595 2.84503
600 3.14349
Ex : 273
200 1.35878
205 2.1344
210 1.3714
215 1.41954
220 1.88044
225 1.73565
230 1.59781
235 1.66492
240 1.47998
245 2.31048
250 2.09454
255 2.24037
260 2.07047
265 1.81641
270 2.19653
275 2.13121
280 1.47722
285 1.53646
290 2.70106
295 2.19533
300 1.9714
305 1.96352
310 1.82557
315 1.65107
320 1.61731
325 1.53295
330 1.70008
335 1.35466
340 1.57151
345 1.74563
350 2.10852
355 1.83377
360 2.61019
365 1.9849
370 2.42427
375 1.86065
380 1.66847
385 1.75569
390 2.2486
395 1.48146
400 1.3393
405 1.56002
410 2.56435
415 2.31164
420 2.40623
425 1.9483
430 2.31338
435 2.17909
440 1.8243
445 2.37302
450 2.55306
455 2.22698
460 1.86408
465 1.24043
470 1.69657
475 2.2177
480 1.37514
485 1.44858
490 1.84037
495 1.91583
500 1.77486
505 2.20421
510 2.29437
515 1.84
520 1.95242
525 2.04031
530 1.81118
535 1.99104
540 2.05767
545 1.6141
550 1.95994
555 1.62251
560 1.64426
565 1.84097
570 1.7126
575 1.77165
580 2.1214
585 1.74121
590 1.39418
595 1.64798
600 0.651736
Ex : 278
200 1.05062
205 1.38015
210 1.18281
215 1.20888
220 1.43685
225 2.67415
230 1.26684
235 1.13824
240 1.39632
245 1.18798
250 1.1881
255 0.954089
260 1.55378
265 1.07255
270 1.40414
275 1.51917
280 1.40821
285 1.08269
290 1.23846
295 1.73089
300 1.16753
305 1.58877
310 1.37713
315 1.52407
320 1.1753
325 1.18332
330 2.22168
335 1.76893
340 1.8292
345 1.50122
350 1.26979
355 1.55636
360 1.51685
365 1.72901
370 1.20261
375 1.7584
380 2.0097
385 1.67432
390 1.25872
395 1.74194
400 1.79323
405 1.83237
410 1.72292
415 1.59558
420 1.2992
425 1.73999
430 1.33911
435 1.34597
440 1.85206
445 1.79639
450 1.90444
455 1.6581
460 1.37471
465 1.29911
470 2.03398
475 1.39655
480 2.00066
485 1.4402
490 1.74827
495 1.44591
500 0.94226
505 0.918661
510 1.23151
515 1.90225
520 1.43975
525 1.23158
530 1.60993
535 1.29493
540 1.17349
545 1.71316
550 1.69236
555 1.29875
560 1.92814
565 2.02208
570 1.27251
575 1.40132
580 0.919638
585 1.36757
590 1.42596
595 1.18117
600 0.134412
Ex : 283
200 1.34193
205 1.12839
210 1.523
215 1.09968
220 1.09734
225 0.835689
230 1.22669
235 1.63588
240 0.915321
245 1.5234
250 1.28951
255 1.64221
260 1.59278
265 1.2145
270 1.23676
275 1.13731
280 1.36321
285 1.22254
290 1.15173
295 1.28776
300 1.25676
305 1.15516
310 0.94522
315 1.51825
320 1.48063
325 1.39295
330 1.16428
335 1.29667
340 1.42843
345 1.28604
350 1.64445
355 1.50721
360 1.06498
365 1.20498
370 1.32091
375 1.34387
380 1.55785
385 1.41757
390 1.35464
395 1.35232
400 1.39641
405 1.24308
410 1.40961
415 1.35747
420 1.82397
425 1.65999
430 1.15893
435 1.37453
440 1.46035
445 1.59056
450 1.53726
455 1.34275
460 1.40996
465 1.32802
470 1.14655
475 1.42285
480 1.18624
485 1.52544
490 0.92213
495 1.23103
500 1.77343
505 1.44974
510 1.47843
515 0.980484
520 1.31925
525 0.955587
530 1.05676
535 1.13804
540 1.00188
545 1.19158
550 1.59783
555 1.27694
560 1.57959
565 1.68179
570 1.23673
575 1.41971
580 1.12382
585 1.08937
590 1.00291
595 0.979247
600 1.72271
Ex : 288
200 0.937539
205 0.785258
210 0.714625
215 1.02884
220 0.887496
225 1.00491
230 1.06548
235 0.948298
240 1.13968
245 0.868934
250 0.85427
255 0.792242
260 1.03403
265 0.941527
270 0.856624
275 1.03316
280 1.06767
285 1.40033
290 1.22945
295 0.913968
300 0.88882
305 0.878663
310 0.888339
315 1.11045
320 1.27231
325 0.989756
330 1.46558
335 1.47314
340 1.54366
345 1.09216
350 1.10222
355 0.904715
360 1.39584
365 0.913282
370 0.929872
375 0.994213
380 1.20257
385 1.52624
390 1.02248
395 1.41301
400 1.27869
405 1.14468
410 1.20565
415 0.956841
420 1.05037
425 1.3582
430 1.05764
435 0.957947
440 1.05662
445 1.42026
450 1.45024
455 1.20243
460 1.24916
465 1.26464
470 1.20736
475 1.19442
480 1.38381
485 1.17573
490 1.34556
495 1.18573
500 1.18101
505 0.966475
510 1.1806
515 0.970858
520 0.876086
525 1.00584
530 0.882913
535 1.13121
540 1.11598
545 0.788086
550 0.93321
555 0.935154
560 1.40082
565 1.17245
570 1.59662
575 1.0856
580 1.13958
585 1.2229
590 1.01986
595 0.711611
600 0.0809787
Ex : 293
200 0.67421
205 0.705036
210 0.858817
215 0.874164
220 0.846752
225 0.769816
230 0.764451
235 0.786577
240 0.681098
245 0.67661
250 0.892813
255 1.08928
260 0.878767
265 0.567237
270 0.705473
275 0.727765
280 0.693052
285 1.12548
290 1.13397
295 0.555365
300 0.861444
305 0.843118
310 0.84992
315 0.745562
320 0.581889
325 0.701626
330 0.777183
335 0.923897
340 1.2041
345 1.06704
350 1.0034
355 1.1646
360 0.975858
365 1.30961
370 1.1856
375 1.55547
380 1.00575
385 1.23827
390 1.16904
395 0.8976
400 1.08702
405 1.00572
410 0.980531
415 1.16054
420 1.03746
425 0.879802
430 1.17393
435 1.1078
440 0.963374
445 1.04763
450 1.01623
455 1.49283
460 1.21755
465 1.24725
470 1.17248
475 0.988598
480 0.81052
485 0.945719
490 0.996648
495 0.776426
500 0.872142
505 0.605312
510 0.684133
515 0.601032
520 0.936264
525 1.07925
530 1.01185
535 0.967065
540 1.21263
545 1.24833
550 0.978212
555 0.87712
560 0.821974
565 0.906322
570 0.980895
575 1.05847
580 1.11991
585 1.28676
590 1.08826
595 0.943169
600 0.107329
Ex : 298
200 0.956463
205 0.681815
210 0.632478
215 0.683847
220 0.924221
225 0.851942
230 0.788377
235 0.780865
240 0.702416
245 0.745302
250 0.550211
255 0.763615
260 0.672836
265 0.715334
270 0.980632
275 0.702797
280 0.777668
285 0.956747
290 0.830108
295 0.849737
300 0.525022
305 0.538053
310 0.725575
315 0.607171
320 0.453604
325 0.510647
330 0.545767
335 0.726146
340 0.726847
345 0.921976
350 0.97122
355 0.880289
360 0.836659
365 0.857908
370 0.80659
375 0.714307
380 1.00027
385 1.07788
390 0.91594
395 1.13179
400 1.11477
405 1.05007
410 1.0122
415 0.890409
420 0.924258
425 1.01128
430 0.721604
435 0.735974
440 1.01363
445 1.14002
450 1.07382
455 0.967313
460 1.02039
465 0.89516
470 0.903805
475 1.00075
480 0.789971
485 1.07425
490 0.743681
495 0.704725
500 0.685309
505 0.681315
510 0.929556
515 0.72832
520 0.528192
525 0.802822
530 0.674039
535 0.65835
540 0.625271
545 0.743573
550 0.62859
555 0.582101
560 0.873951
565 0.978288
570 0.888026
575 0.614548
580 0.768624
585 0.966403
590 1.06654
595 0.881892
600 0.100356
Ex : 303
200 0.467249
205 0.560281
210 0.489702
215 0.44751
220 0.613459
225 0.651314
230 0.580166
235 0.676524
240 0.485217
245 0.768956
250 0.501797
255 0.6404
260 0.468823
265 0.791618
270 0.676325
275 0.631017
280 0.610152
285 0.524701
290 0.603403
295 0.901428
300 0.668921
305 0.54638
310 0.537371
315 0.733529
320 0.551915
325 0.745019
330 0.907938
335 0.71544
340 0.679451
345 0.739145
350 0.886805
355 0.727424
360 0.954603
365 0.687976
370 0.790512
375 0.711997
380 0.76174
385 0.802166
390 0.866226
395 0.66191
400 0.922226
405 1.05669
410 0.779879
415 0.746106
420 0.913142
425 0.780476
430 0.822348
435 0.903181
440 0.890437
445 0.792532
450 0.728593
455 0.991738
460 0.735144
465 0.725476
470 0.859634
475 1.10259
480 0.833867
485 0.698542
490 0.761132
495 1.15749
500 0.747976
505 0.821111
510 0.653884
515 0.861213
520 0.498064
525 0.670886
530 0.441734
535 0.56589
540 0.614441
545 0.680865
550 0.715106
555 0.699732
560 0.612125
565 0.735016
570 0.608553
575 0.556894
580 0.834061
585 0.638184
590 0.888493
595 0.927877
600 0.179439
Ex : 308
200 0.568457
205 0.651046
210 0.532511
215 0.402679
220 0.51966
225 0.494785
230 0.572445
235 0.417525
240 0.545349
245 0.483663
250 0.514358
255 0.505334
260 0.43277
265 0.639738
270 0.554949
275 0.602067
280 0.477625
285 0.397748
290 0.31665
295 0.587142
300 0.621238
305 0.976904
310 0.710994
315 0.65448
320 0.4279
325 0.807897
330 0.6493
335 0.624084
340 0.543805
345 0.774217
350 0.665549
355 0.521933
360 0.67707
365 0.511661
370 0.691937
375 0.857666
380 0.81222
385 0.89283
390 0.904491
395 0.833418
400 0.78318
405 0.938402
410 0.902145
415 0.716616
420 0.62585
425 0.991544
430 0.706752
435 1.03365
440 0.840508
445 0.948016
450 0.867616
455 0.968901
460 0.778715
465 0.992772
470 0.5536
475 0.52156
480 0.605325
485 0.81179
490 0.717678
495 0.588687
500 0.58366
505 0.722728
510 1.04966
515 0.676089
520 0.721307
525 0.629979
530 0.649675
535 0.588132
540 0.636072
545 0.546151
550 0.692277
555 0.597292
560 0.419049
565 0.338943
570 0.661459
575 0.468866
580 0.584893
585 0.508432
590 0.618625
595 0.58691
600 2.77831
Ex : 313
200 0.547256
205 0.563257
210 0.593588
215 0.548731
220 0.50934
225 0.463787
230 0.494646
235 0.406127
240 0.408618
245 0.48323
250 0.566313
255 0.437568
260 0.460068
265 0.653124
270 0.554903
275 0.467588
280 0.354833
285 0.438898
290 0.449761
295 0.566643
300 0.487424
305 0.735867
310 0.667053
315 0.426674
320 0.485537
325 0.695901
330 0.526408
335 0.677774
340 0.530307
345 0.571368
350 0.964
355 0.836207
360 0.756755
365 0.769044
370 0.833362
375 0.874049
380 1.17458
385 1.02176
390 1.15697
395 1.07146
400 1.22668
405 1.17318
410 1.25971
415 1.21764
420 1.30303
425 0.96387
430 0.983033
435 1.19497
440 1.13293
445 1.02466
450 0.925992
455 1.03161
460 0.983241
465 0.976696
470 0.851864
475 0.660394
480 0.828939
485 0.809384
490 0.943529
495 0.820576
500 0.919233
505 0.673998
510 0.932734
515 0.609939
520 0.406281
525 0.669949
530 0.608069
535 0.59003
540 0.470012
545 0.562524
550 0.512173
555 0.608824
560 0.626069
565 0.452952
570 0.438575
575 0.496266
580 0.475357
585 0.355981
590 0.361109
595 0.520814
600 0.541631
Ex : 318
200 0.39449
205 0.496554
210 0.349577
215 0.461324
220 0.327177
225 0.462638
230 0.378528
235 0.367418
240 0.510171
245 0.40037
250 0.484684
255 0.455808
260 0.50446
265 0.649414
270 0.41611
275 0.426351
280 0.289968
285 0.452942
290 0.392872
295 0.509094
300 0.433567
305 0.501729
310 0.562025
315 0.778004
320 0.570843
325 0.516166
330 0.712404
335 0.852203
340 1.11275
345 1.52562
350 2.04499
355 2.51925
360 3.31157
365 3.77093
370 5.52352
375 5.53456
380 5.90145
385 6.77227
390 7.54034
395 7.65915
400 7.71751
405 7.89885
410 8.16971
415 8.11791
420 7.92947
425 7.53664
430 7.63876
435 6.715
440 6.64509
445 6.63276
450 5.7269
455 5.57636
460 5.26143
465 5.28261
470 4.11222
475 4.40527
480 4.1551
485 3.52296
490 3.52548
495 3.12336
500 2.68562
505 2.33921
510 2.25829
515 1.8058
520 1.42134
525 1.44696
530 1.4515
535 1.075
540 0.919987
545 0.912892
550 1.13667
555 0.866203
560 0.802896
565 0.662962
570 0.467767
575 0.496213
580 0.631629
585 0.489381
590 0.40257
595 0.392534
600 0.691896
Ex : 323
200 0.488852
205 0.310911
210 0.535235
215 0.404731
220 0.397657
225 0.350497
230 0.436311
235 0.339355
240 0.362702
245 0.493999
250 0.452073
255 0.504263
260 0.612423
265 0.391107
270 0.465096
275 0.321278
280 0.425036
285 0.32989
290 0.333516
295 0.351763
300 0.332229
305 0.422394
310 0.373965
315 2.65228
320 10.0652
325 4.84128
330 2.26081
335 2.92184
340 4.17043
345 5.6119
350 8.45343
355 11.3405
360 13.888
365 16.3773
370 19.3683
375 21.7611
380 24.8076
385 27.4785
390 29.7478
395 30.8743
400 32.4641
405 32.8059
410 32.2975
415 32.4583
420 31.1212
425 30.147
430 29.4632
435 27.5363
440 25.83
445 25.8755
450 22.986
455 22.386
460 21.0888
465 19.6615
470 18.414
475 16.808
480 15.2282
485 13.7698
490 12.9152
495 11.1544
500 10.3591
505 9.04405
510 7.6647
515 7.06235
520 6.15029
525 5.18598
530 4.28432
535 3.98715
540 3.66522
545 3.19949
550 3.02462
555 2.37679
560 2.05554
565 1.90821
570 1.50915
575 1.09017
580 1.01692
585 1.02696
590 0.7374
595 0.659071
600 0.908031
Ex : 328
200 0.369795
205 0.406989
210 0.289472
215 0.324463
220 0.31706
225 0.447325
230 0.314275
235 0.335483
240 0.232263
245 0.405847
250 0.332354
255 0.333029
260 0.357932
265 0.50694
270 0.317815
275 0.337429
280 0.293788
285 0.420121
290 0.284619
295 0.324527
300 0.256835
305 0.34424
310 0.4324
315 0.884697
320 23.875
325 57.6295
330 19.0694
335 5.54373
340 5.62876
345 7.52548
350 9.37771
355 12.7882
360 18.0616
365 19.7967
370 21.9835
375 25.0203
380 27.7956
385 30.1463
390 31.6544
395 33.6068
400 35.8011
405 36.1581
410 35.8928
415 35.038
420 33.9019
425 32.7411
430 31.5175
435 30.3583
440 27.7711
445 26.6213
450 26.0386
455 24.7702
460 22.554
465 21.3644
470 19.3376
475 18.0175
480 16.964
485 15.319
490 13.4985
495 12.6482
500 11.3749
505 10.1644
510 8.77094
515 7.65987
520 7.01582
525 6.1408
530 5.04054
535 4.34809
540 4.04367
545 3.47155
550 3.09529
555 2.3926
560 2.24219
565 1.83416
570 1.82102
575 1.36313
580 1.33274
585 0.956192
590 0.80644
595 0.67262
600 0.704269
Ex : 333
200 0.252259
205 0.278553
210 0.40079
215 0.244138
220 0.376252
225 0.476009
230 0.337527
235 0.298423
240 0.265771
245 0.339759
250 0.340802
255 0.456904
260 0.465906
265 0.372725
270 0.355347
275 0.32662
280 0.368092
285 0.363444
290 0.276865
295 0.365344
300 0.36258
305 0.393575
310 0.41491
315 0.427317
320 3.79565
325 70.371
330 123.207
335 33.8955
340 7.51399
345 5.08181
350 5.74761
355 6.60975
360 9.73544
365 14.3099
370 15.0834
375 15.4455
380 15.5934
385 16.0487
390 18.1385
395 18.3653
400 19.9008
405 19.3028
410 19.3939
415 19.4118
420 18.9916
425 18.0752
430 17.1264
435 16.2168
440 16.1911
445 14.8445
450 13.4394
455 13.0359
460 12.6757
465 11.8764
470 11.5016
475 10.2064
480 9.58073
485 8.53394
490 8.22991
495 7.25853
500 6.78581
505 5.97761
510 5.57527
515 4.65219
520 4.38705
525 3.91056
530 3.41121
535 3.13566
540 2.6537
545 2.4695
550 2.28559
555 2.04652
560 1.57751
565 1.38723
570 1.25199
575 0.894872
580 0.880963
585 0.779458
590 0.690642
595 0.570128
600 1.43849
Ex : 338
200 0.411266
205 0.243858
210 0.210298
215 0.331703
220 0.299692
225 0.223235
230 0.240772
235 0.393187
240 0.338706
245 0.269106
250 0.306151
255 0.201779
260 0.260256
265 0.306007
270 0.355154
275 0.247594
280 0.360561
285 0.365378
290 0.334557
295 0.366696
300 0.252767
305 0.314545
310 0.356154
315 0.347529
320 0.451895
325 7.10118
330 107.428
335 161.927
340 41.7106
345 7.38547
350 4.38004
355 4.17905
360 3.89534
365 5.86977
370 10.5485
375 10.5632
380 9.10806
385 8.40096
390 8.86653
395 9.31279
400 9.44727
405 9.48258
410 9.67005
415 9.54355
420 9.82951
425 9.1683
430 8.81016
435 8.30453
440 8.02389
445 8.31226
450 7.38523
455 7.22339
460 7.00475
465 6.51569
470 6.1599
475 5.95081
480 5.54521
485 5.40557
490 5.04252
495 4.64382
500 4.31841
505 3.63843
510 3.49959
515 3.35615
520 2.89208
525 2.50992
530 2.50953
535 2.14412
540 2.10872
545 1.74038
550 1.79967
555 1.39851
560 1.23915
565 1.26102
570 1.01934
575 0.74909
580 0.78446
585 0.643146
590 0.749127
595 0.636942
600 0.694147
Ex : 343
200 0.266764
205 0.258845
210 0.280014
215 0.264135
220 0.234979
225 0.224333
230 0.236321
235 0.339193
240 0.371433
245 0.368313
250 0.212749
255 0.349229
260 0.289351
265 0.275131
270 0.324102
275 0.275942
280 0.288822
285 0.301308
290 0.253449
295 0.296764
300 0.22238
305 0.336414
310 0.336001
315 0.255727
320 0.377469
325 0.419165
330 7.64419
335 123.299
340 182.786
345 45.2622
350 7.33331
355 3.42126
360 2.74912
365 2.54593
370 3.69912
375 7.58121
380 8.56462
385 6.53566
390 5.67843
395 5.62607
400 5.85893
405 5.8623
410 6.22781
415 6.4192
420 6.33094
425 6.18416
430 6.2165
435 5.89442
440 6.09726
445 6.00746
450 5.86531
455 5.86189
460 5.3815
465 5.00222
470 5.21015
475 4.99894
480 4.84153
485 4.5288
490 4.07033
495 4.17259
500 3.70359
505 3.33277
510 3.1045
515 2.77763
520 2.54444
525 2.32122
530 2.14417
535 1.99375
540 1.77995
545 1.77815
550 1.58773
555 1.31469
560 1.37732
565 1.13761
570 1.03055
575 0.886266
580 0.741429
585 0.572907
590 0.517833
595 0.561563
600 0.315394
Ex : 348
200 0.192262
205 0.135804
210 0.381828
215 0.27722
220 0.160348
225 0.224196
230 0.250875
235 0.271925
240 0.285461
245 0.258061
250 0.311104
255 0.21963
260 0.316989
265 0.263079
270 0.254807
275 0.266563
280 0.283875
285 0.308835
290 0.281749
295 0.227851
300 0.252557
305 0.293382
310 0.234383
315 0.266096
320 0.284979
325 0.309468
330 0.465345
335 8.19105
340 127.075
345 191.529
350 50.8145
355 7.80986
360 3.06062
365 2.60363
370 2.08791
375 2.58777
380 5.57992
385 8.22635
390 6.67148
395 5.58502
400 4.35457
405 4.59018
410 5.15969
415 5.14755
420 5.56264
425 5.32432
430 5.52387
435 5.72169
440 5.53153
445 5.40319
450 5.66595
455 5.21306
460 5.08004
465 5.17039
470 4.98969
475 4.82007
480 4.86324
485 4.81501
490 4.1788
495 4.05605
500 4.05018
505 3.69574
510 3.25123
515 2.89557
520 2.95798
525 2.91796
530 2.42156
535 2.19541
540 2.09124
545 1.78155
550 1.71985
555 1.52972
560 1.31335
565 1.21287
570 0.991972
575 0.925649
580 0.780639
585 0.672242
590 0.482347
595 0.493464
600 0.0561544
Ex : 353
200 0.46008
205 0.238743
210 0.240944
215 0.182415
220 0.276172
225 0.23439
230 0.278901
235 0.191628
240 0.258726
245 0.352505
250 0.290748
255 0.276678
260 0.272799
265 0.198247
270 0.294888
275 0.187268
280 0.177036
285 0.211893
290 0.155093
295 0.254816
300 0.23631
305 0.27922
310 0.185859
315 0.232814
320 0.344952
325 0.303517
330 0.307293
335 0.399275
340 8.59194
345 131.022
350 191.118
355 48.739
360 7.19507
365 2.76908
370 2.49112
375 2.35068
380 2.28465
385 4.71033
390 7.79415
395 6.89131
400 5.304
405 4.68657
410 4.57846
415 4.92824
420 5.13712
425 5.04386
430 5.40555
435 5.00986
440 5.44008
445 5.17714
450 5.25948
455 5.08093
460 5.07982
465 5.31014
470 5.30327
475 5.0118
480 5.42025
485 4.9893
490 4.51115
495 4.31616
500 3.96551
505 3.71146
510 3.55113
515 3.34336
520 2.92839
525 2.73772
530 2.47199
535 2.20176
540 1.93051
545 1.90708
550 1.84808
555 1.41694
560 1.41542
565 1.27584
570 1.06341
575 0.947678
580 0.750068
585 0.648786
590 0.617363
595 0.604766
600 0.439789
Ex : 358
200 0.215065
205 0.262294
210 0.186157
215 0.215904
220 0.234188
225 0.23666
230 0.222449
235 0.194954
240 0.189088
245 0.202745
250 0.240798
255 0.222702
260 0.162953
265 0.161
270 0.233513
275 0.194575
280 0.273377
285 0.189987
290 0.284417
295 0.213523
300 0.19634
305 0.235777
310 0.219742
315 0.233201
320 0.205968
325 0.252261
330 0.308901
335 0.301116
340 0.511444
345 7.85463
350 125.161
355 192.772
360 49.0158
365 7.05044
370 2.83177
375 2.60842
380 2.30334
385 2.10151
390 3.61001
395 7.56367
400 7.21637
405 5.903
410 5.0905
415 4.99765
420 5.17411
425 5.44485
430 5.29698
435 5.32445
440 5.71148
445 5.69979
450 5.4543
455 5.51312
460 5.64622
465 5.6862
470 5.51257
475 5.55482
480 5.07794
485 5.09216
490 4.87827
495 4.57434
500 4.64286
505 4.22985
510 3.87306
515 3.67056
520 3.16289
525 2.91103
530 2.83161
535 2.58825
540 2.26692
545 2.11839
550 1.97255
555 1.78101
560 1.50661
565 1.27977
570 0.933268
575 0.90016
580 0.902443
585 0.636962
590 0.480023
595 0.490213
600 0.311693
Ex : 363
200 0.208804
205 0.183267
210 0.192989
215 0.243566
220 0.268047
225 0.215354
230 0.173063
235 0.204633
240 0.279228
245 0.186847
250 0.211928
255 0.25255
260 0.221008
265 0.204743
270 0.180592
275 0.212027
280 0.221381
285 0.182713
290 0.267706
295 0.186616
300 0.173644
305 0.222497
310 0.246604
315 0.208556
320 0.212716
325 0.215463
330 0.275056
335 0.293793
340 0.374485
345 0.427248
350 7.29719
355 121.237
360 190.335
365 50.744
370 7.27932
375 2.67375
380 2.7237
385 2.19165
390 2.15446
395 3.22191
400 6.44401
405 7.47259
410 6.06818
415 5.70462
420 4.9844
425 4.80577
430 5.1965
435 5.31942
440 5.8555
445 5.89538
450 5.94927
455 6.05683
460 6.16548
465 6.04234
470 6.00673
475 6.15942
480 6.001
485 5.58678
490 5.13951
495 5.03364
500 4.69593
505 4.63126
510 4.36572
515 3.70141
520 3.56038
525 3.34305
530 2.83551
535 2.53327
540 2.52851
545 2.19642
550 2.03913
555 1.78844
560 1.49355
565 1.24232
570 1.12969
575 0.959085
580 0.829478
585 0.60952
590 0.506522
595 0.4822
600 0.242855
Ex : 368
200 0.276038
205 0.146316
210 0.179802
215 0.188452
220 0.231401
225 0.148252
230 0.200192
235 0.186875
240 0.18096
245 0.167361
250 0.16396
255 0.176172
260 0.212847
265 0.192634
270 0.216358
275 0.161359
280 0.172264
285 0.229656
290 0.266872
295 0.243094
300 0.191683
305 0.213269
310 0.175773
315 0.218274
320 0.231736
325 0.237557
330 0.277679
335 0.258598
340 0.246526
345 0.290068
350 0.402327
355 6.37482
360 117.548
365 196.958
370 54.0268
375 7.71391
380 2.54206
385 2.62073
390 2.4685
395 2.32485
400 2.98421
405 5.53332
410 7.838
415 6.72158
420 5.75533
425 5.06361
430 5.00284
435 5.41907
440 6.02985
445 5.70803
450 5.64646
455 5.79274
460 5.71056
465 5.79282
470 5.9713
475 6.03353
480 5.91129
485 6.0058
490 5.83625
495 5.37573
500 5.11108
505 4.75222
510 4.33541
515 4.25577
520 3.88927
525 3.70461
530 3.15763
535 2.94441
540 2.61413
545 2.41505
550 2.22939
555 2.09748
560 1.72389
565 1.3895
570 1.32571
575 0.986738
580 0.855699
585 0.738212
590 0.608235
595 0.50332
600 0.926915
Ex : 373
200 0.181542
205 0.271116
210 0.182178
215 0.211989
220 0.172522
225 0.149935
230 0.153749
235 0.249242
240 0.24427
245 0.177969
250 0.215393
255 0.168678
260 0.176771
265 0.17656
270 0.231895
275 0.210274
280 0.184869
285 0.162905
290 0.202954
295 0.152791
300 0.177877
305 0.18915
310 0.221359
315 0.159293
320 0.203294
325 0.163604
330 0.191223
335 0.243849
340 0.321748
345 0.305555
350 0.302611
355 0.379496
360 7.00833
365 119.334
370 196.451
375 53.4857
380 7.90376
385 2.74256
390 2.80705
395 2.795
400 2.47129
405 3.01116
410 5.30579
415 8.03892
420 7.13149
425 5.78495
430 5.15893
435 5.02948
440 5.25055
445 5.41707
450 5.73226
455 5.46162
460 5.71129
465 5.69433
470 6.02338
475 5.91144
480 5.90213
485 5.88937
490 5.76856
495 5.2977
500 5.21257
505 4.88833
510 4.53655
515 4.34459
520 4.13466
525 3.35304
530 3.41959
535 2.9398
540 2.77928
545 2.53687
550 2.2101
555 2.14758
560 1.67817
565 1.50104
570 1.27126
575 1.00847
580 0.910756
585 0.72714
590 0.617464
595 0.502569
600 0.307045
Ex : 378
200 0.154486
205 0.155143
210 0.185089
215 0.237555
220 0.270608
225 0.178173
230 0.135665
235 0.161676
240 0.156829
245 0.189851
250 0.201667
255 0.159064
260 0.169216
265 0.179388
270 0.17392
275 0.175472
280 0.136727
285 0.207202
290 0.229526
295 0.193349
300 0.153845
305 0.203268
310 0.176304
315 0.200114
320 0.201879
325 0.231769
330 0.21184
335 0.199578
340 0.233312
345 0.221326
350 0.231321
355 0.276765
360 0.357089
365 6.76226
370 121.08
375 196.45
380 53.8151
385 7.78755
390 2.7912
395 3.03428
400 3.31746
405 3.09935
410 3.45886
415 4.99393
420 7.28569
425 7.23942
430 5.96248
435 5.5135
440 5.38001
445 5.25682
450 5.47996
455 5.45456
460 5.27937
465 5.80223
470 5.76341
475 5.71324
480 5.77315
485 5.59122
490 5.28339
495 5.02395
500 5.26853
505 4.98817
510 4.53987
515 4.25576
520 3.7092
525 3.63521
530 3.34186
535 2.84736
540 2.68988
545 2.54399
550 2.10574
555 1.87443
560 1.58419
565 1.63076
570 1.2951
575 1.07738
580 0.836808
585 0.693898
590 0.547518
595 0.54523
600 0.285458
Ex : 383
200 0.153911
205 0.158856
210 0.196421
215 0.216227
220 0.144663
225 0.192218
230 0.173535
235 0.228044
240 0.201562
245 0.166449
250 0.204869
255 0.1825
260 0.183727
265 0.231948
270 0.151719
275 0.201839
280 0.17341
285 0.22847
290 0.1772
295 0.159615
300 0.0965261
305 0.191141
310 0.197178
315 0.162555
320 0.164209
325 0.149598
330 0.182197
335 0.168659
340 0.238052
345 0.175991
350 0.168977
355 0.216942
360 0.274502
365 0.417049
370 6.20306
375 117.149
380 201.636
385 56.1506
390 8.18531
395 2.66069
400 2.67437
405 3.19544
410 3.31068
415 3.87406
420 4.11825
425 6.37672
430 7.14777
435 6.38745
440 5.9162
445 5.53219
450 5.28595
455 5.60313
460 5.65251
465 5.62796
470 5.6873
475 5.71049
480 5.8377
485 5.73367
490 5.51583
495 5.26923
500 5.16965
505 4.91655
510 4.56459
515 4.18677
520 4.00838
525 3.53482
530 3.15353
535 2.9594
540 2.6162
545 2.20799
550 2.29709
555 1.95634
560 1.73274
565 1.40733
570 1.27526
575 0.997206
580 0.740755
585 0.662948
590 0.645643
595 0.472511
600 0.105696
Ex : 388
200 0.151257
205 0.186552
210 0.136519
215 0.147559
220 0.191356
225 0.181814
230 0.133562
235 0.209722
240 0.136886
245 0.114528
250 0.152364
255 0.1629
260 0.168627
265 0.112371
270 0.154817
275 0.150994
280 0.143402
285 0.12596
290 0.129045
295 0.177515
300 0.181533
305 0.133566
310 0.165475
315 0.146824
320 0.1912
325 0.190539
330 0.168965
335 0.204311
340 0.205353
345 0.212032
350 0.286815
355 0.281388
360 0.262862
365 0.26343
370 0.424432
375 6.58754
380 121.832
385 202.913
390 56.6158
395 8.19693
400 2.64138
405 2.73619
410 3.47581
415 3.47187
420 3.44817
425 3.61278
430 5.72487
435 7.58736
440 6.49059
445 5.85858
450 5.04673
455 4.85917
460 5.39662
465 5.62373
470 5.34965
475 5.67035
480 5.36754
485 5.47067
490 5.3077
495 5.28103
500 5.00016
505 4.72259
510 4.61376
515 4.42489
520 3.92456
525 3.59906
530 3.26051
535 2.94153
540 2.51026
545 2.33488
550 2.20292
555 1.84072
560 1.71532
565 1.70723
570 1.32678
575 1.14229
580 0.792231
585 0.634109
590 0.649485
595 0.451614
600 0.440785
Ex : 393
200 0.194734
205 0.127719
210 0.173452
215 0.165254
220 0.167068
225 0.166303
230 0.195081
235 0.137262
240 0.133552
245 0.144977
250 0.202328
255 0.144174
260 0.163699
265 0.136209
270 0.145414
275 0.134003
280 0.155684
285 0.149896
290 0.143911
295 0.201373
300 0.168393
305 0.18063
310 0.147755
315 0.151471
320 0.161676
325 0.128363
330 0.169801
335 0.172643
340 0.225191
345 0.160328
350 0.137827
355 0.161126
360 0.214567
365 0.27154
370 0.314872
375 0.400353
380 5.96262
385 119.059
390 202.908
395 55.7361
400 8.13682
405 2.91322
410 3.18807
415 3.26831
420 3.0937
425 2.70072
430 3.30278
435 4.85476
440 6.84894
445 6.22416
450 5.19603
455 4.95223
460 4.79361
465 4.93289
470 5.09075
475 5.27918
480 5.19111
485 5.27344
490 5.20071
495 4.93062
500 5.05921
505 4.6484
510 4.37935
515 4.09456
520 3.81852
525 3.30309
530 3.24003
535 3.00661
540 2.51497
545 2.45005
550 2.18384
555 1.9799
560 1.71754
565 1.48267
570 1.24141
575 1.03005
580 0.89017
585 0.728917
590 0.587337
595 0.521167
600 0.226066
Ex : 398
200 0.123335
205 0.14475
210 0.11506
215 0.131215
220 0.114801
225 0.149637
230 0.13876
235 0.138688
240 0.11755
245 0.138446
250 0.193589
255 0.136072
260 0.121748
265 0.113791
270 0.109583
275 0.156916
280 0.151752
285 0.0989734
290 0.177561
295 0.112037
300 0.109117
305 0.107957
310 0.159612
315 0.171761
320 0.115712
325 0.166637
330 0.159209
335 0.144976
340 0.183112
345 0.17009
350 0.168688
355 0.17853
360 0.171769
365 0.196571
370 0.216956
375 0.26101
380 0.371656
385 6.37635
390 118.187
395 200.495
400 55.257
405 8.12656
410 2.94228
415 2.71897
420 2.86832
425 2.67828
430 2.72773
435 2.99888
440 4.08346
445 6.42171
450 6.14301
455 5.34402
460 5.06082
465 4.90309
470 4.76484
475 4.84116
480 5.05033
485 4.98608
490 5.04564
495 5.1203
500 4.84017
505 4.49172
510 4.3951
515 3.89255
520 3.56567
525 3.29015
530 3.03963
535 2.91951
540 2.48222
545 2.37996
550 2.30446
555 2.00503
560 1.77839
565 1.51093
570 1.21769
575 1.1083
580 0.919497
585 0.672622
590 0.516665
595 0.442934
600 0.384595
Ex : 403
200 0.150041
205 0.132517
210 0.177253
215 0.15476
220 0.0994649
225 0.156024
230 0.140403
235 0.132374
240 0.147254
245 0.171133
250 0.198105
255 0.149506
260 0.138902
265 0.135558
270 0.146251
275 0.170168
280 0.156718
285 0.137374
290 0.139422
295 0.170882
300 0.192743
305 0.145806
310 0.261022
315 0.163895
320 0.155423
325 0.161805
330 0.144679
335 0.156311
340 0.15466
345 0.174813
350 0.129779
355 0.158724
360 0.20816
365 0.221429
370 0.211973
375 0.192562
380 0.278442
385 0.375956
390 6.76313
395 119.22
400 198.394
405 54.891
410 8.41226
415 3.17762
420 2.76414
425 2.80175
430 2.85789
435 2.9914
440 3.25771
445 3.85736
450 5.69592
455 6.2035
460 5.51219
465 5.22103
470 5.04735
475 4.86845
480 4.81571
485 4.91337
490 4.96764
495 4.7966
500 4.81336
505 4.54077
510 4.13832
515 4.01961
520 3.76348
525 3.42569
530 3.0418
535 2.77761
540 2.653
545 2.25133
550 2.24224
555 1.8983
560 1.79302
565 1.56552
570 1.23496
575 1.06516
580 0.885669
585 0.643959
590 0.603783
595 0.503276
600 0.362754
Ex : 408
200 0.204313
205 0.127744
210 0.15937
215 0.107227
220 0.119084
225 0.171142
230 0.189807
235 0.145611
240 0.153325
245 0.180081
250 0.115355
255 0.163232
260 0.128466
265 0.0798084
270 0.140486
275 0.129971
280 0.134708
285 0.177787
290 0.165109
295 0.141375
300 0.178614
305 0.177942
310 0.164817
315 0.137118
320 0.137514
325 0.143034
330 0.146369
335 0.169107
340 0.138093
345 0.124212
350 0.169673
355 0.11166
360 0.185557
365 0.212977
370 0.248297
375 0.165845
380 0.252748
385 0.334444
390 0.41318
395 6.16797
400 120.924
405 201.272
410 55.3246
415 8.37589
420 2.89719
425 2.3699
430 2.66237
435 2.83177
440 2.87567
445 3.19709
450 3.41708
455 5.10426
460 6.39735
465 5.68994
470 5.24074
475 5.23803
480 4.81526
485 4.66703
490 4.83439
495 4.48391
500 4.62496
505 4.25074
510 4.14972
515 3.87288
520 3.5406
525 3.34359
530 3.08168
535 2.82864
540 2.43249
545 2.31158
550 2.19313
555 1.92522
560 1.64361
565 1.52205
570 1.13592
575 0.944343
580 0.752382
585 0.616195
590 0.543453
595 0.433081
600 0.262573
Ex : 413
200 0.15496
205 0.160947
210 0.157308
215 0.150916
220 0.153699
225 0.163012
230 0.177603
235 0.14387
240 0.14769
245 0.149314
250 0.134675
255 0.186541
260 0.192984
265 0.158966
270 0.169017
275 0.158428
280 0.0987859
285 0.151131
290 0.0977878
295 0.111711
300 0.142151
305 0.196561
310 0.166302
315 0.175467
320 0.161814
325 0.133442
330 0.165088
335 0.156204
340 0.111785
345 0.240313
350 0.13307
355 0.149917
360 0.147241
365 0.164997
370 0.229166
375 0.227553
380 0.198094
385 0.201832
390 0.283172
395 0.375065
400 7.02111
405 123.891
410 201.603
415 53.1602
420 7.62462
425 2.43355
430 2.13427
435 2.40236
440 2.46707
445 2.34232
450 2.33431
455 2.89653
460 3.96458
465 6.0701
470 5.65643
475 4.86441
480 4.88408
485 4.42719
490 4.35015
495 4.21401
500 4.13921
505 4.04903
510 3.78565
515 3.58422
520 3.30978
525 3.16294
530 2.8338
535 2.67614
540 2.40164
545 2.27236
550 1.98176
555 1.90661
560 1.69409
565 1.53675
570 1.33875
575 0.939624
580 0.705058
585 0.575269
590 0.520858
595 0.388684
600 0.390496
Ex : 418
200 0.166981
205 0.125201
210 0.202009
215 0.14563
220 0.116777
225 0.134272
230 0.178377
235 0.160214
240 0.132412
245 0.119484
250 0.14639
255 0.12465
260 0.115665
265 0.164784
270 0.129143
275 0.127142
280 0.11722
285 0.129673
290 0.132277
295 0.231644
300 0.143455
305 0.155467
310 0.149163
315 0.132191
320 0.12614
325 0.127274
330 0.121947
335 0.117655
340 0.17272
345 0.149755
350 0.128987
355 0.142131
360 0.191751
365 0.137782
370 0.194412
375 0.178112
380 0.174293
385 0.174482
390 0.187359
395 0.267531
400 0.329895
405 6.63787
410 121.941
415 200.062
420 53.4273
425 7.36244
430 1.92972
435 1.65181
440 1.84002
445 2.02905
450 1.90428
455 2.09909
460 2.37225
465 3.37883
470 5.12103
475 5.54924
480 4.63327
485 4.28903
490 4.26024
495 3.71838
500 3.52907
505 3.63882
510 3.23942
515 3.32529
520 3.14266
525 2.85362
530 2.74511
535 2.3366
540 2.39936
545 2.1094
550 1.87097
555 1.67953
560 1.48557
565 1.36209
570 1.165
575 0.988888
580 0.854098
585 0.652136
590 0.510617
595 0.432551
600 0.474834
Ex : 423
200 0.190276
205 0.185883
210 0.141785
215 0.135526
220 0.164455
225 0.121187
230 0.131118
235 0.157242
240 0.153939
245 0.181632
250 0.101907
255 0.152584
260 0.156523
265 0.169218
270 0.166667
275 0.1597
280 0.128732
285 0.166
290 0.140089
295 0.156388
300 0.133098
305 0.158397
310 0.120552
315 0.149345
320 0.143605
325 0.133825
330 0.147971
335 0.133609
340 0.135363
345 0.165036
350 0.140677
355 0.160035
360 0.242253
365 0.175385
370 0.127977
375 0.199897
380 0.15429
385 0.174056
390 0.214901
395 0.242911
400 0.262168
405 0.316469
410 6.7414
415 125.887
420 196.365
425 50.2914
430 6.84895
435 1.74487
440 1.33838
445 1.67751
450 1.76049
455 1.81149
460 2.12364
465 2.22615
470 2.87037
475 4.62847
480 5.37057
485 4.3749
490 3.97539
495 3.80851
500 3.46643
505 3.44397
510 3.09064
515 2.99496
520 2.77387
525 2.67656
530 2.49961
535 2.19957
540 2.01943
545 1.97294
550 1.64933
555 1.57346
560 1.46828
565 1.26775
570 1.04268
575 0.921056
580 0.723077
585 0.62547
590 0.465587
595 0.416935
600 0.255964
Ex : 428
200 0.135762
205 0.165923
210 0.138151
215 0.14663
220 0.12947
225 0.109868
230 0.124115
235 0.120315
240 0.0974591
245 0.133817
250 0.184176
255 0.169119
260 0.128166
265 0.139232
270 0.140629
275 0.112236
280 0.143425
285 0.108052
290 0.161893
295 0.164632
300 0.187271
305 0.136689
310 0.123241
315 0.198911
320 0.171659
325 0.160407
330 0.159129
335 0.144709
340 0.163814
345 0.214108
350 0.178833
355 0.117995
360 0.142276
365 0.177537
370 0.134602
375 0.1519
380 0.156613
385 0.142061
390 0.26376
395 0.161769
400 0.197566
405 0.251509
410 0.382933
415 7.66119
420 127.754
425 200.648
430 53.3895
435 7.0867
440 1.74098
445 1.21234
450 1.60532
455 1.90264
460 1.90126
465 1.92892
470 2.10702
475 2.60633
480 3.76485
485 5.41733
490 4.64964
495 3.83724
500 3.49557
505 2.98619
510 2.76126
515 2.72501
520 2.53195
525 2.40752
530 2.42552
535 2.20843
540 2.00741
545 1.79595
550 1.70422
555 1.51625
560 1.32065
565 1.24558
570 1.07966
575 0.937357
580 0.699183
585 0.568801
590 0.448122
595 0.475111
600 0.300894
Ex : 433
200 0.191999
205 0.150383
210 0.144882
215 0.149503
220 0.174271
225 0.120932
230 0.128266
235 0.13443
240 0.155572
245 0.109648
250 0.108729
255 0.166356
260 0.106505
265 0.123769
270 0.175797
275 0.150104
280 0.143651
285 0.118046
290 0.149624
295 0.149783
300 0.145852
305 0.131665
310 0.127361
315 0.133431
320 0.128536
325 0.148816
330 0.133488
335 0.185669
340 0.141725
345 0.168759
350 0.125142
355 0.107236
360 0.155563
365 0.127073
370 0.16266
375 0.208727
380 0.199364
385 0.20701
390 0.221659
395 0.290057
400 0.192638
405 0.207057
410 0.251244
415 0.333636
420 8.07391
425 132.284
430 203.42
435 52.0043
440 6.94948
445 1.78858
450 1.31148
455 1.72821
460 1.91679
465 1.85896
470 1.91541
475 1.9908
480 2.35798
485 3.22847
490 4.72934
495 4.33013
500 3.39142
505 3.10419
510 2.95884
515 2.49051
520 2.33473
525 2.14779
530 2.08254
535 1.9523
540 1.78182
545 1.67767
550 1.50708
555 1.38612
560 1.1854
565 1.10567
570 0.880905
575 0.819559
580 0.72597
585 0.590856
590 0.506396
595 0.388998
600 0.316036
Ex : 438
200 0.117568
205 0.121471
210 0.143834
215 0.147787
220 0.131132
225 0.150434
230 0.152016
235 0.109973
240 0.132259
245 0.130142
250 0.170777
255 0.147555
260 0.120827
265 0.22238
270 0.146947
275 0.134155
280 0.143425
285 0.13021
290 0.140935
295 0.168445
300 0.144512
305 0.153307
310 0.15489
315 0.150514
320 0.120782
325 0.128757
330 0.136555
335 0.160388
340 0.142062
345 0.161407
350 0.163778
355 0.111072
360 0.140576
365 0.148515
370 0.175312
375 0.18018
380 0.126659
385 0.168104
390 0.195907
395 0.187985
400 0.187766
405 0.188185
410 0.21601
415 0.330629
420 0.380619
425 7.66522
430 132.191
435 210.893
440 53.9407
445 7.21627
450 1.93277
455 1.37585
460 1.6971
465 1.98065
470 1.86429
475 1.98222
480 2.01178
485 2.11725
490 2.4294
495 4.0974
500 4.45755
505 3.43007
510 2.78666
515 2.75642
520 2.25495
525 2.07324
530 1.91163
535 1.70253
540 1.66735
545 1.57909
550 1.45946
555 1.33871
560 1.12087
565 1.03187
570 0.887199
575 0.803393
580 0.626451
585 0.545531
590 0.527549
595 0.39516
600 0.179064
Ex : 443
200 0.128784
205 0.110788
210 0.15841
215 0.167152
220 0.204992
225 0.190063
230 0.107109
235 0.152007
240 0.150682
245 0.138591
250 0.169698
255 0.148281
260 0.14736
265 0.160856
270 0.146332
275 0.156118
280 0.141771
285 0.14808
290 0.133556
295 0.132918
300 0.121544
305 0.143362
310 0.129208
315 0.146185
320 0.132678
325 0.108165
330 0.120778
335 0.137437
340 0.210126
345 0.17029
350 0.166321
355 0.181525
360 0.176241
365 0.165352
370 0.151031
375 0.181304
380 0.202202
385 0.175098
390 0.21067
395 0.181857
400 0.196096
405 0.19957
410 0.250603
415 0.187987
420 0.293345
425 0.405059
430 8.64221
435 141.873
440 216.431
445 54.9265
450 7.45135
455 2.08078
460 1.48526
465 1.63041
470 1.92858
475 1.95761
480 1.85107
485 1.74924
490 1.86005
495 2.19093
500 3.5832
505 4.25114
510 3.22943
515 2.7271
520 2.37885
525 2.10131
530 1.83373
535 1.63242
540 1.46489
545 1.34859
550 1.30825
555 1.20652
560 1.12788
565 0.961357
570 0.884014
575 0.752322
580 0.595676
585 0.523292
590 0.470748
595 0.434742
600 0.274728
Ex : 448
200 0.149984
205 0.106114
210 0.102606
215 0.0961339
220 0.117463
225 0.14607
230 0.0909845
235 0.139084
240 0.143894
245 0.135155
250 0.194435
255 0.145711
260 0.140981
265 0.151016
270 0.174242
275 0.166102
280 0.15422
285 0.180258
290 0.145042
295 0.0975781
300 0.15456
305 0.16927
310 0.162942
315 0.169464
320 0.239274
325 0.196889
330 0.142257
335 0.14138
340 0.152395
345 0.217576
350 0.139832
355 0.132273
360 0.153327
365 0.147446
370 0.15094
375 0.22577
380 0.16967
385 0.178907
390 0.162969
395 0.170269
400 0.163117
405 0.201591
410 0.168728
415 0.24045
420 0.262729
425 0.351831
430 0.381379
435 8.58528
440 148.423
445 225.021
450 57.7319
455 7.71873
460 2.18731
465 1.24816
470 1.5229
475 1.72386
480 1.66
485 1.77631
490 1.61075
495 1.91295
500 1.82574
505 2.68341
510 3.70288
515 3.29308
520 2.29657
525 2.38626
530 2.10107
535 1.70747
540 1.34555
545 1.22799
550 1.16675
555 1.17205
560 0.977176
565 1.00723
570 0.846383
575 0.822352
580 0.607291
585 0.515002
590 0.396984
595 0.410325
600 0.221563
Ex : 453
200 0.135056
205 0.158927
210 0.132272
215 0.116959
220 0.159574
225 0.16918
230 0.12038
235 0.164757
240 0.110712
245 0.125973
250 0.111237
255 0.169498
260 0.186845
265 0.154457
270 0.132936
275 0.163429
280 0.143979
285 0.18613
290 0.221986
295 0.136445
300 0.10654
305 0.126965
310 0.123299
315 0.126677
320 0.193139
325 0.186925
330 0.137245
335 0.14915
340 0.164662
345 0.146529
350 0.153438
355 0.171837
360 0.162992
365 0.119542
370 0.145168
375 0.116302
380 0.157041
385 0.119819
390 0.183694
395 0.215146
400 0.173008
405 0.177597
410 0.15786
415 0.164302
420 0.187434
425 0.205911
430 0.236056
435 0.364492
440 8.80145
445 165.596
450 237.864
455 56.7204
460 7.67337
465 1.99473
470 1.32652
475 1.39487
480 1.75954
485 1.7151
490 1.47289
495 1.51494
500 1.48978
505 1.50666
510 2.02938
515 3.23618
520 3.23816
525 2.26029
530 1.88747
535 1.74082
540 1.43569
545 1.26487
550 1.28017
555 1.05596
560 0.992588
565 0.899137
570 0.792019
575 0.689427
580 0.723422
585 0.54961
590 0.431022
595 0.369031
600 0.433702
Ex : 458
200 0.182065
205 0.171622
210 0.133843
215 0.148386
220 0.14389
225 0.138552
230 0.135028
235 0.177239
240 0.138004
245 0.125557
250 0.11921
255 0.162111
260 0.120865
265 0.129999
270 0.13282
275 0.118148
280 0.119331
285 0.221943
290 0.209798
295 0.207993
300 0.125835
305 0.182132
310 0.14481
315 0.138903
320 0.139463
325 0.10777
330 0.127232
335 0.143679
340 0.168023
345 0.152013
350 0.107695
355 0.159367
360 0.153941
365 0.18166
370 0.151332
375 0.155237
380 0.15042
385 0.187485
390 0.190057
395 0.160512
400 0.168762
405 0.16871
410 0.168307
415 0.138673
420 0.19298
425 0.229452
430 0.224036
435 0.265946
440 0.497387
445 10.4136
450 168.484
455 249.224
460 61.4267
465 8.08949
470 2.05987
475 1.35838
480 1.3536
485 1.6366
490 1.59075
495 1.4144
500 1.16378
505 1.20937
510 1.37911
515 1.59419
520 2.53233
525 3.21969
530 2.39053
535 1.80237
540 1.71855
545 1.40557
550 1.29487
555 1.09401
560 1.09629
565 0.963568
570 0.776517
575 0.743919
580 0.559642
585 0.620532
590 0.422665
595 0.404311
600 0.484781
Ex : 463
200 0.159028
205 0.14627
210 0.12385
215 0.144433
220 0.139423
225 0.165291
230 0.0955461
235 0.131958
240 0.140718
245 0.127946
250 0.125578
255 0.108829
260 0.147083
265 0.17339
270 0.128616
275 0.142978
280 0.183572
285 0.13964
290 0.169382
295 0.126448
300 0.143785
305 0.110375
310 0.147934
315 0.139682
320 0.14103
325 0.143927
330 0.146186
335 0.16426
340 0.133938
345 0.188293
350 0.186011
355 0.158094
360 0.20797
365 0.119107
370 0.11072
375 0.134582
380 0.166572
385 0.20655
390 0.158366
395 0.125673
400 0.165813
405 0.151465
410 0.176138
415 0.190186
420 0.142002
425 0.235611
430 0.216016
435 0.221516
440 0.31058
445 0.406864
450 9.88802
455 174.812
460 271.884
465 66.983
470 8.69314
475 2.1604
480 1.23811
485 1.20375
490 1.57193
495 1.56029
500 1.41431
505 1.25456
510 1.25223
515 1.15833
520 1.30004
525 2.09183
530 3.00047
535 2.74184
540 1.60013
545 1.51742
550 1.44051
555 1.02519
560 1.00228
565 0.822304
570 0.672256
575 0.6892
580 0.63057
585 0.484092
590 0.48587
595 0.360996
600 0.7091
Ex : 468
200 0.113927
205 0.172127
210 0.0983881
215 0.110595
220 0.0912277
225 0.131148
230 0.127571
235 0.126059
240 0.152892
245 0.155155
250 0.104184
255 0.139222
260 0.120519
265 0.122883
270 0.111046
275 0.143691
280 0.112768
285 0.12807
290 0.113588
295 0.141483
300 0.1062
305 0.121942
310 0.115345
315 0.116961
320 0.137084
325 0.119066
330 0.158101
335 0.16724
340 0.119409
345 0.188549
350 0.133796
355 0.16278
360 0.12303
365 0.160169
370 0.114808
375 0.145699
380 0.14309
385 0.125274
390 0.154868
395 0.203873
400 0.147384
405 0.167374
410 0.152933
415 0.124077
420 0.139242
425 0.12772
430 0.163421
435 0.211267
440 0.208587
445 0.324144
450 0.367826
455 11.209
460 179.06
465 287.582
470 70.3567
475 9.0234
480 2.17563
485 1.27418
490 1.138
495 1.52579
500 1.57919
505 1.24806
510 1.18743
515 1.15347
520 1.24112
525 1.25221
530 1.75602
535 2.72378
540 2.77178
545 1.75559
550 1.54928
555 1.41884
560 1.17207
565 0.813734
570 0.795795
575 0.71805
580 0.546824
585 0.409814
590 0.354473
595 0.352705
600 0.287111
Ex : 473
200 0.12678
205 0.113255
210 0.134539
215 0.115576
220 0.0872687
225 0.0887018
230 0.105753
235 0.126698
240 0.130417
245 0.140606
250 0.150194
255 0.12385
260 0.126643
265 0.134252
270 0.147941
275 0.150071
280 0.142068
285 0.130038
290 0.171676
295 0.124348
300 0.134249
305 0.141297
310 0.143076
315 0.114379
320 0.137882
325 0.13506
330 0.131838
335 0.112721
340 0.113613
345 0.109872
350 0.122042
355 0.166939
360 0.12777
365 0.155966
370 0.224333
375 0.106567
380 0.163416
385 0.159258
390 0.150214
395 0.186556
400 0.135093
405 0.162859
410 0.171932
415 0.143164
420 0.166414
425 0.139235
430 0.199082
435 0.192372
440 0.242396
445 0.261726
450 0.295337
455 0.425175
460 12.8735
465 201.503
470 286.808
475 67.2297
480 8.72125
485 2.10854
490 1.31616
495 1.1044
500 1.34409
505 1.49015
510 1.34349
515 1.1022
520 1.23819
525 1.24539
530 1.19412
535 1.30394
540 2.2188
545 2.79545
550 1.93329
555 1.37743
560 1.46293
565 1.10415
570 0.81562
575 0.712716
580 0.574589
585 0.513367
590 0.433632
595 0.448642
600 0.459678
Ex : 478
200 0.157284
205 0.132713
210 0.13204
215 0.166392
220 0.153506
225 0.168245
230 0.215221
235 0.173945
240 0.140136
245 0.138007
250 0.224913
255 0.163533
260 0.182625
265 0.164607
270 0.191215
275 0.145411
280 0.186663
285 0.153779
290 0.190577
295 0.149464
300 0.111438
305 0.192505
310 0.224143
315 0.234419
320 0.234439
325 0.158979
330 0.139101
335 0.169077
340 0.131852
345 0.137654
350 0.122224
355 0.193808
360 0.144953
365 0.152559
370 0.199419
375 0.240043
380 0.190802
385 0.201076
390 0.194648
395 0.16969
400 0.168248
405 0.130518
410 0.200068
415 0.232906
420 0.231382
425 0.202292
430 0.205152
435 0.29043
440 0.178659
445 0.259863
450 0.253335
455 0.374066
460 0.535365
465 14.4612
470 211.543
475 299.817
480 74.0442
485 9.42449
490 2.20142
495 1.30305
500 1.07454
505 1.26906
510 1.37358
515 1.30847
520 1.24749
525 1.19954
530 1.15879
535 1.10277
540 1.3066
545 1.74828
550 2.52115
555 2.18351
560 1.45436
565 1.28898
570 1.10345
575 0.846688
580 0.550438
585 0.501138
590 0.54347
595 0.386922
600 0.687694
Ex : 483
200 0.117632
205 0.147953
210 0.134582
215 0.181313
220 0.178465
225 0.206874
230 0.192189
235 0.186258
240 0.117346
245 0.12719
250 0.121857
255 0.200115
260 0.196539
265 0.144768
270 0.198554
275 0.152353
280 0.146025
285 0.166585
290 0.181554
295 0.192877
300 0.156916
305 0.109726
310 0.199645
315 0.172451
320 0.202581
325 0.14661
330 0.185802
335 0.212381
340 0.142943
345 0.189419
350 0.172851
355 0.114557
360 0.206665
365 0.12303
370 0.183804
375 0.123394
380 0.131197
385 0.195794
390 0.144721
395 0.142744
400 0.174279
405 0.239616
410 0.197819
415 0.200166
420 0.156435
425 0.213436
430 0.195129
435 0.18009
440 0.292234
445 0.287086
450 0.275022
455 0.288461
460 0.355397
465 0.584749
470 11.2968
475 207.803
480 317.675
485 78.5854
490 10.0182
495 2.16534
500 1.20279
505 0.920868
510 1.13208
515 1.47002
520 1.42284
525 1.28532
530 1.0819
535 1.17165
540 1.18374
545 1.10833
550 1.3313
555 2.03651
560 2.37542
565 1.46004
570 1.04107
575 0.970017
580 0.735927
585 0.572729
590 0.554561
595 0.429365
600 0.318708
Ex : 488
200 0.150856
205 0.198758
210 0.170223
215 0.172359
220 0.197538
225 0.221612
230 0.187445
235 0.212309
240 0.153302
245 0.295126
250 0.186136
255 0.19105
260 0.174622
265 0.154649
270 0.168868
275 0.162134
280 0.220964
285 0.214055
290 0.212529
295 0.201361
300 0.169774
305 0.239069
310 0.235628
315 0.199022
320 0.214553
325 0.205326
330 0.239242
335 0.276057
340 0.180573
345 0.213127
350 0.184279
355 0.188752
360 0.163612
365 0.201336
370 0.179774
375 0.165887
380 0.210685
385 0.207912
390 0.183251
395 0.184495
400 0.156446
405 0.196153
410 0.155686
415 0.244427
420 0.235486
425 0.255136
430 0.205291
435 0.187812
440 0.195642
445 0.256634
450 0.309691
455 0.225637
460 0.28475
465 0.446031
470 0.550842
475 14.3724
480 227.879
485 331.335
490 78.8442
495 9.99981
500 2.00429
505 1.16077
510 1.02188
515 1.19883
520 1.42643
525 1.37829
530 1.23934
535 1.02308
540 1.06095
545 1.04798
550 0.999909
555 1.15108
560 1.62183
565 2.04656
570 1.51286
575 0.984295
580 0.805928
585 0.645282
590 0.492975
595 0.440676
600 0.23813
Ex : 493
200 0.160174
205 0.15125
210 0.250593
215 0.180442
220 0.187407
225 0.11251
230 0.145528
235 0.149218
240 0.164963
245 0.147185
250 0.199447
255 0.188072
260 0.142458
265 0.171607
270 0.139407
275 0.225565
280 0.197678
285 0.162689
290 0.213794
295 0.217208
300 0.130856
305 0.194669
310 0.169773
315 0.167955
320 0.167444
325 0.175812
330 0.194021
335 0.212509
340 0.203178
345 0.208826
350 0.2054
355 0.194154
360 0.186581
365 0.183426
370 0.192052
375 0.170772
380 0.217925
385 0.190259
390 0.19812
395 0.23006
400 0.260865
405 0.200261
410 0.13733
415 0.21292
420 0.216917
425 0.19339
430 0.158451
435 0.231385
440 0.246594
445 0.219962
450 0.236361
455 0.252615
460 0.30827
465 0.444537
470 0.447635
475 0.570597
480 13.1744
485 232.693
490 351.214
495 81.5669
500 10.2299
505 2.13577
510 1.14443
515 0.96148
520 1.11359
525 1.43312
530 1.34506
535 1.36466
540 1.023
545 1.04316
550 1.01769
555 1.01358
560 0.967054
565 1.11427
570 1.75586
575 1.56391
580 0.865141
585 0.667225
590 0.568754
595 0.506901
600 0.131255
Ex : 498
200 0.23282
205 0.211442
210 0.18355
215 0.231616
220 0.216125
225 0.204816
230 0.236875
235 0.190416
240 0.194893
245 0.230832
250 0.23995
255 0.2296
260 0.215053
265 0.216662
270 0.232981
275 0.200411
280 0.173297
285 0.161531
290 0.199796
295 0.166094
300 0.236507
305 0.243488
310 0.203283
315 0.2196
320 0.212067
325 0.167556
330 0.201518
335 0.23571
340 0.283139
345 0.210278
350 0.203911
355 0.205019
360 0.189266
365 0.199169
370 0.227139
375 0.189018
380 0.218493
385 0.216487
390 0.174904
395 0.285898
400 0.242443
405 0.214388
410 0.231874
415 0.197967
420 0.206961
425 0.228485
430 0.176066
435 0.270767
440 0.236863
445 0.216366
450 0.219115
455 0.295936
460 0.323558
465 0.31095
470 0.350424
475 0.358775
480 0.580333
485 16.757
490 250.169
495 346.728
500 80.778
505 10.1888
510 2.11487
515 1.25432
520 1.18303
525 1.20513
530 1.31491
535 1.38411
540 1.16166
545 0.98034
550 0.977733
555 0.939905
560 0.858568
565 0.86089
570 1.07105
575 1.20864
580 1.41935
585 0.792817
590 0.496292
595 0.468346
600 0.98381
Ex : 503
200 0.179248
205 0.171445
210 0.224956
215 0.154896
220 0.23642
225 0.146164
230 0.164066
235 0.200201
240 0.182409
245 0.153571
250 0.171598
255 0.206628
260 0.181245
265 0.194561
270 0.194962
275 0.222309
280 0.150065
285 0.210447
290 0.22649
295 0.188592
300 0.134565
305 0.293476
310 0.235065
315 0.257709
320 0.251652
325 0.230778
330 0.202074
335 0.209485
340 0.208406
345 0.222315
350 0.217695
355 0.228009
360 0.200098
365 0.172121
370 0.249364
375 0.233793
380 0.181424
385 0.20714
390 0.216681
395 0.237178
400 0.230436
405 0.187818
410 0.215351
415 0.246738
420 0.180654
425 0.217138
430 0.180417
435 0.22636
440 0.203056
445 0.332067
450 0.249353
455 0.274096
460 0.276355
465 0.256924
470 0.278917
475 0.376671
480 0.403352
485 0.529021
490 15.3726
495 254.643
500 360.024
505 85.0336
510 10.8242
515 2.26144
520 1.36556
525 1.07073
530 1.22393
535 1.31832
540 1.25142
545 1.27351
550 1.04717
555 0.849182
560 0.852393
565 0.735595
570 0.72317
575 0.696036
580 0.847268
585 1.15993
590 0.770787
595 0.543282
600 0.679834
Ex : 508
200 0.259729
205 0.193044
210 0.175607
215 0.181429
220 0.19324
225 0.205583
230 0.198382
235 0.240575
240 0.223061
245 0.295622
250 0.225075
255 0.21858
260 0.236387
265 0.222298
270 0.205019
275 0.232888
280 0.24248
285 0.242007
290 0.201022
295 0.324607
300 0.218254
305 0.24159
310 0.273503
315 0.256881
320 0.214334
325 0.235424
330 0.164601
335 0.255433
340 0.342033
345 0.203406
350 0.243801
355 0.233642
360 0.220698
365 0.252719
370 0.19543
375 0.264045
380 0.225904
385 0.171281
390 0.212702
395 0.26683
400 0.239482
405 0.184778
410 0.234985
415 0.208602
420 0.210267
425 0.226066
430 0.311613
435 0.294251
440 0.247122
445 0.290604
450 0.272469
455 0.289886
460 0.281303
465 0.27954
470 0.312285
475 0.28092
480 0.367062
485 0.452216
490 0.666891
495 16.4757
500 252.467
505 358.708
510 89.4002
515 11.2414
520 2.5224
525 1.35848
530 1.15086
535 1.13333
540 1.21258
545 1.2576
550 1.09097
555 0.925252
560 0.798024
565 0.734892
570 0.597686
575 0.629803
580 0.681914
585 0.707194
590 0.958455
595 0.780904
600 0.370838
Ex : 513
200 0.236356
205 0.241101
210 0.188781
215 0.221536
220 0.191664
225 0.243685
230 0.211114
235 0.199056
240 0.289523
245 0.272555
250 0.226458
255 0.171102
260 0.225385
265 0.265932
270 0.190912
275 0.244757
280 0.168531
285 0.216443
290 0.228566
295 0.254414
300 0.195065
305 0.232591
310 0.190131
315 0.192102
320 0.244302
325 0.199168
330 0.180025
335 0.173287
340 0.218578
345 0.2069
350 0.221874
355 0.183662
360 0.248499
365 0.259902
370 0.225533
375 0.274684
380 0.237884
385 0.194015
390 0.208491
395 0.217059
400 0.211791
405 0.206433
410 0.293862
415 0.260897
420 0.211754
425 0.290187
430 0.229333
435 0.255751
440 0.242854
445 0.24301
450 0.278367
455 0.244844
460 0.238322
465 0.285931
470 0.347402
475 0.38541
480 0.365122
485 0.368348
490 0.458076
495 0.713151
500 15.4825
505 261.144
510 384.216
515 95.1932
520 11.987
525 2.40882
530 1.33666
535 1.07217
540 1.04001
545 1.28492
550 1.0582
555 1.11114
560 0.858723
565 0.740854
570 0.640817
575 0.707966
580 0.528496
585 0.467568
590 0.51395
595 0.713514
600 0.880435
Ex : 518
200 0.25358
205 0.274251
210 0.172386
215 0.242419
220 0.25005
225 0.231305
230 0.291341
235 0.219314
240 0.275168
245 0.20091
250 0.253719
255 0.304079
260 0.273616
265 0.218738
270 0.2358
275 0.250258
280 0.230437
285 0.234885
290 0.267401
295 0.333494
300 0.283362
305 0.228887
310 0.220505
315 0.26648
320 0.238262
325 0.284083
330 0.179227
335 0.240647
340 0.233526
345 0.250567
350 0.257942
355 0.194096
360 0.192065
365 0.295729
370 0.276289
375 0.259298
380 0.260426
385 0.247449
390 0.24882
395 0.199822
400 0.199101
405 0.274882
410 0.187705
415 0.215818
420 0.30358
425 0.261032
430 0.248369
435 0.287234
440 0.244312
445 0.281032
450 0.229197
455 0.265759
460 0.291344
465 0.333109
470 0.286526
475 0.316305
480 0.353719
485 0.35235
490 0.375188
495 0.417971
500 0.694126
505 15.9962
510 252.442
515 381.963
520 98.2302
525 12.5074
530 2.33976
535 1.47217
540 1.12933
545 0.966178
550 0.989156
555 0.986808
560 0.867357
565 0.716411
570 0.70202
575 0.558555
580 0.478868
585 0.418459
590 0.562008
595 0.510899
600 0.637741
Ex : 523
200 0.215406
205 0.210932
210 0.211447
215 0.245091
220 0.283472
225 0.253966
230 0.251562
235 0.188408
240 0.237963
245 0.226774
250 0.227429
255 0.237281
260 0.189918
265 0.267524
270 0.22691
275 0.204045
280 0.195482
285 0.354624
290 0.340463
295 0.26604
300 0.25468
305 0.209138
310 0.227769
315 0.274967
320 0.228062
325 0.252683
330 0.197077
335 0.261907
340 0.242313
345 0.208115
350 0.327635
355 0.228641
360 0.27922
365 0.326093
370 0.203876
375 0.165031
380 0.213599
385 0.161895
390 0.21688
395 0.215271
400 0.336966
405 0.239119
410 0.210163
415 0.294425
420 0.321176
425 0.318904
430 0.258768
435 0.226532
440 0.217275
445 0.290429
450 0.234169
455 0.180925
460 0.238868
465 0.262389
470 0.267403
475 0.333784
480 0.337794
485 0.346957
490 0.253408
495 0.420588
500 0.453098
505 0.613929
510 15.6935
515 252.722
520 386.985
525 101.729
530 12.6697
535 2.33174
540 1.26941
545 1.05092
550 0.779922
555 0.80375
560 0.955374
565 0.854978
570 0.843493
575 0.599139
580 0.486943
585 0.419704
590 0.520884
595 0.502063
600 0.541707
Ex : 528
200 0.198799
205 0.249626
210 0.248581
215 0.310315
220 0.235893
225 0.202185
230 0.228052
235 0.254715
240 0.242331
245 0.314032
250 0.31981
255 0.220261
260 0.234689
265 0.246535
270 0.222645
275 0.200316
280 0.31755
285 0.248338
290 0.201201
295 0.217649
300 0.225813
305 0.256282
310 0.225247
315 0.285332
320 0.267657
325 0.288051
330 0.192331
335 0.182487
340 0.203337
345 0.224283
350 0.269102
355 0.232357
360 0.243583
365 0.247083
370 0.279517
375 0.240459
380 0.204626
385 0.245594
390 0.266279
395 0.282885
400 0.269282
405 0.226486
410 0.30935
415 0.385978
420 0.321683
425 0.29073
430 0.359895
435 0.289307
440 0.361478
445 0.251689
450 0.333553
455 0.342754
460 0.354944
465 0.273898
470 0.263093
475 0.273179
480 0.293032
485 0.332649
490 0.462838
495 0.44548
500 0.428081
505 0.47106
510 0.711872
515 14.0613
520 248.744
525 386.263
530 100.579
535 12.5828
540 2.2132
545 1.14119
550 0.779718
555 0.631799
560 0.749492
565 0.786764
570 0.727917
575 0.650678
580 0.518385
585 0.393244
590 0.48953
595 0.414693
600 0.648543
Ex : 533
200 0.220927
205 0.190052
210 0.276965
215 0.208135
220 0.264568
225 0.257002
230 0.251103
235 0.274125
240 0.227534
245 0.189893
250 0.262848
255 0.298311
260 0.237837
265 0.253719
270 0.247519
275 0.212449
280 0.219275
285 0.220033
290 0.226974
295 0.188793
300 0.21555
305 0.400833
310 0.250473
315 0.207744
320 0.264132
325 0.224587
330 0.19401
335 0.293128
340 0.272994
345 0.226857
350 0.252224
355 0.247742
360 0.244963
365 0.371831
370 0.281791
375 0.289644
380 0.263149
385 0.290587
390 0.248922
395 0.289072
400 0.251422
405 0.298253
410 0.236238
415 0.261636
420 0.308199
425 0.289475
430 0.321522
435 0.237614
440 0.286294
445 0.313552
450 0.294713
455 0.214753
460 0.2391
465 0.315106
470 0.331444
475 0.245725
480 0.25471
485 0.329876
490 0.274125
495 0.334469
500 0.319539
505 0.407766
510 0.548358
515 0.708767
520 14.7849
525 248.812
530 387.445
535 103.641
540 12.8365
545 2.21197
550 0.98848
555 0.738073
560 0.663726
565 0.626005
570 0.542969
575 0.651186
580 0.472545
585 0.474886
590 0.453827
595 0.398752
600 0.777661
Ex : 538
200 0.297758
205 0.336605
210 0.243844
215 0.254025
220 0.235451
225 0.19102
230 0.248548
235 0.251408
240 0.198821
245 0.272433
250 0.241428
255 0.266124
260 0.218838
265 0.29945
270 0.289001
275 0.232374
280 0.240756
285 0.31242
290 0.299453
295 0.203612
300 0.224466
305 0.339141
310 0.26146
315 0.272538
320 0.315153
325 0.226909
330 0.280045
335 0.214227
340 0.275793
345 0.362264
350 0.260982
355 0.269047
360 0.266968
365 0.210831
370 0.163979
375 0.229563
380 0.287378
385 0.212537
390 0.236893
395 0.341336
400 0.291062
405 0.241647
410 0.238636
415 0.245383
420 0.299758
425 0.286773
430 0.280365
435 0.343242
440 0.334461
445 0.341184
450 0.277813
455 0.298847
460 0.251724
465 0.266653
470 0.268437
475 0.242799
480 0.274097
485 0.317322
490 0.266612
495 0.327692
500 0.311104
505 0.367971
510 0.514745
515 0.560617
520 0.624647
525 12.1685
530 231.779
535 383.644
540 107.167
545 13.2731
550 2.34233
555 0.936546
560 0.685742
565 0.60429
570 0.582187
575 0.691518
580 0.555025
585 0.472344
590 0.448533
595 0.413491
600 0.248246
Ex : 543
200 0.238843
205 0.226185
210 0.279793
215 0.240317
220 0.24732
225 0.277919
230 0.272728
235 0.327373
240 0.225618
245 0.251655
250 0.250742
255 0.300708
260 0.354684
265 0.279351
270 0.195259
275 0.283768
280 0.24387
285 0.225154
290 0.405524
295 0.276964
300 0.249446
305 0.221293
310 0.251866
315 0.241976
320 0.322663
325 0.275401
330 0.262487
335 0.228246
340 0.225105
345 0.312153
350 0.307956
355 0.242282
360 0.337707
365 0.365694
370 0.261638
375 0.257984
380 0.268023
385 0.312789
390 0.274368
395 0.280471
400 0.254197
405 0.293233
410 0.288749
415 0.275512
420 0.262892
425 0.278587
430 0.317074
435 0.266406
440 0.352264
445 0.265936
450 0.251843
455 0.272159
460 0.241365
465 0.287806
470 0.341947
475 0.333806
480 0.308227
485 0.290613
490 0.33928
495 0.323706
500 0.291352
505 0.390768
510 0.398433
515 0.456037
520 0.556503
525 0.602593
530 11.5555
535 219.642
540 373.924
545 106.37
550 13.0852
555 2.21683
560 0.8494
565 0.794383
570 0.554672
575 0.447754
580 0.522672
585 0.48212
590 0.486832
595 0.452837
600 0.371146
Ex : 548
200 0.303884
205 0.230646
210 0.440337
215 0.196663
220 0.28009
225 0.320895
230 0.3115
235 0.269166
240 0.189066
245 0.297947
250 0.283443
255 0.25832
260 0.262392
265 0.238922
270 0.228373
275 0.310606
280 0.223614
285 0.275411
290 0.267869
295 0.244074
300 0.2123
305 0.227554
310 0.218275
315 0.266619
320 0.300416
325 0.259103
330 0.295515
335 0.305275
340 0.320059
345 0.231699
350 0.23983
355 0.289929
360 0.215109
365 0.254969
370 0.281802
375 0.286544
380 0.391613
385 0.299008
390 0.279434
395 0.316942
400 0.235792
405 0.338606
410 0.236945
415 0.273811
420 0.291594
425 0.287334
430 0.23729
435 0.217584
440 0.302148
445 0.258547
450 0.266466
455 0.295726
460 0.368572
465 0.343805
470 0.298809
475 0.295569
480 0.352351
485 0.350388
490 0.328519
495 0.323494
500 0.32619
505 0.404637
510 0.356031
515 0.298107
520 0.439632
525 0.522838
530 0.644305
535 12.7651
540 224.976
545 367.949
550 102.432
555 12.581
560 2.04907
565 0.82578
570 0.805784
575 0.533593
580 0.429501
585 0.48866
590 0.439645
595 0.33596
600 0.127596
Ex : 553
200 0.387324
205 0.319375
210 0.31196
215 0.28514
220 0.232578
225 0.312708
230 0.255883
235 0.264338
240 0.261405
245 0.301509
250 0.33587
255 0.315508
260 0.320565
265 0.360585
270 0.331343
275 0.234681
280 0.249434
285 0.262899
290 0.258298
295 0.298816
300 0.290966
305 0.322612
310 0.353791
315 0.285887
320 0.40963
325 0.302533
330 0.334793
335 0.323078
340 0.43396
345 0.440633
350 0.239999
355 0.290878
360 0.336633
365 0.248014
370 0.318206
375 0.252367
380 0.335022
385 0.319119
390 0.274768
395 0.270692
400 0.264972
405 0.342601
410 0.33055
415 0.307194
420 0.203218
425 0.297774
430 0.247034
435 0.372199
440 0.261816
445 0.265933
450 0.315516
455 0.319311
460 0.310006
465 0.267021
470 0.385762
475 0.392697
480 0.353874
485 0.341559
490 0.352099
495 0.243471
500 0.337574
505 0.299004
510 0.350624
515 0.343539
520 0.441293
525 0.43712
530 0.605353
535 0.630013
540 11.0017
545 209.101
550 358.477
555 104.038
560 12.8571
565 2.06609
570 0.764633
575 0.680218
580 0.412192
585 0.363292
590 0.460554
595 0.524614
600 0.270945
Ex : 558
200 0.287312
205 0.248141
210 0.379127
215 0.323563
220 0.307974
225 0.325144
230 0.292631
235 0.40153
240 0.304991
245 0.290926
250 0.283586
255 0.351095
260 0.313034
265 0.31461
270 0.316079
275 0.319876
280 0.292291
285 0.321742
290 0.286417
295 0.291395
300 0.290164
305 0.243522
310 0.295491
315 0.313351
320 0.302017
325 0.319448
330 0.327073
335 0.295935
340 0.302203
345 0.327451
350 0.256445
355 0.296208
360 0.308763
365 0.397267
370 0.316222
375 0.412878
380 0.363439
385 0.235728
390 0.409927
395 0.302419
400 0.367464
405 0.349943
410 0.303578
415 0.340177
420 0.361107
425 0.429904
430 0.266265
435 0.332622
440 0.254095
445 0.256833
450 0.3296
455 0.460807
460 0.371764
465 0.410779
470 0.302057
475 0.297437
480 0.255207
485 0.337806
490 0.256524
495 0.449811
500 0.332062
505 0.487543
510 0.318922
515 0.423215
520 0.378063
525 0.446726
530 0.43744
535 0.382826
540 0.621017
545 10.3524
550 198.666
555 347.314
560 103.81
565 12.7803
570 2.115
575 0.746259
580 0.622189
585 0.371986
590 0.347244
595 0.468389
600 0.106687
Ex : 563
200 0.342419
205 0.367033
210 0.361516
215 0.25801
220 0.274677
225 0.275139
230 0.273956
235 0.324852
240 0.267545
245 0.284325
250 0.239228
255 0.235049
260 0.296762
265 0.387618
270 0.387495
275 0.361295
280 0.34871
285 0.361134
290 0.31248
295 0.36415
300 0.28809
305 0.303826
310 0.233097
315 0.199769
320 0.228667
325 0.261465
330 0.260596
335 0.303457
340 0.253027
345 0.308264
350 0.396693
355 0.351562
360 0.285844
365 0.351292
370 0.307487
375 0.288211
380 0.237812
385 0.38091
390 0.232726
395 0.34664
400 0.336747
405 0.30994
410 0.347024
415 0.36688
420 0.330394
425 0.378029
430 0.317424
435 0.281766
440 0.344679
445 0.339278
450 0.304602
455 0.335861
460 0.30055
465 0.302301
470 0.272542
475 0.336625
480 0.354836
485 0.317947
490 0.294046
495 0.38268
500 0.305074
505 0.377426
510 0.411079
515 0.397332
520 0.32087
525 0.440317
530 0.391505
535 0.394585
540 0.455901
545 0.580335
550 9.49916
555 191.506
560 336.692
565 100.082
570 12.3215
575 2.02309
580 0.701431
585 0.609953
590 0.35005
595 0.422222
600 0.343449
Ex : 568
200 0.32654
205 0.263204
210 0.286574
215 0.347541
220 0.337025
225 0.294566
230 0.253497
235 0.299859
240 0.385838
245 0.371985
250 0.289089
255 0.322612
260 0.275892
265 0.402794
270 0.357238
275 0.334825
280 0.354623
285 0.433694
290 0.337308
295 0.337592
300 0.270989
305 0.412606
310 0.401844
315 0.363026
320 0.385217
325 0.365795
330 0.300584
335 0.373858
340 0.363974
345 0.285476
350 0.315727
355 0.361901
360 0.168113
365 0.313807
370 0.32153
375 0.357697
380 0.302723
385 0.227941
390 0.248406
395 0.383999
400 0.319871
405 0.376453
410 0.341882
415 0.335849
420 0.301853
425 0.34825
430 0.370101
435 0.201696
440 0.292227
445 0.300839
450 0.316906
455 0.358269
460 0.361641
465 0.300044
470 0.318683
475 0.39053
480 0.410348
485 0.433935
490 0.439837
495 0.348818
500 0.420079
505 0.395901
510 0.33281
515 0.379274
520 0.424012
525 0.489523
530 0.343179
535 0.42386
540 0.536567
545 0.473124
550 0.68285
555 7.65337
560 184.26
565 339.215
570 106.856
575 13.1904
580 2.03073
585 0.584235
590 0.493446
595 0.434727
600 0.219894
Ex : 573
200 0.310961
205 0.258334
210 0.287394
215 0.252016
220 0.307148
225 0.283568
230 0.307439
235 0.365933
240 0.251613
245 0.323519
250 0.333663
255 0.285867
260 0.416376
265 0.30709
270 0.329647
275 0.366302
280 0.316568
285 0.358064
290 0.30393
295 0.301898
300 0.293041
305 0.298816
310 0.251045
315 0.223679
320 0.318666
325 0.270188
330 0.307158
335 0.263881
340 0.337141
345 0.264893
350 0.387358
355 0.335068
360 0.3605
365 0.310097
370 0.41555
375 0.390601
380 0.352439
385 0.452222
390 0.288464
395 0.242466
400 0.293969
405 0.347624
410 0.286192
415 0.317553
420 0.334287
425 0.317439
430 0.268244
435 0.253541
440 0.269522
445 0.370154
450 0.324039
455 0.313385
460 0.316531
465 0.397262
470 0.348622
475 0.346613
480 0.480373
485 0.299376
490 0.352142
495 0.34501
500 0.285514
505 0.371009
510 0.24051
515 0.351276
520 0.377052
525 0.395852
530 0.261242
535 0.461914
540 0.352073
545 0.387181
550 0.405912
555 0.549881
560 6.49373
565 152.079
570 309.76
575 97.1503
580 12.0735
585 1.8117
590 0.573972
595 0.415233
600 0.568548
Ex : 578
200 0.322493
205 0.379921
210 0.382842
215 0.518498
220 0.396666
225 0.311691
230 0.427098
235 0.324009
240 0.313377
245 0.351285
250 0.268617
255 0.354073
260 0.359291
265 0.263699
270 0.347065
275 0.328967
280 0.348379
285 0.296162
290 0.330158
295 0.293441
300 0.220504
305 0.358264
310 0.304095
315 0.322923
320 0.404936
325 0.27868
330 0.31758
335 0.317517
340 0.348385
345 0.367358
350 0.382097
355 0.347621
360 0.275246
365 0.402513
370 0.320744
375 0.437374
380 0.366396
385 0.321564
390 0.369818
395 0.394409
400 0.291234
405 0.308548
410 0.357851
415 0.362064
420 0.398354
425 0.409615
430 0.387516
435 0.427068
440 0.393274
445 0.502496
450 0.38141
455 0.408675
460 0.30252
465 0.349456
470 0.421417
475 0.498397
480 0.3919
485 0.425981
490 0.274224
495 0.357762
500 0.340924
505 0.338989
510 0.214981
515 0.324681
520 0.503355
525 0.415964
530 0.409406
535 0.424391
540 0.369428
545 0.329275
550 0.412961
555 0.48029
560 0.569034
565 5.60073
570 136.519
575 274.99
580 88.4215
585 10.9198
590 1.76887
595 0.553025
600 0.336525
Ex : 583
200 0.246075
205 0.342638
210 0.301286
215 0.254615
220 0.272304
225 0.311097
230 0.325573
235 0.245646
240 0.274269
245 0.315498
250 0.264243
255 0.421507
260 0.371754
265 0.356587
270 0.327725
275 0.282897
280 0.290871
285 0.43247
290 0.351261
295 0.255958
300 0.272534
305 0.315639
310 0.260977
315 0.301694
320 0.355754
325 0.328813
330 0.276257
335 0.325363
340 0.350437
345 0.319134
350 0.511768
355 0.442891
360 0.41035
365 0.378542
370 0.267365
375 0.341495
380 0.423345
385 0.412096
390 0.365922
395 0.42525
400 0.281174
405 0.360055
410 0.358532
415 0.381147
420 0.36019
425 0.319623
430 0.453163
435 0.333387
440 0.35706
445 0.293433
450 0.387135
455 0.258251
460 0.36079
465 0.353173
470 0.344065
475 0.319839
480 0.3048
485 0.340339
490 0.307438
495 0.301911
500 0.476574
505 0.256599
510 0.320194
515 0.2452
520 0.310334
525 0.29522
530 0.354495
535 0.486102
540 0.484539
545 0.402856
550 0.406411
555 0.531054
560 0.498471
565 0.733204
570 4.8908
575 121.612
580 233.466
585 70.3853
590 8.76023
595 1.43486
600 0.377193
Ex : 588
200 0.334524
205 0.307424
210 0.285848
215 0.236532
220 0.358957
225 0.359105
230 0.344165
235 0.346198
240 0.294771
245 0.30733
250 0.326772
255 0.264988
260 0.389858
265 0.326025
270 0.411346
275 0.267939
280 0.300384
285 0.264623
290 0.406623
295 0.460508
300 0.33096
305 0.261397
310 0.319946
315 0.330077
320 0.337614
325 0.28617
330 0.416628
335 0.328562
340 0.332892
345 0.328385
350 0.309497
355 0.327775
360 0.348948
365 0.322132
370 0.374579
375 0.317402
380 0.411632
385 0.3392
390 0.364128
395 0.363982
400 0.370503
405 0.384527
410 0.313571
415 0.358202
420 0.391894
425 0.384295
430 0.395895
435 0.334651
440 0.372016
445 0.343412
450 0.346992
455 0.394854
460 0.372999
465 0.359307
470 0.370302
475 0.231082
480 0.284651
485 0.288539
490 0.412942
495 0.377277
500 0.397019
505 0.327633
510 0.447368
515 0.328907
520 0.294077
525 0.367021
530 0.443546
535 0.319758
540 0.421773
545 0.529575
550 0.392324
555 0.43919
560 0.395476
565 0.484378
570 0.562242
575 4.35101
580 102.297
585 199.271
590 61.3789
595 7.78049
600 1.61221
Ex : 593
200 0.341172
205 0.275888
210 0.348102
215 0.360212
220 0.344868
225 0.27119
230 0.341697
235 0.411328
240 0.314574
245 0.267077
250 0.279886
255 0.360197
260 0.304735
265 0.388777
270 0.290074
275 0.365098
280 0.345393
285 0.43521
290 0.297694
295 0.280742
300 0.317722
305 0.285689
310 0.30493
315 0.341493
320 0.392677
325 0.341991
330 0.362892
335 0.33441
340 0.281549
345 0.240801
350 0.343395
355 0.355873
360 0.437426
365 0.357702
370 0.410223
375 0.422527
380 0.363421
385 0.381812
390 0.368655
395 0.356612
400 0.334239
405 0.386835
410 0.483696
415 0.249428
420 0.297299
425 0.316401
430 0.334121
435 0.302426
440 0.411064
445 0.323806
450 0.313836
455 0.486342
460 0.318035
465 0.298788
470 0.329508
475 0.378503
480 0.302092
485 0.339089
490 0.309084
495 0.442103
500 0.300562
505 0.304276
510 0.361364
515 0.301153
520 0.358219
525 0.326259
530 0.347435
535 0.303458
540 0.314619
545 0.408521
550 0.337062
555 0.377456
560 0.459868
565 0.47757
570 0.444973
575 0.425501
580 3.8424
585 90.397
590 176.967
595 52.8122
600 7.50239
Ex : 598
200 0.357328
205 0.297775
210 0.29988
215 0.288606
220 0.242541
225 0.278447
230 0.305229
235 0.340419
240 0.311251
245 0.266005
250 0.41081
255 0.455497
260 0.397125
265 0.281457
270 0.388114
275 0.426084
280 0.442373
285 0.436502
290 0.322992
295 0.27522
300 0.41326
305 0.381463
310 0.36521
315 0.260657
320 0.245466
325 0.420658
330 0.321887
335 0.321154
340 0.232123
345 0.27236
350 0.280572
355 0.350163
360 0.339035
365 0.309045
370 0.319782
375 0.489866
380 0.29412
385 0.252774
390 0.331005
395 0.303895
400 0.316875
405 0.432176
410 0.390901
415 0.326101
420 0.390889
425 0.286461
430 0.233856
435 0.387051
440 0.362772
445 0.314588
450 0.412854
455 0.30635
460 0.40435
465 0.374027
470 0.33975
475 0.333126
480 0.441075
485 0.349311
490 0.327407
495 0.288537
500 0.395078
505 0.381563
510 0.567405
515 0.404851
520 0.278792
525 0.414643
530 0.351539
535 0.361003
540 0.518139
545 0.485794
550 0.37796
555 0.400961
560 0.409798
565 0.344034
570 0.344283
575 0.464516
580 0.547389
585 3.63966
590 80.8693
595 149.965
600 104.669
Ex : 603
200 0.334883
205 0.310053
210 0.344035
215 0.275956
220 0.303641
225 0.4579
230 0.340864
235 0.405584
240 0.370871
245 0.43221
250 0.328058
255 0.353006
260 0.537504
265 0.374404
270 0.360899
275 0.37691
280 0.327593
285 0.392903
290 0.282485
295 0.30107
300 0.350948
305 0.349454
310 0.342245
315 0.518879
320 0.301821
325 0.255375
330 0.343088
335 0.447699
340 0.447625
345 0.334082
350 0.466853
355 0.511399
360 0.344719
365 0.407311
370 0.374696
375 0.475129
380 0.353647
385 0.355427
390 0.403237
395 0.422099
400 0.28952
405 0.307032
410 0.427336
415 0.3182
420 0.29918
425 0.369188
430 0.309853
435 0.461366
440 0.433446
445 0.388101
450 0.329481
455 0.432615
460 0.384138
465 0.40042
470 0.480599
475 0.372134
480 0.34965
485 0.341283
490 0.515328
495 0.377655
500 0.454446
505 0.352437
510 0.459512
515 0.406459
520 0.444836
525 0.337211
530 0.411777
535 0.376391
540 0.419438
545 0.328611
550 0.34471
555 0.452581
560 0.404044
565 0.384888
570 0.381284
575 0.339369
580 0.558537
585 0.441983
590 3.10519
595 68.5863
600 143.539
