File format V 1.0
ven. 13. janv. 14:00:29 2017
Operator : 
Comments : 

=============================================
SpectroFluorometer parameters
Mode : 3D measurement
Data : Fluorescence
Phospho. : Ordinary
Spectrum : Fluorescence

Scan speed : 2400 nm/mn
Response : 100 ms
PM Voltage : 700 V
Shutter : On

Lambda Ex. Start : 203
Lambda Ex. End : 603
Lambda Ex. Step : 5
Ex. Slit : 5 nm

Lambda Em. Start : 200
Lambda Em. End : 600
Lambda Em. Step : 5
Em. Slit : 5 nm

Repetition : 1
Decal lambda em : 10
=============================================
DATA
Ex : 203
200 2.97101
205 4.78962
210 7.33256
215 7.51275
220 8.40971
225 8.59386
230 5.12623
235 4.74393
240 6.3083
245 6.55488
250 3.94344
255 4.63882
260 4.4675
265 8.03283
270 6.19242
275 5.30313
280 4.0734
285 3.58415
290 4.03165
295 4.42087
300 6.66219
305 6.82255
310 8.44247
315 5.92184
320 5.82494
325 5.93727
330 6.36713
335 6.89546
340 8.33831
345 5.87563
350 6.43537
355 6.11137
360 6.68635
365 5.18346
370 6.97133
375 5.39154
380 5.54377
385 7.27945
390 6.82862
395 5.71449
400 6.64068
405 4.24716
410 4.33727
415 6.49381
420 7.5967
425 8.68709
430 7.15418
435 5.9541
440 7.01412
445 7.91375
450 7.53477
455 6.4973
460 7.9201
465 6.17286
470 5.27848
475 4.69582
480 6.45166
485 7.4229
490 9.57447
495 5.33663
500 6.97147
505 6.44288
510 6.65611
515 5.89414
520 5.99213
525 8.24068
530 7.16977
535 4.55209
540 6.18971
545 6.40561
550 5.7106
555 4.09434
560 5.52994
565 6.47661
570 6.38201
575 4.99653
580 6.26737
585 6.98054
590 5.18338
595 5.73929
600 0.65311
Ex : 208
200 5.31925
205 4.85224
210 6.23381
215 7.38198
220 4.95186
225 3.53981
230 6.39747
235 3.74677
240 5.53653
245 7.42283
250 6.6881
255 6.2893
260 6.42626
265 5.04836
270 7.69709
275 7.77767
280 4.77238
285 5.4914
290 5.08532
295 4.1022
300 6.1887
305 7.88695
310 4.86103
315 4.02129
320 6.83656
325 6.06607
330 7.11299
335 4.93486
340 4.06894
345 4.58617
350 3.64356
355 5.57391
360 8.00331
365 4.88194
370 3.69039
375 7.57775
380 8.27063
385 6.1428
390 5.60604
395 7.34602
400 7.41799
405 5.21555
410 6.44712
415 7.15343
420 6.4306
425 4.4829
430 6.65145
435 5.2193
440 5.55011
445 5.10924
450 4.45803
455 10.9654
460 7.53713
465 6.38492
470 7.1838
475 8.92365
480 6.03148
485 7.10934
490 5.58423
495 6.78776
500 6.52446
505 10.7656
510 5.9947
515 4.95703
520 5.87709
525 5.78724
530 5.76396
535 9.07067
540 8.70859
545 6.89903
550 6.8772
555 8.45721
560 5.94624
565 6.14296
570 8.74101
575 6.41721
580 6.41167
585 8.16874
590 6.73619
595 5.55972
600 7.36782
Ex : 213
200 3.4955
205 4.39421
210 5.39589
215 4.38876
220 5.16005
225 6.47809
230 6.55084
235 8.92749
240 4.86673
245 4.73163
250 3.48595
255 4.33127
260 6.58864
265 7.17805
270 7.81588
275 5.37509
280 5.46201
285 4.02871
290 6.70272
295 5.16183
300 6.58279
305 6.18505
310 4.55328
315 5.47264
320 7.05791
325 5.44637
330 4.21793
335 7.04881
340 5.82252
345 7.92701
350 3.96129
355 5.43321
360 8.21309
365 5.07298
370 5.59361
375 4.65536
380 5.11343
385 6.8294
390 6.07387
395 6.13622
400 4.50175
405 6.8843
410 6.42178
415 6.8335
420 6.85323
425 5.21089
430 6.76517
435 8.41603
440 4.97242
445 5.29957
450 6.05431
455 4.84919
460 4.33583
465 5.84345
470 4.36714
475 4.81416
480 6.24711
485 4.84124
490 4.46463
495 8.7156
500 6.99734
505 8.48377
510 7.05016
515 6.63646
520 6.81557
525 5.69569
530 5.79063
535 5.47159
540 5.62145
545 4.66044
550 8.1442
555 6.15177
560 5.31152
565 5.73116
570 6.43321
575 5.69049
580 7.43335
585 8.58786
590 7.0965
595 4.95138
600 10.4889
Ex : 218
200 6.53744
205 5.27119
210 4.2507
215 6.69113
220 5.96482
225 4.08052
230 8.10521
235 5.47125
240 4.47126
245 4.16992
250 4.89745
255 9.96092
260 6.17271
265 4.96858
270 5.95019
275 4.45879
280 3.0818
285 6.86366
290 7.18142
295 5.16364
300 4.63764
305 6.49166
310 5.0347
315 6.81278
320 6.47583
325 5.22949
330 4.36146
335 5.19406
340 8.56276
345 3.83231
350 8.26357
355 6.26163
360 7.89203
365 8.66848
370 6.42155
375 4.83435
380 4.67938
385 10.6272
390 5.84486
395 8.29472
400 6.3474
405 7.19246
410 5.44422
415 5.13837
420 8.02565
425 5.47149
430 4.56221
435 6.61231
440 6.4725
445 6.75258
450 6.98009
455 5.28863
460 7.05784
465 7.64846
470 6.08029
475 5.54992
480 6.45574
485 8.57447
490 6.90373
495 7.05116
500 10.9165
505 8.36426
510 6.11527
515 6.64257
520 8.21588
525 4.27494
530 4.56477
535 5.54399
540 7.93338
545 4.55234
550 6.93981
555 6.35333
560 8.18398
565 5.39455
570 5.40323
575 4.75601
580 5.94618
585 5.00198
590 5.53274
595 7.89392
600 11.7543
Ex : 223
200 5.29148
205 4.41868
210 3.54289
215 4.97328
220 5.68796
225 5.66395
230 3.20058
235 5.73136
240 5.56893
245 6.51284
250 5.68776
255 7.35175
260 4.20577
265 6.66949
270 9.80612
275 5.89405
280 4.48218
285 5.25671
290 5.85403
295 8.37454
300 5.1924
305 4.59875
310 5.1243
315 5.9366
320 6.74297
325 6.77382
330 4.98821
335 3.60436
340 6.97757
345 4.94758
350 5.86028
355 4.24762
360 4.7594
365 7.36256
370 7.93944
375 7.99311
380 4.54663
385 2.45233
390 4.48853
395 4.45533
400 5.05462
405 6.98472
410 6.65496
415 7.27574
420 7.61934
425 6.54847
430 7.10274
435 6.10966
440 4.30307
445 7.19774
450 5.52894
455 6.47891
460 5.37562
465 6.21626
470 10.1414
475 10.7426
480 6.50716
485 4.1227
490 7.57489
495 8.32734
500 7.09252
505 4.38011
510 6.60817
515 7.61264
520 4.37154
525 6.40288
530 5.10523
535 5.59479
540 7.27729
545 5.1337
550 5.57991
555 6.02405
560 5.58917
565 7.56927
570 4.5007
575 4.75601
580 4.51302
585 6.41652
590 4.77449
595 4.39638
600 2.62718
Ex : 228
200 6.51556
205 4.5199
210 5.53617
215 3.9945
220 5.12542
225 6.78668
230 4.63831
235 7.68621
240 4.57609
245 6.4606
250 5.10291
255 4.77138
260 7.67129
265 6.4423
270 4.08058
275 4.3293
280 6.17121
285 5.53286
290 6.88517
295 5.93317
300 4.05119
305 4.63938
310 5.46482
315 4.97268
320 6.20093
325 6.5498
330 6.78694
335 5.85736
340 3.73801
345 5.75023
350 4.0249
355 4.94117
360 6.44976
365 7.55034
370 5.95869
375 5.25425
380 5.12361
385 5.02871
390 4.65614
395 9.03741
400 6.05684
405 5.16192
410 3.55373
415 6.21352
420 6.51964
425 7.35404
430 6.20552
435 6.81378
440 5.26917
445 4.97284
450 5.45392
455 6.84376
460 4.85164
465 4.40746
470 5.63621
475 9.58184
480 6.36989
485 6.64702
490 6.65961
495 5.54652
500 7.56512
505 9.72697
510 5.7478
515 6.48316
520 4.8909
525 4.5426
530 5.85254
535 7.26329
540 6.54386
545 6.23989
550 5.22549
555 5.82324
560 6.42299
565 4.62495
570 5.56347
575 3.72355
580 6.88711
585 4.41151
590 5.63814
595 3.52275
600 2.46868
Ex : 233
200 4.62172
205 4.12839
210 4.53126
215 4.7578
220 6.49583
225 3.09759
230 5.17301
235 5.44257
240 4.98274
245 3.28866
250 6.65056
255 6.32777
260 5.25514
265 4.40658
270 4.30401
275 3.36725
280 4.1187
285 5.84817
290 3.92748
295 7.17524
300 4.81551
305 7.48458
310 5.51344
315 5.64175
320 6.77368
325 4.49287
330 2.93572
335 5.72191
340 9.3143
345 5.09306
350 6.1405
355 5.9061
360 4.64214
365 5.7864
370 3.84467
375 3.8303
380 4.09909
385 4.97901
390 7.23143
395 4.30098
400 4.4668
405 8.36886
410 3.91249
415 5.61351
420 4.56289
425 6.23791
430 7.73702
435 6.95675
440 6.36569
445 8.10715
450 5.21065
455 4.52129
460 5.70974
465 6.14848
470 4.16328
475 4.76486
480 5.42539
485 5.49877
490 4.96923
495 5.16061
500 6.95685
505 6.91583
510 4.72895
515 5.46352
520 5.8232
525 5.20538
530 4.51645
535 4.81059
540 6.7218
545 5.40467
550 3.55311
555 4.97771
560 3.60026
565 4.85131
570 5.29307
575 3.63658
580 5.24699
585 5.49231
590 3.90432
595 5.0401
600 4.70916
Ex : 238
200 6.97378
205 6.20077
210 4.60629
215 4.35865
220 5.08783
225 3.34916
230 6.288
235 5.07618
240 3.03276
245 5.01527
250 4.97106
255 6.4193
260 4.43881
265 4.73163
270 4.07018
275 6.79887
280 4.63167
285 5.62774
290 5.48674
295 5.02195
300 7.13273
305 5.76098
310 4.8967
315 4.59363
320 5.05861
325 3.679
330 4.69467
335 7.12413
340 5.20703
345 6.1491
350 4.82059
355 5.86914
360 4.1838
365 4.55897
370 3.85469
375 5.2746
380 5.12972
385 5.90445
390 5.14305
395 5.02956
400 3.91949
405 4.48473
410 4.49661
415 4.89941
420 5.1202
425 5.81659
430 4.80092
435 7.37511
440 7.1363
445 9.25945
450 4.16518
455 4.60058
460 6.16423
465 4.95003
470 7.69042
475 7.13395
480 4.54112
485 6.43367
490 3.9038
495 4.29672
500 5.42538
505 4.23468
510 4.00015
515 6.90128
520 6.18282
525 4.94253
530 4.50112
535 5.57669
540 6.55378
545 5.11327
550 5.67186
555 4.04753
560 4.75293
565 4.43558
570 8.38138
575 5.33067
580 4.52149
585 4.29727
590 4.84529
595 4.70503
600 4.78919
Ex : 243
200 4.86229
205 5.54008
210 3.1761
215 4.42935
220 3.53759
225 4.19814
230 3.38699
235 7.28787
240 4.76734
245 4.25752
250 7.21905
255 4.11866
260 2.4051
265 2.3368
270 4.63825
275 4.04108
280 3.0503
285 3.78115
290 2.66018
295 3.81536
300 4.77282
305 5.31927
310 3.90296
315 3.26985
320 4.06842
325 3.96477
330 3.86981
335 3.44856
340 3.10661
345 4.49195
350 3.95555
355 4.24062
360 5.23717
365 3.80846
370 3.98121
375 4.19639
380 6.08824
385 4.81644
390 4.2191
395 3.24267
400 5.57545
405 4.05714
410 3.66024
415 4.1275
420 3.1634
425 5.1048
430 3.68262
435 2.85167
440 3.14855
445 3.13135
450 4.91526
455 4.41372
460 6.62048
465 4.48493
470 4.1581
475 4.22487
480 5.65176
485 3.55539
490 4.19428
495 4.53235
500 5.11791
505 3.98554
510 7.30805
515 3.89143
520 4.2312
525 4.66733
530 5.01054
535 4.74285
540 4.20191
545 4.67964
550 4.8801
555 6.56995
560 5.65425
565 4.67521
570 3.56712
575 5.63226
580 5.32981
585 4.16046
590 2.63065
595 3.97535
600 6.0228
Ex : 248
200 4.81481
205 4.80219
210 5.91462
215 4.00799
220 4.99664
225 4.6202
230 3.98556
235 2.49231
240 3.92971
245 3.04806
250 2.59898
255 6.10697
260 4.23976
265 2.60165
270 3.10363
275 4.2629
280 3.22011
285 3.70827
290 2.51238
295 5.34293
300 2.47545
305 3.6063
310 3.19595
315 2.70264
320 3.88528
325 5.22559
330 3.87107
335 4.08324
340 3.2934
345 4.43803
350 5.29766
355 4.21152
360 3.67664
365 2.9147
370 2.95525
375 3.76108
380 4.77168
385 3.1521
390 3.88053
395 4.40467
400 5.28261
405 5.2012
410 4.45685
415 2.17517
420 3.7172
425 3.11927
430 3.25322
435 3.6051
440 3.64288
445 4.13917
450 3.80821
455 4.00788
460 5.34027
465 4.10707
470 3.59363
475 3.27247
480 5.03822
485 4.96559
490 6.17351
495 3.52249
500 5.39365
505 5.18731
510 6.6387
515 3.08879
520 5.36408
525 4.51232
530 2.54318
535 4.93142
540 4.33316
545 4.87682
550 5.92432
555 4.09801
560 4.18235
565 5.19572
570 5.0427
575 3.93209
580 3.9221
585 3.38726
590 2.88675
595 4.8703
600 6.20377
Ex : 253
200 3.16114
205 3.39724
210 2.91469
215 3.29212
220 2.66078
225 2.84543
230 2.85613
235 4.86816
240 2.24239
245 2.58572
250 2.39681
255 3.38632
260 4.55836
265 3.59965
270 2.3955
275 4.20499
280 4.02779
285 3.05916
290 3.83604
295 3.05585
300 4.71926
305 3.80629
310 3.47404
315 2.4624
320 3.15456
325 3.47686
330 4.02415
335 4.76297
340 3.41896
345 3.16113
350 4.47284
355 2.6738
360 2.9128
365 3.29805
370 2.18519
375 4.28816
380 2.81189
385 2.1245
390 3.95476
395 3.87756
400 4.45772
405 5.00022
410 4.9224
415 4.31196
420 4.19059
425 3.81534
430 3.8621
435 2.12022
440 3.01733
445 3.94639
450 3.44591
455 4.20666
460 3.6848
465 4.14438
470 4.07733
475 4.45616
480 4.61882
485 3.80214
490 3.92535
495 4.21412
500 4.45578
505 3.74428
510 4.49702
515 3.01576
520 5.38088
525 2.27315
530 3.22735
535 2.75235
540 3.4073
545 3.73515
550 3.01989
555 2.96497
560 3.27268
565 2.66036
570 3.558
575 3.0635
580 2.89428
585 2.01467
590 2.67129
595 1.99719
600 4.15189
Ex : 258
200 2.17624
205 3.00473
210 3.24015
215 2.37088
220 2.69898
225 3.00245
230 2.29305
235 2.83129
240 3.69543
245 3.79763
250 2.42163
255 2.37132
260 2.55793
265 2.34288
270 2.84931
275 2.57128
280 2.01061
285 2.75981
290 3.25922
295 2.03101
300 2.51067
305 3.27382
310 2.6944
315 2.72609
320 2.78638
325 2.93654
330 1.91283
335 3.46054
340 2.9731
345 2.67259
350 1.87109
355 2.68506
360 2.85837
365 2.82324
370 2.51652
375 2.37641
380 3.24161
385 2.30147
390 2.87646
395 2.63076
400 2.66734
405 2.99989
410 2.43861
415 3.30234
420 2.41644
425 3.73257
430 2.2863
435 3.25715
440 3.54563
445 3.0036
450 3.18141
455 4.47545
460 2.80911
465 4.34884
470 3.54736
475 2.72578
480 3.32328
485 3.19266
490 3.2267
495 3.73267
500 2.69822
505 3.19714
510 3.57825
515 3.45318
520 3.84568
525 2.47501
530 2.42933
535 3.50513
540 3.37294
545 2.25722
550 2.11113
555 3.03027
560 3.4938
565 2.54728
570 2.71003
575 2.67691
580 3.89314
585 3.72475
590 2.50618
595 3.32208
600 4.14441
Ex : 263
200 1.94884
205 1.74361
210 1.98476
215 2.17244
220 2.56388
225 1.63312
230 1.90981
235 2.94572
240 2.16301
245 2.08715
250 1.91605
255 1.66527
260 2.02127
265 1.72566
270 1.72671
275 1.7155
280 1.91714
285 2.30117
290 2.66993
295 1.66083
300 2.0876
305 1.81475
310 2.59298
315 1.88523
320 1.89804
325 1.62668
330 1.6855
335 2.01383
340 2.58374
345 2.0397
350 3.21273
355 2.62941
360 2.56014
365 2.13759
370 2.41507
375 3.24031
380 2.32279
385 2.34473
390 1.7088
395 2.1753
400 3.71481
405 2.34956
410 1.97011
415 2.05614
420 3.19169
425 2.06605
430 2.07785
435 2.85714
440 2.46994
445 2.35676
450 3.0752
455 2.5253
460 3.63109
465 3.07606
470 1.61545
475 2.68002
480 2.96078
485 1.95741
490 2.20762
495 2.01946
500 2.1879
505 1.54344
510 2.29439
515 3.05151
520 3.4002
525 2.24519
530 1.24032
535 2.0307
540 2.74223
545 2.23674
550 1.6275
555 2.57016
560 2.25586
565 2.56387
570 1.48918
575 2.20564
580 1.65612
585 2.26132
590 1.41813
595 1.23649
600 0.860748
Ex : 268
200 1.83019
205 1.40335
210 1.77036
215 1.40972
220 1.10194
225 1.18928
230 2.05043
235 2.06167
240 2.36369
245 2.08843
250 1.46146
255 1.86348
260 1.98893
265 1.97681
270 2.13551
275 1.43465
280 1.4024
285 1.68657
290 1.62374
295 1.88361
300 1.57044
305 1.54295
310 1.28779
315 1.33329
320 1.83375
325 1.73787
330 1.34804
335 1.41055
340 1.82853
345 1.77632
350 1.81141
355 2.19816
360 2.01822
365 2.07041
370 3.09389
375 2.48161
380 2.84673
385 2.16305
390 1.67925
395 1.36553
400 2.55511
405 2.46948
410 1.89088
415 2.12619
420 2.10461
425 2.7282
430 2.49248
435 1.78193
440 1.81091
445 1.93462
450 1.32902
455 2.21358
460 1.98673
465 1.82879
470 1.81838
475 2.8743
480 2.5006
485 2.06464
490 3.33833
495 1.74967
500 2.4217
505 1.62535
510 1.88971
515 1.42593
520 1.75984
525 2.04661
530 2.6317
535 2.33273
540 2.02454
545 1.46466
550 1.70298
555 1.59393
560 1.35236
565 1.7425
570 1.27065
575 1.61574
580 1.76558
585 1.77627
590 1.6165
595 2.22617
600 3.66521
Ex : 273
200 1.0555
205 1.55628
210 1.17218
215 0.874926
220 1.32613
225 1.36599
230 1.55578
235 1.08398
240 1.34345
245 1.12563
250 0.86064
255 1.4811
260 1.15421
265 1.54712
270 1.1337
275 1.22468
280 1.28979
285 1.13354
290 1.23289
295 0.794465
300 1.43765
305 1.31494
310 1.8714
315 2.06683
320 1.65366
325 1.42778
330 1.14595
335 1.83054
340 1.66245
345 1.41497
350 1.85889
355 1.13737
360 2.20202
365 1.31186
370 1.90733
375 1.48978
380 2.14205
385 2.05234
390 1.69398
395 1.53593
400 1.92295
405 1.62695
410 1.31532
415 1.47854
420 1.48001
425 1.42733
430 1.40094
435 1.85738
440 1.76267
445 1.55155
450 1.0261
455 1.83699
460 1.60721
465 1.94628
470 1.4618
475 1.67672
480 1.80802
485 1.2762
490 1.38844
495 1.31985
500 1.46375
505 1.18318
510 1.42022
515 1.30476
520 1.86572
525 1.34086
530 1.43215
535 1.52182
540 1.82026
545 2.22414
550 1.83903
555 1.25155
560 1.0895
565 0.879595
570 1.53645
575 2.06887
580 1.17387
585 0.862079
590 1.1176
595 1.76661
600 1.01339
Ex : 278
200 0.753469
205 1.12674
210 1.24551
215 1.25302
220 1.00582
225 1.51713
230 1.05885
235 1.32635
240 0.969138
245 0.839836
250 0.779319
255 1.25966
260 1.27563
265 1.13065
270 1.24161
275 1.25052
280 1.27677
285 1.01958
290 0.545811
295 1.85297
300 1.18434
305 0.860856
310 0.90704
315 1.16562
320 0.963781
325 1.03889
330 1.36026
335 0.851042
340 1.3681
345 1.40473
350 1.0114
355 1.07287
360 1.33933
365 1.24609
370 1.13364
375 1.25313
380 1.51266
385 1.32531
390 1.32144
395 1.35345
400 1.0197
405 1.94036
410 1.14461
415 1.22406
420 1.14728
425 1.59481
430 1.31213
435 1.35007
440 1.54258
445 1.33419
450 1.46898
455 1.4301
460 1.33051
465 1.55587
470 1.62386
475 1.62033
480 1.7223
485 1.19232
490 1.51011
495 1.20847
500 1.75445
505 0.940369
510 0.973374
515 0.966792
520 1.05644
525 1.76252
530 1.13145
535 1.75062
540 1.54385
545 1.86457
550 1.91354
555 1.33889
560 1.00096
565 1.33615
570 1.20786
575 0.790171
580 1.44025
585 1.51883
590 1.70813
595 1.63307
600 0.827571
Ex : 283
200 0.962121
205 0.721817
210 1.09257
215 0.893442
220 0.628952
225 0.97207
230 0.726529
235 0.841316
240 0.816395
245 1.02545
250 0.67497
255 0.931626
260 0.929758
265 0.79693
270 1.17001
275 1.12763
280 1.167
285 0.642212
290 0.878609
295 0.719399
300 1.08482
305 1.33995
310 1.04119
315 0.935849
320 1.43239
325 0.814892
330 1.0471
335 0.902371
340 1.10825
345 1.29524
350 1.23806
355 0.864547
360 0.771946
365 0.881633
370 0.880087
375 1.14099
380 1.37987
385 1.01316
390 1.20544
395 1.39499
400 1.33912
405 1.17459
410 0.98771
415 1.82079
420 1.89893
425 1.31183
430 1.48731
435 1.30381
440 1.30669
445 1.61634
450 1.76161
455 1.17504
460 1.30752
465 1.27164
470 1.53211
475 1.05062
480 1.55956
485 1.02985
490 1.51085
495 1.40454
500 1.41003
505 1.19333
510 1.04386
515 1.38637
520 1.29064
525 1.00846
530 0.84722
535 0.849043
540 0.876378
545 1.10467
550 1.214
555 1.34329
560 1.20438
565 1.37911
570 1.08116
575 0.793723
580 0.771781
585 0.64802
590 1.0301
595 1.16761
600 1.46217
Ex : 288
200 0.959172
205 0.610852
210 0.795292
215 0.682324
220 0.660525
225 0.662515
230 0.632076
235 0.5258
240 1.12431
245 1.1102
250 0.642003
255 0.839518
260 0.636563
265 0.867657
270 0.808624
275 0.593185
280 1.29831
285 1.00131
290 0.696988
295 0.566183
300 0.613969
305 0.785904
310 0.909648
315 0.979359
320 0.789223
325 0.742857
330 0.707499
335 0.969285
340 0.864793
345 0.900337
350 1.05396
355 0.838058
360 0.835325
365 0.780476
370 1.08914
375 0.918574
380 1.18664
385 0.81036
390 1.23604
395 1.00486
400 1.3049
405 1.05711
410 1.20063
415 1.22377
420 0.974486
425 1.30364
430 1.27251
435 1.22297
440 1.39732
445 0.861401
450 1.12443
455 1.33581
460 1.04854
465 1.00707
470 1.02556
475 1.32775
480 1.00392
485 0.718143
490 1.18973
495 1.04235
500 1.04187
505 1.05103
510 0.791526
515 0.505689
520 0.88281
525 1.1089
530 0.646872
535 1.09917
540 0.757206
545 0.771265
550 0.62115
555 1.11675
560 1.32968
565 1.06059
570 1.32131
575 1.67736
580 0.915534
585 0.860384
590 0.774034
595 0.942654
600 0.388262
Ex : 293
200 0.676862
205 0.846366
210 0.426493
215 0.506043
220 0.700762
225 0.706746
230 0.68504
235 0.509593
240 0.442115
245 0.436402
250 0.513015
255 0.600908
260 1.3167
265 0.83085
270 0.747657
275 0.886821
280 0.889496
285 0.63153
290 0.698801
295 0.705777
300 0.51168
305 0.583041
310 0.654808
315 0.529306
320 0.630311
325 0.920769
330 0.935987
335 0.61197
340 0.569753
345 0.739054
350 0.539989
355 0.660628
360 1.03281
365 1.40306
370 1.45881
375 1.06719
380 0.850839
385 1.05869
390 1.1467
395 0.900696
400 1.23807
405 0.904902
410 0.984304
415 1.08941
420 1.06021
425 1.07264
430 1.29561
435 1.15098
440 1.24787
445 1.19155
450 1.05883
455 0.894707
460 0.853199
465 1.00848
470 0.814302
475 0.853591
480 1.15385
485 0.929992
490 0.79628
495 0.683617
500 0.699333
505 0.654535
510 0.597547
515 1.00987
520 0.855035
525 0.615687
530 0.739756
535 0.882875
540 0.676034
545 0.579863
550 0.770881
555 0.894731
560 0.514005
565 0.690991
570 0.733519
575 0.906974
580 1.43671
585 1.32012
590 0.764601
595 0.921704
600 0.122972
Ex : 298
200 0.70563
205 0.570303
210 0.739242
215 0.470309
220 0.358805
225 0.65031
230 0.59879
235 0.331845
240 1.03546
245 0.58846
250 0.595344
255 0.597552
260 0.511101
265 0.854444
270 0.739999
275 0.790207
280 0.561902
285 0.819731
290 0.716496
295 0.813186
300 0.693212
305 0.475938
310 0.446704
315 0.84834
320 0.437238
325 0.626987
330 1.04155
335 0.62394
340 0.715966
345 0.749747
350 0.932178
355 0.836121
360 0.696829
365 0.814469
370 0.899405
375 0.804134
380 0.650751
385 0.841511
390 0.832725
395 0.826261
400 1.10022
405 0.789088
410 0.64882
415 1.28863
420 1.23762
425 0.8731
430 1.30063
435 0.917867
440 1.13503
445 0.929047
450 0.944718
455 1.11835
460 1.19186
465 0.961192
470 0.739193
475 0.858448
480 0.87407
485 0.909622
490 1.2818
495 0.924754
500 0.684674
505 0.867135
510 1.34334
515 0.714459
520 0.846748
525 0.749975
530 0.527484
535 0.926358
540 0.666091
545 0.65478
550 0.453874
555 0.669504
560 0.7362
565 0.63521
570 0.544773
575 0.755661
580 0.3842
585 0.767042
590 1.08739
595 1.14963
600 1.63421
Ex : 303
200 0.524431
205 0.474081
210 0.422232
215 0.301345
220 0.432008
225 0.717424
230 0.474173
235 0.509091
240 0.739139
245 0.511037
250 0.639517
255 0.388304
260 0.517854
265 0.357318
270 0.511153
275 0.663233
280 0.597885
285 0.570765
290 0.346486
295 1.02099
300 0.741602
305 0.612776
310 0.402225
315 0.558243
320 0.662195
325 0.823571
330 0.540701
335 0.674334
340 0.671998
345 0.452256
350 0.493072
355 0.508866
360 0.741847
365 0.717707
370 0.847966
375 0.711841
380 0.78412
385 0.883597
390 0.825018
395 1.04462
400 0.776175
405 0.819461
410 0.858762
415 1.08427
420 0.960504
425 0.833984
430 0.961894
435 0.862253
440 0.854362
445 1.05969
450 0.883469
455 0.930889
460 1.2112
465 0.805559
470 1.01263
475 0.894049
480 0.918287
485 0.745362
490 0.652643
495 0.559172
500 0.592062
505 0.576214
510 0.662233
515 0.660803
520 0.675776
525 0.581484
530 0.627196
535 0.433211
540 0.527982
545 0.552455
550 0.493661
555 0.647534
560 0.536357
565 0.418726
570 0.411981
575 0.424011
580 0.578916
585 0.420427
590 0.44772
595 0.916187
600 0.575054
Ex : 308
200 0.279208
205 0.275856
210 0.55943
215 0.46525
220 0.439102
225 0.374498
230 0.453231
235 0.434195
240 0.508241
245 0.549779
250 0.588317
255 0.630736
260 0.457452
265 0.35698
270 0.47992
275 0.555879
280 0.549967
285 0.738921
290 0.502719
295 0.42495
300 0.510458
305 0.808111
310 0.748069
315 0.464929
320 0.49279
325 0.39139
330 0.787209
335 0.802595
340 0.573674
345 0.440962
350 0.60692
355 0.530325
360 0.674815
365 0.710215
370 0.882553
375 0.765304
380 0.917229
385 0.827988
390 0.802538
395 1.07691
400 1.17409
405 1.06009
410 0.931771
415 0.96302
420 0.877925
425 0.941784
430 1.23232
435 0.982522
440 0.795509
445 0.875871
450 0.807223
455 0.908682
460 0.797816
465 0.911511
470 0.753097
475 0.749326
480 0.716515
485 0.85059
490 0.61394
495 0.566981
500 0.687568
505 0.476451
510 0.611052
515 0.486555
520 0.48316
525 0.530949
530 0.394408
535 0.466577
540 0.499424
545 0.47059
550 0.476085
555 0.496254
560 0.37707
565 0.747109
570 0.44319
575 0.517582
580 0.311515
585 0.44485
590 0.324763
595 0.468599
600 0.280864
Ex : 313
200 0.220753
205 0.489841
210 0.474515
215 0.304012
220 0.477697
225 0.335245
230 0.228274
235 0.331316
240 0.443644
245 0.407788
250 0.547738
255 0.416554
260 0.300603
265 0.243425
270 0.300856
275 0.256044
280 0.358085
285 0.468481
290 0.306586
295 0.345692
300 0.368908
305 0.678335
310 0.833315
315 0.553764
320 0.414549
325 0.496098
330 0.656761
335 0.608622
340 0.665297
345 0.731031
350 0.59007
355 0.684155
360 0.945005
365 0.89462
370 1.03437
375 1.07399
380 1.21043
385 1.50032
390 1.53972
395 1.29016
400 1.27816
405 1.58618
410 1.61913
415 1.54918
420 1.64318
425 1.57241
430 1.53012
435 1.57049
440 1.31717
445 1.19837
450 1.55818
455 1.09869
460 1.291
465 1.05642
470 1.18505
475 1.46984
480 1.11494
485 0.790756
490 0.789104
495 0.718005
500 0.746423
505 0.728412
510 0.672922
515 0.805754
520 0.823929
525 0.477705
530 0.588983
535 0.683044
540 0.539849
545 0.524804
550 0.545047
555 0.672248
560 0.425093
565 0.342659
570 0.548535
575 0.537617
580 0.374226
585 0.417459
590 0.473659
595 0.334429
600 0.0380568
Ex : 318
200 0.273381
205 0.273703
210 0.329246
215 0.300148
220 0.307308
225 0.278918
230 0.173616
235 0.295286
240 0.311231
245 0.377169
250 0.51002
255 0.372609
260 0.328898
265 0.254335
270 0.366696
275 0.481843
280 0.447109
285 0.365642
290 0.321896
295 0.292783
300 0.332228
305 0.436563
310 0.674679
315 1.1254
320 0.664296
325 0.555879
330 0.888208
335 1.19173
340 1.53191
345 1.97879
350 2.74805
355 4.02097
360 4.42559
365 5.45345
370 6.89156
375 7.75297
380 9.02914
385 9.85054
390 10.8769
395 11.4208
400 11.9099
405 12.6588
410 12.2901
415 12.8696
420 12.0476
425 11.5793
430 11.3713
435 11.4594
440 10.9013
445 10.2758
450 10.1284
455 9.29618
460 8.36623
465 7.98736
470 7.47951
475 6.79553
480 6.17463
485 5.40988
490 4.71835
495 3.81132
500 3.96239
505 3.62649
510 3.33608
515 2.66387
520 2.05477
525 2.08256
530 1.68284
535 1.55787
540 1.22202
545 1.32666
550 1.01591
555 0.76775
560 0.888721
565 0.656076
570 0.589303
575 0.660316
580 0.562059
585 0.535802
590 0.414854
595 0.406512
600 0.112963
Ex : 323
200 0.332643
205 0.378292
210 0.297749
215 0.302547
220 0.301269
225 0.299651
230 0.27515
235 0.287407
240 0.275428
245 0.351714
250 0.301379
255 0.338922
260 0.316754
265 0.39681
270 0.251302
275 0.225713
280 0.378687
285 0.37485
290 0.292023
295 0.388404
300 0.205178
305 0.277634
310 0.394057
315 5.23307
320 18.8657
325 8.45082
330 2.76336
335 3.54163
340 4.80567
345 6.52231
350 9.9928
355 12.7399
360 14.959
365 18.3487
370 21.9322
375 24.9149
380 28.8793
385 31.6152
390 34.2955
395 35.863
400 38.1559
405 39.9262
410 39.2886
415 40.7023
420 39.0708
425 38.4213
430 37.3899
435 37.5804
440 35.4577
445 33.9077
450 31.899
455 29.8055
460 27.9619
465 25.9109
470 23.9448
475 22.5534
480 20.4265
485 17.4896
490 16.3776
495 14.5108
500 12.8824
505 11.0936
510 9.99391
515 8.99755
520 7.15653
525 6.92354
530 5.82938
535 5.04291
540 4.56836
545 3.68296
550 3.14311
555 2.57349
560 2.37527
565 2.22513
570 1.62802
575 1.31639
580 1.05987
585 0.771898
590 0.760856
595 0.551541
600 1.25281
Ex : 328
200 0.268308
205 0.350992
210 0.25165
215 0.267607
220 0.287229
225 0.287791
230 0.297171
235 0.349456
240 0.3087
245 0.295853
250 0.207786
255 0.242816
260 0.274336
265 0.399621
270 0.255667
275 0.216485
280 0.201653
285 0.341508
290 0.242545
295 0.290678
300 0.312119
305 0.398242
310 0.288634
315 1.28502
320 41.0912
325 94.4376
330 31.1622
335 7.06276
340 5.77204
345 7.15652
350 9.55938
355 12.8824
360 17.8312
365 20.1006
370 22.1357
375 25.1988
380 28.2285
385 31.1928
390 34.4883
395 36.8032
400 36.7403
405 37.9757
410 38.8325
415 38.7508
420 39.8604
425 36.7686
430 37.1722
435 36.5109
440 35.647
445 32.9813
450 32.6578
455 30.0579
460 28.5684
465 26.5732
470 24.3822
475 21.5429
480 20.3482
485 19.4145
490 17.1393
495 15.2007
500 13.5979
505 11.9875
510 10.9328
515 9.50915
520 8.9174
525 7.15613
530 6.27134
535 5.35412
540 5.35157
545 4.38841
550 3.7626
555 3.29406
560 3.02903
565 2.32647
570 1.94503
575 1.61584
580 1.44374
585 1.08669
590 1.01283
595 0.913116
600 0.503877
Ex : 333
200 0.326588
205 0.263339
210 0.297098
215 0.290837
220 0.272761
225 0.271095
230 0.239737
235 0.238048
240 0.287906
245 0.263048
250 0.260195
255 0.311965
260 0.316157
265 0.209358
270 0.319281
275 0.181143
280 0.250526
285 0.323516
290 0.322028
295 0.402974
300 0.502217
305 0.386495
310 0.309977
315 0.352146
320 6.669
325 116.01
330 203.33
335 54.5955
340 9.76717
345 6.36838
350 6.10168
355 7.06848
360 10.4432
365 14.828
370 15.5663
375 16.2161
380 16.3117
385 17.256
390 18.5329
395 19.8835
400 20.2685
405 21.1018
410 22.0066
415 22.4582
420 22.7202
425 21.7736
430 20.8424
435 21.1708
440 21.2676
445 20.7521
450 19.5365
455 19.381
460 18.757
465 18.0813
470 16.6722
475 15.6162
480 14.6637
485 13.2569
490 12.4039
495 11.4669
500 10.1699
505 9.69939
510 8.45344
515 8.11934
520 7.16503
525 6.3561
530 6.06742
535 5.47834
540 4.80556
545 4.19653
550 3.7143
555 3.20711
560 2.86511
565 2.54812
570 2.00715
575 1.62971
580 1.47886
585 1.2082
590 0.911923
595 0.78698
600 0.543124
Ex : 338
200 0.244898
205 0.256008
210 0.247152
215 0.210325
220 0.222434
225 0.179054
230 0.291552
235 0.294612
240 0.306097
245 0.275472
250 0.239016
255 0.297757
260 0.216499
265 0.328104
270 0.271952
275 0.236755
280 0.165954
285 0.211485
290 0.211853
295 0.18434
300 0.33515
305 0.355276
310 0.384232
315 0.34912
320 0.449937
325 12.554
330 183.425
335 266.948
340 67.8292
345 10.9004
350 4.87809
355 4.34042
360 4.25448
365 5.92135
370 10.5017
375 11.547
380 10.3812
385 9.87012
390 9.65823
395 10.243
400 10.7473
405 12.0786
410 13.0002
415 13.2573
420 13.7471
425 13.7708
430 13.8973
435 13.5676
440 13.934
445 14.1767
450 13.4495
455 13.7566
460 14.172
465 13.5311
470 13.1394
475 13.2044
480 12.4469
485 12.374
490 11.4779
495 10.5861
500 9.77267
505 9.6442
510 8.62126
515 7.97481
520 7.19933
525 6.65866
530 6.11153
535 5.59379
540 4.85156
545 4.70668
550 4.01006
555 3.38993
560 3.24452
565 2.74466
570 2.136
575 1.75514
580 1.51272
585 1.27767
590 0.907573
595 0.902287
600 1.36134
Ex : 343
200 0.396707
205 0.327801
210 0.227795
215 0.218113
220 0.23423
225 0.233492
230 0.255599
235 0.281267
240 0.297686
245 0.24025
250 0.25469
255 0.216109
260 0.210387
265 0.262578
270 0.367462
275 0.288418
280 0.22255
285 0.22966
290 0.303864
295 0.283305
300 0.311682
305 0.242508
310 0.223076
315 0.279051
320 0.329693
325 0.489709
330 13.8237
335 203.928
340 299.582
345 74.2439
350 10.8095
355 4.09839
360 3.42458
365 2.82162
370 4.20334
375 8.32188
380 9.68764
385 8.44605
390 7.15262
395 7.21656
400 7.76633
405 8.73403
410 10.3117
415 11.086
420 11.8733
425 11.8238
430 11.8698
435 12.5503
440 13.1987
445 13.8154
450 13.6983
455 13.4768
460 13.4227
465 14.0223
470 13.9885
475 14.2253
480 13.859
485 13.2229
490 12.5611
495 11.9142
500 11.8382
505 11.1862
510 9.75957
515 9.02831
520 8.27697
525 7.49417
530 6.42112
535 6.40291
540 5.67359
545 5.0369
550 4.49834
555 4.21968
560 3.83439
565 3.40921
570 2.68953
575 1.92336
580 1.72663
585 1.42673
590 1.11244
595 1.10324
600 0.895904
Ex : 348
200 0.209724
205 0.260621
210 0.314606
215 0.183263
220 0.182772
225 0.197677
230 0.252237
235 0.210379
240 0.254358
245 0.200988
250 0.23608
255 0.211269
260 0.24808
265 0.202034
270 0.237746
275 0.172995
280 0.288521
285 0.258431
290 0.141584
295 0.189542
300 0.270908
305 0.235407
310 0.207432
315 0.284261
320 0.271929
325 0.351944
330 0.70467
335 13.9211
340 206.233
345 312.258
350 83.0095
355 11.8326
360 3.59462
365 2.85207
370 2.51543
375 3.11054
380 6.4034
385 9.01305
390 7.85088
395 6.96534
400 6.77808
405 8.12075
410 9.89957
415 11.1559
420 11.9176
425 11.7057
430 12.7102
435 13.6625
440 14.9359
445 15.0121
450 15.1565
455 14.7425
460 15.8181
465 16.3825
470 16.6233
475 16.0059
480 15.3643
485 15.1652
490 15.0915
495 14.5354
500 14.2019
505 12.9439
510 12.0178
515 11.4063
520 10.7003
525 9.23861
530 8.50756
535 7.44495
540 7.09602
545 6.3886
550 6.03524
555 5.00444
560 4.33831
565 3.74785
570 3.26219
575 2.49627
580 1.89201
585 1.54636
590 1.33112
595 1.05382
600 1.52034
Ex : 353
200 0.234398
205 0.285798
210 0.188464
215 0.193382
220 0.177438
225 0.179915
230 0.26539
235 0.232775
240 0.193436
245 0.239246
250 0.174685
255 0.255359
260 0.204298
265 0.150073
270 0.231381
275 0.202164
280 0.235882
285 0.196911
290 0.231338
295 0.21318
300 0.223823
305 0.208731
310 0.238305
315 0.231238
320 0.193817
325 0.298527
330 0.31865
335 0.497873
340 15.1449
345 214.964
350 309.116
355 78.9244
360 10.9935
365 3.44969
370 2.84673
375 2.74641
380 2.89986
385 5.55681
390 8.78641
395 8.12742
400 7.24444
405 7.80079
410 9.21659
415 11.0751
420 11.1262
425 11.2277
430 12.0036
435 13.3397
440 14.4834
445 15.0305
450 15.7497
455 16.0868
460 16.7045
465 17.4051
470 17.6623
475 17.9709
480 17.8724
485 17.7939
490 17.6923
495 16.8848
500 16.772
505 15.0993
510 14.9363
515 13.6383
520 11.8917
525 10.9449
530 10.27
535 9.45207
540 8.25148
545 7.54256
550 6.47953
555 6.14273
560 5.23816
565 4.50974
570 3.64209
575 3.11272
580 2.41429
585 1.86519
590 1.41887
595 1.20259
600 0.480378
Ex : 358
200 0.180076
205 0.121429
210 0.178532
215 0.172721
220 0.147653
225 0.222972
230 0.179447
235 0.206789
240 0.219991
245 0.205971
250 0.192748
255 0.240714
260 0.244493
265 0.186686
270 0.288999
275 0.133579
280 0.152505
285 0.163485
290 0.211722
295 0.228159
300 0.202306
305 0.141033
310 0.253675
315 0.189893
320 0.207038
325 0.299303
330 0.255778
335 0.264947
340 0.557489
345 14.2569
350 205.666
355 314.072
360 80.9881
365 11.0054
370 3.28922
375 3.16155
380 2.87359
385 3.07109
390 5.01702
395 8.78717
400 9.33519
405 9.48163
410 10.434
415 11.5792
420 11.7767
425 12.2058
430 12.9091
435 14.4509
440 15.9171
445 16.8717
450 17.5341
455 17.7457
460 18.1228
465 18.9361
470 19.9377
475 19.95
480 19.8212
485 19.6082
490 19.568
495 19.2872
500 17.9556
505 17.4164
510 16.4175
515 15.4008
520 13.8032
525 12.6729
530 10.9914
535 10.3743
540 9.15002
545 8.52254
550 7.49674
555 6.59571
560 5.80409
565 5.12698
570 4.17508
575 3.32177
580 2.41131
585 1.88337
590 1.78406
595 1.29589
600 1.72661
Ex : 363
200 0.187245
205 0.183421
210 0.232628
215 0.245539
220 0.190256
225 0.216542
230 0.191721
235 0.190543
240 0.21708
245 0.203108
250 0.174449
255 0.190711
260 0.264761
265 0.28705
270 0.204918
275 0.185089
280 0.183798
285 0.21553
290 0.171112
295 0.193917
300 0.175442
305 0.215063
310 0.135512
315 0.251157
320 0.189499
325 0.19725
330 0.270792
335 0.436698
340 0.338759
345 0.618099
350 13.0967
355 198.564
360 313.247
365 85.035
370 11.4557
375 3.45663
380 3.46465
385 3.47685
390 3.5433
395 4.7678
400 8.82457
405 11.9668
410 13.1721
415 14.1331
420 13.5262
425 13.7939
430 15.1249
435 16.8869
440 18.3566
445 18.921
450 19.7802
455 20.604
460 20.9241
465 22.9027
470 23.108
475 23.416
480 23.4186
485 22.6829
490 22.8098
495 22.3699
500 21.1812
505 19.5808
510 18.3479
515 17.2668
520 15.7985
525 14.1556
530 13.0633
535 11.9671
540 10.6499
545 9.62656
550 8.70668
555 7.4909
560 6.76642
565 5.95425
570 4.84079
575 3.91079
580 3.1115
585 2.31744
590 1.75866
595 1.39401
600 2.31751
Ex : 368
200 0.186481
205 0.227979
210 0.163828
215 0.187342
220 0.139767
225 0.188296
230 0.153445
235 0.162001
240 0.226187
245 0.175348
250 0.166049
255 0.166808
260 0.200684
265 0.217576
270 0.216244
275 0.171425
280 0.173724
285 0.182011
290 0.167923
295 0.184041
300 0.136201
305 0.168817
310 0.138434
315 0.175836
320 0.194406
325 0.215359
330 0.281802
335 0.347871
340 0.268621
345 0.332629
350 0.459202
355 10.9363
360 190.413
365 308.643
370 85.1517
375 11.6933
380 3.53037
385 3.21106
390 3.26865
395 3.24213
400 4.69735
405 9.32609
410 14.2912
415 14.6111
420 13.5097
425 13.3667
430 14.2357
435 16.3389
440 17.5694
445 18.5991
450 19.5992
455 20.3814
460 21.7473
465 23.349
470 24.9051
475 25.5329
480 25.8799
485 26.1546
490 25.1175
495 25.1523
500 23.8787
505 23.4137
510 21.8372
515 20.1721
520 19.1066
525 17.0867
530 15.606
535 13.5818
540 12.2921
545 11.6393
550 10.0332
555 8.97636
560 7.72423
565 6.7408
570 5.602
575 4.40478
580 3.62786
585 2.81927
590 2.07156
595 1.62304
600 1.3663
Ex : 373
200 0.127095
205 0.135585
210 0.158638
215 0.169509
220 0.210462
225 0.178429
230 0.134738
235 0.136865
240 0.172236
245 0.22269
250 0.171006
255 0.172637
260 0.15943
265 0.15031
270 0.143521
275 0.185816
280 0.157648
285 0.146484
290 0.133002
295 0.184916
300 0.196599
305 0.197387
310 0.171059
315 0.254838
320 0.165893
325 0.191424
330 0.17775
335 0.209415
340 0.240995
345 0.287316
350 0.394392
355 0.51816
360 12.5284
365 199.929
370 333.572
375 93.9596
380 12.9996
385 3.86379
390 3.2478
395 3.20058
400 3.95149
405 6.01876
410 10.1073
415 14.3618
420 13.7995
425 12.504
430 13.0985
435 14.873
440 15.5654
445 17.6962
450 17.9095
455 20.0411
460 21.1177
465 24.4307
470 24.9714
475 26.1654
480 26.691
485 27.3317
490 26.9841
495 26.1199
500 26.0715
505 24.9562
510 23.2542
515 21.3215
520 20.2828
525 18.0111
530 16.5783
535 15.2448
540 13.693
545 12.3941
550 11.1233
555 9.8181
560 8.55233
565 7.56781
570 6.14308
575 5.1347
580 3.77858
585 3.03711
590 2.23433
595 1.92086
600 1.48624
Ex : 378
200 0.176378
205 0.202313
210 0.153318
215 0.120568
220 0.151871
225 0.160312
230 0.153819
235 0.158555
240 0.130678
245 0.0932072
250 0.117412
255 0.176151
260 0.22483
265 0.14871
270 0.112221
275 0.153339
280 0.190461
285 0.160875
290 0.196316
295 0.211796
300 0.270377
305 0.129342
310 0.201079
315 0.198437
320 0.175438
325 0.18047
330 0.201498
335 0.182021
340 0.205474
345 0.226832
350 0.32247
355 0.388237
360 0.542741
365 12.4164
370 257.298
375 533.052
380 123.173
385 16.9034
390 4.4846
395 3.9619
400 4.68165
405 6.22998
410 9.22806
415 11.9691
420 15.2786
425 15.0664
430 14.1601
435 15.5533
440 16.8754
445 17.9485
450 18.5646
455 19.7473
460 21.1677
465 23.2995
470 24.7938
475 25.9886
480 26.1821
485 26.0035
490 25.8686
495 25.6084
500 24.7932
505 24.0085
510 22.509
515 20.4583
520 19.0976
525 17.2759
530 15.9625
535 14.4424
540 12.8469
545 11.8488
550 10.5164
555 9.50042
560 8.17815
565 7.20139
570 5.81628
575 4.47679
580 3.73556
585 2.81528
590 2.30726
595 1.65642
600 2.15865
Ex : 383
200 0.132982
205 0.160658
210 0.16481
215 0.158484
220 0.13066
225 0.150346
230 0.142277
235 0.157071
240 0.140742
245 0.145134
250 0.148026
255 0.119665
260 0.211511
265 0.153205
270 0.15841
275 0.183432
280 0.213498
285 0.139851
290 0.139271
295 0.115114
300 0.153181
305 0.157832
310 0.168329
315 0.17383
320 0.181403
325 0.129717
330 0.202577
335 0.188666
340 0.215627
345 0.272108
350 0.343378
355 0.406221
360 0.461281
365 0.566108
370 11.9677
375 212.012
380 359.236
385 102.118
390 14.3711
395 4.42759
400 4.58538
405 7.05344
410 10.0797
415 11.7558
420 12.7903
425 15.4024
430 17.5818
435 18.0446
440 19.0542
445 19.5379
450 20.123
455 21.1209
460 23.0672
465 24.9289
470 26.2264
475 26.7109
480 26.9292
485 27.3583
490 27.1184
495 26.8803
500 25.4488
505 24.3048
510 23.0187
515 20.9345
520 19.1379
525 17.5151
530 15.9856
535 14.4393
540 12.7287
545 12.1143
550 10.5648
555 9.33123
560 8.19055
565 7.19862
570 5.9674
575 4.81172
580 3.75878
585 2.82298
590 2.25706
595 1.76033
600 1.29401
Ex : 388
200 0.199585
205 0.177943
210 0.143764
215 0.17971
220 0.138976
225 0.187586
230 0.160961
235 0.163696
240 0.145927
245 0.186656
250 0.164206
255 0.167443
260 0.125729
265 0.160694
270 0.196673
275 0.153247
280 0.1872
285 0.146052
290 0.149551
295 0.154504
300 0.141336
305 0.191749
310 0.181784
315 0.131936
320 0.192384
325 0.147745
330 0.206018
335 0.171428
340 0.208864
345 0.214639
350 0.236978
355 0.260834
360 0.310687
365 0.468756
370 0.708211
375 19.2622
380 421.454
385 518.586
390 124.279
395 16.9823
400 5.24446
405 6.83407
410 9.63035
415 11.269
420 11.471
425 11.5188
430 14.6651
435 18.3268
440 19.1294
445 19.723
450 19.488
455 20.5864
460 22.3704
465 24.0875
470 25.8368
475 27.0878
480 27.3315
485 27.5175
490 27.75
495 27.2064
500 26.0219
505 24.7273
510 23.3908
515 21.9367
520 20.2592
525 18.0728
530 17.1811
535 15.4363
540 13.9449
545 12.6983
550 11.2295
555 9.88707
560 8.57643
565 7.52296
570 6.24319
575 4.85095
580 4.06301
585 3.03804
590 2.58884
595 2.00246
600 0.904364
Ex : 393
200 0.220765
205 0.155363
210 0.189349
215 0.169785
220 0.165646
225 0.235542
230 0.20287
235 0.188966
240 0.196083
245 0.191399
250 0.14363
255 0.124736
260 0.180521
265 0.140356
270 0.138644
275 0.117088
280 0.155285
285 0.149963
290 0.140123
295 0.104436
300 0.155429
305 0.156891
310 0.147551
315 0.174331
320 0.15145
325 0.198631
330 0.143195
335 0.15436
340 0.170813
345 0.212087
350 0.224436
355 0.293414
360 0.251853
365 0.230192
370 0.305559
375 0.545147
380 11.9688
385 222.34
390 376.804
395 106.604
400 15.0913
405 5.76288
410 7.51832
415 9.26711
420 9.16973
425 9.21558
430 9.98695
435 13.2841
440 16.9734
445 17.6396
450 18.0806
455 19.4901
460 20.9048
465 23.093
470 24.9526
475 25.7254
480 27.2194
485 27.818
490 27.6083
495 26.9597
500 26.6344
505 25.7697
510 24.2066
515 22.6991
520 20.4721
525 19.2771
530 17.6686
535 16.2728
540 14.6072
545 13.2
550 11.6884
555 10.3638
560 9.26363
565 7.88554
570 6.74338
575 5.2555
580 4.22053
585 3.13996
590 2.60995
595 1.90307
600 1.11561
Ex : 398
200 0.150496
205 0.194945
210 0.169497
215 0.186297
220 0.153169
225 0.14252
230 0.133523
235 0.135931
240 0.101482
245 0.151506
250 0.153318
255 0.164544
260 0.178868
265 0.148013
270 0.133708
275 0.106255
280 0.166742
285 0.109607
290 0.155458
295 0.131356
300 0.120901
305 0.126089
310 0.136636
315 0.149176
320 0.145619
325 0.137513
330 0.155522
335 0.0952415
340 0.173528
345 0.161984
350 0.146573
355 0.164042
360 0.193976
365 0.207902
370 0.25791
375 0.345343
380 0.566404
385 12.0626
390 226.658
395 387.852
400 108.405
405 16.1799
410 7.85461
415 8.40718
420 8.53262
425 8.4757
430 9.2438
435 10.9471
440 13.5013
445 17.2504
450 18.6129
455 19.1906
460 20.7579
465 22.8525
470 25.0071
475 26.5827
480 27.4518
485 28.3163
490 27.6107
495 27.6731
500 27.5875
505 26.4389
510 24.5783
515 23.5046
520 21.8062
525 19.9804
530 18.2782
535 16.6329
540 14.9925
545 13.6997
550 12.137
555 10.7397
560 9.71601
565 8.16464
570 6.94747
575 5.25612
580 4.2873
585 3.23173
590 2.58724
595 2.05177
600 2.38911
Ex : 403
200 0.169858
205 0.228251
210 0.186664
215 0.257041
220 0.169694
225 0.116661
230 0.148139
235 0.153039
240 0.109177
245 0.171479
250 0.156412
255 0.133703
260 0.179218
265 0.15578
270 0.126166
275 0.136276
280 0.148376
285 0.163638
290 0.107886
295 0.117388
300 0.132462
305 0.156356
310 0.135241
315 0.158368
320 0.172519
325 0.181618
330 0.163113
335 0.145934
340 0.146504
345 0.159572
350 0.151144
355 0.181575
360 0.229293
365 0.176653
370 0.194996
375 0.303972
380 0.469529
385 0.653576
390 14.5868
395 247.28
400 420.203
405 118.322
410 19.8551
415 9.89185
420 9.09283
425 9.26195
430 9.63353
435 11.3472
440 13.3254
445 15.2498
450 18.8057
455 21.59
460 22.524
465 24.9624
470 25.5997
475 27.1938
480 27.9497
485 28.8381
490 28.8735
495 28.6064
500 28.8954
505 27.1983
510 25.6388
515 23.8
520 22.1918
525 20.8976
530 18.9331
535 17.2468
540 15.4901
545 13.9791
550 12.7383
555 11.3245
560 9.77005
565 8.3219
570 6.8251
575 5.55328
580 4.3436
585 3.34492
590 2.72916
595 2.00712
600 2.365
Ex : 408
200 0.157208
205 0.165771
210 0.117916
215 0.14473
220 0.138997
225 0.169012
230 0.190882
235 0.128318
240 0.12197
245 0.132554
250 0.153883
255 0.12587
260 0.18318
265 0.161726
270 0.176259
275 0.108409
280 0.168087
285 0.175833
290 0.143964
295 0.133354
300 0.129706
305 0.16467
310 0.161705
315 0.128155
320 0.161809
325 0.15842
330 0.182328
335 0.160395
340 0.164387
345 0.173942
350 0.144205
355 0.184652
360 0.19022
365 0.205922
370 0.200848
375 0.206454
380 0.315262
385 0.401475
390 0.68895
395 13.5799
400 245.23
405 415.267
410 116.564
415 20.3749
420 9.47988
425 8.43462
430 9.23633
435 10.4855
440 11.8962
445 13.9751
450 15.7781
455 19.354
460 23.6229
465 25.2109
470 26.0413
475 26.9848
480 27.8728
485 28.5636
490 28.1979
495 28.8659
500 28.2964
505 27.254
510 26.0033
515 23.8466
520 21.8808
525 20.6009
530 18.8469
535 17.0736
540 15.5115
545 13.8851
550 12.588
555 11.1538
560 9.58491
565 8.30285
570 6.77779
575 5.83461
580 4.39474
585 3.34098
590 2.66209
595 2.13064
600 1.61729
Ex : 413
200 0.130166
205 0.132954
210 0.141229
215 0.135161
220 0.152407
225 0.131812
230 0.17057
235 0.188851
240 0.169073
245 0.168594
250 0.167434
255 0.209132
260 0.17767
265 0.12865
270 0.187026
275 0.174927
280 0.149153
285 0.1941
290 0.131159
295 0.151483
300 0.125565
305 0.16746
310 0.171072
315 0.163675
320 0.187797
325 0.19837
330 0.132164
335 0.148156
340 0.135647
345 0.186003
350 0.162669
355 0.155565
360 0.188517
365 0.198765
370 0.198536
375 0.244962
380 0.270234
385 0.316948
390 0.442629
395 0.773889
400 15.2199
405 255.116
410 419.946
415 114.247
420 18.2248
425 7.10983
430 6.36566
435 7.65201
440 9.17497
445 10.3512
450 12.1271
455 14.5626
460 18.3639
465 23.1655
470 24.522
475 25.3218
480 26.291
485 26.6229
490 27.5061
495 27.2478
500 26.7131
505 25.9381
510 24.1754
515 22.7254
520 21.35
525 19.4275
530 17.9119
535 16.7521
540 15.1637
545 13.2709
550 12.3384
555 10.9003
560 9.53908
565 8.16828
570 6.71705
575 5.41432
580 4.28851
585 3.29856
590 2.61057
595 1.99433
600 2.16886
Ex : 418
200 0.158297
205 0.113403
210 0.125839
215 0.123734
220 0.146391
225 0.131128
230 0.111248
235 0.108133
240 0.135571
245 0.0932103
250 0.169783
255 0.151881
260 0.167249
265 0.132054
270 0.126172
275 0.154038
280 0.151501
285 0.142958
290 0.157371
295 0.162952
300 0.145245
305 0.180869
310 0.152279
315 0.16483
320 0.149828
325 0.144948
330 0.194033
335 0.164777
340 0.157728
345 0.130539
350 0.163355
355 0.171361
360 0.183654
365 0.218543
370 0.230632
375 0.186601
380 0.223647
385 0.252111
390 0.348183
395 0.421701
400 0.899541
405 16.0868
410 284.024
415 449.515
420 121.385
425 16.9489
430 5.16166
435 4.51334
440 5.83503
445 7.09986
450 8.85102
455 11.3177
460 14.2119
465 17.1245
470 21.2122
475 23.6561
480 24.2008
485 25.4288
490 24.999
495 25.1802
500 24.7195
505 24.5653
510 22.9162
515 21.6114
520 20.1625
525 18.4879
530 16.9062
535 15.8472
540 14.5466
545 12.9341
550 11.4803
555 10.3673
560 9.22923
565 7.70908
570 6.43789
575 5.16398
580 4.15885
585 3.18131
590 2.62589
595 1.98825
600 1.83488
Ex : 423
200 0.0986047
205 0.167004
210 0.134212
215 0.144575
220 0.158796
225 0.115391
230 0.131717
235 0.13263
240 0.1293
245 0.109657
250 0.141442
255 0.147815
260 0.148066
265 0.136349
270 0.150111
275 0.153133
280 0.168435
285 0.133654
290 0.155923
295 0.118396
300 0.0962134
305 0.135753
310 0.13031
315 0.172022
320 0.147063
325 0.180223
330 0.208419
335 0.207508
340 0.182773
345 0.186528
350 0.174576
355 0.177154
360 0.193594
365 0.161538
370 0.148879
375 0.184766
380 0.238408
385 0.194247
390 0.27266
395 0.349238
400 0.506191
405 0.832682
410 23.3712
415 319.165
420 474.219
425 119.5
430 16.0829
435 4.37165
440 3.92436
445 5.31325
450 6.91342
455 9.10639
460 11.9987
465 14.1524
470 16.7535
475 20.444
480 22.7691
485 22.6598
490 23.2037
495 23.5664
500 22.5893
505 21.5733
510 20.5984
515 19.7578
520 18.7296
525 17.3175
530 16.0556
535 14.5683
540 13.0638
545 12.0827
550 10.6325
555 9.58463
560 8.43496
565 7.20368
570 5.89356
575 4.73986
580 3.8403
585 2.97421
590 2.38876
595 1.73088
600 1.42908
Ex : 428
200 0.136685
205 0.136526
210 0.138411
215 0.114304
220 0.126585
225 0.162307
230 0.0817856
235 0.121871
240 0.120994
245 0.151013
250 0.149342
255 0.161932
260 0.153392
265 0.1672
270 0.168797
275 0.163985
280 0.193238
285 0.192251
290 0.146686
295 0.160667
300 0.110379
305 0.144647
310 0.182807
315 0.182509
320 0.116318
325 0.144262
330 0.159577
335 0.17044
340 0.262727
345 0.173935
350 0.177803
355 0.151565
360 0.194289
365 0.246362
370 0.184177
375 0.144742
380 0.174587
385 0.220594
390 0.218929
395 0.283073
400 0.455124
405 0.431846
410 0.688618
415 17.3227
420 287.923
425 458.036
430 122.234
435 16.102
440 4.55681
445 4.32685
450 6.23357
455 8.36426
460 10.8635
465 12.6594
470 14.7767
475 16.58
480 19.4806
485 21.8148
490 21.2682
495 20.8597
500 20.8732
505 19.9658
510 19.0058
515 17.3616
520 16.186
525 15.3121
530 14.0485
535 13.1133
540 11.9313
545 10.9537
550 9.57491
555 8.82013
560 7.54818
565 6.70998
570 5.68597
575 4.57875
580 3.31163
585 2.69125
590 2.02243
595 1.61358
600 1.24587
Ex : 433
200 0.143453
205 0.19907
210 0.158904
215 0.164925
220 0.135262
225 0.143251
230 0.163786
235 0.123276
240 0.169076
245 0.143112
250 0.116282
255 0.182615
260 0.151141
265 0.174748
270 0.141061
275 0.178038
280 0.158736
285 0.127498
290 0.11687
295 0.174811
300 0.150375
305 0.167084
310 0.156339
315 0.14389
320 0.144109
325 0.120085
330 0.159757
335 0.217743
340 0.254633
345 0.172141
350 0.1291
355 0.18089
360 0.154814
365 0.201242
370 0.156731
375 0.192916
380 0.195216
385 0.199068
390 0.251482
395 0.243859
400 0.233149
405 0.312892
410 0.559132
415 0.705586
420 19.6028
425 323.613
430 486.813
435 125.811
440 16.8622
445 5.19418
450 5.15678
455 7.24419
460 9.62148
465 11.3877
470 12.7666
475 14.0835
480 15.7436
485 17.6032
490 19.85
495 19.6009
500 18.38
505 17.9684
510 16.9328
515 15.3461
520 14.736
525 13.3921
530 12.7279
535 11.5441
540 10.587
545 9.65505
550 8.67675
555 7.54014
560 6.95047
565 5.93838
570 4.82806
575 3.97842
580 3.08428
585 2.31946
590 1.94327
595 1.55957
600 1.12335
Ex : 438
200 0.229542
205 0.206853
210 0.153451
215 0.162178
220 0.137328
225 0.154977
230 0.122945
235 0.136133
240 0.139758
245 0.178989
250 0.235251
255 0.275853
260 0.295205
265 0.331003
270 0.296167
275 0.223284
280 0.27089
285 0.172511
290 0.221728
295 0.172968
300 0.166672
305 0.151257
310 0.107095
315 0.180183
320 0.203234
325 0.164689
330 0.142362
335 0.174692
340 0.202011
345 0.187744
350 0.285481
355 0.226475
360 0.21751
365 0.171179
370 0.164143
375 0.157968
380 0.245585
385 0.354847
390 0.246575
395 0.242998
400 0.222823
405 0.307027
410 0.436293
415 0.488133
420 0.866209
425 19.6324
430 339.814
435 579.695
440 151.963
445 20.754
450 6.5457
455 6.21949
460 8.22445
465 9.31594
470 10.6732
475 11.691
480 12.7443
485 13.8891
490 14.8988
495 17.032
500 17.0287
505 15.988
510 14.9233
515 13.6016
520 12.4004
525 11.3702
530 10.7913
535 9.76481
540 9.05829
545 8.31937
550 7.30312
555 6.414
560 5.70829
565 4.75139
570 4.11584
575 3.27959
580 2.55898
585 2.12078
590 1.60514
595 1.38871
600 0.93234
Ex : 443
200 0.148293
205 0.165897
210 0.149952
215 0.158794
220 0.098758
225 0.173491
230 0.126407
235 0.15905
240 0.159616
245 0.192854
250 0.195096
255 0.133273
260 0.142318
265 0.131111
270 0.164569
275 0.143374
280 0.15732
285 0.14911
290 0.219476
295 0.23023
300 0.16582
305 0.156191
310 0.150758
315 0.175059
320 0.145948
325 0.186005
330 0.199675
335 0.240715
340 0.213759
345 0.133727
350 0.179456
355 0.209194
360 0.155556
365 0.138649
370 0.220165
375 0.198107
380 0.203642
385 0.236695
390 0.216995
395 0.233533
400 0.25415
405 0.264544
410 0.356016
415 0.372741
420 0.554168
425 0.917338
430 22.0174
435 347.004
440 529.088
445 136.262
450 19.3719
455 6.84446
460 6.3949
465 7.89402
470 9.09811
475 9.76841
480 10.3114
485 11.3012
490 11.6747
495 12.0975
500 13.4675
505 14.364
510 12.5181
515 11.9034
520 10.7009
525 9.75825
530 8.79337
535 8.12026
540 7.48106
545 6.61582
550 5.9666
555 5.29306
560 4.90738
565 4.20269
570 3.46622
575 2.74803
580 2.10081
585 1.69954
590 1.28273
595 1.09405
600 0.702327
Ex : 448
200 0.1408
205 0.177548
210 0.180836
215 0.131094
220 0.14881
225 0.200008
230 0.172623
235 0.150735
240 0.153151
245 0.149863
250 0.210388
255 0.165562
260 0.171126
265 0.128254
270 0.155113
275 0.150367
280 0.156332
285 0.205515
290 0.14963
295 0.123667
300 0.160495
305 0.172744
310 0.163145
315 0.170176
320 0.169613
325 0.265851
330 0.231712
335 0.175729
340 0.191818
345 0.146593
350 0.148101
355 0.195821
360 0.180481
365 0.184663
370 0.16319
375 0.244808
380 0.241218
385 0.211518
390 0.16576
395 0.267054
400 0.249955
405 0.251982
410 0.244815
415 0.330571
420 0.417819
425 0.518154
430 0.946032
435 22.575
440 379.827
445 610.173
450 163.676
455 22.6978
460 7.39988
465 6.07528
470 6.69163
475 7.73556
480 8.13057
485 8.20401
490 8.68518
495 8.92675
500 9.05379
505 9.57861
510 10.6303
515 9.75692
520 8.48358
525 8.19476
530 7.04803
535 6.415
540 5.85076
545 5.33189
550 4.98809
555 4.21929
560 3.82653
565 3.22913
570 2.85376
575 2.3801
580 1.73384
585 1.44747
590 1.01202
595 0.846492
600 0.260439
Ex : 453
200 0.151049
205 0.164269
210 0.1661
215 0.172587
220 0.160679
225 0.134297
230 0.159817
235 0.174011
240 0.193855
245 0.216883
250 0.191299
255 0.15612
260 0.136547
265 0.164803
270 0.161219
275 0.189574
280 0.189482
285 0.131814
290 0.155603
295 0.155302
300 0.191607
305 0.140391
310 0.216358
315 0.171356
320 0.172829
325 0.178833
330 0.170024
335 0.170596
340 0.165582
345 0.154672
350 0.247905
355 0.226154
360 0.247185
365 0.196499
370 0.192723
375 0.193211
380 0.180933
385 0.241418
390 0.257064
395 0.245179
400 0.199059
405 0.226583
410 0.312822
415 0.320428
420 0.377533
425 0.446015
430 0.628029
435 0.980585
440 25.8031
445 404.539
450 579.974
455 139.294
460 19.6066
465 6.06781
470 4.78329
475 5.42796
480 6.01585
485 6.24894
490 6.25467
495 6.2561
500 6.41237
505 6.28081
510 6.69883
515 7.83379
520 7.60063
525 6.08763
530 5.54347
535 5.12715
540 4.44817
545 4.00222
550 3.65656
555 3.08482
560 3.00589
565 2.4925
570 2.23113
575 1.68157
580 1.3337
585 1.15173
590 0.869958
595 0.743025
600 0.699816
Ex : 458
200 0.150031
205 0.193867
210 0.20092
215 0.167721
220 0.167253
225 0.186483
230 0.155929
235 0.194289
240 0.199908
245 0.16227
250 0.181826
255 0.146697
260 0.199486
265 0.203206
270 0.162086
275 0.23012
280 0.199368
285 0.119297
290 0.154324
295 0.178702
300 0.142879
305 0.229459
310 0.188693
315 0.154792
320 0.175246
325 0.190243
330 0.181394
335 0.160043
340 0.146551
345 0.21727
350 0.232241
355 0.18812
360 0.218536
365 0.249873
370 0.215627
375 0.195952
380 0.165075
385 0.237283
390 0.228918
395 0.255801
400 0.266433
405 0.262816
410 0.293319
415 0.280192
420 0.241619
425 0.332465
430 0.415173
435 0.526153
440 1.06197
445 27.2519
450 436.046
455 675.065
460 164.276
465 21.9789
470 5.82218
475 3.92991
480 4.12684
485 4.58433
490 4.30782
495 4.42273
500 4.62379
505 4.213
510 4.21543
515 4.41458
520 5.36696
525 5.7655
530 4.77119
535 4.16901
540 3.75381
545 3.2527
550 2.83196
555 2.60466
560 2.25369
565 1.8928
570 1.68005
575 1.33384
580 1.21069
585 0.906523
590 0.67672
595 0.62033
600 1.96794
Ex : 463
200 0.205691
205 0.133724
210 0.144667
215 0.192566
220 0.18228
225 0.22386
230 0.272206
235 0.197878
240 0.174609
245 0.112805
250 0.16808
255 0.146938
260 0.16671
265 0.171151
270 0.258755
275 0.181582
280 0.188872
285 0.23403
290 0.231502
295 0.174695
300 0.194922
305 0.247989
310 0.222632
315 0.148228
320 0.148591
325 0.198046
330 0.177549
335 0.190116
340 0.1685
345 0.183033
350 0.189654
355 0.167897
360 0.188277
365 0.14433
370 0.140368
375 0.208219
380 0.171668
385 0.225711
390 0.179019
395 0.196671
400 0.210526
405 0.222033
410 0.263636
415 0.268872
420 0.324391
425 0.297867
430 0.363275
435 0.445821
440 0.637865
445 1.03093
450 27.6982
455 441.8
460 661.728
465 163.179
470 21.1726
475 4.77476
480 2.90935
485 3.0962
490 3.45542
495 3.36817
500 3.41152
505 3.03985
510 3.10472
515 3.00885
520 2.91004
525 3.76278
530 4.85254
535 3.91222
540 3.09782
545 2.74483
550 2.53406
555 2.17255
560 1.71325
565 1.60225
570 1.42641
575 1.12191
580 0.87478
585 0.814908
590 0.665073
595 0.600925
600 0.369204
Ex : 468
200 0.110323
205 0.154033
210 0.212151
215 0.146373
220 0.177604
225 0.198966
230 0.145975
235 0.21595
240 0.144713
245 0.16371
250 0.158209
255 0.168783
260 0.190576
265 0.152823
270 0.147906
275 0.147624
280 0.167298
285 0.21391
290 0.192766
295 0.167148
300 0.198277
305 0.165184
310 0.20512
315 0.170168
320 0.200012
325 0.153536
330 0.184797
335 0.183384
340 0.167356
345 0.165613
350 0.195421
355 0.186285
360 0.16957
365 0.19471
370 0.217968
375 0.173569
380 0.224553
385 0.18808
390 0.220218
395 0.229127
400 0.228859
405 0.24831
410 0.225799
415 0.26122
420 0.203689
425 0.259033
430 0.224244
435 0.295635
440 0.368351
445 0.663303
450 0.958524
455 27.7524
460 421.847
465 664.411
470 163.153
475 20.6815
480 4.49341
485 2.47091
490 2.34944
495 2.56209
500 2.53979
505 2.47494
510 2.19486
515 2.28397
520 2.30657
525 2.27046
530 2.62289
535 3.63948
540 3.79206
545 2.74489
550 2.37097
555 2.15663
560 1.64613
565 1.39959
570 1.16486
575 1.03687
580 0.893245
585 0.702417
590 0.600981
595 0.506938
600 0.788075
Ex : 473
200 0.169561
205 0.20893
210 0.153312
215 0.165982
220 0.153483
225 0.172997
230 0.169188
235 0.17715
240 0.217342
245 0.139991
250 0.146245
255 0.148982
260 0.13636
265 0.180055
270 0.20628
275 0.146014
280 0.178072
285 0.142012
290 0.14051
295 0.18166
300 0.174152
305 0.1847
310 0.150656
315 0.197969
320 0.220831
325 0.185254
330 0.184881
335 0.202713
340 0.250697
345 0.181442
350 0.197331
355 0.169226
360 0.243987
365 0.217138
370 0.209112
375 0.212435
380 0.239137
385 0.203338
390 0.199221
395 0.252114
400 0.196187
405 0.213547
410 0.2001
415 0.255102
420 0.248204
425 0.208113
430 0.277267
435 0.281335
440 0.395521
445 0.468377
450 0.643523
455 1.10315
460 40.5922
465 576.149
470 750.958
475 167.762
480 21.034
485 4.29877
490 2.23279
495 2.00369
500 2.08837
505 2.35865
510 2.11723
515 2.03505
520 1.96554
525 2.00297
530 1.952
535 2.22132
540 2.97824
545 3.35429
550 2.45985
555 1.96152
560 1.9778
565 1.59289
570 1.22258
575 0.974861
580 0.807553
585 0.763743
590 0.661657
595 0.494731
600 0.177732
Ex : 478
200 0.265057
205 0.176125
210 0.185597
215 0.194265
220 0.189091
225 0.171235
230 0.174442
235 0.157104
240 0.18212
245 0.184356
250 0.169504
255 0.177456
260 0.185528
265 0.162108
270 0.185259
275 0.158042
280 0.15437
285 0.204243
290 0.185928
295 0.207489
300 0.240607
305 0.219945
310 0.238964
315 0.157486
320 0.211126
325 0.200183
330 0.196422
335 0.236198
340 0.215622
345 0.269069
350 0.169502
355 0.239635
360 0.197108
365 0.189326
370 0.24257
375 0.214808
380 0.226056
385 0.177014
390 0.263701
395 0.25327
400 0.25026
405 0.239971
410 0.279841
415 0.293074
420 0.323371
425 0.278456
430 0.372762
435 0.303005
440 0.380666
445 0.419145
450 0.52614
455 0.727168
460 1.20007
465 37.4961
470 501.405
475 683.874
480 165.387
485 20.7097
490 3.9813
495 1.98555
500 1.84674
505 1.94278
510 1.96887
515 2.0339
520 1.78914
525 1.76842
530 1.6429
535 1.71221
540 1.70591
545 2.2243
550 2.83192
555 2.49295
560 1.88279
565 1.5058
570 1.41912
575 0.967634
580 0.858247
585 0.671078
590 0.640143
595 0.530065
600 0.927734
Ex : 483
200 0.152389
205 0.210875
210 0.167048
215 0.158878
220 0.231435
225 0.232458
230 0.190757
235 0.194607
240 0.166095
245 0.24339
250 0.212422
255 0.246916
260 0.150341
265 0.135821
270 0.183756
275 0.240026
280 0.205621
285 0.266931
290 0.196258
295 0.127855
300 0.23133
305 0.221028
310 0.189583
315 0.179671
320 0.162037
325 0.174714
330 0.189881
335 0.17564
340 0.133333
345 0.255868
350 0.251896
355 0.257148
360 0.236482
365 0.22077
370 0.197533
375 0.26265
380 0.194727
385 0.185645
390 0.233924
395 0.210234
400 0.229495
405 0.260714
410 0.269459
415 0.299797
420 0.310418
425 0.258745
430 0.36009
435 0.422541
440 0.438335
445 0.508421
450 0.481003
455 0.596722
460 0.874247
465 1.10663
470 29.0553
475 466.065
480 715.945
485 174.277
490 21.6755
495 3.98606
500 1.86741
505 1.53621
510 1.64515
515 1.79892
520 1.83709
525 1.67716
530 1.58059
535 1.47003
540 1.49459
545 1.38573
550 1.57594
555 2.43778
560 2.69383
565 1.82319
570 1.39858
575 1.22912
580 0.901344
585 0.711119
590 0.639681
595 0.445943
600 0.155732
Ex : 488
200 0.153917
205 0.193259
210 0.182782
215 0.213378
220 0.197375
225 0.228822
230 0.19023
235 0.234392
240 0.189607
245 0.215067
250 0.236149
255 0.204786
260 0.216452
265 0.211638
270 0.197521
275 0.312215
280 0.219031
285 0.190512
290 0.163858
295 0.189595
300 0.231086
305 0.297977
310 0.251458
315 0.223732
320 0.181183
325 0.213102
330 0.270997
335 0.244388
340 0.211418
345 0.193023
350 0.227632
355 0.159923
360 0.215579
365 0.274445
370 0.253461
375 0.212724
380 0.240999
385 0.240078
390 0.235771
395 0.286925
400 0.311782
405 0.273798
410 0.283886
415 0.242532
420 0.234323
425 0.286492
430 0.215141
435 0.309048
440 0.345103
445 0.33877
450 0.371288
455 0.508817
460 0.6214
465 0.897119
470 1.33588
475 37.298
480 580.769
485 729.646
490 165.72
495 20.6152
500 3.85082
505 1.67269
510 1.50965
515 1.54485
520 1.79297
525 1.82766
530 1.46893
535 1.58456
540 1.5383
545 1.41183
550 1.51297
555 1.43165
560 1.85978
565 2.5136
570 1.85548
575 1.08149
580 1.01428
585 0.855279
590 0.778513
595 0.504097
600 0.244112
Ex : 493
200 0.183629
205 0.203617
210 0.282081
215 0.291609
220 0.222413
225 0.236434
230 0.24917
235 0.223755
240 0.210777
245 0.176129
250 0.213521
255 0.181414
260 0.193871
265 0.197341
270 0.201058
275 0.18255
280 0.207988
285 0.197709
290 0.203259
295 0.237178
300 0.180641
305 0.238132
310 0.238119
315 0.230317
320 0.183717
325 0.198616
330 0.212334
335 0.260327
340 0.234139
345 0.288279
350 0.252532
355 0.28078
360 0.263687
365 0.21443
370 0.231876
375 0.238591
380 0.177707
385 0.185538
390 0.274894
395 0.264634
400 0.259449
405 0.188825
410 0.25507
415 0.224927
420 0.233194
425 0.230039
430 0.224155
435 0.284028
440 0.214875
445 0.293849
450 0.254707
455 0.310955
460 0.496515
465 0.574041
470 0.788833
475 1.07068
480 28.9492
485 483.925
490 814.627
495 187.166
500 23.0811
505 4.07594
510 1.76349
515 1.47792
520 1.51264
525 1.79928
530 1.60163
535 1.55274
540 1.48397
545 1.26775
550 1.28593
555 1.18277
560 1.21648
565 1.46693
570 2.12776
575 1.64454
580 1.04831
585 0.823295
590 0.760869
595 0.685808
600 0.448698
Ex : 498
200 0.247827
205 0.304962
210 0.263395
215 0.289059
220 0.216509
225 0.183689
230 0.275863
235 0.203294
240 0.212302
245 0.242792
250 0.229983
255 0.187987
260 0.25286
265 0.280141
270 0.248345
275 0.196695
280 0.169801
285 0.258085
290 0.22267
295 0.226782
300 0.213179
305 0.239588
310 0.181468
315 0.257549
320 0.257453
325 0.29286
330 0.235149
335 0.230366
340 0.216358
345 0.176518
350 0.204443
355 0.216931
360 0.201212
365 0.247856
370 0.293093
375 0.261924
380 0.232262
385 0.238271
390 0.292064
395 0.232096
400 0.271644
405 0.299143
410 0.275984
415 0.309346
420 0.265262
425 0.208766
430 0.275829
435 0.294063
440 0.357028
445 0.35922
450 0.391423
455 0.404192
460 0.371036
465 0.428176
470 0.563708
475 0.749011
480 1.02446
485 34.2132
490 492.87
495 691.658
500 168.323
505 20.6503
510 3.57695
515 1.69356
520 1.46727
525 1.52043
530 1.66484
535 1.68149
540 1.44082
545 1.44312
550 1.39846
555 1.2126
560 1.24739
565 1.20163
570 1.16166
575 1.40205
580 1.43992
585 0.986971
590 0.691497
595 0.677164
600 0.259512
Ex : 503
200 0.23189
205 0.233755
210 0.237077
215 0.245037
220 0.189684
225 0.278365
230 0.207792
235 0.230912
240 0.174782
245 0.192879
250 0.283506
255 0.255257
260 0.295562
265 0.246138
270 0.203619
275 0.352268
280 0.283221
285 0.234904
290 0.242729
295 0.265778
300 0.194
305 0.194005
310 0.19676
315 0.261686
320 0.19593
325 0.291253
330 0.293221
335 0.220841
340 0.288054
345 0.196779
350 0.233925
355 0.254344
360 0.300504
365 0.261714
370 0.23346
375 0.212067
380 0.25004
385 0.281236
390 0.287289
395 0.272805
400 0.232879
405 0.200156
410 0.250023
415 0.326179
420 0.253494
425 0.289378
430 0.308782
435 0.246663
440 0.246025
445 0.309527
450 0.343517
455 0.362969
460 0.434711
465 0.502143
470 0.472464
475 0.546395
480 0.730125
485 1.2137
490 31.5463
495 522.349
500 766.528
505 181.494
510 22.821
515 4.43733
520 2.45039
525 2.1348
530 1.79326
535 1.74486
540 1.67572
545 1.4742
550 1.36977
555 1.18872
560 1.03492
565 1.08763
570 1.01244
575 0.974469
580 1.05102
585 1.22892
590 1.05994
595 0.655774
600 0.673304
Ex : 508
200 0.214528
205 0.244763
210 0.202852
215 0.196503
220 0.247875
225 0.278072
230 0.259488
235 0.182393
240 0.194983
245 0.182604
250 0.215446
255 0.212681
260 0.267052
265 0.266827
270 0.265977
275 0.172896
280 0.197781
285 0.189341
290 0.178732
295 0.199127
300 0.235384
305 0.175226
310 0.263832
315 0.217676
320 0.243918
325 0.213575
330 0.261306
335 0.247899
340 0.250689
345 0.257146
350 0.177372
355 0.241686
360 0.266543
365 0.321371
370 0.335426
375 0.273545
380 0.283248
385 0.249382
390 0.234174
395 0.305119
400 0.292861
405 0.250328
410 0.257904
415 0.235039
420 0.271389
425 0.260181
430 0.228934
435 0.277274
440 0.253398
445 0.289173
450 0.285786
455 0.504163
460 0.392066
465 0.435467
470 0.376618
475 0.677647
480 0.626493
485 0.847138
490 1.16832
495 41.7839
500 516.288
505 688.219
510 167.242
515 20.5288
520 3.64635
525 1.60129
530 1.423
535 1.39891
540 1.4346
545 1.36686
550 1.25129
555 1.05515
560 1.05617
565 0.948943
570 0.793448
575 0.845749
580 0.78747
585 0.776907
590 0.974613
595 0.939579
600 0.212615
Ex : 513
200 0.267019
205 0.267657
210 0.23946
215 0.242913
220 0.241249
225 0.219435
230 0.18439
235 0.248069
240 0.238732
245 0.256763
250 0.25077
255 0.268136
260 0.288343
265 0.291137
270 0.248636
275 0.223368
280 0.181872
285 0.274818
290 0.27584
295 0.250374
300 0.24678
305 0.252858
310 0.224677
315 0.222423
320 0.251846
325 0.228421
330 0.199579
335 0.269678
340 0.302105
345 0.257824
350 0.270664
355 0.243274
360 0.33735
365 0.279461
370 0.279044
375 0.288559
380 0.247965
385 0.266211
390 0.290527
395 0.289397
400 0.306045
405 0.324888
410 0.33701
415 0.296152
420 0.261105
425 0.24361
430 0.29605
435 0.333502
440 0.277259
445 0.372089
450 0.360082
455 0.36412
460 0.474765
465 0.410261
470 0.379554
475 0.406892
480 0.455942
485 0.545113
490 0.60266
495 0.995407
500 30.4083
505 492.981
510 764.988
515 189.159
520 23.2463
525 4.01397
530 1.80282
535 1.45407
540 1.27482
545 1.29224
550 1.51123
555 1.23198
560 1.13245
565 0.947043
570 0.769756
575 0.725164
580 0.545791
585 0.698828
590 0.550084
595 0.745896
600 0.806503
Ex : 518
200 0.290487
205 0.275768
210 0.17346
215 0.255645
220 0.247392
225 0.246327
230 0.272736
235 0.22113
240 0.246533
245 0.239446
250 0.191229
255 0.25408
260 0.236918
265 0.29979
270 0.256031
275 0.175832
280 0.245711
285 0.185697
290 0.251694
295 0.261235
300 0.241082
305 0.261693
310 0.26948
315 0.253019
320 0.243734
325 0.303299
330 0.323351
335 0.298074
340 0.255497
345 0.253607
350 0.217954
355 0.343359
360 0.332607
365 0.238872
370 0.196996
375 0.270877
380 0.206949
385 0.27394
390 0.2843
395 0.280788
400 0.349918
405 0.516799
410 0.520804
415 0.539262
420 0.606275
425 0.544264
430 0.586009
435 0.46583
440 0.518799
445 0.590656
450 0.536259
455 0.462419
460 0.417877
465 0.322836
470 0.39709
475 0.450552
480 0.471443
485 0.561014
490 0.687103
495 0.687487
500 1.0503
505 31.3151
510 461.21
515 682.337
520 171.888
525 21.3383
530 3.56448
535 1.62344
540 1.2709
545 1.16774
550 1.19978
555 1.22366
560 1.14727
565 1.12098
570 0.878169
575 0.772293
580 0.636141
585 0.647321
590 0.542842
595 0.534187
600 0.222313
Ex : 523
200 0.25183
205 0.211564
210 0.24028
215 0.34103
220 0.330828
225 0.219978
230 0.211174
235 0.322745
240 0.238863
245 0.261212
250 0.225479
255 0.215567
260 0.182495
265 0.191278
270 0.302185
275 0.260171
280 0.243776
285 0.211019
290 0.234244
295 0.339421
300 0.2783
305 0.227033
310 0.298793
315 0.295099
320 0.210993
325 0.243444
330 0.240448
335 0.254536
340 0.290677
345 0.265312
350 0.268723
355 0.310744
360 0.262444
365 0.353483
370 0.268308
375 0.389114
380 0.253904
385 0.27557
390 0.225028
395 0.297554
400 0.192725
405 0.278861
410 0.343657
415 0.249811
420 0.328629
425 0.293549
430 0.243153
435 0.233235
440 0.324206
445 0.274503
450 0.316428
455 0.353177
460 0.30857
465 0.391804
470 0.357995
475 0.370219
480 0.380837
485 0.487352
490 0.475048
495 0.505398
500 0.635313
505 1.06208
510 26.8723
515 434.385
520 668.941
525 172.968
530 21.231
535 3.56151
540 1.56059
545 1.10663
550 0.969878
555 0.984544
560 1.20374
565 1.11183
570 0.929077
575 0.751338
580 0.602586
585 0.609779
590 0.53199
595 0.445083
600 0.563477
Ex : 528
200 0.294843
205 0.332495
210 0.291196
215 0.245352
220 0.271047
225 0.258019
230 0.248237
235 0.231665
240 0.24863
245 0.272543
250 0.217572
255 0.26594
260 0.269202
265 0.268442
270 0.257184
275 0.262298
280 0.275696
285 0.248754
290 0.233062
295 0.237121
300 0.227533
305 0.235678
310 0.234004
315 0.261118
320 0.382693
325 0.37449
330 0.256242
335 0.218863
340 0.305508
345 0.400873
350 0.311898
355 0.25525
360 0.284369
365 0.26766
370 0.219822
375 0.391766
380 0.282457
385 0.255737
390 0.336574
395 0.259686
400 0.261063
405 0.27568
410 0.270281
415 0.400458
420 0.277978
425 0.349712
430 0.326873
435 0.323531
440 0.318095
445 0.407028
450 0.392122
455 0.314178
460 0.380929
465 0.437437
470 0.421924
475 0.398703
480 0.362616
485 0.35371
490 0.384453
495 0.555731
500 0.620777
505 0.655616
510 0.88201
515 25.3139
520 438.854
525 702.149
530 176.646
535 21.7791
540 3.63101
545 1.56271
550 1.0093
555 1.06928
560 1.01142
565 1.00141
570 0.87199
575 0.794972
580 0.659653
585 0.56255
590 0.479859
595 0.415754
600 0.222706
Ex : 533
200 0.280597
205 0.321303
210 0.240254
215 0.280394
220 0.285904
225 0.218608
230 0.259823
235 0.219901
240 0.244953
245 0.248598
250 0.267897
255 0.336598
260 0.213944
265 0.26786
270 0.287766
275 0.275217
280 0.241732
285 0.287263
290 0.267401
295 0.22281
300 0.326015
305 0.266712
310 0.238675
315 0.226239
320 0.292027
325 0.232812
330 0.305555
335 0.241086
340 0.254318
345 0.398808
350 0.321946
355 0.292232
360 0.380259
365 0.347257
370 0.302323
375 0.26095
380 0.312402
385 0.295571
390 0.291283
395 0.196473
400 0.221015
405 0.288234
410 0.177572
415 0.245982
420 0.302614
425 0.337051
430 0.288089
435 0.319188
440 0.246521
445 0.312148
450 0.278791
455 0.278937
460 0.429951
465 0.442973
470 0.34479
475 0.453489
480 0.391399
485 0.482285
490 0.418008
495 0.58747
500 0.686427
505 0.66606
510 0.988515
515 1.48754
520 32.1503
525 497.49
530 676.687
535 171.459
540 21.0339
545 3.62702
550 1.38587
555 0.932048
560 0.95313
565 0.809812
570 0.887663
575 0.726675
580 0.742217
585 0.643425
590 0.493384
595 0.454692
600 0.122828
Ex : 538
200 0.263647
205 0.370868
210 0.245646
215 0.276261
220 0.273012
225 0.299238
230 0.228159
235 0.207129
240 0.256112
245 0.290187
250 0.258458
255 0.318878
260 0.243088
265 0.266563
270 0.20021
275 0.300147
280 0.401019
285 0.305366
290 0.325902
295 0.369001
300 0.346231
305 0.275273
310 0.273779
315 0.316446
320 0.273701
325 0.265045
330 0.314402
335 0.325102
340 0.29665
345 0.354986
350 0.35641
355 0.28974
360 0.278382
365 0.335326
370 0.270319
375 0.336218
380 0.366632
385 0.237435
390 0.316553
395 0.282997
400 0.223819
405 0.2369
410 0.341783
415 0.308319
420 0.326535
425 0.311805
430 0.316345
435 0.267534
440 0.25399
445 0.306505
450 0.29543
455 0.378044
460 0.287175
465 0.258508
470 0.302574
475 0.377739
480 0.380519
485 0.338114
490 0.336029
495 0.43813
500 0.512735
505 0.458921
510 0.523056
515 0.780804
520 1.02151
525 21.5791
530 417.936
535 700.924
540 195.729
545 23.7905
550 3.80173
555 1.50738
560 1.0205
565 0.883631
570 0.712325
575 0.782888
580 0.761435
585 0.580023
590 0.483291
595 0.472583
600 0.315281
Ex : 543
200 0.295547
205 0.327233
210 0.209906
215 0.256598
220 0.223301
225 0.324867
230 0.230845
235 0.263142
240 0.298018
245 0.228849
250 0.2752
255 0.33296
260 0.300393
265 0.345338
270 0.278946
275 0.253082
280 0.224747
285 0.31705
290 0.254493
295 0.216801
300 0.363631
305 0.273641
310 0.360424
315 0.248273
320 0.253227
325 0.226259
330 0.31837
335 0.258934
340 0.211615
345 0.347377
350 0.329274
355 0.368252
360 0.346467
365 0.416355
370 0.249517
375 0.244371
380 0.296725
385 0.336029
390 0.333121
395 0.304851
400 0.218201
405 0.305077
410 0.229311
415 0.271774
420 0.295703
425 0.322019
430 0.328556
435 0.204927
440 0.345213
445 0.343359
450 0.310749
455 0.316145
460 0.30464
465 0.345122
470 0.315198
475 0.339989
480 0.344352
485 0.302613
490 0.344361
495 0.324888
500 0.487062
505 0.629654
510 0.417905
515 0.530327
520 0.576447
525 0.810076
530 20.9289
535 400.094
540 672.124
545 183.489
550 22.5058
555 3.50703
560 1.23175
565 0.94889
570 0.795978
575 0.624079
580 0.504638
585 0.578708
590 0.449137
595 0.381295
600 0.209553
Ex : 548
200 0.282494
205 0.230231
210 0.273483
215 0.192114
220 0.320284
225 0.199936
230 0.295994
235 0.299556
240 0.232876
245 0.389686
250 0.315455
255 0.258835
260 0.490509
265 0.307061
270 0.238198
275 0.305659
280 0.394974
285 0.249227
290 0.388161
295 0.26034
300 0.248954
305 0.247656
310 0.336654
315 0.338882
320 0.36073
325 0.260013
330 0.293952
335 0.221437
340 0.23298
345 0.239256
350 0.219062
355 0.289469
360 0.273879
365 0.288115
370 0.355968
375 0.404511
380 0.334122
385 0.272623
390 0.292811
395 0.380634
400 0.337933
405 0.293626
410 0.238122
415 0.274399
420 0.284197
425 0.309719
430 0.257296
435 0.369784
440 0.291317
445 0.402734
450 0.299919
455 0.3786
460 0.281395
465 0.277569
470 0.317776
475 0.355562
480 0.39097
485 0.391541
490 0.343519
495 0.302255
500 0.344126
505 0.390396
510 0.49345
515 0.537895
520 0.482704
525 0.765875
530 0.893042
535 22.9409
540 392.491
545 624.982
550 173.595
555 21.1406
560 3.22667
565 1.05553
570 0.794655
575 0.711555
580 0.615738
585 0.646928
590 0.524898
595 0.515771
600 0.548166
Ex : 553
200 0.348561
205 0.358309
210 0.350799
215 0.3125
220 0.22812
225 0.243845
230 0.219319
235 0.304398
240 0.241484
245 0.25066
250 0.404327
255 0.277893
260 0.268046
265 0.26049
270 0.25129
275 0.308577
280 0.318685
285 0.360458
290 0.326682
295 0.346556
300 0.26086
305 0.292217
310 0.347905
315 0.261749
320 0.258043
325 0.375891
330 0.295702
335 0.388361
340 0.38897
345 0.258474
350 0.329739
355 0.409713
360 0.334579
365 0.416268
370 0.290951
375 0.374514
380 0.319859
385 0.298553
390 0.300861
395 0.294721
400 0.284506
405 0.320645
410 0.383314
415 0.241278
420 0.328386
425 0.359764
430 0.332649
435 0.34306
440 0.352852
445 0.239047
450 0.348052
455 0.322963
460 0.300714
465 0.308376
470 0.467877
475 0.267824
480 0.300741
485 0.264069
490 0.348865
495 0.268943
500 0.365177
505 0.539545
510 0.33651
515 0.421149
520 0.592489
525 0.50378
530 0.71175
535 0.850049
540 18.9358
545 352.552
550 622.46
555 182.381
560 22.1662
565 3.35408
570 1.27463
575 0.755026
580 0.584592
585 0.495386
590 0.503993
595 0.420081
600 0.794363
Ex : 558
200 0.289462
205 0.257209
210 0.280347
215 0.36418
220 0.300832
225 0.307528
230 0.263125
235 0.273619
240 0.284187
245 0.190467
250 0.246597
255 0.280514
260 0.272907
265 0.324436
270 0.354235
275 0.251174
280 0.247737
285 0.24715
290 0.271594
295 0.24037
300 0.24966
305 0.412235
310 0.316739
315 0.360801
320 0.279449
325 0.283218
330 0.276559
335 0.322871
340 0.328633
345 0.393316
350 0.304786
355 0.277844
360 0.254516
365 0.319932
370 0.490361
375 0.365374
380 0.268622
385 0.348548
390 0.328012
395 0.259139
400 0.348964
405 0.25144
410 0.391425
415 0.477175
420 0.447035
425 0.322682
430 0.421952
435 0.338893
440 0.306499
445 0.381573
450 0.419141
455 0.480695
460 0.447048
465 0.385529
470 0.411574
475 0.489348
480 0.395526
485 0.413551
490 0.449165
495 0.410833
500 0.426722
505 0.475192
510 0.513995
515 0.333198
520 0.391296
525 0.514863
530 0.608353
535 0.790389
540 1.0125
545 18.8508
550 346.382
555 614.803
560 180.693
565 21.9498
570 3.29797
575 0.982253
580 0.624062
585 0.487697
590 0.436219
595 0.471081
600 0.287391
Ex : 563
200 0.346281
205 0.347792
210 0.275152
215 0.380347
220 0.310111
225 0.280614
230 0.315464
235 0.283322
240 0.385859
245 0.27005
250 0.338159
255 0.367032
260 0.285816
265 0.328153
270 0.304276
275 0.39161
280 0.274877
285 0.35671
290 0.347937
295 0.315202
300 0.248324
305 0.305949
310 0.269674
315 0.270339
320 0.268081
325 0.38398
330 0.296935
335 0.281053
340 0.263573
345 0.30476
350 0.342477
355 0.250547
360 0.324947
365 0.308049
370 0.352187
375 0.292253
380 0.290516
385 0.295124
390 0.397405
395 0.331287
400 0.341906
405 0.309613
410 0.420155
415 0.363194
420 0.327167
425 0.351615
430 0.374774
435 0.412091
440 0.312633
445 0.384642
450 0.344728
455 0.289898
460 0.338732
465 0.34619
470 0.355887
475 0.391531
480 0.556385
485 0.473596
490 0.32889
495 0.366931
500 0.383395
505 0.332441
510 0.277014
515 0.399559
520 0.416579
525 0.440219
530 0.539269
535 0.637562
540 0.62118
545 0.814926
550 17.6469
555 350.676
560 705.818
565 209.172
570 25.2492
575 3.64253
580 0.969638
585 0.617402
590 0.547278
595 0.534758
600 0.0608534
Ex : 568
200 0.357076
205 0.31226
210 0.301702
215 0.350605
220 0.336784
225 0.233755
230 0.320408
235 0.37145
240 0.259424
245 0.292307
250 0.326999
255 0.255201
260 0.276552
265 0.333961
270 0.329463
275 0.307701
280 0.312093
285 0.292458
290 0.287857
295 0.247024
300 0.24318
305 0.299835
310 0.241636
315 0.340218
320 0.350216
325 0.274974
330 0.289093
335 0.341118
340 0.379954
345 0.238705
350 0.344938
355 0.332186
360 0.32104
365 0.467512
370 0.393974
375 0.338934
380 0.370669
385 0.314289
390 0.252729
395 0.396849
400 0.353053
405 0.392312
410 0.260941
415 0.366646
420 0.42542
425 0.392797
430 0.334433
435 0.277185
440 0.332749
445 0.412953
450 0.354359
455 0.35354
460 0.295029
465 0.54363
470 0.338776
475 0.303799
480 0.343781
485 0.33074
490 0.339498
495 0.284669
500 0.34246
505 0.350861
510 0.457754
515 0.458204
520 0.497055
525 0.469593
530 0.463911
535 0.551176
540 0.488217
545 0.59179
550 0.84431
555 12.607
560 287.054
565 541.758
570 170.154
575 20.7567
580 3.00367
585 0.980484
590 0.556764
595 0.543054
600 1.5252
Ex : 573
200 0.311486
205 0.286053
210 0.284334
215 0.267181
220 0.36151
225 0.293724
230 0.291395
235 0.299265
240 0.297017
245 0.367422
250 0.257436
255 0.414215
260 0.268615
265 0.317546
270 0.333836
275 0.4101
280 0.337109
285 0.303577
290 0.206065
295 0.245108
300 0.417891
305 0.335416
310 0.315404
315 0.376562
320 0.353505
325 0.272874
330 0.275981
335 0.249821
340 0.251131
345 0.203518
350 0.331567
355 0.436903
360 0.383623
365 0.339915
370 0.398562
375 0.319422
380 0.270449
385 0.362422
390 0.357394
395 0.302565
400 0.32361
405 0.395958
410 0.377635
415 0.314081
420 0.322886
425 0.405731
430 0.298478
435 0.254403
440 0.350776
445 0.333493
450 0.464358
455 0.423882
460 0.465239
465 0.307211
470 0.382645
475 0.554616
480 0.476819
485 0.368094
490 0.375043
495 0.40006
500 0.301533
505 0.393189
510 0.483039
515 0.395871
520 0.318893
525 0.360003
530 0.476527
535 0.490724
540 0.403573
545 0.476477
550 0.669688
555 0.715139
560 13.0834
565 281.266
570 513.87
575 157.27
580 19.276
585 2.81978
590 0.685906
595 0.619894
600 0.243024
Ex : 578
200 0.299189
205 0.25486
210 0.214321
215 0.404317
220 0.286643
225 0.269611
230 0.442424
235 0.328698
240 0.320261
245 0.305986
250 0.272808
255 0.361321
260 0.330196
265 0.327576
270 0.308974
275 0.319029
280 0.250144
285 0.266354
290 0.33199
295 0.245596
300 0.326544
305 0.291541
310 0.262708
315 0.334436
320 0.291912
325 0.30493
330 0.236353
335 0.37415
340 0.344313
345 0.385412
350 0.357947
355 0.301338
360 0.300595
365 0.283461
370 0.269049
375 0.312624
380 0.31515
385 0.282031
390 0.344498
395 0.450897
400 0.449976
405 0.291627
410 0.293268
415 0.306605
420 0.334547
425 0.314861
430 0.254475
435 0.401406
440 0.406983
445 0.418987
450 0.284325
455 0.451809
460 0.384946
465 0.416447
470 0.372745
475 0.302386
480 0.33418
485 0.36851
490 0.419683
495 0.484284
500 0.290644
505 0.409307
510 0.450834
515 0.305054
520 0.335686
525 0.305384
530 0.43492
535 0.526145
540 0.540875
545 0.478665
550 0.526345
555 0.547914
560 0.748948
565 10.4604
570 242.821
575 442.652
580 141.126
585 17.238
590 2.53859
595 0.750908
600 0.476602
Ex : 583
200 0.412933
205 0.301965
210 0.307529
215 0.31029
220 0.272005
225 0.392291
230 0.357186
235 0.341204
240 0.208565
245 0.30128
250 0.323871
255 0.476703
260 0.3461
265 0.260181
270 0.214965
275 0.277663
280 0.381766
285 0.266885
290 0.444355
295 0.363014
300 0.345264
305 0.244032
310 0.472466
315 0.288406
320 0.325295
325 0.240441
330 0.412987
335 0.33693
340 0.283642
345 0.391525
350 0.35395
355 0.243796
360 0.294363
365 0.379758
370 0.438985
375 0.309542
380 0.387971
385 0.322736
390 0.425972
395 0.296297
400 0.390344
405 0.346807
410 0.376995
415 0.390799
420 0.345938
425 0.243956
430 0.250342
435 0.235735
440 0.406908
445 0.339127
450 0.288737
455 0.292385
460 0.34197
465 0.279378
470 0.396557
475 0.306432
480 0.402158
485 0.439717
490 0.370052
495 0.417381
500 0.423232
505 0.431492
510 0.330094
515 0.382981
520 0.417253
525 0.396326
530 0.410981
535 0.341615
540 0.314086
545 0.411504
550 0.590903
555 0.617582
560 0.632846
565 0.771164
570 11.5982
575 207.335
580 388.943
585 118.791
590 14.2684
595 2.1734
600 0.629859
Ex : 588
200 0.258486
205 0.314914
210 0.255965
215 0.237674
220 0.428508
225 0.236674
230 0.32155
235 0.295362
240 0.298862
245 0.28672
250 0.363627
255 0.331364
260 0.302202
265 0.37885
270 0.347499
275 0.608957
280 0.261936
285 0.480313
290 0.457592
295 0.267682
300 0.28046
305 0.273033
310 0.337008
315 0.301182
320 0.370624
325 0.335081
330 0.33196
335 0.35476
340 0.29867
345 0.279201
350 0.223489
355 0.263639
360 0.290086
365 0.355963
370 0.294512
375 0.435541
380 0.192544
385 0.278236
390 0.495849
395 0.425314
400 0.412635
405 0.363147
410 0.344718
415 0.298323
420 0.353318
425 0.32571
430 0.337732
435 0.292703
440 0.322353
445 0.362874
450 0.316685
455 0.399448
460 0.345229
465 0.493172
470 0.402971
475 0.361205
480 0.462007
485 0.35152
490 0.310795
495 0.359136
500 0.345486
505 0.353277
510 0.380028
515 0.400237
520 0.45091
525 0.36311
530 0.472889
535 0.377276
540 0.374711
545 0.362224
550 0.278433
555 0.483076
560 0.405397
565 0.491271
570 0.582172
575 7.49002
580 164.582
585 315.946
590 101.158
595 12.3039
600 1.40014
Ex : 593
200 0.472425
205 0.273756
210 0.348429
215 0.273979
220 0.273802
225 0.312077
230 0.338023
235 0.231389
240 0.282124
245 0.294442
250 0.37549
255 0.37952
260 0.360763
265 0.24915
270 0.240845
275 0.212645
280 0.300645
285 0.347297
290 0.198225
295 0.297891
300 0.298539
305 0.34071
310 0.382308
315 0.283735
320 0.276606
325 0.323499
330 0.289379
335 0.224485
340 0.309521
345 0.327634
350 0.352106
355 0.328581
360 0.28683
365 0.335966
370 0.372845
375 0.193261
380 0.235808
385 0.285086
390 0.405803
395 0.329093
400 0.249389
405 0.370866
410 0.392231
415 0.271387
420 0.348154
425 0.361267
430 0.448228
435 0.313713
440 0.403261
445 0.267888
450 0.362709
455 0.412388
460 0.333434
465 0.245532
470 0.357343
475 0.313481
480 0.26819
485 0.335034
490 0.329982
495 0.425387
500 0.370441
505 0.274283
510 0.367636
515 0.362646
520 0.318278
525 0.367175
530 0.376044
535 0.370479
540 0.411027
545 0.383377
550 0.338484
555 0.53663
560 0.529733
565 0.54749
570 0.529418
575 0.608045
580 6.77486
585 158.861
590 296.708
595 88.3026
600 12.2363
Ex : 598
200 0.314687
205 0.325106
210 0.232845
215 0.241106
220 0.262545
225 0.257293
230 0.339131
235 0.29756
240 0.358951
245 0.238794
250 0.305436
255 0.398407
260 0.482184
265 0.288962
270 0.353797
275 0.403158
280 0.254084
285 0.389265
290 0.227749
295 0.359016
300 0.278133
305 0.306555
310 0.237592
315 0.191489
320 0.275065
325 0.271112
330 0.302936
335 0.479795
340 0.379443
345 0.449385
350 0.340274
355 0.265215
360 0.285487
365 0.453357
370 0.317264
375 0.413418
380 0.272157
385 0.347545
390 0.307936
395 0.3727
400 0.316607
405 0.360884
410 0.351281
415 0.236169
420 0.317434
425 0.26281
430 0.423217
435 0.406964
440 0.332023
445 0.32556
450 0.380353
455 0.378932
460 0.435241
465 0.465331
470 0.296518
475 0.29824
480 0.344923
485 0.409615
490 0.515699
495 0.33777
500 0.30085
505 0.293891
510 0.312729
515 0.520169
520 0.360657
525 0.363157
530 0.276851
535 0.351074
540 0.319455
545 0.34276
550 0.366197
555 0.427597
560 0.511913
565 0.422001
570 0.376423
575 0.476053
580 0.608993
585 6.79621
590 133.917
595 258.62
600 172.555
Ex : 603
200 0.239178
205 0.33721
210 0.300508
215 0.277978
220 0.336038
225 0.294306
230 0.318894
235 0.372016
240 0.370472
245 0.294418
250 0.225701
255 0.281591
260 0.311298
265 0.197492
270 0.286248
275 0.253413
280 0.40146
285 0.392885
290 0.26933
295 0.37162
300 0.307103
305 0.281016
310 0.360737
315 0.275236
320 0.333148
325 0.463587
330 0.339621
335 0.5071
340 0.365339
345 0.437386
350 0.318114
355 0.221548
360 0.288108
365 0.244875
370 0.319584
375 0.444751
380 0.380175
385 0.376257
390 0.33691
395 0.267628
400 0.391982
405 0.367608
410 0.427674
415 0.322459
420 0.322855
425 0.244377
430 0.430319
435 0.356314
440 0.29676
445 0.308768
450 0.344427
455 0.408889
460 0.254745
465 0.410529
470 0.40416
475 0.511546
480 0.410231
485 0.280693
490 0.243045
495 0.365615
500 0.371708
505 0.461037
510 0.364098
515 0.33624
520 0.3005
525 0.377651
530 0.430059
535 0.337093
540 0.394663
545 0.334204
550 0.459271
555 0.579943
560 0.46389
565 0.429403
570 0.443685
575 0.417675
580 0.426873
585 0.682624
590 6.18865
595 123.246
600 257.519
