File format V 1.0
ven. 13. janv. 12:10:36 2017
Operator : 
Comments : 

=============================================
SpectroFluorometer parameters
Mode : 3D measurement
Data : Fluorescence
Phospho. : Ordinary
Spectrum : Fluorescence

Scan speed : 2400 nm/mn
Response : 100 ms
PM Voltage : 700 V
Shutter : On

Lambda Ex. Start : 203
Lambda Ex. End : 603
Lambda Ex. Step : 5
Ex. Slit : 5 nm

Lambda Em. Start : 200
Lambda Em. End : 600
Lambda Em. Step : 5
Em. Slit : 5 nm

Repetition : 1
Decal lambda em : 10
=============================================
DATA
Ex : 203
200 9.985
205 5.97128
210 4.31761
215 6.0692
220 5.34084
225 4.88687
230 4.11726
235 4.678
240 5.28239
245 4.54319
250 3.74599
255 3.0114
260 4.35148
265 2.96479
270 3.72426
275 3.96428
280 3.82816
285 3.15213
290 4.83711
295 6.23987
300 5.55787
305 5.31421
310 5.16803
315 7.03556
320 4.49808
325 3.85425
330 5.77448
335 6.14826
340 5.6517
345 4.6507
350 5.38851
355 7.83575
360 5.39467
365 7.33575
370 6.34994
375 5.20499
380 7.05511
385 6.79614
390 5.98582
395 2.50783
400 5.77637
405 5.46688
410 6.39787
415 7.47508
420 6.6927
425 4.38855
430 5.09037
435 4.26447
440 4.44187
445 7.88181
450 8.12032
455 6.76258
460 4.68895
465 3.786
470 5.15867
475 5.77264
480 5.10472
485 7.6571
490 6.77217
495 5.36811
500 8.35131
505 4.6661
510 5.2323
515 5.35385
520 7.19853
525 4.71244
530 4.72951
535 5.60092
540 8.10296
545 6.4252
550 7.32452
555 4.23597
560 5.10854
565 5.85827
570 2.64087
575 5.97222
580 5.54744
585 4.58188
590 8.95094
595 4.61313
600 0.524957
Ex : 208
200 8.71144
205 4.45727
210 5.40608
215 5.27965
220 3.9937
225 8.26798
230 5.19886
235 3.86275
240 4.91319
245 6.8733
250 5.2395
255 4.79358
260 5.54493
265 6.41817
270 7.19191
275 5.32801
280 4.93747
285 5.42474
290 4.23822
295 5.16093
300 3.59572
305 5.77116
310 5.39172
315 5.52042
320 6.24233
325 6.9477
330 5.35579
335 7.53641
340 6.41653
345 6.19167
350 4.07732
355 8.29066
360 5.3787
365 4.18402
370 6.74602
375 5.18969
380 3.29891
385 4.79313
390 7.79379
395 5.6935
400 3.09058
405 6.04934
410 5.56045
415 8.2802
420 5.53722
425 3.81027
430 6.78258
435 7.10886
440 5.83806
445 7.55415
450 5.31659
455 6.69147
460 7.95301
465 4.00464
470 6.05169
475 6.59264
480 7.94792
485 7.05839
490 7.22268
495 6.07461
500 4.03317
505 9.05842
510 4.53008
515 8.00914
520 5.26971
525 6.47595
530 5.62996
535 7.14404
540 7.32141
545 3.26464
550 6.02322
555 5.12892
560 4.38589
565 4.11565
570 6.50669
575 5.01754
580 5.17225
585 5.45051
590 4.88536
595 6.18514
600 0.703845
Ex : 213
200 5.16505
205 5.06991
210 3.06234
215 6.66215
220 3.8303
225 4.00995
230 2.88596
235 5.57647
240 4.35582
245 4.57304
250 3.69385
255 7.87958
260 4.39846
265 3.6782
270 4.6932
275 6.49158
280 6.12768
285 4.91457
290 4.32458
295 4.13822
300 4.01573
305 3.34413
310 4.71218
315 4.9544
320 6.76277
325 5.02511
330 8.30274
335 5.7372
340 7.66274
345 3.8571
350 4.01832
355 4.21372
360 3.83752
365 5.61491
370 7.59053
375 5.85093
380 5.60442
385 3.42475
390 7.04274
395 8.05565
400 7.88277
405 5.94595
410 6.26463
415 4.61302
420 8.20538
425 5.13058
430 4.43542
435 5.05479
440 5.87061
445 6.04009
450 4.74428
455 7.24593
460 6.03544
465 5.44308
470 6.83573
475 4.86212
480 3.71362
485 5.14205
490 4.80558
495 5.86867
500 4.49923
505 4.7105
510 4.88649
515 5.65694
520 5.75997
525 6.45054
530 7.83704
535 4.07559
540 3.86732
545 3.9597
550 3.80347
555 8.05171
560 6.08505
565 6.40077
570 4.76169
575 6.34959
580 3.71295
585 6.43695
590 4.74066
595 6.36183
600 4.49032
Ex : 218
200 3.93171
205 6.25987
210 5.87635
215 4.84046
220 5.29986
225 3.68517
230 5.46198
235 6.17336
240 6.71913
245 5.55897
250 2.97647
255 5.56559
260 6.54844
265 5.29408
270 5.59207
275 6.12087
280 4.61819
285 4.45197
290 4.94632
295 5.82191
300 4.19084
305 3.72203
310 5.04416
315 3.51224
320 5.5436
325 6.20325
330 6.6418
335 7.17758
340 5.95848
345 4.32591
350 4.11725
355 6.71048
360 7.84016
365 5.58333
370 7.77515
375 6.12854
380 7.8036
385 7.89388
390 5.51864
395 8.65116
400 5.76646
405 4.73608
410 4.75796
415 5.27343
420 4.30804
425 5.30459
430 5.17789
435 5.04556
440 6.24099
445 4.33558
450 5.30292
455 4.63528
460 7.20566
465 5.36771
470 3.98764
475 3.82664
480 6.90342
485 6.62123
490 5.03111
495 4.40875
500 3.77944
505 6.63786
510 4.77369
515 8.45422
520 4.33225
525 4.30367
530 3.23451
535 4.99698
540 5.04206
545 5.09925
550 5.60481
555 6.44223
560 4.81659
565 5.36852
570 5.53967
575 4.14011
580 5.52577
585 4.88515
590 5.4965
595 3.44712
600 0.392269
Ex : 223
200 3.60563
205 5.52497
210 3.64603
215 4.47008
220 4.7003
225 4.56114
230 4.26772
235 4.12483
240 6.5258
245 4.84021
250 4.78304
255 4.48972
260 3.57043
265 4.64503
270 4.31731
275 8.99358
280 4.74812
285 4.78654
290 4.78936
295 3.57019
300 3.14212
305 5.98627
310 3.65141
315 4.31305
320 4.4554
325 6.97836
330 4.79023
335 8.22415
340 4.46413
345 5.09938
350 6.02035
355 5.40741
360 7.25416
365 6.59206
370 5.38504
375 4.19559
380 3.93103
385 4.85812
390 8.62761
395 3.6614
400 2.64037
405 4.21973
410 4.54924
415 5.9877
420 3.01698
425 6.61525
430 7.83017
435 8.38936
440 5.52299
445 5.62802
450 6.65625
455 6.79795
460 6.13452
465 7.68879
470 6.65102
475 3.96624
480 3.86897
485 3.84128
490 5.83266
495 3.78812
500 4.20689
505 6.42051
510 5.71066
515 4.71342
520 5.12852
525 5.06363
530 6.65599
535 4.57054
540 5.80677
545 5.4617
550 6.97872
555 4.97755
560 5.00146
565 7.276
570 3.5952
575 4.93432
580 5.15949
585 5.94145
590 3.38007
595 2.98839
600 2.77713
Ex : 228
200 4.70561
205 5.45101
210 5.85547
215 4.22329
220 5.26048
225 4.90247
230 5.43394
235 7.27932
240 6.59449
245 5.00341
250 7.03391
255 4.54736
260 5.13549
265 4.35383
270 6.47939
275 3.60326
280 5.48764
285 6.01555
290 7.49652
295 4.54693
300 6.5367
305 4.09306
310 3.3977
315 4.61768
320 5.57031
325 3.93298
330 5.16868
335 4.10826
340 5.37871
345 6.81942
350 5.74479
355 5.54731
360 3.80036
365 3.4199
370 5.32718
375 4.75319
380 5.88752
385 4.43634
390 6.29637
395 9.03994
400 4.94278
405 5.87555
410 6.75335
415 4.75642
420 5.98232
425 3.87729
430 6.29177
435 6.48997
440 4.48849
445 4.68299
450 6.59707
455 6.31366
460 4.97666
465 5.87152
470 5.07185
475 3.92877
480 4.23853
485 4.39251
490 6.33014
495 3.18906
500 5.66857
505 4.79939
510 5.19973
515 5.54966
520 3.24757
525 4.38568
530 4.74497
535 5.73755
540 6.58426
545 5.92007
550 4.99392
555 5.29603
560 2.76852
565 5.44797
570 4.54683
575 4.51911
580 4.76349
585 4.45156
590 5.92666
595 2.98797
600 0.34002
Ex : 233
200 2.47521
205 4.25202
210 5.05818
215 5.26036
220 3.6845
225 4.46832
230 3.47415
235 4.95296
240 5.84662
245 5.84361
250 5.5391
255 4.14324
260 3.45777
265 5.84582
270 4.02266
275 3.80259
280 3.89766
285 2.70169
290 3.6499
295 4.45979
300 3.24769
305 3.87255
310 4.91006
315 4.99355
320 5.69636
325 5.6216
330 5.55778
335 5.0597
340 4.37104
345 4.50379
350 4.21545
355 4.24512
360 4.07184
365 4.7356
370 4.08012
375 7.43344
380 3.69572
385 3.96935
390 7.52686
395 5.35006
400 5.1383
405 5.26463
410 7.02307
415 4.48644
420 6.27277
425 6.37879
430 7.58191
435 5.32663
440 2.59471
445 5.43296
450 3.43415
455 4.9768
460 3.16346
465 5.40685
470 5.85865
475 4.98741
480 5.36593
485 5.80069
490 5.01696
495 3.57598
500 3.65256
505 3.72706
510 4.46521
515 3.22504
520 4.37964
525 5.00997
530 8.3636
535 3.91196
540 3.99725
545 3.88257
550 4.9771
555 5.18839
560 2.91019
565 4.94742
570 4.41089
575 5.99032
580 4.90697
585 3.50453
590 2.7134
595 3.90777
600 3.81226
Ex : 238
200 3.48276
205 3.13487
210 3.86798
215 4.14672
220 1.84619
225 3.64286
230 5.0549
235 3.95453
240 4.11646
245 3.58079
250 3.77234
255 4.2798
260 4.56832
265 3.30799
270 6.57315
275 4.88022
280 3.84499
285 4.95411
290 5.72819
295 7.56634
300 4.89106
305 3.58415
310 4.50385
315 3.99156
320 3.04799
325 3.29483
330 3.9777
335 4.25684
340 4.91198
345 5.75846
350 5.31309
355 4.4977
360 4.51317
365 4.37616
370 3.2913
375 6.39498
380 3.64296
385 3.35592
390 3.71471
395 4.26973
400 4.63867
405 4.53928
410 3.90857
415 6.49589
420 4.78691
425 4.72494
430 4.77326
435 4.49175
440 4.5732
445 5.6193
450 4.71319
455 3.60195
460 5.85827
465 3.65361
470 5.26423
475 5.33226
480 5.08371
485 5.43351
490 4.58654
495 4.34586
500 4.3393
505 5.4849
510 3.6138
515 6.28279
520 4.03199
525 4.79984
530 4.16025
535 3.19483
540 3.96355
545 5.99739
550 4.75567
555 4.86456
560 6.41177
565 5.9967
570 6.34154
575 3.29814
580 5.12732
585 3.13574
590 4.91236
595 5.92213
600 3.15529
Ex : 243
200 4.89347
205 4.70259
210 4.05863
215 3.2754
220 3.43611
225 3.70607
230 4.87746
235 3.78655
240 3.37992
245 3.53489
250 2.38464
255 5.20182
260 3.74461
265 3.30096
270 3.14391
275 2.71995
280 3.79258
285 4.20402
290 3.74289
295 2.54016
300 4.46269
305 6.22538
310 4.22545
315 3.13945
320 6.90746
325 5.34276
330 4.84731
335 3.86782
340 3.52179
345 4.49544
350 5.65915
355 4.05618
360 3.0098
365 2.23012
370 2.80704
375 2.80375
380 4.23571
385 3.58081
390 4.63446
395 4.67712
400 4.26695
405 3.34646
410 3.65318
415 4.06861
420 3.7925
425 3.3407
430 3.0702
435 3.30647
440 3.32631
445 5.81107
450 5.77399
455 4.56607
460 3.51054
465 4.02767
470 4.04154
475 3.49323
480 3.66919
485 5.65558
490 4.52541
495 3.1611
500 4.10182
505 5.10893
510 3.81194
515 2.86644
520 3.85241
525 5.53954
530 4.20205
535 2.85949
540 3.66041
545 5.27484
550 3.72262
555 3.48134
560 4.29671
565 2.6048
570 3.39973
575 4.18531
580 3.44837
585 2.875
590 3.83505
595 4.34999
600 42.7374
Ex : 248
200 4.02077
205 2.52445
210 1.67371
215 2.2891
220 2.03547
225 3.38317
230 3.20621
235 2.87486
240 2.24103
245 2.79597
250 2.59184
255 3.47759
260 3.82882
265 2.94705
270 2.39262
275 2.87615
280 5.06549
285 2.98222
290 2.72712
295 5.13256
300 3.4142
305 2.42628
310 2.74898
315 2.35378
320 3.15671
325 4.05397
330 3.37389
335 2.57847
340 3.19472
345 4.25763
350 3.87341
355 3.80484
360 3.23929
365 3.01431
370 3.78677
375 3.94361
380 3.7381
385 5.78938
390 4.16092
395 4.38229
400 4.67422
405 4.10366
410 3.33879
415 5.777
420 4.09176
425 4.43891
430 4.30732
435 4.25852
440 3.68714
445 2.81708
450 4.17236
455 4.35734
460 3.98672
465 4.88197
470 4.89795
475 3.75529
480 3.07303
485 3.58488
490 3.81919
495 3.43407
500 2.85562
505 2.79012
510 4.48543
515 3.75634
520 2.32647
525 3.5151
530 4.09467
535 3.30127
540 2.5483
545 2.54164
550 2.52029
555 3.26476
560 3.09686
565 2.28667
570 2.95291
575 3.17709
580 3.67395
585 2.13612
590 3.10155
595 3.24297
600 0.369037
Ex : 253
200 3.27612
205 2.66665
210 1.56244
215 1.68479
220 1.77258
225 2.66412
230 2.77752
235 3.38536
240 3.11457
245 1.67469
250 2.12411
255 1.55214
260 3.65275
265 2.64669
270 2.80455
275 2.91768
280 3.65305
285 3.73498
290 1.96492
295 1.61127
300 2.3466
305 3.31114
310 3.11763
315 2.94213
320 3.28424
325 3.11415
330 2.41625
335 2.42085
340 1.92912
345 2.59305
350 1.9598
355 3.00601
360 3.04967
365 2.65927
370 3.34701
375 3.39136
380 2.18472
385 3.52333
390 2.79281
395 3.26055
400 3.28221
405 2.9878
410 3.01436
415 3.35157
420 5.07014
425 4.78587
430 2.78101
435 2.9301
440 3.26147
445 3.89264
450 3.50259
455 3.95445
460 3.213
465 2.90473
470 3.95892
475 3.12222
480 4.09315
485 2.68464
490 3.55642
495 3.22181
500 2.98576
505 3.72467
510 3.84946
515 2.10658
520 2.48506
525 2.11655
530 3.17013
535 2.6971
540 2.94539
545 3.01733
550 2.29042
555 1.84672
560 2.45819
565 3.62761
570 3.7444
575 2.01052
580 2.76716
585 1.59672
590 2.38306
595 3.65727
600 3.88043
Ex : 258
200 1.86706
205 1.6603
210 2.79542
215 2.55609
220 2.83278
225 2.48282
230 2.97128
235 3.41605
240 1.5358
245 1.72205
250 2.41771
255 1.28642
260 1.84228
265 2.94333
270 1.95757
275 1.70697
280 2.20707
285 1.71152
290 2.52195
295 1.87865
300 2.3678
305 2.25433
310 1.8712
315 2.47471
320 2.93315
325 2.26963
330 3.05643
335 2.09886
340 2.7264
345 2.60438
350 2.52855
355 2.26729
360 2.2807
365 4.07162
370 1.94929
375 2.32205
380 2.29751
385 2.82517
390 2.28532
395 2.55197
400 2.38018
405 3.23857
410 2.97832
415 2.07491
420 2.38449
425 3.18724
430 2.71399
435 2.54129
440 4.39146
445 3.68176
450 1.92587
455 2.45611
460 3.51026
465 2.45416
470 4.99795
475 2.60895
480 1.79414
485 2.79324
490 2.59616
495 2.36804
500 2.48231
505 2.76843
510 3.52122
515 2.05665
520 2.70275
525 2.06756
530 2.75124
535 1.50505
540 2.28357
545 2.79524
550 1.76742
555 2.28423
560 2.3419
565 3.47337
570 1.87693
575 1.15969
580 2.60157
585 2.05736
590 2.1162
595 1.3979
600 1.04528
Ex : 263
200 1.63449
205 2.01654
210 1.36746
215 1.63734
220 1.36793
225 1.17012
230 2.05087
235 1.40735
240 2.14808
245 1.70308
250 2.06452
255 1.64998
260 1.8813
265 1.36742
270 1.38434
275 1.33818
280 1.21715
285 2.12137
290 1.68396
295 1.83863
300 1.74714
305 1.25469
310 2.05273
315 2.69196
320 2.3242
325 1.86215
330 2.07744
335 1.66558
340 1.3426
345 2.48745
350 1.78312
355 2.86152
360 2.29388
365 2.54741
370 2.12137
375 1.92814
380 2.77117
385 1.72573
390 1.61012
395 2.4016
400 2.38087
405 2.21426
410 1.70974
415 1.90488
420 2.99815
425 2.96353
430 2.58133
435 2.59788
440 2.88912
445 2.52707
450 2.69685
455 2.45373
460 3.01724
465 3.38176
470 2.05366
475 1.65621
480 1.93224
485 2.10254
490 3.75444
495 3.29404
500 3.26452
505 1.65141
510 2.2705
515 1.87556
520 1.82021
525 1.90415
530 2.21386
535 2.16945
540 1.94827
545 1.58466
550 1.66064
555 2.0078
560 1.84066
565 2.15996
570 1.72045
575 2.30969
580 1.21611
585 1.76214
590 1.52983
595 0.937566
600 0.106691
Ex : 268
200 1.01009
205 1.14149
210 1.34619
215 1.82352
220 1.26781
225 1.34087
230 0.953064
235 1.26882
240 1.65082
245 1.35769
250 0.90783
255 1.35594
260 1.71753
265 1.30122
270 1.08641
275 1.12739
280 1.24885
285 0.8028
290 0.988921
295 1.321
300 0.926895
305 1.55151
310 1.14834
315 1.25163
320 0.975371
325 2.0695
330 1.27803
335 0.86464
340 1.27138
345 1.08704
350 1.32762
355 1.75647
360 1.47534
365 0.829404
370 1.68207
375 2.01113
380 1.76979
385 2.39554
390 1.95991
395 2.34275
400 1.98488
405 1.76173
410 2.14594
415 2.14859
420 2.03839
425 1.60064
430 1.47367
435 1.1781
440 2.51722
445 3.30781
450 1.6014
455 1.47085
460 2.86575
465 2.13937
470 2.61993
475 1.80029
480 2.82839
485 1.7502
490 0.956548
495 1.62629
500 1.1665
505 1.175
510 1.15415
515 1.66041
520 2.06257
525 2.22951
530 2.18029
535 2.2891
540 1.62966
545 1.71201
550 1.67145
555 1.98653
560 1.1985
565 1.3545
570 1.03585
575 1.03795
580 1.38301
585 1.15408
590 1.42964
595 1.46074
600 1.09463
Ex : 273
200 1.15843
205 1.19399
210 1.04317
215 1.45398
220 1.35652
225 1.06526
230 1.00465
235 1.1199
240 0.840317
245 0.961853
250 1.45608
255 0.904048
260 1.09517
265 1.83704
270 1.3949
275 1.03402
280 1.05422
285 0.900888
290 1.21163
295 1.35675
300 1.13643
305 1.31455
310 1.55488
315 0.819621
320 2.11062
325 1.44938
330 1.27662
335 1.21455
340 1.79106
345 1.01182
350 1.54307
355 1.08735
360 1.85533
365 1.55356
370 2.24673
375 1.65112
380 1.30276
385 1.55436
390 1.37645
395 1.92541
400 1.48353
405 1.49584
410 1.36408
415 1.95968
420 1.44337
425 1.72862
430 1.5274
435 1.6193
440 1.10687
445 1.78805
450 1.9895
455 1.70943
460 1.45044
465 1.57079
470 1.16178
475 1.46425
480 1.01402
485 1.07756
490 1.40208
495 1.59575
500 1.82075
505 1.56934
510 1.54485
515 1.2153
520 1.44826
525 1.55052
530 0.892295
535 1.7943
540 2.13739
545 2.68234
550 1.33515
555 1.1465
560 0.926753
565 1.20589
570 1.1737
575 1.25825
580 1.46069
585 1.20164
590 2.18666
595 0.656129
600 1.18242
Ex : 278
200 1.25165
205 0.798315
210 0.643964
215 0.89715
220 1.42277
225 1.03472
230 0.801714
235 1.08631
240 0.820455
245 0.595497
250 1.09054
255 1.03199
260 1.07668
265 1.36381
270 1.06987
275 0.752387
280 0.572088
285 1.00655
290 0.695831
295 1.17426
300 0.824985
305 1.16179
310 1.16308
315 0.911485
320 1.06465
325 0.820907
330 0.912596
335 1.32503
340 0.911033
345 0.984587
350 1.03073
355 0.844281
360 0.851516
365 1.52643
370 1.31914
375 2.05295
380 1.58167
385 1.21426
390 1.44014
395 1.43467
400 1.17211
405 1.37318
410 1.25222
415 1.83685
420 1.87726
425 1.1684
430 1.36036
435 1.11878
440 1.0022
445 1.45161
450 1.32937
455 1.65101
460 1.07029
465 2.00751
470 1.57236
475 1.48006
480 1.72911
485 1.45392
490 1.08827
495 1.24893
500 1.0073
505 1.14024
510 1.06023
515 1.14442
520 1.07478
525 0.97477
530 1.12373
535 1.01333
540 1.50532
545 1.44531
550 1.76754
555 1.7167
560 1.28479
565 1.14234
570 0.811631
575 1.03105
580 1.44025
585 1.17036
590 0.764482
595 0.735272
600 0.0836711
Ex : 283
200 1.12897
205 0.638008
210 0.768861
215 0.709391
220 0.567981
225 0.613593
230 0.801133
235 1.09466
240 1.00142
245 0.63518
250 0.616726
255 1.01878
260 0.840613
265 1.14951
270 0.520391
275 1.0605
280 1.06697
285 0.632236
290 1.0584
295 0.600704
300 1.0376
305 0.854717
310 0.604737
315 0.723972
320 0.828169
325 0.808561
330 0.623359
335 0.941493
340 0.943725
345 1.08942
350 1.19625
355 1.31815
360 1.04302
365 0.810195
370 0.822414
375 1.0005
380 1.62558
385 1.06682
390 1.1488
395 1.42823
400 1.03128
405 1.55478
410 1.23142
415 1.7398
420 1.07042
425 1.58455
430 1.35211
435 1.40833
440 1.17046
445 1.46937
450 0.893934
455 1.27687
460 1.54867
465 1.3051
470 1.03913
475 1.08165
480 1.2823
485 1.1076
490 1.00044
495 0.734189
500 0.863003
505 0.752354
510 0.933856
515 0.752356
520 1.06746
525 0.754565
530 0.612168
535 0.595535
540 0.827905
545 1.17986
550 1.14951
555 1.5336
560 1.64383
565 1.1842
570 0.965964
575 0.69545
580 0.927417
585 0.576176
590 0.403018
595 0.433069
600 0.0492816
Ex : 288
200 0.519931
205 0.868804
210 0.7264
215 0.616883
220 0.477884
225 0.525469
230 0.383512
235 0.895741
240 0.746491
245 0.550713
250 0.618051
255 0.908112
260 0.448266
265 0.508106
270 0.449131
275 0.782137
280 0.550309
285 0.772626
290 0.780383
295 0.442765
300 0.610286
305 0.739594
310 0.3766
315 0.509361
320 0.865032
325 0.69994
330 0.695864
335 0.963329
340 1.15573
345 1.03972
350 0.705497
355 0.884489
360 0.927252
365 1.0523
370 0.900339
375 1.13688
380 1.05994
385 0.977473
390 1.74336
395 1.1612
400 1.10201
405 1.59471
410 1.43298
415 1.06374
420 1.04624
425 1.16299
430 0.953355
435 1.31474
440 1.43807
445 1.05245
450 1.47305
455 1.05331
460 1.32059
465 1.3531
470 1.09867
475 1.03175
480 1.12608
485 1.03392
490 0.832674
495 0.627834
500 0.983238
505 0.846802
510 0.728769
515 0.76156
520 0.784379
525 0.828369
530 0.790344
535 0.710333
540 0.739407
545 0.725733
550 0.468437
555 0.768038
560 0.582524
565 0.929716
570 1.73866
575 1.94886
580 1.04498
585 0.597423
590 0.638681
595 0.762465
600 0.756822
Ex : 293
200 0.51535
205 0.342713
210 0.526989
215 0.356996
220 0.550686
225 0.530908
230 0.708474
235 0.731483
240 0.407286
245 0.689271
250 0.41389
255 0.4922
260 0.29428
265 0.306615
270 0.489514
275 0.621605
280 0.667228
285 0.815844
290 0.958913
295 0.734807
300 0.583172
305 0.621234
310 0.676649
315 0.395125
320 0.432873
325 0.848537
330 0.662908
335 0.840794
340 0.719685
345 0.943731
350 1.05413
355 0.618028
360 1.05974
365 0.88674
370 1.04854
375 1.35238
380 1.12939
385 1.16376
390 0.950432
395 1.07945
400 1.16291
405 1.24511
410 0.930957
415 1.23367
420 1.37452
425 1.43955
430 1.24098
435 1.051
440 0.975967
445 0.822602
450 0.995861
455 0.866242
460 0.942134
465 0.980908
470 0.912008
475 0.74963
480 1.14857
485 1.19415
490 0.872312
495 0.959562
500 0.536017
505 0.687867
510 0.504225
515 0.633544
520 1.08541
525 0.933631
530 0.821457
535 0.765848
540 0.480225
545 0.774299
550 0.429548
555 0.390721
560 0.537046
565 0.602608
570 0.924081
575 1.09092
580 1.43201
585 1.24511
590 0.957157
595 0.578487
600 0.273239
Ex : 298
200 0.601728
205 0.347594
210 0.421559
215 0.576308
220 0.414201
225 0.425673
230 0.360396
235 0.623352
240 0.35238
245 0.469469
250 0.534905
255 0.320021
260 0.410062
265 0.636698
270 0.44013
275 0.506567
280 0.556087
285 0.568471
290 0.964474
295 0.881122
300 0.468586
305 0.571691
310 0.361105
315 0.477889
320 0.460752
325 0.361214
330 0.644978
335 0.694708
340 0.763708
345 0.770947
350 0.911908
355 0.696377
360 0.834333
365 0.841649
370 0.966453
375 0.972221
380 1.48699
385 1.05542
390 1.30223
395 1.41252
400 1.16797
405 1.39268
410 1.39355
415 0.935315
420 1.55271
425 1.43543
430 1.25064
435 1.15148
440 0.807849
445 1.07776
450 0.919961
455 1.23132
460 0.856558
465 0.796683
470 0.796618
475 0.632372
480 0.74759
485 0.732475
490 0.532787
495 0.595769
500 0.687638
505 0.711971
510 0.533788
515 0.354718
520 0.608663
525 0.616965
530 0.491748
535 0.639039
540 0.393221
545 0.777466
550 0.752738
555 0.599294
560 0.487716
565 0.661769
570 0.36721
575 0.406443
580 0.572702
585 0.682653
590 1.24837
595 1.60607
600 1.17974
Ex : 303
200 0.497544
205 0.27284
210 0.242049
215 0.342079
220 0.346338
225 0.337721
230 0.418087
235 0.440695
240 0.422053
245 0.520625
250 0.54445
255 0.575039
260 0.534129
265 0.402072
270 0.448237
275 0.251358
280 0.553724
285 0.426359
290 0.369948
295 0.551008
300 0.718527
305 0.478395
310 0.517205
315 0.501457
320 0.437491
325 0.62629
330 0.545912
335 0.481814
340 0.575966
345 0.619839
350 0.585684
355 0.700906
360 1.08669
365 0.63237
370 0.691293
375 1.05396
380 0.874413
385 0.944257
390 1.32001
395 1.35034
400 1.49656
405 1.34864
410 1.10985
415 1.23749
420 0.979545
425 1.06263
430 0.976568
435 0.930202
440 0.90347
445 1.28576
450 0.94973
455 0.734322
460 0.804395
465 0.941322
470 0.666579
475 0.66933
480 0.663366
485 0.774552
490 0.718832
495 0.692526
500 0.562743
505 0.474982
510 0.428841
515 0.800608
520 0.466052
525 0.526546
530 0.404592
535 0.603785
540 0.52893
545 0.429835
550 0.377212
555 0.482174
560 0.492393
565 0.56099
570 0.614278
575 0.608542
580 0.619446
585 0.398901
590 0.711313
595 0.713135
600 1.2673
Ex : 308
200 0.398613
205 0.255546
210 0.289415
215 0.291201
220 0.327946
225 0.322517
230 0.294732
235 0.249031
240 0.420569
245 0.269631
250 0.221975
255 0.312734
260 0.528088
265 0.336665
270 0.347789
275 0.490821
280 0.223258
285 0.413993
290 0.335001
295 0.3731
300 0.573237
305 0.713174
310 0.52144
315 0.342876
320 0.471774
325 0.419048
330 0.558445
335 0.622818
340 0.575625
345 0.686172
350 0.659674
355 0.615465
360 0.651823
365 0.867265
370 0.858886
375 1.03743
380 1.02329
385 1.01779
390 0.970067
395 0.666195
400 1.10232
405 0.898429
410 1.34898
415 1.08528
420 1.00823
425 1.17604
430 1.31553
435 1.11517
440 1.07353
445 0.816518
450 1.10606
455 0.869295
460 0.772331
465 1.05449
470 0.931884
475 0.769516
480 0.789269
485 0.738891
490 0.641572
495 0.567497
500 0.877352
505 0.588035
510 0.557018
515 0.608128
520 0.366181
525 0.283065
530 0.52683
535 0.449326
540 0.380047
545 0.265835
550 0.304115
555 0.426565
560 0.268615
565 0.361389
570 0.326797
575 0.333375
580 0.436521
585 0.350789
590 0.229311
595 0.31232
600 0.0355409
Ex : 313
200 0.182473
205 0.345352
210 0.276006
215 0.357207
220 0.470214
225 0.268981
230 0.423164
235 0.278593
240 0.247057
245 0.236326
250 0.359383
255 0.477117
260 0.221634
265 0.261196
270 0.452755
275 0.468968
280 0.272773
285 0.345148
290 0.428134
295 0.259108
300 0.27529
305 0.633571
310 0.622658
315 0.406555
320 0.330449
325 0.556083
330 0.664455
335 0.588884
340 0.613601
345 0.599266
350 0.730062
355 0.675186
360 0.805837
365 0.994763
370 1.01781
375 1.10213
380 1.45124
385 1.73078
390 1.60904
395 1.60639
400 1.63958
405 2.02646
410 1.84988
415 1.90999
420 1.87876
425 1.77478
430 1.68824
435 1.46137
440 1.9081
445 1.73242
450 1.46662
455 1.61239
460 1.47488
465 1.37677
470 1.30508
475 1.03575
480 1.19947
485 1.02996
490 0.999249
495 0.816571
500 0.562059
505 0.503023
510 0.529347
515 0.656031
520 0.4395
525 0.451151
530 0.711931
535 0.55587
540 0.378772
545 0.458184
550 0.349187
555 0.407325
560 0.350082
565 0.418416
570 0.501612
575 0.281239
580 0.264645
585 0.291907
590 0.319863
595 0.298025
600 0.0339142
Ex : 318
200 0.298318
205 0.264088
210 0.203354
215 0.371449
220 0.351357
225 0.230911
230 0.214423
235 0.349219
240 0.650605
245 0.366734
250 0.210578
255 0.345288
260 0.373583
265 0.262507
270 0.306366
275 0.380636
280 0.248109
285 0.258153
290 0.25754
295 0.278595
300 0.300729
305 0.332633
310 0.889661
315 1.34114
320 0.680859
325 0.574924
330 0.870154
335 1.02644
340 1.70712
345 2.2413
350 3.42595
355 3.93072
360 4.77117
365 5.59407
370 6.96413
375 8.2575
380 10.0272
385 10.7575
390 11.8018
395 12.1327
400 12.9098
405 12.7516
410 12.8237
415 13.0301
420 12.9051
425 11.8892
430 12.3603
435 11.9224
440 11.5755
445 11.1017
450 10.827
455 9.55902
460 9.32482
465 8.53446
470 7.69759
475 6.8795
480 6.52215
485 5.76286
490 4.85336
495 4.39956
500 3.70032
505 4.11421
510 3.45595
515 2.92459
520 2.37953
525 1.94795
530 1.71147
535 1.588
540 1.62661
545 1.36863
550 0.907515
555 0.900089
560 0.859229
565 0.778437
570 0.618775
575 0.396076
580 0.404795
585 0.373342
590 0.364424
595 0.273538
600 0.206421
Ex : 323
200 0.240331
205 0.248435
210 0.216115
215 0.278354
220 0.372807
225 0.225776
230 0.283118
235 0.273291
240 0.211271
245 0.251442
250 0.224263
255 0.324755
260 0.212224
265 0.174892
270 0.172189
275 0.300835
280 0.272061
285 0.245847
290 0.219504
295 0.278092
300 0.392517
305 0.272142
310 0.172703
315 5.08712
320 21.6706
325 9.93063
330 3.3621
335 4.00363
340 5.02084
345 6.79622
350 9.75971
355 13.496
360 16.0818
365 19.0825
370 22.5425
375 25.4794
380 29.4084
385 32.9842
390 35.251
395 37.7801
400 38.6875
405 39.021
410 39.7619
415 41.2814
420 40.4625
425 39.4127
430 37.4453
435 36.152
440 36.0114
445 34.2406
450 32.7699
455 30.4754
460 28.6805
465 26.0607
470 23.8602
475 21.4938
480 20.4312
485 18.8711
490 15.926
495 15.1418
500 13.5338
505 10.9488
510 9.49807
515 8.71362
520 7.43879
525 6.25239
530 6.02997
535 4.99113
540 4.2324
545 3.72843
550 3.15613
555 2.67626
560 2.32057
565 1.95586
570 1.79209
575 1.25794
580 0.995809
585 0.72751
590 0.703172
595 0.697214
600 0.629991
Ex : 328
200 0.223983
205 0.20724
210 0.237642
215 0.260422
220 0.186658
225 0.249282
230 0.289411
235 0.267294
240 0.227806
245 0.268866
250 0.244294
255 0.259679
260 0.24302
265 0.225599
270 0.224475
275 0.342445
280 0.213824
285 0.257661
290 0.229151
295 0.260288
300 0.284982
305 0.267553
310 0.268961
315 1.44583
320 56.2985
325 146.236
330 49.7101
335 9.91237
340 6.611
345 7.5165
350 9.50324
355 13.254
360 18.1059
365 20.5865
370 22.808
375 25.1474
380 28.3586
385 31.0703
390 34.5501
395 35.9323
400 36.8014
405 38.1225
410 39.8929
415 40.023
420 37.8479
425 38.2739
430 36.9663
435 36.4748
440 35.0324
445 32.9207
450 31.8827
455 29.7126
460 26.8658
465 25.3397
470 24.6932
475 22.6722
480 20.3346
485 17.756
490 16.5127
495 15.4515
500 14.0179
505 12.0898
510 10.9248
515 9.44544
520 8.07326
525 7.21922
530 6.23091
535 5.74828
540 4.91468
545 4.47152
550 3.78018
555 3.12077
560 3.0289
565 2.44081
570 1.92046
575 1.57736
580 1.26203
585 1.15913
590 0.682071
595 0.752508
600 0.31107
Ex : 333
200 0.188509
205 0.200454
210 0.300647
215 0.243372
220 0.364688
225 0.269968
230 0.220176
235 0.265565
240 0.241503
245 0.20833
250 0.238668
255 0.20254
260 0.234571
265 0.169975
270 0.280726
275 0.225739
280 0.154033
285 0.300037
290 0.320721
295 0.338897
300 0.265347
305 0.474315
310 0.386429
315 0.404926
320 11.136
325 203.106
330 354.034
335 99
340 15.276
345 6.95578
350 6.57305
355 6.79111
360 10.2538
365 14.6125
370 15.3488
375 15.6027
380 16.7658
385 16.8755
390 18.4363
395 19.5174
400 20.6777
405 21.2726
410 21.6937
415 22.8741
420 22.4831
425 21.5905
430 20.5701
435 21.2616
440 20.6902
445 20.1415
450 19.414
455 18.5303
460 17.4411
465 16.5403
470 16.1885
475 15.3124
480 13.3883
485 12.6739
490 11.5566
495 11.1258
500 10.0831
505 8.95277
510 8.41617
515 7.13498
520 6.71564
525 5.79762
530 5.03946
535 4.69098
540 4.26226
545 3.65889
550 3.04776
555 2.7777
560 2.39681
565 2.05915
570 1.92138
575 1.3613
580 1.27286
585 1.04543
590 0.671063
595 0.586593
600 0.066752
Ex : 338
200 0.20334
205 0.196042
210 0.18094
215 0.177316
220 0.171047
225 0.21844
230 0.203592
235 0.171997
240 0.222629
245 0.179871
250 0.135927
255 0.315411
260 0.200714
265 0.171441
270 0.204283
275 0.284492
280 0.260604
285 0.286115
290 0.2882
295 0.208492
300 0.304011
305 0.38508
310 0.373797
315 0.391227
320 0.587648
325 26.6913
330 345.948
335 484.346
340 127.096
345 17.9556
350 6.14128
355 4.5421
360 4.49646
365 6.3829
370 10.6793
375 11.1215
380 10.248
385 9.12799
390 9.72159
395 10.0025
400 10.8931
405 11.904
410 13.0251
415 14.4285
420 13.4502
425 13.7163
430 13.5103
435 14.4292
440 14.5408
445 14.6924
450 13.9338
455 13.1701
460 13.4743
465 13.21
470 12.0218
475 12.0317
480 11.2629
485 10.6205
490 10.6142
495 9.87666
500 8.76661
505 8.55291
510 7.38768
515 6.87483
520 6.51625
525 5.40046
530 5.31677
535 4.51204
540 4.1907
545 3.74829
550 3.11361
555 2.92446
560 2.59524
565 2.07812
570 1.89042
575 1.38326
580 1.13404
585 0.850675
590 0.756581
595 0.743851
600 1.61125
Ex : 343
200 0.299555
205 0.249801
210 0.181162
215 0.132077
220 0.209237
225 0.201505
230 0.181793
235 0.147814
240 0.13685
245 0.273896
250 0.259106
255 0.210497
260 0.206186
265 0.245476
270 0.228472
275 0.31078
280 0.189297
285 0.293754
290 0.22132
295 0.292692
300 0.232657
305 0.304714
310 0.318175
315 0.279572
320 0.476466
325 0.628245
330 34.2395
335 398.014
340 542.83
345 138.173
350 18.7981
355 5.14945
360 3.31539
365 2.92506
370 4.32057
375 8.26526
380 9.69577
385 7.77262
390 6.82864
395 6.85892
400 7.7488
405 9.08269
410 10.5756
415 11.8315
420 11.9485
425 11.9161
430 12.5093
435 13.1068
440 13.8147
445 14.1336
450 13.7359
455 13.2758
460 13.6526
465 12.8188
470 13.2789
475 12.2241
480 12.0038
485 11.015
490 10.9395
495 9.93677
500 9.91952
505 9.04043
510 8.76134
515 7.84032
520 7.10381
525 6.32194
530 5.95834
535 4.92749
540 4.55721
545 3.87951
550 3.4331
555 3.19351
560 2.85817
565 2.56768
570 1.88191
575 1.69637
580 1.43969
585 1.23092
590 0.973307
595 0.759885
600 0.621763
Ex : 348
200 0.122015
205 0.165794
210 0.201792
215 0.224878
220 0.14778
225 0.160751
230 0.146171
235 0.25778
240 0.230975
245 0.138824
250 0.235724
255 0.138839
260 0.23892
265 0.234261
270 0.238256
275 0.284939
280 0.194397
285 0.199102
290 0.213041
295 0.158239
300 0.223488
305 0.249264
310 0.378658
315 0.300189
320 0.340005
325 0.500729
330 0.793735
335 33.5961
340 404.689
345 567.198
350 151.95
355 19.7414
360 4.96785
365 3.31736
370 2.39656
375 3.1604
380 6.41724
385 8.44522
390 7.51298
395 6.42784
400 6.53094
405 8.06748
410 10.3199
415 11.6284
420 12.0237
425 12.5308
430 12.7236
435 14.1959
440 14.7826
445 15.6083
450 15.0362
455 14.41
460 14.4573
465 15.5221
470 14.7052
475 14.2509
480 14.13
485 13.4246
490 12.2402
495 11.9018
500 11.3054
505 10.5269
510 9.91392
515 8.77921
520 8.12157
525 7.0735
530 6.82309
535 6.15735
540 5.4245
545 4.72976
550 4.48932
555 4.02012
560 3.30336
565 2.99696
570 2.55799
575 2.0822
580 1.65592
585 1.25791
590 1.16246
595 0.770806
600 0.377646
Ex : 353
200 0.162895
205 0.263347
210 0.144047
215 0.267081
220 0.180716
225 0.213495
230 0.138194
235 0.229015
240 0.179386
245 0.224662
250 0.267115
255 0.190162
260 0.161955
265 0.266256
270 0.205411
275 0.195192
280 0.207988
285 0.279629
290 0.130771
295 0.210204
300 0.254288
305 0.192839
310 0.185643
315 0.284272
320 0.252453
325 0.354651
330 0.475237
335 0.866424
340 34.0405
345 405.935
350 552.116
355 143.41
360 18.5028
365 4.3728
370 3.14286
375 2.65511
380 2.82934
385 5.41692
390 8.31832
395 8.44368
400 7.22544
405 8.50571
410 10.3916
415 11.5267
420 12.0167
425 12.3504
430 12.7965
435 14.3285
440 16.014
445 15.8459
450 15.9674
455 15.6933
460 15.673
465 16.0876
470 16.4643
475 16.1515
480 15.9941
485 15.3041
490 14.7238
495 13.6988
500 13.1364
505 12.2286
510 10.9687
515 10.2553
520 9.67327
525 8.57487
530 7.5083
535 6.82144
540 6.44518
545 5.73107
550 5.11607
555 4.31493
560 3.82708
565 3.39703
570 2.70738
575 2.1857
580 1.67882
585 1.75937
590 1.03096
595 0.836959
600 0.465746
Ex : 358
200 0.143344
205 0.140432
210 0.134826
215 0.144419
220 0.169575
225 0.183617
230 0.166198
235 0.156747
240 0.156883
245 0.171867
250 0.288542
255 0.162848
260 0.131755
265 0.251741
270 0.138241
275 0.201258
280 0.273419
285 0.188144
290 0.216196
295 0.259631
300 0.204189
305 0.142652
310 0.210575
315 0.167116
320 0.189536
325 0.22266
330 0.400301
335 0.547985
340 0.927551
345 30.316
350 388.603
355 553.813
360 145.428
365 18.8848
370 4.32046
375 3.19545
380 3.05306
385 3.03693
390 4.85732
395 8.86236
400 9.51599
405 9.50635
410 11.3793
415 12.6638
420 12.7526
425 13.0797
430 14.3504
435 15.242
440 16.7349
445 17.2592
450 17.0011
455 17.3502
460 17.2469
465 17.7382
470 18.16
475 18.0343
480 16.9266
485 16.4045
490 15.5534
495 15.625
500 14.1688
505 13.4829
510 12.9606
515 11.635
520 10.4979
525 9.63873
530 8.63608
535 7.72154
540 7.06431
545 6.19337
550 5.41918
555 4.81896
560 4.28787
565 3.63537
570 3.02479
575 2.38207
580 1.84503
585 1.71379
590 1.34572
595 1.01949
600 0.295141
Ex : 363
200 0.133798
205 0.14962
210 0.141943
215 0.14313
220 0.171779
225 0.134916
230 0.175372
235 0.14852
240 0.0928643
245 0.168413
250 0.168947
255 0.128476
260 0.159013
265 0.125789
270 0.211306
275 0.150496
280 0.114739
285 0.136545
290 0.12352
295 0.191612
300 0.169924
305 0.185684
310 0.172246
315 0.149144
320 0.192599
325 0.222963
330 0.289629
335 0.389784
340 0.510415
345 0.828076
350 29.074
355 373.505
360 541.719
365 146.189
370 18.7695
375 4.36454
380 3.34413
385 3.01077
390 3.19577
395 4.60969
400 9.41182
405 12.3559
410 14.1402
415 15.1719
420 15.151
425 15.1322
430 16.0322
435 18.0222
440 19.7534
445 20.2355
450 19.8679
455 19.7038
460 20.4447
465 20.9175
470 20.8652
475 20.7097
480 19.8572
485 19.2341
490 18.4952
495 17.6998
500 16.6499
505 15.8748
510 14.4133
515 13.2024
520 12.2111
525 10.892
530 9.64778
535 8.71688
540 8.23983
545 7.07359
550 6.15309
555 5.489
560 5.19962
565 4.26373
570 3.52567
575 2.68664
580 2.31882
585 1.70364
590 1.23935
595 1.04722
600 0.564477
Ex : 368
200 0.0949089
205 0.147373
210 0.174779
215 0.138952
220 0.129013
225 0.114325
230 0.160102
235 0.133546
240 0.144167
245 0.103994
250 0.167357
255 0.16443
260 0.138408
265 0.235039
270 0.249135
275 0.12049
280 0.116968
285 0.134322
290 0.150446
295 0.216874
300 0.131687
305 0.226276
310 0.156265
315 0.0967861
320 0.20609
325 0.206774
330 0.251124
335 0.257183
340 0.313266
345 0.454817
350 0.810124
355 22.6524
360 349.662
365 540.022
370 148.693
375 19.2984
380 4.45854
385 3.49883
390 3.26266
395 3.31331
400 4.81347
405 9.96148
410 14.6707
415 15.4154
420 15.4565
425 14.2781
430 15.2747
435 17.7077
440 19.044
445 19.4483
450 19.542
455 19.7334
460 20.568
465 21.3708
470 21.7331
475 21.8317
480 21.1174
485 20.86
490 20.4705
495 19.4363
500 19.0593
505 17.9896
510 16.4069
515 15.1597
520 13.9328
525 12.9833
530 11.4089
535 9.9543
540 9.19862
545 8.31028
550 7.27803
555 6.38846
560 5.56439
565 4.95807
570 4.05233
575 3.2832
580 2.54602
585 1.60012
590 1.48559
595 1.10485
600 2.1105
Ex : 373
200 0.146746
205 0.23329
210 0.138017
215 0.170992
220 0.166867
225 0.0823685
230 0.134864
235 0.160011
240 0.162539
245 0.177998
250 0.159877
255 0.153344
260 0.115186
265 0.170653
270 0.154416
275 0.222428
280 0.172474
285 0.170681
290 0.157924
295 0.191522
300 0.101493
305 0.162155
310 0.159541
315 0.187595
320 0.195804
325 0.19765
330 0.287602
335 0.277518
340 0.236696
345 0.417878
350 0.504512
355 0.805743
360 26.4767
365 360.719
370 571.611
375 156.974
380 20.4937
385 4.60207
390 3.32355
395 3.52188
400 4.22801
405 6.42145
410 11.1901
415 15.3373
420 14.627
425 14.0471
430 13.7944
435 15.7066
440 16.4061
445 17.6207
450 18.2048
455 18.6422
460 19.3461
465 20.6097
470 21.0946
475 21.7995
480 21.6222
485 21.3898
490 20.1201
495 19.7829
500 19.5649
505 18.3152
510 16.9478
515 15.7407
520 14.5687
525 13.2786
530 11.6879
535 10.9347
540 9.96606
545 8.9583
550 8.05518
555 7.367
560 6.10496
565 5.05386
570 4.2515
575 3.40241
580 2.75271
585 2.10402
590 1.53403
595 1.33455
600 1.178
Ex : 378
200 0.115966
205 0.125824
210 0.122084
215 0.153313
220 0.11987
225 0.179354
230 0.188374
235 0.138441
240 0.137767
245 0.110126
250 0.210449
255 0.14855
260 0.146676
265 0.120749
270 0.134723
275 0.134046
280 0.123797
285 0.172509
290 0.155557
295 0.163763
300 0.122396
305 0.14606
310 0.150181
315 0.116324
320 0.171963
325 0.23991
330 0.167353
335 0.261368
340 0.283372
345 0.368859
350 0.359998
355 0.547319
360 0.857554
365 24.247
370 363.367
375 553.905
380 154.536
385 20.3477
390 5.06021
395 4.34742
400 4.78663
405 6.22415
410 9.51534
415 13.0731
420 16.0583
425 15.6884
430 15.2611
435 16.2638
440 17.4167
445 18.0928
450 18.7159
455 18.8205
460 19.4538
465 21.0353
470 21.3107
475 21.5497
480 21.3071
485 20.6571
490 20.2099
495 19.6956
500 19.0865
505 17.5128
510 16.3361
515 15.0093
520 13.5166
525 12.6324
530 11.5986
535 10.6193
540 9.60902
545 8.62205
550 7.49023
555 6.57697
560 5.71489
565 5.01098
570 3.93205
575 3.27387
580 2.604
585 1.9275
590 1.61442
595 1.34463
600 1.32251
Ex : 383
200 0.13074
205 0.138199
210 0.128553
215 0.108541
220 0.130306
225 0.144155
230 0.127875
235 0.124688
240 0.199887
245 0.0916557
250 0.1086
255 0.12495
260 0.11764
265 0.141244
270 0.104836
275 0.116612
280 0.157565
285 0.177748
290 0.196238
295 0.130174
300 0.152296
305 0.159359
310 0.159083
315 0.121919
320 0.171079
325 0.153805
330 0.126878
335 0.192699
340 0.255831
345 0.193252
350 0.250746
355 0.330113
360 0.486771
365 0.798709
370 23.5197
375 358.733
380 568.883
385 158.704
390 20.9045
395 5.35409
400 4.94059
405 7.49343
410 10.9353
415 12.881
420 14.11
425 16.7448
430 17.6833
435 19.1081
440 20.2462
445 19.8734
450 19.9412
455 20.0498
460 20.6141
465 21.8333
470 22.3419
475 22.5048
480 22.1076
485 21.5945
490 21.0541
495 20.4567
500 19.4428
505 18.303
510 17.2554
515 15.6246
520 14.2404
525 12.5882
530 11.9331
535 10.9684
540 9.7674
545 8.70222
550 7.63109
555 6.97207
560 5.86388
565 5.17264
570 4.28387
575 3.3413
580 2.62279
585 1.90591
590 1.71722
595 1.44007
600 1.30228
Ex : 388
200 0.132239
205 0.166379
210 0.119078
215 0.0982715
220 0.115177
225 0.10295
230 0.118492
235 0.200194
240 0.136149
245 0.11352
250 0.106118
255 0.0974989
260 0.109051
265 0.134556
270 0.186619
275 0.136398
280 0.159211
285 0.113433
290 0.107504
295 0.189377
300 0.145145
305 0.0996895
310 0.195482
315 0.181276
320 0.0956013
325 0.107158
330 0.178161
335 0.216233
340 0.154295
345 0.214133
350 0.288935
355 0.270421
360 0.339208
365 0.393195
370 0.786326
375 25.1526
380 358.111
385 550.86
390 153.728
395 20.26
400 5.81832
405 6.94018
410 10.475
415 12.4137
420 12.5662
425 12.5748
430 15.8016
435 19.2417
440 19.5587
445 19.7678
450 19.3487
455 19.1403
460 19.9267
465 21.3301
470 21.9258
475 22.5706
480 21.9503
485 21.4427
490 20.8034
495 20.7715
500 19.612
505 18.8153
510 16.9788
515 15.7031
520 14.8486
525 13.6662
530 12.0666
535 11.1144
540 9.97041
545 9.00641
550 8.11444
555 7.07361
560 6.0747
565 5.5161
570 4.4624
575 3.52133
580 2.52342
585 2.04177
590 1.55559
595 1.3357
600 0.866024
Ex : 393
200 0.108371
205 0.149803
210 0.081706
215 0.112163
220 0.126338
225 0.085877
230 0.0880055
235 0.102307
240 0.0711587
245 0.134028
250 0.13168
255 0.138331
260 0.110629
265 0.110997
270 0.127398
275 0.117317
280 0.118423
285 0.161623
290 0.107526
295 0.133068
300 0.118927
305 0.164297
310 0.110909
315 0.146218
320 0.133381
325 0.116564
330 0.128064
335 0.200732
340 0.170212
345 0.195038
350 0.159899
355 0.206552
360 0.218603
365 0.411779
370 0.410102
375 0.70707
380 21.0975
385 347.845
390 556.037
395 156.906
400 21.0323
405 7.0355
410 8.11884
415 9.98945
420 9.84996
425 9.68522
430 10.8076
435 13.8425
440 17.8739
445 17.7025
450 17.084
455 17.0494
460 18.0349
465 19.1257
470 19.9586
475 20.8302
480 21.039
485 20.4452
490 20.3404
495 19.9667
500 19.7706
505 18.857
510 17.3524
515 16.2004
520 14.8667
525 13.4052
530 12.4501
535 11.148
540 10.1156
545 9.1607
550 8.09971
555 6.96357
560 6.46973
565 5.26666
570 4.41004
575 3.74605
580 2.83877
585 2.28785
590 1.67524
595 1.37787
600 1.62207
Ex : 398
200 0.0805587
205 0.128744
210 0.13066
215 0.100193
220 0.131735
225 0.119739
230 0.109266
235 0.124707
240 0.140181
245 0.168596
250 0.102945
255 0.0793495
260 0.127969
265 0.122456
270 0.0785503
275 0.0760316
280 0.117345
285 0.100704
290 0.122907
295 0.0892514
300 0.130138
305 0.110743
310 0.149757
315 0.118089
320 0.136907
325 0.124999
330 0.135163
335 0.141836
340 0.0950529
345 0.168258
350 0.22955
355 0.193263
360 0.210998
365 0.262816
370 0.296104
375 0.454958
380 0.780614
385 21.7345
390 356.146
395 565.616
400 156.316
405 22.2983
410 9.24922
415 9.30914
420 9.62388
425 9.06036
430 9.46838
435 11.2949
440 14.0027
445 16.8359
450 17.2264
455 17.3853
460 17.7321
465 18.4742
470 19.7602
475 20.5711
480 20.7832
485 20.5792
490 20.1671
495 20.5259
500 19.755
505 18.6154
510 17.6885
515 16.4146
520 14.7272
525 13.6057
530 12.6643
535 11.6668
540 10.9449
545 9.3741
550 8.27588
555 7.3357
560 6.47051
565 5.3636
570 4.56826
575 3.92556
580 2.95139
585 2.38125
590 1.78086
595 1.35621
600 1.57708
Ex : 403
200 0.115394
205 0.094002
210 0.0989891
215 0.134073
220 0.136046
225 0.153141
230 0.157477
235 0.104306
240 0.124381
245 0.145817
250 0.150566
255 0.153981
260 0.0917678
265 0.123759
270 0.126482
275 0.0949771
280 0.0903269
285 0.117715
290 0.106722
295 0.118501
300 0.0792809
305 0.0949439
310 0.137051
315 0.152231
320 0.133065
325 0.1535
330 0.143122
335 0.153154
340 0.228927
345 0.124233
350 0.20987
355 0.14611
360 0.17369
365 0.211373
370 0.224957
375 0.316453
380 0.513631
385 0.781757
390 23.3433
395 356.463
400 555.204
405 158.477
410 25.4211
415 11.2172
420 9.9905
425 10.1806
430 10.6339
435 12.2137
440 13.705
445 15.1922
450 18.018
455 19.0766
460 19.4421
465 20.545
470 20.92
475 21.4386
480 21.6408
485 21.4841
490 20.8164
495 20.8856
500 20.3497
505 19.5081
510 18.1029
515 16.9938
520 15.4315
525 13.9586
530 12.8894
535 11.601
540 10.3526
545 9.32908
550 8.51952
555 7.47816
560 6.52215
565 5.71492
570 4.54997
575 3.64013
580 2.92836
585 2.35348
590 1.79733
595 1.41872
600 0.986531
Ex : 408
200 0.0658804
205 0.115625
210 0.100157
215 0.136081
220 0.1204
225 0.0741059
230 0.121668
235 0.157236
240 0.0937162
245 0.0958708
250 0.150501
255 0.0857138
260 0.0989408
265 0.137126
270 0.14823
275 0.0928781
280 0.10073
285 0.0883313
290 0.0947603
295 0.131557
300 0.131199
305 0.207403
310 0.182034
315 0.16028
320 0.14157
325 0.129555
330 0.0971328
335 0.194676
340 0.160181
345 0.148535
350 0.125364
355 0.1384
360 0.189455
365 0.187431
370 0.180581
375 0.268066
380 0.423411
385 0.473781
390 0.774763
395 22.3923
400 366.258
405 568.74
410 159.367
415 26.3108
420 11.1603
425 9.1636
430 10.0486
435 11.5124
440 12.5915
445 13.6573
450 14.4467
455 16.9005
460 19.5248
465 19.9331
470 20.6044
475 21.4711
480 20.7784
485 20.8166
490 20.8261
495 20.3844
500 20.0722
505 18.7766
510 17.6962
515 16.8032
520 15.1877
525 13.8371
530 12.8666
535 11.5563
540 10.7754
545 9.61878
550 8.48113
555 7.53734
560 6.83153
565 5.59646
570 4.93804
575 3.92611
580 3.08707
585 2.34868
590 1.80935
595 1.33948
600 0.977724
Ex : 413
200 0.1364
205 0.118931
210 0.109182
215 0.0764444
220 0.145066
225 0.123823
230 0.138461
235 0.0691241
240 0.108359
245 0.129472
250 0.100527
255 0.119879
260 0.128137
265 0.105296
270 0.0947165
275 0.0753174
280 0.138832
285 0.125781
290 0.165859
295 0.105406
300 0.0894763
305 0.0979496
310 0.0919307
315 0.105468
320 0.162464
325 0.125409
330 0.128758
335 0.144027
340 0.11645
345 0.15328
350 0.161453
355 0.211795
360 0.156605
365 0.186534
370 0.240378
375 0.272146
380 0.244493
385 0.293527
390 0.419074
395 0.942496
400 25.4645
405 374.95
410 574.574
415 154.77
420 23.4885
425 7.90912
430 7.00821
435 8.06456
440 9.26097
445 9.67954
450 10.7934
455 12.0959
460 14.3664
465 18.1516
470 18.814
475 18.8335
480 18.9561
485 18.6908
490 18.8178
495 18.6392
500 18.9647
505 17.8062
510 16.915
515 15.7789
520 14.7246
525 13.4392
530 12.4129
535 11.0261
540 10.2108
545 9.22447
550 8.19184
555 7.23757
560 6.34326
565 5.51169
570 4.57353
575 3.56082
580 2.91846
585 2.25583
590 1.72551
595 1.4511
600 1.01293
Ex : 418
200 0.109035
205 0.0923872
210 0.105356
215 0.103312
220 0.078243
225 0.11901
230 0.0944099
235 0.0756221
240 0.12227
245 0.100113
250 0.116153
255 0.134233
260 0.163594
265 0.111247
270 0.0664093
275 0.0990009
280 0.108688
285 0.105859
290 0.0892792
295 0.127473
300 0.144297
305 0.140046
310 0.0945702
315 0.11452
320 0.104611
325 0.141128
330 0.127217
335 0.133309
340 0.145056
345 0.155266
350 0.204061
355 0.114125
360 0.11687
365 0.196756
370 0.222066
375 0.232484
380 0.194392
385 0.257377
390 0.332713
395 0.459577
400 0.992201
405 24.2651
410 373.316
415 580.936
420 160.594
425 21.7573
430 5.88298
435 4.45699
440 5.32385
445 6.3135
450 7.0723
455 8.81822
460 10.3149
465 12.6218
470 15.5364
475 16.94
480 16.7449
485 17.1576
490 17.2852
495 16.8985
500 16.7238
505 16.0697
510 14.9539
515 14.012
520 13.3392
525 12.5594
530 11.5414
535 10.3048
540 9.32417
545 8.14804
550 7.49904
555 6.57369
560 6.11826
565 5.12816
570 4.09573
575 3.58556
580 2.742
585 2.03723
590 1.69899
595 1.38969
600 1.228
Ex : 423
200 0.0817581
205 0.0906948
210 0.140073
215 0.106686
220 0.109678
225 0.101524
230 0.101694
235 0.169893
240 0.107626
245 0.119299
250 0.0968734
255 0.124878
260 0.129028
265 0.153945
270 0.113175
275 0.11951
280 0.123306
285 0.103708
290 0.0962779
295 0.128041
300 0.116097
305 0.113546
310 0.0876165
315 0.128992
320 0.0705674
325 0.110761
330 0.104913
335 0.121944
340 0.105925
345 0.0839252
350 0.123708
355 0.157867
360 0.160256
365 0.131602
370 0.156988
375 0.165077
380 0.16389
385 0.236021
390 0.301419
395 0.360723
400 0.574149
405 1.01207
410 24.6298
415 402.49
420 604.881
425 158.639
430 20.5876
435 4.5886
440 3.33897
445 4.36594
450 5.55726
455 6.63674
460 8.29274
465 9.54757
470 11.4426
475 14.2134
480 16.0904
485 15.3875
490 15.7558
495 15.6449
500 14.8185
505 14.1233
510 14.093
515 13.0725
520 11.907
525 11.252
530 10.4983
535 9.45539
540 8.7399
545 7.87024
550 7.13101
555 6.32303
560 5.24824
565 4.77024
570 3.99245
575 3.14042
580 2.61147
585 1.82152
590 1.52818
595 1.21353
600 1.84077
Ex : 428
200 0.143673
205 0.132107
210 0.14678
215 0.105922
220 0.139291
225 0.151581
230 0.200979
235 0.102121
240 0.0917708
245 0.114644
250 0.145139
255 0.132574
260 0.104256
265 0.100343
270 0.0997474
275 0.113676
280 0.126269
285 0.110094
290 0.137886
295 0.110371
300 0.106214
305 0.117783
310 0.116502
315 0.0770601
320 0.123876
325 0.133777
330 0.147359
335 0.110672
340 0.12706
345 0.131031
350 0.163983
355 0.11723
360 0.150817
365 0.145076
370 0.133999
375 0.192872
380 0.197986
385 0.155336
390 0.250282
395 0.235102
400 0.313191
405 0.486638
410 0.979431
415 27.5444
420 419.912
425 647.68
430 174.922
435 22.268
440 4.92712
445 3.24956
450 4.66171
455 6.08799
460 7.46802
465 8.39783
470 9.75317
475 10.9205
480 13.3534
485 15.3687
490 14.8575
495 14.4575
500 14.2543
505 13.0684
510 12.3043
515 11.7852
520 11.0945
525 10.2055
530 9.48698
535 8.59616
540 7.94735
545 6.89378
550 6.35729
555 5.60574
560 4.93439
565 4.37235
570 3.73487
575 2.98332
580 2.12111
585 1.72833
590 1.44251
595 1.14429
600 1.15916
Ex : 433
200 0.111584
205 0.06757
210 0.0736259
215 0.102091
220 0.101137
225 0.0952482
230 0.155602
235 0.112444
240 0.122225
245 0.145784
250 0.0940277
255 0.140676
260 0.119875
265 0.0867252
270 0.125641
275 0.100369
280 0.0958594
285 0.0805922
290 0.128071
295 0.0889022
300 0.0971329
305 0.115919
310 0.170113
315 0.158889
320 0.132481
325 0.119217
330 0.117779
335 0.13059
340 0.136733
345 0.143545
350 0.149179
355 0.177493
360 0.147766
365 0.163451
370 0.174786
375 0.136332
380 0.192798
385 0.195818
390 0.231326
395 0.217686
400 0.318952
405 0.398459
410 0.531803
415 0.996943
420 32.1051
425 443.914
430 636.018
435 165.489
440 21.2639
445 4.92743
450 3.93953
455 5.19549
460 6.44612
465 7.36232
470 8.10614
475 9.05224
480 10.4564
485 11.8817
490 13.769
495 13.4446
500 12.4761
505 12.0301
510 10.9287
515 10.0855
520 9.52569
525 9.06647
530 8.34302
535 7.63702
540 6.70166
545 6.43658
550 5.62519
555 4.81893
560 4.577
565 3.99694
570 3.15287
575 2.54606
580 1.9485
585 1.65288
590 1.25017
595 0.960809
600 1.00149
Ex : 438
200 0.141951
205 0.126787
210 0.0911166
215 0.0762496
220 0.0825272
225 0.112445
230 0.111757
235 0.102967
240 0.108563
245 0.125139
250 0.109868
255 0.114637
260 0.143888
265 0.111124
270 0.110505
275 0.172258
280 0.0800478
285 0.132724
290 0.181983
295 0.132263
300 0.10431
305 0.112807
310 0.0831358
315 0.104977
320 0.146267
325 0.126396
330 0.125625
335 0.127049
340 0.131585
345 0.166645
350 0.110513
355 0.144228
360 0.147532
365 0.198995
370 0.149023
375 0.173147
380 0.17269
385 0.246078
390 0.185635
395 0.259264
400 0.202283
405 0.311891
410 0.357961
415 0.521157
420 0.948254
425 31.8253
430 485.278
435 720.679
440 182.965
445 23.5287
450 5.82671
455 4.68781
460 5.53263
465 6.59578
470 7.28594
475 8.0128
480 8.55381
485 9.28763
490 10.1019
495 11.8044
500 12.1451
505 10.8165
510 10.0212
515 9.56827
520 8.43732
525 7.61306
530 7.27272
535 6.49189
540 5.93497
545 5.19007
550 4.96683
555 4.23422
560 3.83905
565 3.37567
570 2.74671
575 2.10949
580 1.80003
585 1.42313
590 1.13888
595 0.904957
600 0.628795
Ex : 443
200 0.123548
205 0.114437
210 0.101322
215 0.0557651
220 0.143364
225 0.136449
230 0.13088
235 0.123123
240 0.135132
245 0.136858
250 0.107611
255 0.12416
260 0.136342
265 0.148722
270 0.0872554
275 0.132797
280 0.112546
285 0.149652
290 0.119897
295 0.122075
300 0.0902997
305 0.157714
310 0.0866855
315 0.0937696
320 0.122931
325 0.134955
330 0.235047
335 0.177393
340 0.170582
345 0.146866
350 0.156124
355 0.174042
360 0.128092
365 0.180637
370 0.172885
375 0.140764
380 0.205745
385 0.159183
390 0.148064
395 0.204619
400 0.245924
405 0.257858
410 0.276899
415 0.388574
420 0.555858
425 0.959424
430 35.9959
435 485.619
440 693.024
445 176.675
450 23.1486
455 6.16559
460 4.64035
465 5.54142
470 6.12643
475 6.54946
480 7.01518
485 7.56558
490 7.66204
495 8.14289
500 9.58942
505 10.1292
510 8.6742
515 7.99148
520 7.5376
525 6.61836
530 6.06737
535 5.55717
540 5.03505
545 4.69522
550 4.14702
555 3.60546
560 3.25619
565 2.88551
570 2.5122
575 2.04921
580 1.59554
585 1.30398
590 0.98359
595 0.769961
600 0.183102
Ex : 448
200 0.121899
205 0.0890442
210 0.120089
215 0.102235
220 0.146208
225 0.12122
230 0.122691
235 0.127266
240 0.126002
245 0.182707
250 0.129997
255 0.110584
260 0.0956141
265 0.09778
270 0.0944545
275 0.153595
280 0.103988
285 0.0844859
290 0.107273
295 0.0794877
300 0.118386
305 0.108269
310 0.11471
315 0.124036
320 0.135808
325 0.108416
330 0.101463
335 0.0947457
340 0.147781
345 0.162833
350 0.136343
355 0.125712
360 0.121162
365 0.168211
370 0.178549
375 0.164796
380 0.144915
385 0.159637
390 0.24885
395 0.205316
400 0.177278
405 0.266074
410 0.239759
415 0.308749
420 0.38793
425 0.661312
430 0.999408
435 36.7092
440 520.257
445 746.766
450 191.825
455 25.1025
460 6.43033
465 4.52799
470 4.81861
475 5.46872
480 5.68221
485 5.78775
490 5.93301
495 6.00388
500 6.2815
505 6.9976
510 8.23908
515 7.11263
520 6.13296
525 5.81093
530 5.29157
535 4.54345
540 4.07887
545 3.74006
550 3.38668
555 3.00788
560 2.73421
565 2.36836
570 1.97182
575 1.73905
580 1.32559
585 1.01013
590 0.854341
595 0.587341
600 0.539179
Ex : 453
200 0.100482
205 0.108897
210 0.0930539
215 0.141981
220 0.14567
225 0.105506
230 0.119042
235 0.130117
240 0.178044
245 0.145063
250 0.0841926
255 0.0862462
260 0.125678
265 0.137559
270 0.124333
275 0.12816
280 0.132101
285 0.13371
290 0.102515
295 0.0960375
300 0.113846
305 0.152084
310 0.101008
315 0.115951
320 0.110296
325 0.143386
330 0.170012
335 0.130122
340 0.154257
345 0.126024
350 0.110081
355 0.156439
360 0.123005
365 0.122317
370 0.163563
375 0.125357
380 0.171611
385 0.192471
390 0.157616
395 0.141517
400 0.20429
405 0.197131
410 0.210454
415 0.270277
420 0.329498
425 0.448823
430 0.578878
435 1.11606
440 38.0438
445 565.129
450 773.549
455 186.168
460 24.1991
465 5.75614
470 3.95885
475 3.79401
480 4.42327
485 4.36809
490 4.49256
495 4.50369
500 4.39789
505 4.49606
510 4.7109
515 5.91186
520 5.85746
525 4.72546
530 4.31261
535 3.85494
540 3.42074
545 2.93623
550 2.7115
555 2.336
560 2.15282
565 1.91659
570 1.43505
575 1.32278
580 1.11004
585 0.930481
590 0.812153
595 0.594926
600 0.637002
Ex : 458
200 0.156566
205 0.14335
210 0.113042
215 0.0972574
220 0.120598
225 0.108348
230 0.132931
235 0.120067
240 0.140712
245 0.145268
250 0.139301
255 0.100657
260 0.100707
265 0.114005
270 0.169231
275 0.105022
280 0.0973633
285 0.126116
290 0.0861626
295 0.12533
300 0.114196
305 0.123326
310 0.112067
315 0.125348
320 0.127894
325 0.150315
330 0.146744
335 0.140255
340 0.12897
345 0.150705
350 0.120987
355 0.167869
360 0.132491
365 0.165587
370 0.154467
375 0.144158
380 0.151721
385 0.126464
390 0.160633
395 0.176451
400 0.125269
405 0.168411
410 0.254126
415 0.255108
420 0.29494
425 0.297844
430 0.40362
435 0.628154
440 1.10664
445 41.1166
450 572.34
455 812.49
460 202.635
465 26.0033
470 5.63214
475 3.20237
480 2.98009
485 3.43178
490 3.47197
495 3.25564
500 3.26495
505 3.15496
510 3.10281
515 3.44216
520 4.54657
525 4.90613
530 3.90707
535 3.33255
540 3.24084
545 2.78856
550 2.28776
555 2.01222
560 1.93333
565 1.74365
570 1.35324
575 1.22359
580 0.999097
585 0.777539
590 0.604991
595 0.519286
600 0.27845
Ex : 463
200 0.116455
205 0.113915
210 0.111496
215 0.101022
220 0.093692
225 0.10844
230 0.0848028
235 0.131287
240 0.0878724
245 0.0914791
250 0.127739
255 0.134295
260 0.152435
265 0.0750646
270 0.0985939
275 0.115813
280 0.0898579
285 0.0900366
290 0.104516
295 0.13005
300 0.082259
305 0.106664
310 0.134364
315 0.108499
320 0.103219
325 0.109169
330 0.133146
335 0.101704
340 0.135465
345 0.0896667
350 0.106194
355 0.0981478
360 0.136522
365 0.164436
370 0.141035
375 0.211536
380 0.121635
385 0.137387
390 0.155544
395 0.230551
400 0.200957
405 0.230106
410 0.20481
415 0.207368
420 0.214372
425 0.237916
430 0.290239
435 0.481748
440 0.634843
445 1.12093
450 40.7335
455 588.663
460 852.841
465 211.792
470 26.6508
475 5.13201
480 2.74905
485 2.64063
490 2.76731
495 2.77318
500 2.58096
505 2.49107
510 2.34279
515 2.31877
520 2.39642
525 3.2035
530 4.20073
535 3.74416
540 2.71284
545 2.45488
550 2.25059
555 1.77227
560 1.54177
565 1.42018
570 1.3205
575 0.920478
580 0.744555
585 0.640909
590 0.561283
595 0.517949
600 0.281169
Ex : 468
200 0.0894723
205 0.0997407
210 0.0694561
215 0.0852593
220 0.103948
225 0.091003
230 0.0812216
235 0.0919714
240 0.112885
245 0.106736
250 0.0867806
255 0.0823744
260 0.142051
265 0.136682
270 0.0998878
275 0.101984
280 0.0802385
285 0.115874
290 0.096384
295 0.106438
300 0.106263
305 0.105937
310 0.127741
315 0.112836
320 0.122677
325 0.132163
330 0.0952772
335 0.101181
340 0.117926
345 0.162541
350 0.13677
355 0.151481
360 0.135134
365 0.146766
370 0.117064
375 0.131812
380 0.143284
385 0.124738
390 0.161759
395 0.110759
400 0.156104
405 0.2005
410 0.132675
415 0.137494
420 0.180662
425 0.218107
430 0.253865
435 0.333621
440 0.394108
445 0.622807
450 1.04679
455 43.983
460 590.694
465 885.966
470 218.646
475 26.9071
480 4.91537
485 2.27507
490 1.92367
495 2.21243
500 2.27977
505 2.22321
510 1.92385
515 1.97033
520 1.94576
525 2.01902
530 2.3499
535 3.3528
540 3.5024
545 2.50305
550 2.14138
555 1.87492
560 1.60971
565 1.39349
570 1.05979
575 0.952155
580 0.828374
585 0.608231
590 0.48581
595 0.422422
600 0.337791
Ex : 473
200 0.147653
205 0.113306
210 0.0894099
215 0.128591
220 0.109762
225 0.116546
230 0.102233
235 0.130041
240 0.0866609
245 0.123244
250 0.119322
255 0.146367
260 0.146706
265 0.10839
270 0.0883301
275 0.137927
280 0.140622
285 0.0851983
290 0.0831166
295 0.104373
300 0.0956401
305 0.11087
310 0.123415
315 0.108707
320 0.118693
325 0.11579
330 0.124374
335 0.155768
340 0.130957
345 0.0949661
350 0.113524
355 0.172108
360 0.162147
365 0.200331
370 0.165813
375 0.131869
380 0.187479
385 0.185565
390 0.126706
395 0.176829
400 0.200522
405 0.159994
410 0.129137
415 0.148607
420 0.203344
425 0.198813
430 0.238808
435 0.287325
440 0.333231
445 0.398914
450 0.650987
455 1.07664
460 50.7127
465 643.927
470 853.229
475 201.584
480 24.9176
485 4.67899
490 2.14036
495 1.76062
500 1.91716
505 2.02524
510 1.94959
515 1.82048
520 1.78417
525 1.8491
530 1.73574
535 2.00475
540 2.75429
545 3.31478
550 2.43337
555 1.84413
560 1.82303
565 1.58089
570 1.05156
575 0.884077
580 0.763682
585 0.653139
590 0.540185
595 0.445347
600 0.382042
Ex : 478
200 0.152274
205 0.165166
210 0.143176
215 0.131066
220 0.129762
225 0.148368
230 0.132443
235 0.145041
240 0.111306
245 0.113482
250 0.10891
255 0.125172
260 0.132479
265 0.147113
270 0.157208
275 0.102514
280 0.152946
285 0.165231
290 0.114834
295 0.103203
300 0.144018
305 0.12677
310 0.123224
315 0.196012
320 0.0863865
325 0.121906
330 0.117364
335 0.12328
340 0.15568
345 0.152071
350 0.13581
355 0.122271
360 0.0940641
365 0.138543
370 0.124414
375 0.123408
380 0.216363
385 0.203724
390 0.166342
395 0.159295
400 0.180222
405 0.197362
410 0.178181
415 0.165824
420 0.209268
425 0.21906
430 0.264766
435 0.250092
440 0.311982
445 0.336144
450 0.43735
455 0.709929
460 1.37525
465 54.9768
470 655.771
475 864.399
480 214.739
485 26.3144
490 4.64617
495 1.93948
500 1.61045
505 1.80152
510 1.76124
515 1.83356
520 1.68441
525 1.60977
530 1.59092
535 1.48003
540 1.63757
545 2.29767
550 2.94546
555 2.47845
560 1.68999
565 1.44998
570 1.31526
575 0.972018
580 0.708118
585 0.636623
590 0.517047
595 0.484458
600 0.385896
Ex : 483
200 0.151801
205 0.0893012
210 0.157616
215 0.145568
220 0.187446
225 0.148785
230 0.104481
235 0.144597
240 0.181412
245 0.123124
250 0.101534
255 0.135507
260 0.125743
265 0.134396
270 0.121075
275 0.119156
280 0.132811
285 0.108867
290 0.15758
295 0.124247
300 0.109203
305 0.138677
310 0.147624
315 0.127026
320 0.11114
325 0.135614
330 0.131516
335 0.197121
340 0.116452
345 0.129277
350 0.139425
355 0.119907
360 0.183691
365 0.167318
370 0.12658
375 0.143462
380 0.20853
385 0.129624
390 0.145606
395 0.157452
400 0.173368
405 0.184235
410 0.188529
415 0.16699
420 0.184745
425 0.17341
430 0.21949
435 0.285152
440 0.261827
445 0.324825
450 0.408255
455 0.519635
460 0.823198
465 1.34495
470 42.9294
475 648.637
480 923.303
485 223.043
490 27.3172
495 4.56384
500 1.86846
505 1.54427
510 1.59798
515 1.77781
520 1.74577
525 1.56025
530 1.50139
535 1.42633
540 1.61396
545 1.62839
550 1.74705
555 2.50887
560 2.79952
565 1.81697
570 1.34991
575 1.13453
580 0.89008
585 0.697371
590 0.546585
595 0.465571
600 0.402555
Ex : 488
200 0.185641
205 0.10844
210 0.17393
215 0.156791
220 0.13124
225 0.114879
230 0.134827
235 0.116287
240 0.169253
245 0.11822
250 0.187615
255 0.22502
260 0.186101
265 0.0935374
270 0.126382
275 0.129252
280 0.142258
285 0.148273
290 0.129923
295 0.123276
300 0.128549
305 0.122722
310 0.104927
315 0.127785
320 0.125286
325 0.157459
330 0.14833
335 0.18169
340 0.146599
345 0.201216
350 0.166706
355 0.1708
360 0.191951
365 0.145977
370 0.21102
375 0.14847
380 0.142713
385 0.143416
390 0.182228
395 0.181589
400 0.217754
405 0.208242
410 0.234546
415 0.209065
420 0.200835
425 0.193811
430 0.207259
435 0.263372
440 0.271976
445 0.277665
450 0.355554
455 0.445114
460 0.530202
465 0.882738
470 1.2841
475 51.1513
480 679.995
485 891.54
490 213.056
495 26.0392
500 4.45154
505 1.95154
510 1.34694
515 1.44894
520 1.76983
525 1.65303
530 1.6219
535 1.61718
540 1.50117
545 1.46282
550 1.47097
555 1.44299
560 1.90407
565 2.4301
570 1.88837
575 1.22279
580 1.0461
585 0.840876
590 0.579268
595 0.477264
600 0.39464
Ex : 493
200 0.132003
205 0.11895
210 0.128792
215 0.160337
220 0.195696
225 0.142858
230 0.117178
235 0.0876159
240 0.130113
245 0.138249
250 0.0953773
255 0.109761
260 0.140048
265 0.151543
270 0.14479
275 0.114155
280 0.203566
285 0.102774
290 0.150334
295 0.161571
300 0.143263
305 0.177929
310 0.103954
315 0.116136
320 0.0971575
325 0.159646
330 0.143256
335 0.115524
340 0.172535
345 0.167119
350 0.131287
355 0.181546
360 0.163317
365 0.179265
370 0.245734
375 0.183925
380 0.183064
385 0.177211
390 0.147824
395 0.144905
400 0.261752
405 0.16358
410 0.148123
415 0.174224
420 0.192049
425 0.187135
430 0.230895
435 0.211368
440 0.228909
445 0.238705
450 0.349933
455 0.346311
460 0.486677
465 0.619675
470 0.802387
475 1.07925
480 46.3936
485 659.847
490 929.955
495 217.402
500 26.5296
505 4.51026
510 1.81667
515 1.44107
520 1.41844
525 1.69653
530 1.72189
535 1.49315
540 1.5672
545 1.51829
550 1.50952
555 1.36472
560 1.29181
565 1.5938
570 2.18005
575 1.72418
580 1.01855
585 0.791421
590 0.756143
595 0.551277
600 0.163438
Ex : 498
200 0.203437
205 0.159318
210 0.150366
215 0.159139
220 0.111305
225 0.132007
230 0.229542
235 0.134155
240 0.146315
245 0.108937
250 0.125673
255 0.162002
260 0.170739
265 0.155108
270 0.159472
275 0.0899944
280 0.132028
285 0.132965
290 0.138515
295 0.119832
300 0.154393
305 0.121003
310 0.15578
315 0.128291
320 0.236641
325 0.143133
330 0.149861
335 0.146993
340 0.127336
345 0.14271
350 0.215111
355 0.199099
360 0.200611
365 0.153834
370 0.181047
375 0.219359
380 0.23797
385 0.146847
390 0.183789
395 0.268633
400 0.156623
405 0.207973
410 0.180488
415 0.203338
420 0.231742
425 0.215837
430 0.270179
435 0.239627
440 0.221849
445 0.245472
450 0.301886
455 0.331413
460 0.316373
465 0.552385
470 0.55793
475 0.869595
480 1.34672
485 54.5826
490 694.292
495 891.959
500 210.488
505 25.5855
510 4.38041
515 1.87565
520 1.36635
525 1.50819
530 1.66736
535 1.5834
540 1.45647
545 1.33569
550 1.23146
555 1.25911
560 1.24863
565 1.1361
570 1.04858
575 1.55599
580 1.65613
585 0.985554
590 0.654206
595 0.55888
600 0.62213
Ex : 503
200 0.12753
205 0.113431
210 0.129001
215 0.19851
220 0.192363
225 0.125034
230 0.114858
235 0.159371
240 0.192321
245 0.126262
250 0.157402
255 0.189703
260 0.198413
265 0.173772
270 0.177059
275 0.198602
280 0.157678
285 0.176947
290 0.129402
295 0.0957627
300 0.212606
305 0.165191
310 0.150024
315 0.164331
320 0.19383
325 0.104464
330 0.21644
335 0.213405
340 0.166923
345 0.177172
350 0.14594
355 0.158783
360 0.128384
365 0.105106
370 0.147945
375 0.164379
380 0.179439
385 0.200081
390 0.203076
395 0.205322
400 0.23299
405 0.218562
410 0.271097
415 0.223845
420 0.198166
425 0.2873
430 0.210927
435 0.247852
440 0.262436
445 0.286847
450 0.305596
455 0.299863
460 0.347341
465 0.457416
470 0.634021
475 0.581827
480 0.867977
485 1.46767
490 49.0819
495 678.855
500 910.154
505 212.33
510 25.7867
515 4.22848
520 1.84961
525 1.63356
530 1.47893
535 1.66094
540 1.55307
545 1.52366
550 1.29791
555 1.00183
560 1.07739
565 1.08963
570 0.998339
575 0.810239
580 1.04073
585 1.2243
590 0.793268
595 0.561664
600 0.745307
Ex : 508
200 0.115263
205 0.11582
210 0.147308
215 0.204992
220 0.115795
225 0.16013
230 0.209834
235 0.170672
240 0.146605
245 0.138641
250 0.205559
255 0.239251
260 0.151168
265 0.118555
270 0.198459
275 0.14261
280 0.198628
285 0.12542
290 0.120961
295 0.198517
300 0.195164
305 0.133289
310 0.158956
315 0.167371
320 0.144297
325 0.169228
330 0.135274
335 0.168251
340 0.159557
345 0.148088
350 0.178771
355 0.161839
360 0.154658
365 0.193395
370 0.161104
375 0.2656
380 0.199787
385 0.207194
390 0.179368
395 0.196497
400 0.212912
405 0.170477
410 0.150062
415 0.227919
420 0.198446
425 0.173783
430 0.217841
435 0.254242
440 0.312583
445 0.241001
450 0.282274
455 0.277932
460 0.347494
465 0.362739
470 0.378005
475 0.518833
480 0.591524
485 1.0517
490 1.27816
495 51.5977
500 671.836
505 900.287
510 218.117
515 26.7037
520 4.52904
525 2.00443
530 1.44691
535 1.37463
540 1.35259
545 1.45936
550 1.24415
555 1.18515
560 1.12638
565 1.08542
570 0.912325
575 0.687315
580 0.717761
585 0.7867
590 1.0573
595 0.837329
600 0.277382
Ex : 513
200 0.207047
205 0.176047
210 0.158437
215 0.18891
220 0.203918
225 0.175708
230 0.242608
235 0.151594
240 0.181058
245 0.156819
250 0.198305
255 0.177948
260 0.176533
265 0.191871
270 0.124518
275 0.188424
280 0.177053
285 0.174257
290 0.178357
295 0.216639
300 0.17639
305 0.114234
310 0.134876
315 0.197602
320 0.146374
325 0.175961
330 0.223177
335 0.17599
340 0.177457
345 0.2431
350 0.187769
355 0.182223
360 0.1604
365 0.204161
370 0.255952
375 0.19306
380 0.157685
385 0.199353
390 0.16502
395 0.177391
400 0.218922
405 0.19257
410 0.176605
415 0.242901
420 0.231045
425 0.168693
430 0.179956
435 0.178747
440 0.202447
445 0.257989
450 0.235671
455 0.281684
460 0.296231
465 0.350576
470 0.357874
475 0.456747
480 0.46531
485 0.687846
490 0.831824
495 1.21023
500 47.3756
505 660.617
510 914.341
515 223.008
520 27.25
525 4.37975
530 1.84845
535 1.42597
540 1.33063
545 1.33949
550 1.57589
555 1.3687
560 1.23147
565 0.929465
570 0.971635
575 0.758964
580 0.617164
585 0.511827
590 0.664246
595 0.692048
600 0.588738
Ex : 518
200 0.0913389
205 0.203989
210 0.205864
215 0.199366
220 0.171678
225 0.186093
230 0.145374
235 0.160199
240 0.130205
245 0.231522
250 0.188517
255 0.182674
260 0.125997
265 0.195983
270 0.272297
275 0.21144
280 0.245612
285 0.159778
290 0.114506
295 0.174883
300 0.190547
305 0.17404
310 0.144068
315 0.140178
320 0.17073
325 0.217352
330 0.177097
335 0.154761
340 0.152163
345 0.214665
350 0.151901
355 0.185714
360 0.165057
365 0.142365
370 0.165817
375 0.175935
380 0.234124
385 0.287484
390 0.212839
395 0.172594
400 0.237488
405 0.225132
410 0.229922
415 0.15587
420 0.156187
425 0.182242
430 0.176589
435 0.237543
440 0.28748
445 0.285812
450 0.266231
455 0.329581
460 0.229934
465 0.301148
470 0.336276
475 0.40812
480 0.422527
485 0.380331
490 0.588461
495 0.739432
500 1.08357
505 46.6529
510 626.971
515 871.779
520 216.497
525 26.4182
530 4.54619
535 1.95594
540 1.45374
545 1.42136
550 1.28995
555 1.52823
560 1.32059
565 1.06003
570 0.852584
575 0.837896
580 0.5969
585 0.559342
590 0.637004
595 0.514919
600 0.24358
Ex : 523
200 0.135286
205 0.147877
210 0.167967
215 0.135067
220 0.1449
225 0.178272
230 0.194219
235 0.135791
240 0.145174
245 0.145413
250 0.163098
255 0.115189
260 0.177628
265 0.157398
270 0.196979
275 0.164795
280 0.160444
285 0.200508
290 0.197809
295 0.175138
300 0.184097
305 0.128964
310 0.0956258
315 0.110178
320 0.148254
325 0.208471
330 0.189358
335 0.161615
340 0.237314
345 0.209753
350 0.166909
355 0.163958
360 0.172859
365 0.238106
370 0.141492
375 0.2269
380 0.207502
385 0.15079
390 0.293852
395 0.303605
400 0.256393
405 0.184326
410 0.194132
415 0.23138
420 0.195217
425 0.234597
430 0.257543
435 0.261827
440 0.269209
445 0.224994
450 0.31884
455 0.21781
460 0.281265
465 0.253745
470 0.304751
475 0.33479
480 0.283977
485 0.314766
490 0.409961
495 0.561618
500 0.78573
505 1.15992
510 42.8385
515 593.908
520 854.54
525 225.915
530 27.6007
535 4.49759
540 1.73811
545 1.44833
550 1.42501
555 1.2633
560 1.32034
565 1.06871
570 0.947384
575 0.852071
580 0.62705
585 0.543757
590 0.53382
595 0.425115
600 0.425013
Ex : 528
200 0.237797
205 0.133838
210 0.157849
215 0.186942
220 0.170511
225 0.123889
230 0.0980994
235 0.176492
240 0.181322
245 0.151821
250 0.183966
255 0.195089
260 0.22371
265 0.256094
270 0.226958
275 0.180948
280 0.130477
285 0.186783
290 0.143717
295 0.149603
300 0.173587
305 0.167891
310 0.172407
315 0.17549
320 0.129561
325 0.229291
330 0.185362
335 0.165688
340 0.214614
345 0.215498
350 0.148375
355 0.191358
360 0.124238
365 0.142586
370 0.179123
375 0.219332
380 0.239148
385 0.201567
390 0.164919
395 0.162046
400 0.251547
405 0.179337
410 0.157532
415 0.223982
420 0.21766
425 0.181526
430 0.227212
435 0.282166
440 0.222859
445 0.174965
450 0.21065
455 0.185199
460 0.295697
465 0.3051
470 0.239414
475 0.222893
480 0.253418
485 0.299317
490 0.464783
495 0.447112
500 0.575074
505 0.702645
510 1.13771
515 39.2359
520 588.54
525 841.57
530 214.89
535 26.2166
540 4.25953
545 1.89369
550 1.47903
555 1.10202
560 0.893435
565 1.28533
570 0.971669
575 0.78943
580 0.837815
585 0.514787
590 0.411944
595 0.395775
600 0.311358
Ex : 533
200 0.225909
205 0.203743
210 0.125287
215 0.183574
220 0.161466
225 0.195253
230 0.146669
235 0.155361
240 0.192605
245 0.21826
250 0.184867
255 0.206285
260 0.177533
265 0.222492
270 0.168884
275 0.187534
280 0.171668
285 0.19576
290 0.197087
295 0.194476
300 0.209873
305 0.228644
310 0.193931
315 0.197854
320 0.166027
325 0.228706
330 0.162585
335 0.159277
340 0.158375
345 0.225597
350 0.273069
355 0.17485
360 0.260709
365 0.247175
370 0.197783
375 0.201038
380 0.226332
385 0.251529
390 0.243584
395 0.21601
400 0.24511
405 0.275584
410 0.23138
415 0.29927
420 0.200752
425 0.190499
430 0.18886
435 0.214608
440 0.245011
445 0.253661
450 0.333988
455 0.307493
460 0.237905
465 0.238981
470 0.262264
475 0.318479
480 0.293527
485 0.280617
490 0.266067
495 0.29401
500 0.542681
505 0.463157
510 0.698464
515 1.01719
520 39.1148
525 553.646
530 828.689
535 218.122
540 26.549
545 4.56605
550 1.90734
555 1.34415
560 0.983704
565 1.00812
570 0.960509
575 0.834122
580 0.668885
585 0.562922
590 0.487629
595 0.353344
600 0.737859
Ex : 538
200 0.207913
205 0.163574
210 0.14666
215 0.151277
220 0.116419
225 0.17012
230 0.175713
235 0.152792
240 0.18976
245 0.141155
250 0.130287
255 0.194337
260 0.1832
265 0.208692
270 0.208113
275 0.173499
280 0.19858
285 0.193147
290 0.18404
295 0.243367
300 0.200604
305 0.135779
310 0.200189
315 0.198069
320 0.158897
325 0.266167
330 0.238248
335 0.178852
340 0.148805
345 0.234812
350 0.248916
355 0.18349
360 0.180035
365 0.219338
370 0.208805
375 0.19026
380 0.236502
385 0.218386
390 0.24952
395 0.211884
400 0.223038
405 0.246198
410 0.298352
415 0.193778
420 0.255661
425 0.22741
430 0.220694
435 0.222712
440 0.281473
445 0.210577
450 0.186439
455 0.239702
460 0.218797
465 0.286689
470 0.217635
475 0.32721
480 0.305323
485 0.381146
490 0.285478
495 0.332019
500 0.383903
505 0.52424
510 0.619149
515 0.708645
520 1.12007
525 32.5507
530 537.806
535 842.495
540 223.612
545 27.4099
550 4.33688
555 1.62778
560 1.12426
565 1.00455
570 0.724547
575 0.786194
580 0.686242
585 0.526976
590 0.486985
595 0.417285
600 0.308423
Ex : 543
200 0.173056
205 0.19502
210 0.176486
215 0.164547
220 0.233445
225 0.127524
230 0.140459
235 0.186909
240 0.14329
245 0.204372
250 0.186289
255 0.133081
260 0.0924023
265 0.160857
270 0.193673
275 0.187319
280 0.139956
285 0.156677
290 0.15966
295 0.205478
300 0.192548
305 0.174441
310 0.137821
315 0.171672
320 0.162945
325 0.193489
330 0.204561
335 0.19402
340 0.180595
345 0.259579
350 0.191864
355 0.247635
360 0.162801
365 0.170307
370 0.20504
375 0.27943
380 0.311727
385 0.201122
390 0.129044
395 0.18108
400 0.214034
405 0.304317
410 0.180473
415 0.252752
420 0.216905
425 0.186954
430 0.311595
435 0.248415
440 0.218495
445 0.333692
450 0.262213
455 0.256615
460 0.257553
465 0.342016
470 0.266201
475 0.29927
480 0.239549
485 0.291942
490 0.328823
495 0.315049
500 0.375711
505 0.414029
510 0.397062
515 0.562646
520 0.587021
525 1.09901
530 28.7111
535 494.212
540 791.858
545 220.666
550 27.0008
555 4.18229
560 1.40475
565 0.892812
570 0.73823
575 0.576891
580 0.561524
585 0.561339
590 0.407748
595 0.449843
600 0.408693
Ex : 548
200 0.305752
205 0.202171
210 0.179984
215 0.18599
220 0.25903
225 0.194231
230 0.204681
235 0.180243
240 0.176079
245 0.253014
250 0.194909
255 0.145384
260 0.192602
265 0.169494
270 0.219538
275 0.196199
280 0.208714
285 0.270131
290 0.237163
295 0.168133
300 0.22386
305 0.176092
310 0.21356
315 0.273009
320 0.241986
325 0.227715
330 0.188398
335 0.185091
340 0.174194
345 0.161704
350 0.154712
355 0.196455
360 0.231894
365 0.271059
370 0.169773
375 0.167613
380 0.237882
385 0.284463
390 0.292742
395 0.189484
400 0.261725
405 0.232481
410 0.239386
415 0.262691
420 0.237896
425 0.239185
430 0.199788
435 0.216442
440 0.24198
445 0.199943
450 0.209673
455 0.247191
460 0.25011
465 0.268749
470 0.244209
475 0.371168
480 0.260439
485 0.31334
490 0.333605
495 0.287104
500 0.363409
505 0.28152
510 0.39341
515 0.463223
520 0.506625
525 0.689667
530 1.04985
535 32.7629
540 522.918
545 788.981
550 215.2
555 26.0585
560 3.86281
565 1.14974
570 0.813617
575 0.628014
580 0.440604
585 0.475106
590 0.419998
595 0.40042
600 0.382427
Ex : 553
200 0.311756
205 0.218332
210 0.236244
215 0.235619
220 0.234346
225 0.159901
230 0.166383
235 0.267318
240 0.161822
245 0.201094
250 0.15037
255 0.130688
260 0.135504
265 0.267954
270 0.209358
275 0.193765
280 0.210032
285 0.19062
290 0.215937
295 0.189633
300 0.143382
305 0.217991
310 0.254943
315 0.160419
320 0.194488
325 0.326701
330 0.195808
335 0.17417
340 0.201957
345 0.201219
350 0.155481
355 0.194579
360 0.166111
365 0.193042
370 0.250641
375 0.227978
380 0.21331
385 0.213025
390 0.242427
395 0.196854
400 0.268513
405 0.230821
410 0.160239
415 0.200696
420 0.285778
425 0.212501
430 0.272131
435 0.221928
440 0.245727
445 0.307588
450 0.253668
455 0.256167
460 0.31025
465 0.237049
470 0.22529
475 0.260597
480 0.269344
485 0.260515
490 0.230485
495 0.296135
500 0.236108
505 0.256277
510 0.396598
515 0.403217
520 0.43085
525 0.570407
530 0.698945
535 1.05446
540 29.17
545 459.863
550 744.196
555 212.406
560 25.7459
565 3.71654
570 1.07837
575 0.754849
580 0.548206
585 0.477507
590 0.355246
595 0.411639
600 0.510797
Ex : 558
200 0.115802
205 0.112065
210 0.155345
215 0.212952
220 0.200874
225 0.23468
230 0.266527
235 0.324032
240 0.246182
245 0.207276
250 0.161624
255 0.134069
260 0.296741
265 0.259905
270 0.322322
275 0.185921
280 0.321547
285 0.221151
290 0.230401
295 0.192675
300 0.170388
305 0.17146
310 0.221165
315 0.225895
320 0.149514
325 0.219877
330 0.165587
335 0.252908
340 0.217868
345 0.251138
350 0.265389
355 0.212893
360 0.213903
365 0.254136
370 0.183656
375 0.337027
380 0.222143
385 0.189121
390 0.234466
395 0.198526
400 0.325828
405 0.294195
410 0.294396
415 0.345737
420 0.276465
425 0.203982
430 0.335921
435 0.242715
440 0.244379
445 0.28658
450 0.229415
455 0.330523
460 0.281185
465 0.311721
470 0.360122
475 0.297468
480 0.307664
485 0.307288
490 0.258971
495 0.218968
500 0.269639
505 0.41261
510 0.371602
515 0.316998
520 0.378875
525 0.367647
530 0.507849
535 0.70141
540 0.869373
545 24.7237
550 436.241
555 719.279
560 204.439
565 24.4453
570 3.65401
575 1.00059
580 0.612125
585 0.413843
590 0.392619
595 0.294774
600 0.383148
Ex : 563
200 0.184183
205 0.29341
210 0.231223
215 0.237467
220 0.213999
225 0.182127
230 0.191911
235 0.249352
240 0.230551
245 0.230879
250 0.278934
255 0.150099
260 0.237552
265 0.263885
270 0.155088
275 0.183044
280 0.287457
285 0.139256
290 0.148466
295 0.128799
300 0.231566
305 0.234608
310 0.289963
315 0.149282
320 0.185371
325 0.202818
330 0.187699
335 0.233287
340 0.293791
345 0.264393
350 0.217311
355 0.209801
360 0.294944
365 0.15706
370 0.256913
375 0.234584
380 0.319852
385 0.307996
390 0.220996
395 0.195057
400 0.257833
405 0.226947
410 0.23421
415 0.208206
420 0.302743
425 0.232752
430 0.279842
435 0.194426
440 0.220481
445 0.292519
450 0.293991
455 0.269172
460 0.291999
465 0.256932
470 0.379137
475 0.346305
480 0.199076
485 0.201602
490 0.18908
495 0.286085
500 0.399633
505 0.358992
510 0.396739
515 0.323111
520 0.344716
525 0.367161
530 0.436343
535 0.478336
540 0.76797
545 0.956248
550 24.2234
555 407.273
560 679.754
565 196.988
570 23.6995
575 3.28762
580 0.839041
585 0.584508
590 0.433876
595 0.42276
600 0.438261
Ex : 568
200 0.213567
205 0.228215
210 0.186403
215 0.201722
220 0.115913
225 0.144853
230 0.296308
235 0.213289
240 0.228118
245 0.282798
250 0.174854
255 0.225946
260 0.188155
265 0.214034
270 0.149747
275 0.230409
280 0.195226
285 0.259404
290 0.268326
295 0.196889
300 0.250337
305 0.207039
310 0.261832
315 0.264448
320 0.211836
325 0.250191
330 0.198678
335 0.255982
340 0.200188
345 0.164214
350 0.220533
355 0.224158
360 0.291759
365 0.242982
370 0.215058
375 0.227834
380 0.167087
385 0.167269
390 0.227138
395 0.183093
400 0.238597
405 0.220652
410 0.249538
415 0.240947
420 0.3243
425 0.302183
430 0.298782
435 0.305123
440 0.301388
445 0.328355
450 0.223378
455 0.38004
460 0.235696
465 0.189931
470 0.290214
475 0.196666
480 0.242128
485 0.264761
490 0.196692
495 0.291525
500 0.250173
505 0.248071
510 0.263
515 0.336483
520 0.229741
525 0.361787
530 0.31134
535 0.387437
540 0.582235
545 0.568138
550 0.718516
555 19.2867
560 376.39
565 662.012
570 201.586
575 24.4838
580 3.24451
585 0.727733
590 0.502353
595 0.483274
600 0.51536
Ex : 573
200 0.164131
205 0.272247
210 0.23504
215 0.200746
220 0.239214
225 0.206981
230 0.214442
235 0.229567
240 0.238213
245 0.221884
250 0.18873
255 0.247105
260 0.175844
265 0.250891
270 0.266682
275 0.239371
280 0.167316
285 0.216466
290 0.239712
295 0.234026
300 0.176913
305 0.256643
310 0.24047
315 0.232059
320 0.261224
325 0.239318
330 0.184486
335 0.239272
340 0.293889
345 0.221512
350 0.234616
355 0.336369
360 0.240532
365 0.215363
370 0.214134
375 0.231762
380 0.231451
385 0.285795
390 0.203194
395 0.192284
400 0.25001
405 0.272674
410 0.211017
415 0.208758
420 0.29742
425 0.282446
430 0.30098
435 0.256874
440 0.247685
445 0.33009
450 0.350165
455 0.265562
460 0.300862
465 0.275137
470 0.330737
475 0.318237
480 0.264425
485 0.284392
490 0.373717
495 0.29175
500 0.249389
505 0.189934
510 0.251333
515 0.299623
520 0.265236
525 0.375737
530 0.297233
535 0.410064
540 0.363439
545 0.317729
550 0.541558
555 0.737395
560 16.6001
565 334.233
570 635.558
575 194.697
580 23.6335
585 3.18507
590 0.786471
595 0.507308
600 0.483108
Ex : 578
200 0.165482
205 0.23796
210 0.248703
215 0.223519
220 0.223444
225 0.149853
230 0.22818
235 0.209917
240 0.288472
245 0.193489
250 0.213321
255 0.142915
260 0.239753
265 0.312787
270 0.17711
275 0.172343
280 0.165874
285 0.238773
290 0.229862
295 0.203989
300 0.134979
305 0.195967
310 0.159724
315 0.176912
320 0.16196
325 0.200423
330 0.175966
335 0.282211
340 0.347838
345 0.206738
350 0.190305
355 0.21828
360 0.226443
365 0.281347
370 0.158785
375 0.164768
380 0.143858
385 0.273812
390 0.218628
395 0.237868
400 0.262301
405 0.232686
410 0.180773
415 0.313671
420 0.208219
425 0.203835
430 0.222263
435 0.229001
440 0.319897
445 0.212671
450 0.20282
455 0.256461
460 0.317142
465 0.280812
470 0.282107
475 0.26319
480 0.183672
485 0.255493
490 0.344833
495 0.329468
500 0.243743
505 0.344428
510 0.254415
515 0.251456
520 0.282776
525 0.324542
530 0.355235
535 0.235988
540 0.320643
545 0.375016
550 0.449736
555 0.507032
560 0.70638
565 13.8339
570 286.27
575 512.086
580 161.841
585 19.6368
590 2.64124
595 0.744761
600 0.084751
Ex : 583
200 0.262229
205 0.222796
210 0.171302
215 0.18206
220 0.242494
225 0.227316
230 0.314266
235 0.315711
240 0.169076
245 0.265441
250 0.220826
255 0.150262
260 0.17055
265 0.160326
270 0.257285
275 0.223145
280 0.21086
285 0.339398
290 0.293877
295 0.18069
300 0.171095
305 0.235189
310 0.32545
315 0.217366
320 0.177487
325 0.278057
330 0.209244
335 0.305079
340 0.304222
345 0.278182
350 0.245234
355 0.30317
360 0.179275
365 0.227778
370 0.195493
375 0.261736
380 0.259748
385 0.154555
390 0.305218
395 0.184371
400 0.249473
405 0.220042
410 0.322298
415 0.211671
420 0.168777
425 0.246306
430 0.246101
435 0.276021
440 0.311414
445 0.306055
450 0.295689
455 0.258463
460 0.306805
465 0.268014
470 0.319259
475 0.354032
480 0.332661
485 0.212258
490 0.25984
495 0.232573
500 0.293217
505 0.391565
510 0.336089
515 0.297169
520 0.368986
525 0.298601
530 0.356318
535 0.27852
540 0.333487
545 0.322022
550 0.319279
555 0.452294
560 0.587698
565 0.516386
570 11.4867
575 253.447
580 436.911
585 128.26
590 15.4697
595 2.08914
600 0.33928
Ex : 588
200 0.234375
205 0.150599
210 0.26321
215 0.312654
220 0.251696
225 0.313167
230 0.24352
235 0.169374
240 0.299746
245 0.246861
250 0.222026
255 0.148479
260 0.210539
265 0.170104
270 0.22993
275 0.143621
280 0.233364
285 0.169281
290 0.226481
295 0.17122
300 0.264061
305 0.18365
310 0.18451
315 0.153655
320 0.22842
325 0.28139
330 0.22838
335 0.279323
340 0.231622
345 0.288071
350 0.243257
355 0.212145
360 0.172283
365 0.260887
370 0.279567
375 0.229145
380 0.232514
385 0.268733
390 0.240663
395 0.252089
400 0.207485
405 0.284798
410 0.27482
415 0.313382
420 0.313185
425 0.224213
430 0.264551
435 0.233161
440 0.200736
445 0.283573
450 0.358503
455 0.243593
460 0.325926
465 0.348117
470 0.314395
475 0.44514
480 0.316114
485 0.387127
490 0.298948
495 0.237642
500 0.245493
505 0.261484
510 0.359938
515 0.408246
520 0.33374
525 0.40082
530 0.24436
535 0.306667
540 0.279512
545 0.360363
550 0.423878
555 0.464916
560 0.485025
565 0.441564
570 0.627753
575 10.447
580 210.559
585 374.224
590 112.455
595 13.7893
600 1.74898
Ex : 593
200 0.30547
205 0.194245
210 0.334901
215 0.186486
220 0.143849
225 0.252647
230 0.236434
235 0.249956
240 0.428943
245 0.427359
250 0.223493
255 0.174164
260 0.240639
265 0.182559
270 0.229741
275 0.218225
280 0.256215
285 0.244201
290 0.262591
295 0.243435
300 0.198525
305 0.160442
310 0.300387
315 0.314276
320 0.219635
325 0.281897
330 0.295607
335 0.263179
340 0.217099
345 0.264097
350 0.187799
355 0.23359
360 0.242347
365 0.268989
370 0.273006
375 0.177038
380 0.257228
385 0.306414
390 0.224816
395 0.331685
400 0.269111
405 0.284615
410 0.190072
415 0.226401
420 0.253091
425 0.221122
430 0.252022
435 0.288794
440 0.252793
445 0.309628
450 0.252158
455 0.303712
460 0.344984
465 0.294596
470 0.19745
475 0.287259
480 0.20427
485 0.434576
490 0.288428
495 0.15824
500 0.280399
505 0.396596
510 0.22705
515 0.339552
520 0.268552
525 0.244209
530 0.313816
535 0.361014
540 0.284625
545 0.255812
550 0.373404
555 0.277156
560 0.479204
565 0.367655
570 0.440768
575 0.539966
580 9.62124
585 192.312
590 324.08
595 96.448
600 13.4636
Ex : 598
200 0.204684
205 0.209655
210 0.211177
215 0.234011
220 0.255415
225 0.240365
230 0.207325
235 0.194558
240 0.190965
245 0.208318
250 0.226876
255 0.310377
260 0.310565
265 0.159559
270 0.214184
275 0.257979
280 0.261843
285 0.308812
290 0.259337
295 0.23486
300 0.252995
305 0.172581
310 0.132562
315 0.280027
320 0.26736
325 0.200181
330 0.233153
335 0.267221
340 0.243499
345 0.254342
350 0.187407
355 0.193383
360 0.321944
365 0.243593
370 0.406532
375 0.397559
380 0.248074
385 0.289187
390 0.280431
395 0.268484
400 0.419547
405 0.413577
410 0.262056
415 0.251797
420 0.202149
425 0.267298
430 0.285433
435 0.26114
440 0.293224
445 0.317571
450 0.270752
455 0.271004
460 0.431424
465 0.393919
470 0.333987
475 0.284617
480 0.306795
485 0.264927
490 0.325208
495 0.279086
500 0.352978
505 0.278153
510 0.335684
515 0.28516
520 0.318694
525 0.355245
530 0.621243
535 0.374788
540 0.324515
545 0.30148
550 0.279482
555 0.410458
560 0.470316
565 0.379123
570 0.573915
575 0.323002
580 0.44018
585 8.57594
590 163.25
595 274.771
600 169.306
Ex : 603
200 0.213392
205 0.223108
210 0.184397
215 0.21329
220 0.277371
225 0.255865
230 0.312867
235 0.178231
240 0.226845
245 0.206489
250 0.192298
255 0.191393
260 0.20065
265 0.224292
270 0.21648
275 0.24076
280 0.16996
285 0.245689
290 0.187308
295 0.277377
300 0.201127
305 0.178427
310 0.172093
315 0.162812
320 0.24338
325 0.240739
330 0.202301
335 0.368346
340 0.352989
345 0.271623
350 0.376156
355 0.280156
360 0.314764
365 0.215893
370 0.263638
375 0.274343
380 0.185458
385 0.256707
390 0.268798
395 0.280525
400 0.228798
405 0.342753
410 0.447231
415 0.276115
420 0.212832
425 0.332666
430 0.2381
435 0.341531
440 0.303337
445 0.276453
450 0.297427
455 0.178816
460 0.264309
465 0.229833
470 0.276889
475 0.298867
480 0.308095
485 0.247145
490 0.278732
495 0.353491
500 0.28574
505 0.302432
510 0.196763
515 0.218184
520 0.336634
525 0.298893
530 0.293219
535 0.377943
540 0.244322
545 0.196173
550 0.415291
555 0.29524
560 0.292177
565 0.342764
570 0.440178
575 0.383501
580 0.406752
585 0.473063
590 7.89466
595 142.757
600 267.4
