File format V 1.0
ven. 13. janv. 12:42:41 2017
Operator : 
Comments : 

=============================================
SpectroFluorometer parameters
Mode : 3D measurement
Data : Fluorescence
Phospho. : Ordinary
Spectrum : Fluorescence

Scan speed : 2400 nm/mn
Response : 100 ms
PM Voltage : 700 V
Shutter : On

Lambda Ex. Start : 203
Lambda Ex. End : 603
Lambda Ex. Step : 5
Ex. Slit : 5 nm

Lambda Em. Start : 200
Lambda Em. End : 600
Lambda Em. Step : 5
Em. Slit : 5 nm

Repetition : 1
Decal lambda em : 10
=============================================
DATA
Ex : 203
200 5.56938
205 5.29999
210 6.29698
215 4.19574
220 4.5099
225 6.00436
230 4.86766
235 5.15853
240 8.50799
245 4.51299
250 4.026
255 8.0511
260 3.62966
265 6.00637
270 4.61402
275 3.83601
280 3.65392
285 6.753
290 4.6415
295 3.7308
300 4.01197
305 5.56655
310 4.44964
315 5.76276
320 5.65499
325 6.09708
330 4.16947
335 7.28213
340 6.6733
345 5.02142
350 5.33844
355 5.44171
360 7.3796
365 7.25197
370 6.89046
375 9.95439
380 5.1465
385 6.33777
390 7.50712
395 6.32765
400 4.94755
405 7.81105
410 4.16874
415 6.29231
420 5.87214
425 4.03904
430 6.9819
435 7.93653
440 7.29616
445 7.41055
450 8.68944
455 6.47464
460 5.34334
465 7.57472
470 4.2209
475 3.40865
480 7.70951
485 6.05885
490 5.13286
495 3.94482
500 4.46956
505 4.27499
510 6.26625
515 7.8712
520 5.58123
525 6.02084
530 8.04191
535 5.71182
540 4.09955
545 4.95578
550 6.41461
555 4.51417
560 5.89844
565 5.31839
570 5.46405
575 4.83019
580 6.54378
585 4.63571
590 4.58584
595 3.54537
600 0.40345
Ex : 208
200 6.86699
205 4.55125
210 4.0116
215 6.74497
220 5.18609
225 4.84993
230 7.06592
235 4.59852
240 5.17802
245 5.7924
250 5.95497
255 4.23064
260 5.63713
265 6.01751
270 4.51617
275 3.53042
280 4.55248
285 4.91642
290 7.14748
295 5.7744
300 6.89445
305 5.14418
310 5.12718
315 4.97667
320 7.75997
325 6.11567
330 5.07558
335 6.11209
340 6.40182
345 5.18878
350 5.54098
355 6.0299
360 6.69695
365 5.41145
370 4.79482
375 6.35179
380 5.26297
385 4.97855
390 7.33271
395 7.56253
400 5.95208
405 5.21806
410 5.28471
415 3.83415
420 4.05426
425 6.89439
430 5.06935
435 6.89002
440 6.15216
445 5.05387
450 5.38287
455 4.84471
460 5.81997
465 5.30513
470 6.37645
475 7.03927
480 6.74067
485 9.40861
490 8.59918
495 5.56006
500 6.31165
505 6.01426
510 8.06943
515 5.21989
520 5.26247
525 6.37247
530 6.79474
535 5.03564
540 5.60192
545 5.94204
550 7.55134
555 4.18585
560 7.11417
565 6.2912
570 5.47471
575 6.72093
580 4.84221
585 3.22605
590 3.32392
595 5.71211
600 0.650017
Ex : 213
200 4.15668
205 4.86728
210 4.78751
215 5.83682
220 5.30172
225 3.95913
230 5.9079
235 5.48552
240 5.17029
245 4.54345
250 5.32185
255 4.36122
260 4.25962
265 5.57622
270 5.16172
275 3.93808
280 4.87498
285 4.24525
290 6.23099
295 3.64167
300 3.93378
305 4.86998
310 6.42253
315 4.37506
320 3.87841
325 3.63253
330 3.80626
335 7.4562
340 5.32342
345 6.13604
350 4.23447
355 7.31946
360 4.22307
365 6.50243
370 4.13366
375 5.06217
380 5.32446
385 5.35373
390 4.1789
395 5.93683
400 7.21027
405 4.53853
410 5.56291
415 6.13007
420 3.74728
425 7.55652
430 6.22188
435 7.88544
440 4.41852
445 4.56493
450 6.4275
455 6.3709
460 7.63155
465 7.08875
470 6.20711
475 4.21441
480 4.82198
485 6.09275
490 4.8693
495 6.22159
500 7.85027
505 4.93816
510 6.48843
515 4.59737
520 7.93544
525 6.35761
530 4.94146
535 5.19785
540 6.32503
545 6.02473
550 8.32858
555 6.82513
560 4.45503
565 5.84461
570 4.92391
575 3.49536
580 6.15594
585 5.99559
590 4.19317
595 6.82553
600 4.67602
Ex : 218
200 3.18396
205 3.93682
210 4.60235
215 4.73002
220 5.51243
225 3.90751
230 4.03503
235 4.65741
240 4.02047
245 4.79525
250 4.52106
255 4.27757
260 4.40387
265 4.80494
270 5.64354
275 7.8176
280 7.72843
285 5.55334
290 3.90884
295 5.42503
300 3.72112
305 3.9442
310 4.30058
315 5.78105
320 6.06499
325 8.06688
330 5.94946
335 6.00667
340 5.05548
345 7.27058
350 5.75611
355 8.11801
360 6.58933
365 4.94134
370 3.5965
375 6.9361
380 6.06032
385 4.18181
390 5.6874
395 5.42286
400 7.21299
405 5.17832
410 3.31234
415 4.30794
420 4.82092
425 7.60978
430 7.50018
435 5.99266
440 5.46312
445 5.07421
450 6.19415
455 5.97193
460 10.4319
465 6.32084
470 6.86089
475 6.14789
480 5.00766
485 5.78675
490 4.56659
495 4.60464
500 7.56506
505 6.92202
510 3.34306
515 4.02105
520 6.06616
525 5.59369
530 7.97234
535 3.68032
540 4.82882
545 3.58673
550 5.58295
555 5.5175
560 4.79386
565 4.26594
570 5.43801
575 4.79271
580 5.49989
585 4.6159
590 5.80487
595 4.04538
600 0.460349
Ex : 223
200 5.04091
205 3.85877
210 3.89656
215 4.71076
220 6.21018
225 5.82421
230 6.44866
235 6.27585
240 6.14899
245 6.11363
250 4.70993
255 5.2937
260 3.00112
265 3.76267
270 7.25569
275 5.2066
280 6.4615
285 5.37713
290 4.66546
295 5.82817
300 4.81354
305 4.18546
310 4.38403
315 4.81449
320 5.18498
325 3.2444
330 6.29123
335 6.06451
340 4.25867
345 8.58411
350 6.11329
355 5.49594
360 4.00162
365 5.79956
370 6.39824
375 7.48904
380 6.11643
385 5.53217
390 4.5072
395 10.1257
400 6.43784
405 4.81299
410 5.31259
415 6.36696
420 5.11811
425 5.20717
430 7.12932
435 7.14074
440 4.69705
445 4.7575
450 4.17079
455 5.36105
460 6.01591
465 5.16845
470 6.2291
475 5.74964
480 9.14603
485 5.40764
490 5.27688
495 6.14525
500 5.44905
505 7.29668
510 4.0662
515 3.80075
520 3.51027
525 5.17848
530 4.15337
535 3.18534
540 5.0047
545 3.92798
550 7.02355
555 5.70715
560 5.50536
565 2.5308
570 4.27977
575 6.70733
580 6.0308
585 4.57067
590 7.48026
595 6.1156
600 18.7154
Ex : 228
200 4.3319
205 7.20164
210 4.85624
215 7.54155
220 4.76628
225 5.50592
230 4.57771
235 3.54421
240 4.80167
245 4.75108
250 7.74451
255 4.74498
260 5.10281
265 4.2169
270 4.62838
275 3.69457
280 3.0905
285 5.15358
290 4.85062
295 5.60334
300 7.79544
305 5.81486
310 5.25628
315 4.62532
320 5.22825
325 5.47099
330 5.18357
335 6.54988
340 5.17637
345 5.49607
350 4.65188
355 5.79288
360 4.9495
365 4.01535
370 8.23674
375 4.11905
380 5.99046
385 4.38763
390 5.01971
395 5.75975
400 3.17473
405 4.64328
410 6.29072
415 7.11212
420 6.26912
425 5.34492
430 5.46844
435 5.23611
440 5.03799
445 4.00151
450 4.0361
455 3.9776
460 7.72033
465 7.36668
470 6.99339
475 6.55219
480 7.20784
485 5.4439
490 3.94469
495 2.60558
500 5.3578
505 4.44991
510 6.9842
515 6.0055
520 5.44675
525 5.88141
530 5.32887
535 3.32332
540 3.40473
545 3.78057
550 6.48139
555 3.40401
560 5.20659
565 7.03661
570 4.21523
575 3.94544
580 7.28653
585 5.44634
590 4.30974
595 4.741
600 0.539508
Ex : 233
200 5.92149
205 4.2916
210 5.52794
215 4.26135
220 3.10117
225 4.08814
230 4.03182
235 6.17953
240 4.30435
245 8.58864
250 4.61187
255 4.37023
260 3.3664
265 5.82047
270 4.64841
275 2.92432
280 4.51165
285 5.32115
290 5.10443
295 4.16499
300 3.83399
305 2.65364
310 4.59584
315 4.41097
320 4.2343
325 4.82758
330 4.48189
335 5.05272
340 5.31505
345 5.94029
350 4.39011
355 4.27333
360 4.22311
365 3.43941
370 4.5208
375 6.33476
380 4.48816
385 5.47127
390 7.20038
395 4.20841
400 4.10329
405 4.02566
410 5.18205
415 6.78195
420 6.81971
425 7.30716
430 7.2584
435 8.99171
440 6.52981
445 5.70508
450 5.27801
455 8.24506
460 5.37645
465 7.37919
470 5.32635
475 3.58453
480 3.92687
485 5.52875
490 3.55732
495 4.15772
500 5.28996
505 4.32479
510 4.93838
515 5.24458
520 4.39177
525 4.91177
530 4.62725
535 6.10529
540 4.54916
545 3.78653
550 5.33407
555 3.75037
560 5.11735
565 3.05709
570 4.53755
575 4.19671
580 6.47083
585 5.82017
590 5.41755
595 4.23578
600 14.1296
Ex : 238
200 6.26087
205 5.04841
210 6.11498
215 4.95568
220 3.27983
225 4.10571
230 3.55202
235 2.94377
240 5.91981
245 4.94515
250 6.48404
255 4.84091
260 4.12383
265 3.46771
270 3.87416
275 2.09288
280 5.08113
285 5.36824
290 4.1871
295 4.97127
300 3.08698
305 4.1915
310 4.61259
315 4.52645
320 3.84092
325 3.99843
330 3.70677
335 5.85871
340 7.17321
345 7.98237
350 5.36535
355 5.00423
360 5.01779
365 5.28521
370 4.33919
375 4.22825
380 4.62708
385 4.61255
390 7.40418
395 5.6391
400 7.91277
405 4.02697
410 5.55723
415 4.37014
420 4.12361
425 3.57926
430 5.24053
435 5.30431
440 5.91099
445 4.2317
450 4.15297
455 4.83231
460 5.33136
465 4.06679
470 3.59156
475 3.47014
480 5.4561
485 5.38677
490 5.06923
495 5.91274
500 5.78771
505 5.78619
510 7.14732
515 6.92105
520 3.97238
525 4.25303
530 4.69511
535 4.3058
540 5.01633
545 3.14457
550 4.9332
555 4.75792
560 4.71592
565 3.65221
570 4.09184
575 5.76209
580 6.15453
585 5.17037
590 4.73864
595 4.03641
600 17.4449
Ex : 243
200 3.98361
205 2.84855
210 3.1405
215 3.3468
220 5.28051
225 3.01924
230 4.39039
235 3.42741
240 4.69444
245 3.67399
250 3.38087
255 2.42421
260 3.90395
265 5.029
270 3.56835
275 4.80764
280 3.67065
285 4.94453
290 6.11214
295 5.34376
300 2.99053
305 5.36017
310 4.51284
315 2.22926
320 2.78569
325 3.44984
330 5.94898
335 3.78322
340 4.0395
345 3.8128
350 5.05115
355 6.71258
360 4.14061
365 4.16566
370 3.58022
375 4.43994
380 4.15579
385 3.46233
390 5.52807
395 3.40811
400 3.57262
405 4.50142
410 3.44549
415 4.54597
420 4.12396
425 4.44312
430 4.74131
435 3.11012
440 4.56112
445 6.30951
450 5.03486
455 3.12349
460 3.66752
465 5.88529
470 3.62069
475 4.79593
480 4.79203
485 3.50137
490 4.6342
495 4.59624
500 3.28823
505 5.12043
510 4.62989
515 3.62263
520 3.67784
525 3.32023
530 3.768
535 3.62997
540 3.79211
545 4.88051
550 3.05177
555 3.72853
560 5.16668
565 3.88463
570 2.48691
575 3.85869
580 2.56661
585 2.78588
590 4.26092
595 3.9767
600 0.452533
Ex : 248
200 3.60843
205 3.26058
210 4.17134
215 3.48062
220 3.02832
225 2.79002
230 3.56415
235 3.47613
240 3.43926
245 3.57365
250 3.71411
255 4.40279
260 4.11441
265 3.35744
270 3.99223
275 4.3694
280 3.23851
285 2.51895
290 2.80409
295 2.82206
300 3.61311
305 2.09261
310 2.93808
315 2.20188
320 2.75325
325 2.81977
330 1.99973
335 5.18724
340 4.26208
345 4.01964
350 4.76146
355 2.78053
360 3.35811
365 2.89348
370 3.491
375 4.31919
380 4.874
385 3.91328
390 2.69591
395 3.5849
400 2.84234
405 3.97967
410 4.8942
415 3.51359
420 3.89327
425 3.4887
430 3.56639
435 4.4071
440 5.02582
445 4.35049
450 3.50231
455 4.40183
460 3.23145
465 4.76066
470 3.32395
475 3.85094
480 2.46125
485 4.89316
490 5.37588
495 3.12222
500 2.4066
505 3.83175
510 3.58038
515 4.47638
520 2.29735
525 3.00014
530 4.73286
535 3.42205
540 4.14057
545 4.00806
550 3.2561
555 4.66162
560 4.11136
565 3.31065
570 3.69674
575 3.65163
580 2.81872
585 2.94673
590 3.79783
595 4.24498
600 0.483062
Ex : 253
200 3
205 2.17453
210 2.182
215 2.64327
220 2.80011
225 2.67888
230 2.89563
235 2.49866
240 1.88088
245 3.47138
250 2.5516
255 3.80616
260 2.11415
265 2.50782
270 2.73573
275 3.18437
280 3.8804
285 3.13469
290 3.07017
295 1.88293
300 2.29958
305 2.5446
310 2.19659
315 2.92872
320 2.75313
325 2.8217
330 3.93525
335 4.24208
340 3.64322
345 2.37035
350 2.91505
355 3.06989
360 2.88511
365 3.85997
370 3.07343
375 2.58625
380 3.49775
385 3.50959
390 2.4383
395 3.66096
400 4.68432
405 4.15408
410 2.03908
415 2.9103
420 4.03835
425 2.90798
430 3.33689
435 4.18696
440 4.07392
445 4.40204
450 3.44838
455 2.78811
460 2.88528
465 3.91567
470 2.4895
475 2.17885
480 4.43118
485 3.68819
490 3.35235
495 2.17588
500 3.13789
505 3.31333
510 3.52993
515 2.96748
520 2.70453
525 3.01721
530 3.1339
535 3.9283
540 3.64226
545 2.88463
550 1.9478
555 2.92424
560 2.63864
565 2.07267
570 2.0864
575 3.64771
580 2.7218
585 5.24812
590 2.9701
595 3.04822
600 9.53117
Ex : 258
200 3.40936
205 1.39282
210 1.82485
215 3.89017
220 2.19365
225 2.34511
230 3.42299
235 2.77243
240 2.69761
245 3.22369
250 2.28012
255 2.97871
260 2.20311
265 3.30221
270 2.32686
275 2.65969
280 3.35693
285 2.89597
290 2.58726
295 1.63513
300 1.95848
305 2.49169
310 1.74718
315 1.78248
320 2.75045
325 3.32045
330 2.56224
335 3.07935
340 3.04476
345 2.10144
350 1.81228
355 1.80463
360 2.48241
365 2.3509
370 2.61213
375 2.45973
380 3.40801
385 2.32361
390 2.39343
395 1.96501
400 3.51522
405 3.00909
410 3.31467
415 3.86047
420 3.29603
425 3.48648
430 3.43542
435 2.97754
440 3.10503
445 2.41004
450 3.30628
455 2.67015
460 2.38998
465 2.61091
470 2.82988
475 3.51309
480 3.93757
485 2.62896
490 2.4346
495 1.93379
500 2.54415
505 2.61821
510 2.84042
515 4.9933
520 3.33621
525 2.42418
530 3.29832
535 2.83586
540 3.05532
545 1.351
550 2.8865
555 2.77836
560 2.46838
565 2.71663
570 3.85577
575 3.24684
580 1.79411
585 2.45555
590 3.64446
595 1.75124
600 1.75014
Ex : 263
200 2.3123
205 1.77238
210 1.35144
215 1.8863
220 2.15831
225 2.49343
230 2.26228
235 1.82256
240 2.04787
245 1.98111
250 1.29574
255 1.86491
260 2.65322
265 2.03759
270 1.15017
275 2.11878
280 2.53564
285 1.64541
290 1.24344
295 1.41586
300 1.47986
305 1.65656
310 1.78089
315 2.78097
320 1.73014
325 1.55799
330 2.07035
335 2.31144
340 2.10764
345 2.32354
350 2.34123
355 2.39136
360 3.01272
365 1.85386
370 1.79145
375 2.92517
380 2.51397
385 1.80013
390 4.02794
395 2.4356
400 2.52041
405 2.41911
410 1.53098
415 2.24059
420 3.41576
425 2.51078
430 1.99071
435 1.83948
440 1.6056
445 2.14361
450 1.93274
455 2.10966
460 2.44577
465 2.48243
470 2.72887
475 2.38954
480 1.69786
485 1.59824
490 3.22029
495 2.4151
500 2.25042
505 2.57515
510 1.90522
515 2.94185
520 2.6108
525 2.07239
530 1.70153
535 2.58803
540 1.76684
545 1.48648
550 1.42636
555 1.38261
560 1.77311
565 1.90356
570 1.44935
575 1.06668
580 1.357
585 1.1078
590 1.6172
595 1.54326
600 8.68317
Ex : 268
200 1.78113
205 1.19546
210 1.20632
215 1.14622
220 1.35187
225 1.29903
230 1.39303
235 1.6806
240 1.89339
245 1.60335
250 1.93482
255 2.29326
260 1.6571
265 2.46135
270 2.05138
275 1.34204
280 1.23709
285 1.34852
290 1.29447
295 1.51469
300 1.26359
305 1.84078
310 1.28485
315 1.10691
320 1.1739
325 1.6211
330 2.13299
335 1.98088
340 1.85872
345 1.28184
350 1.90019
355 1.79754
360 1.75597
365 1.36075
370 1.82221
375 1.41063
380 1.85317
385 1.30707
390 1.95013
395 2.10426
400 1.89309
405 1.89148
410 1.77332
415 1.88234
420 2.01225
425 2.17014
430 1.71295
435 2.1068
440 2.38611
445 2.19442
450 2.16
455 2.43088
460 2.62973
465 2.07278
470 1.51744
475 1.51926
480 1.3886
485 1.87739
490 1.6778
495 1.20325
500 1.41914
505 1.83379
510 1.70141
515 1.55933
520 2.63454
525 2.35611
530 2.21979
535 2.63001
540 1.94907
545 1.30854
550 1.55981
555 1.30744
560 1.28497
565 1.48446
570 1.44568
575 1.44968
580 1.4377
585 1.4673
590 1.30059
595 1.7329
600 0.197198
Ex : 273
200 0.935614
205 2.23227
210 1.26877
215 0.876067
220 1.02823
225 1.58773
230 1.37453
235 1.48664
240 0.980245
245 1.65786
250 1.17944
255 1.17486
260 1.0715
265 0.977701
270 2.04594
275 1.4755
280 0.888456
285 1.01116
290 0.907938
295 0.761232
300 1.05827
305 0.842826
310 0.974858
315 1.16971
320 1.01296
325 1.13427
330 0.952507
335 1.14515
340 1.34225
345 1.19571
350 1.69484
355 1.70574
360 1.22786
365 1.30014
370 1.24611
375 0.975181
380 1.40286
385 1.58069
390 1.67794
395 1.23139
400 1.70623
405 1.947
410 1.51017
415 1.88554
420 2.03889
425 1.66454
430 1.1748
435 1.37419
440 1.33738
445 1.98295
450 1.54417
455 2.09418
460 1.54739
465 1.25102
470 1.29572
475 1.20962
480 1.632
485 1.53046
490 0.93004
495 1.32843
500 0.937893
505 1.16909
510 0.716305
515 0.720845
520 1.33044
525 1.17904
530 0.998424
535 2.01878
540 1.67838
545 1.66526
550 1.74893
555 1.2373
560 1.52248
565 1.33921
570 0.969875
575 0.894318
580 0.847621
585 0.887195
590 0.764242
595 0.914632
600 1.7609
Ex : 278
200 0.926808
205 0.77629
210 0.747369
215 1.00914
220 1.32793
225 0.860678
230 1.18108
235 1.03624
240 0.898051
245 1.00254
250 1.16235
255 0.940281
260 0.919415
265 1.14103
270 1.12083
275 0.864198
280 0.930837
285 1.01225
290 0.714505
295 0.597147
300 0.658008
305 0.723707
310 0.821608
315 0.987255
320 0.870775
325 1.07661
330 0.837073
335 1.18355
340 0.959667
345 1.25161
350 1.05277
355 1.34318
360 1.1997
365 0.922344
370 1.29424
375 1.40438
380 1.43564
385 0.817066
390 1.47319
395 1.10018
400 1.10659
405 1.01956
410 1.14668
415 1.39906
420 1.00095
425 1.38847
430 1.28315
435 1.15936
440 1.92148
445 1.28374
450 1.56563
455 1.44184
460 1.64358
465 1.22847
470 0.852367
475 0.756497
480 1.02385
485 1.26747
490 1.52823
495 1.28073
500 1.24733
505 1.06321
510 0.887272
515 1.44908
520 1.26214
525 1.13054
530 1.52397
535 1.3884
540 0.800662
545 1.84568
550 2.12296
555 1.58477
560 1.43132
565 1.06415
570 0.636314
575 1.03259
580 1.12162
585 1.06142
590 0.950249
595 0.870063
600 1.10745
Ex : 283
200 1.03291
205 0.65794
210 0.643062
215 0.67704
220 0.589719
225 0.843155
230 1.00042
235 0.850687
240 1.05918
245 0.795197
250 1.02524
255 0.80642
260 0.680088
265 0.611729
270 0.822423
275 0.917993
280 1.11593
285 1.21637
290 1.13911
295 0.72022
300 1.06138
305 0.877812
310 0.529943
315 0.734241
320 1.20981
325 0.833039
330 0.678501
335 0.940628
340 0.861386
345 0.749879
350 0.707816
355 1.15897
360 0.901419
365 0.838905
370 1.20817
375 0.81793
380 0.93423
385 1.31416
390 0.897979
395 1.38073
400 1.37116
405 1.10136
410 1.44449
415 0.930355
420 1.31857
425 1.64211
430 0.878553
435 0.991742
440 1.32148
445 1.79129
450 1.04317
455 1.02805
460 0.888405
465 1.286
470 1.2784
475 1.2139
480 1.06098
485 1.20078
490 0.873895
495 0.612803
500 0.705055
505 0.665275
510 1.34978
515 0.985698
520 0.814655
525 0.860171
530 0.963975
535 0.937638
540 0.853368
545 0.935695
550 0.796659
555 1.76336
560 1.7678
565 2.00665
570 1.32915
575 1.15032
580 0.789651
585 0.805569
590 0.985342
595 0.42487
600 0.54358
Ex : 288
200 0.48669
205 0.658545
210 0.906833
215 0.559121
220 1.03344
225 0.60455
230 0.499401
235 0.859888
240 0.629366
245 0.768327
250 0.559938
255 1.37313
260 0.878445
265 0.565809
270 0.552935
275 0.676009
280 1.00888
285 1.00308
290 0.83073
295 0.718371
300 0.824883
305 0.558515
310 1.00244
315 0.783879
320 0.652349
325 0.640696
330 1.04665
335 0.741056
340 0.904068
345 0.709147
350 0.888186
355 0.720272
360 0.900921
365 0.790865
370 1.07169
375 0.989976
380 0.798396
385 0.864986
390 1.06265
395 0.678636
400 0.996156
405 0.890347
410 1.27668
415 1.1284
420 0.917715
425 1.38003
430 1.49283
435 1.04827
440 0.968047
445 1.02427
450 0.744588
455 0.674148
460 1.07221
465 1.06933
470 0.876466
475 0.815679
480 0.935
485 0.801421
490 0.782303
495 0.816846
500 1.00997
505 0.562953
510 0.448699
515 0.636838
520 0.73006
525 0.879619
530 0.710965
535 0.906098
540 0.820267
545 0.899597
550 0.759544
555 0.71786
560 0.780257
565 1.04876
570 1.44657
575 1.25692
580 0.93765
585 0.736057
590 0.669344
595 0.571597
600 0.212746
Ex : 293
200 0.618598
205 0.414078
210 0.384278
215 0.615875
220 0.453017
225 0.388265
230 0.465486
235 0.641249
240 0.540567
245 0.728952
250 0.424005
255 0.359667
260 0.597031
265 0.543041
270 0.835018
275 0.833748
280 0.535759
285 0.783402
290 1.14947
295 0.639108
300 1.14035
305 0.425317
310 0.532147
315 0.608673
320 0.680027
325 0.631262
330 0.508257
335 0.626009
340 0.701712
345 0.924321
350 0.669577
355 0.900109
360 0.734354
365 0.665235
370 0.791464
375 0.690498
380 1.04836
385 1.05102
390 0.792032
395 0.900311
400 1.04133
405 1.10411
410 0.787872
415 1.19985
420 1.00323
425 1.03216
430 0.785125
435 1.09841
440 1.25622
445 1.04289
450 0.989724
455 1.2215
460 0.962477
465 0.625409
470 0.582696
475 0.748242
480 0.962885
485 0.867199
490 0.674164
495 0.699981
500 0.829589
505 0.782735
510 0.581062
515 0.675388
520 0.709923
525 0.687113
530 1.07545
535 0.510653
540 0.687534
545 0.552912
550 0.716895
555 0.623739
560 0.65528
565 0.523228
570 0.488566
575 0.963513
580 1.75323
585 1.42462
590 0.935652
595 0.806997
600 0.0918332
Ex : 298
200 0.579516
205 0.706493
210 0.435487
215 0.652765
220 0.494795
225 0.44879
230 0.670322
235 0.567936
240 0.574879
245 0.476288
250 0.626169
255 0.616463
260 0.605341
265 0.454676
270 0.354793
275 0.45981
280 0.412939
285 0.558661
290 0.901144
295 0.879804
300 0.573919
305 0.480597
310 0.57487
315 0.72152
320 0.66183
325 0.575578
330 0.512694
335 0.464276
340 0.679114
345 0.581328
350 0.646783
355 0.721092
360 0.748938
365 0.70669
370 0.606566
375 0.792102
380 0.768236
385 0.861247
390 0.75622
395 0.979179
400 0.975553
405 1.0454
410 1.17556
415 0.852098
420 0.972816
425 1.03532
430 0.816854
435 0.805754
440 0.852775
445 0.846344
450 0.970879
455 0.868094
460 0.78372
465 0.765356
470 0.939733
475 0.687782
480 0.907346
485 0.872396
490 0.814686
495 0.751543
500 0.710627
505 0.648797
510 0.700311
515 0.784469
520 0.601829
525 0.518087
530 0.831886
535 0.53604
540 0.412564
545 0.591742
550 0.485468
555 0.40155
560 0.48822
565 0.552108
570 0.791578
575 0.648915
580 0.310139
585 1.09858
590 1.25347
595 1.07458
600 0.293305
Ex : 303
200 0.485327
205 0.281308
210 0.675181
215 0.502385
220 0.466471
225 0.324645
230 0.650002
235 0.470489
240 0.368043
245 0.520049
250 0.567827
255 0.543153
260 0.596014
265 0.472898
270 0.335895
275 0.563369
280 0.306347
285 0.351338
290 0.751374
295 0.676753
300 0.849453
305 0.547339
310 0.673495
315 0.370251
320 0.337872
325 0.418011
330 0.553437
335 0.612852
340 0.50397
345 0.702135
350 0.787723
355 0.430384
360 0.581638
365 0.49745
370 0.478736
375 0.955531
380 0.747844
385 0.842409
390 0.990838
395 0.794706
400 1.36488
405 0.97088
410 0.87584
415 0.948317
420 1.15635
425 0.97865
430 0.869081
435 1.02891
440 0.931697
445 0.93996
450 0.837957
455 0.909615
460 0.77797
465 0.636019
470 0.543246
475 0.739485
480 0.656785
485 0.605991
490 0.819544
495 0.763285
500 0.593261
505 0.68034
510 0.540548
515 0.430764
520 0.54583
525 0.852101
530 0.530762
535 0.70717
540 0.442292
545 0.423329
550 0.679922
555 0.606872
560 0.471849
565 0.326114
570 0.473323
575 0.585856
580 0.481366
585 0.298617
590 0.543422
595 1.05276
600 0.979149
Ex : 308
200 0.310869
205 0.38551
210 0.388488
215 0.409967
220 0.380376
225 0.337404
230 0.310295
235 0.280689
240 0.512735
245 0.267145
250 0.212457
255 0.358794
260 0.383933
265 0.41186
270 0.260708
275 0.388931
280 0.435783
285 0.344599
290 0.325399
295 0.352288
300 0.616952
305 0.681614
310 0.403766
315 0.32435
320 0.478692
325 0.398079
330 0.64264
335 0.530345
340 0.510402
345 0.612843
350 0.416068
355 0.841405
360 0.634934
365 0.709595
370 0.599134
375 0.630811
380 0.553429
385 0.573672
390 0.663719
395 0.558939
400 0.858613
405 0.758401
410 0.886604
415 0.702909
420 0.87261
425 0.816884
430 0.823245
435 0.666534
440 0.963526
445 0.970038
450 0.75021
455 0.790741
460 0.680392
465 0.626084
470 0.603974
475 0.731026
480 0.77046
485 0.535037
490 0.683799
495 0.698245
500 0.482465
505 0.703762
510 0.523626
515 0.441191
520 0.487113
525 0.380784
530 0.310524
535 0.359586
540 0.435633
545 0.397536
550 0.34005
555 0.436662
560 0.351176
565 0.381898
570 0.36315
575 0.468823
580 0.342789
585 0.326561
590 0.420738
595 0.428182
600 0.0487255
Ex : 313
200 0.436927
205 0.384641
210 0.257726
215 0.364465
220 0.535654
225 0.3081
230 0.459872
235 0.385849
240 0.415275
245 0.252742
250 0.340492
255 0.376262
260 0.449845
265 0.346161
270 0.259257
275 0.58506
280 0.308764
285 0.519529
290 0.304092
295 0.336478
300 0.47356
305 0.693695
310 0.915665
315 0.46629
320 0.484439
325 0.38916
330 0.39923
335 0.69552
340 0.664795
345 0.678776
350 0.647037
355 0.790223
360 0.776143
365 0.95725
370 0.886853
375 1.05908
380 1.26622
385 1.3454
390 1.44347
395 1.373
400 1.37393
405 1.59601
410 1.4333
415 1.45402
420 1.72381
425 1.47044
430 1.3007
435 1.37187
440 1.3259
445 1.41566
450 1.35616
455 1.26875
460 1.27921
465 0.925181
470 0.869804
475 1.12318
480 0.879447
485 0.79978
490 0.682854
495 0.711224
500 0.605766
505 0.609982
510 0.570165
515 0.532904
520 0.688177
525 0.692136
530 0.621986
535 0.759705
540 0.348372
545 0.38445
550 0.5002
555 0.388826
560 0.427226
565 0.364438
570 0.573812
575 0.491912
580 0.461841
585 0.348129
590 0.361334
595 0.295389
600 0.312604
Ex : 318
200 0.337477
205 0.30002
210 0.345176
215 0.252144
220 0.337828
225 0.309081
230 0.263423
235 0.267482
240 0.329841
245 0.265995
250 0.272721
255 0.446007
260 0.312298
265 0.16553
270 0.220982
275 0.360367
280 0.310672
285 0.238509
290 0.327437
295 0.286
300 0.195318
305 0.268019
310 1.05933
315 1.73872
320 1.10667
325 0.625632
330 0.775655
335 1.02229
340 1.49133
345 2.13349
350 3.09986
355 3.78881
360 4.83372
365 5.7977
370 6.53351
375 7.92914
380 9.01965
385 10.0886
390 10.8298
395 11.4953
400 12.5271
405 12.1284
410 12.6945
415 12.426
420 12.6692
425 11.7982
430 12.2061
435 11.7431
440 11.374
445 10.5534
450 10.6599
455 9.42442
460 8.7891
465 7.94006
470 6.94188
475 6.58117
480 6.08041
485 5.56651
490 4.80515
495 4.24437
500 3.71619
505 3.49966
510 3.25738
515 2.75272
520 2.29858
525 2.04936
530 1.75754
535 1.59368
540 1.29217
545 0.935804
550 1.01206
555 1.1442
560 0.83954
565 0.672922
570 0.700822
575 0.591333
580 0.561268
585 0.484558
590 0.297359
595 0.423787
600 0.0482253
Ex : 323
200 0.26098
205 0.242968
210 0.341603
215 0.302634
220 0.270581
225 0.336684
230 0.220865
235 0.27176
240 0.304475
245 0.285674
250 0.284182
255 0.286941
260 0.332151
265 0.342881
270 0.234475
275 0.208298
280 0.271131
285 0.376909
290 0.294325
295 0.240267
300 0.23609
305 0.275036
310 0.608073
315 6.46836
320 24.9398
325 10.0753
330 3.20898
335 3.46875
340 4.8939
345 6.83469
350 9.65802
355 13.162
360 16.0392
365 18.5399
370 22.0868
375 24.634
380 28.9047
385 32.291
390 34.3779
395 37.1735
400 37.699
405 39.5943
410 39.5324
415 39.7893
420 40.1996
425 38.778
430 37.6292
435 36.0668
440 35.4851
445 33.6806
450 31.6488
455 30.6058
460 27.7007
465 25.9027
470 23.5469
475 22.4819
480 19.4791
485 18.3115
490 16.1304
495 14.4806
500 12.9212
505 10.8902
510 9.50448
515 8.71958
520 7.57633
525 6.55886
530 5.30567
535 4.72029
540 4.11318
545 3.92889
550 3.09374
555 2.6511
560 2.24766
565 1.918
570 1.54521
575 1.17346
580 1.15784
585 0.855268
590 0.713789
595 0.603027
600 0.724754
Ex : 328
200 0.299052
205 0.269371
210 0.253981
215 0.180019
220 0.1737
225 0.138136
230 0.206436
235 0.261167
240 0.252108
245 0.311322
250 0.292138
255 0.282285
260 0.313979
265 0.287791
270 0.366895
275 0.248028
280 0.324311
285 0.355731
290 0.417321
295 0.341272
300 0.347726
305 0.276288
310 0.302009
315 1.63116
320 48.4814
325 114.233
330 36.4811
335 7.94606
340 6.02131
345 7.0779
350 9.16355
355 13.1834
360 18.001
365 20.3867
370 22.3296
375 25.136
380 28.3887
385 30.4876
390 33.9524
395 35.6059
400 37.1116
405 38.5916
410 39.0712
415 39.427
420 39.7722
425 38.3901
430 37.5772
435 36.6005
440 35.4982
445 33.472
450 31.9996
455 29.7981
460 28.2532
465 26.921
470 24.6733
475 22.3902
480 20.4411
485 19.1123
490 17.6871
495 15.5027
500 13.5057
505 12.3346
510 11.5888
515 10.0147
520 8.39179
525 7.22774
530 6.51433
535 5.6171
540 5.23056
545 4.47498
550 3.97591
555 3.31027
560 2.6258
565 2.57639
570 2.13103
575 1.48478
580 1.23659
585 1.16564
590 0.858177
595 0.78306
600 1.22961
Ex : 333
200 0.305608
205 0.321993
210 0.295174
215 0.225229
220 0.166706
225 0.218759
230 0.192669
235 0.327681
240 0.332011
245 0.317591
250 0.261738
255 0.346915
260 0.201991
265 0.238412
270 0.260804
275 0.221313
280 0.198517
285 0.153461
290 0.291347
295 0.251823
300 0.268244
305 0.347292
310 0.195249
315 0.387873
320 6.88595
325 131.465
330 226.913
335 60.5348
340 10.7151
345 6.65493
350 5.83238
355 6.88136
360 10.1514
365 14.4415
370 15.6587
375 15.1878
380 15.8553
385 16.565
390 18.876
395 20.2203
400 21.4455
405 21.0413
410 22.727
415 23.2611
420 23.1638
425 22.3371
430 22.6877
435 22.2475
440 22.142
445 21.4252
450 21.3146
455 19.5886
460 18.632
465 18.1943
470 16.7776
475 15.8418
480 15.2314
485 13.6602
490 13.0221
495 11.8674
500 11.0805
505 10.2541
510 8.80723
515 8.19178
520 7.49249
525 6.4842
530 5.99365
535 5.57324
540 4.98599
545 4.25443
550 3.81072
555 3.38636
560 2.80834
565 2.35111
570 2.14686
575 1.89009
580 1.32916
585 1.07356
590 0.83498
595 0.752545
600 0.950572
Ex : 338
200 0.189351
205 0.205334
210 0.231758
215 0.232804
220 0.228918
225 0.289999
230 0.358267
235 0.167896
240 0.260671
245 0.282755
250 0.299927
255 0.250707
260 0.29615
265 0.283825
270 0.21009
275 0.248531
280 0.194059
285 0.359472
290 0.260578
295 0.198585
300 0.27503
305 0.154368
310 0.228333
315 0.245845
320 0.389051
325 13.1175
330 194.419
335 290.182
340 73.3016
345 11.3759
350 4.92772
355 4.11662
360 4.06516
365 6.36564
370 10.4221
375 11.294
380 10.2375
385 9.30728
390 9.49275
395 10.3752
400 10.6866
405 12.2014
410 13.621
415 14.3527
420 14.3557
425 14.8075
430 14.5765
435 15.6241
440 15.6358
445 15.6559
450 15.8157
455 15.2932
460 14.8452
465 15.1554
470 13.7767
475 14.4211
480 13.5155
485 12.4759
490 11.7627
495 11.4134
500 10.5742
505 9.98386
510 9.49363
515 8.2653
520 7.40745
525 6.86121
530 6.1241
535 5.53456
540 4.64633
545 4.45499
550 3.81081
555 3.32225
560 3.15353
565 2.86013
570 2.15689
575 1.78192
580 1.56893
585 0.924207
590 0.961013
595 0.838235
600 0.753711
Ex : 343
200 0.185873
205 0.384403
210 0.188731
215 0.188193
220 0.307488
225 0.179022
230 0.224292
235 0.201778
240 0.209776
245 0.203937
250 0.233269
255 0.279887
260 0.229018
265 0.210971
270 0.201277
275 0.280417
280 0.164194
285 0.191155
290 0.264994
295 0.308603
300 0.247648
305 0.242229
310 0.298247
315 0.370688
320 0.340132
325 0.447417
330 14.159
335 218.33
340 317.72
345 77.0482
350 11.3746
355 4.08365
360 2.94653
365 2.78884
370 3.94739
375 7.90167
380 9.32486
385 7.85896
390 7.48624
395 7.64948
400 8.15712
405 9.48196
410 11.2102
415 12.484
420 13.3318
425 13.0195
430 14.0528
435 14.761
440 15.5163
445 15.9252
450 15.2805
455 15.0359
460 16.3186
465 15.3904
470 15.8216
475 15.4097
480 14.5003
485 14.2467
490 13.802
495 12.7082
500 12.2134
505 11.4597
510 10.1282
515 9.26266
520 8.55152
525 8.02715
530 7.40159
535 6.48372
540 5.8329
545 5.10908
550 4.49677
555 3.96833
560 3.63167
565 3.04364
570 2.5958
575 1.93857
580 1.80281
585 1.28188
590 0.982506
595 0.953853
600 1.47013
Ex : 348
200 0.15962
205 0.169151
210 0.154094
215 0.25674
220 0.154595
225 0.245715
230 0.24024
235 0.212632
240 0.194765
245 0.212167
250 0.160663
255 0.172366
260 0.212705
265 0.140783
270 0.18782
275 0.231934
280 0.227815
285 0.284297
290 0.156334
295 0.247402
300 0.211958
305 0.264782
310 0.306386
315 0.181914
320 0.224109
325 0.359831
330 0.522856
335 14.6953
340 217.848
345 326.098
350 84.4408
355 11.7568
360 3.74093
365 2.74409
370 2.58922
375 3.20001
380 6.65659
385 8.75749
390 7.98038
395 6.78969
400 6.87191
405 8.93541
410 11.3951
415 13.1267
420 13.5857
425 13.7104
430 14.8984
435 15.5761
440 16.9284
445 17.6606
450 17.1617
455 17.0266
460 17.0037
465 17.8357
470 18.1141
475 17.84
480 17.3434
485 16.5718
490 15.4772
495 14.8471
500 14.4671
505 13.3307
510 12.728
515 11.6579
520 10.5682
525 9.44947
530 8.89814
535 7.9381
540 7.05844
545 6.28873
550 5.62717
555 4.74764
560 4.44131
565 3.71891
570 3.06034
575 2.45279
580 1.91245
585 1.43097
590 1.18075
595 0.885576
600 0.72987
Ex : 353
200 0.157647
205 0.224608
210 0.204257
215 0.164514
220 0.274315
225 0.16031
230 0.137659
235 0.208213
240 0.132139
245 0.208671
250 0.25475
255 0.212039
260 0.169815
265 0.251319
270 0.184251
275 0.13485
280 0.2514
285 0.150968
290 0.205349
295 0.248363
300 0.206034
305 0.18365
310 0.184474
315 0.207492
320 0.274224
325 0.246484
330 0.414514
335 0.519481
340 15.1224
345 226.527
350 328.194
355 82.4498
360 11.1292
365 3.39567
370 2.61936
375 2.7642
380 3.06724
385 5.52508
390 8.53916
395 8.47448
400 7.72179
405 8.93251
410 10.8571
415 12.9404
420 13.2511
425 13.8038
430 14.4732
435 15.4533
440 17.1055
445 17.9558
450 17.9022
455 18.3993
460 18.637
465 19.3143
470 19.0706
475 19.7305
480 19.5033
485 18.3651
490 17.9609
495 17.4906
500 17.2122
505 15.7017
510 14.5328
515 13.5336
520 12.2084
525 11.276
530 10.27
535 9.45711
540 8.54996
545 7.55413
550 6.90395
555 5.84098
560 5.29104
565 4.46243
570 3.42674
575 2.80489
580 2.14497
585 1.65924
590 1.51342
595 1.05566
600 0.719325
Ex : 358
200 0.22614
205 0.203468
210 0.145517
215 0.15355
220 0.202301
225 0.161381
230 0.218515
235 0.192918
240 0.173215
245 0.155359
250 0.122381
255 0.206955
260 0.151349
265 0.195787
270 0.193286
275 0.178411
280 0.171531
285 0.189118
290 0.221902
295 0.160226
300 0.198273
305 0.17669
310 0.229167
315 0.180069
320 0.180739
325 0.332209
330 0.407812
335 0.378552
340 0.496278
345 14.1518
350 212.684
355 325.114
360 83.6731
365 11.4238
370 3.30321
375 3.12145
380 3.0887
385 3.15719
390 4.73199
395 9.12417
400 10.0852
405 10.5607
410 12.5446
415 13.7946
420 14.3933
425 14.5624
430 15.3544
435 17.3186
440 18.7112
445 20.2246
450 19.8893
455 19.9902
460 20.212
465 21.4253
470 21.6321
475 21.5981
480 21.3722
485 20.8207
490 20.1179
495 19.2385
500 18.8408
505 17.3218
510 16.2695
515 14.8995
520 13.2516
525 12.5435
530 11.3784
535 10.4451
540 9.10325
545 8.17766
550 7.34823
555 6.46821
560 5.86686
565 5.11629
570 4.30782
575 3.20611
580 2.69854
585 1.71751
590 1.56856
595 1.26713
600 0.885807
Ex : 363
200 0.212528
205 0.220911
210 0.162574
215 0.136849
220 0.165144
225 0.147592
230 0.274172
235 0.188504
240 0.173739
245 0.199761
250 0.183314
255 0.117302
260 0.201423
265 0.126959
270 0.139622
275 0.200273
280 0.139584
285 0.198406
290 0.184902
295 0.154731
300 0.175057
305 0.119781
310 0.155259
315 0.143684
320 0.187635
325 0.205145
330 0.237358
335 0.333094
340 0.347619
345 0.528382
350 12.5582
355 204.254
360 320.347
365 85.1596
370 11.4915
375 3.43638
380 3.07255
385 3.23963
390 3.32019
395 4.64327
400 9.57653
405 13.0322
410 15.264
415 16.774
420 16.3367
425 16.9409
430 17.893
435 20.4845
440 22.083
445 22.4588
450 23.0447
455 23.431
460 23.9559
465 24.5504
470 25.1089
475 25.3227
480 24.4303
485 24.4413
490 23.4493
495 22.8489
500 21.3847
505 20.2917
510 19.0187
515 16.8057
520 15.8325
525 14.6815
530 13.4349
535 12.0234
540 10.5938
545 9.50439
550 8.42129
555 7.43608
560 6.66005
565 5.60347
570 4.77414
575 3.72985
580 2.9494
585 2.31871
590 1.7876
595 1.36073
600 0.788482
Ex : 368
200 0.116602
205 0.107745
210 0.142493
215 0.206805
220 0.134371
225 0.119021
230 0.161179
235 0.157061
240 0.124856
245 0.0969522
250 0.207704
255 0.150532
260 0.122928
265 0.231496
270 0.183608
275 0.173141
280 0.163175
285 0.158947
290 0.0985001
295 0.199248
300 0.121294
305 0.132763
310 0.144073
315 0.229861
320 0.213533
325 0.172964
330 0.2141
335 0.332305
340 0.2743
345 0.373567
350 0.505713
355 10.1915
360 194.018
365 321.3
370 88.0223
375 12.0018
380 3.75299
385 3.55511
390 3.26985
395 3.53868
400 5.28175
405 10.4942
410 16.0063
415 17.4682
420 16.7817
425 15.8051
430 16.9316
435 19.2146
440 21.4447
445 22.4227
450 22.4317
455 22.8201
460 24.4411
465 25.9218
470 26.557
475 27.003
480 27.4572
485 26.4385
490 26.3806
495 25.849
500 25.077
505 23.2731
510 21.5474
515 20.02
520 18.2897
525 16.5333
530 15.1998
535 13.8787
540 12.8747
545 11.082
550 10.0959
555 8.72525
560 7.79234
565 6.73527
570 5.51892
575 4.45361
580 3.52635
585 2.58907
590 2.0955
595 1.76541
600 1.85377
Ex : 373
200 0.122213
205 0.171923
210 0.119796
215 0.103264
220 0.164759
225 0.146168
230 0.128706
235 0.147313
240 0.177908
245 0.133574
250 0.190646
255 0.178176
260 0.16962
265 0.153037
270 0.106258
275 0.126109
280 0.187257
285 0.14721
290 0.150162
295 0.18815
300 0.181842
305 0.133557
310 0.157788
315 0.213848
320 0.228348
325 0.14886
330 0.151984
335 0.229484
340 0.317931
345 0.31211
350 0.418078
355 0.566585
360 11.9683
365 194.935
370 321.141
375 87.9956
380 12.2171
385 3.46698
390 3.40485
395 3.51659
400 4.29682
405 7.19026
410 11.9213
415 16.4564
420 16.2697
425 15.549
430 15.4592
435 17.0756
440 19.3226
445 20.1651
450 21.0733
455 22.0329
460 23.5458
465 25.06
470 26.1098
475 27.3349
480 27.1541
485 27.4932
490 26.8643
495 26.9045
500 25.8194
505 24.5002
510 23.3016
515 21.4535
520 19.6516
525 17.5888
530 16.4156
535 15.0471
540 13.8632
545 12.1076
550 10.9587
555 9.26045
560 8.30234
565 7.29938
570 5.99312
575 4.55232
580 3.70102
585 2.88527
590 2.23041
595 1.76226
600 1.73125
Ex : 378
200 0.182508
205 0.161242
210 0.12847
215 0.152894
220 0.120186
225 0.108177
230 0.106529
235 0.172364
240 0.148812
245 0.124584
250 0.150834
255 0.111027
260 0.142293
265 0.122397
270 0.172649
275 0.204796
280 0.15266
285 0.143897
290 0.137025
295 0.105519
300 0.120445
305 0.128296
310 0.102318
315 0.139738
320 0.11237
325 0.104566
330 0.174516
335 0.179397
340 0.205879
345 0.259115
350 0.286176
355 0.301263
360 0.521747
365 11.3648
370 203.511
375 340.56
380 94.1878
385 13.3352
390 4.19006
395 4.18326
400 4.99611
405 7.40512
410 10.5464
415 14.5557
420 17.8303
425 17.4584
430 17.0006
435 19.0733
440 19.8576
445 20.5624
450 21.6927
455 22.1748
460 23.6334
465 25.0372
470 26.1842
475 26.9987
480 27.2468
485 26.3206
490 26.3656
495 25.7374
500 24.8417
505 23.5124
510 22.3581
515 20.6973
520 18.7101
525 16.7331
530 15.3339
535 13.7619
540 13.2345
545 11.3985
550 10.5285
555 9.22187
560 7.85489
565 6.87779
570 5.81382
575 4.63827
580 3.58278
585 2.72767
590 2.02643
595 1.75002
600 2.49522
Ex : 383
200 0.103965
205 0.0847622
210 0.134066
215 0.113462
220 0.135561
225 0.123905
230 0.140676
235 0.140289
240 0.12423
245 0.157392
250 0.12441
255 0.110918
260 0.167406
265 0.127244
270 0.130669
275 0.160124
280 0.163866
285 0.174574
290 0.159863
295 0.154872
300 0.171691
305 0.129852
310 0.117667
315 0.175819
320 0.21541
325 0.137376
330 0.179688
335 0.16984
340 0.192394
345 0.195093
350 0.290343
355 0.267116
360 0.34273
365 0.489762
370 11.0679
375 210.413
380 355.238
385 98.174
390 13.8477
395 4.47414
400 4.89536
405 7.92497
410 11.8571
415 14.4033
420 16.3316
425 18.4553
430 20.4152
435 21.3137
440 22.9831
445 23.3351
450 22.9963
455 24.039
460 25.3314
465 26.3015
470 27.6428
475 28.6213
480 28.4511
485 28.2691
490 27.2113
495 26.6771
500 26.2129
505 23.7857
510 22.1903
515 21.0723
520 19.3811
525 17.2887
530 16.1246
535 14.2756
540 13.2767
545 11.7906
550 10.7434
555 9.46771
560 8.14043
565 7.01851
570 5.90742
575 4.70461
580 3.70786
585 2.59305
590 2.1517
595 1.70866
600 1.84124
Ex : 388
200 0.182172
205 0.127361
210 0.0866459
215 0.163238
220 0.124103
225 0.165992
230 0.210267
235 0.124756
240 0.162625
245 0.195585
250 0.129422
255 0.115828
260 0.137727
265 0.14417
270 0.102959
275 0.138317
280 0.108184
285 0.155117
290 0.112692
295 0.117937
300 0.117913
305 0.086707
310 0.149273
315 0.142905
320 0.116348
325 0.173173
330 0.11677
335 0.163378
340 0.149281
345 0.15172
350 0.184212
355 0.216695
360 0.271619
365 0.318482
370 0.495689
375 12.0867
380 211.767
385 354.284
390 97.5145
395 13.8266
400 5.20024
405 7.23413
410 11.5134
415 13.5733
420 14.3158
425 14.7871
430 17.8648
435 21.6289
440 22.8076
445 22.8392
450 22.5574
455 23.1138
460 24.1036
465 25.6311
470 27.8989
475 28.2214
480 28.37
485 28.1164
490 28.1175
495 27.2859
500 25.9862
505 25.0713
510 23.2123
515 21.8355
520 19.7429
525 18.2777
530 16.8059
535 14.9327
540 13.3139
545 11.9833
550 11.215
555 9.93395
560 8.15293
565 7.17605
570 5.86148
575 4.92718
580 3.78599
585 2.93252
590 2.14046
595 1.88476
600 1.93025
Ex : 393
200 0.117945
205 0.144586
210 0.124943
215 0.129064
220 0.120089
225 0.144085
230 0.17376
235 0.114459
240 0.151855
245 0.125977
250 0.184379
255 0.152726
260 0.176233
265 0.0995917
270 0.116996
275 0.148139
280 0.117915
285 0.106767
290 0.0909625
295 0.105773
300 0.111066
305 0.139723
310 0.121362
315 0.136038
320 0.0993906
325 0.124623
330 0.148352
335 0.187395
340 0.181391
345 0.151554
350 0.172671
355 0.172692
360 0.19575
365 0.284213
370 0.329148
375 0.42304
380 10.3474
385 207.907
390 358.935
395 99.9581
400 14.4068
405 6.60281
410 9.20219
415 11.244
420 11.455
425 11.4757
430 12.2324
435 15.7218
440 20.0307
445 20.179
450 20.3956
455 21.3107
460 22.3124
465 24.2936
470 26.1269
475 27.3424
480 27.2116
485 27.3124
490 27.4289
495 27.3574
500 26.4683
505 25.2135
510 23.4625
515 21.9808
520 19.9467
525 18.5171
530 17.0062
535 15.5957
540 14.2786
545 12.7555
550 11.63
555 10.1063
560 8.94328
565 7.40306
570 6.21747
575 4.96395
580 3.98137
585 3.13975
590 2.42015
595 1.90685
600 1.00652
Ex : 398
200 0.129342
205 0.148753
210 0.106222
215 0.082139
220 0.109744
225 0.170788
230 0.134874
235 0.138495
240 0.110765
245 0.190591
250 0.17255
255 0.0745923
260 0.146874
265 0.124387
270 0.121786
275 0.121824
280 0.164127
285 0.131211
290 0.115311
295 0.118681
300 0.0965848
305 0.117422
310 0.148804
315 0.130117
320 0.102415
325 0.105257
330 0.144489
335 0.135944
340 0.13491
345 0.119646
350 0.193477
355 0.168943
360 0.222201
365 0.225628
370 0.236084
375 0.328918
380 0.545963
385 10.7499
390 214.311
395 374.969
400 103.26
405 16.2705
410 8.91575
415 9.92806
420 10.7404
425 10.1518
430 10.6275
435 12.9023
440 15.933
445 19.6361
450 20.3893
455 21.013
460 22.4069
465 23.9577
470 25.6046
475 26.9311
480 27.5302
485 27.4536
490 27.8765
495 27.4937
500 26.6806
505 25.6124
510 24.0101
515 22.7535
520 21.1458
525 19.3914
530 17.5764
535 16.3585
540 14.7349
545 13.5274
550 11.9593
555 10.258
560 9.05922
565 7.78703
570 6.66557
575 4.94263
580 4.05194
585 3.12246
590 2.47455
595 1.74936
600 1.97751
Ex : 403
200 0.192041
205 0.140431
210 0.132671
215 0.135664
220 0.0754194
225 0.0946223
230 0.137747
235 0.141118
240 0.156305
245 0.13277
250 0.114905
255 0.10136
260 0.109205
265 0.128143
270 0.128706
275 0.157012
280 0.144031
285 0.111119
290 0.136347
295 0.11461
300 0.125261
305 0.123621
310 0.11409
315 0.105865
320 0.128459
325 0.150974
330 0.16663
335 0.12132
340 0.211725
345 0.133675
350 0.158035
355 0.189604
360 0.190175
365 0.213451
370 0.210759
375 0.284709
380 0.390297
385 0.626731
390 12.664
395 224.792
400 376.589
405 106.568
410 19.74
415 11.5169
420 11.137
425 11.0652
430 11.7284
435 13.6397
440 15.6544
445 17.8223
450 21.3659
455 23.5846
460 23.8252
465 25.6326
470 26.6534
475 27.101
480 28.5603
485 28.9544
490 28.8509
495 28.3027
500 27.4529
505 26.1345
510 25.1938
515 23.3995
520 21.5651
525 19.4259
530 18.1396
535 16.0328
540 14.826
545 13.2504
550 11.9667
555 10.0728
560 9.16034
565 7.93826
570 6.69802
575 5.44003
580 4.27687
585 3.29542
590 2.55079
595 1.92693
600 2.5094
Ex : 408
200 0.104791
205 0.128714
210 0.0811685
215 0.108367
220 0.115974
225 0.100945
230 0.0794713
235 0.104301
240 0.12091
245 0.0942041
250 0.103104
255 0.111857
260 0.168896
265 0.101025
270 0.103551
275 0.130568
280 0.102553
285 0.0978409
290 0.136018
295 0.102257
300 0.0794986
305 0.0947589
310 0.113208
315 0.121155
320 0.13512
325 0.128327
330 0.159405
335 0.164639
340 0.143289
345 0.158122
350 0.135507
355 0.170799
360 0.226307
365 0.162584
370 0.224355
375 0.227988
380 0.278958
385 0.38418
390 0.522767
395 11.8837
400 227.87
405 382.375
410 107.448
415 20.8976
420 11.2343
425 10.0865
430 11.2811
435 12.6955
440 14.6457
445 16.453
450 17.1847
455 20.8986
460 24.073
465 25.2799
470 26.952
475 27.7972
480 28.0765
485 29.2285
490 28.5242
495 28.0431
500 27.35
505 26.5557
510 25.1182
515 23.6463
520 21.7192
525 19.7586
530 17.9958
535 16.765
540 15.0473
545 13.2437
550 12.2418
555 10.8363
560 9.47413
565 7.99894
570 6.88527
575 5.40762
580 4.14268
585 3.3097
590 2.48527
595 2.00281
600 1.72811
Ex : 413
200 0.126864
205 0.145536
210 0.159224
215 0.15035
220 0.168679
225 0.141892
230 0.112082
235 0.130336
240 0.122445
245 0.132679
250 0.119538
255 0.0949439
260 0.0657825
265 0.0739014
270 0.0892461
275 0.148016
280 0.156722
285 0.148395
290 0.133986
295 0.167092
300 0.170314
305 0.132231
310 0.0967013
315 0.151335
320 0.140792
325 0.127866
330 0.120838
335 0.12378
340 0.124382
345 0.176255
350 0.140564
355 0.174602
360 0.14589
365 0.127555
370 0.16822
375 0.171108
380 0.348331
385 0.272167
390 0.414152
395 0.66404
400 14.3461
405 237.9
410 390.398
415 104.318
420 17.7631
425 7.76857
430 7.49049
435 9.29608
440 10.5314
445 11.9057
450 13.154
455 15.3682
460 18.7589
465 22.8151
470 24.6303
475 25.1482
480 26.2584
485 25.5935
490 26.1078
495 26.7128
500 26.3602
505 25.477
510 23.8399
515 22.283
520 20.2834
525 18.751
530 17.8996
535 15.8406
540 14.5611
545 12.7831
550 11.7809
555 10.1995
560 9.1497
565 7.76248
570 6.46344
575 5.21491
580 4.10448
585 3.17512
590 2.48794
595 1.89051
600 1.44564
Ex : 418
200 0.188321
205 0.154494
210 0.113292
215 0.107843
220 0.0816511
225 0.110433
230 0.192306
235 0.119874
240 0.10272
245 0.100288
250 0.116379
255 0.147227
260 0.111662
265 0.0986339
270 0.0872488
275 0.165662
280 0.117514
285 0.065812
290 0.111958
295 0.11003
300 0.138709
305 0.104482
310 0.0807503
315 0.107477
320 0.104598
325 0.117244
330 0.131881
335 0.159152
340 0.162908
345 0.150925
350 0.1262
355 0.156677
360 0.152462
365 0.177921
370 0.179349
375 0.204402
380 0.173927
385 0.233802
390 0.263369
395 0.422233
400 0.759171
405 13.3854
410 238.252
415 400.306
420 108.791
425 15.8123
430 5.33808
435 5.07554
440 6.16744
445 7.42584
450 9.18308
455 11.5246
460 13.9362
465 17.2391
470 20.8633
475 22.9716
480 23.1477
485 23.9481
490 24.2552
495 24.0963
500 23.4722
505 22.778
510 21.7943
515 20.377
520 18.9517
525 18.0838
530 16.2131
535 14.53
540 13.1307
545 12.2411
550 10.6251
555 9.73771
560 8.53682
565 7.50132
570 6.12614
575 4.91582
580 3.87887
585 2.85997
590 2.31129
595 1.92015
600 1.89763
Ex : 423
200 0.100389
205 0.12116
210 0.104029
215 0.106466
220 0.0931029
225 0.139288
230 0.0961982
235 0.120903
240 0.139644
245 0.0946074
250 0.0944649
255 0.155637
260 0.117752
265 0.165058
270 0.117913
275 0.124359
280 0.12557
285 0.113396
290 0.110433
295 0.10319
300 0.101184
305 0.108
310 0.101695
315 0.0926931
320 0.0958258
325 0.120265
330 0.162611
335 0.118279
340 0.126019
345 0.158983
350 0.103786
355 0.101987
360 0.145294
365 0.192449
370 0.263693
375 0.227151
380 0.148019
385 0.183085
390 0.2643
395 0.279162
400 0.427143
405 0.691611
410 13.3566
415 249.356
420 402.076
425 103.828
430 14.1108
435 4.19597
440 3.87423
445 5.27485
450 6.88777
455 9.03621
460 11.3294
465 13.8022
470 16.1628
475 19.6839
480 21.849
485 21.7054
490 21.9633
495 21.9286
500 21.383
505 21.0895
510 19.9103
515 18.9448
520 17.7756
525 16.1893
530 15.1399
535 13.7443
540 12.5644
545 11.4531
550 10.3143
555 8.90587
560 8.09976
565 6.65472
570 5.53651
575 4.43779
580 3.62145
585 2.82335
590 2.29364
595 1.75372
600 1.40061
Ex : 428
200 0.0923653
205 0.112798
210 0.116074
215 0.095488
220 0.0808858
225 0.112457
230 0.0967405
235 0.106081
240 0.144694
245 0.115651
250 0.0950744
255 0.183872
260 0.116228
265 0.144315
270 0.115424
275 0.124299
280 0.124485
285 0.165849
290 0.130039
295 0.15693
300 0.124191
305 0.132663
310 0.144875
315 0.0712927
320 0.109951
325 0.156299
330 0.124951
335 0.209288
340 0.166944
345 0.172637
350 0.157755
355 0.145121
360 0.108208
365 0.141714
370 0.114821
375 0.244568
380 0.166524
385 0.192396
390 0.165203
395 0.181537
400 0.338081
405 0.426382
410 0.636154
415 15.0657
420 259.513
425 423.538
430 112.07
435 14.999
440 4.28956
445 4.07272
450 6.05209
455 8.21202
460 9.92312
465 11.991
470 13.653
475 15.4488
480 18.0233
485 20.5169
490 19.9582
495 20.2478
500 19.6719
505 18.6035
510 17.7068
515 16.4182
520 15.583
525 14.4482
530 13.6069
535 12.0534
540 11.2826
545 10.2471
550 9.1181
555 8.48646
560 7.22007
565 6.14296
570 5.13191
575 4.12838
580 3.27095
585 2.38452
590 2.00404
595 1.55261
600 1.66056
Ex : 433
200 0.113931
205 0.128342
210 0.157138
215 0.0948341
220 0.146382
225 0.178299
230 0.111673
235 0.0837392
240 0.086259
245 0.154609
250 0.161976
255 0.0972361
260 0.154706
265 0.115508
270 0.105901
275 0.116934
280 0.145175
285 0.118358
290 0.139855
295 0.0866708
300 0.0937566
305 0.102672
310 0.116542
315 0.112647
320 0.110761
325 0.0997929
330 0.132222
335 0.173133
340 0.106657
345 0.166204
350 0.170131
355 0.195729
360 0.148607
365 0.18641
370 0.163618
375 0.165463
380 0.234898
385 0.175518
390 0.210661
395 0.174597
400 0.271551
405 0.301501
410 0.421012
415 0.660703
420 17.3524
425 282.983
430 433.097
435 110.506
440 15.0229
445 4.91297
450 4.95354
455 6.81905
460 8.91542
465 10.2219
470 11.6517
475 12.9816
480 14.8547
485 16.7185
490 18.9244
495 18.4485
500 17.2488
505 16.5613
510 15.8737
515 14.763
520 13.6734
525 12.859
530 11.9575
535 11.2987
540 9.8057
545 8.89825
550 7.93758
555 7.01659
560 6.31577
565 5.17895
570 4.60991
575 3.72546
580 2.80694
585 2.26174
590 1.62013
595 1.37426
600 0.743196
Ex : 438
200 0.0936008
205 0.0882155
210 0.13762
215 0.116789
220 0.13106
225 0.127505
230 0.132618
235 0.124606
240 0.119055
245 0.157352
250 0.17364
255 0.152314
260 0.116421
265 0.112486
270 0.0962967
275 0.102115
280 0.170919
285 0.11308
290 0.0885067
295 0.112285
300 0.132468
305 0.11234
310 0.0973696
315 0.13542
320 0.125366
325 0.102089
330 0.121705
335 0.161728
340 0.144974
345 0.0973719
350 0.114643
355 0.119586
360 0.0982226
365 0.12735
370 0.161439
375 0.114801
380 0.204143
385 0.138461
390 0.226618
395 0.206504
400 0.229635
405 0.255051
410 0.244914
415 0.403614
420 0.683569
425 16.4586
430 284.244
435 464.913
440 119.451
445 16.5293
450 5.79737
455 5.7158
460 7.61144
465 9.23341
470 10.1294
475 11.1239
480 12.1782
485 13.2643
490 14.3156
495 16.0036
500 16.3427
505 14.8327
510 13.7622
515 13.2865
520 12.3141
525 10.7807
530 10.3859
535 9.28916
540 8.44159
545 7.73798
550 6.86149
555 5.87819
560 5.56301
565 4.74872
570 3.91918
575 3.12027
580 2.45824
585 1.87728
590 1.44129
595 1.17009
600 1.14638
Ex : 443
200 0.12518
205 0.125548
210 0.120775
215 0.159939
220 0.131225
225 0.119759
230 0.138991
235 0.110887
240 0.121956
245 0.130904
250 0.131062
255 0.0980699
260 0.0827971
265 0.0958599
270 0.0945653
275 0.16314
280 0.137362
285 0.109593
290 0.13708
295 0.161846
300 0.113352
305 0.110913
310 0.110129
315 0.113185
320 0.0838794
325 0.114125
330 0.109129
335 0.13395
340 0.121766
345 0.1391
350 0.1414
355 0.175811
360 0.151119
365 0.140695
370 0.134056
375 0.173765
380 0.162498
385 0.139318
390 0.178162
395 0.196743
400 0.207295
405 0.228125
410 0.234817
415 0.329431
420 0.470867
425 0.656692
430 18.8325
435 309.59
440 482.148
445 121.384
450 17.2787
455 6.12057
460 5.96645
465 7.40169
470 8.17951
475 8.99922
480 10.0222
485 10.5235
490 10.9157
495 11.3546
500 12.5968
505 13.6534
510 12.1213
515 11.1394
520 10.1174
525 9.12779
530 8.38191
535 7.69263
540 6.94187
545 6.33033
550 5.86818
555 4.99543
560 4.81582
565 4.00812
570 3.27045
575 2.61666
580 1.98427
585 1.66398
590 1.2361
595 1.02715
600 0.645604
Ex : 448
200 0.145288
205 0.139784
210 0.157068
215 0.137086
220 0.143213
225 0.182124
230 0.186434
235 0.13368
240 0.12459
245 0.143644
250 0.100111
255 0.10721
260 0.143468
265 0.11973
270 0.121162
275 0.139859
280 0.194269
285 0.162313
290 0.116961
295 0.129769
300 0.132847
305 0.133022
310 0.100224
315 0.135222
320 0.129865
325 0.119084
330 0.149968
335 0.189825
340 0.129745
345 0.125656
350 0.125775
355 0.12594
360 0.148303
365 0.108488
370 0.202674
375 0.151647
380 0.15023
385 0.150965
390 0.190612
395 0.151328
400 0.162155
405 0.232068
410 0.229739
415 0.250183
420 0.290092
425 0.489644
430 0.781337
435 19.7367
440 338.045
445 518.517
450 131.027
455 18.7136
460 6.47004
465 5.80884
470 6.33515
475 7.27851
480 7.45163
485 7.82122
490 8.31651
495 8.54587
500 8.66069
505 9.46043
510 10.4776
515 9.67729
520 8.13312
525 7.68392
530 6.92831
535 6.23732
540 5.70161
545 5.0744
550 4.47386
555 3.97531
560 3.66292
565 3.21971
570 2.54377
575 2.08657
580 1.65928
585 1.27166
590 1.05536
595 0.906401
600 1.05243
Ex : 453
200 0.103641
205 0.125021
210 0.121662
215 0.113897
220 0.112379
225 0.0995237
230 0.146752
235 0.130198
240 0.134623
245 0.176399
250 0.107976
255 0.147792
260 0.150954
265 0.106681
270 0.088008
275 0.11647
280 0.0991675
285 0.178104
290 0.104959
295 0.131546
300 0.110875
305 0.178962
310 0.0854627
315 0.136923
320 0.130349
325 0.133992
330 0.121628
335 0.181239
340 0.146314
345 0.152585
350 0.186171
355 0.132881
360 0.168166
365 0.143978
370 0.189155
375 0.145964
380 0.133442
385 0.141863
390 0.136947
395 0.152962
400 0.161421
405 0.242048
410 0.180211
415 0.234232
420 0.297402
425 0.382418
430 0.490426
435 0.744214
440 20.7297
445 369.054
450 541.585
455 127.451
460 17.8505
465 5.95003
470 4.74016
475 5.02441
480 5.66468
485 6.02119
490 6.06367
495 6.01472
500 6.16028
505 6.03156
510 6.36529
515 7.66163
520 7.45122
525 6.08248
530 5.6464
535 4.95104
540 4.24021
545 3.69673
550 3.46035
555 3.18112
560 2.69957
565 2.38334
570 2.07141
575 1.60796
580 1.36087
585 1.12193
590 0.81027
595 0.628306
600 0.946485
Ex : 458
200 0.0955642
205 0.063458
210 0.0953242
215 0.118696
220 0.124614
225 0.127362
230 0.118502
235 0.12739
240 0.118698
245 0.127386
250 0.119177
255 0.147812
260 0.125926
265 0.170194
270 0.126672
275 0.127416
280 0.137314
285 0.156788
290 0.166279
295 0.18301
300 0.0895837
305 0.118727
310 0.140798
315 0.157097
320 0.145801
325 0.130927
330 0.136888
335 0.123268
340 0.159354
345 0.148914
350 0.140308
355 0.140345
360 0.148634
365 0.158606
370 0.139633
375 0.139252
380 0.199737
385 0.143957
390 0.156184
395 0.151618
400 0.143516
405 0.157763
410 0.181733
415 0.177662
420 0.207515
425 0.297529
430 0.369214
435 0.519121
440 0.776012
445 22.5205
450 362.607
455 555.249
460 135.792
465 18.5039
470 4.96464
475 3.59331
480 3.57423
485 4.31992
490 4.26513
495 4.13663
500 4.25551
505 4.09777
510 4.25259
515 4.08866
520 5.3502
525 5.76444
530 4.67954
535 3.90002
540 3.56468
545 3.10292
550 2.73834
555 2.44867
560 2.20034
565 1.96476
570 1.64337
575 1.30619
580 1.07476
585 0.807158
590 0.669826
595 0.55185
600 0.321396
Ex : 463
200 0.148296
205 0.118614
210 0.120189
215 0.0922898
220 0.0788824
225 0.112795
230 0.176223
235 0.161198
240 0.140096
245 0.106977
250 0.15738
255 0.168415
260 0.107772
265 0.120755
270 0.152524
275 0.0891634
280 0.161023
285 0.137246
290 0.11932
295 0.116648
300 0.0984897
305 0.122663
310 0.114712
315 0.198343
320 0.144213
325 0.148321
330 0.105584
335 0.132047
340 0.153954
345 0.168495
350 0.132201
355 0.147116
360 0.14125
365 0.143059
370 0.192985
375 0.153738
380 0.173284
385 0.186797
390 0.160367
395 0.150981
400 0.165252
405 0.195457
410 0.181058
415 0.127693
420 0.205625
425 0.197702
430 0.222098
435 0.361857
440 0.537001
445 0.916312
450 21.7767
455 371.966
460 574.359
465 139.528
470 18.0914
475 4.22857
480 2.74567
485 2.83314
490 3.26563
495 3.37616
500 3.09257
505 2.92552
510 2.9645
515 2.81308
520 2.93786
525 3.60842
530 4.53354
535 3.93316
540 3.07624
545 2.89034
550 2.57274
555 2.0061
560 1.72186
565 1.53943
570 1.39049
575 1.09667
580 0.974135
585 0.864146
590 0.671716
595 0.49594
600 0.370984
Ex : 468
200 0.111525
205 0.112653
210 0.0969844
215 0.118757
220 0.100115
225 0.149293
230 0.100905
235 0.0979387
240 0.152446
245 0.103219
250 0.137119
255 0.0841994
260 0.0736922
265 0.0943578
270 0.151481
275 0.162559
280 0.111713
285 0.111969
290 0.143591
295 0.115964
300 0.113042
305 0.105234
310 0.1334
315 0.122154
320 0.139796
325 0.126384
330 0.134541
335 0.166105
340 0.108784
345 0.135935
350 0.140596
355 0.118019
360 0.124155
365 0.137212
370 0.0960826
375 0.165796
380 0.146802
385 0.154846
390 0.143647
395 0.171388
400 0.175906
405 0.136374
410 0.162889
415 0.171262
420 0.223132
425 0.225315
430 0.212441
435 0.276209
440 0.349798
445 0.541414
450 0.747389
455 23.9448
460 387.336
465 606.216
470 144.202
475 18.2482
480 3.90294
485 2.38856
490 2.29548
495 2.48344
500 2.45657
505 2.44549
510 2.27045
515 2.22914
520 2.28597
525 2.22015
530 2.45597
535 3.63827
540 3.79191
545 2.63486
550 2.20525
555 2.17697
560 1.74178
565 1.45745
570 1.28941
575 0.995059
580 0.722667
585 0.65399
590 0.525421
595 0.501231
600 0.347597
Ex : 473
200 0.129838
205 0.158806
210 0.0969373
215 0.0955697
220 0.125282
225 0.160378
230 0.12485
235 0.121281
240 0.145885
245 0.12828
250 0.132317
255 0.101217
260 0.107378
265 0.119125
270 0.139339
275 0.104966
280 0.0992795
285 0.156246
290 0.105165
295 0.174018
300 0.153018
305 0.176126
310 0.133294
315 0.0909118
320 0.0936394
325 0.114573
330 0.173126
335 0.147579
340 0.149872
345 0.118175
350 0.146912
355 0.132315
360 0.136374
365 0.160031
370 0.151995
375 0.138598
380 0.143682
385 0.122276
390 0.103959
395 0.152584
400 0.188313
405 0.167619
410 0.184328
415 0.150888
420 0.198629
425 0.226964
430 0.200322
435 0.250039
440 0.314718
445 0.386809
450 0.514067
455 0.878306
460 27.4941
465 405.197
470 570.028
475 130.864
480 16.6904
485 3.69621
490 1.96605
495 1.93077
500 2.12105
505 2.08526
510 2.00952
515 1.75985
520 1.87423
525 1.73718
530 1.76502
535 2.06462
540 2.95224
545 3.43375
550 2.44543
555 2.09112
560 1.94784
565 1.62386
570 1.14661
575 1.01055
580 0.906445
585 0.741583
590 0.601094
595 0.459896
600 0.312218
Ex : 478
200 0.0978627
205 0.118355
210 0.156015
215 0.147089
220 0.119513
225 0.141764
230 0.126614
235 0.122057
240 0.200252
245 0.14133
250 0.109379
255 0.176032
260 0.199112
265 0.150865
270 0.15717
275 0.138728
280 0.172664
285 0.108976
290 0.123026
295 0.118837
300 0.138365
305 0.176132
310 0.204688
315 0.182137
320 0.166795
325 0.160046
330 0.110751
335 0.113744
340 0.150844
345 0.16577
350 0.154372
355 0.172166
360 0.147307
365 0.163725
370 0.142773
375 0.138058
380 0.147547
385 0.163152
390 0.153895
395 0.204998
400 0.192552
405 0.190563
410 0.11554
415 0.176906
420 0.237835
425 0.215445
430 0.2346
435 0.234652
440 0.271022
445 0.360353
450 0.422358
455 0.593633
460 0.958486
465 29.1405
470 406.384
475 569.109
480 136.699
485 17.293
490 3.53754
495 1.87911
500 1.63437
505 1.75844
510 1.84344
515 1.83913
520 1.70114
525 1.63592
530 1.69485
535 1.71579
540 1.67281
545 2.30196
550 2.97998
555 2.47461
560 1.81296
565 1.57693
570 1.42725
575 1.09564
580 0.813106
585 0.667306
590 0.534849
595 0.438696
600 0.169339
Ex : 483
200 0.107036
205 0.0916274
210 0.111834
215 0.128572
220 0.133652
225 0.148671
230 0.163048
235 0.116823
240 0.11716
245 0.167799
250 0.136879
255 0.116078
260 0.133554
265 0.101617
270 0.131831
275 0.116595
280 0.138531
285 0.138664
290 0.132207
295 0.144161
300 0.150678
305 0.161985
310 0.138158
315 0.116498
320 0.0947513
325 0.150182
330 0.0932176
335 0.145978
340 0.160742
345 0.166042
350 0.193997
355 0.160476
360 0.181221
365 0.169219
370 0.118705
375 0.167866
380 0.171179
385 0.16155
390 0.173803
395 0.169812
400 0.178186
405 0.156468
410 0.139529
415 0.159971
420 0.195297
425 0.195829
430 0.196389
435 0.274857
440 0.260632
445 0.272143
450 0.327017
455 0.350004
460 0.558588
465 0.827736
470 22.1459
475 398.26
480 608.822
485 145.104
490 18.0722
495 3.45391
500 1.71148
505 1.41416
510 1.61676
515 1.86218
520 1.64207
525 1.71461
530 1.63016
535 1.59008
540 1.61743
545 1.64021
550 1.80278
555 2.50901
560 2.65568
565 1.75711
570 1.36288
575 1.22831
580 1.01085
585 0.694911
590 0.48731
595 0.485932
600 0.334173
Ex : 488
200 0.121782
205 0.163607
210 0.2115
215 0.178696
220 0.149671
225 0.152434
230 0.153937
235 0.145231
240 0.161849
245 0.130771
250 0.192956
255 0.191534
260 0.144937
265 0.13673
270 0.161154
275 0.209703
280 0.140985
285 0.126233
290 0.179362
295 0.178597
300 0.158669
305 0.125343
310 0.124998
315 0.1124
320 0.150775
325 0.124822
330 0.141697
335 0.14882
340 0.184908
345 0.193291
350 0.172757
355 0.165007
360 0.183108
365 0.120894
370 0.130426
375 0.195708
380 0.218274
385 0.224508
390 0.187856
395 0.203424
400 0.232416
405 0.210396
410 0.176606
415 0.176438
420 0.269915
425 0.185858
430 0.212158
435 0.246882
440 0.263718
445 0.237543
450 0.317269
455 0.319221
460 0.358754
465 0.648566
470 0.962796
475 27.2918
480 427.68
485 606.974
490 141.675
495 17.5738
500 3.24729
505 1.67857
510 1.57468
515 1.66592
520 1.86606
525 1.72364
530 1.65914
535 1.60478
540 1.47937
545 1.50117
550 1.46747
555 1.57925
560 2.00097
565 2.40356
570 1.85437
575 1.17905
580 0.99244
585 0.810906
590 0.607946
595 0.551798
600 0.692868
Ex : 493
200 0.137947
205 0.150047
210 0.160222
215 0.154727
220 0.141153
225 0.108048
230 0.144679
235 0.13035
240 0.176262
245 0.162712
250 0.141584
255 0.150212
260 0.110003
265 0.155748
270 0.153251
275 0.163805
280 0.181729
285 0.140745
290 0.24543
295 0.149424
300 0.142752
305 0.165849
310 0.199577
315 0.231263
320 0.132321
325 0.167045
330 0.126715
335 0.184273
340 0.174183
345 0.177557
350 0.171408
355 0.183824
360 0.195687
365 0.160268
370 0.284681
375 0.202574
380 0.237774
385 0.179261
390 0.17121
395 0.222747
400 0.167947
405 0.189255
410 0.165604
415 0.19034
420 0.189769
425 0.159686
430 0.190039
435 0.246194
440 0.236577
445 0.283898
450 0.278016
455 0.282378
460 0.351956
465 0.490274
470 0.662819
475 0.878359
480 24.6052
485 435.635
490 663.958
495 148.37
500 18.2747
505 3.3231
510 1.54315
515 1.39942
520 1.54698
525 1.62319
530 1.75889
535 1.53182
540 1.47456
545 1.34193
550 1.27505
555 1.37522
560 1.13932
565 1.41561
570 1.93737
575 1.65039
580 1.05857
585 0.799741
590 0.806993
595 0.483438
600 0.33363
Ex : 498
200 0.102372
205 0.217254
210 0.154754
215 0.164146
220 0.201067
225 0.238171
230 0.143792
235 0.140017
240 0.147566
245 0.173381
250 0.250059
255 0.194284
260 0.169839
265 0.174457
270 0.186595
275 0.121146
280 0.154626
285 0.161899
290 0.175495
295 0.125761
300 0.171852
305 0.163335
310 0.133599
315 0.151467
320 0.170451
325 0.233116
330 0.126199
335 0.1802
340 0.203115
345 0.195897
350 0.177677
355 0.178642
360 0.241857
365 0.133254
370 0.1702
375 0.204213
380 0.193231
385 0.192077
390 0.254444
395 0.187173
400 0.248997
405 0.156813
410 0.165575
415 0.216453
420 0.176997
425 0.188822
430 0.199629
435 0.204571
440 0.227091
445 0.26129
450 0.359234
455 0.322476
460 0.333468
465 0.402997
470 0.441994
475 0.513092
480 0.984829
485 29.0011
490 432.854
495 591.907
500 137.476
505 16.9991
510 3.26721
515 1.57686
520 1.24288
525 1.52797
530 1.54626
535 1.69812
540 1.36891
545 1.33685
550 1.33045
555 1.24641
560 1.21582
565 1.27
570 1.26109
575 1.56886
580 1.34492
585 0.932164
590 0.78831
595 0.664856
600 0.816031
Ex : 503
200 0.191994
205 0.192506
210 0.155707
215 0.124934
220 0.146679
225 0.165444
230 0.192285
235 0.202853
240 0.189512
245 0.200611
250 0.160626
255 0.159156
260 0.183017
265 0.221629
270 0.167715
275 0.186238
280 0.180221
285 0.208271
290 0.183699
295 0.170627
300 0.14174
305 0.194167
310 0.198071
315 0.155965
320 0.180447
325 0.201325
330 0.205117
335 0.204091
340 0.192992
345 0.205792
350 0.164339
355 0.128251
360 0.171466
365 0.182581
370 0.199153
375 0.242602
380 0.18101
385 0.214686
390 0.12855
395 0.14522
400 0.137199
405 0.167936
410 0.180642
415 0.191631
420 0.245579
425 0.218991
430 0.152998
435 0.226308
440 0.254082
445 0.213311
450 0.257096
455 0.296947
460 0.349308
465 0.299154
470 0.322366
475 0.426781
480 0.580649
485 0.907927
490 26.0427
495 430.028
500 605.521
505 139.032
510 17.2203
515 3.2353
520 1.6625
525 1.24137
530 1.46918
535 1.56583
540 1.60083
545 1.56137
550 1.29408
555 1.24035
560 1.12747
565 1.08742
570 0.993336
575 1.00103
580 1.15776
585 1.27221
590 0.918814
595 0.618169
600 0.266408
Ex : 508
200 0.210994
205 0.140524
210 0.167752
215 0.14862
220 0.253655
225 0.166706
230 0.0949477
235 0.119493
240 0.144942
245 0.135937
250 0.168628
255 0.171322
260 0.178805
265 0.189088
270 0.148425
275 0.177013
280 0.218517
285 0.178523
290 0.234652
295 0.237634
300 0.259836
305 0.218377
310 0.164942
315 0.176689
320 0.191905
325 0.235948
330 0.134436
335 0.214006
340 0.223129
345 0.145074
350 0.159461
355 0.165748
360 0.234551
365 0.24136
370 0.227775
375 0.235839
380 0.260322
385 0.22359
390 0.132706
395 0.222427
400 0.179741
405 0.186629
410 0.169117
415 0.289629
420 0.241563
425 0.203412
430 0.192525
435 0.239057
440 0.237053
445 0.236216
450 0.319317
455 0.293631
460 0.285948
465 0.290581
470 0.320831
475 0.298017
480 0.509165
485 0.681721
490 0.929129
495 27.8548
500 422.465
505 593.766
510 143.253
515 17.6874
520 3.21335
525 1.63042
530 1.293
535 1.37626
540 1.47294
545 1.54081
550 1.43948
555 1.20862
560 1.13578
565 0.943433
570 0.877434
575 0.874082
580 0.725132
585 0.673352
590 1.06044
595 0.830749
600 0.785612
Ex : 513
200 0.146199
205 0.166291
210 0.163645
215 0.163449
220 0.163648
225 0.233148
230 0.23476
235 0.188668
240 0.196966
245 0.173632
250 0.211086
255 0.1885
260 0.24172
265 0.253947
270 0.205353
275 0.178871
280 0.17746
285 0.146335
290 0.154763
295 0.241749
300 0.158058
305 0.211217
310 0.187763
315 0.172744
320 0.192571
325 0.138103
330 0.155347
335 0.208252
340 0.178109
345 0.157148
350 0.304333
355 0.178944
360 0.116938
365 0.115642
370 0.167986
375 0.150211
380 0.183351
385 0.264696
390 0.171441
395 0.199202
400 0.207004
405 0.21471
410 0.18834
415 0.216269
420 0.228696
425 0.183585
430 0.201362
435 0.284523
440 0.282559
445 0.238241
450 0.193042
455 0.221431
460 0.235661
465 0.29311
470 0.268836
475 0.343951
480 0.491681
485 0.475299
490 0.534851
495 0.768274
500 25.7864
505 413.13
510 596.439
515 145.807
520 18.3081
525 3.22874
530 1.56643
535 1.35532
540 1.26969
545 1.48864
550 1.54603
555 1.21883
560 1.27089
565 1.11043
570 0.867963
575 0.757079
580 0.775534
585 0.586007
590 0.650249
595 0.667243
600 0.289624
Ex : 518
200 0.198861
205 0.173111
210 0.157048
215 0.179952
220 0.19006
225 0.191592
230 0.189206
235 0.200053
240 0.162007
245 0.203779
250 0.20331
255 0.229078
260 0.193222
265 0.165764
270 0.142843
275 0.161842
280 0.149588
285 0.183471
290 0.157902
295 0.1656
300 0.185345
305 0.179896
310 0.195715
315 0.212716
320 0.214211
325 0.252287
330 0.217721
335 0.175672
340 0.191418
345 0.276223
350 0.218877
355 0.209503
360 0.18618
365 0.193824
370 0.151891
375 0.212772
380 0.170741
385 0.139519
390 0.202549
395 0.153915
400 0.244223
405 0.206814
410 0.20129
415 0.273326
420 0.248715
425 0.306344
430 0.272537
435 0.250325
440 0.212091
445 0.208411
450 0.240718
455 0.240976
460 0.27648
465 0.160967
470 0.257119
475 0.42479
480 0.330636
485 0.403271
490 0.4313
495 0.521109
500 0.762843
505 25.1057
510 391.203
515 594.843
520 146.367
525 18.062
530 3.27652
535 1.84892
540 1.49567
545 1.41732
550 1.39257
555 1.31698
560 1.30355
565 1.18543
570 0.860293
575 0.782448
580 0.655515
585 0.506981
590 0.569032
595 0.516823
600 0.883899
Ex : 523
200 0.265623
205 0.20175
210 0.252592
215 0.167233
220 0.213135
225 0.178427
230 0.255854
235 0.177401
240 0.146332
245 0.194828
250 0.187849
255 0.210696
260 0.192757
265 0.223355
270 0.198677
275 0.123197
280 0.199671
285 0.239067
290 0.185456
295 0.187768
300 0.222928
305 0.155856
310 0.318617
315 0.178698
320 0.218621
325 0.155021
330 0.190792
335 0.227828
340 0.195877
345 0.257023
350 0.217341
355 0.211847
360 0.241492
365 0.223501
370 0.21379
375 0.232106
380 0.182965
385 0.184516
390 0.217541
395 0.198728
400 0.184729
405 0.186891
410 0.216348
415 0.17349
420 0.310003
425 0.306252
430 0.202081
435 0.334328
440 0.268599
445 0.279208
450 0.248334
455 0.206694
460 0.243235
465 0.287103
470 0.302962
475 0.22881
480 0.350082
485 0.394107
490 0.435952
495 0.420561
500 0.567713
505 0.899486
510 23.2615
515 391.216
520 594.835
525 151.04
530 18.673
535 3.47168
540 1.62564
545 1.36642
550 1.39758
555 1.26261
560 1.32358
565 1.26153
570 1.00847
575 0.701363
580 0.750422
585 0.505646
590 0.57683
595 0.430906
600 0.498885
Ex : 528
200 0.19207
205 0.175262
210 0.18518
215 0.135981
220 0.176192
225 0.261752
230 0.159071
235 0.24256
240 0.146086
245 0.203385
250 0.201814
255 0.242016
260 0.181323
265 0.195958
270 0.203872
275 0.130575
280 0.166017
285 0.202487
290 0.232895
295 0.240494
300 0.281386
305 0.18632
310 0.150185
315 0.161075
320 0.246443
325 0.254199
330 0.221105
335 0.197805
340 0.296729
345 0.137441
350 0.17976
355 0.241759
360 0.206253
365 0.22861
370 0.204926
375 0.205933
380 0.202133
385 0.239319
390 0.232177
395 0.319252
400 0.296717
405 0.237489
410 0.218563
415 0.185022
420 0.239361
425 0.219511
430 0.291363
435 0.238367
440 0.260273
445 0.27217
450 0.269819
455 0.231984
460 0.253082
465 0.265428
470 0.26245
475 0.234586
480 0.320884
485 0.312541
490 0.328136
495 0.304549
500 0.520129
505 0.558388
510 0.785777
515 21.9608
520 371.757
525 566.68
530 143.225
535 17.9544
540 3.29994
545 1.77574
550 1.57522
555 1.2434
560 1.14437
565 1.12156
570 0.845784
575 0.926719
580 0.643208
585 0.601782
590 0.527851
595 0.389761
600 0.27394
Ex : 533
200 0.163028
205 0.17058
210 0.280547
215 0.220947
220 0.166863
225 0.198899
230 0.255122
235 0.195131
240 0.230811
245 0.184649
250 0.175455
255 0.143853
260 0.167191
265 0.222476
270 0.20892
275 0.249372
280 0.211679
285 0.237108
290 0.204405
295 0.191169
300 0.2671
305 0.159953
310 0.208913
315 0.153393
320 0.236597
325 0.195535
330 0.152266
335 0.196133
340 0.236992
345 0.21063
350 0.218879
355 0.245947
360 0.238181
365 0.195747
370 0.163174
375 0.173111
380 0.218302
385 0.212148
390 0.171842
395 0.22111
400 0.218199
405 0.21234
410 0.229934
415 0.245694
420 0.223808
425 0.302987
430 0.222042
435 0.220812
440 0.226568
445 0.22807
450 0.228106
455 0.240356
460 0.342142
465 0.268059
470 0.346892
475 0.273659
480 0.232955
485 0.264385
490 0.264882
495 0.335334
500 0.45989
505 0.525036
510 0.538309
515 0.685811
520 21.0287
525 353.107
530 551.152
535 142.811
540 17.8427
545 3.24066
550 1.66545
555 1.39382
560 1.15947
565 0.913405
570 0.987295
575 0.84906
580 0.727673
585 0.525229
590 0.455977
595 0.497212
600 0.595805
Ex : 538
200 0.231846
205 0.216535
210 0.260744
215 0.213563
220 0.151189
225 0.124716
230 0.216433
235 0.168569
240 0.185111
245 0.227342
250 0.160176
255 0.197959
260 0.261884
265 0.178048
270 0.130391
275 0.293702
280 0.179954
285 0.176248
290 0.157603
295 0.197925
300 0.142794
305 0.245544
310 0.246307
315 0.24038
320 0.254199
325 0.169433
330 0.237009
335 0.163346
340 0.233127
345 0.240786
350 0.284833
355 0.166992
360 0.233847
365 0.281298
370 0.319447
375 0.308626
380 0.303122
385 0.323359
390 0.274181
395 0.211795
400 0.284798
405 0.283834
410 0.218101
415 0.206964
420 0.202526
425 0.329022
430 0.227351
435 0.247657
440 0.244854
445 0.232569
450 0.283362
455 0.236628
460 0.280597
465 0.197058
470 0.229084
475 0.268112
480 0.323306
485 0.289322
490 0.283296
495 0.346958
500 0.331304
505 0.366856
510 0.488015
515 0.534319
520 0.784073
525 17.8526
530 334.504
535 545.543
540 147.367
545 18.3449
550 3.26669
555 1.48687
560 1.11532
565 0.873473
570 0.785412
575 0.636007
580 0.649939
585 0.617847
590 0.564314
595 0.437731
600 0.211385
Ex : 543
200 0.0988573
205 0.19069
210 0.264639
215 0.222636
220 0.26415
225 0.195991
230 0.18276
235 0.247484
240 0.249473
245 0.216879
250 0.160189
255 0.175843
260 0.234669
265 0.16222
270 0.218381
275 0.177109
280 0.158888
285 0.21089
290 0.210947
295 0.160946
300 0.208267
305 0.205215
310 0.256375
315 0.298742
320 0.209913
325 0.183848
330 0.201808
335 0.227713
340 0.19049
345 0.168215
350 0.204232
355 0.211299
360 0.259153
365 0.13608
370 0.270028
375 0.210906
380 0.168366
385 0.23064
390 0.179197
395 0.196143
400 0.293138
405 0.150498
410 0.235254
415 0.233215
420 0.230279
425 0.272179
430 0.304678
435 0.229751
440 0.279981
445 0.216742
450 0.26203
455 0.212632
460 0.26031
465 0.28121
470 0.250965
475 0.21894
480 0.219961
485 0.252771
490 0.323048
495 0.316812
500 0.372742
505 0.410939
510 0.521301
515 0.477206
520 0.675752
525 0.766381
530 16.0372
535 319.949
540 545.086
545 149.585
550 18.6394
555 3.14326
560 1.38287
565 0.882289
570 0.755447
575 0.671968
580 0.506725
585 0.631731
590 0.452927
595 0.513287
600 1.12334
Ex : 548
200 0.178399
205 0.199237
210 0.181804
215 0.197337
220 0.224085
225 0.300303
230 0.18902
235 0.172636
240 0.248272
245 0.215685
250 0.160731
255 0.195334
260 0.224962
265 0.256532
270 0.250774
275 0.246082
280 0.271632
285 0.209414
290 0.264065
295 0.218293
300 0.217817
305 0.238732
310 0.207758
315 0.218473
320 0.214832
325 0.237463
330 0.188874
335 0.140194
340 0.235778
345 0.185152
350 0.177117
355 0.193802
360 0.239204
365 0.251022
370 0.254291
375 0.269733
380 0.192721
385 0.263466
390 0.314261
395 0.258822
400 0.29178
405 0.232658
410 0.287853
415 0.20046
420 0.240383
425 0.261402
430 0.288165
435 0.318613
440 0.215805
445 0.281835
450 0.294444
455 0.258455
460 0.359858
465 0.297603
470 0.269464
475 0.367274
480 0.3785
485 0.365575
490 0.275753
495 0.251298
500 0.351592
505 0.338751
510 0.390509
515 0.428411
520 0.498765
525 0.572691
530 0.803987
535 17.682
540 315.048
545 525.085
550 151.245
555 18.4285
560 2.95735
565 1.17472
570 1.02888
575 0.592528
580 0.489447
585 0.551299
590 0.60308
595 0.411504
600 0.113421
Ex : 553
200 0.243185
205 0.208783
210 0.176277
215 0.224343
220 0.147869
225 0.19027
230 0.216941
235 0.20368
240 0.26696
245 0.255231
250 0.178743
255 0.255103
260 0.312107
265 0.219513
270 0.327945
275 0.260168
280 0.245149
285 0.194951
290 0.304153
295 0.328491
300 0.281021
305 0.26577
310 0.294063
315 0.296654
320 0.231721
325 0.302377
330 0.218774
335 0.236224
340 0.176102
345 0.194829
350 0.218427
355 0.269444
360 0.276125
365 0.276947
370 0.346089
375 0.283849
380 0.268258
385 0.287296
390 0.289052
395 0.266024
400 0.296997
405 0.297294
410 0.217801
415 0.350733
420 0.181872
425 0.234128
430 0.241278
435 0.258867
440 0.372357
445 0.306624
450 0.224017
455 0.308858
460 0.28713
465 0.276952
470 0.373595
475 0.332227
480 0.27335
485 0.208448
490 0.396605
495 0.24521
500 0.319313
505 0.262006
510 0.324073
515 0.406838
520 0.373522
525 0.498522
530 0.513081
535 0.714759
540 14.81
545 295.168
550 510.165
555 145.697
560 17.8348
565 2.89176
570 0.923425
575 0.634193
580 0.632142
585 0.55104
590 0.492219
595 0.468433
600 0.138212
Ex : 558
200 0.235182
205 0.186306
210 0.281115
215 0.248787
220 0.249208
225 0.175363
230 0.209074
235 0.238145
240 0.278063
245 0.187121
250 0.223691
255 0.220333
260 0.268799
265 0.257927
270 0.22419
275 0.189706
280 0.195271
285 0.222217
290 0.142375
295 0.287259
300 0.232441
305 0.194922
310 0.253491
315 0.197315
320 0.319992
325 0.297461
330 0.221562
335 0.221244
340 0.173686
345 0.295371
350 0.273713
355 0.270124
360 0.238586
365 0.249746
370 0.231905
375 0.264451
380 0.233378
385 0.266902
390 0.309616
395 0.290728
400 0.289375
405 0.271141
410 0.26862
415 0.231171
420 0.174399
425 0.338375
430 0.311965
435 0.27705
440 0.476655
445 0.33744
450 0.371069
455 0.361714
460 0.24693
465 0.268671
470 0.355345
475 0.256035
480 0.279298
485 0.265112
490 0.284137
495 0.282141
500 0.409799
505 0.333223
510 0.383355
515 0.314882
520 0.347084
525 0.301446
530 0.45776
535 0.484027
540 0.729564
545 13.9919
550 277.437
555 490.121
560 142.068
565 17.4889
570 2.84971
575 0.890628
580 0.518904
585 0.526301
590 0.472974
595 0.383618
600 0.203281
Ex : 563
200 0.208251
205 0.213531
210 0.209122
215 0.162174
220 0.242142
225 0.189335
230 0.165644
235 0.2142
240 0.269885
245 0.268095
250 0.316873
255 0.256463
260 0.285115
265 0.235511
270 0.26827
275 0.264476
280 0.248782
285 0.272158
290 0.241624
295 0.261941
300 0.198564
305 0.190172
310 0.227719
315 0.167609
320 0.239483
325 0.275789
330 0.270512
335 0.351872
340 0.243508
345 0.317768
350 0.223867
355 0.226787
360 0.183808
365 0.27246
370 0.250495
375 0.208492
380 0.23096
385 0.22212
390 0.284679
395 0.192455
400 0.359079
405 0.222125
410 0.273068
415 0.32284
420 0.310891
425 0.292476
430 0.236694
435 0.245316
440 0.243541
445 0.245624
450 0.306553
455 0.254305
460 0.33317
465 0.214562
470 0.353319
475 0.249606
480 0.315986
485 0.337294
490 0.381512
495 0.335534
500 0.285561
505 0.240521
510 0.310658
515 0.309872
520 0.305047
525 0.262132
530 0.354274
535 0.466945
540 0.639022
545 0.650983
550 13.9468
555 267.9
560 461.248
565 134.437
570 16.2534
575 2.4966
580 0.766478
585 0.474657
590 0.366118
595 0.407704
600 0.0749823
Ex : 568
200 0.182271
205 0.154432
210 0.177581
215 0.17578
220 0.190755
225 0.226904
230 0.162774
235 0.196097
240 0.217302
245 0.200215
250 0.307101
255 0.276944
260 0.300764
265 0.339699
270 0.224196
275 0.237079
280 0.258326
285 0.246304
290 0.240007
295 0.213383
300 0.138685
305 0.225871
310 0.169914
315 0.286733
320 0.268042
325 0.292405
330 0.234347
335 0.296978
340 0.277909
345 0.203671
350 0.252028
355 0.380122
360 0.325002
365 0.182174
370 0.172799
375 0.207536
380 0.332171
385 0.215402
390 0.258985
395 0.296827
400 0.207901
405 0.206546
410 0.195023
415 0.237813
420 0.289241
425 0.22361
430 0.223314
435 0.325816
440 0.322566
445 0.445199
450 0.313143
455 0.235871
460 0.351062
465 0.28932
470 0.361286
475 0.310102
480 0.252819
485 0.259468
490 0.311773
495 0.292205
500 0.369298
505 0.367649
510 0.239205
515 0.283687
520 0.273088
525 0.311796
530 0.35066
535 0.449049
540 0.43172
545 0.385246
550 0.653835
555 10.1232
560 238.818
565 453.736
570 139.537
575 17.0138
580 2.43774
585 0.629153
590 0.386343
595 0.440362
600 1.06374
Ex : 573
200 0.162504
205 0.14313
210 0.221947
215 0.328632
220 0.232835
225 0.174125
230 0.278555
235 0.255657
240 0.376855
245 0.197075
250 0.2805
255 0.277113
260 0.212936
265 0.33016
270 0.23476
275 0.271606
280 0.287967
285 0.20739
290 0.264121
295 0.202837
300 0.15723
305 0.191858
310 0.173621
315 0.315447
320 0.309965
325 0.335813
330 0.274506
335 0.226785
340 0.190689
345 0.265209
350 0.17195
355 0.22212
360 0.21579
365 0.273373
370 0.204843
375 0.252165
380 0.207371
385 0.239791
390 0.2272
395 0.270902
400 0.291963
405 0.184909
410 0.195879
415 0.275819
420 0.266264
425 0.280907
430 0.326596
435 0.28285
440 0.281768
445 0.373906
450 0.263315
455 0.295251
460 0.253862
465 0.331172
470 0.264199
475 0.403264
480 0.334164
485 0.281693
490 0.240641
495 0.177227
500 0.281645
505 0.300374
510 0.346572
515 0.399495
520 0.29265
525 0.240322
530 0.368518
535 0.423626
540 0.437632
545 0.397881
550 0.51931
555 0.664308
560 9.45139
565 210.319
570 422.28
575 134.097
580 16.2653
585 2.3936
590 0.662621
595 0.383561
600 2.47767
Ex : 578
200 0.226623
205 0.295906
210 0.252715
215 0.224842
220 0.249792
225 0.287183
230 0.243985
235 0.406661
240 0.222425
245 0.288458
250 0.248483
255 0.194375
260 0.327278
265 0.328719
270 0.253379
275 0.261519
280 0.35499
285 0.276148
290 0.312182
295 0.254243
300 0.193157
305 0.233646
310 0.137474
315 0.15641
320 0.240122
325 0.22302
330 0.161466
335 0.290088
340 0.163309
345 0.198528
350 0.25274
355 0.259919
360 0.228179
365 0.331833
370 0.262474
375 0.208782
380 0.338053
385 0.300119
390 0.288892
395 0.440237
400 0.31496
405 0.245388
410 0.332603
415 0.276871
420 0.256087
425 0.177161
430 0.1877
435 0.281071
440 0.344737
445 0.293103
450 0.301249
455 0.324188
460 0.280697
465 0.340366
470 0.264601
475 0.257222
480 0.298724
485 0.310436
490 0.338141
495 0.318946
500 0.361938
505 0.259041
510 0.281649
515 0.219343
520 0.346477
525 0.314975
530 0.314987
535 0.382345
540 0.33255
545 0.360984
550 0.404725
555 0.498576
560 0.685655
565 8.49447
570 185.697
575 366.855
580 115.464
585 14.0682
590 2.0499
595 0.635168
600 2.0798
Ex : 583
200 0.237211
205 0.260405
210 0.231436
215 0.20682
220 0.335306
225 0.25456
230 0.186579
235 0.22679
240 0.203958
245 0.310864
250 0.251257
255 0.197896
260 0.149963
265 0.22419
270 0.332055
275 0.199627
280 0.205594
285 0.265998
290 0.27039
295 0.22038
300 0.236087
305 0.201948
310 0.236679
315 0.312679
320 0.236137
325 0.184174
330 0.301913
335 0.326893
340 0.263115
345 0.230546
350 0.284939
355 0.254278
360 0.241958
365 0.249501
370 0.200852
375 0.221918
380 0.266297
385 0.25
390 0.191051
395 0.271885
400 0.289004
405 0.260127
410 0.251645
415 0.274433
420 0.272168
425 0.323696
430 0.253303
435 0.31459
440 0.280347
445 0.259543
450 0.263041
455 0.228651
460 0.332922
465 0.298116
470 0.26949
475 0.471879
480 0.253872
485 0.32842
490 0.276278
495 0.264072
500 0.192152
505 0.256774
510 0.471415
515 0.318163
520 0.347876
525 0.338109
530 0.335142
535 0.406709
540 0.315917
545 0.337804
550 0.38363
555 0.560984
560 0.472434
565 0.62448
570 6.92859
575 169.126
580 331.798
585 97.3183
590 11.7706
595 1.72473
600 0.233979
Ex : 588
200 0.256428
205 0.285289
210 0.20827
215 0.385605
220 0.308929
225 0.295318
230 0.227121
235 0.172587
240 0.179135
245 0.243548
250 0.243839
255 0.260031
260 0.214262
265 0.302282
270 0.228494
275 0.220576
280 0.181819
285 0.167454
290 0.283058
295 0.242427
300 0.273824
305 0.252711
310 0.173798
315 0.195182
320 0.167019
325 0.253787
330 0.317717
335 0.204666
340 0.182627
345 0.316602
350 0.326939
355 0.19735
360 0.243076
365 0.259244
370 0.222276
375 0.386467
380 0.261813
385 0.280249
390 0.209816
395 0.211793
400 0.268603
405 0.188141
410 0.30865
415 0.346458
420 0.214958
425 0.22031
430 0.318086
435 0.3181
440 0.298731
445 0.307855
450 0.207372
455 0.241145
460 0.225589
465 0.3152
470 0.315944
475 0.238345
480 0.241205
485 0.27047
490 0.289976
495 0.347021
500 0.335515
505 0.25938
510 0.257694
515 0.262233
520 0.255018
525 0.200503
530 0.324981
535 0.274305
540 0.299549
545 0.245305
550 0.418965
555 0.37147
560 0.399756
565 0.360398
570 0.538818
575 5.92194
580 136.871
585 265.766
590 80.5515
595 9.86536
600 1.12264
Ex : 593
200 0.170127
205 0.26471
210 0.275928
215 0.227497
220 0.169486
225 0.157904
230 0.181423
235 0.212586
240 0.287512
245 0.363109
250 0.243668
255 0.255391
260 0.215657
265 0.280761
270 0.221187
275 0.250297
280 0.282728
285 0.29626
290 0.261617
295 0.226597
300 0.172911
305 0.297493
310 0.252081
315 0.286107
320 0.226924
325 0.206684
330 0.297473
335 0.208301
340 0.356193
345 0.418732
350 0.318235
355 0.300867
360 0.172417
365 0.20678
370 0.180871
375 0.210204
380 0.203753
385 0.322007
390 0.314508
395 0.263527
400 0.213341
405 0.303008
410 0.280432
415 0.201548
420 0.164636
425 0.242516
430 0.358628
435 0.302148
440 0.170423
445 0.340538
450 0.214296
455 0.305417
460 0.243264
465 0.331566
470 0.226814
475 0.239851
480 0.328704
485 0.272398
490 0.284663
495 0.165
500 0.269147
505 0.265929
510 0.256326
515 0.450269
520 0.229262
525 0.37185
530 0.269401
535 0.306162
540 0.296945
545 0.256033
550 0.270384
555 0.27406
560 0.399408
565 0.341015
570 0.43533
575 0.672575
580 5.61604
585 121.893
590 233.179
595 68.7255
600 9.56255
Ex : 598
200 0.26846
205 0.282086
210 0.209648
215 0.191297
220 0.262339
225 0.312441
230 0.230471
235 0.300013
240 0.264352
245 0.267061
250 0.278912
255 0.244646
260 0.285455
265 0.190625
270 0.238305
275 0.417164
280 0.231126
285 0.20996
290 0.363778
295 0.29255
300 0.227111
305 0.176005
310 0.242904
315 0.231808
320 0.181994
325 0.138485
330 0.252323
335 0.235454
340 0.316629
345 0.228462
350 0.284261
355 0.19865
360 0.193234
365 0.290102
370 0.36302
375 0.236146
380 0.256345
385 0.262293
390 0.325647
395 0.314433
400 0.298177
405 0.282478
410 0.248413
415 0.262273
420 0.310175
425 0.375712
430 0.286964
435 0.259418
440 0.175462
445 0.24301
450 0.34683
455 0.475359
460 0.338933
465 0.271951
470 0.267767
475 0.276949
480 0.33242
485 0.214422
490 0.300671
495 0.404175
500 0.287809
505 0.2927
510 0.362626
515 0.252666
520 0.321782
525 0.335474
530 0.316312
535 0.261478
540 0.234538
545 0.388291
550 0.363172
555 0.385782
560 0.339587
565 0.291601
570 0.400509
575 0.5638
580 0.485957
585 5.16513
590 112.608
595 204.892
600 125.153
Ex : 603
200 0.313406
205 0.264099
210 0.330254
215 0.457755
220 0.218652
225 0.322301
230 0.294217
235 0.293249
240 0.29499
245 0.346472
250 0.217093
255 0.27191
260 0.343479
265 0.293935
270 0.163648
275 0.307926
280 0.393225
285 0.198823
290 0.242624
295 0.296677
300 0.407639
305 0.270508
310 0.21861
315 0.263429
320 0.25611
325 0.191891
330 0.25212
335 0.242632
340 0.206304
345 0.223032
350 0.182725
355 0.231285
360 0.274541
365 0.235109
370 0.245954
375 0.186717
380 0.270704
385 0.245498
390 0.301854
395 0.439157
400 0.297614
405 0.216159
410 0.308882
415 0.472724
420 0.43286
425 0.266692
430 0.227085
435 0.22605
440 0.325228
445 0.274789
450 0.306427
455 0.310677
460 0.27407
465 0.367555
470 0.368575
475 0.238343
480 0.305914
485 0.453243
490 0.425273
495 0.356067
500 0.397736
505 0.320436
510 0.342433
515 0.331287
520 0.340851
525 0.350113
530 0.217512
535 0.323813
540 0.447667
545 0.310017
550 0.366161
555 0.294537
560 0.263524
565 0.367193
570 0.298065
575 0.36447
580 0.287623
585 0.538142
590 4.25824
595 92.2887
600 180.477
