File format V 1.0
ven. 20. janv. 22:27:26 2017
Operator : 
Comments : 

=============================================
SpectroFluorometer parameters
Mode : 3D measurement
Data : Fluorescence
Phospho. : Ordinary
Spectrum : Fluorescence

Scan speed : 2400 nm/mn
Response : 100 ms
PM Voltage : 700 V
Shutter : On

Lambda Ex. Start : 203
Lambda Ex. End : 603
Lambda Ex. Step : 5
Ex. Slit : 5 nm

Lambda Em. Start : 200
Lambda Em. End : 600
Lambda Em. Step : 5
Em. Slit : 5 nm

Repetition : 1
Decal lambda em : 10
=============================================
DATA
Ex : 203
200 5.47847
205 6.69524
210 8.43926
215 7.15075
220 8.36734
225 7.60972
230 9.92685
235 7.46419
240 7.58631
245 7.75599
250 6.34753
255 8.16644
260 5.65721
265 6.38672
270 5.81008
275 9.67386
280 8.03895
285 5.12199
290 6.76321
295 10.5681
300 9.41976
305 4.95074
310 6.43281
315 5.45845
320 7.00808
325 6.13289
330 4.44475
335 6.85692
340 8.35841
345 5.91482
350 4.14024
355 7.3525
360 6.66624
365 5.69669
370 7.09454
375 5.96513
380 7.48054
385 7.38228
390 9.28211
395 9.50206
400 6.38996
405 9.53354
410 10.4369
415 8.99492
420 8.21646
425 7.12589
430 7.05087
435 7.4445
440 5.75698
445 5.72473
450 7.23084
455 7.83561
460 4.50043
465 10.0479
470 5.13594
475 5.76059
480 7.74516
485 5.83706
490 7.33735
495 4.72971
500 8.12488
505 5.81429
510 5.90853
515 7.10406
520 6.39194
525 10.1168
530 5.87029
535 4.74993
540 5.39806
545 6.5009
550 7.20545
555 9.6729
560 7.14489
565 7.63556
570 5.62338
575 6.09574
580 8.11137
585 5.89115
590 5.94217
595 4.9344
600 3.36783
Ex : 208
200 6.51196
205 6.97079
210 5.45928
215 6.11746
220 5.5146
225 6.69601
230 6.74857
235 5.60374
240 5.56804
245 6.26897
250 7.12761
255 6.87551
260 7.69291
265 6.92606
270 6.91774
275 8.28797
280 5.69518
285 5.52889
290 9.70541
295 5.93077
300 6.97016
305 8.9101
310 8.81161
315 9.87719
320 7.68743
325 8.91492
330 8.86563
335 8.73216
340 7.817
345 10.1254
350 5.94228
355 6.99939
360 6.65505
365 6.48717
370 6.69369
375 4.60621
380 7.57744
385 5.4529
390 5.03458
395 6.36598
400 8.50912
405 5.97979
410 6.98685
415 6.96669
420 6.29929
425 4.66651
430 4.72884
435 5.76583
440 5.58482
445 11.4445
450 8.80063
455 7.29969
460 7.34016
465 9.10049
470 7.20105
475 8.97614
480 7.24269
485 8.51486
490 7.02164
495 4.3163
500 4.86627
505 6.78432
510 6.66434
515 8.81127
520 6.76511
525 7.55373
530 7.30637
535 5.82851
540 4.63134
545 7.46556
550 9.8142
555 6.51301
560 4.41193
565 9.46916
570 5.20907
575 10.3152
580 7.58244
585 6.01
590 6.61366
595 5.16079
600 5.4614
Ex : 213
200 7.02927
205 4.64594
210 7.89684
215 6.3022
220 5.42259
225 6.1124
230 6.40817
235 6.31674
240 6.41976
245 9.23539
250 7.70617
255 10.0186
260 5.63132
265 7.70332
270 8.84363
275 7.2456
280 10.4679
285 6.31101
290 5.57638
295 7.71556
300 7.59543
305 4.79364
310 3.95935
315 8.0256
320 6.1039
325 6.65511
330 5.46203
335 8.30906
340 7.80149
345 5.64614
350 6.21169
355 5.2304
360 7.17012
365 9.1257
370 6.03666
375 7.61663
380 8.13783
385 5.77123
390 5.99178
395 8.59656
400 5.68648
405 5.78799
410 9.55922
415 6.80864
420 7.29126
425 8.16104
430 9.38344
435 8.27966
440 9.39522
445 5.92798
450 9.21081
455 8.89237
460 6.71224
465 5.95261
470 6.53144
475 6.66612
480 9.11553
485 5.55087
490 7.5158
495 5.08844
500 6.40091
505 7.64475
510 7.01903
515 7.217
520 6.4786
525 6.6962
530 5.20605
535 8.21995
540 8.45961
545 9.9775
550 6.78782
555 5.46101
560 4.89935
565 6.783
570 5.88491
575 7.01472
580 5.70308
585 4.85311
590 4.89466
595 4.65933
600 7.97433
Ex : 218
200 6.11321
205 8.26283
210 4.64452
215 6.22249
220 9.04988
225 8.17718
230 6.55334
235 8.20003
240 6.81514
245 5.44089
250 5.36852
255 6.04603
260 8.94324
265 6.63624
270 6.55189
275 6.26869
280 6.40125
285 6.38885
290 6.44937
295 8.89679
300 6.80819
305 7.17606
310 6.80717
315 5.71727
320 6.5004
325 4.0876
330 7.62295
335 10.0111
340 9.02558
345 9.98516
350 6.62127
355 6.56159
360 6.2075
365 5.96658
370 7.12489
375 7.32594
380 5.94604
385 6.32059
390 6.11745
395 8.05391
400 6.60166
405 6.58766
410 4.97616
415 6.98672
420 6.07394
425 7.65726
430 5.39101
435 8.54882
440 5.41197
445 7.69179
450 6.4031
455 5.88693
460 4.75434
465 5.34272
470 6.0658
475 7.92186
480 6.56432
485 7.1998
490 8.98835
495 5.78276
500 5.63809
505 5.91305
510 7.47593
515 5.29896
520 8.15704
525 7.87553
530 8.27115
535 4.4377
540 6.53748
545 7.64531
550 8.53819
555 7.21827
560 4.14998
565 5.62356
570 8.44906
575 6.09476
580 7.60429
585 7.07291
590 4.19354
595 8.57902
600 0.97626
Ex : 223
200 6.72139
205 4.79269
210 6.02229
215 8.29725
220 5.53933
225 8.12748
230 5.9467
235 9.26434
240 5.33529
245 7.90063
250 4.89575
255 6.25474
260 5.41232
265 4.93503
270 5.49492
275 8.35868
280 4.44315
285 4.81934
290 4.7071
295 6.73908
300 7.13752
305 8.34495
310 6.40611
315 7.90144
320 8.57959
325 11.757
330 9.69235
335 9.78036
340 8.44135
345 7.63137
350 7.40469
355 5.03598
360 7.36589
365 5.07715
370 7.29312
375 4.35841
380 6.78074
385 5.53349
390 5.1166
395 6.561
400 5.45126
405 5.44293
410 7.42627
415 10.4442
420 5.99199
425 11.2992
430 7.33456
435 5.64428
440 7.2711
445 7.25025
450 7.62203
455 5.53205
460 8.362
465 5.07077
470 6.91991
475 6.1005
480 6.63675
485 6.83671
490 8.43514
495 5.0675
500 4.7731
505 5.38089
510 7.17922
515 7.7638
520 7.1738
525 7.73205
530 5.20422
535 6.64227
540 7.00708
545 6.1608
550 9.98355
555 8.28247
560 7.46214
565 6.2306
570 4.95858
575 5.24678
580 7.54784
585 6.91532
590 5.35767
595 8.64574
600 0.983853
Ex : 228
200 3.49554
205 6.62073
210 7.49444
215 5.06657
220 7.90938
225 7.42911
230 5.77545
235 4.52854
240 7.74072
245 7.9977
250 5.43916
255 6.00645
260 5.21254
265 3.24775
270 5.55962
275 6.92805
280 6.35881
285 4.7714
290 6.95579
295 5.13157
300 5.78787
305 4.5571
310 4.20974
315 4.72687
320 4.20374
325 6.02858
330 7.29036
335 5.09843
340 7.99169
345 9.35466
350 6.61971
355 6.96505
360 3.57552
365 4.97486
370 6.38632
375 5.50359
380 3.11416
385 4.96434
390 5.74861
395 6.76709
400 8.08867
405 6.0581
410 4.58294
415 4.98737
420 4.89455
425 5.3828
430 8.07073
435 5.55067
440 7.55977
445 5.30763
450 6.25195
455 7.15254
460 5.7155
465 5.45161
470 7.77445
475 6.47652
480 7.97928
485 8.67775
490 6.98702
495 7.95626
500 5.24779
505 8.04608
510 8.19286
515 4.97803
520 7.17764
525 5.50937
530 7.12999
535 6.09233
540 8.62865
545 5.73964
550 4.11662
555 6.53524
560 7.30553
565 6.17353
570 6.6646
575 6.13775
580 7.01416
585 10.3549
590 6.65339
595 7.77701
600 5.31601
Ex : 233
200 5.10163
205 5.25732
210 7.64125
215 5.31202
220 5.48969
225 7.26748
230 6.43454
235 6.11145
240 5.74682
245 5.44177
250 4.45457
255 7.17973
260 4.36979
265 5.35962
270 5.16109
275 5.69624
280 5.9773
285 3.77045
290 6.59912
295 3.64589
300 6.80767
305 6.58549
310 5.81449
315 5.09647
320 6.60688
325 5.94408
330 6.18761
335 6.89278
340 4.36947
345 3.97558
350 7.12567
355 5.8448
360 5.25759
365 4.84274
370 6.12045
375 3.79264
380 5.51105
385 4.99197
390 5.97722
395 4.1323
400 4.16211
405 4.98171
410 8.5016
415 8.26627
420 5.62222
425 6.57924
430 5.06005
435 4.43532
440 9.49224
445 6.32262
450 6.7947
455 6.98387
460 4.95308
465 3.90143
470 6.71705
475 6.29057
480 5.12768
485 4.23621
490 6.46012
495 6.21172
500 5.18569
505 5.90733
510 8.83769
515 5.1388
520 6.70501
525 5.51186
530 5.42043
535 4.38036
540 7.73767
545 6.12873
550 6.2362
555 4.60677
560 4.1274
565 6.63664
570 3.34567
575 4.04082
580 4.23498
585 4.62251
590 5.79984
595 6.35702
600 11.0624
Ex : 238
200 4.12088
205 3.25368
210 4.96363
215 6.95502
220 5.28274
225 6.43329
230 3.49595
235 6.28262
240 5.73348
245 4.07503
250 4.42557
255 5.61474
260 5.00152
265 4.86487
270 6.86781
275 6.15109
280 3.16744
285 4.64376
290 4.93025
295 3.61845
300 4.08414
305 5.00655
310 6.17216
315 4.88916
320 5.70148
325 4.63506
330 5.12117
335 8.26672
340 3.83565
345 6.41174
350 5.02859
355 6.69718
360 5.7695
365 6.54448
370 4.31024
375 5.52786
380 4.04919
385 4.47597
390 5.22913
395 6.47593
400 7.97066
405 7.56932
410 5.69643
415 5.6812
420 8.03036
425 6.0795
430 5.16931
435 4.56586
440 4.72642
445 4.18752
450 4.91436
455 7.83419
460 7.62186
465 5.26671
470 6.83219
475 7.57495
480 5.86101
485 5.06528
490 6.47999
495 6.02371
500 6.09027
505 5.68412
510 6.05716
515 5.10286
520 5.27368
525 5.27102
530 4.73657
535 7.07169
540 5.28365
545 8.90725
550 6.46743
555 5.5396
560 5.80164
565 6.25604
570 4.20599
575 4.26698
580 4.30919
585 4.80594
590 4.52658
595 5.58351
600 10.3836
Ex : 243
200 6.46918
205 2.96304
210 2.26992
215 5.77111
220 3.75993
225 2.5127
230 3.58103
235 3.11451
240 4.12965
245 4.21975
250 2.754
255 5.17995
260 4.17293
265 4.63367
270 5.00353
275 6.71179
280 6.14366
285 5.71126
290 4.96338
295 4.74014
300 4.53459
305 3.3628
310 3.25621
315 4.22145
320 4.54388
325 4.22328
330 5.19179
335 3.45214
340 3.51551
345 4.37899
350 5.47981
355 3.63139
360 3.35935
365 2.79893
370 4.82338
375 3.45745
380 5.02277
385 6.08437
390 6.38585
395 6.85279
400 5.74136
405 3.69263
410 6.06328
415 5.24845
420 4.39122
425 3.65644
430 4.36969
435 4.85368
440 4.9746
445 5.17494
450 6.48623
455 4.40148
460 7.00948
465 5.20813
470 6.41968
475 4.3056
480 4.63984
485 4.32771
490 3.85466
495 5.35278
500 5.44893
505 5.17812
510 4.97296
515 4.84393
520 5.31998
525 4.33483
530 6.3123
535 7.53343
540 4.79529
545 4.55485
550 5.01729
555 4.63757
560 3.68192
565 3.39431
570 4.51041
575 4.54037
580 2.79766
585 3.63587
590 4.52871
595 3.18835
600 2.48971
Ex : 248
200 4.00568
205 4.05699
210 3.53278
215 2.68736
220 4.17072
225 3.45135
230 3.06705
235 4.70661
240 5.87628
245 4.47401
250 5.03711
255 3.39527
260 4.07801
265 3.12267
270 3.74711
275 4.19529
280 3.56624
285 4.03004
290 3.2574
295 5.74097
300 4.77213
305 3.82175
310 3.13948
315 4.20599
320 3.65718
325 4.73482
330 3.59276
335 3.65321
340 3.46626
345 4.77923
350 4.57273
355 3.192
360 4.04217
365 4.82145
370 3.99212
375 4.56329
380 2.791
385 4.32814
390 3.26847
395 4.75672
400 4.36384
405 4.4394
410 5.82981
415 3.20676
420 5.3287
425 4.21045
430 6.44881
435 4.01561
440 3.35223
445 4.48746
450 4.19469
455 3.37053
460 3.89124
465 3.05584
470 5.22061
475 3.52362
480 4.18817
485 4.26286
490 3.34011
495 3.79237
500 4.36056
505 2.64915
510 2.68155
515 4.30711
520 4.06686
525 5.78534
530 3.18339
535 2.5054
540 3.29275
545 3.0385
550 4.29387
555 3.72552
560 5.3502
565 3.83787
570 4.22576
575 3.54948
580 3.4915
585 3.58313
590 4.36279
595 3.87512
600 0.440974
Ex : 253
200 3.42317
205 3.48029
210 2.47622
215 4.07072
220 3.68598
225 2.9332
230 2.86362
235 2.90883
240 2.53577
245 3.90268
250 3.54035
255 3.13388
260 3.03659
265 2.92399
270 5.65645
275 3.14273
280 2.74439
285 3.81635
290 2.94969
295 2.74168
300 3.42667
305 3.42928
310 2.60149
315 2.9525
320 2.2756
325 4.17804
330 5.06133
335 4.80164
340 3.6661
345 3.73565
350 3.97867
355 2.56205
360 3.59387
365 2.90347
370 3.29681
375 4.291
380 2.68539
385 2.15543
390 3.59267
395 3.50834
400 3.90775
405 2.34461
410 2.91893
415 3.29462
420 4.21015
425 3.95076
430 3.52373
435 4.22487
440 3.90858
445 4.99195
450 3.09416
455 3.50068
460 3.6025
465 3.90589
470 3.28365
475 2.63936
480 3.70547
485 5.76496
490 3.62514
495 5.65608
500 5.08314
505 2.76751
510 3.58723
515 4.87862
520 3.7391
525 3.19701
530 2.77974
535 4.24156
540 2.76178
545 2.27391
550 2.61828
555 4.60237
560 3.83783
565 3.14493
570 2.74867
575 3.88342
580 2.90262
585 3.45682
590 3.39102
595 2.42394
600 0.275835
Ex : 258
200 2.61197
205 2.5384
210 1.77803
215 3.17301
220 2.69383
225 2.43243
230 1.8268
235 2.81517
240 2.49589
245 2.46096
250 2.43349
255 2.25542
260 2.09894
265 2.39057
270 2.68271
275 2.20791
280 2.97104
285 1.76492
290 3.55539
295 3.26771
300 3.18428
305 2.25897
310 2.72241
315 2.37932
320 2.20646
325 3.70162
330 2.63326
335 4.35522
340 3.17459
345 2.71886
350 2.51809
355 2.57319
360 2.69068
365 2.85338
370 2.327
375 2.47169
380 2.64391
385 3.0709
390 2.85485
395 2.1007
400 2.51738
405 4.43418
410 3.6803
415 2.91362
420 4.14002
425 2.24353
430 3.20874
435 2.21967
440 2.99702
445 2.69303
450 2.92059
455 3.87717
460 2.6146
465 2.62186
470 2.7547
475 2.11164
480 3.8627
485 3.27776
490 4.15506
495 4.27612
500 2.42464
505 2.62023
510 2.77685
515 3.69347
520 2.73324
525 3.37309
530 2.986
535 2.15795
540 3.0738
545 3.11207
550 2.8901
555 2.88441
560 2.88552
565 2.01572
570 1.96356
575 2.98702
580 2.64777
585 1.59455
590 1.651
595 2.07786
600 3.53958
Ex : 263
200 2.00457
205 1.36094
210 2.38174
215 1.43468
220 2.62386
225 1.80146
230 1.81751
235 1.58978
240 1.38209
245 1.48055
250 2.01646
255 1.93867
260 2.14901
265 2.47668
270 3.41116
275 2.4051
280 2.12935
285 2.03302
290 1.8762
295 2.08837
300 1.81327
305 1.77183
310 2.50603
315 1.85433
320 1.80864
325 1.71005
330 2.11068
335 2.25846
340 1.79408
345 2.44229
350 2.26909
355 2.35094
360 1.83895
365 2.67034
370 1.59603
375 1.94994
380 3.19431
385 1.91268
390 2.12434
395 2.09593
400 2.97018
405 2.52048
410 1.96258
415 2.13434
420 2.6225
425 1.9267
430 2.36057
435 2.22041
440 2.15438
445 2.26151
450 2.71948
455 2.62337
460 2.53187
465 2.20157
470 2.25846
475 3.19654
480 2.20507
485 3.69904
490 2.64396
495 1.81793
500 1.75875
505 1.83868
510 1.91739
515 2.86727
520 3.56892
525 3.52078
530 1.79287
535 1.70159
540 2.13866
545 2.57102
550 2.37617
555 2.10785
560 1.77217
565 1.80976
570 2.3467
575 1.94731
580 2.9599
585 2.27728
590 2.52239
595 2.03039
600 0.674153
Ex : 268
200 1.32381
205 1.79903
210 2.03557
215 1.01013
220 2.08785
225 1.35526
230 1.78837
235 1.44142
240 1.47984
245 1.93975
250 2.19603
255 1.32792
260 1.9554
265 2.29211
270 1.73749
275 1.45487
280 1.57735
285 1.67643
290 1.39386
295 1.68361
300 1.572
305 1.6272
310 1.87623
315 1.19699
320 1.22388
325 2.13004
330 2.08289
335 1.97411
340 2.37716
345 1.69428
350 2.00258
355 1.90635
360 2.79382
365 1.5077
370 1.67505
375 2.05422
380 1.73416
385 1.53302
390 2.16225
395 1.93386
400 2.26703
405 1.48429
410 1.92441
415 1.75194
420 1.51734
425 1.67879
430 1.63271
435 2.29905
440 1.62299
445 1.89621
450 2.20526
455 2.29962
460 1.53613
465 2.27112
470 2.04045
475 2.00028
480 1.6943
485 1.99443
490 1.47318
495 1.96784
500 2.57435
505 1.78882
510 1.3466
515 1.62286
520 2.19692
525 1.58848
530 1.88193
535 3.28569
540 1.57054
545 1.64726
550 1.56312
555 1.25645
560 1.4056
565 1.70655
570 1.89347
575 1.391
580 1.16743
585 1.49899
590 1.45493
595 2.19223
600 0.249467
Ex : 273
200 1.34218
205 1.37431
210 1.30114
215 0.91992
220 0.985695
225 0.904368
230 0.971672
235 1.47276
240 1.34978
245 1.37824
250 1.27879
255 1.30893
260 1.07874
265 1.40029
270 1.1793
275 0.941017
280 1.36656
285 1.43471
290 1.11784
295 0.967043
300 1.63768
305 1.43156
310 1.10225
315 0.872623
320 0.792738
325 0.855959
330 0.842482
335 1.0842
340 1.14151
345 1.36292
350 1.72459
355 1.25935
360 2.10543
365 1.30984
370 1.62722
375 1.71769
380 1.53221
385 1.35654
390 0.969852
395 1.96185
400 2.16015
405 1.92494
410 1.91447
415 2.15457
420 1.1659
425 1.77215
430 1.35496
435 1.68348
440 1.77451
445 1.03962
450 1.44067
455 1.44314
460 1.6606
465 2.18271
470 1.4076
475 1.64259
480 1.90578
485 1.88537
490 1.74913
495 1.58525
500 1.67063
505 1.61548
510 2.01019
515 1.64144
520 1.66209
525 1.83813
530 1.65541
535 1.37601
540 1.84472
545 2.04785
550 1.33107
555 1.15793
560 1.27339
565 0.8987
570 0.957974
575 1.00465
580 1.37623
585 1.18315
590 0.919487
595 1.44622
600 0.164575
Ex : 278
200 1.15281
205 1.24001
210 1.51981
215 2.2588
220 1.16528
225 0.957029
230 1.26018
235 1.42443
240 1.26142
245 1.39416
250 1.37387
255 1.1257
260 1.13979
265 1.43709
270 1.2915
275 1.24119
280 1.2757
285 1.45545
290 1.30158
295 1.11298
300 1.12673
305 0.872347
310 1.55528
315 0.866175
320 0.862414
325 1.17409
330 0.955687
335 1.03111
340 1.12863
345 1.28312
350 1.16119
355 1.21354
360 0.868328
365 1.25202
370 1.21577
375 1.55285
380 1.48258
385 1.35733
390 1.14983
395 1.33541
400 1.41644
405 1.17419
410 1.43934
415 1.37544
420 1.15071
425 1.08765
430 1.77768
435 1.6013
440 1.37806
445 1.31267
450 1.5426
455 2.04841
460 1.41
465 1.61813
470 1.97773
475 1.18085
480 0.935137
485 1.37435
490 1.38444
495 0.861062
500 1.25832
505 1.31718
510 1.45789
515 1.07076
520 1.32223
525 1.01046
530 1.02866
535 1.09117
540 1.02316
545 1.87235
550 1.52456
555 1.41403
560 1.13502
565 0.962392
570 1.07934
575 1.01903
580 1.13823
585 1.46542
590 1.00485
595 0.891819
600 0.244422
Ex : 283
200 0.935074
205 1.32105
210 1.03594
215 1.06049
220 1.23928
225 1.15553
230 1.35025
235 1.11202
240 1.42894
245 0.892213
250 0.767381
255 0.998013
260 0.752211
265 0.956085
270 0.580082
275 0.890566
280 1.00002
285 1.65489
290 0.745905
295 0.900808
300 0.926843
305 0.680851
310 0.732707
315 1.21784
320 0.752338
325 0.878656
330 0.717057
335 1.20158
340 1.23912
345 0.849016
350 1.17268
355 1.28874
360 1.09709
365 0.930377
370 1.30701
375 0.996406
380 1.39749
385 1.14528
390 1.45934
395 0.99413
400 1.63284
405 1.1053
410 1.48903
415 1.45025
420 1.0069
425 1.208
430 1.56237
435 1.01476
440 0.948043
445 1.16115
450 1.07172
455 1.44144
460 1.16213
465 1.1158
470 1.03588
475 0.923846
480 1.32701
485 0.847099
490 1.18026
495 1.13631
500 1.10193
505 1.26463
510 0.933437
515 0.922026
520 0.886166
525 1.37636
530 0.918028
535 0.900922
540 0.950013
545 0.951269
550 0.787614
555 1.332
560 1.21835
565 1.33742
570 1.56964
575 1.12957
580 1.42577
585 0.797898
590 1.12284
595 0.947826
600 0.4117
Ex : 288
200 0.609878
205 0.801912
210 1.08948
215 1.13785
220 0.828461
225 0.644576
230 0.711357
235 0.72277
240 1.03015
245 1.1966
250 0.72211
255 0.80906
260 0.817415
265 1.10775
270 0.807983
275 0.609063
280 0.795755
285 0.758607
290 0.66979
295 0.61815
300 0.652893
305 0.951458
310 1.20091
315 1.08058
320 1.123
325 0.762873
330 0.945385
335 0.775358
340 0.7964
345 0.879801
350 1.07182
355 1.11614
360 1.15649
365 0.811772
370 0.662932
375 1.02803
380 1.03888
385 1.52707
390 1.24934
395 1.19351
400 0.868333
405 1.02681
410 1.13
415 1.34643
420 1.34332
425 0.903676
430 1.02879
435 1.32395
440 1.16568
445 1.06681
450 1.30533
455 0.942795
460 0.896515
465 1.18872
470 1.01497
475 0.956576
480 0.77213
485 0.736075
490 0.962005
495 0.819533
500 1.16448
505 0.908004
510 1.04198
515 0.762448
520 0.806059
525 1.11681
530 0.769763
535 0.8619
540 0.825006
545 1.26708
550 0.790796
555 1.19155
560 1.25647
565 1.14344
570 0.968892
575 1.07261
580 1.44636
585 1.12418
590 1.09877
595 0.795784
600 1.60113
Ex : 293
200 0.477676
205 0.446612
210 0.878768
215 0.558441
220 0.795891
225 0.690362
230 0.720545
235 0.573436
240 0.794215
245 0.618611
250 0.530052
255 0.744338
260 0.524602
265 0.74355
270 0.639297
275 0.665257
280 0.807208
285 0.886828
290 0.93861
295 0.487037
300 0.666583
305 0.629574
310 0.553748
315 0.489327
320 0.549584
325 0.73558
330 0.641989
335 0.70181
340 0.720729
345 0.531299
350 0.526771
355 0.781372
360 1.00685
365 0.836683
370 1.1207
375 1.20844
380 0.874041
385 0.924549
390 1.05035
395 0.830202
400 1.02989
405 0.890658
410 0.937852
415 1.16396
420 0.983363
425 1.04108
430 1.31091
435 1.28131
440 0.871505
445 1.09535
450 1.21634
455 0.869054
460 1.09919
465 1.13351
470 0.795129
475 0.989389
480 0.810293
485 1.02176
490 0.767204
495 0.863906
500 0.756288
505 0.774244
510 0.970488
515 1.01076
520 0.89214
525 0.666477
530 0.686262
535 0.810175
540 0.767357
545 0.592992
550 0.576621
555 0.636774
560 0.524929
565 0.705792
570 0.563351
575 0.60433
580 1.23302
585 1.1533
590 0.831034
595 0.617693
600 0.0702911
Ex : 298
200 0.477301
205 0.67132
210 0.602367
215 0.484817
220 0.725791
225 0.526622
230 0.556498
235 0.630825
240 0.576703
245 0.558992
250 0.504664
255 0.583821
260 0.621796
265 0.406249
270 0.554997
275 0.727345
280 0.422308
285 0.472696
290 0.545221
295 0.846266
300 0.57698
305 0.47949
310 0.512151
315 0.522979
320 0.565651
325 0.524089
330 0.705201
335 0.785868
340 0.85126
345 0.674877
350 0.785687
355 0.548701
360 0.608084
365 0.748733
370 0.845282
375 0.801361
380 0.839078
385 0.784712
390 0.907875
395 0.906983
400 0.966377
405 0.838016
410 0.953769
415 0.637077
420 1.12871
425 0.813084
430 0.659546
435 0.8396
440 0.917423
445 0.744827
450 0.741095
455 0.881026
460 0.787102
465 0.693188
470 0.571012
475 0.960496
480 0.948725
485 0.70012
490 0.74516
495 0.624257
500 0.740075
505 0.630827
510 0.807767
515 0.865503
520 0.553669
525 0.655538
530 0.477486
535 0.682033
540 0.557315
545 0.383797
550 0.735454
555 0.537098
560 0.638966
565 0.545329
570 0.311592
575 0.636561
580 0.444949
585 0.691892
590 0.798566
595 0.675352
600 1.67518
Ex : 303
200 0.489185
205 0.4965
210 0.553153
215 0.640469
220 0.594618
225 0.38998
230 0.431602
235 0.702073
240 0.54321
245 0.588405
250 0.512659
255 0.405548
260 0.445766
265 0.726318
270 0.443531
275 0.57289
280 0.563118
285 0.499409
290 0.529234
295 0.727062
300 0.779914
305 0.620088
310 0.497134
315 0.455772
320 0.39424
325 0.829889
330 0.533493
335 0.515848
340 0.460495
345 0.713564
350 0.568386
355 0.598277
360 0.758705
365 0.693335
370 0.747615
375 0.518338
380 0.829611
385 0.624644
390 1.00374
395 0.703401
400 0.698611
405 0.794818
410 1.03271
415 0.760273
420 0.763383
425 0.717782
430 0.753849
435 0.774112
440 0.772929
445 0.574104
450 0.747965
455 0.755109
460 0.676623
465 0.817559
470 0.47913
475 0.658855
480 0.68353
485 0.768925
490 0.750128
495 0.724585
500 0.810569
505 0.519896
510 0.530726
515 0.401242
520 0.535755
525 0.619927
530 0.723176
535 0.657663
540 0.685602
545 0.741865
550 0.498978
555 0.543918
560 0.643427
565 0.772038
570 0.497885
575 0.700667
580 0.423953
585 0.515486
590 0.555038
595 0.579309
600 0.258576
Ex : 308
200 0.603684
205 0.320831
210 0.676085
215 0.516751
220 0.333696
225 0.464325
230 0.425038
235 0.510401
240 0.281494
245 0.372356
250 0.603758
255 0.494484
260 0.3167
265 0.469415
270 0.500535
275 0.524059
280 0.522485
285 0.607651
290 0.585625
295 0.453657
300 0.498006
305 0.544012
310 0.473297
315 0.400672
320 0.435708
325 0.435038
330 0.564141
335 0.364345
340 0.582584
345 0.630088
350 0.724335
355 0.636767
360 0.546384
365 0.816157
370 0.698486
375 0.740125
380 0.758762
385 0.696689
390 0.875477
395 0.764207
400 0.854777
405 0.857767
410 0.843008
415 1.06257
420 1.07068
425 0.866777
430 1.07407
435 0.837321
440 0.868252
445 0.903173
450 0.896597
455 0.930005
460 0.542045
465 0.685233
470 0.592317
475 0.698236
480 0.865281
485 0.744324
490 0.671126
495 0.504451
500 0.712972
505 0.813698
510 0.683493
515 0.866377
520 0.544979
525 0.519827
530 0.409387
535 0.421967
540 0.415233
545 0.602135
550 0.459577
555 0.567586
560 0.675117
565 0.594277
570 0.370583
575 0.297834
580 0.39731
585 0.481069
590 0.398205
595 0.405406
600 0.333551
Ex : 313
200 0.48755
205 0.37985
210 0.396856
215 0.635212
220 0.435984
225 0.490826
230 0.375294
235 0.402155
240 0.32534
245 0.349342
250 0.268056
255 0.238251
260 0.37787
265 0.43325
270 0.376102
275 0.493953
280 0.354384
285 0.439182
290 0.470792
295 0.327601
300 0.358922
305 0.440984
310 0.689563
315 0.415066
320 0.498109
325 0.440513
330 0.854055
335 0.519608
340 0.570478
345 0.521675
350 0.575088
355 0.818944
360 0.560793
365 0.74334
370 0.972049
375 0.827158
380 1.10895
385 1.36864
390 1.01709
395 1.16595
400 1.19298
405 1.24995
410 1.13749
415 1.14439
420 1.15296
425 1.13538
430 1.17331
435 1.30713
440 1.17548
445 0.971691
450 1.03626
455 0.937692
460 1.11666
465 0.807822
470 0.833455
475 0.912627
480 0.626045
485 0.653927
490 0.66589
495 0.688126
500 0.669528
505 0.622644
510 0.627576
515 0.440856
520 0.461175
525 0.429123
530 0.413365
535 0.430161
540 0.368306
545 0.570076
550 0.42749
555 0.467174
560 0.37615
565 0.393217
570 0.446519
575 0.298218
580 0.434736
585 0.289678
590 0.27055
595 0.433791
600 2.16992
Ex : 318
200 0.373717
205 0.353112
210 0.394261
215 0.427021
220 0.444424
225 0.354402
230 0.615761
235 0.571865
240 0.467323
245 0.433078
250 0.384439
255 0.2956
260 0.32175
265 0.331113
270 0.299969
275 0.171074
280 0.331887
285 0.387412
290 0.398658
295 0.444939
300 0.342466
305 0.448456
310 0.629021
315 0.991791
320 0.828425
325 0.577289
330 0.581274
335 0.839573
340 1.46049
345 1.83591
350 2.40803
355 2.8903
360 3.3077
365 4.48675
370 5.00906
375 6.32854
380 7.40543
385 8.29084
390 8.70917
395 9.3843
400 9.96929
405 9.73483
410 9.58106
415 9.52151
420 10.1395
425 9.93213
430 9.28206
435 9.37697
440 9.01546
445 8.50492
450 7.85496
455 7.19284
460 7.15716
465 6.71343
470 6.44497
475 5.46625
480 4.94918
485 4.41935
490 3.95254
495 3.66738
500 3.10567
505 2.71378
510 2.48619
515 2.06164
520 1.84603
525 1.57127
530 1.42316
535 1.26752
540 1.2071
545 1.13551
550 0.934164
555 0.764954
560 0.880145
565 0.75506
570 0.66835
575 0.717565
580 0.561956
585 0.406071
590 0.452907
595 0.470895
600 0.36745
Ex : 323
200 0.295806
205 0.257863
210 0.258223
215 0.337499
220 0.351337
225 0.366054
230 0.40982
235 0.300444
240 0.252667
245 0.313176
250 0.354046
255 0.21471
260 0.364893
265 0.217638
270 0.429346
275 0.404425
280 0.361722
285 0.29067
290 0.335939
295 0.243947
300 0.375012
305 0.362352
310 0.4678
315 3.81975
320 16.351
325 7.14838
330 2.67424
335 3.01539
340 4.19654
345 6.31306
350 8.27989
355 11.9085
360 14.3686
365 16.4739
370 20.2568
375 23.1717
380 26.5851
385 29.8253
390 31.0288
395 33.6173
400 35.9015
405 36.7004
410 37.2444
415 36.7854
420 36.7365
425 36.2551
430 34.2437
435 33.8887
440 32.5677
445 31.7695
450 28.8776
455 27.6125
460 25.9737
465 24.2306
470 21.7253
475 20.3665
480 18.5234
485 16.5341
490 15.0761
495 13.5461
500 11.6387
505 10.926
510 9.24527
515 7.97155
520 6.9949
525 5.99758
530 5.29164
535 4.57512
540 3.93698
545 3.46572
550 2.89448
555 2.39819
560 2.26151
565 2.06164
570 1.50099
575 1.17227
580 1.10525
585 0.8602
590 0.703497
595 0.477505
600 1.72547
Ex : 328
200 0.256608
205 0.333828
210 0.237561
215 0.286974
220 0.352013
225 0.25052
230 0.311911
235 0.32975
240 0.248951
245 0.240296
250 0.320488
255 0.240503
260 0.301467
265 0.222786
270 0.265187
275 0.339136
280 0.287044
285 0.293323
290 0.244224
295 0.455545
300 0.365397
305 0.258681
310 0.22087
315 1.19968
320 33.2942
325 77.1348
330 24.4992
335 6.0128
340 5.64949
345 7.40006
350 9.35035
355 12.9593
360 17.8772
365 20.0364
370 21.9816
375 25.2657
380 28.501
385 31.8492
390 34.43
395 36.3307
400 37.8811
405 38.6466
410 37.8551
415 38.5923
420 36.8636
425 36.5116
430 36.2474
435 34.7609
440 33.0631
445 32.4361
450 30.3887
455 28.6506
460 26.7298
465 24.5071
470 23.5145
475 21.6209
480 20.4104
485 18.4671
490 17.0721
495 14.9135
500 13.749
505 12.4912
510 11.0047
515 9.642
520 8.54895
525 7.61764
530 6.25309
535 6.06533
540 4.83366
545 4.45611
550 3.8409
555 3.44814
560 3.02686
565 2.43543
570 1.98839
575 1.57504
580 1.13752
585 1.07113
590 0.996962
595 0.725262
600 0.901712
Ex : 333
200 0.213496
205 0.321592
210 0.302358
215 0.346413
220 0.256477
225 0.260015
230 0.246746
235 0.284123
240 0.347133
245 0.215881
250 0.22014
255 0.266091
260 0.191785
265 0.300208
270 0.24166
275 0.243126
280 0.237513
285 0.330931
290 0.29601
295 0.17701
300 0.259057
305 0.230404
310 0.39525
315 0.246737
320 4.83906
325 87.342
330 148.051
335 40.028
340 7.81167
345 5.78351
350 6.11713
355 6.63623
360 10.0537
365 14.7624
370 15.9473
375 15.9399
380 16.8377
385 17.8136
390 19.582
395 20.2837
400 20.9734
405 21.3053
410 22.2199
415 21.6952
420 21.0297
425 20.5558
430 20.0958
435 19.7665
440 18.7797
445 18.9542
450 18.8525
455 18.2226
460 17.0451
465 15.6114
470 15.6151
475 14.8025
480 13.8038
485 13.5406
490 12.8392
495 11.7466
500 11.0096
505 10.3552
510 8.95168
515 7.85268
520 7.09703
525 6.72137
530 5.85781
535 5.65186
540 4.82242
545 4.53493
550 3.72042
555 3.20236
560 3.16461
565 2.35682
570 1.94199
575 1.81385
580 1.47876
585 1.08176
590 0.950755
595 0.755172
600 0.532472
Ex : 338
200 0.244188
205 0.257208
210 0.296303
215 0.421252
220 0.349759
225 0.337487
230 0.296065
235 0.255585
240 0.152088
245 0.252809
250 0.259643
255 0.247693
260 0.223161
265 0.304712
270 0.287984
275 0.314677
280 0.153514
285 0.236886
290 0.238408
295 0.2458
300 0.270514
305 0.247105
310 0.229433
315 0.267275
320 0.394091
325 8.53249
330 128.176
335 191.509
340 48.4766
345 8.18913
350 4.33076
355 4.26192
360 4.45084
365 6.13176
370 10.8612
375 11.8574
380 10.9896
385 10.7052
390 9.91525
395 10.9007
400 10.9006
405 11.7664
410 11.5308
415 11.7931
420 12.0086
425 11.0367
430 11.515
435 11.4549
440 11.4761
445 11.4098
450 11.5092
455 11.4586
460 11.3451
465 11.8131
470 12.1312
475 12.055
480 11.7779
485 11.5457
490 11.1476
495 10.7356
500 10.5923
505 9.96202
510 9.06268
515 8.1109
520 7.8909
525 6.76713
530 6.61865
535 5.90868
540 5.26994
545 4.40677
550 4.12273
555 3.53374
560 3.09412
565 2.90486
570 2.40296
575 1.96932
580 1.58863
585 1.31095
590 1.08165
595 1.01204
600 1.12338
Ex : 343
200 0.359373
205 0.282828
210 0.215697
215 0.285604
220 0.224565
225 0.263825
230 0.181887
235 0.277947
240 0.262129
245 0.156749
250 0.202538
255 0.278574
260 0.204578
265 0.227584
270 0.32028
275 0.349653
280 0.208577
285 0.257782
290 0.293747
295 0.253727
300 0.244102
305 0.26218
310 0.201516
315 0.2067
320 0.344925
325 0.360192
330 9.47432
335 144.303
340 210.74
345 51.1689
350 7.91007
355 3.73596
360 3.14898
365 2.75739
370 4.0997
375 8.3509
380 9.52003
385 8.23612
390 7.16606
395 7.20623
400 7.64409
405 7.58626
410 7.64218
415 8.19397
420 8.97302
425 8.12563
430 8.34837
435 8.33164
440 8.63399
445 9.99501
450 10.0163
455 10.271
460 11.0799
465 12.0216
470 12.1031
475 12.1173
480 11.7551
485 12.3927
490 12.2604
495 12.1025
500 11.4878
505 11.2469
510 10.0873
515 9.73499
520 8.75421
525 7.98351
530 7.58493
535 6.97003
540 6.42035
545 5.89408
550 4.73526
555 4.36523
560 3.88164
565 3.35453
570 3.10083
575 2.25556
580 1.87267
585 1.51488
590 1.06948
595 0.951738
600 1.34664
Ex : 348
200 0.320518
205 0.195799
210 0.137391
215 0.215874
220 0.251615
225 0.20603
230 0.144119
235 0.199045
240 0.193552
245 0.201098
250 0.253054
255 0.265688
260 0.264426
265 0.162828
270 0.194325
275 0.266159
280 0.25772
285 0.236967
290 0.223886
295 0.205516
300 0.207448
305 0.201342
310 0.229347
315 0.355909
320 0.258395
325 0.297411
330 0.376131
335 9.29991
340 141.546
345 213.919
350 55.5076
355 8.18065
360 3.24222
365 2.74776
370 2.6119
375 3.38509
380 6.59653
385 9.17761
390 8.11814
395 6.77585
400 6.39555
405 6.48786
410 6.86367
415 7.03803
420 7.0105
425 7.48174
430 7.18005
435 7.63607
440 8.23173
445 9.03056
450 10.3324
455 10.7542
460 12.3995
465 13.0116
470 13.3368
475 13.6005
480 14.4041
485 14.1143
490 15.1775
495 14.3595
500 14.2061
505 13.2997
510 12.2976
515 11.5465
520 10.5921
525 9.94011
530 9.31479
535 8.35503
540 7.78661
545 6.99651
550 6.7777
555 5.47897
560 4.95985
565 3.76901
570 3.42204
575 2.95116
580 2.26823
585 1.76022
590 1.40411
595 1.12553
600 0.976688
Ex : 353
200 0.267194
205 0.25879
210 0.16666
215 0.173025
220 0.198572
225 0.160229
230 0.166418
235 0.158664
240 0.264097
245 0.303407
250 0.224513
255 0.173529
260 0.2526
265 0.158763
270 0.295268
275 0.202275
280 0.175385
285 0.216346
290 0.138876
295 0.204684
300 0.201208
305 0.160668
310 0.212559
315 0.185393
320 0.28079
325 0.232075
330 0.297411
335 0.445867
340 9.67036
345 143.542
350 208.622
355 52.0252
360 7.46097
365 2.61868
370 2.80899
375 2.71604
380 3.15908
385 5.78403
390 8.89281
395 8.19214
400 6.82591
405 5.97625
410 6.12293
415 6.29975
420 6.67727
425 6.78015
430 6.78839
435 7.37964
440 8.44416
445 8.98109
450 10.9524
455 11.57
460 13.3025
465 14.1518
470 15.3544
475 16.6103
480 17.1383
485 17.4475
490 17.6369
495 17.6827
500 16.588
505 16.2496
510 15.5856
515 14.4742
520 13.1134
525 11.9457
530 11.4001
535 10.3195
540 9.30162
545 8.31084
550 7.39108
555 6.39538
560 5.875
565 4.97676
570 4.04086
575 3.58783
580 2.65507
585 2.33252
590 1.61249
595 1.3926
600 0.513956
Ex : 358
200 0.177675
205 0.187975
210 0.2478
215 0.180472
220 0.187636
225 0.28806
230 0.208297
235 0.249434
240 0.250577
245 0.154588
250 0.143114
255 0.140823
260 0.273917
265 0.204554
270 0.184935
275 0.212491
280 0.163276
285 0.205296
290 0.230435
295 0.221452
300 0.196544
305 0.187436
310 0.185054
315 0.20701
320 0.217897
325 0.319975
330 0.258104
335 0.196408
340 0.337989
345 8.41044
350 135.33
355 208.885
360 52.9998
365 7.67583
370 3.02547
375 3.31279
380 3.08405
385 3.102
390 4.76131
395 8.71564
400 8.35852
405 7.49017
410 6.75507
415 6.33162
420 6.72843
425 6.69401
430 6.93101
435 7.8076
440 8.06002
445 9.20081
450 10.5368
455 12.4865
460 13.6523
465 15.6055
470 16.3405
475 17.6016
480 18.1976
485 18.7714
490 19.2525
495 18.8941
500 18.4925
505 17.9048
510 16.4722
515 15.2784
520 14.3168
525 13.5664
530 12.5939
535 11.3481
540 10.3746
545 9.08204
550 8.11049
555 7.21115
560 6.30111
565 5.58999
570 4.46179
575 3.61174
580 2.95435
585 2.31848
590 1.79678
595 1.53092
600 1.60327
Ex : 363
200 0.142774
205 0.16879
210 0.17766
215 0.133704
220 0.165201
225 0.183311
230 0.209911
235 0.119567
240 0.179334
245 0.169796
250 0.144251
255 0.178118
260 0.179011
265 0.192395
270 0.148078
275 0.128331
280 0.123789
285 0.142099
290 0.155415
295 0.195987
300 0.208784
305 0.142426
310 0.217187
315 0.175012
320 0.233723
325 0.145261
330 0.186017
335 0.262094
340 0.284467
345 0.42309
350 8.83664
355 137.269
360 212.978
365 54.6888
370 7.85504
375 3.09405
380 3.16365
385 3.18667
390 3.05528
395 4.34875
400 7.70024
405 9.06312
410 7.88446
415 6.89915
420 6.40837
425 6.8738
430 6.7597
435 7.5145
440 8.47469
445 9.46329
450 11.3291
455 12.9407
460 15.1601
465 16.8843
470 18.4824
475 19.4933
480 20.9172
485 20.907
490 21.5702
495 21.0905
500 20.5327
505 20.1004
510 18.9255
515 17.5115
520 16.6135
525 15.3221
530 13.8551
535 12.6184
540 11.542
545 10.7756
550 9.54067
555 8.62556
560 7.23636
565 6.32062
570 5.31855
575 4.13115
580 3.25167
585 2.65032
590 2.13093
595 1.65003
600 1.44757
Ex : 368
200 0.162519
205 0.167977
210 0.119235
215 0.229185
220 0.172999
225 0.16004
230 0.179634
235 0.110916
240 0.121418
245 0.154888
250 0.0975349
255 0.172775
260 0.167818
265 0.187981
270 0.190003
275 0.110193
280 0.185308
285 0.163535
290 0.144889
295 0.132761
300 0.129878
305 0.115357
310 0.136357
315 0.125388
320 0.200133
325 0.247682
330 0.207172
335 0.226494
340 0.244104
345 0.207386
350 0.346254
355 6.39763
360 125.923
365 206.303
370 55.0925
375 8.10343
380 3.12551
385 3.16137
390 3.08097
395 2.91698
400 3.74306
405 6.48752
410 8.61013
415 7.6785
420 6.72021
425 5.97941
430 6.27628
435 7.0997
440 8.07081
445 9.10488
450 12.0791
455 14.1765
460 16.6328
465 19.0259
470 20.8226
475 22.3816
480 23.9738
485 24.7842
490 24.9596
495 25.291
500 24.6497
505 23.9446
510 22.3433
515 20.7966
520 20.0004
525 18.4514
530 17.2194
535 15.169
540 14.0962
545 12.5337
550 11.2053
555 10.0017
560 9.03893
565 7.64624
570 6.30368
575 5.38689
580 4.05305
585 3.22147
590 2.23632
595 2.04535
600 2.34663
Ex : 373
200 0.106996
205 0.175777
210 0.137738
215 0.123514
220 0.151515
225 0.162147
230 0.153121
235 0.14306
240 0.175488
245 0.128466
250 0.206915
255 0.139845
260 0.169687
265 0.15313
270 0.119165
275 0.190107
280 0.109997
285 0.174568
290 0.146571
295 0.231926
300 0.156123
305 0.100724
310 0.162219
315 0.220494
320 0.218811
325 0.182976
330 0.200594
335 0.210041
340 0.208463
345 0.300781
350 0.339415
355 0.451453
360 7.44507
365 127.761
370 208.305
375 57.7799
380 8.69162
385 3.09287
390 3.22302
395 3.41643
400 3.11795
405 3.70208
410 5.69648
415 8.11301
420 7.39595
425 6.64751
430 5.96764
435 6.33812
440 7.35946
445 9.33326
450 11.5669
455 14.1035
460 16.5336
465 19.943
470 21.8038
475 24.2215
480 25.7741
485 26.7152
490 27.2945
495 27.1692
500 26.7036
505 25.4284
510 25.1669
515 23.4207
520 21.6257
525 20.2837
530 18.5961
535 17.154
540 15.3763
545 14.2042
550 12.2567
555 10.7844
560 9.69124
565 8.53029
570 6.9843
575 5.88096
580 4.5375
585 3.69692
590 2.82695
595 2.1211
600 1.48052
Ex : 378
200 0.151742
205 0.176162
210 0.138154
215 0.195843
220 0.131322
225 0.166775
230 0.154306
235 0.160419
240 0.132709
245 0.135748
250 0.0955495
255 0.151868
260 0.127164
265 0.130606
270 0.147386
275 0.101749
280 0.163349
285 0.109481
290 0.175389
295 0.114386
300 0.149127
305 0.170861
310 0.155116
315 0.144656
320 0.174712
325 0.142661
330 0.133121
335 0.219839
340 0.176286
345 0.179565
350 0.161004
355 0.23856
360 0.379989
365 7.15369
370 132.374
375 216.752
380 60.0817
385 9.17613
390 3.27097
395 3.68679
400 3.9516
405 4.00805
410 3.89249
415 5.10284
420 7.94981
425 8.03928
430 7.17095
435 6.77694
440 7.20015
445 8.82893
450 11.0199
455 13.8898
460 16.5369
465 18.7172
470 21.4559
475 23.1346
480 24.7316
485 25.4364
490 26.1048
495 26.6027
500 25.2432
505 24.8733
510 23.5236
515 22.2934
520 20.6695
525 19.1711
530 17.1826
535 15.9903
540 14.6965
545 13.5511
550 12.5279
555 10.7573
560 9.26127
565 8.10687
570 6.88108
575 5.38057
580 3.97152
585 3.01783
590 2.25606
595 1.88253
600 1.07855
Ex : 383
200 0.125444
205 0.182511
210 0.149567
215 0.136347
220 0.184005
225 0.126024
230 0.105301
235 0.126932
240 0.131758
245 0.141833
250 0.13489
255 0.152661
260 0.205241
265 0.162855
270 0.236667
275 0.163335
280 0.126628
285 0.1205
290 0.120991
295 0.135355
300 0.169562
305 0.113307
310 0.137942
315 0.153709
320 0.178383
325 0.150685
330 0.16726
335 0.158223
340 0.134248
345 0.197559
350 0.175082
355 0.201543
360 0.232228
365 0.321217
370 7.12543
375 132.659
380 225.922
385 63.1139
390 9.49146
395 3.4812
400 3.17902
405 3.87502
410 3.67008
415 3.85987
420 4.66861
425 7.30506
430 8.33204
435 7.91693
440 8.12204
445 9.1782
450 11.0328
455 13.5295
460 16.6012
465 19.4584
470 21.2593
475 23.4823
480 24.8488
485 26.0829
490 26.7919
495 26.0846
500 26.1428
505 24.9089
510 24.0062
515 22.3072
520 20.8821
525 19.1909
530 17.8824
535 16.4602
540 14.8992
545 13.4866
550 12.0201
555 10.7215
560 9.31549
565 8.31813
570 6.83086
575 5.45115
580 4.21621
585 3.2915
590 2.58547
595 2.04974
600 1.71945
Ex : 388
200 0.126347
205 0.162551
210 0.171485
215 0.113642
220 0.167026
225 0.17552
230 0.13432
235 0.10663
240 0.136937
245 0.165196
250 0.185099
255 0.142747
260 0.153859
265 0.106161
270 0.129465
275 0.14472
280 0.13289
285 0.111391
290 0.162868
295 0.192866
300 0.115645
305 0.157407
310 0.182618
315 0.190362
320 0.114723
325 0.172485
330 0.13452
335 0.210136
340 0.146983
345 0.171423
350 0.219457
355 0.204048
360 0.233378
365 0.226809
370 0.418878
375 7.84781
380 136.58
385 228.297
390 62.7821
395 9.00559
400 3.20277
405 3.25564
410 3.74033
415 3.57683
420 3.24362
425 3.9686
430 6.38764
435 8.48576
440 8.30724
445 9.39654
450 10.9502
455 13.2829
460 16.5942
465 19.1298
470 21.407
475 23.5484
480 25.2535
485 27.2781
490 27.2456
495 27.6633
500 27.4335
505 26.11
510 25.1914
515 23.5421
520 21.464
525 20.4645
530 18.7235
535 17.2058
540 15.5062
545 14.3028
550 12.6419
555 11.0971
560 9.89429
565 8.75944
570 7.15347
575 5.69371
580 4.59523
585 3.25207
590 2.50476
595 2.21953
600 1.61209
Ex : 393
200 0.171201
205 0.138301
210 0.113991
215 0.0967124
220 0.128885
225 0.1261
230 0.188894
235 0.13785
240 0.15646
245 0.0827888
250 0.114517
255 0.148556
260 0.104724
265 0.117063
270 0.132146
275 0.167322
280 0.193546
285 0.146193
290 0.158638
295 0.150506
300 0.122971
305 0.188087
310 0.145072
315 0.16518
320 0.129429
325 0.14599
330 0.152952
335 0.108856
340 0.11169
345 0.180281
350 0.227951
355 0.178075
360 0.149397
365 0.194886
370 0.287135
375 0.346113
380 6.98358
385 137.683
390 233.182
395 64.4688
400 9.17313
405 2.84375
410 2.84202
415 3.10549
420 2.83864
425 2.80628
430 3.36371
435 5.96387
440 8.9428
445 9.86241
450 11.8024
455 14.0155
460 17.0783
465 20.0185
470 22.3026
475 24.7973
480 26.4875
485 28.1735
490 29.0028
495 28.4858
500 28.7661
505 27.9819
510 26.5674
515 24.648
520 23.1558
525 21.2755
530 19.8703
535 18.269
540 16.6876
545 14.8987
550 13.5355
555 12.5509
560 10.461
565 9.33977
570 7.59755
575 6.17912
580 4.75127
585 3.62698
590 2.91354
595 2.24179
600 1.87227
Ex : 398
200 0.128895
205 0.10939
210 0.119555
215 0.165561
220 0.12384
225 0.0970384
230 0.149108
235 0.15858
240 0.0905032
245 0.130209
250 0.10248
255 0.132843
260 0.0738488
265 0.148739
270 0.114798
275 0.152994
280 0.165279
285 0.154421
290 0.104602
295 0.0957285
300 0.147883
305 0.118738
310 0.117643
315 0.113638
320 0.163472
325 0.127888
330 0.121187
335 0.135983
340 0.164226
345 0.150998
350 0.165005
355 0.155505
360 0.197717
365 0.182035
370 0.235064
375 0.263191
380 0.384879
385 7.17638
390 141.235
395 241.641
400 66.124
405 9.23895
410 2.8598
415 2.66901
420 2.81593
425 2.63812
430 2.87288
435 3.77054
440 5.95682
445 10.0187
450 12.6531
455 14.999
460 18.1181
465 20.6495
470 23.2241
475 25.2476
480 27.2117
485 28.9692
490 29.8854
495 30.1142
500 30.059
505 28.7923
510 27.682
515 26.158
520 24.4061
525 22.3289
530 20.7252
535 19.0276
540 17.4502
545 15.7123
550 14.4547
555 12.6178
560 11.2478
565 9.50757
570 7.92864
575 6.32064
580 4.98332
585 3.92223
590 3.01354
595 2.2261
600 2.5883
Ex : 403
200 0.135505
205 0.169809
210 0.157299
215 0.111951
220 0.130803
225 0.107974
230 0.225953
235 0.155975
240 0.143537
245 0.163258
250 0.119746
255 0.119117
260 0.105618
265 0.17618
270 0.107007
275 0.115177
280 0.106134
285 0.134563
290 0.142059
295 0.0816944
300 0.133496
305 0.114038
310 0.082835
315 0.100838
320 0.152862
325 0.138495
330 0.187059
335 0.15594
340 0.11226
345 0.175568
350 0.155753
355 0.185528
360 0.120987
365 0.203679
370 0.215141
375 0.231804
380 0.245823
385 0.377672
390 8.04153
395 144.067
400 241.231
405 67.3215
410 9.57007
415 2.76924
420 2.57815
425 2.92125
430 3.12511
435 3.54158
440 4.99753
445 7.23835
450 12.1674
455 16.5531
460 18.7704
465 21.5878
470 23.2162
475 26.5444
480 28.009
485 29.5482
490 30.1622
495 30.8097
500 30.8109
505 29.9876
510 27.9515
515 26.5374
520 24.2534
525 23.0028
530 21.4056
535 19.718
540 17.5806
545 16.2001
550 14.0954
555 12.7292
560 11.3808
565 9.89629
570 8.15911
575 6.41813
580 5.06086
585 3.91141
590 3.21266
595 2.36576
600 1.92629
Ex : 408
200 0.150462
205 0.170434
210 0.176865
215 0.111017
220 0.0982099
225 0.0936135
230 0.111529
235 0.103069
240 0.172929
245 0.100335
250 0.108816
255 0.104379
260 0.131633
265 0.116989
270 0.117491
275 0.122803
280 0.0957244
285 0.130274
290 0.122228
295 0.167127
300 0.110984
305 0.117974
310 0.135061
315 0.139964
320 0.0961163
325 0.164229
330 0.146039
335 0.127847
340 0.102916
345 0.106706
350 0.0970043
355 0.141208
360 0.123549
365 0.129544
370 0.147895
375 0.135304
380 0.181339
385 0.289277
390 0.347087
395 7.53196
400 151.287
405 250.411
410 67.2661
415 9.51107
420 2.80386
425 2.46035
430 3.03508
435 3.53057
440 4.64188
445 6.70997
450 10.002
455 14.9715
460 19.7658
465 22.2804
470 24.6306
475 26.7504
480 27.8594
485 29.8009
490 30.7305
495 31.0153
500 30.7979
505 30.1232
510 28.4884
515 26.9707
520 25.4862
525 23.1222
530 21.2106
535 19.2986
540 18.0889
545 16.2376
550 14.5812
555 12.9311
560 11.7031
565 10.2157
570 8.25898
575 6.44341
580 5.09327
585 4.0454
590 3.20998
595 2.37491
600 1.95193
Ex : 413
200 0.094477
205 0.106916
210 0.116986
215 0.0977264
220 0.103103
225 0.137171
230 0.17285
235 0.139875
240 0.163098
245 0.155072
250 0.109872
255 0.132537
260 0.102208
265 0.126485
270 0.123957
275 0.151659
280 0.182543
285 0.147911
290 0.1447
295 0.160319
300 0.162458
305 0.100979
310 0.159782
315 0.145563
320 0.207076
325 0.143736
330 0.100988
335 0.173563
340 0.139558
345 0.160912
350 0.144185
355 0.145403
360 0.15599
365 0.116628
370 0.134977
375 0.1679
380 0.200193
385 0.20963
390 0.26989
395 0.420594
400 8.86282
405 158.388
410 256.565
415 67.9371
420 9.31978
425 2.63014
430 2.35625
435 3.17228
440 4.36947
445 5.76569
450 9.30436
455 12.3831
460 17.1993
465 22.199
470 23.8667
475 26.636
480 28.6884
485 29.0609
490 29.6625
495 30.3578
500 30.0899
505 29.317
510 27.7862
515 26.2302
520 24.9216
525 22.6437
530 21.3207
535 19.1706
540 17.935
545 16.1254
550 14.7524
555 12.9263
560 10.8816
565 9.71872
570 8.0859
575 6.64253
580 5.18804
585 3.76675
590 3.07575
595 2.40377
600 2.12784
Ex : 418
200 0.119701
205 0.0887366
210 0.109551
215 0.141589
220 0.0867731
225 0.106615
230 0.0931704
235 0.141636
240 0.111632
245 0.140676
250 0.100898
255 0.171139
260 0.112958
265 0.0806824
270 0.105778
275 0.122295
280 0.0941253
285 0.100578
290 0.082809
295 0.15878
300 0.151597
305 0.102934
310 0.119382
315 0.208791
320 0.146847
325 0.105765
330 0.129407
335 0.141477
340 0.125713
345 0.131919
350 0.162419
355 0.137306
360 0.115758
365 0.132221
370 0.139185
375 0.169535
380 0.168131
385 0.208843
390 0.219969
395 0.234867
400 0.376301
405 8.87816
410 161.029
415 262.711
420 71.4623
425 9.61224
430 2.71458
435 2.46159
440 3.75695
445 5.81839
450 8.26087
455 11.8762
460 15.0522
465 18.9504
470 24.1728
475 26.8588
480 27.7714
485 28.4946
490 29.4863
495 29.4123
500 28.7151
505 27.5237
510 26.8214
515 24.8014
520 23.2534
525 21.8554
530 19.6971
535 18.5924
540 16.6148
545 15.5292
550 13.9839
555 12.0366
560 10.741
565 9.28732
570 7.97511
575 6.23142
580 4.93992
585 3.88381
590 2.98737
595 2.30352
600 1.62078
Ex : 423
200 0.151836
205 0.10676
210 0.150085
215 0.119761
220 0.136955
225 0.0935477
230 0.117101
235 0.0870536
240 0.173277
245 0.148341
250 0.103991
255 0.11249
260 0.110997
265 0.102532
270 0.0977917
275 0.0985279
280 0.127675
285 0.134467
290 0.0978271
295 0.072975
300 0.0974112
305 0.131763
310 0.10962
315 0.121005
320 0.151153
325 0.133391
330 0.138998
335 0.182181
340 0.159491
345 0.161981
350 0.17326
355 0.148539
360 0.100518
365 0.147374
370 0.118249
375 0.211672
380 0.218954
385 0.129302
390 0.17359
395 0.227997
400 0.284016
405 0.422977
410 9.36377
415 172.198
420 273.6
425 69.9268
430 9.65744
435 3.11619
440 3.34647
445 5.53528
450 7.9756
455 10.4637
460 14.1756
465 16.6058
470 20.0357
475 24.3436
480 26.5783
485 26.8128
490 27.3437
495 27.2702
500 27.1234
505 26.0025
510 24.7878
515 23.1765
520 21.7565
525 20.5275
530 18.8112
535 17.1098
540 15.6232
545 13.9831
550 13.01
555 11.4612
560 10.131
565 8.84462
570 7.21652
575 5.86995
580 4.65942
585 3.54621
590 2.83687
595 2.07516
600 1.85405
Ex : 428
200 0.152525
205 0.109763
210 0.0901381
215 0.0825831
220 0.121768
225 0.124614
230 0.118732
235 0.085927
240 0.123504
245 0.113775
250 0.122478
255 0.166091
260 0.119792
265 0.112368
270 0.127907
275 0.145479
280 0.139915
285 0.160487
290 0.109079
295 0.113482
300 0.112677
305 0.0855465
310 0.126743
315 0.15125
320 0.127916
325 0.125155
330 0.182341
335 0.152804
340 0.112991
345 0.186283
350 0.121338
355 0.156198
360 0.126185
365 0.14007
370 0.150916
375 0.160137
380 0.194186
385 0.15995
390 0.197959
395 0.209833
400 0.216045
405 0.315502
410 0.429171
415 9.89845
420 175.557
425 279.607
430 74.7054
435 10.4879
440 3.61811
445 4.53993
450 7.07486
455 9.96805
460 12.564
465 15.2334
470 17.3154
475 19.9298
480 22.8324
485 25.6749
490 25.4302
495 25.6747
500 25.1093
505 23.3241
510 22.3758
515 20.806
520 19.8578
525 18.3401
530 16.8738
535 15.439
540 13.9449
545 12.7264
550 11.2647
555 10.4789
560 9.05126
565 7.62941
570 6.60634
575 5.08142
580 3.9699
585 3.12049
590 2.42454
595 1.98301
600 1.67821
Ex : 433
200 0.143267
205 0.127871
210 0.147399
215 0.14228
220 0.14658
225 0.162351
230 0.209625
235 0.127191
240 0.155175
245 0.125814
250 0.15212
255 0.126718
260 0.136474
265 0.143921
270 0.123165
275 0.0994217
280 0.143863
285 0.105056
290 0.163067
295 0.128205
300 0.121483
305 0.147657
310 0.184763
315 0.165976
320 0.193436
325 0.152171
330 0.147706
335 0.136464
340 0.149613
345 0.127828
350 0.16448
355 0.142906
360 0.0914361
365 0.131506
370 0.1657
375 0.150778
380 0.148899
385 0.155021
390 0.197123
395 0.131886
400 0.176875
405 0.243966
410 0.347557
415 0.421219
420 11.7082
425 195.778
430 296.318
435 75.1542
440 10.9018
445 4.97613
450 6.0005
455 8.67382
460 11.1368
465 13.3279
470 15.3684
475 16.9771
480 19.0274
485 20.6161
490 23.0414
495 23.2327
500 22.2778
505 21.8273
510 19.9611
515 18.4075
520 17.5225
525 16.2025
530 15.0876
535 13.6475
540 12.5625
545 11.2418
550 10.0249
555 9.23947
560 7.77374
565 6.64323
570 5.77959
575 4.73412
580 3.81917
585 2.78408
590 2.19019
595 1.71717
600 2.08085
Ex : 438
200 0.142846
205 0.115903
210 0.129726
215 0.135381
220 0.137338
225 0.103216
230 0.13462
235 0.105388
240 0.128389
245 0.097371
250 0.105585
255 0.105454
260 0.116314
265 0.142216
270 0.151953
275 0.116289
280 0.0915321
285 0.15503
290 0.11333
295 0.159347
300 0.153223
305 0.111254
310 0.13196
315 0.153113
320 0.123496
325 0.158725
330 0.100463
335 0.130679
340 0.168149
345 0.162048
350 0.157909
355 0.097302
360 0.11035
365 0.14036
370 0.102245
375 0.108795
380 0.122735
385 0.107395
390 0.154858
395 0.160676
400 0.141198
405 0.14791
410 0.159978
415 0.329564
420 0.415932
425 11.9608
430 197.055
435 316.899
440 81.273
445 12.7976
450 6.15714
455 7.22499
460 9.49722
465 11.7441
470 12.9924
475 14.5761
480 15.7427
485 16.5363
490 18.1498
495 20.167
500 20.0598
505 18.8436
510 17.316
515 16.5138
520 14.9182
525 14.193
530 12.9707
535 11.6636
540 10.5402
545 9.80496
550 8.66717
555 7.546
560 6.98506
565 5.90557
570 5.02617
575 4.11741
580 2.99419
585 2.2969
590 2.00691
595 1.41218
600 1.49893
Ex : 443
200 0.0868134
205 0.152297
210 0.112852
215 0.127013
220 0.116545
225 0.109093
230 0.118146
235 0.0961396
240 0.201886
245 0.146643
250 0.157906
255 0.104146
260 0.18687
265 0.115507
270 0.104253
275 0.11219
280 0.158832
285 0.119491
290 0.124301
295 0.113697
300 0.131903
305 0.125867
310 0.16873
315 0.17144
320 0.180761
325 0.169442
330 0.1363
335 0.0974115
340 0.123515
345 0.109122
350 0.12192
355 0.141486
360 0.176789
365 0.153878
370 0.143386
375 0.126425
380 0.13309
385 0.185436
390 0.146728
395 0.133363
400 0.193976
405 0.226643
410 0.212545
415 0.219425
420 0.333451
425 0.601619
430 13.2754
435 215.079
440 329.159
445 84.1552
450 13.5857
455 6.52669
460 7.53797
465 9.20183
470 10.9034
475 11.8493
480 12.5288
485 13.1328
490 14.279
495 14.5502
500 15.9948
505 16.4713
510 14.4532
515 13.6614
520 12.3433
525 11.4444
530 10.1316
535 9.4022
540 8.53918
545 7.87922
550 7.11006
555 6.20397
560 5.60625
565 4.85038
570 4.04542
575 3.26179
580 2.50722
585 1.98715
590 1.57928
595 1.32512
600 0.977521
Ex : 448
200 0.175346
205 0.18287
210 0.117522
215 0.142684
220 0.112233
225 0.12352
230 0.115154
235 0.122927
240 0.0985332
245 0.12856
250 0.101144
255 0.159869
260 0.116318
265 0.155259
270 0.159793
275 0.140968
280 0.122349
285 0.0835301
290 0.133621
295 0.151211
300 0.103326
305 0.117565
310 0.164361
315 0.133914
320 0.14279
325 0.159222
330 0.102505
335 0.105897
340 0.15164
345 0.150374
350 0.123261
355 0.106011
360 0.156943
365 0.134716
370 0.135115
375 0.198273
380 0.156165
385 0.164273
390 0.174805
395 0.171302
400 0.177944
405 0.147035
410 0.218975
415 0.202332
420 0.293747
425 0.342176
430 0.48052
435 13.7601
440 232.212
445 357.299
450 90.2473
455 14.3844
460 6.84305
465 6.77536
470 8.03172
475 9.1568
480 9.88111
485 10.0724
490 10.6022
495 10.5995
500 10.7354
505 11.4199
510 12.2223
515 11.0841
520 9.95834
525 8.90208
530 8.13416
535 7.35987
540 6.56281
545 5.95514
550 5.36858
555 4.86212
560 4.12705
565 3.72773
570 3.18076
575 2.55976
580 1.8462
585 1.61095
590 1.19451
595 0.963126
600 1.22567
Ex : 453
200 0.0804545
205 0.166243
210 0.111796
215 0.138556
220 0.142513
225 0.140442
230 0.0983394
235 0.13358
240 0.102586
245 0.118714
250 0.13081
255 0.132652
260 0.125118
265 0.138193
270 0.14288
275 0.0970769
280 0.120933
285 0.16996
290 0.133229
295 0.126472
300 0.12032
305 0.111507
310 0.0998943
315 0.0864731
320 0.15999
325 0.0944433
330 0.132783
335 0.116714
340 0.138829
345 0.115708
350 0.0876638
355 0.104598
360 0.154839
365 0.131305
370 0.109517
375 0.159359
380 0.171705
385 0.139905
390 0.166003
395 0.107388
400 0.122157
405 0.154933
410 0.20472
415 0.198431
420 0.221575
425 0.208691
430 0.333773
435 0.729915
440 14.5184
445 252.638
450 365.274
455 87.3796
460 13.7555
465 5.91149
470 5.37796
475 6.33905
480 7.22379
485 7.34514
490 7.45516
495 7.67125
500 7.61674
505 7.63361
510 7.39443
515 8.6147
520 8.08593
525 6.85493
530 6.2925
535 5.71018
540 4.88177
545 4.5429
550 4.06273
555 3.48066
560 3.2534
565 2.63632
570 2.09773
575 1.89779
580 1.54971
585 1.12638
590 0.987777
595 0.694962
600 0.771781
Ex : 458
200 0.180901
205 0.14782
210 0.152657
215 0.136013
220 0.167404
225 0.102917
230 0.0984648
235 0.112513
240 0.117702
245 0.100388
250 0.124691
255 0.13477
260 0.131208
265 0.160047
270 0.162222
275 0.149932
280 0.130188
285 0.134951
290 0.109396
295 0.129521
300 0.132824
305 0.0880318
310 0.0879249
315 0.191999
320 0.166524
325 0.117778
330 0.170569
335 0.163013
340 0.0944385
345 0.128027
350 0.105623
355 0.136512
360 0.151879
365 0.150095
370 0.155959
375 0.120498
380 0.124223
385 0.137496
390 0.153196
395 0.137544
400 0.113238
405 0.137959
410 0.192743
415 0.228965
420 0.199071
425 0.218609
430 0.250815
435 0.421786
440 0.741405
445 16.1006
450 259.787
455 390.326
460 96.4382
465 14.0869
470 4.82795
475 4.01214
480 4.40327
485 5.03437
490 5.03409
495 4.94197
500 5.16933
505 5.07731
510 4.43397
515 4.77157
520 5.50285
525 6.00834
530 4.96236
535 4.24956
540 4.00626
545 3.31693
550 2.8277
555 2.52432
560 2.25609
565 1.82181
570 1.48234
575 1.37791
580 1.09084
585 0.85801
590 0.730721
595 0.53474
600 0.588492
Ex : 463
200 0.129965
205 0.164252
210 0.098699
215 0.13257
220 0.156492
225 0.111563
230 0.131509
235 0.142318
240 0.0917554
245 0.120141
250 0.0924379
255 0.130869
260 0.141174
265 0.140397
270 0.142127
275 0.161372
280 0.147689
285 0.142685
290 0.0787973
295 0.0983386
300 0.101539
305 0.17841
310 0.123827
315 0.107497
320 0.143803
325 0.16174
330 0.128493
335 0.108833
340 0.198895
345 0.163408
350 0.0966158
355 0.174589
360 0.148819
365 0.127891
370 0.127166
375 0.119815
380 0.157784
385 0.114937
390 0.154794
395 0.164242
400 0.216807
405 0.115441
410 0.152498
415 0.214958
420 0.17405
425 0.20569
430 0.255823
435 0.279516
440 0.460255
445 0.70079
450 15.6515
455 267.018
460 411.109
465 100.918
470 13.8924
475 4.14343
480 3.07288
485 3.14474
490 3.5695
495 3.75799
500 3.51902
505 3.08756
510 3.25115
515 3.1404
520 3.23609
525 3.50198
530 4.56214
535 3.9182
540 2.89358
545 2.5399
550 2.36101
555 1.94628
560 1.5895
565 1.5248
570 1.25107
575 0.942032
580 0.824634
585 0.716028
590 0.603278
595 0.471699
600 0.765953
Ex : 468
200 0.101554
205 0.100013
210 0.0917795
215 0.116453
220 0.14242
225 0.124958
230 0.134591
235 0.108393
240 0.140375
245 0.119218
250 0.107345
255 0.177994
260 0.0956452
265 0.0861762
270 0.125833
275 0.147797
280 0.132148
285 0.116727
290 0.15924
295 0.11491
300 0.125546
305 0.110945
310 0.154114
315 0.204961
320 0.148694
325 0.134931
330 0.159758
335 0.194547
340 0.135606
345 0.194256
350 0.0900076
355 0.116144
360 0.14956
365 0.111204
370 0.162515
375 0.167445
380 0.131033
385 0.115413
390 0.126286
395 0.121874
400 0.146705
405 0.143068
410 0.120307
415 0.201392
420 0.195111
425 0.157106
430 0.166447
435 0.201327
440 0.281505
445 0.392795
450 0.703246
455 17.4817
460 268.836
465 424.286
470 102.388
475 13.5375
480 3.47195
485 2.36231
490 2.20373
495 2.66832
500 2.52806
505 2.47271
510 2.25318
515 2.08605
520 2.04227
525 2.09849
530 2.4149
535 3.40659
540 3.33753
545 2.46351
550 1.98688
555 1.79545
560 1.57168
565 1.17168
570 1.03694
575 0.820372
580 0.705609
585 0.559145
590 0.421498
595 0.365782
600 0.59304
Ex : 473
200 0.113738
205 0.123186
210 0.0957993
215 0.0919856
220 0.110955
225 0.133438
230 0.217578
235 0.121857
240 0.0973498
245 0.121705
250 0.127425
255 0.127565
260 0.170676
265 0.203516
270 0.141585
275 0.125803
280 0.166068
285 0.123446
290 0.118734
295 0.148519
300 0.118905
305 0.143233
310 0.128394
315 0.102759
320 0.0999328
325 0.123465
330 0.149542
335 0.164707
340 0.140655
345 0.166664
350 0.127211
355 0.142169
360 0.154159
365 0.12735
370 0.123604
375 0.111416
380 0.175326
385 0.116337
390 0.152371
395 0.178947
400 0.163952
405 0.165376
410 0.147022
415 0.145649
420 0.173246
425 0.189492
430 0.16488
435 0.163069
440 0.23975
445 0.256886
450 0.482514
455 0.640702
460 19.6094
465 291.872
470 401.651
475 92.9085
480 12.1484
485 3.00924
490 1.85156
495 1.92826
500 2.02082
505 2.09809
510 1.70736
515 1.66143
520 1.6091
525 1.64161
530 1.57487
535 1.6899
540 2.56804
545 3.06844
550 2.33084
555 1.65648
560 1.4944
565 1.2473
570 0.992859
575 0.868201
580 0.639676
585 0.515957
590 0.467789
595 0.327462
600 0.390177
Ex : 478
200 0.14162
205 0.14018
210 0.181282
215 0.133007
220 0.132992
225 0.173183
230 0.123523
235 0.121281
240 0.12253
245 0.191214
250 0.154432
255 0.0997885
260 0.13067
265 0.155052
270 0.17928
275 0.124023
280 0.108672
285 0.122196
290 0.154438
295 0.156497
300 0.148385
305 0.156473
310 0.125902
315 0.199133
320 0.130429
325 0.148162
330 0.205578
335 0.142616
340 0.16741
345 0.220233
350 0.174034
355 0.104546
360 0.0984376
365 0.123211
370 0.145867
375 0.144671
380 0.162824
385 0.156856
390 0.178544
395 0.184819
400 0.166726
405 0.175304
410 0.189039
415 0.172835
420 0.237135
425 0.163731
430 0.202066
435 0.187497
440 0.23101
445 0.280389
450 0.292823
455 0.45044
460 0.804319
465 22.0166
470 299.342
475 407.677
480 99.1998
485 12.8042
490 2.8002
495 1.63527
500 1.42482
505 1.57642
510 1.73382
515 1.56774
520 1.48749
525 1.23413
530 1.4146
535 1.40349
540 1.50797
545 1.90038
550 2.66431
555 2.37868
560 1.61011
565 1.35187
570 1.11406
575 0.788776
580 0.609531
585 0.461059
590 0.337671
595 0.353335
600 0.052734
Ex : 483
200 0.142355
205 0.144722
210 0.144368
215 0.207734
220 0.187224
225 0.181775
230 0.157404
235 0.150156
240 0.106481
245 0.100798
250 0.119805
255 0.171964
260 0.129929
265 0.128884
270 0.148876
275 0.11545
280 0.110115
285 0.182209
290 0.109701
295 0.187402
300 0.130894
305 0.149083
310 0.203312
315 0.164464
320 0.157439
325 0.156866
330 0.175395
335 0.124755
340 0.133652
345 0.131127
350 0.135143
355 0.16273
360 0.125493
365 0.170514
370 0.153828
375 0.11345
380 0.126134
385 0.13107
390 0.179105
395 0.141754
400 0.119779
405 0.168388
410 0.17163
415 0.260997
420 0.21473
425 0.214647
430 0.159675
435 0.170925
440 0.179152
445 0.193111
450 0.324796
455 0.264454
460 0.435273
465 0.651544
470 16.2585
475 286.607
480 432.239
485 103.77
490 13.102
495 2.65733
500 1.46132
505 1.18014
510 1.40003
515 1.57388
520 1.41479
525 1.29136
530 1.24667
535 1.28662
540 1.13479
545 0.975981
550 1.28939
555 2.18911
560 2.35341
565 1.45981
570 1.0317
575 0.91767
580 0.641118
585 0.425472
590 0.471638
595 0.465595
600 1.01775
Ex : 488
200 0.135625
205 0.128385
210 0.183597
215 0.124664
220 0.168439
225 0.15869
230 0.195933
235 0.263641
240 0.128015
245 0.106244
250 0.114968
255 0.211545
260 0.169324
265 0.205079
270 0.190941
275 0.168943
280 0.141987
285 0.172404
290 0.138884
295 0.117403
300 0.123199
305 0.112505
310 0.111564
315 0.157062
320 0.14134
325 0.176908
330 0.198805
335 0.205592
340 0.136636
345 0.17211
350 0.177296
355 0.18736
360 0.178666
365 0.11232
370 0.163056
375 0.164504
380 0.14796
385 0.152619
390 0.116877
395 0.184429
400 0.300116
405 0.186992
410 0.207326
415 0.17
420 0.216844
425 0.196304
430 0.186902
435 0.173628
440 0.173256
445 0.21737
450 0.294831
455 0.26678
460 0.342156
465 0.476813
470 0.778293
475 19.9456
480 307.862
485 420.595
490 98.7996
495 12.2702
500 2.39938
505 1.25199
510 1.2564
515 1.35987
520 1.52729
525 1.40089
530 1.37458
535 1.16168
540 1.09213
545 1.07209
550 1.12298
555 1.09762
560 1.59526
565 2.02804
570 1.47348
575 0.908589
580 0.713512
585 0.645806
590 0.487787
595 0.390597
600 0.2362
Ex : 493
200 0.159518
205 0.178825
210 0.111151
215 0.181544
220 0.151702
225 0.215299
230 0.170101
235 0.164067
240 0.128197
245 0.0945318
250 0.12104
255 0.143985
260 0.174395
265 0.213803
270 0.143177
275 0.220145
280 0.166522
285 0.0883154
290 0.166857
295 0.129928
300 0.167673
305 0.140376
310 0.101561
315 0.099593
320 0.129725
325 0.236149
330 0.234012
335 0.194551
340 0.144646
345 0.178812
350 0.180351
355 0.167087
360 0.221417
365 0.124121
370 0.158427
375 0.13671
380 0.221031
385 0.130968
390 0.174938
395 0.159018
400 0.112223
405 0.173041
410 0.188797
415 0.211556
420 0.148261
425 0.194426
430 0.179586
435 0.194529
440 0.208105
445 0.223121
450 0.22936
455 0.247404
460 0.233938
465 0.40996
470 0.540013
475 0.584761
480 18.3576
485 303.741
490 450.569
495 104.377
500 12.8689
505 2.51115
510 1.37611
515 1.1084
520 1.15086
525 1.39998
530 1.31093
535 1.13866
540 1.01774
545 1.00474
550 1.02327
555 1.00017
560 0.811875
565 1.18222
570 1.72206
575 1.46018
580 0.781585
585 0.814586
590 0.532994
595 0.429285
600 0.048851
Ex : 498
200 0.147947
205 0.187432
210 0.173893
215 0.266163
220 0.160805
225 0.126429
230 0.219194
235 0.178384
240 0.170202
245 0.170016
250 0.145373
255 0.284427
260 0.133167
265 0.11355
270 0.242725
275 0.192569
280 0.136345
285 0.154274
290 0.16952
295 0.104979
300 0.136055
305 0.111501
310 0.170451
315 0.130297
320 0.181554
325 0.22409
330 0.145928
335 0.200762
340 0.216706
345 0.160992
350 0.170081
355 0.218364
360 0.209414
365 0.248339
370 0.172204
375 0.146354
380 0.263153
385 0.145732
390 0.166571
395 0.151739
400 0.192165
405 0.168064
410 0.187291
415 0.248893
420 0.2274
425 0.174341
430 0.180934
435 0.268778
440 0.263379
445 0.241764
450 0.223027
455 0.253475
460 0.276263
465 0.256967
470 0.337025
475 0.384274
480 0.625838
485 22.661
490 319.393
495 429.814
500 100.419
505 12.5535
510 2.54151
515 1.30859
520 1.08679
525 1.18018
530 1.24175
535 1.3756
540 1.0937
545 1.02564
550 0.906498
555 0.95198
560 0.851338
565 0.87055
570 1.02907
575 1.37291
580 1.4387
585 0.848413
590 0.548096
595 0.567692
600 0.358745
Ex : 503
200 0.184575
205 0.151755
210 0.207302
215 0.194545
220 0.20303
225 0.172989
230 0.147209
235 0.261222
240 0.171773
245 0.162732
250 0.158615
255 0.198213
260 0.199448
265 0.165758
270 0.210815
275 0.181109
280 0.189957
285 0.224747
290 0.15266
295 0.161766
300 0.163884
305 0.17139
310 0.143888
315 0.11313
320 0.168302
325 0.240291
330 0.159305
335 0.165909
340 0.193463
345 0.152957
350 0.162063
355 0.19481
360 0.159997
365 0.168226
370 0.115077
375 0.258329
380 0.155582
385 0.124618
390 0.165607
395 0.22113
400 0.186608
405 0.163434
410 0.249542
415 0.286724
420 0.192294
425 0.159528
430 0.201435
435 0.155911
440 0.273445
445 0.277974
450 0.209838
455 0.224625
460 0.321286
465 0.27283
470 0.310769
475 0.321758
480 0.526204
485 0.649647
490 19.4586
495 315.659
500 446.754
505 102.933
510 12.8696
515 2.45573
520 1.32844
525 0.957205
530 1.09094
535 1.15109
540 1.26657
545 1.23738
550 0.948855
555 0.872299
560 0.720283
565 0.753717
570 0.607885
575 0.641
580 0.856363
585 1.0106
590 0.808351
595 0.648364
600 0.676724
Ex : 508
200 0.14723
205 0.120849
210 0.182491
215 0.155952
220 0.253499
225 0.118315
230 0.12136
235 0.164055
240 0.193267
245 0.192528
250 0.236552
255 0.155382
260 0.171317
265 0.176814
270 0.158856
275 0.168297
280 0.16513
285 0.298698
290 0.199338
295 0.149786
300 0.157846
305 0.204933
310 0.179462
315 0.222301
320 0.158474
325 0.17586
330 0.218857
335 0.194617
340 0.192644
345 0.185289
350 0.17699
355 0.186856
360 0.265248
365 0.264021
370 0.153087
375 0.19665
380 0.160876
385 0.194927
390 0.160551
395 0.240448
400 0.25059
405 0.230223
410 0.212085
415 0.204427
420 0.189959
425 0.177417
430 0.21584
435 0.25314
440 0.25363
445 0.20955
450 0.267577
455 0.33317
460 0.282893
465 0.294923
470 0.311292
475 0.311972
480 0.354936
485 0.37717
490 0.676437
495 20.9143
500 315.513
505 443.745
510 109.123
515 13.6467
520 2.53292
525 1.16309
530 1.07775
535 1.02848
540 0.974783
545 1.12805
550 0.983362
555 0.999709
560 0.736309
565 0.705398
570 0.660424
575 0.62727
580 0.536766
585 0.580236
590 0.764402
595 0.61891
600 0.0704296
Ex : 513
200 0.119787
205 0.158133
210 0.188212
215 0.185774
220 0.173689
225 0.152628
230 0.185897
235 0.241338
240 0.236621
245 0.243031
250 0.15239
255 0.241888
260 0.3123
265 0.188547
270 0.152987
275 0.149224
280 0.293
285 0.183695
290 0.22733
295 0.219507
300 0.163019
305 0.333203
310 0.145021
315 0.163168
320 0.18221
325 0.241566
330 0.180573
335 0.23189
340 0.209256
345 0.185859
350 0.234535
355 0.204698
360 0.173934
365 0.136181
370 0.189047
375 0.230007
380 0.156051
385 0.23433
390 0.156511
395 0.189853
400 0.237406
405 0.141836
410 0.203981
415 0.188934
420 0.190914
425 0.147883
430 0.222372
435 0.2376
440 0.278398
445 0.266191
450 0.259359
455 0.25336
460 0.240669
465 0.283863
470 0.33374
475 0.320065
480 0.368362
485 0.440597
490 0.490543
495 0.630528
500 19.4453
505 312.678
510 451.524
515 109.859
520 13.6952
525 2.61197
530 1.3262
535 1.14001
540 0.888132
545 0.978165
550 1.12385
555 0.894894
560 0.765919
565 0.585998
570 0.527201
575 0.413628
580 0.451076
585 0.366354
590 0.416491
595 0.582325
600 0.9957
Ex : 518
200 0.189845
205 0.24464
210 0.173653
215 0.166591
220 0.251226
225 0.168527
230 0.143617
235 0.208303
240 0.280585
245 0.229564
250 0.181699
255 0.212599
260 0.176303
265 0.156221
270 0.157199
275 0.20189
280 0.197344
285 0.172896
290 0.165881
295 0.207166
300 0.191324
305 0.229272
310 0.171502
315 0.168848
320 0.120446
325 0.167857
330 0.235495
335 0.220437
340 0.224787
345 0.13605
350 0.161762
355 0.180564
360 0.177998
365 0.172039
370 0.248464
375 0.267154
380 0.203127
385 0.196403
390 0.178456
395 0.219262
400 0.224767
405 0.172535
410 0.29691
415 0.213612
420 0.223019
425 0.252651
430 0.231953
435 0.263739
440 0.229948
445 0.21259
450 0.188678
455 0.180896
460 0.390644
465 0.274948
470 0.244088
475 0.202522
480 0.303828
485 0.377908
490 0.419556
495 0.400346
500 0.545274
505 19.3788
510 301.169
515 433.916
520 107.025
525 13.2797
530 2.47843
535 1.28745
540 1.05856
545 0.821184
550 0.833157
555 0.827287
560 0.859663
565 0.747503
570 0.711804
575 0.51842
580 0.525311
585 0.31771
590 0.395297
595 0.364149
600 0.0414388
Ex : 523
200 0.185998
205 0.182455
210 0.261211
215 0.244214
220 0.178715
225 0.202643
230 0.193005
235 0.176157
240 0.250177
245 0.226489
250 0.184333
255 0.196674
260 0.238303
265 0.15739
270 0.147647
275 0.241808
280 0.19062
285 0.17082
290 0.187953
295 0.225423
300 0.16719
305 0.174781
310 0.19867
315 0.181797
320 0.172915
325 0.180388
330 0.182551
335 0.165386
340 0.233117
345 0.143646
350 0.231044
355 0.216476
360 0.215214
365 0.228932
370 0.170593
375 0.217216
380 0.18099
385 0.194462
390 0.218244
395 0.225504
400 0.194306
405 0.324196
410 0.253267
415 0.200725
420 0.184307
425 0.259191
430 0.222206
435 0.322219
440 0.258494
445 0.288217
450 0.198148
455 0.166073
460 0.278134
465 0.274509
470 0.228307
475 0.230531
480 0.234168
485 0.383885
490 0.36607
495 0.375733
500 0.541664
505 0.626415
510 17.507
515 280.437
520 425.656
525 109.595
530 13.6025
535 2.46041
540 1.17154
545 0.859594
550 0.811171
555 0.778558
560 0.809145
565 0.774844
570 0.712488
575 0.594456
580 0.465838
585 0.405005
590 0.396754
595 0.290583
600 0.442084
Ex : 528
200 0.23501
205 0.277202
210 0.188435
215 0.211409
220 0.182223
225 0.24005
230 0.232618
235 0.181999
240 0.240289
245 0.226341
250 0.207966
255 0.196901
260 0.185607
265 0.181787
270 0.195146
275 0.231399
280 0.209955
285 0.213655
290 0.185752
295 0.212998
300 0.266425
305 0.284333
310 0.201054
315 0.189255
320 0.170649
325 0.207433
330 0.231989
335 0.193903
340 0.297833
345 0.255838
350 0.164763
355 0.226826
360 0.179292
365 0.248611
370 0.227757
375 0.220937
380 0.164363
385 0.134602
390 0.323006
395 0.255389
400 0.189052
405 0.183573
410 0.31986
415 0.298155
420 0.244697
425 0.223477
430 0.260474
435 0.187168
440 0.296903
445 0.202286
450 0.174885
455 0.286
460 0.213492
465 0.22604
470 0.188557
475 0.306316
480 0.300673
485 0.265419
490 0.256466
495 0.287204
500 0.529533
505 0.488421
510 0.5917
515 16.6321
520 281.679
525 435.705
530 114.074
535 14.0234
540 2.42915
545 1.04586
550 0.906325
555 0.72298
560 0.886542
565 0.782641
570 0.799788
575 0.72347
580 0.630565
585 0.459548
590 0.340597
595 0.413691
600 0.215877
Ex : 533
200 0.226827
205 0.261836
210 0.194267
215 0.193592
220 0.190059
225 0.240552
230 0.203113
235 0.28936
240 0.221095
245 0.18139
250 0.135236
255 0.162618
260 0.248813
265 0.196458
270 0.249209
275 0.190656
280 0.148915
285 0.188992
290 0.251627
295 0.181477
300 0.316444
305 0.294481
310 0.158461
315 0.185919
320 0.142889
325 0.215647
330 0.179748
335 0.271097
340 0.163792
345 0.151816
350 0.192834
355 0.217387
360 0.272192
365 0.311635
370 0.155387
375 0.188084
380 0.31178
385 0.217552
390 0.224196
395 0.190012
400 0.162223
405 0.22539
410 0.222022
415 0.26547
420 0.160131
425 0.178191
430 0.159394
435 0.213204
440 0.315109
445 0.299327
450 0.287397
455 0.223931
460 0.207022
465 0.21608
470 0.314444
475 0.305812
480 0.319785
485 0.360202
490 0.212472
495 0.264093
500 0.304365
505 0.406103
510 0.517461
515 0.642129
520 16.5778
525 276.397
530 422.437
535 109.203
540 13.349
545 2.28937
550 0.988853
555 0.688531
560 0.715795
565 0.586774
570 0.656088
575 0.502823
580 0.567766
585 0.425824
590 0.348988
595 0.333044
600 0.062516
Ex : 538
200 0.253527
205 0.170619
210 0.204602
215 0.227025
220 0.209659
225 0.189449
230 0.188573
235 0.232896
240 0.202682
245 0.19516
250 0.20727
255 0.194769
260 0.223392
265 0.173865
270 0.214091
275 0.169632
280 0.305818
285 0.202843
290 0.254177
295 0.282919
300 0.234456
305 0.138509
310 0.319125
315 0.254407
320 0.255371
325 0.137627
330 0.166735
335 0.276298
340 0.231361
345 0.277118
350 0.212779
355 0.189894
360 0.20006
365 0.274412
370 0.227182
375 0.212517
380 0.275389
385 0.203041
390 0.216849
395 0.242875
400 0.326127
405 0.235794
410 0.270692
415 0.245419
420 0.148327
425 0.177501
430 0.173321
435 0.221034
440 0.213962
445 0.185949
450 0.264951
455 0.25041
460 0.249261
465 0.329273
470 0.337605
475 0.214505
480 0.245991
485 0.306027
490 0.322756
495 0.275759
500 0.311412
505 0.397259
510 0.379268
515 0.510725
520 0.588538
525 13.081
530 257.47
535 418.047
540 115.928
545 14.3008
550 2.32613
555 1.00063
560 0.686704
565 0.607129
570 0.578971
575 0.57638
580 0.503457
585 0.516711
590 0.466049
595 0.276823
600 0.675325
Ex : 543
200 0.259023
205 0.195879
210 0.237904
215 0.284676
220 0.22907
225 0.208677
230 0.24655
235 0.176005
240 0.289673
245 0.238382
250 0.178917
255 0.177282
260 0.189176
265 0.185767
270 0.201512
275 0.14564
280 0.292155
285 0.212538
290 0.253929
295 0.161513
300 0.191007
305 0.185669
310 0.297001
315 0.181683
320 0.213382
325 0.216779
330 0.220313
335 0.177788
340 0.227441
345 0.240182
350 0.264726
355 0.287666
360 0.249106
365 0.301397
370 0.243731
375 0.303644
380 0.248405
385 0.180379
390 0.195776
395 0.196308
400 0.210288
405 0.274777
410 0.19747
415 0.256379
420 0.283084
425 0.177786
430 0.18053
435 0.197438
440 0.22348
445 0.212736
450 0.284893
455 0.307253
460 0.282633
465 0.315367
470 0.37901
475 0.281685
480 0.286374
485 0.281675
490 0.304722
495 0.364447
500 0.296269
505 0.310661
510 0.259252
515 0.295511
520 0.329153
525 0.711556
530 12.5611
535 246.169
540 407.92
545 114.372
550 13.9882
555 2.20674
560 0.795846
565 0.690588
570 0.485971
575 0.506229
580 0.591466
585 0.44475
590 0.437552
595 0.390429
600 0.0444293
Ex : 548
200 0.262082
205 0.242513
210 0.263352
215 0.219477
220 0.236572
225 0.299952
230 0.350093
235 0.282857
240 0.174989
245 0.180024
250 0.199129
255 0.151239
260 0.235992
265 0.176936
270 0.187925
275 0.19629
280 0.268038
285 0.250524
290 0.204169
295 0.245933
300 0.219078
305 0.253243
310 0.245147
315 0.211797
320 0.249252
325 0.299251
330 0.273194
335 0.161626
340 0.300366
345 0.229887
350 0.369071
355 0.204288
360 0.260204
365 0.182157
370 0.237305
375 0.253239
380 0.221543
385 0.191247
390 0.231701
395 0.257117
400 0.213169
405 0.270862
410 0.236178
415 0.230955
420 0.230007
425 0.302755
430 0.238734
435 0.200646
440 0.325637
445 0.256738
450 0.293286
455 0.260895
460 0.2465
465 0.249316
470 0.272023
475 0.293972
480 0.269139
485 0.381464
490 0.27923
495 0.209574
500 0.175643
505 0.275875
510 0.282593
515 0.35757
520 0.368782
525 0.568601
530 0.650631
535 14.4786
540 253.638
545 410.2
550 117.284
555 14.336
560 2.30531
565 0.882045
570 0.625752
575 0.46754
580 0.382136
585 0.49724
590 0.444219
595 0.445408
600 0.0931386
Ex : 553
200 0.222731
205 0.21535
210 0.198102
215 0.279706
220 0.252921
225 0.228408
230 0.218795
235 0.198964
240 0.265679
245 0.29168
250 0.180937
255 0.168532
260 0.275268
265 0.193747
270 0.171627
275 0.221369
280 0.169294
285 0.173747
290 0.146335
295 0.277785
300 0.303253
305 0.241854
310 0.268617
315 0.268282
320 0.243742
325 0.222524
330 0.234827
335 0.268856
340 0.256341
345 0.177284
350 0.194542
355 0.208514
360 0.316908
365 0.221694
370 0.226376
375 0.210512
380 0.278526
385 0.259696
390 0.20159
395 0.188244
400 0.166241
405 0.217629
410 0.232183
415 0.309797
420 0.286868
425 0.204569
430 0.189855
435 0.272748
440 0.338448
445 0.243464
450 0.237858
455 0.205801
460 0.236772
465 0.194547
470 0.268908
475 0.29502
480 0.32989
485 0.340286
490 0.33312
495 0.253924
500 0.266968
505 0.296556
510 0.317577
515 0.324351
520 0.41337
525 0.352971
530 0.564019
535 0.524146
540 11.4232
545 235.767
550 397.635
555 112.717
560 13.767
565 2.10481
570 0.763174
575 0.580216
580 0.581066
585 0.467354
590 0.482913
595 0.348422
600 0.142949
Ex : 558
200 0.266576
205 0.193374
210 0.272507
215 0.185238
220 0.142806
225 0.245872
230 0.336059
235 0.207075
240 0.262105
245 0.240227
250 0.240166
255 0.184623
260 0.207557
265 0.213423
270 0.367189
275 0.240574
280 0.297336
285 0.251653
290 0.196617
295 0.330536
300 0.216551
305 0.259758
310 0.249964
315 0.203931
320 0.203934
325 0.164065
330 0.210873
335 0.267906
340 0.222306
345 0.259356
350 0.235743
355 0.256853
360 0.263015
365 0.259297
370 0.271716
375 0.202474
380 0.321594
385 0.232063
390 0.243847
395 0.229901
400 0.258974
405 0.276007
410 0.336885
415 0.244055
420 0.272625
425 0.291504
430 0.244166
435 0.175621
440 0.234483
445 0.252607
450 0.338119
455 0.275134
460 0.328513
465 0.362558
470 0.2555
475 0.217234
480 0.230347
485 0.273651
490 0.281507
495 0.378833
500 0.35936
505 0.216402
510 0.264842
515 0.338494
520 0.348616
525 0.331376
530 0.44157
535 0.367049
540 0.5386
545 11.8946
550 221.044
555 389.727
560 113.786
565 13.9537
570 2.05844
575 0.76057
580 0.543272
585 0.418539
590 0.41891
595 0.404976
600 0.0460847
Ex : 563
200 0.26433
205 0.232489
210 0.219443
215 0.236316
220 0.259692
225 0.281224
230 0.311315
235 0.328234
240 0.333496
245 0.311339
250 0.285905
255 0.346809
260 0.254768
265 0.231982
270 0.300919
275 0.23948
280 0.293364
285 0.218592
290 0.297264
295 0.232286
300 0.284654
305 0.303362
310 0.29309
315 0.321741
320 0.222344
325 0.289355
330 0.364518
335 0.220831
340 0.30584
345 0.238451
350 0.263521
355 0.323117
360 0.199337
365 0.248426
370 0.23354
375 0.31979
380 0.259407
385 0.261813
390 0.214001
395 0.255439
400 0.268963
405 0.313471
410 0.350365
415 0.305035
420 0.268194
425 0.295962
430 0.230567
435 0.247823
440 0.314024
445 0.31561
450 0.275885
455 0.348783
460 0.367955
465 0.235768
470 0.269866
475 0.19308
480 0.287526
485 0.232521
490 0.315918
495 0.34186
500 0.215364
505 0.289267
510 0.245885
515 0.267327
520 0.319221
525 0.371816
530 0.275864
535 0.399372
540 0.351803
545 0.53723
550 11.2935
555 218.814
560 375.563
565 110.722
570 13.4819
575 2.05079
580 0.64713
585 0.448557
590 0.446373
595 0.482764
600 0.193949
Ex : 568
200 0.181644
205 0.291211
210 0.28673
215 0.164068
220 0.180772
225 0.307816
230 0.273297
235 0.236924
240 0.275717
245 0.225947
250 0.230487
255 0.221162
260 0.241556
265 0.293234
270 0.175441
275 0.174024
280 0.316214
285 0.307537
290 0.300498
295 0.24493
300 0.321497
305 0.190645
310 0.243855
315 0.258015
320 0.248962
325 0.305108
330 0.175668
335 0.251897
340 0.25791
345 0.199995
350 0.275141
355 0.273356
360 0.241602
365 0.179517
370 0.19583
375 0.345488
380 0.273958
385 0.287493
390 0.221141
395 0.196795
400 0.249243
405 0.227389
410 0.241685
415 0.326828
420 0.312489
425 0.267219
430 0.210527
435 0.266863
440 0.345658
445 0.329249
450 0.330612
455 0.301549
460 0.268591
465 0.182354
470 0.255884
475 0.200168
480 0.269914
485 0.233675
490 0.275403
495 0.331794
500 0.270749
505 0.320268
510 0.279652
515 0.300731
520 0.204122
525 0.355698
530 0.324161
535 0.384213
540 0.464593
545 0.412687
550 0.553487
555 8.57131
560 195.58
565 365.477
570 111.037
575 13.624
580 2.01717
585 0.594546
590 0.449058
595 0.506434
600 0.322889
Ex : 573
200 0.23953
205 0.247434
210 0.328078
215 0.253769
220 0.264704
225 0.313242
230 0.210359
235 0.167631
240 0.196346
245 0.244117
250 0.264071
255 0.268042
260 0.252868
265 0.277905
270 0.270377
275 0.301828
280 0.245951
285 0.322652
290 0.213194
295 0.22157
300 0.2785
305 0.366711
310 0.212348
315 0.207013
320 0.278719
325 0.262316
330 0.265121
335 0.186768
340 0.321484
345 0.222212
350 0.26329
355 0.36323
360 0.278512
365 0.301813
370 0.229655
375 0.23926
380 0.214888
385 0.209859
390 0.298513
395 0.330897
400 0.222089
405 0.33969
410 0.229569
415 0.293939
420 0.345393
425 0.267025
430 0.308057
435 0.330113
440 0.316163
445 0.208684
450 0.229095
455 0.334638
460 0.25978
465 0.242304
470 0.31637
475 0.220031
480 0.297774
485 0.49729
490 0.205922
495 0.309053
500 0.267844
505 0.236574
510 0.306541
515 0.332689
520 0.373975
525 0.417132
530 0.25949
535 0.299333
540 0.355312
545 0.381371
550 0.399414
555 0.512287
560 7.50211
565 170.942
570 341.779
575 107.375
580 13.1262
585 1.80454
590 0.559535
595 0.50885
600 0.790254
Ex : 578
200 0.232045
205 0.310095
210 0.315438
215 0.317025
220 0.239019
225 0.245021
230 0.203864
235 0.274031
240 0.275269
245 0.232934
250 0.19906
255 0.266779
260 0.301456
265 0.205187
270 0.32368
275 0.259901
280 0.288115
285 0.213392
290 0.276567
295 0.453212
300 0.236626
305 0.28283
310 0.26236
315 0.190232
320 0.266474
325 0.237791
330 0.287609
335 0.273826
340 0.321426
345 0.275627
350 0.258433
355 0.222951
360 0.30976
365 0.189728
370 0.199625
375 0.304864
380 0.300645
385 0.193056
390 0.273673
395 0.201672
400 0.222509
405 0.260573
410 0.37712
415 0.277275
420 0.210676
425 0.194544
430 0.205316
435 0.252259
440 0.413668
445 0.30462
450 0.320517
455 0.334158
460 0.324784
465 0.218489
470 0.353087
475 0.254028
480 0.252355
485 0.285018
490 0.311977
495 0.33065
500 0.265333
505 0.233789
510 0.276524
515 0.307912
520 0.298751
525 0.318136
530 0.389944
535 0.363249
540 0.353641
545 0.264029
550 0.434736
555 0.405109
560 0.595166
565 6.99472
570 157.321
575 305.501
580 96.0803
585 11.7554
590 1.85273
595 0.588825
600 0.067006
Ex : 583
200 0.261541
205 0.224746
210 0.345798
215 0.355428
220 0.322556
225 0.217272
230 0.179901
235 0.302624
240 0.238587
245 0.217619
250 0.266271
255 0.31928
260 0.242168
265 0.263058
270 0.29506
275 0.167746
280 0.14629
285 0.254267
290 0.24535
295 0.22534
300 0.209406
305 0.215412
310 0.303375
315 0.295217
320 0.296623
325 0.354443
330 0.375633
335 0.288583
340 0.262654
345 0.302208
350 0.329583
355 0.377544
360 0.272232
365 0.238974
370 0.231631
375 0.246238
380 0.261274
385 0.306397
390 0.341846
395 0.262091
400 0.190327
405 0.248766
410 0.312931
415 0.239648
420 0.250463
425 0.295626
430 0.22628
435 0.219146
440 0.312049
445 0.398234
450 0.191925
455 0.294399
460 0.366532
465 0.289034
470 0.294638
475 0.463818
480 0.310202
485 0.222475
490 0.294597
495 0.259632
500 0.314116
505 0.328903
510 0.351145
515 0.396444
520 0.302414
525 0.257565
530 0.205828
535 0.210213
540 0.327277
545 0.374718
550 0.48316
555 0.429236
560 0.378523
565 0.696965
570 5.32737
575 138.439
580 265.898
585 79.0524
590 9.59731
595 1.51235
600 0.414986
Ex : 588
200 0.23831
205 0.233273
210 0.239067
215 0.290456
220 0.233947
225 0.207781
230 0.291544
235 0.254687
240 0.323361
245 0.24835
250 0.191076
255 0.24576
260 0.250455
265 0.274524
270 0.187733
275 0.171526
280 0.249652
285 0.350297
290 0.32886
295 0.270549
300 0.174614
305 0.251595
310 0.222087
315 0.26664
320 0.253066
325 0.361185
330 0.206989
335 0.253786
340 0.376522
345 0.314193
350 0.264159
355 0.27604
360 0.26947
365 0.294578
370 0.276157
375 0.258315
380 0.258731
385 0.221851
390 0.259261
395 0.280358
400 0.20658
405 0.339129
410 0.290965
415 0.27148
420 0.195335
425 0.158617
430 0.304017
435 0.318652
440 0.478238
445 0.364075
450 0.25421
455 0.257012
460 0.249869
465 0.188054
470 0.281792
475 0.221701
480 0.303819
485 0.21532
490 0.236674
495 0.376346
500 0.310771
505 0.2253
510 0.301339
515 0.350919
520 0.232215
525 0.317463
530 0.292985
535 0.292588
540 0.270967
545 0.284704
550 0.327422
555 0.400564
560 0.369123
565 0.455437
570 0.467492
575 5.12133
580 113.114
585 224.833
590 68.3775
595 8.24363
600 2.12657
Ex : 593
200 0.176082
205 0.221088
210 0.35147
215 0.253896
220 0.23778
225 0.186038
230 0.273207
235 0.323635
240 0.26276
245 0.277672
250 0.317639
255 0.360359
260 0.342371
265 0.347845
270 0.372903
275 0.336655
280 0.343799
285 0.244527
290 0.207733
295 0.243464
300 0.299673
305 0.307995
310 0.255123
315 0.418887
320 0.309251
325 0.278599
330 0.310365
335 0.332868
340 0.222709
345 0.291963
350 0.263319
355 0.28391
360 0.257118
365 0.278493
370 0.460751
375 0.30266
380 0.257556
385 0.169984
390 0.176311
395 0.335124
400 0.381842
405 0.293883
410 0.291968
415 0.178814
420 0.313772
425 0.338135
430 0.323281
435 0.381273
440 0.414688
445 0.300174
450 0.223072
455 0.274882
460 0.334837
465 0.275609
470 0.388586
475 0.405966
480 0.25679
485 0.2595
490 0.225844
495 0.289226
500 0.272181
505 0.32497
510 0.31456
515 0.309136
520 0.164417
525 0.337003
530 0.303295
535 0.248594
540 0.279563
545 0.402503
550 0.3384
555 0.319072
560 0.46558
565 0.375867
570 0.423804
575 0.459318
580 4.27134
585 102.092
590 191.877
595 57.4455
600 7.74489
Ex : 598
200 0.371193
205 0.261268
210 0.326663
215 0.326921
220 0.268132
225 0.255194
230 0.267585
235 0.342484
240 0.386632
245 0.279152
250 0.35588
255 0.253293
260 0.344638
265 0.213953
270 0.277548
275 0.242509
280 0.256647
285 0.26151
290 0.267751
295 0.438454
300 0.389627
305 0.372516
310 0.304785
315 0.333644
320 0.357376
325 0.318623
330 0.299464
335 0.344355
340 0.435346
345 0.185716
350 0.304662
355 0.318757
360 0.275945
365 0.295245
370 0.316168
375 0.242913
380 0.376699
385 0.277149
390 0.349889
395 0.333919
400 0.367357
405 0.292426
410 0.322161
415 0.37555
420 0.37504
425 0.26145
430 0.320011
435 0.404531
440 0.277233
445 0.42157
450 0.259726
455 0.358717
460 0.325021
465 0.338391
470 0.391646
475 0.252277
480 0.358593
485 0.300553
490 0.35564
495 0.269083
500 0.233959
505 0.38735
510 0.322661
515 0.333943
520 0.332933
525 0.355943
530 0.301457
535 0.455432
540 0.342745
545 0.275019
550 0.337765
555 0.248881
560 0.403186
565 0.303384
570 0.304999
575 0.464907
580 0.443216
585 4.15363
590 93.1236
595 171.952
600 102.092
Ex : 603
200 0.271393
205 0.28903
210 0.34849
215 0.366018
220 0.21915
225 0.212076
230 0.41071
235 0.316675
240 0.251634
245 0.382085
250 0.256624
255 0.360206
260 0.325651
265 0.261325
270 0.33755
275 0.307701
280 0.290278
285 0.233197
290 0.210833
295 0.330507
300 0.300952
305 0.27008
310 0.235527
315 0.339785
320 0.272689
325 0.361602
330 0.272533
335 0.267444
340 0.291548
345 0.233827
350 0.296339
355 0.210852
360 0.239424
365 0.271621
370 0.280728
375 0.348381
380 0.250628
385 0.348701
390 0.406741
395 0.229417
400 0.289305
405 0.318764
410 0.296846
415 0.315829
420 0.236193
425 0.255682
430 0.29228
435 0.412326
440 0.319133
445 0.300629
450 0.306846
455 0.222167
460 0.362796
465 0.241029
470 0.193189
475 0.266492
480 0.28714
485 0.256211
490 0.303936
495 0.358297
500 0.348242
505 0.342311
510 0.332016
515 0.36424
520 0.211527
525 0.40961
530 0.290661
535 0.277749
540 0.394597
545 0.303985
550 0.28589
555 0.362395
560 0.306365
565 0.272544
570 0.410134
575 0.572682
580 0.4672
585 0.448588
590 3.57129
595 77.6695
600 156.94
