File format V 1.0
ven. 13. janv. 12:25:50 2017
Operator : 
Comments : 

=============================================
SpectroFluorometer parameters
Mode : 3D measurement
Data : Fluorescence
Phospho. : Ordinary
Spectrum : Fluorescence

Scan speed : 2400 nm/mn
Response : 100 ms
PM Voltage : 700 V
Shutter : On

Lambda Ex. Start : 203
Lambda Ex. End : 603
Lambda Ex. Step : 5
Ex. Slit : 5 nm

Lambda Em. Start : 200
Lambda Em. End : 600
Lambda Em. Step : 5
Em. Slit : 5 nm

Repetition : 1
Decal lambda em : 10
=============================================
DATA
Ex : 203
200 4.48571
205 5.0517
210 4.89846
215 5.78734
220 4.04529
225 5.06275
230 5.62662
235 6.10313
240 6.71561
245 5.41045
250 5.95507
255 3.91864
260 4.58154
265 4.2636
270 3.99702
275 5.46233
280 5.96937
285 3.73471
290 4.86034
295 2.62382
300 5.4814
305 5.29453
310 4.32626
315 5.29469
320 5.38975
325 5.16917
330 6.59563
335 5.69574
340 7.04387
345 9.35884
350 5.5838
355 6.01748
360 5.4676
365 7.7256
370 6.94287
375 9.75966
380 7.44937
385 5.6521
390 7.46077
395 6.01582
400 5.11996
405 4.01777
410 5.9582
415 8.96192
420 4.3297
425 5.39465
430 3.95068
435 5.99323
440 6.28392
445 5.10202
450 7.56728
455 5.35699
460 5.67971
465 7.15372
470 5.35316
475 4.10666
480 4.08367
485 5.13205
490 6.69753
495 7.03509
500 6.51637
505 6.33493
510 6.23077
515 5.78782
520 3.88967
525 4.00363
530 5.92123
535 5.81213
540 7.1955
545 4.56388
550 4.90021
555 5.63938
560 7.72689
565 4.49796
570 4.56067
575 5.05295
580 3.69444
585 4.7364
590 3.99096
595 3.13058
600 0.356248
Ex : 208
200 4.09767
205 5.29068
210 6.41963
215 5.77055
220 3.7882
225 5.80985
230 3.63203
235 5.25672
240 4.40748
245 5.88119
250 8.81287
255 4.12033
260 6.53281
265 3.73435
270 4.46904
275 3.94787
280 4.31088
285 5.88092
290 5.22012
295 6.14244
300 4.30492
305 5.4833
310 4.89152
315 6.03499
320 4.60386
325 3.55745
330 6.31285
335 5.62594
340 4.78011
345 7.2633
350 5.08617
355 4.16425
360 4.561
365 5.1104
370 6.01455
375 4.79994
380 4.25983
385 4.80098
390 6.20771
395 4.98759
400 5.87189
405 6.67268
410 4.25177
415 5.75804
420 5.50278
425 7.13202
430 4.66744
435 7.04046
440 7.56659
445 5.32665
450 5.11851
455 6.13355
460 3.47254
465 4.4155
470 4.52713
475 4.65616
480 5.00707
485 4.36372
490 6.09773
495 6.4917
500 6.29841
505 4.9513
510 4.89503
515 7.34698
520 5.17261
525 5.81888
530 5.76984
535 5.73572
540 5.04443
545 5.26234
550 3.30934
555 5.48832
560 5.03836
565 5.28182
570 6.94556
575 5.14789
580 6.07856
585 4.42425
590 4.50594
595 5.01974
600 5.35673
Ex : 213
200 3.71111
205 4.37074
210 6.04781
215 5.51592
220 3.75272
225 3.01181
230 4.98558
235 2.7894
240 5.1092
245 4.22069
250 5.0526
255 5.48479
260 5.03355
265 3.81051
270 6.23739
275 4.37506
280 6.62271
285 5.23366
290 6.52632
295 5.87929
300 5.4732
305 3.65137
310 6.95413
315 2.9715
320 5.34077
325 6.12816
330 3.97794
335 4.44263
340 5.44839
345 5.16389
350 7.56537
355 5.08806
360 4.84236
365 8.86331
370 5.94415
375 6.19945
380 6.31957
385 4.06371
390 3.52195
395 5.75009
400 4.56805
405 4.35868
410 5.3237
415 5.65888
420 6.27676
425 6.73463
430 4.33199
435 4.69919
440 6.74254
445 6.4769
450 5.2455
455 6.97503
460 5.3285
465 6.42393
470 7.38385
475 6.23026
480 5.93467
485 6.27633
490 3.95259
495 5.72693
500 7.7852
505 7.72412
510 5.09385
515 8.36526
520 8.57917
525 4.19615
530 5.67969
535 8.35058
540 5.66848
545 6.00658
550 4.91198
555 4.17098
560 3.63379
565 6.69907
570 5.34766
575 5.31855
580 5.72833
585 5.145
590 4.25453
595 4.14512
600 0.471699
Ex : 218
200 6.96262
205 4.4474
210 3.78788
215 5.74401
220 3.23321
225 4.32493
230 6.88753
235 7.4198
240 5.95804
245 4.4142
250 3.81435
255 4.83836
260 6.53139
265 5.15627
270 4.47436
275 4.90238
280 4.24629
285 11.1712
290 5.01255
295 5.46991
300 4.20907
305 4.94929
310 5.05723
315 4.52771
320 5.53846
325 5.14184
330 3.95841
335 3.84977
340 4.7682
345 4.31112
350 5.21568
355 4.50724
360 3.97389
365 4.23911
370 9.67941
375 5.15914
380 3.62783
385 3.49208
390 5.39659
395 4.0105
400 5.86351
405 6.69343
410 6.02352
415 8.23949
420 5.04929
425 5.16123
430 5.0061
435 5.07054
440 6.21225
445 3.56751
450 4.66224
455 7.12643
460 6.11978
465 6.5235
470 4.37413
475 4.28198
480 5.43959
485 5.40919
490 6.50944
495 6.99016
500 4.52749
505 5.47363
510 4.78886
515 6.97614
520 8.88729
525 7.37394
530 5.75273
535 5.73554
540 4.86418
545 6.01435
550 5.53565
555 5.68868
560 6.20626
565 5.15423
570 3.74718
575 6.93827
580 6.51383
585 5.1925
590 6.03582
595 4.40375
600 7.41352
Ex : 223
200 2.44635
205 6.19607
210 4.61432
215 4.46703
220 8.67202
225 6.17074
230 4.06899
235 4.19442
240 4.92482
245 4.24158
250 5.66451
255 7.05036
260 5.0877
265 3.72316
270 4.6857
275 5.16383
280 5.37233
285 5.81384
290 3.83915
295 5.8229
300 5.43164
305 5.27067
310 5.71383
315 5.12115
320 5.98281
325 3.80884
330 5.25739
335 4.53828
340 4.60239
345 6.37842
350 7.07007
355 5.5213
360 6.8889
365 5.13627
370 4.46215
375 4.53007
380 4.95454
385 4.72857
390 8.24439
395 5.0074
400 5.59851
405 7.0631
410 6.6604
415 7.44898
420 4.87548
425 6.03204
430 6.02397
435 7.02527
440 6.37215
445 4.96191
450 4.8176
455 7.59354
460 3.97005
465 5.69446
470 4.51545
475 4.32493
480 4.23709
485 4.39695
490 4.74339
495 5.86521
500 7.64428
505 8.07346
510 7.32907
515 5.24885
520 3.85599
525 4.21444
530 8.25849
535 3.21859
540 5.94024
545 3.77121
550 5.72537
555 5.74087
560 5.1407
565 7.93346
570 4.52112
575 4.96641
580 6.55037
585 4.16309
590 5.32476
595 5.52374
600 3.878
Ex : 228
200 5.37327
205 4.26309
210 4.00249
215 3.64829
220 4.79587
225 3.64943
230 2.86233
235 4.62305
240 4.20233
245 4.80497
250 6.65541
255 4.93742
260 4.87711
265 5.95965
270 5.36469
275 4.48864
280 2.41328
285 4.67081
290 5.33887
295 3.40589
300 3.93646
305 3.90894
310 4.64104
315 4.10377
320 4.01558
325 6.42855
330 6.33114
335 4.30057
340 7.67055
345 5.07356
350 6.38297
355 5.79719
360 3.28735
365 9.11473
370 4.80855
375 4.14328
380 5.89229
385 5.41291
390 6.02756
395 6.52277
400 6.42773
405 5.01206
410 5.96814
415 5.76793
420 7.49564
425 6.91204
430 5.68789
435 5.30861
440 5.48807
445 8.3788
450 3.37785
455 3.79316
460 4.85496
465 4.48093
470 5.81145
475 5.10853
480 5.38652
485 5.44278
490 7.32577
495 6.8005
500 4.52987
505 6.81179
510 5.76731
515 5.29951
520 5.13978
525 6.87066
530 6.76848
535 5.94672
540 5.58525
545 6.14079
550 4.04927
555 3.16841
560 5.66529
565 4.04579
570 4.32143
575 5.40028
580 4.75144
585 4.89721
590 3.90087
595 4.51329
600 0.513595
Ex : 233
200 4.74783
205 3.51383
210 2.74461
215 5.51642
220 3.76046
225 4.58876
230 6.12022
235 4.41778
240 3.43663
245 4.69333
250 3.4869
255 6.15901
260 4.4178
265 7.78888
270 3.30293
275 7.64676
280 5.27566
285 3.20769
290 4.88684
295 5.12686
300 3.42248
305 5.60623
310 3.8298
315 3.37468
320 3.55166
325 4.17239
330 4.58321
335 5.40684
340 4.28987
345 7.34887
350 4.17302
355 6.17291
360 4.75796
365 4.21285
370 3.78348
375 3.9637
380 5.09774
385 7.06024
390 6.2777
395 2.80972
400 4.14461
405 4.01646
410 5.39978
415 5.47723
420 4.84813
425 3.76037
430 5.44097
435 5.82561
440 3.13754
445 3.55929
450 3.99785
455 3.03163
460 5.01839
465 5.75797
470 4.51369
475 5.39638
480 4.58109
485 8.25409
490 4.61286
495 7.45794
500 5.76174
505 4.31173
510 4.55861
515 6.23194
520 5.56255
525 4.14485
530 5.5692
535 3.94249
540 5.24522
545 4.31894
550 6.42283
555 6.54249
560 5.06857
565 3.25401
570 5.1016
575 6.62181
580 3.33525
585 5.67442
590 5.24628
595 4.38718
600 0.499244
Ex : 238
200 4.06299
205 4.62818
210 4.48573
215 4.12397
220 3.54939
225 2.64763
230 4.15074
235 4.58334
240 3.05604
245 4.35918
250 5.02251
255 3.36772
260 4.10529
265 6.5144
270 3.14579
275 3.58175
280 4.32313
285 4.0986
290 4.62858
295 2.47501
300 3.42144
305 5.23865
310 3.79537
315 3.81925
320 6.43617
325 5.16343
330 2.58846
335 3.59396
340 4.09408
345 4.3016
350 6.06094
355 4.87779
360 5.11269
365 5.69715
370 4.12369
375 3.54099
380 4.61765
385 4.91054
390 4.91348
395 6.15735
400 5.31968
405 8.23826
410 5.16969
415 4.28259
420 5.37193
425 5.66866
430 4.34913
435 3.88456
440 5.83718
445 6.97713
450 3.40559
455 4.59873
460 7.88222
465 5.11747
470 5.92737
475 5.78221
480 7.07945
485 3.84306
490 3.75465
495 3.0622
500 3.2657
505 5.22028
510 6.01817
515 4.49893
520 3.53467
525 5.95303
530 4.02914
535 5.24262
540 3.76554
545 4.05608
550 4.34041
555 4.65226
560 4.14472
565 5.13268
570 5.3682
575 4.61733
580 4.71325
585 5.27737
590 4.13517
595 4.52772
600 0.515237
Ex : 243
200 3.73448
205 3.7629
210 3.93997
215 3.62719
220 4.24893
225 3.91447
230 3.01605
235 3.23023
240 6.35163
245 3.4918
250 5.04546
255 4.10687
260 4.20669
265 5.10456
270 2.84465
275 5.30458
280 3.56856
285 5.751
290 3.78366
295 6.05949
300 2.82897
305 3.80218
310 3.39537
315 5.92962
320 3.46041
325 5.11134
330 3.55202
335 4.15282
340 5.58988
345 5.31724
350 5.27643
355 5.53364
360 2.48739
365 4.08977
370 3.54379
375 5.12074
380 4.92356
385 4.45174
390 4.44835
395 4.11635
400 3.48999
405 5.41088
410 4.81005
415 5.47744
420 5.70126
425 5.1009
430 4.55128
435 4.35614
440 4.43779
445 4.42107
450 3.69164
455 6.01749
460 4.54925
465 5.96599
470 4.2091
475 4.58189
480 3.27911
485 7.00195
490 5.39963
495 5.84869
500 3.35023
505 3.63364
510 2.91206
515 4.41087
520 3.68504
525 3.40476
530 3.10126
535 2.69807
540 3.31215
545 4.18058
550 3.53161
555 4.29581
560 2.39123
565 3.56548
570 4.19278
575 4.86446
580 4.1519
585 3.45663
590 3.02511
595 3.78164
600 0.430337
Ex : 248
200 5.12389
205 2.72769
210 1.91487
215 3.55373
220 2.61349
225 4.15928
230 4.21564
235 5.83991
240 5.17475
245 2.97684
250 3.00782
255 2.69937
260 3.99657
265 4.03599
270 4.35807
275 4.56251
280 3.91023
285 3.78036
290 2.90883
295 2.03305
300 3.23733
305 3.55517
310 3.22818
315 2.58026
320 3.78176
325 3.2293
330 3.81586
335 3.87448
340 3.82005
345 3.52605
350 3.66227
355 4.27419
360 4.97766
365 4.10327
370 4.27656
375 3.35017
380 3.57928
385 4.96676
390 5.46029
395 3.4281
400 2.95776
405 3.09715
410 4.40511
415 4.54793
420 4.02149
425 4.89649
430 3.36563
435 4.37219
440 3.57777
445 2.931
450 2.35095
455 3.12962
460 2.9117
465 3.78368
470 5.72916
475 3.69686
480 5.86668
485 6.02703
490 4.00781
495 4.06782
500 2.89022
505 6.33568
510 4.50438
515 3.95298
520 4.15627
525 3.35901
530 3.71306
535 4.22481
540 3.12124
545 4.71685
550 3.21925
555 3.58265
560 3.55982
565 5.54454
570 3.84871
575 3.81025
580 2.78741
585 4.84987
590 3.55728
595 2.9009
600 27.4086
Ex : 253
200 2.86098
205 2.57533
210 2.70426
215 2.76966
220 3.6379
225 3.05916
230 2.9484
235 3.08122
240 4.89556
245 2.50934
250 2.41631
255 2.70502
260 1.91006
265 2.92744
270 3.55351
275 1.73592
280 2.90575
285 3.12594
290 2.30582
295 2.16015
300 2.0968
305 3.66119
310 2.81177
315 3.21623
320 2.68763
325 3.6974
330 4.30947
335 2.39124
340 2.98529
345 4.00922
350 2.34811
355 2.84545
360 3.68344
365 3.22843
370 3.83022
375 4.37479
380 2.43669
385 2.96177
390 3.03533
395 2.82943
400 2.52011
405 2.2494
410 2.33899
415 3.35122
420 4.88353
425 3.54501
430 3.69404
435 3.61513
440 3.14477
445 3.29135
450 2.79683
455 3.66916
460 3.94707
465 2.98802
470 3.97324
475 3.32081
480 4.12993
485 3.21493
490 3.58761
495 4.43626
500 3.39724
505 3.33772
510 3.19813
515 3.56475
520 4.88763
525 3.24567
530 3.00816
535 3.01412
540 2.94974
545 3.01209
550 2.46469
555 1.64796
560 2.69028
565 2.27186
570 2.26118
575 2.48833
580 3.18012
585 2.94268
590 4.5704
595 4.10659
600 4.33438
Ex : 258
200 2.76
205 1.89817
210 3.46105
215 2.72122
220 1.6937
225 2.88502
230 3.97461
235 2.05729
240 2.21253
245 2.31489
250 1.92616
255 2.03907
260 2.07889
265 2.03461
270 2.15673
275 1.57385
280 1.7433
285 2.20641
290 2.09689
295 2.5458
300 2.57159
305 2.03803
310 1.57916
315 1.93054
320 2.36932
325 2.02097
330 2.67073
335 2.02127
340 2.52673
345 1.83662
350 1.58794
355 2.63289
360 1.95448
365 2.72422
370 2.30441
375 3.4375
380 2.55902
385 2.32912
390 2.99571
395 2.88281
400 2.57406
405 2.45079
410 2.68173
415 2.5827
420 2.47092
425 3.08426
430 3.2656
435 2.72945
440 3.50933
445 3.86053
450 2.7358
455 2.30485
460 3.42242
465 2.19717
470 3.15979
475 2.61975
480 3.51398
485 2.11437
490 3.32182
495 2.51688
500 3.12156
505 3.15357
510 3.29386
515 2.36966
520 1.68049
525 1.8284
530 2.30289
535 2.69065
540 3.00965
545 3.00633
550 2.30481
555 2.27287
560 2.0454
565 2.78701
570 2.22737
575 2.41503
580 2.06144
585 1.6575
590 2.00417
595 2.38206
600 0.271069
Ex : 263
200 1.46451
205 1.39845
210 2.0448
215 1.8122
220 2.44839
225 1.55219
230 2.78184
235 1.63653
240 1.50414
245 1.32435
250 1.96177
255 1.88261
260 1.56709
265 2.11005
270 1.44805
275 1.42813
280 1.06593
285 1.92216
290 1.98387
295 1.14718
300 1.52457
305 1.68332
310 1.33396
315 1.90188
320 2.57916
325 1.72386
330 2.1595
335 1.528
340 1.90671
345 2.55358
350 1.984
355 1.94546
360 1.89486
365 2.29303
370 1.65455
375 2.76858
380 2.77078
385 2.72112
390 2.47357
395 2.04825
400 1.93326
405 2.41643
410 2.54446
415 2.65976
420 2.20752
425 1.76248
430 2.94723
435 2.2007
440 3.00984
445 2.90587
450 3.04818
455 1.98041
460 2.04693
465 1.83409
470 2.32358
475 3.32103
480 3.72486
485 2.49076
490 2.18956
495 2.3108
500 2.87719
505 2.72761
510 2.08138
515 2.32869
520 3.31623
525 2.20349
530 2.30842
535 1.87052
540 1.2277
545 2.83834
550 1.88022
555 1.09451
560 1.78229
565 1.37494
570 2.52997
575 1.91942
580 1.69924
585 1.46099
590 1.43746
595 2.64296
600 3.49109
Ex : 268
200 1.2913
205 1.10898
210 1.52401
215 1.28602
220 1.27934
225 1.29495
230 0.926043
235 1.2073
240 2.08681
245 2.16853
250 2.12498
255 1.10212
260 1.8053
265 1.36737
270 1.43209
275 1.57047
280 1.56747
285 1.30149
290 1.57236
295 1.48921
300 1.52846
305 1.05224
310 1.88992
315 1.57017
320 1.22301
325 1.38909
330 1.80762
335 1.77829
340 1.15011
345 1.66571
350 1.98205
355 1.78111
360 1.39033
365 1.40741
370 1.63224
375 1.8478
380 1.29068
385 1.86305
390 2.43253
395 2.03439
400 2.38561
405 1.92238
410 2.29257
415 1.7312
420 1.48318
425 1.71068
430 1.86999
435 2.80656
440 2.5937
445 2.57506
450 2.67249
455 2.10226
460 2.16655
465 2.19552
470 1.29454
475 1.98421
480 1.66082
485 1.73165
490 1.52409
495 2.31042
500 1.21028
505 1.75905
510 1.72194
515 1.52128
520 2.36483
525 2.3076
530 2.89163
535 2.19918
540 1.55863
545 1.54076
550 1.47367
555 1.26005
560 1.02178
565 1.38276
570 1.33172
575 1.54236
580 1.85135
585 2.06324
590 1.12768
595 1.20443
600 1.86023
Ex : 273
200 1.04115
205 1.18319
210 1.63892
215 1.12319
220 0.921538
225 1.24818
230 1.31782
235 1.60632
240 0.787392
245 0.975806
250 1.12359
255 1.12903
260 1.06591
265 0.874753
270 0.896489
275 1.36893
280 1.30486
285 0.573541
290 0.972462
295 1.25644
300 0.974758
305 1.13187
310 1.20963
315 0.969486
320 0.846058
325 1.13656
330 1.01001
335 1.21797
340 1.19409
345 1.13748
350 1.48066
355 2.02196
360 1.94263
365 1.35515
370 1.35095
375 1.63471
380 1.53143
385 1.63804
390 1.33245
395 1.68959
400 1.94845
405 1.56416
410 1.70731
415 1.66217
420 1.11747
425 1.12278
430 1.51934
435 2.09224
440 1.52571
445 1.73395
450 1.90565
455 1.20051
460 1.71605
465 1.03736
470 1.62514
475 1.72507
480 1.25761
485 1.30737
490 1.50488
495 1.34832
500 1.18704
505 1.45162
510 1.38531
515 1.31491
520 1.135
525 1.7011
530 1.61622
535 1.78847
540 1.91636
545 1.80514
550 1.22748
555 1.35162
560 1.47719
565 1.03353
570 1.00109
575 1.07088
580 1.14163
585 0.806321
590 1.49131
595 0.964202
600 0.109722
Ex : 278
200 0.925435
205 0.755999
210 1.0006
215 0.884705
220 0.728498
225 0.848325
230 0.78506
235 0.693026
240 0.740875
245 0.838412
250 0.647866
255 1.13477
260 0.500935
265 0.703694
270 1.05437
275 0.82147
280 0.783999
285 0.870673
290 0.693887
295 0.620363
300 0.88394
305 1.00093
310 0.631667
315 0.982179
320 1.19907
325 1.12819
330 1.18211
335 1.22064
340 1.00677
345 1.17816
350 1.39222
355 1.02733
360 1.03441
365 1.14656
370 0.974904
375 1.37897
380 1.64165
385 1.46073
390 1.30395
395 1.13802
400 1.676
405 1.17748
410 1.06417
415 1.22341
420 1.57967
425 1.30008
430 1.77968
435 1.20848
440 1.78762
445 1.56142
450 1.65769
455 1.65744
460 1.67908
465 1.38585
470 1.58598
475 1.05038
480 1.12722
485 1.90291
490 1.59533
495 1.75024
500 1.18854
505 0.755519
510 1.08212
515 1.0865
520 1.00389
525 0.797946
530 0.830806
535 0.785544
540 1.24573
545 1.56131
550 2.0393
555 1.85369
560 1.14288
565 0.899555
570 0.824708
575 0.919271
580 1.1229
585 1.34017
590 1.03124
595 0.882066
600 1.75462
Ex : 283
200 0.663173
205 0.95788
210 0.85185
215 0.620943
220 0.547364
225 0.605041
230 0.670778
235 0.934745
240 0.617379
245 0.833427
250 0.912682
255 0.465475
260 0.483536
265 0.810775
270 0.937132
275 1.73031
280 1.16686
285 0.553345
290 0.363955
295 0.541502
300 0.737803
305 0.713283
310 0.524271
315 0.975799
320 0.816413
325 1.17225
330 1.05487
335 0.707104
340 0.88831
345 1.02943
350 0.968854
355 0.713625
360 0.986174
365 1.17443
370 1.20238
375 1.07772
380 1.33406
385 0.993048
390 1.22514
395 1.69292
400 1.24971
405 1.35812
410 1.61604
415 1.1886
420 0.955771
425 1.05978
430 1.35603
435 1.52879
440 1.34438
445 1.2183
450 1.45516
455 1.33004
460 1.51665
465 1.14293
470 1.30608
475 1.05907
480 1.07312
485 1.15976
490 1.46314
495 1.28932
500 1.2425
505 0.910892
510 0.968774
515 0.758548
520 1.33002
525 1.32355
530 0.932486
535 1.1128
540 1.17402
545 0.665321
550 0.854008
555 1.26173
560 2.12447
565 1.24045
570 0.978855
575 0.786712
580 0.929184
585 0.773179
590 0.574369
595 0.878854
600 0.10001
Ex : 288
200 1.07657
205 0.397734
210 0.680468
215 0.567587
220 0.632802
225 0.663159
230 0.564767
235 0.57193
240 0.75121
245 0.649623
250 0.647688
255 1.19417
260 0.704704
265 0.498448
270 0.770248
275 0.638069
280 0.870401
285 0.752721
290 0.75873
295 0.582719
300 0.497718
305 0.464664
310 0.743013
315 0.608007
320 0.63417
325 0.49327
330 0.553195
335 0.558853
340 0.819124
345 0.725174
350 0.917239
355 1.14673
360 1.20671
365 1.21787
370 0.894331
375 0.91331
380 1.1709
385 1.17439
390 0.808175
395 1.22569
400 1.81221
405 1.52386
410 1.02302
415 1.36565
420 1.05251
425 1.61058
430 1.75314
435 1.16946
440 0.851567
445 1.307
450 1.17071
455 1.10405
460 1.08227
465 0.90973
470 1.06474
475 1.13761
480 0.737421
485 0.735734
490 0.874474
495 0.978919
500 0.786227
505 1.10481
510 0.701834
515 1.02543
520 0.939295
525 0.761726
530 0.940335
535 0.603532
540 0.830212
545 0.540193
550 0.544618
555 0.840068
560 0.675157
565 1.06063
570 1.98378
575 1.51326
580 1.07516
585 0.621685
590 0.561526
595 0.583972
600 0.0664538
Ex : 293
200 0.810945
205 0.520383
210 0.509226
215 0.639241
220 0.411704
225 0.613809
230 0.303155
235 0.49262
240 0.517651
245 0.411689
250 0.528703
255 0.39171
260 0.478155
265 0.519569
270 0.433062
275 0.598772
280 0.951215
285 0.944969
290 1.1155
295 0.858213
300 0.53965
305 0.516765
310 0.839541
315 0.595971
320 0.539746
325 0.890607
330 0.486634
335 0.501606
340 1.00491
345 1.21245
350 0.881885
355 0.857569
360 0.918311
365 0.690696
370 0.801684
375 0.801809
380 0.935289
385 0.727845
390 1.25369
395 1.5544
400 1.38937
405 1.01241
410 1.32447
415 0.891368
420 0.848061
425 1.63819
430 0.967016
435 1.2436
440 1.2535
445 0.989068
450 1.21367
455 0.892648
460 0.960385
465 1.23803
470 0.855707
475 1.03999
480 0.771457
485 0.927962
490 0.924451
495 0.5705
500 0.73538
505 0.727343
510 0.748881
515 0.657625
520 0.899067
525 0.671599
530 0.913521
535 0.590498
540 0.359039
545 0.474617
550 0.617114
555 0.739999
560 0.688256
565 0.417255
570 0.688755
575 1.17323
580 1.65113
585 1.00931
590 0.655212
595 0.438923
600 0.646779
Ex : 298
200 0.364766
205 0.401601
210 0.418941
215 0.388227
220 0.482086
225 0.435379
230 0.446055
235 0.587794
240 0.446361
245 0.408692
250 0.490764
255 0.342289
260 0.349219
265 0.423326
270 0.585991
275 0.703002
280 0.604928
285 0.363333
290 0.83989
295 0.620549
300 0.581505
305 0.553086
310 0.319553
315 0.465172
320 0.484061
325 0.361304
330 0.793304
335 0.615904
340 0.755145
345 0.592886
350 0.642104
355 0.671227
360 0.867455
365 0.727371
370 0.75393
375 0.761476
380 0.974407
385 1.2285
390 1.12485
395 1.08783
400 0.87064
405 1.26362
410 1.13169
415 1.11598
420 0.688218
425 0.991747
430 1.30392
435 1.35144
440 1.01369
445 1.19431
450 1.16063
455 1.04943
460 1.06007
465 0.781523
470 0.620425
475 0.718854
480 0.631311
485 0.911301
490 0.681695
495 0.678219
500 0.64926
505 0.729357
510 0.684955
515 0.699213
520 0.448077
525 0.774429
530 0.460472
535 0.598611
540 0.46545
545 0.622973
550 0.457755
555 0.511065
560 0.561305
565 0.439044
570 1.00581
575 0.522058
580 0.552854
585 1.34022
590 1.21959
595 0.960023
600 0.80555
Ex : 303
200 0.41396
205 0.317845
210 0.315615
215 0.314714
220 0.47691
225 0.346755
230 0.436746
235 0.313812
240 0.396806
245 0.387286
250 0.393111
255 0.46558
260 0.365739
265 0.432939
270 0.526428
275 0.601493
280 0.271926
285 0.499597
290 0.613399
295 0.715388
300 0.896474
305 0.53261
310 0.862028
315 0.441229
320 0.438973
325 0.710663
330 0.646324
335 0.493365
340 0.47488
345 0.7686
350 0.637533
355 0.843657
360 0.65189
365 0.776976
370 0.971598
375 0.87466
380 1.08984
385 1.17065
390 0.917986
395 1.15944
400 1.10592
405 1.1076
410 1.25808
415 1.21944
420 1.53922
425 0.922944
430 1.00475
435 1.19733
440 1.46321
445 1.0267
450 0.770514
455 0.83435
460 0.777808
465 0.924736
470 0.840263
475 0.609092
480 0.649153
485 0.658712
490 0.693718
495 0.993195
500 0.696068
505 0.883023
510 0.654908
515 0.593955
520 0.604693
525 0.437642
530 0.541004
535 0.435955
540 0.570807
545 0.537014
550 0.463378
555 0.546914
560 0.475664
565 0.656961
570 0.411254
575 0.433464
580 0.584881
585 0.567089
590 0.587157
595 0.927192
600 2.22097
Ex : 308
200 0.47859
205 0.317388
210 0.405418
215 0.471027
220 0.474467
225 0.377803
230 0.544216
235 0.25765
240 0.367019
245 0.533738
250 0.424635
255 0.554092
260 0.381155
265 0.638098
270 0.47863
275 0.398806
280 0.406068
285 0.469879
290 0.355176
295 0.33316
300 0.536954
305 0.988834
310 0.606389
315 0.306565
320 0.444381
325 0.430203
330 0.551078
335 0.590951
340 0.561404
345 0.539887
350 0.672684
355 0.940878
360 0.83812
365 0.795629
370 0.969373
375 1.16826
380 1.0531
385 0.87686
390 0.950811
395 1.1331
400 1.15444
405 1.206
410 1.05479
415 1.05117
420 0.93061
425 0.971412
430 0.85404
435 0.899809
440 1.08808
445 1.25439
450 0.921783
455 1.0459
460 0.95827
465 0.818774
470 1.01702
475 0.708322
480 0.611676
485 0.715544
490 0.741997
495 0.672776
500 0.646135
505 0.666994
510 0.499942
515 0.404579
520 0.296623
525 0.517942
530 0.412354
535 0.514029
540 0.47812
545 0.345755
550 0.237907
555 0.401675
560 0.426777
565 0.396539
570 0.487488
575 0.429249
580 0.411977
585 0.299199
590 0.344752
595 0.304945
600 0.0347016
Ex : 313
200 0.283972
205 0.320768
210 0.361758
215 0.220185
220 0.258962
225 0.377426
230 0.310799
235 0.264116
240 0.20054
245 0.261014
250 0.512448
255 0.360323
260 0.37804
265 0.332044
270 0.510966
275 0.288798
280 0.518772
285 0.379383
290 0.34073
295 0.407852
300 0.390508
305 0.660838
310 0.981996
315 0.544244
320 0.396658
325 0.616967
330 0.517988
335 0.572051
340 0.691507
345 0.56046
350 0.72973
355 0.87409
360 0.932245
365 1.06393
370 1.14351
375 1.08749
380 1.67727
385 1.3882
390 1.55335
395 1.64665
400 1.74
405 1.85993
410 1.93983
415 1.75271
420 1.92681
425 1.93563
430 2.01506
435 1.81437
440 1.52332
445 1.90336
450 1.7404
455 1.53357
460 1.586
465 1.34882
470 1.14179
475 1.08468
480 0.969284
485 0.897457
490 0.975675
495 0.8631
500 0.812662
505 0.797454
510 0.768859
515 0.654695
520 0.606692
525 0.662419
530 0.400261
535 0.341985
540 0.353653
545 0.459632
550 0.527075
555 0.467098
560 0.468814
565 0.351492
570 0.334971
575 0.456041
580 0.326363
585 0.231432
590 0.34781
595 0.219767
600 0.418877
Ex : 318
200 0.311543
205 0.424314
210 0.252546
215 0.264356
220 0.304197
225 0.459458
230 0.287719
235 0.305277
240 0.265171
245 0.340704
250 0.3096
255 0.356286
260 0.381658
265 0.260858
270 0.330712
275 0.250194
280 0.285503
285 0.263653
290 0.291328
295 0.319471
300 0.303644
305 0.303093
310 0.754647
315 1.2801
320 0.794197
325 0.685654
330 0.928062
335 1.05217
340 1.62255
345 2.38343
350 3.35752
355 3.98884
360 4.72414
365 6.08779
370 7.06827
375 8.79815
380 9.17512
385 9.97133
390 11.112
395 12.3203
400 12.7342
405 13.4428
410 12.94
415 12.6858
420 12.3637
425 12.5137
430 12.5274
435 11.9664
440 11.5034
445 11.0289
450 10.4073
455 10.0913
460 9.48501
465 8.69768
470 7.74502
475 7.2783
480 6.39466
485 5.5995
490 5.50501
495 4.73646
500 3.91228
505 3.66764
510 3.21998
515 2.45286
520 2.21569
525 1.83607
530 1.60523
535 1.58606
540 1.3361
545 1.04587
550 0.988115
555 1.03663
560 0.828263
565 0.679495
570 0.692113
575 0.621761
580 0.571301
585 0.492532
590 0.459938
595 0.32024
600 1.42354
Ex : 323
200 0.18336
205 0.282595
210 0.240967
215 0.192967
220 0.297222
225 0.195843
230 0.415047
235 0.363981
240 0.208239
245 0.262021
250 0.286664
255 0.196092
260 0.372684
265 0.211337
270 0.300141
275 0.314497
280 0.219526
285 0.287301
290 0.338381
295 0.207307
300 0.271596
305 0.338611
310 0.416889
315 5.02038
320 21.1685
325 9.97622
330 2.91786
335 3.64188
340 5.30417
345 6.98566
350 9.47578
355 12.8737
360 15.5652
365 19.0135
370 22.1774
375 25.6167
380 29.3498
385 32.3278
390 35.7551
395 38.486
400 38.7322
405 39.8605
410 41.3404
415 39.9444
420 40.1412
425 39.4127
430 38.2051
435 37.1697
440 35.5988
445 34.4517
450 32.4112
455 30.4208
460 28.2512
465 26.9767
470 25.1309
475 22.3727
480 20.0637
485 18.5987
490 16.2894
495 14.4691
500 13.1081
505 11.4199
510 9.94838
515 8.34835
520 7.4109
525 6.61825
530 5.91437
535 5.35061
540 4.1827
545 3.81071
550 3.10521
555 2.85126
560 2.5679
565 2.16755
570 1.58366
575 1.27588
580 1.05461
585 0.666691
590 0.52627
595 0.64486
600 0.57241
Ex : 328
200 0.236033
205 0.213165
210 0.20355
215 0.226536
220 0.286163
225 0.286776
230 0.259899
235 0.260548
240 0.257914
245 0.249874
250 0.341092
255 0.307069
260 0.303681
265 0.377822
270 0.300046
275 0.292766
280 0.396987
285 0.294619
290 0.210543
295 0.28602
300 0.223752
305 0.309419
310 0.372821
315 1.72014
320 53.5135
325 137.384
330 47.8004
335 9.61525
340 6.84016
345 7.952
350 9.47173
355 13.5261
360 18.5702
365 19.9072
370 22.8015
375 25.3526
380 28.9133
385 31.4995
390 34.1832
395 36.2245
400 37.8514
405 37.8066
410 39.8727
415 40.0058
420 38.9205
425 38.7941
430 36.9202
435 35.5894
440 34.9731
445 33.7131
450 32.6897
455 29.6862
460 27.9309
465 25.9729
470 24.4954
475 23.1039
480 21.3943
485 19.2308
490 17.1376
495 14.9555
500 14.0044
505 12.7716
510 11.0304
515 9.44053
520 8.15854
525 7.22499
530 6.56655
535 5.65141
540 5.1918
545 4.21129
550 4.20513
555 3.43576
560 2.98602
565 2.32361
570 2.11276
575 1.85181
580 1.13166
585 0.889313
590 0.793495
595 0.673345
600 1.13536
Ex : 333
200 0.216048
205 0.318859
210 0.435724
215 0.365477
220 0.293798
225 0.249253
230 0.217866
235 0.2639
240 0.275047
245 0.19548
250 0.16418
255 0.296405
260 0.233879
265 0.320664
270 0.336844
275 0.275463
280 0.267227
285 0.20538
290 0.362772
295 0.398057
300 0.26744
305 0.22626
310 0.42869
315 0.401834
320 10.3628
325 197.019
330 339.184
335 97.42
340 15.2223
345 6.37704
350 6.55748
355 6.88252
360 9.71362
365 14.9398
370 15.9656
375 15.7789
380 15.505
385 17.3924
390 18.3996
395 19.8063
400 20.6507
405 21.4704
410 22.6638
415 23.0381
420 22.8371
425 22.3847
430 21.3404
435 21.386
440 21.1443
445 20.6672
450 19.8301
455 18.75
460 17.7948
465 17.3843
470 16.6396
475 15.5587
480 14.2949
485 13.1851
490 12.4897
495 10.7543
500 9.97859
505 9.17466
510 8.33014
515 7.51068
520 7.00043
525 6.00531
530 5.58101
535 4.93122
540 4.44911
545 3.53036
550 3.45742
555 2.88577
560 2.51085
565 2.09002
570 1.79266
575 1.44951
580 1.03226
585 0.90626
590 0.760016
595 0.621073
600 1.13623
Ex : 338
200 0.287188
205 0.193515
210 0.31732
215 0.285557
220 0.346366
225 0.252599
230 0.189447
235 0.221848
240 0.430752
245 0.252662
250 0.194838
255 0.246884
260 0.311237
265 0.36228
270 0.269889
275 0.224545
280 0.285629
285 0.2527
290 0.258656
295 0.291535
300 0.187593
305 0.255021
310 0.341671
315 0.34361
320 0.47271
325 27.2942
330 335.438
335 471.215
340 125.16
345 17.7272
350 5.745
355 4.7813
360 4.60269
365 6.20431
370 10.7064
375 11.7052
380 10.4283
385 9.59455
390 9.90254
395 10.0965
400 10.937
405 12.4187
410 13.4056
415 14.5003
420 13.8425
425 14.0233
430 14.0565
435 14.334
440 15.0542
445 14.7259
450 13.9767
455 13.612
460 13.4077
465 12.9972
470 12.8823
475 12.7804
480 11.6844
485 11.6229
490 10.6953
495 9.86869
500 9.08086
505 8.66174
510 8.07576
515 7.48307
520 6.55864
525 5.90255
530 5.7246
535 4.87909
540 4.06451
545 3.82688
550 3.41939
555 2.98206
560 2.68002
565 2.36868
570 1.84013
575 1.46869
580 1.19141
585 1.04445
590 0.93431
595 0.75916
600 0.555178
Ex : 343
200 0.220266
205 0.294743
210 0.189787
215 0.163558
220 0.233257
225 0.305474
230 0.196912
235 0.155959
240 0.173512
245 0.251443
250 0.202893
255 0.209843
260 0.165244
265 0.214717
270 0.280292
275 0.347332
280 0.297555
285 0.343215
290 0.245167
295 0.260778
300 0.262664
305 0.287125
310 0.372828
315 0.35665
320 0.530579
325 0.746814
330 32.9319
335 396.803
340 535.364
345 135.487
350 18.4077
355 5.25603
360 3.38625
365 2.72161
370 4.24841
375 8.40807
380 9.73074
385 8.12447
390 7.23585
395 7.11327
400 7.91716
405 9.38456
410 10.9868
415 11.4841
420 11.731
425 12.3629
430 12.8022
435 13.7596
440 14.4333
445 14.1076
450 14.1504
455 13.8016
460 13.7574
465 13.9076
470 13.8722
475 13.41
480 12.4469
485 12.2476
490 11.0893
495 10.6761
500 10.0409
505 9.26146
510 8.84329
515 7.82466
520 7.12259
525 6.72332
530 5.81385
535 5.56897
540 4.65758
545 4.22852
550 4.03513
555 3.38954
560 3.00077
565 2.85321
570 2.08977
575 1.87191
580 1.67676
585 1.11771
590 0.821031
595 0.720056
600 0.682655
Ex : 348
200 0.151205
205 0.203363
210 0.146765
215 0.253764
220 0.257255
225 0.150931
230 0.201577
235 0.168988
240 0.253686
245 0.193168
250 0.129266
255 0.189596
260 0.239832
265 0.178443
270 0.168332
275 0.253022
280 0.194875
285 0.175387
290 0.263158
295 0.196717
300 0.257828
305 0.264887
310 0.365876
315 0.282888
320 0.337586
325 0.445222
330 0.6892
335 33.4682
340 393.35
345 551.509
350 147.662
355 19.5146
360 4.71355
365 3.20779
370 2.46637
375 3.09755
380 6.6217
385 9.13534
390 7.99431
395 6.83562
400 6.71744
405 8.26339
410 10.1931
415 11.76
420 12.8471
425 12.5557
430 12.9538
435 14.474
440 15.467
445 15.5307
450 15.8828
455 15.0825
460 15.1571
465 15.8147
470 15.551
475 15.4023
480 15.1927
485 14.2638
490 13.7202
495 13.1332
500 12.6773
505 11.67
510 10.3363
515 9.28739
520 8.60048
525 7.75584
530 7.2606
535 6.39553
540 6.05641
545 5.45925
550 4.74938
555 4.07467
560 3.6227
565 2.97335
570 2.75167
575 2.21058
580 1.81264
585 1.24186
590 1.15332
595 0.793515
600 0.749548
Ex : 353
200 0.167229
205 0.25822
210 0.154491
215 0.136314
220 0.184928
225 0.229719
230 0.189172
235 0.175771
240 0.158077
245 0.206085
250 0.232396
255 0.28018
260 0.180106
265 0.153287
270 0.160012
275 0.177286
280 0.170734
285 0.129137
290 0.187009
295 0.19516
300 0.162104
305 0.201293
310 0.216376
315 0.198664
320 0.334165
325 0.285777
330 0.461179
335 0.823989
340 32.7271
345 394.859
350 538.932
355 139.143
360 18.0784
365 4.47775
370 3.03852
375 2.56799
380 3.17977
385 5.51386
390 8.637
395 8.09621
400 7.35692
405 8.59623
410 10.2696
415 12.117
420 12.0343
425 12.683
430 13.3089
435 14.9403
440 15.9692
445 16.0839
450 16.4425
455 16.0787
460 16.7885
465 16.8347
470 16.9708
475 16.8616
480 16.2242
485 16.0381
490 15.4026
495 15.1421
500 14.2091
505 13.5101
510 12.2185
515 10.8309
520 10.3742
525 9.08608
530 8.11115
535 7.40335
540 6.86471
545 6.04206
550 5.84376
555 4.66989
560 4.59152
565 3.54866
570 3.07896
575 2.22683
580 2.04241
585 1.39512
590 1.2024
595 0.946872
600 1.81973
Ex : 358
200 0.148195
205 0.151811
210 0.220561
215 0.273066
220 0.168738
225 0.113974
230 0.183851
235 0.221893
240 0.160226
245 0.14485
250 0.177591
255 0.162079
260 0.106557
265 0.177861
270 0.186092
275 0.146476
280 0.168437
285 0.217927
290 0.161035
295 0.116164
300 0.242909
305 0.284674
310 0.261724
315 0.24311
320 0.303858
325 0.282295
330 0.37127
335 0.462972
340 0.880874
345 29.9668
350 382.985
355 545.149
360 140.984
365 18.2816
370 4.22079
375 3.34179
380 3.12303
385 2.8741
390 4.9672
395 9.01466
400 9.64349
405 9.87193
410 11.1952
415 12.6691
420 13.3713
425 13.638
430 14.2028
435 15.7622
440 17.5383
445 18.2565
450 17.3904
455 17.3723
460 18.2491
465 18.4862
470 18.8615
475 18.6287
480 18.4783
485 17.546
490 16.8689
495 16.6281
500 15.5903
505 14.79
510 13.3578
515 12.4677
520 11.3119
525 10.0705
530 9.43425
535 8.54517
540 7.58117
545 6.95321
550 6.1738
555 5.37433
560 4.44652
565 3.95817
570 3.50363
575 2.51577
580 2.06544
585 1.51562
590 1.27964
595 1.0633
600 0.768069
Ex : 363
200 0.130931
205 0.157887
210 0.141193
215 0.213211
220 0.130696
225 0.199004
230 0.157028
235 0.138128
240 0.193674
245 0.13814
250 0.1482
255 0.14562
260 0.225456
265 0.192819
270 0.131733
275 0.0919694
280 0.143176
285 0.210682
290 0.130756
295 0.181717
300 0.143655
305 0.196546
310 0.24239
315 0.273168
320 0.253917
325 0.246357
330 0.252716
335 0.355514
340 0.504728
345 0.794995
350 27.9539
355 370.128
360 537.619
365 144.169
370 18.6489
375 4.43918
380 3.41314
385 3.54944
390 3.30258
395 4.42222
400 8.96519
405 12.705
410 14.1303
415 15.4372
420 15.3609
425 15.5306
430 16.6383
435 17.9938
440 20.4301
445 20.87
450 21.0795
455 20.0301
460 21.2056
465 21.3704
470 21.4003
475 21.6216
480 20.9986
485 20.6448
490 19.9818
495 18.7368
500 17.7879
505 16.8405
510 15.4097
515 14.243
520 12.8298
525 11.6461
530 10.8965
535 9.5573
540 8.50132
545 7.78557
550 6.78285
555 5.91663
560 5.3008
565 4.72547
570 4.0412
575 3.07994
580 2.54905
585 1.8869
590 1.42512
595 1.1135
600 1.16062
Ex : 368
200 0.159538
205 0.176634
210 0.203517
215 0.137317
220 0.214187
225 0.170911
230 0.14876
235 0.180628
240 0.154691
245 0.118275
250 0.138503
255 0.146288
260 0.178652
265 0.145199
270 0.14859
275 0.16704
280 0.206444
285 0.164475
290 0.18599
295 0.177629
300 0.212428
305 0.129163
310 0.153057
315 0.158951
320 0.214837
325 0.223391
330 0.195183
335 0.278324
340 0.363198
345 0.459873
350 0.783484
355 22.8728
360 346.947
365 526.467
370 146.545
375 19.1452
380 4.53606
385 3.69976
390 3.43442
395 3.43207
400 5.01688
405 10.258
410 15.0487
415 15.9271
420 15.544
425 14.3722
430 16.0458
435 17.7391
440 19.539
445 20.4365
450 20.8011
455 20.6352
460 21.4214
465 22.0468
470 23.1681
475 22.6454
480 23.0611
485 22.7518
490 21.6209
495 21.1792
500 19.6026
505 18.9771
510 17.989
515 16.3555
520 14.3175
525 13.3575
530 12.2549
535 11.1021
540 9.94898
545 9.18052
550 8.24887
555 6.68059
560 6.23698
565 5.4459
570 4.33231
575 3.69024
580 2.75813
585 2.35258
590 1.56529
595 1.38243
600 0.497229
Ex : 373
200 0.114773
205 0.100722
210 0.173878
215 0.132829
220 0.125089
225 0.123407
230 0.14857
235 0.144278
240 0.122076
245 0.156407
250 0.181801
255 0.0858435
260 0.0877084
265 0.146649
270 0.201657
275 0.178873
280 0.160653
285 0.168512
290 0.123856
295 0.180829
300 0.110124
305 0.146757
310 0.0985181
315 0.129872
320 0.147682
325 0.165372
330 0.289943
335 0.263795
340 0.298111
345 0.27949
350 0.456498
355 0.868429
360 26.0509
365 345.133
370 523.284
375 146.625
380 19.2562
385 4.58343
390 3.46589
395 3.63471
400 4.38914
405 6.70871
410 11.5418
415 15.9215
420 15.1785
425 13.9187
430 14.1841
435 15.7783
440 17.4669
445 18.3002
450 18.2268
455 19.2838
460 20.223
465 21.5145
470 22.3659
475 22.8473
480 22.9564
485 23.4862
490 22.2736
495 21.3996
500 20.8858
505 19.7944
510 18.6194
515 17.1698
520 15.6971
525 14.4631
530 12.9394
535 11.6245
540 10.8016
545 9.46694
550 8.44339
555 7.69564
560 6.77246
565 5.85273
570 4.71982
575 3.93455
580 2.99539
585 2.19945
590 1.81464
595 1.40078
600 1.04561
Ex : 378
200 0.117376
205 0.120157
210 0.137772
215 0.132242
220 0.111051
225 0.171379
230 0.128872
235 0.115655
240 0.116808
245 0.16406
250 0.136474
255 0.131476
260 0.116433
265 0.164059
270 0.155144
275 0.180291
280 0.176244
285 0.103736
290 0.166056
295 0.136191
300 0.145373
305 0.0962538
310 0.148868
315 0.232832
320 0.165308
325 0.18934
330 0.158242
335 0.18662
340 0.235275
345 0.23851
350 0.282886
355 0.429685
360 0.726953
365 23.5007
370 350.512
375 547.572
380 153.326
385 20.3665
390 5.11948
395 4.29425
400 5.05507
405 6.91973
410 10.3696
415 13.7724
420 16.4066
425 16.217
430 16.456
435 17.3254
440 18.3756
445 19.2071
450 19.2093
455 19.823
460 21.1843
465 21.7522
470 23.1814
475 22.6614
480 22.9885
485 22.3341
490 21.912
495 21.4502
500 20.2832
505 19.4672
510 17.9935
515 16.2047
520 14.8324
525 13.7037
530 12.747
535 11.1523
540 10.4571
545 9.3051
550 8.15178
555 7.05512
560 6.12357
565 5.61343
570 4.46054
575 3.81909
580 2.63709
585 2.21142
590 1.66977
595 1.34083
600 1.87329
Ex : 383
200 0.1264
205 0.150064
210 0.14304
215 0.104102
220 0.117395
225 0.155316
230 0.111619
235 0.113149
240 0.142137
245 0.138038
250 0.159285
255 0.136935
260 0.113388
265 0.149229
270 0.171783
275 0.129019
280 0.152823
285 0.125291
290 0.114595
295 0.182739
300 0.164955
305 0.163333
310 0.196028
315 0.157702
320 0.110603
325 0.140659
330 0.18581
335 0.226943
340 0.233743
345 0.231333
350 0.251742
355 0.324744
360 0.487159
365 0.693638
370 22.7562
375 349.835
380 555.801
385 156.114
390 20.9316
395 5.27073
400 5.25034
405 7.53621
410 11.0345
415 13.6095
420 14.638
425 17.2959
430 19.0562
435 19.9096
440 20.85
445 20.9802
450 20.4457
455 20.9602
460 21.9425
465 23.1588
470 24.088
475 24.24
480 23.7149
485 23.7985
490 22.7437
495 22.0323
500 20.922
505 19.7266
510 18.652
515 17.1069
520 15.5207
525 13.9131
530 12.8191
535 11.5818
540 10.7652
545 9.67479
550 8.57151
555 7.37711
560 6.46787
565 5.496
570 4.68623
575 3.88599
580 2.97068
585 2.13253
590 1.86336
595 1.33201
600 1.61276
Ex : 388
200 0.155547
205 0.121774
210 0.15395
215 0.100007
220 0.122549
225 0.153209
230 0.185108
235 0.160085
240 0.102409
245 0.11838
250 0.162397
255 0.135544
260 0.132952
265 0.0882616
270 0.0906004
275 0.157027
280 0.152518
285 0.103657
290 0.142791
295 0.183564
300 0.139287
305 0.137425
310 0.187719
315 0.181215
320 0.121196
325 0.126614
330 0.149807
335 0.206717
340 0.21118
345 0.205628
350 0.206878
355 0.24394
360 0.311883
365 0.405091
370 0.791725
375 24.6068
380 355.627
385 549.923
390 152.78
395 20.3355
400 6.0569
405 7.20391
410 10.4242
415 12.6497
420 12.84
425 13.5752
430 16.3842
435 19.7835
440 20.604
445 20.5728
450 20.5104
455 20.7156
460 21.3718
465 22.3806
470 23.5826
475 23.3252
480 23.8081
485 23.1321
490 22.7983
495 22.1293
500 21.0968
505 20.0696
510 18.5594
515 17.3477
520 15.7828
525 14.441
530 13.2718
535 11.9703
540 10.9793
545 9.83574
550 8.56839
555 7.99476
560 6.97858
565 5.50435
570 4.64794
575 3.85821
580 3.02337
585 2.24815
590 1.87597
595 1.41474
600 1.48528
Ex : 393
200 0.14014
205 0.108702
210 0.126894
215 0.0961799
220 0.130531
225 0.112472
230 0.115445
235 0.0947006
240 0.189395
245 0.13272
250 0.111072
255 0.114079
260 0.104536
265 0.101108
270 0.100134
275 0.141042
280 0.112844
285 0.124654
290 0.174552
295 0.0995943
300 0.103474
305 0.128144
310 0.135982
315 0.130178
320 0.127596
325 0.137204
330 0.172688
335 0.18101
340 0.165372
345 0.230659
350 0.197596
355 0.215575
360 0.320596
365 0.356672
370 0.411425
375 0.743248
380 21.445
385 346.47
390 553.729
395 155.672
400 21.0291
405 7.1216
410 8.7419
415 10.4365
420 10.4413
425 10.2919
430 11.3426
435 14.5684
440 18.0063
445 18.8293
450 17.9894
455 18.1401
460 19.2424
465 20.8678
470 21.7469
475 22.4508
480 22.6952
485 22.5004
490 22.4598
495 21.8531
500 21.2839
505 20.485
510 18.8302
515 17.5383
520 16.115
525 14.6881
530 13.3606
535 12.4225
540 11.1943
545 9.97773
550 8.87483
555 7.9665
560 6.88981
565 5.93971
570 4.78528
575 4.01459
580 2.97369
585 2.46895
590 1.89416
595 1.35747
600 1.33821
Ex : 398
200 0.0948649
205 0.0800073
210 0.0864428
215 0.112476
220 0.117119
225 0.187418
230 0.118512
235 0.101276
240 0.106543
245 0.134591
250 0.131903
255 0.10238
260 0.1429
265 0.0826121
270 0.107131
275 0.137065
280 0.106103
285 0.131614
290 0.122271
295 0.159048
300 0.136958
305 0.12023
310 0.142033
315 0.159413
320 0.168939
325 0.131301
330 0.12823
335 0.126366
340 0.193431
345 0.170279
350 0.178228
355 0.249496
360 0.196038
365 0.295115
370 0.337248
375 0.464413
380 0.770258
385 21.5752
390 351.634
395 560.493
400 154.92
405 22.5665
410 9.57021
415 9.23324
420 9.7146
425 9.38797
430 9.99095
435 11.7547
440 14.6855
445 17.9986
450 18.4213
455 18.106
460 19.7486
465 20.1908
470 21.2786
475 21.7606
480 22.3844
485 22.4707
490 22.2671
495 21.9059
500 22.0449
505 20.4524
510 18.7761
515 17.5249
520 16.4963
525 14.9942
530 13.7638
535 12.6478
540 11.4282
545 10.3344
550 9.21069
555 7.99004
560 7.15446
565 6.20057
570 5.20835
575 4.07536
580 3.26779
585 2.41033
590 2.05038
595 1.6327
600 0.715098
Ex : 403
200 0.080261
205 0.10942
210 0.0751812
215 0.124176
220 0.103
225 0.135839
230 0.105995
235 0.111394
240 0.221974
245 0.141023
250 0.11184
255 0.12624
260 0.131616
265 0.100817
270 0.118248
275 0.103312
280 0.137654
285 0.127217
290 0.125051
295 0.110476
300 0.17027
305 0.145579
310 0.141254
315 0.136414
320 0.12367
325 0.159628
330 0.152026
335 0.1567
340 0.124988
345 0.19449
350 0.168623
355 0.220234
360 0.18792
365 0.237116
370 0.265299
375 0.326173
380 0.519464
385 0.805298
390 23.8626
395 360.37
400 556.805
405 158.499
410 25.8791
415 11.6546
420 10.7202
425 10.3707
430 10.9791
435 12.9098
440 14.7071
445 15.8932
450 18.7186
455 20.2876
460 20.7687
465 21.7412
470 22.4901
475 23.0625
480 23.3744
485 23.3054
490 23.0055
495 22.7587
500 22.1028
505 20.7996
510 20.0411
515 18.324
520 17.2911
525 15.8754
530 14.5165
535 12.9522
540 11.6615
545 10.3045
550 9.56122
555 8.38533
560 7.28341
565 6.21874
570 5.26452
575 4.14251
580 3.11125
585 2.51029
590 1.8769
595 1.5182
600 1.04679
Ex : 408
200 0.11446
205 0.14469
210 0.100447
215 0.0966325
220 0.105936
225 0.104914
230 0.0919656
235 0.116743
240 0.125209
245 0.104965
250 0.123155
255 0.139043
260 0.137443
265 0.15779
270 0.0818179
275 0.130087
280 0.120408
285 0.147004
290 0.102429
295 0.0947218
300 0.195879
305 0.14034
310 0.124024
315 0.159914
320 0.157622
325 0.178675
330 0.103067
335 0.209611
340 0.190482
345 0.131289
350 0.254012
355 0.15041
360 0.14943
365 0.203923
370 0.274567
375 0.248231
380 0.308937
385 0.495082
390 0.766924
395 23.0748
400 371.487
405 579.364
410 160.298
415 26.6645
420 11.3773
425 9.31856
430 10.382
435 11.6181
440 13.302
445 14.3619
450 15.669
455 18.0153
460 20.9594
465 21.3104
470 22.2411
475 23.1489
480 22.746
485 22.4253
490 22.793
495 22.5424
500 21.9514
505 20.6036
510 19.4255
515 18.1258
520 16.8075
525 15.5911
530 14.2857
535 12.8721
540 11.5532
545 10.5492
550 9.41332
555 8.24084
560 7.27751
565 6.41601
570 5.05459
575 4.31734
580 3.25305
585 2.33415
590 1.94642
595 1.48604
600 1.11013
Ex : 413
200 0.121183
205 0.100132
210 0.102284
215 0.116781
220 0.136476
225 0.1135
230 0.0884121
235 0.0961802
240 0.0972295
245 0.140747
250 0.122115
255 0.103903
260 0.0979292
265 0.121201
270 0.169729
275 0.124832
280 0.185552
285 0.150952
290 0.102666
295 0.0993435
300 0.117289
305 0.0807531
310 0.108005
315 0.117158
320 0.0780864
325 0.145937
330 0.156227
335 0.116395
340 0.169435
345 0.164989
350 0.161276
355 0.190061
360 0.246945
365 0.219134
370 0.171466
375 0.226139
380 0.213542
385 0.343519
390 0.457911
395 0.923822
400 26.1454
405 375.909
410 571.088
415 154.863
420 23.942
425 8.60757
430 7.22027
435 8.40048
440 9.40034
445 10.0613
450 11.3384
455 12.8865
460 15.8128
465 19.6608
470 20.0306
475 20.4416
480 20.2271
485 20.8833
490 20.6649
495 20.6183
500 20.3965
505 19.6076
510 18.6513
515 17.4765
520 16.1884
525 14.4974
530 13.6692
535 12.3096
540 11.1172
545 10.2702
550 9.35384
555 8.01756
560 7.01748
565 6.1557
570 5.10991
575 4.10757
580 3.17984
585 2.43232
590 1.89121
595 1.45004
600 1.46182
Ex : 418
200 0.125715
205 0.135242
210 0.11218
215 0.12068
220 0.101844
225 0.0995107
230 0.124009
235 0.158843
240 0.138183
245 0.136382
250 0.15261
255 0.176212
260 0.11124
265 0.0815848
270 0.0885546
275 0.0990003
280 0.118387
285 0.0773317
290 0.135803
295 0.103258
300 0.127361
305 0.116783
310 0.137145
315 0.119878
320 0.103302
325 0.111957
330 0.140662
335 0.127177
340 0.140168
345 0.133072
350 0.163066
355 0.184527
360 0.147438
365 0.150672
370 0.203837
375 0.212535
380 0.235943
385 0.20158
390 0.378527
395 0.507133
400 1.02245
405 24.7703
410 381.488
415 591.77
420 163.005
425 21.8999
430 5.94115
435 4.72759
440 5.60537
445 6.57413
450 7.68775
455 8.92329
460 11.0405
465 13.5117
470 17.2171
475 18.1978
480 18.082
485 18.6178
490 18.875
495 18.2601
500 18.421
505 18.035
510 16.7257
515 15.7968
520 14.5991
525 13.2295
530 12.2851
535 11.4498
540 10.5735
545 9.29637
550 8.55709
555 7.57423
560 6.52555
565 5.50053
570 4.58885
575 3.75082
580 2.95086
585 2.45252
590 1.84131
595 1.42697
600 0.972794
Ex : 423
200 0.138844
205 0.112199
210 0.110511
215 0.106618
220 0.115631
225 0.117744
230 0.108279
235 0.11663
240 0.133193
245 0.134467
250 0.0799361
255 0.132068
260 0.0976092
265 0.119302
270 0.082775
275 0.113232
280 0.0794237
285 0.123405
290 0.10413
295 0.109047
300 0.123341
305 0.158732
310 0.0739034
315 0.11314
320 0.156925
325 0.146288
330 0.155377
335 0.147713
340 0.138849
345 0.150324
350 0.115018
355 0.162331
360 0.127619
365 0.20007
370 0.18983
375 0.257651
380 0.220888
385 0.222697
390 0.238251
395 0.353473
400 0.552494
405 0.992815
410 25.4656
415 397.745
420 595.27
425 156.048
430 20.2217
435 4.85931
440 3.52218
445 4.50223
450 5.88525
455 7.363
460 9.18144
465 10.8037
470 12.856
475 15.3421
480 17.8481
485 17.0195
490 17.5037
495 17.1015
500 16.7257
505 16.0893
510 15.0905
515 14.2615
520 13.202
525 12.4431
530 11.6844
535 10.4042
540 9.71631
545 8.69716
550 7.68057
555 6.92079
560 6.10617
565 5.2882
570 4.28012
575 3.39352
580 2.69011
585 2.17705
590 1.63403
595 1.25721
600 0.903079
Ex : 428
200 0.133572
205 0.151452
210 0.155837
215 0.130135
220 0.113038
225 0.108729
230 0.115671
235 0.104775
240 0.0964627
245 0.138469
250 0.17029
255 0.118121
260 0.124164
265 0.128198
270 0.0937682
275 0.122195
280 0.164067
285 0.115276
290 0.142623
295 0.103457
300 0.124686
305 0.15557
310 0.135368
315 0.113021
320 0.147751
325 0.104716
330 0.132788
335 0.166785
340 0.137386
345 0.115672
350 0.121074
355 0.153999
360 0.135231
365 0.186579
370 0.17515
375 0.155779
380 0.219574
385 0.238055
390 0.243143
395 0.301198
400 0.342841
405 0.492098
410 0.846496
415 28.8223
420 417.789
425 619.916
430 166.524
435 21.3319
440 4.8556
445 3.49909
450 5.03173
455 6.69023
460 7.77349
465 9.41543
470 10.9581
475 12.0342
480 14.4817
485 17.0895
490 16.1948
495 15.8299
500 15.5528
505 14.4949
510 13.5267
515 12.7913
520 12.0661
525 11.2335
530 10.3158
535 9.41594
540 8.53807
545 8.17809
550 7.06165
555 6.11847
560 5.61827
565 4.87481
570 3.97539
575 3.21874
580 2.47651
585 1.96269
590 1.50898
595 1.22135
600 0.886812
Ex : 433
200 0.120999
205 0.145268
210 0.0838782
215 0.173768
220 0.117412
225 0.0999599
230 0.143128
235 0.104787
240 0.0863307
245 0.105005
250 0.105516
255 0.132126
260 0.135803
265 0.105007
270 0.110838
275 0.119404
280 0.0962763
285 0.106282
290 0.131621
295 0.134853
300 0.113415
305 0.104883
310 0.151696
315 0.126382
320 0.115838
325 0.0851309
330 0.10287
335 0.128751
340 0.153746
345 0.14575
350 0.15625
355 0.115524
360 0.142098
365 0.156916
370 0.146531
375 0.133
380 0.185167
385 0.141579
390 0.212966
395 0.284129
400 0.345452
405 0.390394
410 0.599287
415 0.985055
420 31.7342
425 443.925
430 634.273
435 165.965
440 21.2921
445 5.45299
450 4.33179
455 5.50174
460 7.31828
465 8.21994
470 9.16086
475 10.5118
480 11.6738
485 12.9269
490 14.8627
495 14.884
500 13.5064
505 13.2306
510 12.4488
515 11.4922
520 10.8822
525 9.80413
530 8.95528
535 8.47867
540 7.85918
545 6.71426
550 6.2288
555 5.63355
560 4.79564
565 4.2181
570 3.65353
575 2.68404
580 2.2093
585 1.78097
590 1.35787
595 1.10501
600 1.54958
Ex : 438
200 0.108007
205 0.150127
210 0.078045
215 0.0918034
220 0.0895507
225 0.115755
230 0.103198
235 0.0806352
240 0.0969056
245 0.101051
250 0.138967
255 0.0821232
260 0.114936
265 0.145255
270 0.126647
275 0.153696
280 0.124256
285 0.0915497
290 0.0770142
295 0.120508
300 0.135314
305 0.0957103
310 0.114036
315 0.0903764
320 0.0931172
325 0.141517
330 0.139792
335 0.113463
340 0.0923259
345 0.106614
350 0.18663
355 0.14101
360 0.181163
365 0.180087
370 0.157539
375 0.179655
380 0.10218
385 0.162106
390 0.174042
395 0.231819
400 0.258393
405 0.353326
410 0.381251
415 0.578665
420 0.933051
425 30.8211
430 451.436
435 692.547
440 179.098
445 23.339
450 6.20494
455 4.84028
460 6.05856
465 7.4856
470 8.18273
475 8.7121
480 9.44901
485 9.95041
490 10.8999
495 12.7803
500 12.9382
505 11.7661
510 11.0039
515 10.1843
520 9.04415
525 8.5778
530 7.7213
535 7.30657
540 6.85141
545 6.04219
550 5.2469
555 4.76584
560 4.30966
565 3.90935
570 3.07847
575 2.40839
580 1.89294
585 1.4938
590 1.18536
595 0.916868
600 1.31548
Ex : 443
200 0.121009
205 0.113952
210 0.0863464
215 0.123442
220 0.1293
225 0.0848698
230 0.0974251
235 0.122825
240 0.109885
245 0.12619
250 0.0828439
255 0.0913996
260 0.141844
265 0.134641
270 0.12772
275 0.111961
280 0.124766
285 0.164696
290 0.142383
295 0.116536
300 0.129218
305 0.0934941
310 0.139603
315 0.131889
320 0.126893
325 0.130948
330 0.152913
335 0.09988
340 0.182085
345 0.159692
350 0.124594
355 0.170239
360 0.166634
365 0.180331
370 0.169713
375 0.163372
380 0.202636
385 0.20715
390 0.210803
395 0.185286
400 0.214913
405 0.234552
410 0.320848
415 0.38423
420 0.555108
425 0.89374
430 34.8712
435 491.92
440 711.183
445 181.207
450 23.9818
455 6.45519
460 4.90067
465 5.94476
470 6.78817
475 7.20379
480 7.65837
485 7.99068
490 8.55762
495 9.03916
500 10.1974
505 10.786
510 9.49417
515 8.40033
520 7.98245
525 7.29364
530 6.61089
535 6.00169
540 5.55538
545 5.02561
550 4.63777
555 4.20712
560 3.58434
565 3.36416
570 2.73724
575 2.22518
580 1.65901
585 1.32761
590 1.04412
595 0.899308
600 0.881483
Ex : 448
200 0.104937
205 0.14523
210 0.121674
215 0.124756
220 0.143716
225 0.147157
230 0.078808
235 0.097695
240 0.101115
245 0.113665
250 0.0966467
255 0.104873
260 0.0985893
265 0.105869
270 0.176929
275 0.133381
280 0.148381
285 0.129545
290 0.120823
295 0.141435
300 0.11093
305 0.151515
310 0.136099
315 0.129103
320 0.110112
325 0.0872817
330 0.100401
335 0.145061
340 0.140865
345 0.148697
350 0.139409
355 0.203116
360 0.207181
365 0.11926
370 0.144183
375 0.173291
380 0.187517
385 0.199943
390 0.176891
395 0.213637
400 0.224009
405 0.256086
410 0.302733
415 0.305116
420 0.421169
425 0.57912
430 0.988281
435 37.2016
440 522.375
445 752.924
450 195.51
455 25.762
460 6.57158
465 4.61911
470 5.02481
475 5.85507
480 5.97979
485 6.48585
490 6.60942
495 6.58525
500 6.60597
505 7.60677
510 8.47191
515 7.82533
520 6.66419
525 6.01082
530 5.60904
535 4.79125
540 4.3092
545 4.01911
550 3.62301
555 3.28081
560 2.86876
565 2.57446
570 2.06801
575 1.64355
580 1.32727
585 1.13554
590 0.875006
595 0.70742
600 0.295339
Ex : 453
200 0.147379
205 0.106389
210 0.0856709
215 0.106991
220 0.211211
225 0.116047
230 0.0991382
235 0.161215
240 0.135541
245 0.10805
250 0.133686
255 0.141929
260 0.142212
265 0.126345
270 0.108689
275 0.116365
280 0.11422
285 0.108125
290 0.115182
295 0.127912
300 0.0981982
305 0.105221
310 0.148473
315 0.189565
320 0.140795
325 0.155928
330 0.180695
335 0.160256
340 0.146637
345 0.127639
350 0.184795
355 0.159414
360 0.169876
365 0.127835
370 0.120697
375 0.126815
380 0.138139
385 0.148835
390 0.160203
395 0.195661
400 0.222306
405 0.195421
410 0.241091
415 0.248431
420 0.307421
425 0.364166
430 0.571298
435 1.10477
440 37.8177
445 566.633
450 777.227
455 187.156
460 24.6913
465 6.1477
470 3.94491
475 4.10541
480 4.87266
485 4.87949
490 4.79828
495 4.86757
500 4.93092
505 4.76787
510 5.3341
515 6.46911
520 5.94559
525 4.91782
530 4.56948
535 4.11982
540 3.62212
545 3.16295
550 2.85717
555 2.6106
560 2.37747
565 2.04201
570 1.6508
575 1.41283
580 1.20592
585 0.846112
590 0.767528
595 0.538407
600 0.210376
Ex : 458
200 0.119981
205 0.103848
210 0.120048
215 0.118031
220 0.115643
225 0.120589
230 0.118509
235 0.0994166
240 0.126497
245 0.127903
250 0.139655
255 0.106831
260 0.119631
265 0.073356
270 0.152846
275 0.119189
280 0.087761
285 0.0967202
290 0.118174
295 0.0918266
300 0.129356
305 0.100842
310 0.128534
315 0.20075
320 0.120957
325 0.120633
330 0.15882
335 0.127003
340 0.182058
345 0.149775
350 0.160264
355 0.100712
360 0.114729
365 0.163242
370 0.159107
375 0.115975
380 0.170437
385 0.14533
390 0.146696
395 0.18646
400 0.180122
405 0.175065
410 0.181864
415 0.194944
420 0.301994
425 0.351241
430 0.438793
435 0.630448
440 1.10356
445 42.9754
450 574.155
455 805.621
460 201.041
465 25.8583
470 5.56825
475 3.32272
480 3.34424
485 3.79901
490 3.74226
495 3.55233
500 3.44688
505 3.53467
510 3.44245
515 3.52372
520 4.5296
525 5.07212
530 4.09278
535 3.49691
540 3.28528
545 2.7512
550 2.20276
555 2.08882
560 1.92009
565 1.73045
570 1.42375
575 1.17834
580 0.961992
585 0.831759
590 0.657858
595 0.570957
600 0.768125
Ex : 463
200 0.113638
205 0.102629
210 0.0950116
215 0.133239
220 0.118975
225 0.165219
230 0.149731
235 0.123777
240 0.107847
245 0.134573
250 0.157554
255 0.115234
260 0.175232
265 0.120683
270 0.146327
275 0.112942
280 0.116111
285 0.142022
290 0.132029
295 0.12112
300 0.132318
305 0.156397
310 0.166061
315 0.110526
320 0.140107
325 0.1176
330 0.13174
335 0.137319
340 0.146901
345 0.188365
350 0.119053
355 0.148238
360 0.16214
365 0.0802442
370 0.139546
375 0.146829
380 0.144654
385 0.195392
390 0.181297
395 0.135978
400 0.218138
405 0.221591
410 0.216327
415 0.205365
420 0.255232
425 0.283326
430 0.362966
435 0.439664
440 0.676704
445 1.162
450 41.3497
455 591.737
460 850.855
465 209.823
470 26.3953
475 5.1778
480 2.74972
485 2.60091
490 2.91142
495 2.86833
500 2.60835
505 2.44298
510 2.39576
515 2.49709
520 2.59603
525 3.14433
530 4.13402
535 3.62459
540 2.82255
545 2.58964
550 2.20922
555 1.92381
560 1.59213
565 1.36528
570 1.2214
575 1.02344
580 0.801189
585 0.680256
590 0.538412
595 0.494957
600 0.291384
Ex : 468
200 0.0929201
205 0.147262
210 0.138948
215 0.0778835
220 0.0676086
225 0.0802599
230 0.102715
235 0.0934649
240 0.102522
245 0.103307
250 0.108847
255 0.105184
260 0.0916434
265 0.0860952
270 0.0966869
275 0.098065
280 0.111803
285 0.135508
290 0.135602
295 0.0827014
300 0.153611
305 0.135738
310 0.118684
315 0.130546
320 0.156331
325 0.112878
330 0.111443
335 0.128727
340 0.157743
345 0.1507
350 0.124306
355 0.133826
360 0.133234
365 0.175214
370 0.128465
375 0.126362
380 0.127168
385 0.15208
390 0.164706
395 0.179272
400 0.161678
405 0.162914
410 0.213431
415 0.179134
420 0.213906
425 0.224527
430 0.257959
435 0.356345
440 0.450317
445 0.668963
450 1.03231
455 44.7261
460 609.644
465 933.191
470 229.805
475 28.4357
480 5.21374
485 2.40058
490 2.16873
495 2.43291
500 2.38762
505 2.07762
510 2.17699
515 1.97049
520 2.00849
525 1.97085
530 2.31407
535 3.44731
540 3.25725
545 2.52455
550 2.10719
555 2.15107
560 1.66989
565 1.33772
570 1.16492
575 0.978311
580 0.818381
585 0.635716
590 0.518716
595 0.420983
600 0.427708
Ex : 473
200 0.102824
205 0.108211
210 0.111056
215 0.126176
220 0.0994617
225 0.0706261
230 0.0904412
235 0.126195
240 0.115781
245 0.11111
250 0.107844
255 0.100504
260 0.130144
265 0.108189
270 0.121228
275 0.128808
280 0.104601
285 0.134327
290 0.1376
295 0.198594
300 0.125822
305 0.136149
310 0.0930808
315 0.129942
320 0.130889
325 0.156338
330 0.156178
335 0.17201
340 0.131251
345 0.131981
350 0.144771
355 0.1422
360 0.132946
365 0.12649
370 0.123925
375 0.139207
380 0.149111
385 0.17804
390 0.164441
395 0.177561
400 0.188706
405 0.161245
410 0.172224
415 0.180653
420 0.208462
425 0.229642
430 0.240444
435 0.276535
440 0.359423
445 0.473708
450 0.685154
455 1.13353
460 51.2283
465 650.967
470 860.115
475 202.289
480 24.9777
485 4.55455
490 2.0041
495 1.77228
500 2.02492
505 2.12003
510 1.95761
515 1.87421
520 1.8503
525 1.87393
530 1.88061
535 2.10694
540 2.80646
545 3.21657
550 2.54411
555 1.86393
560 1.72241
565 1.49333
570 1.16483
575 0.938733
580 0.725729
585 0.668451
590 0.497681
595 0.440117
600 0.307701
Ex : 478
200 0.142761
205 0.136465
210 0.150629
215 0.111756
220 0.133216
225 0.127567
230 0.117523
235 0.117147
240 0.178375
245 0.112407
250 0.138779
255 0.174371
260 0.163647
265 0.122952
270 0.155247
275 0.127636
280 0.150146
285 0.151038
290 0.135558
295 0.149181
300 0.160212
305 0.149585
310 0.133565
315 0.125062
320 0.182979
325 0.190086
330 0.16883
335 0.162496
340 0.142703
345 0.167903
350 0.19075
355 0.115102
360 0.170325
365 0.174305
370 0.162791
375 0.252622
380 0.177773
385 0.14722
390 0.154825
395 0.225046
400 0.166274
405 0.141521
410 0.258756
415 0.187615
420 0.234027
425 0.245552
430 0.228518
435 0.291903
440 0.319475
445 0.340214
450 0.452592
455 0.843596
460 1.38178
465 55.3361
470 659.168
475 861.859
480 210.978
485 25.942
490 4.6529
495 1.88034
500 1.65523
505 1.7271
510 1.95334
515 1.71596
520 1.52859
525 1.61892
530 1.74804
535 1.67598
540 1.82034
545 2.31663
550 2.93939
555 2.60812
560 1.85827
565 1.52302
570 1.34909
575 1.06001
580 0.823777
585 0.646944
590 0.631962
595 0.46186
600 1.32123
Ex : 483
200 0.207074
205 0.10988
210 0.107486
215 0.128307
220 0.0983979
225 0.116485
230 0.136796
235 0.131952
240 0.146643
245 0.15342
250 0.181695
255 0.174377
260 0.125261
265 0.118474
270 0.141718
275 0.149339
280 0.166828
285 0.206231
290 0.128077
295 0.138173
300 0.142145
305 0.101108
310 0.125905
315 0.169855
320 0.168515
325 0.162026
330 0.160129
335 0.134538
340 0.138193
345 0.170061
350 0.173799
355 0.175257
360 0.121831
365 0.170253
370 0.177604
375 0.169271
380 0.195109
385 0.16243
390 0.180724
395 0.168254
400 0.174322
405 0.149004
410 0.15442
415 0.213543
420 0.189924
425 0.177168
430 0.221537
435 0.236232
440 0.225407
445 0.343628
450 0.395797
455 0.524548
460 0.868635
465 1.33145
470 42.2206
475 638.285
480 908.217
485 219.834
490 26.913
495 4.6172
500 1.92894
505 1.50305
510 1.66166
515 1.66988
520 1.69767
525 1.68206
530 1.55987
535 1.49911
540 1.40923
545 1.48541
550 1.7526
555 2.45694
560 2.6312
565 1.92987
570 1.35584
575 1.09101
580 0.920561
585 0.636434
590 0.476039
595 0.474163
600 0.181001
Ex : 488
200 0.16015
205 0.0876324
210 0.138512
215 0.147764
220 0.158264
225 0.140779
230 0.124692
235 0.141817
240 0.152502
245 0.162961
250 0.125524
255 0.156412
260 0.159344
265 0.247682
270 0.150172
275 0.115173
280 0.119747
285 0.138738
290 0.15417
295 0.12966
300 0.168182
305 0.120511
310 0.111118
315 0.130974
320 0.143393
325 0.18886
330 0.148411
335 0.176518
340 0.146278
345 0.193094
350 0.181674
355 0.155356
360 0.199538
365 0.175831
370 0.173711
375 0.172468
380 0.211063
385 0.176228
390 0.193818
395 0.274088
400 0.223006
405 0.166134
410 0.219966
415 0.221875
420 0.148718
425 0.183937
430 0.220207
435 0.238401
440 0.229074
445 0.302226
450 0.359888
455 0.513683
460 0.541832
465 0.884603
470 1.14253
475 50.5283
480 676.382
485 885.642
490 213.004
495 26.1933
500 4.52334
505 1.77033
510 1.43186
515 1.59035
520 1.67244
525 1.49424
530 1.47045
535 1.45153
540 1.4539
545 1.43989
550 1.38213
555 1.42742
560 2.03381
565 2.45639
570 1.83114
575 1.16293
580 1.03111
585 0.819453
590 0.572877
595 0.586092
600 0.264387
Ex : 493
200 0.0938746
205 0.14346
210 0.16754
215 0.15453
220 0.144116
225 0.212497
230 0.213135
235 0.123411
240 0.135605
245 0.192591
250 0.176762
255 0.192603
260 0.14094
265 0.165179
270 0.111962
275 0.145627
280 0.162489
285 0.158111
290 0.102231
295 0.146702
300 0.188421
305 0.155887
310 0.145563
315 0.15415
320 0.163585
325 0.246279
330 0.138525
335 0.160009
340 0.119795
345 0.217724
350 0.133832
355 0.234509
360 0.202506
365 0.175225
370 0.225513
375 0.137856
380 0.203185
385 0.189114
390 0.25142
395 0.218982
400 0.150377
405 0.19909
410 0.198588
415 0.251012
420 0.206226
425 0.244897
430 0.187559
435 0.284078
440 0.19078
445 0.238672
450 0.245649
455 0.39474
460 0.411871
465 0.557488
470 0.759333
475 1.07587
480 45.8374
485 656.409
490 938.144
495 219.246
500 26.765
505 4.55274
510 1.90955
515 1.45987
520 1.6774
525 1.83775
530 1.71514
535 1.47589
540 1.43782
545 1.43482
550 1.36866
555 1.26648
560 1.27191
565 1.53911
570 2.13502
575 1.65736
580 1.17428
585 0.812604
590 0.706462
595 0.549726
600 0.0625567
Ex : 498
200 0.117659
205 0.113923
210 0.17621
215 0.129166
220 0.155005
225 0.155935
230 0.198174
235 0.146964
240 0.139689
245 0.206064
250 0.136386
255 0.146235
260 0.137487
265 0.112458
270 0.154197
275 0.152758
280 0.149915
285 0.151748
290 0.109563
295 0.188853
300 0.12693
305 0.147746
310 0.229694
315 0.139271
320 0.117111
325 0.127103
330 0.19381
335 0.223339
340 0.162007
345 0.20034
350 0.192142
355 0.143874
360 0.179887
365 0.244263
370 0.225226
375 0.210655
380 0.108891
385 0.16853
390 0.172437
395 0.162981
400 0.164747
405 0.140142
410 0.219356
415 0.18647
420 0.228763
425 0.227978
430 0.274972
435 0.254625
440 0.220213
445 0.317564
450 0.318851
455 0.330289
460 0.491197
465 0.507389
470 0.649107
475 0.806928
480 1.30913
485 54.5594
490 684.003
495 880.025
500 207.33
505 25.3487
510 4.22647
515 1.7054
520 1.49966
525 1.39349
530 1.70406
535 1.602
540 1.44003
545 1.30695
550 1.25318
555 1.23397
560 1.04472
565 1.09477
570 1.16872
575 1.52634
580 1.61531
585 0.922155
590 0.765484
595 0.579097
600 0.3613
Ex : 503
200 0.163084
205 0.216382
210 0.203077
215 0.161142
220 0.133203
225 0.118203
230 0.082732
235 0.193194
240 0.21635
245 0.18991
250 0.158592
255 0.137858
260 0.155714
265 0.205791
270 0.166418
275 0.203027
280 0.184465
285 0.175627
290 0.191552
295 0.143643
300 0.240562
305 0.187823
310 0.162619
315 0.132311
320 0.172025
325 0.138619
330 0.245217
335 0.173723
340 0.154692
345 0.150037
350 0.174549
355 0.189087
360 0.17665
365 0.148051
370 0.171134
375 0.138724
380 0.133482
385 0.181176
390 0.191654
395 0.245582
400 0.247655
405 0.174298
410 0.248344
415 0.19282
420 0.223563
425 0.261181
430 0.237141
435 0.247147
440 0.288811
445 0.294522
450 0.308616
455 0.253642
460 0.367706
465 0.392529
470 0.50569
475 0.756109
480 0.841324
485 1.32671
490 48.4724
495 681.231
500 906.22
505 210.965
510 25.8954
515 4.36725
520 1.8017
525 1.56833
530 1.41593
535 1.67644
540 1.55914
545 1.48183
550 1.36157
555 1.24371
560 1.1629
565 1.05356
570 0.965813
575 0.80766
580 1.11558
585 1.30345
590 0.932889
595 0.622869
600 0.257658
Ex : 508
200 0.165942
205 0.162627
210 0.152871
215 0.189266
220 0.14905
225 0.113015
230 0.110004
235 0.155054
240 0.136359
245 0.174594
250 0.128821
255 0.172274
260 0.167943
265 0.206463
270 0.194835
275 0.240193
280 0.231609
285 0.142186
290 0.139625
295 0.154001
300 0.152191
305 0.108294
310 0.122576
315 0.150115
320 0.19405
325 0.171871
330 0.255788
335 0.173956
340 0.137839
345 0.193833
350 0.190471
355 0.202891
360 0.245859
365 0.179031
370 0.208921
375 0.190756
380 0.15995
385 0.192511
390 0.179558
395 0.155371
400 0.221415
405 0.237651
410 0.212744
415 0.203479
420 0.196426
425 0.22839
430 0.219423
435 0.21364
440 0.277485
445 0.20379
450 0.349836
455 0.326967
460 0.300301
465 0.373277
470 0.394654
475 0.453296
480 0.491184
485 0.924224
490 1.48501
495 50.5274
500 664.454
505 877.139
510 214.049
515 26.2921
520 4.5264
525 2.0831
530 1.32418
535 1.3635
540 1.56465
545 1.53737
550 1.52043
555 1.33057
560 1.00393
565 1.07012
570 0.903698
575 0.836476
580 0.703211
585 0.874507
590 0.996665
595 0.95011
600 1.32614
Ex : 513
200 0.0913252
205 0.164567
210 0.175606
215 0.164211
220 0.159004
225 0.136007
230 0.148674
235 0.179301
240 0.16092
245 0.194973
250 0.200892
255 0.183441
260 0.177145
265 0.129543
270 0.265099
275 0.180602
280 0.128616
285 0.155525
290 0.176149
295 0.168781
300 0.153319
305 0.159612
310 0.143056
315 0.222529
320 0.147078
325 0.205255
330 0.180721
335 0.177591
340 0.114704
345 0.191378
350 0.140152
355 0.226158
360 0.160624
365 0.17417
370 0.134065
375 0.22254
380 0.186289
385 0.18346
390 0.172559
395 0.208096
400 0.191346
405 0.200393
410 0.257618
415 0.176288
420 0.211067
425 0.175469
430 0.250972
435 0.218933
440 0.263794
445 0.323306
450 0.303831
455 0.273029
460 0.318765
465 0.260515
470 0.362223
475 0.419289
480 0.453961
485 0.627516
490 0.793799
495 1.1481
500 47.1935
505 644.691
510 882.682
515 217.327
520 26.5221
525 4.40907
530 1.75611
535 1.44677
540 1.37281
545 1.37967
550 1.46842
555 1.35132
560 1.18855
565 1.0672
570 0.904731
575 0.82195
580 0.636316
585 0.543638
590 0.618282
595 0.744819
600 1.40773
Ex : 518
200 0.0926869
205 0.204278
210 0.228492
215 0.185032
220 0.153112
225 0.23345
230 0.176128
235 0.256991
240 0.166173
245 0.181135
250 0.206076
255 0.198253
260 0.182972
265 0.193294
270 0.195958
275 0.133216
280 0.172149
285 0.178067
290 0.187417
295 0.172949
300 0.20057
305 0.139354
310 0.181389
315 0.147804
320 0.192425
325 0.124116
330 0.199347
335 0.176564
340 0.254332
345 0.203143
350 0.212959
355 0.215762
360 0.160525
365 0.14857
370 0.141139
375 0.140341
380 0.171255
385 0.145244
390 0.18411
395 0.213586
400 0.200718
405 0.258159
410 0.191503
415 0.259456
420 0.249183
425 0.28169
430 0.301996
435 0.2332
440 0.26633
445 0.213959
450 0.271862
455 0.245709
460 0.359306
465 0.296561
470 0.335075
475 0.397909
480 0.418392
485 0.47346
490 0.588351
495 0.874977
500 1.20471
505 47.2238
510 616.934
515 863.273
520 215.033
525 26.2759
530 4.39852
535 1.90554
540 1.33316
545 1.31972
550 1.35264
555 1.3859
560 1.26221
565 1.07851
570 0.944208
575 0.852671
580 0.625786
585 0.626808
590 0.436539
595 0.459962
600 0.562449
Ex : 523
200 0.205266
205 0.208893
210 0.218962
215 0.158736
220 0.200552
225 0.156367
230 0.171132
235 0.150182
240 0.182349
245 0.17558
250 0.169835
255 0.192893
260 0.243475
265 0.155818
270 0.196623
275 0.148915
280 0.191866
285 0.133197
290 0.14042
295 0.187678
300 0.163372
305 0.127948
310 0.123587
315 0.170868
320 0.203857
325 0.197642
330 0.236443
335 0.203721
340 0.198767
345 0.254216
350 0.167401
355 0.263215
360 0.169262
365 0.212059
370 0.195724
375 0.182248
380 0.209359
385 0.242741
390 0.237791
395 0.205521
400 0.266193
405 0.268421
410 0.26029
415 0.225735
420 0.21603
425 0.197491
430 0.236814
435 0.250816
440 0.243047
445 0.221178
450 0.210669
455 0.281015
460 0.345612
465 0.303812
470 0.277769
475 0.319026
480 0.35708
485 0.406997
490 0.560115
495 0.590734
500 0.680135
505 1.13082
510 41.5426
515 585.198
520 835.575
525 213.801
530 26.188
535 4.31913
540 1.7599
545 1.52723
550 1.24623
555 1.41696
560 1.28535
565 1.14149
570 0.910972
575 0.66298
580 0.49374
585 0.583258
590 0.541102
595 0.428195
600 0.239261
Ex : 528
200 0.181483
205 0.169155
210 0.199695
215 0.208383
220 0.1599
225 0.153173
230 0.152227
235 0.191699
240 0.114937
245 0.184987
250 0.166636
255 0.14506
260 0.188794
265 0.177802
270 0.154216
275 0.177474
280 0.175534
285 0.140711
290 0.214068
295 0.185758
300 0.161303
305 0.192793
310 0.195621
315 0.158431
320 0.19133
325 0.275399
330 0.172719
335 0.181819
340 0.165563
345 0.168031
350 0.241167
355 0.247459
360 0.192623
365 0.193528
370 0.23273
375 0.260517
380 0.241652
385 0.226293
390 0.185147
395 0.270114
400 0.216688
405 0.221983
410 0.175727
415 0.271801
420 0.224357
425 0.258673
430 0.286721
435 0.226423
440 0.231706
445 0.349954
450 0.353137
455 0.322289
460 0.222578
465 0.302844
470 0.299562
475 0.311433
480 0.292431
485 0.415237
490 0.35822
495 0.376933
500 0.617055
505 0.731722
510 1.27999
515 39.1236
520 573.104
525 823.61
530 208.047
535 25.5508
540 4.29057
545 1.81943
550 1.40717
555 1.1811
560 1.22034
565 1.06952
570 0.99655
575 0.827278
580 0.732046
585 0.571945
590 0.462777
595 0.455782
600 0.426447
Ex : 533
200 0.209608
205 0.188432
210 0.190195
215 0.247485
220 0.176317
225 0.174676
230 0.19013
235 0.16964
240 0.216428
245 0.174308
250 0.294563
255 0.162497
260 0.232579
265 0.214192
270 0.136307
275 0.192207
280 0.159065
285 0.20974
290 0.19465
295 0.215894
300 0.262311
305 0.17575
310 0.217488
315 0.155324
320 0.216591
325 0.171839
330 0.211525
335 0.146598
340 0.185942
345 0.176596
350 0.181203
355 0.217844
360 0.322274
365 0.235826
370 0.218261
375 0.181126
380 0.166607
385 0.226051
390 0.174773
395 0.206714
400 0.287506
405 0.291787
410 0.25881
415 0.169612
420 0.235871
425 0.169321
430 0.253669
435 0.204617
440 0.218947
445 0.260873
450 0.276901
455 0.317062
460 0.266895
465 0.335255
470 0.28228
475 0.252031
480 0.293494
485 0.338411
490 0.340997
495 0.350188
500 0.509769
505 0.511556
510 0.814975
515 1.01521
520 38.5176
525 545.979
530 799.253
535 207.601
540 25.2674
545 4.18812
550 1.71719
555 1.33576
560 1.1317
565 0.885182
570 0.711568
575 0.811298
580 0.62945
585 0.597383
590 0.489955
595 0.409806
600 0.604614
Ex : 538
200 0.186846
205 0.249046
210 0.142107
215 0.156197
220 0.172034
225 0.209802
230 0.163374
235 0.17567
240 0.193054
245 0.22654
250 0.218311
255 0.226141
260 0.220832
265 0.150018
270 0.176245
275 0.211907
280 0.215318
285 0.17308
290 0.193317
295 0.148934
300 0.13656
305 0.200523
310 0.176916
315 0.207071
320 0.187441
325 0.1504
330 0.18535
335 0.183764
340 0.224039
345 0.222767
350 0.183071
355 0.234503
360 0.219699
365 0.133437
370 0.150382
375 0.166064
380 0.290017
385 0.217989
390 0.244866
395 0.221201
400 0.17667
405 0.261105
410 0.269697
415 0.145703
420 0.188361
425 0.214451
430 0.202329
435 0.21663
440 0.313205
445 0.322929
450 0.214153
455 0.28866
460 0.255103
465 0.297247
470 0.297928
475 0.298983
480 0.317997
485 0.313794
490 0.384444
495 0.352748
500 0.377855
505 0.498389
510 0.609256
515 0.775625
520 1.08008
525 34.0618
530 532.413
535 798.974
540 212.636
545 26.1253
550 4.19178
555 1.55021
560 1.35267
565 0.900623
570 0.634816
575 0.978152
580 0.714393
585 0.590207
590 0.409603
595 0.442428
600 0.201293
Ex : 543
200 0.228741
205 0.17389
210 0.123147
215 0.240301
220 0.193636
225 0.160953
230 0.216204
235 0.202726
240 0.237379
245 0.164099
250 0.185217
255 0.217424
260 0.208024
265 0.201105
270 0.158415
275 0.230558
280 0.142476
285 0.280637
290 0.295511
295 0.165259
300 0.148582
305 0.146842
310 0.211949
315 0.251774
320 0.198536
325 0.18119
330 0.161913
335 0.19252
340 0.175859
345 0.177842
350 0.189392
355 0.167327
360 0.221955
365 0.167424
370 0.177114
375 0.200428
380 0.157012
385 0.154695
390 0.238133
395 0.221391
400 0.184842
405 0.280612
410 0.306866
415 0.233585
420 0.202306
425 0.261314
430 0.219154
435 0.266086
440 0.182974
445 0.400245
450 0.332228
455 0.316495
460 0.316987
465 0.33888
470 0.252284
475 0.252478
480 0.319507
485 0.321736
490 0.268713
495 0.380808
500 0.3829
505 0.358178
510 0.440792
515 0.588587
520 0.836356
525 1.09726
530 28.9155
535 490.4
540 775.168
545 213.143
550 26.2757
555 4.22318
560 1.45517
565 1.12455
570 0.722194
575 0.46207
580 0.533414
585 0.539253
590 0.571291
595 0.394049
600 0.295181
Ex : 548
200 0.216765
205 0.170419
210 0.200555
215 0.197236
220 0.172215
225 0.178878
230 0.241442
235 0.207453
240 0.21946
245 0.132396
250 0.236525
255 0.277528
260 0.187978
265 0.103185
270 0.18721
275 0.234976
280 0.150439
285 0.196115
290 0.197126
295 0.185292
300 0.227945
305 0.162099
310 0.18905
315 0.172075
320 0.173076
325 0.17865
330 0.246941
335 0.256193
340 0.219214
345 0.312513
350 0.183735
355 0.191394
360 0.205124
365 0.177777
370 0.30226
375 0.212301
380 0.326762
385 0.267365
390 0.263194
395 0.236744
400 0.273593
405 0.287933
410 0.273192
415 0.252916
420 0.274955
425 0.317735
430 0.294416
435 0.245916
440 0.244743
445 0.309987
450 0.313063
455 0.240238
460 0.271638
465 0.21246
470 0.308199
475 0.26146
480 0.250597
485 0.308869
490 0.31063
495 0.340843
500 0.253456
505 0.305294
510 0.392402
515 0.503563
520 0.517972
525 0.830834
530 1.06168
535 32.6625
540 514.233
545 769.23
550 208.982
555 25.1767
560 3.81668
565 1.24025
570 0.943232
575 0.608636
580 0.602358
585 0.437859
590 0.411124
595 0.407349
600 0.352121
Ex : 553
200 0.201954
205 0.218634
210 0.197714
215 0.241805
220 0.170502
225 0.357118
230 0.205913
235 0.138864
240 0.186046
245 0.320499
250 0.312008
255 0.204396
260 0.202944
265 0.17632
270 0.232698
275 0.169551
280 0.192911
285 0.313934
290 0.282899
295 0.29221
300 0.224932
305 0.162179
310 0.143244
315 0.178594
320 0.177913
325 0.169549
330 0.242094
335 0.250084
340 0.286777
345 0.252126
350 0.241486
355 0.239606
360 0.219218
365 0.250606
370 0.217279
375 0.260024
380 0.259623
385 0.276325
390 0.332243
395 0.23034
400 0.20096
405 0.219211
410 0.197789
415 0.215546
420 0.264827
425 0.224768
430 0.225462
435 0.256252
440 0.265855
445 0.406747
450 0.364531
455 0.241613
460 0.381445
465 0.26318
470 0.341048
475 0.355982
480 0.359176
485 0.294875
490 0.276044
495 0.234883
500 0.30291
505 0.330124
510 0.379595
515 0.449299
520 0.392181
525 0.53098
530 0.689416
535 1.05158
540 27.1572
545 453.164
550 723.479
555 202.96
560 24.6186
565 3.61093
570 0.981156
575 0.825015
580 0.588568
585 0.485944
590 0.517622
595 0.443841
600 0.365136
Ex : 558
200 0.208777
205 0.232384
210 0.215335
215 0.243249
220 0.240767
225 0.235094
230 0.192825
235 0.214408
240 0.234902
245 0.279539
250 0.235199
255 0.288941
260 0.156503
265 0.177093
270 0.31363
275 0.163054
280 0.231557
285 0.295502
290 0.297217
295 0.205269
300 0.247559
305 0.168675
310 0.150141
315 0.272446
320 0.239975
325 0.189663
330 0.220079
335 0.195715
340 0.268789
345 0.211575
350 0.178694
355 0.23274
360 0.243643
365 0.20895
370 0.272192
375 0.208921
380 0.298085
385 0.188603
390 0.27266
395 0.235868
400 0.335028
405 0.172988
410 0.311678
415 0.276447
420 0.231599
425 0.299962
430 0.202973
435 0.359253
440 0.321831
445 0.237599
450 0.288301
455 0.244615
460 0.236231
465 0.245822
470 0.240102
475 0.32717
480 0.235399
485 0.277697
490 0.32368
495 0.398053
500 0.226171
505 0.335043
510 0.397746
515 0.484691
520 0.328735
525 0.400231
530 0.489043
535 0.697972
540 0.940243
545 24.7901
550 433.273
555 713.543
560 201.741
565 24.3212
570 3.45624
575 0.925187
580 0.643452
585 0.392892
590 0.455479
595 0.354275
600 0.0403151
Ex : 563
200 0.184592
205 0.267457
210 0.190663
215 0.239358
220 0.361281
225 0.252575
230 0.289906
235 0.175445
240 0.153673
245 0.239443
250 0.22511
255 0.303146
260 0.286733
265 0.257257
270 0.252544
275 0.268089
280 0.171584
285 0.130216
290 0.202821
295 0.203188
300 0.177755
305 0.155851
310 0.231231
315 0.166605
320 0.208841
325 0.210285
330 0.185366
335 0.20044
340 0.291479
345 0.239445
350 0.263443
355 0.244049
360 0.197085
365 0.363015
370 0.284116
375 0.198427
380 0.205549
385 0.279621
390 0.275206
395 0.285701
400 0.227984
405 0.242541
410 0.322821
415 0.237422
420 0.213233
425 0.193446
430 0.224301
435 0.320926
440 0.35362
445 0.346786
450 0.275892
455 0.28562
460 0.305502
465 0.367716
470 0.323714
475 0.281027
480 0.23739
485 0.305266
490 0.229593
495 0.265186
500 0.412008
505 0.368034
510 0.283389
515 0.374822
520 0.311008
525 0.388602
530 0.400134
535 0.465852
540 0.602359
545 0.87982
550 25.9385
555 431.374
560 680.306
565 195.706
570 23.418
575 3.41351
580 0.916079
585 0.574628
590 0.544059
595 0.442426
600 0.455468
Ex : 568
200 0.239621
205 0.177916
210 0.188947
215 0.27893
220 0.216558
225 0.159489
230 0.171616
235 0.152996
240 0.237222
245 0.245073
250 0.244918
255 0.199055
260 0.221074
265 0.183408
270 0.212877
275 0.21871
280 0.227193
285 0.287051
290 0.280614
295 0.270259
300 0.205238
305 0.240487
310 0.231157
315 0.20934
320 0.210501
325 0.256778
330 0.189491
335 0.228159
340 0.225683
345 0.237265
350 0.258979
355 0.228954
360 0.272399
365 0.277382
370 0.250376
375 0.211571
380 0.267056
385 0.236329
390 0.359428
395 0.319243
400 0.238106
405 0.296418
410 0.180994
415 0.243812
420 0.185021
425 0.268002
430 0.255754
435 0.246281
440 0.340656
445 0.288084
450 0.362829
455 0.270644
460 0.16302
465 0.306307
470 0.339693
475 0.257914
480 0.350873
485 0.337647
490 0.35332
495 0.322269
500 0.259927
505 0.258026
510 0.390398
515 0.331306
520 0.307343
525 0.353354
530 0.420987
535 0.531972
540 0.560682
545 0.617577
550 0.915463
555 18.4548
560 367.641
565 636.355
570 193.07
575 23.4837
580 3.2572
585 0.884524
590 0.547578
595 0.419803
600 0.310135
Ex : 573
200 0.220882
205 0.205746
210 0.330779
215 0.321341
220 0.248023
225 0.214748
230 0.165064
235 0.258499
240 0.196011
245 0.272304
250 0.216763
255 0.180971
260 0.164866
265 0.216427
270 0.194733
275 0.192101
280 0.210908
285 0.186443
290 0.261072
295 0.168263
300 0.225039
305 0.173238
310 0.18802
315 0.28417
320 0.227987
325 0.179856
330 0.241049
335 0.313709
340 0.230467
345 0.20244
350 0.260938
355 0.27834
360 0.213518
365 0.322874
370 0.193315
375 0.243049
380 0.228729
385 0.191178
390 0.195887
395 0.29509
400 0.25235
405 0.27556
410 0.423352
415 0.227448
420 0.345754
425 0.279952
430 0.266296
435 0.226257
440 0.328367
445 0.379731
450 0.279628
455 0.199573
460 0.224717
465 0.296036
470 0.279816
475 0.253143
480 0.267887
485 0.329607
490 0.285811
495 0.221436
500 0.233246
505 0.29656
510 0.306722
515 0.298416
520 0.217936
525 0.401811
530 0.307643
535 0.270912
540 0.398916
545 0.522439
550 0.592683
555 0.906586
560 15.7896
565 339.951
570 714.535
575 229.048
580 27.4485
585 3.69481
590 0.826108
595 0.554903
600 0.382661
Ex : 578
200 0.232497
205 0.224776
210 0.26881
215 0.249004
220 0.179495
225 0.127196
230 0.152911
235 0.205112
240 0.211207
245 0.151598
250 0.244468
255 0.253495
260 0.221608
265 0.189319
270 0.238498
275 0.313749
280 0.222033
285 0.226278
290 0.181671
295 0.283002
300 0.233467
305 0.17053
310 0.224883
315 0.294772
320 0.240369
325 0.181917
330 0.281897
335 0.296898
340 0.275277
345 0.374134
350 0.145845
355 0.180224
360 0.22914
365 0.280226
370 0.234399
375 0.243505
380 0.284876
385 0.191233
390 0.338084
395 0.265513
400 0.278821
405 0.257912
410 0.293359
415 0.357719
420 0.296059
425 0.296015
430 0.240595
435 0.315168
440 0.253591
445 0.274091
450 0.26599
455 0.239247
460 0.266907
465 0.331594
470 0.30637
475 0.268309
480 0.222783
485 0.332397
490 0.343977
495 0.307775
500 0.314489
505 0.326243
510 0.29338
515 0.292069
520 0.260128
525 0.379601
530 0.409052
535 0.277936
540 0.344467
545 0.464653
550 0.414396
555 0.56897
560 0.696163
565 13.89
570 282.389
575 505.539
580 154.835
585 18.69
590 2.55217
595 0.69241
600 0.524951
Ex : 583
200 0.192568
205 0.256599
210 0.160685
215 0.268232
220 0.234473
225 0.24612
230 0.214048
235 0.381286
240 0.261992
245 0.252464
250 0.346391
255 0.219117
260 0.234217
265 0.211102
270 0.172102
275 0.209572
280 0.2062
285 0.211891
290 0.165681
295 0.258952
300 0.194128
305 0.218908
310 0.194006
315 0.184963
320 0.268768
325 0.186343
330 0.211444
335 0.252103
340 0.30905
345 0.198373
350 0.175467
355 0.186187
360 0.180707
365 0.238646
370 0.190927
375 0.221496
380 0.253406
385 0.253672
390 0.310628
395 0.282962
400 0.224866
405 0.234161
410 0.257942
415 0.238723
420 0.272782
425 0.301621
430 0.417616
435 0.352637
440 0.248061
445 0.229433
450 0.221185
455 0.299574
460 0.238657
465 0.267636
470 0.282409
475 0.277158
480 0.293342
485 0.280252
490 0.268233
495 0.223427
500 0.229969
505 0.324038
510 0.237286
515 0.280764
520 0.288391
525 0.271074
530 0.31692
535 0.339579
540 0.394001
545 0.289972
550 0.316842
555 0.539913
560 0.50778
565 0.659098
570 11.2753
575 248.304
580 426.497
585 124.609
590 15.1298
595 2.16844
600 0.531612
Ex : 588
200 0.209725
205 0.177071
210 0.226298
215 0.237192
220 0.213233
225 0.172691
230 0.221205
235 0.149203
240 0.270025
245 0.223089
250 0.21344
255 0.249109
260 0.230882
265 0.256515
270 0.227908
275 0.175344
280 0.175191
285 0.23104
290 0.230454
295 0.226895
300 0.371344
305 0.185445
310 0.193669
315 0.194821
320 0.237088
325 0.20444
330 0.226845
335 0.249937
340 0.269978
345 0.198101
350 0.284636
355 0.170972
360 0.211519
365 0.218251
370 0.267191
375 0.272337
380 0.293917
385 0.210064
390 0.28126
395 0.165195
400 0.197718
405 0.263311
410 0.226273
415 0.270611
420 0.252656
425 0.190205
430 0.281321
435 0.301741
440 0.326525
445 0.368862
450 0.272158
455 0.333234
460 0.30963
465 0.258608
470 0.253768
475 0.322619
480 0.202067
485 0.292654
490 0.327461
495 0.420214
500 0.400428
505 0.196806
510 0.334806
515 0.350786
520 0.235747
525 0.289152
530 0.257121
535 0.344309
540 0.308052
545 0.243783
550 0.383904
555 0.524226
560 0.471057
565 0.532099
570 0.664901
575 10.2658
580 210.798
585 381.39
590 113.685
595 13.7635
600 2.03803
Ex : 593
200 0.21564
205 0.284241
210 0.299097
215 0.227221
220 0.230727
225 0.233479
230 0.247585
235 0.195124
240 0.225361
245 0.241432
250 0.23043
255 0.250555
260 0.320605
265 0.161805
270 0.170948
275 0.28078
280 0.203585
285 0.272086
290 0.262337
295 0.264705
300 0.221989
305 0.205305
310 0.292843
315 0.173697
320 0.305518
325 0.1794
330 0.363335
335 0.187692
340 0.244291
345 0.159161
350 0.252427
355 0.403383
360 0.188981
365 0.215184
370 0.283038
375 0.225095
380 0.266493
385 0.250372
390 0.185462
395 0.274537
400 0.266741
405 0.316483
410 0.198488
415 0.325094
420 0.353241
425 0.298171
430 0.280919
435 0.319947
440 0.321011
445 0.308684
450 0.278919
455 0.280964
460 0.289924
465 0.25272
470 0.288567
475 0.193017
480 0.262186
485 0.264829
490 0.39114
495 0.325039
500 0.258743
505 0.300691
510 0.392522
515 0.272423
520 0.230702
525 0.287766
530 0.346985
535 0.300637
540 0.295845
545 0.309624
550 0.25589
555 0.2869
560 0.348802
565 0.294824
570 0.544508
575 0.47239
580 8.53853
585 181.766
590 317.824
595 94.1887
600 13.9587
Ex : 598
200 0.184332
205 0.242271
210 0.171463
215 0.233517
220 0.20453
225 0.223007
230 0.343154
235 0.182551
240 0.285307
245 0.255894
250 0.278136
255 0.327279
260 0.311625
265 0.234548
270 0.26461
275 0.196275
280 0.165865
285 0.165529
290 0.305775
295 0.247254
300 0.428396
305 0.350709
310 0.290303
315 0.23634
320 0.254854
325 0.223642
330 0.347191
335 0.248608
340 0.287931
345 0.203604
350 0.424322
355 0.272657
360 0.269227
365 0.296908
370 0.258108
375 0.240105
380 0.213005
385 0.327074
390 0.285568
395 0.33907
400 0.306641
405 0.255632
410 0.417315
415 0.268828
420 0.231623
425 0.369811
430 0.364292
435 0.394135
440 0.218006
445 0.25183
450 0.420819
455 0.27343
460 0.270556
465 0.310687
470 0.211709
475 0.333308
480 0.266528
485 0.471648
490 0.294388
495 0.30952
500 0.2735
505 0.28464
510 0.354
515 0.305189
520 0.250602
525 0.302293
530 0.264558
535 0.300833
540 0.241088
545 0.341007
550 0.295194
555 0.359765
560 0.3407
565 0.503622
570 0.39842
575 0.444843
580 0.544942
585 8.66123
590 160.962
595 276.567
600 185.351
Ex : 603
200 0.133095
205 0.261038
210 0.186938
215 0.308111
220 0.240912
225 0.210804
230 0.274899
235 0.213031
240 0.20872
245 0.21336
250 0.209372
255 0.230547
260 0.250359
265 0.17125
270 0.424152
275 0.225472
280 0.192662
285 0.211178
290 0.179888
295 0.184904
300 0.233674
305 0.292488
310 0.243398
315 0.280316
320 0.242521
325 0.41856
330 0.336083
335 0.321937
340 0.246371
345 0.219105
350 0.41565
355 0.212397
360 0.315549
365 0.297604
370 0.328675
375 0.24494
380 0.153338
385 0.341357
390 0.272141
395 0.272805
400 0.394129
405 0.285048
410 0.270689
415 0.248749
420 0.273862
425 0.265213
430 0.337511
435 0.252399
440 0.248629
445 0.211664
450 0.276376
455 0.221782
460 0.397021
465 0.299195
470 0.290959
475 0.274255
480 0.347723
485 0.381207
490 0.281721
495 0.24858
500 0.317244
505 0.309039
510 0.278293
515 0.294202
520 0.229367
525 0.496364
530 0.229973
535 0.268152
540 0.280651
545 0.380677
550 0.270815
555 0.316335
560 0.327156
565 0.271635
570 0.226348
575 0.356314
580 0.350896
585 0.423787
590 7.76616
595 137.02
600 270.049
