File format V 1.0
ven. 13. janv. 05:03:01 2017
Operator : 
Comments : 

=============================================
SpectroFluorometer parameters
Mode : 3D measurement
Data : Fluorescence
Phospho. : Ordinary
Spectrum : Fluorescence

Scan speed : 2400 nm/mn
Response : 100 ms
PM Voltage : 700 V
Shutter : On

Lambda Ex. Start : 203
Lambda Ex. End : 603
Lambda Ex. Step : 5
Ex. Slit : 5 nm

Lambda Em. Start : 200
Lambda Em. End : 600
Lambda Em. Step : 5
Em. Slit : 5 nm

Repetition : 1
Decal lambda em : 10
=============================================
DATA
Ex : 203
200 3.83902
205 6.17481
210 4.4946
215 5.41165
220 7.735
225 5.14201
230 5.39061
235 5.15908
240 3.20915
245 5.94405
250 2.73275
255 4.94341
260 6.77049
265 6.23254
270 4.70172
275 5.8686
280 4.42427
285 8.34296
290 5.24815
295 5.93595
300 6.29227
305 6.45898
310 4.72507
315 5.26125
320 5.09214
325 7.768
330 5.5195
335 6.97922
340 9.4165
345 4.66898
350 5.47717
355 4.92362
360 8.06519
365 6.12705
370 7.23404
375 8.65426
380 6.4999
385 4.73188
390 9.51184
395 6.69221
400 6.89949
405 6.86491
410 3.90537
415 6.20686
420 7.13454
425 4.48093
430 6.61206
435 9.86633
440 6.46883
445 5.05747
450 6.81012
455 2.83978
460 4.83817
465 7.03407
470 5.0884
475 6.34814
480 7.29848
485 4.50991
490 4.39699
495 4.77025
500 7.92365
505 5.32033
510 7.25639
515 6.47475
520 6.09371
525 7.05375
530 6.51051
535 7.66128
540 8.9051
545 7.79047
550 7.08543
555 8.44329
560 5.62575
565 5.85038
570 3.56957
575 6.03317
580 6.33933
585 4.28317
590 3.73109
595 5.39588
600 17.6291
Ex : 208
200 6.87727
205 4.46712
210 5.58582
215 4.97006
220 7.48339
225 4.6233
230 5.64549
235 7.2758
240 6.65351
245 5.83778
250 6.45687
255 3.85575
260 4.14199
265 4.99586
270 9.59006
275 6.43206
280 6.60621
285 4.59486
290 4.98491
295 7.10198
300 3.57983
305 6.2048
310 7.07264
315 7.74053
320 5.53341
325 5.46706
330 6.40506
335 8.01399
340 7.94874
345 6.87338
350 7.90604
355 7.2029
360 6.98917
365 4.26196
370 8.2977
375 5.56206
380 6.10732
385 7.37632
390 7.3229
395 7.65879
400 5.18352
405 6.74784
410 5.81381
415 6.48395
420 7.62159
425 8.15293
430 9.60771
435 4.48491
440 7.46991
445 6.59694
450 6.98299
455 9.45546
460 6.3495
465 7.15919
470 8.1909
475 8.81767
480 8.23664
485 6.28435
490 5.17159
495 8.03776
500 6.56949
505 4.1527
510 5.50447
515 7.71602
520 6.84208
525 7.60408
530 3.8758
535 5.28352
540 7.91653
545 6.15293
550 7.76881
555 4.95174
560 5.76194
565 7.19027
570 9.09087
575 6.13339
580 6.15293
585 9.42683
590 6.51234
595 8.20362
600 0.93354
Ex : 213
200 7.38318
205 5.51831
210 5.42583
215 4.84821
220 6.84288
225 6.9434
230 4.52894
235 5.13049
240 4.58912
245 5.48075
250 6.15273
255 7.46557
260 6.1499
265 6.57252
270 3.60107
275 5.85238
280 6.06115
285 6.23269
290 7.20808
295 4.36095
300 3.95451
305 6.36082
310 7.00584
315 10.5238
320 3.86438
325 3.67613
330 8.62901
335 8.20963
340 5.70012
345 5.38627
350 5.93417
355 5.31309
360 5.91763
365 5.08786
370 4.60452
375 8.90071
380 6.1322
385 5.7093
390 5.57646
395 8.04833
400 7.48164
405 5.17523
410 5.29637
415 5.18143
420 5.72292
425 6.00223
430 4.79368
435 5.27783
440 4.14541
445 5.08335
450 8.25046
455 7.2127
460 5.45729
465 6.37712
470 5.38261
475 6.69697
480 4.32862
485 7.40673
490 6.11961
495 6.87069
500 7.13793
505 5.7104
510 4.92746
515 5.01255
520 4.9192
525 4.44579
530 7.7658
535 9.16761
540 9.82151
545 7.78633
550 5.28711
555 4.58121
560 6.85135
565 5.03519
570 6.45605
575 4.14183
580 6.27943
585 6.87202
590 5.78719
595 5.60085
600 0.637355
Ex : 218
200 6.85222
205 4.89646
210 5.68361
215 5.79247
220 6.46198
225 4.94375
230 9.8213
235 4.62372
240 5.61427
245 5.70947
250 4.85393
255 6.68472
260 8.01597
265 4.72838
270 7.44965
275 4.82312
280 4.99253
285 4.69072
290 6.59244
295 5.85208
300 9.33533
305 7.31544
310 5.85149
315 7.36752
320 5.89146
325 8.44748
330 6.9917
335 6.15736
340 7.55427
345 5.91921
350 6.75041
355 4.24673
360 6.82005
365 5.86865
370 7.11144
375 7.92445
380 5.6364
385 6.35296
390 9.80756
395 4.89864
400 9.49508
405 7.56378
410 5.70109
415 4.87
420 5.63365
425 6.53349
430 5.65676
435 3.71007
440 6.46341
445 5.57843
450 4.43282
455 5.41098
460 8.92939
465 5.47913
470 6.28488
475 4.12206
480 6.6089
485 4.01295
490 4.15666
495 6.94688
500 4.75035
505 5.81945
510 3.846
515 6.54018
520 8.02378
525 4.88227
530 5.282
535 6.83629
540 4.70488
545 5.9996
550 5.84111
555 7.29756
560 4.05657
565 6.29438
570 11.3153
575 5.20101
580 5.59379
585 4.78226
590 4.7171
595 6.4535
600 8.1785
Ex : 223
200 6.41552
205 6.57649
210 5.90133
215 5.34979
220 4.74708
225 5.83292
230 3.58394
235 5.32524
240 5.00536
245 7.09338
250 8.43999
255 4.9357
260 8.7694
265 5.31608
270 5.91807
275 4.51227
280 7.8681
285 5.70116
290 7.44012
295 4.0022
300 4.3274
305 4.65923
310 5.4623
315 4.67339
320 6.81332
325 5.05657
330 6.24633
335 7.70243
340 5.08187
345 8.89564
350 6.0177
355 6.11109
360 6.75114
365 4.55282
370 8.89231
375 5.48827
380 4.56836
385 3.92413
390 6.99083
395 5.74907
400 6.93899
405 6.21286
410 5.16252
415 6.49266
420 6.68907
425 7.73052
430 5.89876
435 8.09321
440 4.93816
445 4.92717
450 5.8334
455 5.26796
460 6.07542
465 5.05612
470 5.58583
475 8.51668
480 4.76663
485 6.16303
490 7.35189
495 5.65383
500 4.34388
505 6.18678
510 4.56089
515 5.92104
520 5.96119
525 5.81918
530 5.14987
535 4.97465
540 5.74799
545 4.54569
550 6.9147
555 5.26622
560 8.29168
565 6.1117
570 7.17813
575 4.8067
580 7.50027
585 4.91527
590 9.53641
595 6.6844
600 3.95099
Ex : 228
200 4
205 4.07153
210 3.77367
215 4.27219
220 4.03918
225 7.08745
230 4.24203
235 5.79221
240 5.2121
245 5.90236
250 5.94478
255 7.37891
260 5.46674
265 6.26581
270 4.30408
275 8.82512
280 5.6693
285 6.83654
290 6.30277
295 4.57741
300 5.90754
305 4.07213
310 7.05453
315 7.36548
320 7.32144
325 7.23213
330 5.77364
335 4.76724
340 5.00096
345 5.65053
350 4.61906
355 5.15966
360 3.62835
365 4.75341
370 6.06572
375 5.58049
380 4.30759
385 4.57478
390 3.43183
395 7.05109
400 7.8807
405 4.8455
410 5.06513
415 3.85892
420 3.9601
425 5.82829
430 6.85485
435 6.68944
440 5.21296
445 4.73763
450 5.42936
455 8.04134
460 9.1447
465 6.52647
470 8.015
475 6.78169
480 5.30391
485 4.02178
490 4.16659
495 5.55666
500 7.91545
505 5.37608
510 7.58918
515 6.25824
520 5.21315
525 5.8076
530 5.44064
535 6.08273
540 4.00868
545 7.24404
550 7.3742
555 4.61386
560 3.96915
565 4.82361
570 3.24836
575 6.98178
580 9.7935
585 6.82645
590 7.27429
595 6.0104
600 9.90048
Ex : 233
200 8.37872
205 3.88163
210 5.45086
215 6.7734
220 7.0693
225 3.77517
230 4.23352
235 4.27616
240 7.34575
245 5.85656
250 5.70789
255 5.22397
260 3.7759
265 3.79652
270 4.34281
275 5.02947
280 4.53655
285 3.5763
290 4.56762
295 7.46746
300 6.44982
305 4.16087
310 7.2349
315 5.35628
320 6.66767
325 6.89313
330 6.76724
335 5.23933
340 6.44139
345 5.63565
350 5.35239
355 4.18307
360 6.27898
365 4.76891
370 6.76874
375 5.48653
380 4.16916
385 5.69112
390 4.43741
395 6.31099
400 5.45206
405 6.15106
410 5.54604
415 3.79613
420 4.54705
425 4.06979
430 6.01254
435 3.82347
440 4.85022
445 4.32709
450 4.60825
455 3.78503
460 5.69324
465 5.33263
470 5.8059
475 5.69928
480 5.04295
485 4.38643
490 5.27695
495 4.29862
500 5.20152
505 4.74908
510 4.27887
515 4.96378
520 6.55451
525 4.7338
530 5.44306
535 6.93024
540 4.57103
545 5.66015
550 5.45492
555 6.64249
560 3.56484
565 7.38834
570 6.53887
575 5.39174
580 4.61689
585 6.45844
590 4.39471
595 5.5503
600 8.38589
Ex : 238
200 2.21324
205 8.15846
210 5.49576
215 5.53306
220 7.54572
225 5.27563
230 3.51413
235 4.12716
240 2.62957
245 5.60599
250 8.56102
255 5.82483
260 4.50788
265 3.08505
270 5.49174
275 6.44705
280 5.43846
285 5.23194
290 5.6608
295 3.79361
300 4.13671
305 3.55038
310 4.60928
315 4.58715
320 4.43278
325 6.12748
330 5.34548
335 5.59189
340 4.80504
345 6.64388
350 3.92012
355 3.69894
360 4.44977
365 4.82447
370 8.58156
375 9.93484
380 4.33035
385 5.38897
390 5.76473
395 4.99807
400 6.88126
405 8.14178
410 3.88399
415 6.11934
420 4.85547
425 4.92539
430 4.96233
435 3.70347
440 4.68902
445 5.04579
450 5.09318
455 6.83494
460 4.87339
465 5.01651
470 5.97739
475 7.11288
480 5.39726
485 4.41171
490 4.98399
495 4.34375
500 5.25765
505 4.88701
510 4.63875
515 5.14224
520 3.86994
525 4.69069
530 4.36845
535 7.96806
540 4.98052
545 5.23187
550 6.74107
555 7.06938
560 3.71872
565 5.46932
570 5.95294
575 4.66365
580 4.61728
585 4.06668
590 5.25969
595 5.68365
600 11.6357
Ex : 243
200 5.88552
205 4.86362
210 5.63563
215 4.67038
220 4.21239
225 4.87939
230 3.914
235 5.62367
240 3.13018
245 3.74354
250 3.56658
255 4.36301
260 3.4901
265 3.96018
270 6.29835
275 4.51206
280 5.09926
285 5.74148
290 3.84369
295 4.91241
300 2.77155
305 2.47284
310 7.3281
315 2.9151
320 3.46913
325 3.81693
330 3.46968
335 3.52686
340 5.22858
345 3.0637
350 2.49656
355 3.45433
360 3.6425
365 6.77486
370 4.52255
375 3.4571
380 3.78145
385 3.70706
390 2.64832
395 3.84618
400 5.59294
405 3.51969
410 4.01327
415 3.66762
420 4.37493
425 4.608
430 3.261
435 5.40979
440 8.04778
445 6.39161
450 5.40751
455 4.76683
460 3.1428
465 4.48516
470 4.5319
475 3.07062
480 2.93293
485 5.80316
490 3.12687
495 4.29627
500 5.04786
505 5.34791
510 3.66889
515 4.32159
520 4.3145
525 4.33017
530 5.63585
535 5.51546
540 3.62988
545 3.48366
550 3.86179
555 2.7042
560 3.61665
565 5.49492
570 5.67149
575 5.35033
580 5.48763
585 5.86784
590 5.50237
595 3.88632
600 3.60726
Ex : 248
200 5.4186
205 3.66681
210 3.58571
215 2.93385
220 3.32871
225 4.19393
230 4.06082
235 4.40998
240 5.32321
245 3.3067
250 5.27139
255 2.8311
260 3.60086
265 3.82798
270 3.67286
275 4.08586
280 3.60549
285 3.62789
290 4.27012
295 5.04118
300 3.44454
305 3.03748
310 3.24856
315 3.42774
320 3.68449
325 2.45599
330 3.21258
335 4.14689
340 2.52025
345 7.49332
350 3.232
355 2.17147
360 4.39953
365 3.71981
370 4.30751
375 3.42456
380 2.95673
385 3.13677
390 4.0065
395 4.20861
400 4.41965
405 5.71865
410 4.39746
415 3.33046
420 3.7315
425 5.49599
430 2.95171
435 2.83615
440 3.8072
445 5.07086
450 3.87613
455 6.21361
460 3.8191
465 2.59255
470 3.35573
475 3.72945
480 3.98866
485 5.42027
490 3.67555
495 3.25147
500 4.56796
505 4.40469
510 4.29016
515 3.78959
520 3.50033
525 2.54212
530 3.43879
535 5.58426
540 2.98211
545 3.0647
550 2.81527
555 2.23735
560 4.43054
565 3.48624
570 3.04751
575 3.01086
580 3.2533
585 4.98068
590 4.97062
595 2.93058
600 0.333489
Ex : 253
200 2.03275
205 4.73505
210 3.71726
215 2.94563
220 3.00738
225 2.13982
230 3.4878
235 3.02142
240 4.30475
245 2.42444
250 3.01923
255 3.10934
260 2.49493
265 2.41261
270 3.67693
275 2.48918
280 2.67624
285 2.15496
290 3.80354
295 3.5403
300 2.59685
305 2.84933
310 3.59656
315 3.49201
320 2.48774
325 3.08059
330 2.60737
335 5.02008
340 3.61528
345 3.041
350 2.15885
355 3.27067
360 2.76309
365 3.52833
370 4.34733
375 3.76244
380 2.90492
385 5.82637
390 3.03561
395 2.77906
400 2.84079
405 4.58926
410 3.59896
415 3.00375
420 3.00267
425 3.19545
430 4.32494
435 4.12652
440 3.86519
445 3.54389
450 3.57791
455 3.19204
460 3.94479
465 3.0651
470 2.90498
475 3.62252
480 4.11398
485 3.3247
490 4.52385
495 2.31622
500 2.55856
505 3.07316
510 5.6396
515 2.76635
520 3.51106
525 2.24168
530 3.10636
535 3.20071
540 3.25931
545 4.08132
550 3.89791
555 3.40495
560 3.85275
565 3.73371
570 4.11556
575 2.92294
580 3.61772
585 3.01167
590 2.95517
595 3.10851
600 0.353737
Ex : 258
200 3.10101
205 2.0567
210 3.30573
215 2.28124
220 3.16173
225 3.145
230 2.72231
235 2.0786
240 2.4602
245 2.23714
250 1.33853
255 2.89704
260 1.9571
265 1.63117
270 2.84968
275 2.41928
280 2.48991
285 3.31405
290 2.1368
295 2.79657
300 4.65321
305 3.44553
310 2.78012
315 2.4939
320 2.45984
325 2.7553
330 2.16668
335 2.3101
340 2.73434
345 2.81935
350 2.99967
355 2.57874
360 2.59868
365 2.95981
370 4.33827
375 3.15593
380 3.20344
385 3.65189
390 2.78715
395 2.94696
400 2.51875
405 2.9913
410 3.80831
415 2.83904
420 3.87152
425 3.19887
430 2.36161
435 1.48592
440 1.99997
445 2.49939
450 1.4385
455 3.88681
460 1.99316
465 3.34229
470 3.15131
475 2.67351
480 2.99184
485 2.75638
490 1.9739
495 3.25218
500 2.35678
505 2.09632
510 2.08557
515 3.27235
520 3.13992
525 2.23735
530 3.49851
535 2.74665
540 2.92472
545 3.34038
550 3.25435
555 2.45899
560 2.64725
565 2.44024
570 3.90341
575 3.52956
580 3.76009
585 1.61072
590 1.71286
595 1.90195
600 1.57528
Ex : 263
200 2.05574
205 2.16522
210 1.91129
215 2.62311
220 2.79493
225 2.39397
230 2.03465
235 1.46813
240 2.31677
245 2.08399
250 1.57723
255 1.9724
260 2.18031
265 2.12427
270 1.9274
275 2.03685
280 1.58471
285 3.29569
290 1.96294
295 1.81152
300 2.12529
305 2.14127
310 1.57009
315 2.37274
320 1.8187
325 2.12972
330 1.85522
335 1.48513
340 2.42021
345 1.95446
350 2.57548
355 1.56772
360 2.09028
365 1.89468
370 2.60009
375 2.34097
380 3.26156
385 2.01112
390 2.83595
395 1.92046
400 1.8761
405 2.92858
410 2.14608
415 2.59345
420 2.25494
425 1.57204
430 1.83162
435 1.50192
440 1.91763
445 1.95587
450 3.7817
455 2.01138
460 2.9915
465 1.82976
470 3.0818
475 2.58364
480 3.63343
485 1.97336
490 2.23971
495 1.85357
500 2.81379
505 3.79776
510 1.71659
515 2.3123
520 2.12431
525 1.80293
530 2.60055
535 1.75255
540 1.32234
545 1.98741
550 1.54094
555 2.13111
560 2.06995
565 2.26012
570 2.80015
575 1.53882
580 1.97917
585 2.74826
590 2.69212
595 1.71798
600 0.1955
Ex : 268
200 1.71954
205 1.503
210 1.22311
215 2.21044
220 1.4065
225 1.83095
230 1.59355
235 1.29053
240 1.39503
245 1.29395
250 1.4528
255 2.01149
260 1.97659
265 1.61358
270 1.55155
275 1.28942
280 1.74467
285 1.28396
290 1.04293
295 1.34662
300 1.75239
305 1.83063
310 1.63666
315 2.09384
320 1.94453
325 2.1566
330 1.70943
335 1.95072
340 2.22706
345 2.06842
350 2.32337
355 1.29561
360 1.69915
365 2.27288
370 2.25612
375 2.12153
380 1.90852
385 2.49154
390 1.62916
395 1.78561
400 1.9463
405 1.82888
410 1.76881
415 2.64006
420 2.10557
425 1.4262
430 2.00817
435 2.70437
440 1.98003
445 2.6085
450 2.30793
455 2.35687
460 2.14608
465 1.67666
470 2.15606
475 1.89066
480 1.24694
485 2.40664
490 2.99202
495 2.94292
500 2.09925
505 1.75743
510 1.87634
515 2.033
520 1.25538
525 2.41672
530 1.81017
535 1.84409
540 2.01013
545 1.86667
550 1.89251
555 2.83155
560 1.95302
565 1.84947
570 1.81505
575 2.11706
580 2.7273
585 1.83906
590 1.8466
595 1.48543
600 0.169037
Ex : 273
200 1.08136
205 2.04746
210 1.39642
215 0.988742
220 1.17209
225 1.40806
230 0.82208
235 1.90718
240 1.23936
245 1.57124
250 1.32782
255 1.77735
260 1.21385
265 0.906424
270 1.21067
275 1.65738
280 0.932977
285 0.746934
290 1.38489
295 1.02362
300 1.28701
305 1.00015
310 0.84549
315 0.932464
320 1.07094
325 2.23634
330 1.81504
335 0.888027
340 1.57273
345 1.60408
350 1.36754
355 1.59524
360 1.73699
365 1.18813
370 1.53965
375 1.73709
380 1.69776
385 1.61113
390 1.46372
395 1.97089
400 1.59001
405 1.93291
410 1.51659
415 1.77018
420 1.76905
425 1.47026
430 1.15167
435 2.12197
440 1.34738
445 1.31948
450 1.78444
455 1.50494
460 1.63316
465 1.42301
470 1.17819
475 1.74072
480 1.08801
485 2.16796
490 1.84555
495 1.53239
500 1.64647
505 1.59191
510 2.09069
515 1.6631
520 1.07268
525 1.07637
530 1.09219
535 1.81825
540 1.93543
545 1.49191
550 1.42647
555 1.03016
560 1.37175
565 1.59278
570 1.30515
575 1.48292
580 1.14123
585 1.45076
590 1.29137
595 1.93512
600 1.5898
Ex : 278
200 1.54181
205 1.92656
210 1.36859
215 1.41966
220 0.753384
225 0.993457
230 1.17295
235 1.39795
240 0.943829
245 1.17675
250 0.841338
255 1.23748
260 1.65472
265 1.27067
270 1.34086
275 1.43634
280 0.999535
285 0.762893
290 0.925806
295 0.89309
300 1.25849
305 0.930006
310 1.06943
315 1.0025
320 1.16022
325 1.04123
330 1.15109
335 1.01643
340 1.2566
345 1.21593
350 1.35786
355 1.58381
360 1.0071
365 1.20194
370 1.68396
375 1.54709
380 1.76104
385 1.54767
390 1.48381
395 1.22917
400 1.50891
405 1.66228
410 1.52038
415 1.11619
420 1.21862
425 1.21108
430 1.24693
435 1.30218
440 1.11809
445 0.869877
450 1.26155
455 1.29901
460 1.67157
465 1.01208
470 1.24784
475 1.07946
480 1.41452
485 1.19075
490 1.65338
495 1.48253
500 1.56975
505 1.01021
510 1.31964
515 1.57445
520 1.00941
525 1.0096
530 0.944641
535 0.872819
540 1.19218
545 1.04944
550 1.37126
555 1.54632
560 1.20667
565 1.29507
570 1.09987
575 1.19757
580 1.26128
585 0.96474
590 1.06639
595 0.93903
600 0.106858
Ex : 283
200 0.529706
205 0.667101
210 0.669927
215 0.756508
220 0.810701
225 0.57871
230 0.594366
235 0.837438
240 1.04211
245 0.880091
250 0.66245
255 1.02101
260 1.29779
265 1.01585
270 0.857643
275 1.02043
280 0.785112
285 1.00697
290 0.906025
295 0.941716
300 0.94392
305 0.960128
310 0.73504
315 0.543703
320 1.17511
325 1.02698
330 1.67494
335 0.811073
340 1.04415
345 1.10463
350 0.713709
355 1.10495
360 0.880227
365 0.953217
370 0.946303
375 1.20818
380 1.44783
385 1.08855
390 1.04599
395 1.26427
400 1.50741
405 0.848996
410 1.00883
415 1.62555
420 1.37001
425 1.18426
430 1.02801
435 1.74371
440 1.28363
445 1.14619
450 1.47227
455 1.26496
460 0.831155
465 1.55647
470 1.46061
475 1.23841
480 0.869725
485 1.01203
490 0.906806
495 0.960891
500 1.43419
505 1.29041
510 1.13629
515 1.06471
520 0.705786
525 0.891288
530 1.03935
535 1.39382
540 1.15039
545 1.04166
550 1.22435
555 1.04272
560 1.25135
565 0.94472
570 1.32604
575 0.926246
580 0.793619
585 1.11614
590 0.825836
595 0.792544
600 0.0901885
Ex : 288
200 1.02971
205 0.867124
210 0.853333
215 0.731256
220 0.653564
225 0.686991
230 1.00333
235 0.954988
240 0.791312
245 0.34592
250 0.927686
255 0.77786
260 0.666337
265 0.578633
270 0.660739
275 0.781909
280 0.777894
285 0.603022
290 0.926684
295 0.574713
300 0.662985
305 0.642228
310 0.549485
315 0.614184
320 0.586355
325 0.934255
330 0.920606
335 0.960406
340 0.777943
345 0.905904
350 0.816544
355 0.769512
360 1.07484
365 0.938863
370 0.933856
375 1.17904
380 0.88867
385 1.18893
390 0.885161
395 1.14762
400 0.839558
405 0.936736
410 1.14032
415 0.721641
420 0.856146
425 0.99114
430 0.822713
435 0.979297
440 1.40322
445 1.15866
450 1.11946
455 0.91284
460 1.19496
465 0.831753
470 0.705715
475 1.05519
480 0.584458
485 0.91581
490 0.797008
495 0.811305
500 0.761378
505 1.06072
510 0.852158
515 0.867841
520 1.02734
525 0.834208
530 0.752927
535 0.994319
540 0.664436
545 0.995776
550 0.899499
555 0.825104
560 0.874496
565 0.725355
570 1.06937
575 1.05968
580 0.756457
585 0.644062
590 0.715173
595 0.639031
600 0.0727193
Ex : 293
200 0.516014
205 0.728821
210 0.49915
215 0.387366
220 0.905731
225 0.703606
230 0.513761
235 0.480314
240 0.505216
245 0.664587
250 0.485378
255 0.724659
260 0.694807
265 0.715409
270 0.879406
275 0.611588
280 0.563948
285 0.505681
290 0.808324
295 0.786823
300 0.626329
305 0.537244
310 0.689015
315 0.580195
320 0.475637
325 0.529983
330 0.890557
335 0.526793
340 0.693599
345 0.713814
350 0.738898
355 0.615168
360 0.601184
365 0.820592
370 0.76168
375 0.753491
380 0.932724
385 0.9155
390 0.999506
395 0.822247
400 0.719819
405 1.02514
410 1.20884
415 1.01101
420 1.01727
425 1.14663
430 0.893337
435 0.743455
440 0.896842
445 0.917073
450 1.03613
455 0.839932
460 0.712484
465 0.770247
470 0.866313
475 0.816503
480 1.05997
485 0.931623
490 0.632923
495 1.09095
500 0.881803
505 0.589742
510 0.585533
515 0.741116
520 0.549192
525 0.733466
530 0.545232
535 0.564756
540 0.498363
545 0.465975
550 0.659016
555 1.00272
560 0.759284
565 0.619851
570 0.833972
575 0.800258
580 0.938601
585 0.717857
590 0.657428
595 0.618424
600 1.60277
Ex : 298
200 0.605846
205 0.515244
210 0.423911
215 0.793626
220 0.709116
225 0.507269
230 0.693627
235 0.460882
240 0.717499
245 0.586171
250 0.280479
255 0.407643
260 0.502423
265 0.424179
270 0.433147
275 0.484314
280 0.541478
285 0.46433
290 0.88086
295 0.593014
300 0.773455
305 0.438102
310 0.37581
315 0.552837
320 0.870804
325 0.363366
330 0.57133
335 0.727004
340 0.918659
345 0.642008
350 0.536373
355 0.637148
360 0.71241
365 0.669756
370 0.954889
375 0.712019
380 0.932655
385 0.950287
390 0.975293
395 0.912731
400 1.1814
405 0.895229
410 0.956484
415 0.965021
420 1.03236
425 0.7191
430 0.618155
435 0.547898
440 0.707254
445 1.06085
450 0.760189
455 0.853863
460 0.909454
465 0.59023
470 0.722066
475 0.998917
480 0.876266
485 0.75883
490 0.795156
495 0.863145
500 0.605911
505 0.643204
510 0.698214
515 0.502227
520 0.510512
525 0.337373
530 0.574695
535 0.708509
540 0.671296
545 0.711887
550 0.623663
555 0.841411
560 0.451499
565 0.318465
570 0.763563
575 0.49079
580 0.519379
585 0.979195
590 1.11336
595 0.815303
600 0.0927784
Ex : 303
200 0.533333
205 0.357457
210 0.239824
215 0.408286
220 0.440675
225 0.400387
230 0.568602
235 0.519773
240 0.425959
245 0.597534
250 0.357552
255 0.591692
260 0.353592
265 0.522436
270 0.747389
275 0.374458
280 0.355027
285 0.337397
290 0.8493
295 0.647188
300 0.569332
305 0.338253
310 0.481764
315 0.43935
320 0.767513
325 0.48515
330 0.679937
335 0.442062
340 0.762005
345 0.811727
350 0.536161
355 0.572731
360 0.765672
365 0.682854
370 0.778728
375 0.60614
380 0.717152
385 0.805881
390 0.919307
395 1.00424
400 0.944581
405 1.0621
410 1.23461
415 0.669951
420 0.761124
425 0.943722
430 1.09422
435 0.891787
440 1.00317
445 0.836097
450 0.92084
455 0.826387
460 0.722066
465 0.792018
470 0.787822
475 0.779034
480 0.624695
485 0.490761
490 0.47955
495 0.671031
500 0.587698
505 0.452214
510 0.525955
515 0.606518
520 0.438328
525 0.493831
530 0.315757
535 0.353414
540 0.45348
545 0.559033
550 0.410109
555 0.601274
560 0.532282
565 0.839326
570 0.377486
575 0.404637
580 0.564398
585 0.502006
590 0.369175
595 0.750289
600 0.885125
Ex : 308
200 0.322591
205 0.398303
210 0.492327
215 0.546393
220 0.516865
225 0.403603
230 0.378293
235 0.398622
240 0.593274
245 0.433494
250 0.528139
255 0.512449
260 0.524307
265 0.273918
270 0.301822
275 0.477297
280 0.543526
285 0.33026
290 0.41471
295 0.367689
300 0.418261
305 0.625608
310 0.573102
315 0.276088
320 0.477229
325 0.428569
330 0.604003
335 0.555424
340 0.590535
345 0.531489
350 0.914443
355 0.85804
360 0.528143
365 0.785809
370 0.691873
375 0.661832
380 0.738386
385 0.933885
390 0.684704
395 0.637593
400 0.635524
405 0.682207
410 0.751931
415 0.723658
420 0.98903
425 0.855116
430 0.900375
435 0.605739
440 0.680719
445 0.618385
450 0.728223
455 0.906546
460 0.912942
465 0.602398
470 0.464404
475 0.67715
480 0.797996
485 0.696984
490 0.683108
495 0.653267
500 0.598551
505 0.428096
510 0.480657
515 0.577614
520 0.386085
525 0.417835
530 0.460753
535 0.606272
540 0.502921
545 0.330482
550 0.522246
555 0.501027
560 0.565173
565 0.54629
570 0.57404
575 0.369556
580 0.450302
585 0.58963
590 0.516691
595 0.49242
600 0.32682
Ex : 313
200 0.372127
205 0.30979
210 0.37303
215 0.405878
220 0.281313
225 0.564843
230 0.439384
235 0.278987
240 0.37476
245 0.302487
250 0.29941
255 0.361806
260 0.651956
265 0.43136
270 0.364381
275 0.366503
280 0.535743
285 0.312238
290 0.309839
295 0.279148
300 0.332985
305 0.600133
310 0.580543
315 0.344207
320 0.293123
325 0.496425
330 0.505064
335 0.521361
340 0.666756
345 0.441447
350 0.514625
355 0.50984
360 0.749257
365 0.950398
370 0.822303
375 0.825276
380 1.32693
385 1.20762
390 1.03635
395 1.05199
400 1.03797
405 1.04864
410 1.24656
415 1.17035
420 1.10345
425 1.28878
430 1.07043
435 0.92205
440 1.09077
445 1.2482
450 0.964869
455 0.875204
460 0.799327
465 0.834347
470 1.0207
475 0.915218
480 0.77515
485 0.713269
490 0.582847
495 0.674303
500 0.716417
505 0.617406
510 0.621177
515 0.689557
520 0.434059
525 0.520108
530 0.495103
535 0.491092
540 0.355357
545 0.558754
550 0.376998
555 0.420852
560 0.330779
565 0.458951
570 0.357507
575 0.328186
580 0.405608
585 0.522757
590 0.414022
595 0.221445
600 1.04269
Ex : 318
200 0.308723
205 0.265045
210 0.376364
215 0.545145
220 0.453493
225 0.250274
230 0.31619
235 0.408017
240 0.366677
245 0.225762
250 0.34236
255 0.332412
260 0.36918
265 0.328557
270 0.310611
275 0.370395
280 0.356556
285 0.316559
290 0.393664
295 0.263986
300 0.330297
305 0.386676
310 0.648328
315 0.714976
320 0.537346
325 0.702421
330 0.911918
335 0.868927
340 0.709387
345 1.45759
350 2.2271
355 2.7115
360 3.25068
365 4.06356
370 4.58552
375 5.49969
380 6.58598
385 7.29455
390 7.6355
395 7.70522
400 8.1507
405 8.26102
410 8.52081
415 8.09257
420 8.63066
425 8.33656
430 7.30399
435 7.80447
440 7.24042
445 6.90196
450 6.38102
455 6.49751
460 6.28167
465 5.50418
470 4.81977
475 4.54164
480 4.19164
485 3.98912
490 3.58617
495 3.39509
500 3.02599
505 2.28861
510 2.147
515 1.97346
520 1.74422
525 1.53097
530 1.24376
535 1.25688
540 0.999536
545 0.833843
550 0.750575
555 0.847543
560 0.732069
565 0.545602
570 0.540958
575 0.451262
580 0.453035
585 0.464076
590 0.477821
595 0.305865
600 0.612765
Ex : 323
200 0.173113
205 0.213072
210 0.203166
215 0.286636
220 0.257037
225 0.231625
230 0.457672
235 0.355762
240 0.241923
245 0.360013
250 0.375928
255 0.332148
260 0.398237
265 0.356523
270 0.352143
275 0.289899
280 0.331658
285 0.407743
290 0.376824
295 0.171123
300 0.234361
305 0.3597
310 0.384596
315 1.88877
320 7.4598
325 3.89856
330 1.97279
335 2.81801
340 4.06902
345 5.79359
350 8.51559
355 11.3784
360 13.5297
365 16.8716
370 19.9338
375 22.7026
380 26.2666
385 28.5298
390 30.5997
395 31.9949
400 32.7419
405 33.8763
410 34.9654
415 34.0774
420 31.9029
425 31.9744
430 30.547
435 29.4351
440 28.4321
445 27.1986
450 25.1975
455 23.9852
460 22.5168
465 21.3201
470 19.6625
475 18.2496
480 16.4189
485 14.8667
490 13.4924
495 12.1483
500 10.375
505 9.13887
510 8.70355
515 7.30822
520 6.19126
525 5.08424
530 4.63478
535 4.04222
540 3.32695
545 3.01861
550 2.54199
555 2.36342
560 2.13318
565 1.6493
570 1.16979
575 1.11425
580 0.969838
585 0.693849
590 0.716798
595 0.516473
600 0.0763213
Ex : 328
200 0.358082
205 0.384286
210 0.283138
215 0.254053
220 0.309897
225 0.393381
230 0.304193
235 0.232236
240 0.229658
245 0.200254
250 0.344271
255 0.279612
260 0.23376
265 0.337705
270 0.245626
275 0.361878
280 0.236535
285 0.274391
290 0.272609
295 0.267468
300 0.284849
305 0.241984
310 0.352484
315 0.587174
320 18.1697
325 44.2722
330 15.1619
335 4.79824
340 5.29587
345 7.12998
350 9.36809
355 12.6744
360 18.0913
365 20.2985
370 22.2814
375 25.2623
380 29.1391
385 30.8186
390 33.1151
395 35.1494
400 36.289
405 36.3119
410 37.2327
415 36.5609
420 35.5932
425 33.5209
430 33.8129
435 31.6131
440 29.791
445 28.6443
450 27.3157
455 25.4565
460 24.6403
465 22.1176
470 20.7128
475 19.8006
480 18.0151
485 15.79
490 13.9039
495 12.8785
500 11.3369
505 10.0721
510 8.77955
515 7.56571
520 7.01834
525 6.04305
530 5.00267
535 4.26077
540 3.99218
545 3.56232
550 3.206
555 2.39089
560 2.0795
565 2.07905
570 1.60468
575 1.28717
580 0.982135
585 0.842632
590 0.690724
595 0.686257
600 0.979845
Ex : 333
200 0.255466
205 0.361633
210 0.29808
215 0.236267
220 0.265702
225 0.182603
230 0.257898
235 0.253751
240 0.216575
245 0.23035
250 0.326981
255 0.249116
260 0.292085
265 0.259394
270 0.204
275 0.35258
280 0.304483
285 0.24095
290 0.328439
295 0.394864
300 0.291551
305 0.236902
310 0.279257
315 0.271647
320 2.82833
325 53.2815
330 94.0448
335 26.4806
340 6.24383
345 5.02314
350 5.96332
355 6.77494
360 9.92998
365 14.68
370 15.625
375 15.6058
380 16.1971
385 17.5851
390 18.4284
395 19.73
400 20.0519
405 20.3385
410 19.7876
415 19.0811
420 19.9225
425 18.4528
430 17.4564
435 17.0874
440 16.0295
445 16.3722
450 14.3775
455 13.492
460 13.3109
465 11.9123
470 11.037
475 9.9713
480 9.33644
485 8.20617
490 7.57115
495 6.94626
500 6.34485
505 5.37186
510 5.04334
515 4.45151
520 3.81352
525 3.33614
530 2.95251
535 2.60044
540 2.49125
545 2.04361
550 1.85603
555 1.67605
560 1.49761
565 1.30111
570 1.13846
575 0.86153
580 0.636152
585 0.67004
590 0.522878
595 0.410453
600 2.5324
Ex : 338
200 0.258645
205 0.196541
210 0.336941
215 0.337024
220 0.170297
225 0.248825
230 0.23761
235 0.237497
240 0.376373
245 0.290008
250 0.321486
255 0.23616
260 0.278004
265 0.231492
270 0.268517
275 0.337944
280 0.228535
285 0.357364
290 0.268579
295 0.351756
300 0.435576
305 0.271895
310 0.352985
315 0.293706
320 0.224343
325 5.80906
330 86.1092
335 124.76
340 31.603
345 6.3106
350 3.9375
355 3.72475
360 3.65902
365 5.95247
370 10.4817
375 10.923
380 9.74857
385 8.5561
390 8.74504
395 8.85768
400 9.53386
405 9.79633
410 9.22728
415 8.98465
420 8.95593
425 8.96729
430 8.21106
435 7.96449
440 8.16326
445 7.76987
450 7.09692
455 6.83702
460 6.53874
465 5.90881
470 5.76869
475 5.63875
480 4.99322
485 4.42748
490 4.27228
495 3.68753
500 3.55717
505 3.32051
510 2.92681
515 2.66631
520 2.34487
525 2.14625
530 1.96463
535 1.72277
540 1.4418
545 1.32443
550 1.26908
555 1.2419
560 0.984836
565 0.878087
570 0.70655
575 0.755495
580 0.684136
585 0.532879
590 0.545377
595 0.581442
600 0.181758
Ex : 343
200 0.209306
205 0.236956
210 0.190336
215 0.155547
220 0.172313
225 0.220114
230 0.0986116
235 0.154373
240 0.193104
245 0.297244
250 0.222571
255 0.192727
260 0.309115
265 0.28455
270 0.28022
275 0.196866
280 0.160996
285 0.238029
290 0.170876
295 0.136469
300 0.247475
305 0.343433
310 0.210226
315 0.167551
320 0.191752
325 0.316132
330 6.40685
335 96.0357
340 140.534
345 34.6929
350 5.93594
355 3.30377
360 2.77378
365 2.36349
370 3.60164
375 7.77141
380 8.52379
385 6.36276
390 5.27096
395 4.92307
400 5.39366
405 5.32846
410 5.63391
415 5.65874
420 5.61029
425 5.65916
430 5.27089
435 5.27004
440 5.03642
445 5.26245
450 4.83991
455 4.88556
460 4.45017
465 4.64349
470 4.20422
475 4.26975
480 4.08896
485 3.48981
490 3.23167
495 3.14578
500 2.89861
505 2.7599
510 2.55849
515 2.12716
520 2.04964
525 1.87807
530 1.79539
535 1.51538
540 1.27375
545 1.29323
550 1.17974
555 1.02501
560 0.923072
565 0.742041
570 0.691308
575 0.569533
580 0.628487
585 0.694812
590 0.497085
595 0.400973
600 0.234686
Ex : 348
200 0.280534
205 0.331839
210 0.216052
215 0.143236
220 0.178372
225 0.264011
230 0.231598
235 0.240725
240 0.262865
245 0.168121
250 0.201189
255 0.192621
260 0.18572
265 0.280789
270 0.190535
275 0.215376
280 0.337364
285 0.152181
290 0.141704
295 0.20569
300 0.238874
305 0.166041
310 0.291067
315 0.187706
320 0.234927
325 0.225212
330 0.355329
335 6.79884
340 99.4084
345 143.657
350 37.4087
355 5.91571
360 2.6869
365 2.55302
370 1.91914
375 2.62225
380 5.36226
385 7.68875
390 5.8618
395 4.88981
400 4.11148
405 4.25646
410 4.27958
415 4.46733
420 4.49779
425 4.43489
430 4.44724
435 4.77509
440 4.67804
445 4.77436
450 4.45748
455 4.44006
460 4.21379
465 4.19708
470 3.94688
475 4.1011
480 3.81643
485 3.47491
490 3.40106
495 3.26321
500 3.0327
505 2.48985
510 2.40188
515 2.2636
520 1.93173
525 1.87247
530 1.75678
535 1.6024
540 1.33639
545 1.3044
550 1.1101
555 1.10041
560 1.0813
565 0.977944
570 0.708734
575 0.5627
580 0.517256
585 0.444738
590 0.406608
595 0.44239
600 0.338494
Ex : 353
200 0.130058
205 0.167769
210 0.155589
215 0.175434
220 0.263335
225 0.19814
230 0.158689
235 0.226206
240 0.222608
245 0.198007
250 0.250316
255 0.232038
260 0.153993
265 0.194032
270 0.12691
275 0.249954
280 0.27138
285 0.131327
290 0.142345
295 0.183637
300 0.236693
305 0.171629
310 0.203067
315 0.160262
320 0.204743
325 0.220031
330 0.317143
335 0.330034
340 6.8249
345 98.6538
350 145.773
355 35.8682
360 5.52114
365 2.41338
370 2.48899
375 2.20868
380 2.10783
385 4.26103
390 6.85193
395 6.10541
400 4.7971
405 4.10878
410 3.87317
415 4.20875
420 4.06319
425 4.18232
430 4.38295
435 4.11554
440 4.25284
445 4.49673
450 4.38658
455 4.20344
460 4.19082
465 4.29848
470 3.81646
475 4.42531
480 4.11952
485 3.79601
490 3.52849
495 3.27191
500 3.03656
505 2.80302
510 2.69584
515 2.28422
520 2.04083
525 2.0773
530 1.87149
535 1.55535
540 1.41128
545 1.17689
550 1.17672
555 1.02205
560 0.970081
565 0.976441
570 0.766681
575 0.566774
580 0.569134
585 0.53631
590 0.482105
595 0.323751
600 0.402338
Ex : 358
200 0.180326
205 0.227496
210 0.176008
215 0.168545
220 0.173548
225 0.178484
230 0.143726
235 0.186164
240 0.204914
245 0.20162
250 0.168192
255 0.229139
260 0.126803
265 0.243186
270 0.12704
275 0.109801
280 0.126601
285 0.122216
290 0.136794
295 0.14907
300 0.108925
305 0.200586
310 0.221099
315 0.20752
320 0.20691
325 0.182997
330 0.317247
335 0.276315
340 0.290517
345 6.84049
350 97.7667
355 147.766
360 37.0493
365 5.68398
370 2.33764
375 2.6161
380 1.96073
385 1.93421
390 3.62764
395 7.16589
400 6.91374
405 5.46672
410 4.39222
415 4.20065
420 4.38995
425 4.15432
430 3.8495
435 4.29748
440 4.25714
445 4.37358
450 4.35358
455 4.61346
460 4.67694
465 4.35644
470 3.92918
475 4.36939
480 4.21286
485 4.03462
490 3.50153
495 3.49066
500 3.43519
505 2.73392
510 2.66766
515 2.4027
520 2.17496
525 1.97859
530 1.84275
535 1.57624
540 1.52107
545 1.33077
550 1.23221
555 1.03139
560 0.976636
565 0.906405
570 0.72238
575 0.75517
580 0.577745
585 0.373676
590 0.41185
595 0.363672
600 0.221395
Ex : 363
200 0.138085
205 0.106833
210 0.0986033
215 0.147446
220 0.122194
225 0.246413
230 0.161446
235 0.168119
240 0.177594
245 0.130447
250 0.149594
255 0.15393
260 0.224178
265 0.269072
270 0.246508
275 0.252522
280 0.18475
285 0.255753
290 0.179951
295 0.136495
300 0.187052
305 0.162052
310 0.114332
315 0.21709
320 0.136295
325 0.186156
330 0.160111
335 0.19445
340 0.218522
345 0.331152
350 5.9113
355 93.2717
360 144.517
365 38.3286
370 5.6298
375 2.46284
380 2.26431
385 1.94805
390 1.65197
395 2.76683
400 5.80671
405 6.97379
410 5.0102
415 4.30713
420 3.95265
425 3.79102
430 4.09615
435 4.43132
440 4.46007
445 4.52308
450 4.43371
455 4.72074
460 4.53064
465 4.56901
470 4.40223
475 4.28465
480 4.29859
485 4.0042
490 3.78424
495 3.6307
500 3.4064
505 3.08294
510 3.1032
515 2.72307
520 2.3495
525 2.21758
530 1.89655
535 1.79325
540 1.50133
545 1.53318
550 1.29932
555 1.15038
560 1.01827
565 0.916328
570 0.908183
575 0.658944
580 0.611784
585 0.381771
590 0.398886
595 0.316255
600 0.421487
Ex : 368
200 0.248251
205 0.189324
210 0.0900916
215 0.11536
220 0.285188
225 0.184961
230 0.116062
235 0.200509
240 0.17006
245 0.103238
250 0.152625
255 0.18536
260 0.100771
265 0.120496
270 0.0975128
275 0.184615
280 0.239501
285 0.199855
290 0.189606
295 0.169178
300 0.183133
305 0.163027
310 0.189378
315 0.177928
320 0.175223
325 0.184701
330 0.236241
335 0.19506
340 0.305028
345 0.303436
350 0.244456
355 4.9067
360 91.5715
365 148.534
370 39.7688
375 5.99397
380 2.1772
385 2.08656
390 2.10146
395 1.84504
400 2.47179
405 4.80761
410 6.93581
415 5.76779
420 4.88596
425 3.99618
430 3.95873
435 4.4582
440 4.13628
445 4.5675
450 4.69103
455 4.48799
460 4.59664
465 4.61012
470 4.92269
475 4.39905
480 4.10108
485 4.14481
490 3.98096
495 3.61032
500 3.64357
505 3.169
510 2.91983
515 2.65669
520 2.47443
525 2.33759
530 2.01496
535 1.89737
540 1.70843
545 1.56127
550 1.34461
555 1.14904
560 1.085
565 1.00722
570 0.753169
575 0.720997
580 0.563087
585 0.432978
590 0.421737
595 0.332667
600 0.411211
Ex : 373
200 0.157824
205 0.134971
210 0.150933
215 0.156648
220 0.190893
225 0.16142
230 0.162975
235 0.170155
240 0.111848
245 0.160305
250 0.129851
255 0.12971
260 0.101004
265 0.141049
270 0.144403
275 0.145001
280 0.169186
285 0.229391
290 0.135942
295 0.159595
300 0.132892
305 0.128119
310 0.142038
315 0.225635
320 0.203863
325 0.133565
330 0.125905
335 0.153833
340 0.190997
345 0.159711
350 0.250671
355 0.300861
360 5.83649
365 91.4753
370 146.256
375 39.6764
380 5.91051
385 2.22301
390 2.32044
395 2.48095
400 2.1697
405 2.61941
410 4.51067
415 6.96595
420 5.72491
425 4.84899
430 4.21864
435 4.23238
440 4.20658
445 4.5593
450 4.53161
455 4.73108
460 4.71634
465 4.62763
470 4.52602
475 4.39233
480 4.12928
485 4.19914
490 3.89895
495 3.4784
500 3.50565
505 3.30074
510 3.11224
515 2.70317
520 2.55463
525 2.39854
530 2.00535
535 2.01299
540 1.51918
545 1.37104
550 1.34626
555 1.17746
560 1.07347
565 0.905682
570 0.829996
575 0.804821
580 0.547105
585 0.398591
590 0.365929
595 0.410398
600 0.0467017
Ex : 378
200 0.160874
205 0.175913
210 0.0835184
215 0.110757
220 0.200803
225 0.099017
230 0.11117
235 0.0978796
240 0.145957
245 0.182398
250 0.128993
255 0.153368
260 0.156501
265 0.164205
270 0.176694
275 0.158234
280 0.121758
285 0.154074
290 0.128581
295 0.139572
300 0.145152
305 0.136962
310 0.176978
315 0.144722
320 0.142481
325 0.142297
330 0.147535
335 0.159533
340 0.266709
345 0.114822
350 0.199098
355 0.212476
360 0.283121
365 5.20164
370 91.3416
375 147.262
380 40.1299
385 5.94037
390 2.34629
395 2.89052
400 2.7331
405 2.7839
410 2.85288
415 4.20351
420 6.84457
425 6.39034
430 4.94975
435 4.7718
440 4.40495
445 4.49639
450 4.48664
455 4.47248
460 4.31347
465 4.2955
470 4.43443
475 4.21921
480 4.20201
485 4.41145
490 4.04332
495 3.62584
500 3.46192
505 3.16629
510 2.93703
515 2.67964
520 2.36352
525 2.3304
530 2.02912
535 1.81038
540 1.59091
545 1.47799
550 1.53031
555 1.25836
560 0.96831
565 0.933093
570 0.816571
575 0.763304
580 0.525834
585 0.435931
590 0.345214
595 0.309204
600 0.361104
Ex : 383
200 0.130948
205 0.0951318
210 0.131272
215 0.141539
220 0.115103
225 0.159852
230 0.138293
235 0.116271
240 0.0822512
245 0.142782
250 0.132263
255 0.137275
260 0.123055
265 0.209323
270 0.178551
275 0.0991329
280 0.163288
285 0.101792
290 0.118227
295 0.170068
300 0.0994784
305 0.110711
310 0.134292
315 0.0961822
320 0.17142
325 0.135329
330 0.123721
335 0.132717
340 0.151108
345 0.168914
350 0.153075
355 0.16551
360 0.20225
365 0.24743
370 5.02499
375 87.228
380 146.729
385 40.6399
390 6.11263
395 2.14431
400 2.31557
405 2.70435
410 2.57953
415 2.67931
420 3.70108
425 6.09636
430 6.34769
435 5.4597
440 5.10041
445 4.7697
450 4.54764
455 4.32642
460 4.50712
465 4.46202
470 4.23032
475 4.42288
480 4.35781
485 4.1939
490 4.11181
495 3.67853
500 3.63082
505 3.20578
510 2.79611
515 2.8237
520 2.45303
525 2.29998
530 2.04994
535 1.86511
540 1.70294
545 1.56372
550 1.33648
555 1.30233
560 1.17356
565 0.792825
570 0.679851
575 0.655741
580 0.60293
585 0.468991
590 0.428779
595 0.274266
600 0.0627354
Ex : 388
200 0.172172
205 0.182991
210 0.0960339
215 0.131866
220 0.13703
225 0.0977044
230 0.135304
235 0.124199
240 0.0950808
245 0.112338
250 0.152664
255 0.159211
260 0.269136
265 0.108439
270 0.0817167
275 0.110667
280 0.122916
285 0.077794
290 0.125357
295 0.103982
300 0.122769
305 0.174408
310 0.104317
315 0.176117
320 0.171084
325 0.141651
330 0.110585
335 0.0866763
340 0.159569
345 0.160061
350 0.135119
355 0.205329
360 0.158403
365 0.208348
370 0.231748
375 5.13043
380 89.2019
385 146.021
390 39.8423
395 5.80035
400 2.01618
405 2.38312
410 2.66297
415 2.67168
420 2.75197
425 2.97403
430 5.12099
435 6.59524
440 5.62685
445 4.88491
450 4.18758
455 4.0705
460 4.10195
465 4.03127
470 4.22531
475 4.01706
480 3.95781
485 3.96525
490 3.89982
495 3.84961
500 3.65491
505 3.29099
510 2.98682
515 2.62291
520 2.47083
525 2.29813
530 1.97839
535 1.88501
540 1.65194
545 1.54504
550 1.4374
555 1.195
560 1.17564
565 1.01261
570 0.792912
575 0.628892
580 0.613923
585 0.430217
590 0.362997
595 0.379383
600 0.279944
Ex : 393
200 0.149245
205 0.0980331
210 0.141204
215 0.114959
220 0.078721
225 0.0742171
230 0.0686015
235 0.103672
240 0.160861
245 0.111762
250 0.0948776
255 0.102694
260 0.0985808
265 0.13093
270 0.156741
275 0.120615
280 0.116054
285 0.123925
290 0.129305
295 0.126692
300 0.134174
305 0.142307
310 0.123079
315 0.135661
320 0.0993278
325 0.14056
330 0.132615
335 0.154986
340 0.140896
345 0.119704
350 0.126379
355 0.136385
360 0.117438
365 0.218043
370 0.30985
375 0.320462
380 4.38335
385 86.6254
390 147.804
395 40.7312
400 6.03529
405 2.23974
410 2.65954
415 2.59541
420 2.55352
425 2.27376
430 2.53396
435 4.17326
440 6.04826
445 5.38767
450 4.45436
455 3.99948
460 3.69965
465 3.74597
470 3.82616
475 3.59395
480 3.65753
485 3.6182
490 3.53745
495 3.39875
500 3.18143
505 3.15729
510 2.8281
515 2.81606
520 2.43053
525 2.24815
530 1.97286
535 1.83931
540 1.69191
545 1.46711
550 1.33789
555 1.16358
560 0.977163
565 0.915104
570 0.803987
575 0.66599
580 0.589224
585 0.423803
590 0.310614
595 0.288559
600 0.38156
Ex : 398
200 0.107535
205 0.138195
210 0.0991352
215 0.119233
220 0.0975055
225 0.120855
230 0.0647185
235 0.158832
240 0.110428
245 0.12336
250 0.105045
255 0.115873
260 0.105887
265 0.119451
270 0.16411
275 0.107802
280 0.117234
285 0.107887
290 0.15125
295 0.122729
300 0.109688
305 0.0884653
310 0.0969013
315 0.0788849
320 0.184386
325 0.142351
330 0.0907621
335 0.152275
340 0.109962
345 0.0928026
350 0.1919
355 0.221219
360 0.218364
365 0.182887
370 0.163321
375 0.182385
380 0.263594
385 4.70629
390 87.2649
395 148.806
400 40.707
405 6.02652
410 2.26641
415 2.30368
420 2.54548
425 2.22001
430 2.27215
435 2.46418
440 3.63153
445 5.64136
450 5.41155
455 4.39201
460 4.0356
465 3.62924
470 3.73854
475 3.46272
480 3.39217
485 3.40066
490 3.50764
495 3.25622
500 2.97835
505 2.85591
510 2.80886
515 2.5518
520 2.42531
525 2.0421
530 1.95741
535 1.7402
540 1.55791
545 1.42975
550 1.32404
555 1.13798
560 0.928493
565 0.882947
570 0.831983
575 0.600088
580 0.46783
585 0.402422
590 0.413543
595 0.330288
600 0.263658
Ex : 403
200 0.15603
205 0.143375
210 0.0892269
215 0.0985627
220 0.138441
225 0.122354
230 0.118946
235 0.131372
240 0.1331
245 0.113193
250 0.0799182
255 0.124838
260 0.127844
265 0.134989
270 0.0636307
275 0.0868597
280 0.0816896
285 0.112373
290 0.12189
295 0.138972
300 0.12405
305 0.178593
310 0.115522
315 0.104973
320 0.135859
325 0.155345
330 0.117781
335 0.101047
340 0.138183
345 0.176494
350 0.139151
355 0.179349
360 0.157128
365 0.11059
370 0.150191
375 0.220237
380 0.173089
385 0.294721
390 5.34103
395 89.5273
400 147.198
405 40.1449
410 6.13418
415 2.37737
420 2.3077
425 2.61382
430 2.4306
435 2.39491
440 2.65391
445 3.2247
450 5.29018
455 5.76038
460 4.66444
465 4.11404
470 3.65821
475 3.32586
480 3.33065
485 3.24647
490 3.19522
495 2.9695
500 2.68602
505 2.83684
510 2.53554
515 2.25554
520 2.21672
525 2.06465
530 1.82438
535 1.78164
540 1.63381
545 1.37561
550 1.32142
555 1.14755
560 1.00782
565 0.957525
570 0.705803
575 0.632215
580 0.571227
585 0.43047
590 0.368181
595 0.26314
600 0.178657
Ex : 408
200 0.13067
205 0.113933
210 0.120716
215 0.168478
220 0.166258
225 0.114071
230 0.122273
235 0.0983558
240 0.0943577
245 0.0886223
250 0.116522
255 0.153533
260 0.182326
265 0.0927883
270 0.161118
275 0.130684
280 0.101729
285 0.0763641
290 0.131675
295 0.123564
300 0.104074
305 0.132525
310 0.10497
315 0.133043
320 0.163225
325 0.132673
330 0.130601
335 0.0858306
340 0.136337
345 0.134546
350 0.129646
355 0.11844
360 0.11829
365 0.112451
370 0.12581
375 0.105465
380 0.137085
385 0.217774
390 0.290592
395 4.86328
400 89.3761
405 146.673
410 39.6808
415 6.21608
420 2.35018
425 2.16231
430 2.41743
435 2.44139
440 2.29794
445 2.47915
450 2.67698
455 4.19391
460 5.69741
465 4.40699
470 3.93455
475 3.5621
480 3.09896
485 3.12619
490 2.99555
495 2.88404
500 2.70694
505 2.65654
510 2.41321
515 2.37134
520 2.22448
525 2.03614
530 1.86105
535 1.63339
540 1.65252
545 1.32168
550 1.27195
555 1.10854
560 0.944204
565 0.79818
570 0.718257
575 0.596223
580 0.626935
585 0.379377
590 0.35268
595 0.356396
600 0.608091
Ex : 413
200 0.101656
205 0.185809
210 0.166873
215 0.0880584
220 0.0903518
225 0.118559
230 0.143529
235 0.155615
240 0.147457
245 0.195393
250 0.0971802
255 0.186324
260 0.144287
265 0.0845286
270 0.114952
275 0.114751
280 0.0948855
285 0.139243
290 0.0920596
295 0.100087
300 0.121874
305 0.119001
310 0.0962448
315 0.125123
320 0.12688
325 0.195852
330 0.131508
335 0.107405
340 0.101062
345 0.0879158
350 0.115873
355 0.117882
360 0.102519
365 0.0936931
370 0.116151
375 0.199977
380 0.131955
385 0.137434
390 0.186307
395 0.294638
400 5.42619
405 92.5742
410 146.743
415 38.5624
420 5.73318
425 1.85004
430 1.76817
435 2.10609
440 2.14472
445 1.90827
450 1.7204
455 2.07906
460 3.19236
465 5.00328
470 4.51808
475 3.43946
480 3.30559
485 2.94245
490 2.77821
495 2.70006
500 2.3923
505 2.34478
510 2.08227
515 2.07298
520 2.00262
525 1.82249
530 1.65678
535 1.51668
540 1.27333
545 1.23836
550 1.11265
555 0.997901
560 0.899377
565 0.773165
570 0.758618
575 0.57893
580 0.460838
585 0.413155
590 0.310132
595 0.324005
600 0.38249
Ex : 418
200 0.195434
205 0.160289
210 0.172363
215 0.106651
220 0.13594
225 0.131977
230 0.161952
235 0.072684
240 0.0861058
245 0.074228
250 0.159851
255 0.115356
260 0.103014
265 0.0962535
270 0.100783
275 0.0589238
280 0.109932
285 0.133572
290 0.125914
295 0.0745286
300 0.116904
305 0.0948222
310 0.103157
315 0.10439
320 0.0767302
325 0.172968
330 0.11003
335 0.139471
340 0.0981781
345 0.202355
350 0.114185
355 0.1285
360 0.151968
365 0.122174
370 0.130876
375 0.0915866
380 0.10762
385 0.165611
390 0.165286
395 0.152528
400 0.281
405 5.30807
410 91.8868
415 150.09
420 40.4349
425 5.63461
430 1.71979
435 1.34796
440 1.71604
445 1.6725
450 1.65375
455 1.49918
460 1.59122
465 2.49492
470 4.22554
475 4.46258
480 3.19499
485 3.04262
490 2.65569
495 2.24681
500 2.23899
505 2.13872
510 1.97903
515 1.84699
520 1.7603
525 1.69738
530 1.57589
535 1.46094
540 1.33816
545 1.25156
550 1.01741
555 0.993927
560 0.905682
565 0.71885
570 0.653744
575 0.597012
580 0.605325
585 0.370494
590 0.273844
595 0.276468
600 0.127978
Ex : 423
200 0.134714
205 0.0719124
210 0.115756
215 0.120987
220 0.0898219
225 0.122241
230 0.0996565
235 0.149306
240 0.111623
245 0.0888333
250 0.147824
255 0.108872
260 0.103248
265 0.0903203
270 0.113689
275 0.100868
280 0.0822415
285 0.0806274
290 0.107122
295 0.103002
300 0.149391
305 0.105857
310 0.118716
315 0.0770095
320 0.112501
325 0.0639454
330 0.098393
335 0.104218
340 0.12583
345 0.127954
350 0.193289
355 0.184302
360 0.129526
365 0.149193
370 0.110259
375 0.10383
380 0.150891
385 0.133973
390 0.093381
395 0.131239
400 0.214527
405 0.260706
410 5.1832
415 96.2316
420 148.504
425 38.2226
430 5.18524
435 1.50581
440 1.15352
445 1.38508
450 1.52945
455 1.36699
460 1.28614
465 1.52197
470 1.93691
475 3.65874
480 4.22253
485 3.10929
490 2.61605
495 2.52839
500 2.15894
505 1.79373
510 1.7912
515 1.79638
520 1.62919
525 1.62206
530 1.44191
535 1.26588
540 1.20355
545 1.0343
550 1.02842
555 1.04038
560 0.799323
565 0.753687
570 0.661511
575 0.651498
580 0.466403
585 0.346584
590 0.30688
595 0.232946
600 0.0610358
Ex : 428
200 0.111674
205 0.106628
210 0.112012
215 0.0661177
220 0.155059
225 0.145511
230 0.0989235
235 0.0869804
240 0.129541
245 0.14
250 0.10203
255 0.10052
260 0.117123
265 0.131234
270 0.135187
275 0.113126
280 0.0920037
285 0.133295
290 0.106738
295 0.12191
300 0.101694
305 0.112566
310 0.128139
315 0.129468
320 0.166159
325 0.140372
330 0.152307
335 0.121629
340 0.0992146
345 0.12986
350 0.118246
355 0.0900554
360 0.118574
365 0.0982184
370 0.0736322
375 0.128366
380 0.112768
385 0.136189
390 0.129008
395 0.174525
400 0.173928
405 0.231546
410 0.284669
415 6.0001
420 96.8602
425 152.533
430 39.9534
435 5.37877
440 1.34844
445 0.966272
450 1.26725
455 1.3946
460 1.29894
465 1.40597
470 1.41359
475 1.57364
480 2.7969
485 4.14349
490 3.23426
495 2.56456
500 2.41509
505 1.86324
510 1.73654
515 1.59697
520 1.46694
525 1.34185
530 1.35412
535 1.27612
540 1.2285
545 1.14167
550 0.956843
555 0.86481
560 0.732826
565 0.803887
570 0.593368
575 0.555009
580 0.396024
585 0.338346
590 0.342941
595 0.268627
600 0.145775
Ex : 433
200 0.107767
205 0.121702
210 0.150859
215 0.146678
220 0.098381
225 0.121516
230 0.0802375
235 0.110639
240 0.0994241
245 0.135671
250 0.108018
255 0.144351
260 0.140081
265 0.104994
270 0.10342
275 0.097489
280 0.105963
285 0.115641
290 0.168468
295 0.0835716
300 0.104696
305 0.144976
310 0.149734
315 0.0978698
320 0.119521
325 0.0941197
330 0.107643
335 0.13295
340 0.106277
345 0.102389
350 0.136747
355 0.141043
360 0.107221
365 0.114651
370 0.157765
375 0.101832
380 0.126449
385 0.128514
390 0.138335
395 0.194409
400 0.162581
405 0.195457
410 0.248731
415 0.243522
420 6.56251
425 104.938
430 154.836
435 39.0471
440 5.28935
445 1.52477
450 1.00764
455 1.41842
460 1.36279
465 1.33754
470 1.22378
475 1.26139
480 1.38743
485 2.29056
490 4.1787
495 3.39759
500 2.58393
505 2.27172
510 1.94211
515 1.54906
520 1.41898
525 1.24424
530 1.31595
535 1.15945
540 1.13234
545 1.00446
550 0.951373
555 0.924803
560 0.706104
565 0.679989
570 0.673873
575 0.484569
580 0.427842
585 0.37905
590 0.329746
595 0.288288
600 0.0328061
Ex : 438
200 0.148066
205 0.115316
210 0.11932
215 0.139254
220 0.0729079
225 0.11246
230 0.132491
235 0.136717
240 0.0889737
245 0.120285
250 0.0552365
255 0.137119
260 0.114071
265 0.108861
270 0.131912
275 0.0980113
280 0.0769263
285 0.114926
290 0.089792
295 0.149289
300 0.143168
305 0.104208
310 0.0786119
315 0.142935
320 0.129461
325 0.0907749
330 0.0929968
335 0.127159
340 0.123083
345 0.155482
350 0.0903156
355 0.140829
360 0.148002
365 0.0873291
370 0.114114
375 0.100969
380 0.133327
385 0.113506
390 0.142074
395 0.13597
400 0.135219
405 0.145212
410 0.206922
415 0.203707
420 0.306316
425 6.4052
430 105.405
435 165.332
440 41.1285
445 5.5498
450 1.51733
455 1.13508
460 1.37592
465 1.55679
470 1.33657
475 1.25198
480 1.23176
485 1.37548
490 1.82566
495 3.12294
500 3.9263
505 2.50736
510 1.99807
515 1.85277
520 1.5074
525 1.28838
530 1.24114
535 1.14949
540 1.00471
545 0.979948
550 0.925639
555 0.860379
560 0.745619
565 0.663071
570 0.598563
575 0.584849
580 0.486252
585 0.375531
590 0.335614
595 0.300635
600 0.296574
Ex : 443
200 0.1476
205 0.0887064
210 0.119485
215 0.146069
220 0.109764
225 0.0822986
230 0.102228
235 0.0915461
240 0.197519
245 0.09977
250 0.0630838
255 0.127341
260 0.111981
265 0.1256
270 0.0848017
275 0.121876
280 0.0982863
285 0.0867961
290 0.125202
295 0.082488
300 0.10849
305 0.143041
310 0.115622
315 0.0915069
320 0.121543
325 0.119369
330 0.10643
335 0.188416
340 0.109812
345 0.143651
350 0.176834
355 0.105163
360 0.124929
365 0.11003
370 0.103003
375 0.14441
380 0.148645
385 0.124744
390 0.118756
395 0.158064
400 0.176674
405 0.125187
410 0.14764
415 0.147096
420 0.242921
425 0.311095
430 7.09708
435 112.666
440 170.596
445 42.6251
450 5.71609
455 1.65607
460 1.00695
465 1.22431
470 1.44581
475 1.41099
480 1.14882
485 1.1217
490 1.25733
495 1.44143
500 2.81701
505 3.57994
510 2.72711
515 1.90457
520 1.77268
525 1.43214
530 1.2496
535 1.16419
540 1.02375
545 0.987283
550 1.01936
555 0.889691
560 0.807462
565 0.781164
570 0.613843
575 0.478936
580 0.401379
585 0.383073
590 0.355368
595 0.253592
600 0.231079
Ex : 448
200 0.1735
205 0.108023
210 0.121126
215 0.122865
220 0.141387
225 0.125957
230 0.131811
235 0.138117
240 0.159549
245 0.119761
250 0.146152
255 0.107185
260 0.109577
265 0.167703
270 0.14876
275 0.125709
280 0.143441
285 0.131512
290 0.125839
295 0.133459
300 0.16059
305 0.0931451
310 0.100595
315 0.123159
320 0.149709
325 0.134356
330 0.120442
335 0.0862709
340 0.137431
345 0.131402
350 0.0924656
355 0.157773
360 0.112411
365 0.11993
370 0.13016
375 0.118823
380 0.127374
385 0.155688
390 0.142004
395 0.167412
400 0.155067
405 0.136835
410 0.101558
415 0.138066
420 0.18691
425 0.147209
430 0.283288
435 7.56116
440 120.272
445 180.667
450 45.2537
455 6.00669
460 1.61417
465 0.992606
470 1.272
475 1.56229
480 1.27261
485 1.13907
490 1.1099
495 1.08583
500 1.35316
505 2.1419
510 3.37551
515 2.912
520 1.89333
525 1.77069
530 1.49212
535 1.2872
540 1.11792
545 0.976056
550 0.940255
555 0.778533
560 0.829921
565 0.744011
570 0.571395
575 0.492943
580 0.37969
585 0.395666
590 0.344355
595 0.363842
600 0.445846
Ex : 453
200 0.0921954
205 0.112353
210 0.150653
215 0.0986414
220 0.0885777
225 0.0984107
230 0.108263
235 0.0974159
240 0.099545
245 0.137708
250 0.12418
255 0.126301
260 0.138364
265 0.120378
270 0.119826
275 0.10186
280 0.108228
285 0.103553
290 0.154395
295 0.127874
300 0.155967
305 0.135422
310 0.130612
315 0.101933
320 0.137382
325 0.141813
330 0.12027
335 0.123164
340 0.114516
345 0.121882
350 0.0861255
355 0.0894905
360 0.102361
365 0.114576
370 0.111193
375 0.124253
380 0.132269
385 0.119674
390 0.145401
395 0.129882
400 0.124594
405 0.138343
410 0.107937
415 0.175766
420 0.151744
425 0.200094
430 0.229364
435 0.381388
440 7.88153
445 128.393
450 184.373
455 44.0412
460 5.91955
465 1.64683
470 0.958924
475 1.14192
480 1.40205
485 1.44135
490 1.27259
495 1.04662
500 1.10864
505 1.17949
510 1.56204
515 2.99433
520 3.16081
525 1.91982
530 1.65405
535 1.47761
540 1.21585
545 1.10378
550 0.85803
555 0.89507
560 0.71534
565 0.708426
570 0.605579
575 0.451283
580 0.44097
585 0.366384
590 0.370939
595 0.273142
600 0.529045
Ex : 458
200 0.136753
205 0.104015
210 0.115658
215 0.113584
220 0.118233
225 0.147099
230 0.12783
235 0.136575
240 0.15081
245 0.129606
250 0.117316
255 0.0932128
260 0.135678
265 0.133554
270 0.113904
275 0.128387
280 0.10608
285 0.097048
290 0.0939106
295 0.0966855
300 0.0876034
305 0.136589
310 0.118144
315 0.0804241
320 0.116308
325 0.0963974
330 0.11614
335 0.14525
340 0.108922
345 0.156238
350 0.0808007
355 0.108395
360 0.114658
365 0.128989
370 0.132314
375 0.111817
380 0.0964349
385 0.128658
390 0.122047
395 0.144815
400 0.103248
405 0.116417
410 0.10056
415 0.13349
420 0.143144
425 0.163678
430 0.138537
435 0.283356
440 0.32505
445 8.52716
450 134.504
455 194.701
460 47.9839
465 6.41279
470 1.71754
475 1.01304
480 1.13513
485 1.42925
490 1.36703
495 1.20391
500 1.12148
505 1.09989
510 1.10587
515 1.45473
520 2.41739
525 2.97473
530 2.136
535 1.45782
540 1.36082
545 1.26337
550 0.94497
555 0.812205
560 0.638523
565 0.679667
570 0.716217
575 0.537179
580 0.349699
585 0.362233
590 0.277855
595 0.283125
600 0.316966
Ex : 463
200 0.129438
205 0.134771
210 0.103343
215 0.106764
220 0.138008
225 0.135674
230 0.155742
235 0.102965
240 0.124804
245 0.104672
250 0.188842
255 0.104303
260 0.103198
265 0.147155
270 0.0918961
275 0.112617
280 0.125356
285 0.1137
290 0.167482
295 0.151329
300 0.094132
305 0.102595
310 0.0789158
315 0.103606
320 0.0871717
325 0.114233
330 0.129396
335 0.141529
340 0.117074
345 0.124946
350 0.112916
355 0.0861254
360 0.088716
365 0.0897068
370 0.106042
375 0.171864
380 0.106149
385 0.123583
390 0.153162
395 0.103985
400 0.130273
405 0.118209
410 0.100221
415 0.102508
420 0.268374
425 0.145836
430 0.161278
435 0.178753
440 0.205733
445 0.339857
450 8.26609
455 139.053
460 209.294
465 51.4179
470 6.70398
475 1.66311
480 1.07611
485 1.20707
490 1.44808
495 1.41952
500 1.17868
505 1.00463
510 0.95034
515 1.07356
520 1.1818
525 1.98385
530 2.86542
535 2.35481
540 1.6573
545 1.51168
550 1.22486
555 1.01898
560 0.832872
565 0.697092
570 0.640855
575 0.515899
580 0.421931
585 0.383918
590 0.365868
595 0.339701
600 0.184113
Ex : 468
200 0.0835175
205 0.10252
210 0.0811578
215 0.139446
220 0.117469
225 0.0937887
230 0.10397
235 0.0953763
240 0.0603325
245 0.126517
250 0.0933745
255 0.095026
260 0.0995035
265 0.123103
270 0.103718
275 0.0961452
280 0.0953386
285 0.105783
290 0.109206
295 0.131102
300 0.100144
305 0.0891322
310 0.109282
315 0.0953538
320 0.085296
325 0.0948746
330 0.134529
335 0.147073
340 0.106504
345 0.0903825
350 0.0725873
355 0.112717
360 0.121279
365 0.102979
370 0.110734
375 0.0897457
380 0.0918099
385 0.1107
390 0.111419
395 0.11943
400 0.117106
405 0.114316
410 0.135495
415 0.109601
420 0.129837
425 0.180229
430 0.122669
435 0.152088
440 0.176715
445 0.252916
450 0.319875
455 9.41742
460 142.155
465 221.964
470 53.7924
475 6.94682
480 1.68393
485 1.04209
490 1.00306
495 1.40175
500 1.34729
505 1.17877
510 1.05123
515 1.04219
520 1.11629
525 1.13591
530 1.52262
535 2.60552
540 2.73663
545 1.65177
550 1.31233
555 1.32518
560 0.961907
565 0.76879
570 0.690016
575 0.577505
580 0.459322
585 0.42946
590 0.36121
595 0.306455
600 0.481617
Ex : 473
200 0.15758
205 0.129641
210 0.114126
215 0.105657
220 0.0906238
225 0.141916
230 0.113223
235 0.112247
240 0.103856
245 0.106951
250 0.0686795
255 0.0838866
260 0.0761283
265 0.106926
270 0.133106
275 0.103792
280 0.0998348
285 0.131675
290 0.0925215
295 0.0929662
300 0.102031
305 0.105949
310 0.127144
315 0.108319
320 0.146731
325 0.13016
330 0.0933314
335 0.115686
340 0.0991954
345 0.125132
350 0.109214
355 0.114511
360 0.0987767
365 0.0870033
370 0.135844
375 0.0872897
380 0.153847
385 0.140579
390 0.0868715
395 0.0840175
400 0.147338
405 0.129217
410 0.119426
415 0.112146
420 0.102022
425 0.122745
430 0.0945715
435 0.168073
440 0.131107
445 0.213182
450 0.22717
455 0.279781
460 11.0514
465 158.791
470 216.221
475 50.2309
480 6.58397
485 1.72684
490 1.07723
495 1.03461
500 1.29928
505 1.48719
510 1.18801
515 1.01659
520 1.0303
525 1.08457
530 1.22574
535 1.31684
540 2.08574
545 2.56228
550 1.81889
555 1.30396
560 1.15914
565 1.05673
570 0.717437
575 0.618277
580 0.541016
585 0.406385
590 0.291013
595 0.356846
600 0.267905
Ex : 478
200 0.111093
205 0.115077
210 0.146018
215 0.181317
220 0.132713
225 0.159845
230 0.117909
235 0.109116
240 0.101689
245 0.137545
250 0.16401
255 0.130963
260 0.103583
265 0.0964122
270 0.12802
275 0.144862
280 0.179377
285 0.118871
290 0.125313
295 0.100783
300 0.153812
305 0.155862
310 0.149053
315 0.0894285
320 0.104357
325 0.0839743
330 0.0976717
335 0.157635
340 0.188422
345 0.141729
350 0.131853
355 0.130424
360 0.175121
365 0.102862
370 0.151265
375 0.176672
380 0.141713
385 0.142801
390 0.141227
395 0.134932
400 0.147727
405 0.125871
410 0.120832
415 0.167073
420 0.160754
425 0.166926
430 0.153929
435 0.220648
440 0.177537
445 0.211553
450 0.237615
455 0.28551
460 0.425862
465 11.9957
470 163.794
475 222.875
480 54.2804
485 7.09916
490 1.72854
495 1.04908
500 0.830515
505 1.2274
510 1.25007
515 1.2894
520 1.08112
525 1.13402
530 1.16145
535 1.11621
540 1.15882
545 1.74091
550 2.32084
555 2.00011
560 1.39387
565 1.02952
570 0.938915
575 0.659308
580 0.55137
585 0.491737
590 0.513852
595 0.339626
600 0.8406
Ex : 483
200 0.112513
205 0.118434
210 0.103617
215 0.160609
220 0.164946
225 0.148242
230 0.141272
235 0.210028
240 0.0929514
245 0.161325
250 0.135896
255 0.135086
260 0.102797
265 0.118034
270 0.13206
275 0.118634
280 0.146933
285 0.137983
290 0.13455
295 0.134628
300 0.124922
305 0.144154
310 0.208942
315 0.118246
320 0.136228
325 0.0860888
330 0.116566
335 0.0980225
340 0.161271
345 0.116065
350 0.154889
355 0.118712
360 0.111279
365 0.180865
370 0.134933
375 0.104357
380 0.156514
385 0.137894
390 0.16098
395 0.0979785
400 0.137582
405 0.153224
410 0.122713
415 0.228445
420 0.141835
425 0.130839
430 0.123926
435 0.13215
440 0.181557
445 0.132775
450 0.191758
455 0.295425
460 0.298231
465 0.393133
470 9.40091
475 163.523
480 243.844
485 58.9867
490 7.64072
495 1.7876
500 1.04321
505 0.962465
510 0.999349
515 1.24627
520 1.24509
525 1.09882
530 1.13824
535 1.07048
540 1.00273
545 0.937388
550 1.20063
555 2.11579
560 2.186
565 1.36099
570 1.0257
575 0.939159
580 0.594181
585 0.436257
590 0.337412
595 0.364827
600 0.127675
Ex : 488
200 0.20793
205 0.0998548
210 0.111315
215 0.0778785
220 0.113074
225 0.145712
230 0.169384
235 0.10531
240 0.181852
245 0.103062
250 0.112277
255 0.159377
260 0.152679
265 0.153826
270 0.180409
275 0.143648
280 0.140813
285 0.145853
290 0.112218
295 0.163061
300 0.200129
305 0.142487
310 0.152115
315 0.224113
320 0.124724
325 0.194864
330 0.20225
335 0.110845
340 0.195552
345 0.152469
350 0.120678
355 0.115993
360 0.0942822
365 0.101739
370 0.0902896
375 0.168615
380 0.111923
385 0.147215
390 0.119495
395 0.12676
400 0.111057
405 0.130166
410 0.223393
415 0.139818
420 0.176358
425 0.16073
430 0.171294
435 0.200845
440 0.129874
445 0.125119
450 0.172216
455 0.189377
460 0.199998
465 0.338447
470 0.351086
475 11.7767
480 174.369
485 239.993
490 57.0393
495 7.34146
500 1.66234
505 1.08829
510 0.954832
515 1.13276
520 1.39643
525 1.16274
530 1.26832
535 1.07478
540 0.89962
545 0.869233
550 0.901208
555 0.912493
560 1.59422
565 2.183
570 1.3512
575 0.851061
580 0.712938
585 0.563607
590 0.426355
595 0.342939
600 0.151074
Ex : 493
200 0.131815
205 0.130879
210 0.108733
215 0.113163
220 0.127115
225 0.108348
230 0.131373
235 0.140277
240 0.122684
245 0.156261
250 0.137329
255 0.156818
260 0.159551
265 0.121754
270 0.106452
275 0.14399
280 0.142803
285 0.171441
290 0.112887
295 0.115772
300 0.207998
305 0.178297
310 0.135909
315 0.131419
320 0.117058
325 0.175061
330 0.153738
335 0.105369
340 0.178641
345 0.153207
350 0.12312
355 0.135748
360 0.181288
365 0.133277
370 0.139069
375 0.168324
380 0.197794
385 0.178404
390 0.167134
395 0.17247
400 0.162236
405 0.141928
410 0.189479
415 0.139879
420 0.163981
425 0.213309
430 0.146697
435 0.184063
440 0.149269
445 0.209055
450 0.161114
455 0.167039
460 0.237963
465 0.316931
470 0.320819
475 0.38627
480 10.5342
485 176.651
490 259.41
495 59.5999
500 7.58277
505 1.61865
510 0.966821
515 0.914293
520 1.08423
525 1.41484
530 1.35276
535 1.14778
540 0.993367
545 0.838132
550 0.819939
555 0.889865
560 0.805332
565 1.01673
570 1.79342
575 1.3413
580 0.90497
585 0.614186
590 0.584245
595 0.383376
600 0.170227
Ex : 498
200 0.11409
205 0.152882
210 0.10443
215 0.135076
220 0.172173
225 0.163009
230 0.155535
235 0.184976
240 0.165611
245 0.113784
250 0.108603
255 0.11057
260 0.165925
265 0.173929
270 0.215406
275 0.159756
280 0.190779
285 0.160353
290 0.154778
295 0.148942
300 0.144512
305 0.116679
310 0.142778
315 0.200532
320 0.113088
325 0.123766
330 0.192521
335 0.1527
340 0.187408
345 0.127834
350 0.119598
355 0.272978
360 0.154821
365 0.185697
370 0.143741
375 0.151462
380 0.152153
385 0.186881
390 0.153424
395 0.196457
400 0.200132
405 0.16944
410 0.174737
415 0.149328
420 0.181969
425 0.155647
430 0.142063
435 0.24758
440 0.176704
445 0.158675
450 0.181024
455 0.197305
460 0.205823
465 0.198665
470 0.196107
475 0.316031
480 0.512855
485 13.6961
490 187.793
495 246.154
500 57.2721
505 7.20932
510 1.61526
515 1.02977
520 0.932633
525 0.928502
530 1.2856
535 1.30726
540 1.08365
545 0.952849
550 0.821712
555 0.73392
560 0.728829
565 0.676458
570 0.802936
575 1.2838
580 1.41382
585 0.828582
590 0.508784
595 0.44608
600 0.298161
Ex : 503
200 0.191792
205 0.127956
210 0.146118
215 0.199557
220 0.125947
225 0.195467
230 0.169005
235 0.162138
240 0.195391
245 0.116266
250 0.129214
255 0.153693
260 0.145082
265 0.12636
270 0.20826
275 0.157955
280 0.192637
285 0.213513
290 0.153958
295 0.179254
300 0.19239
305 0.158088
310 0.167468
315 0.22221
320 0.188658
325 0.237684
330 0.210531
335 0.187311
340 0.155307
345 0.139493
350 0.155041
355 0.121443
360 0.249223
365 0.164468
370 0.109051
375 0.1682
380 0.196851
385 0.205753
390 0.180763
395 0.18357
400 0.219864
405 0.181849
410 0.246363
415 0.160373
420 0.159443
425 0.190759
430 0.190977
435 0.17187
440 0.222793
445 0.223342
450 0.197106
455 0.185804
460 0.19891
465 0.218298
470 0.229999
475 0.312272
480 0.384147
485 0.513057
490 11.8634
495 187.966
500 258.305
505 60.4286
510 7.76714
515 1.80253
520 1.201
525 1.09409
530 1.02557
535 1.21911
540 1.2105
545 0.917157
550 0.878777
555 0.822977
560 0.816149
565 0.630144
570 0.652492
575 0.791943
580 0.944945
585 1.15916
590 0.820772
595 0.490117
600 0.0596947
Ex : 508
200 0.174922
205 0.202705
210 0.165331
215 0.166967
220 0.162559
225 0.194266
230 0.111008
235 0.132293
240 0.143164
245 0.145246
250 0.152733
255 0.153504
260 0.12912
265 0.180984
270 0.24517
275 0.190155
280 0.13925
285 0.1549
290 0.169001
295 0.183589
300 0.143628
305 0.124316
310 0.103437
315 0.193673
320 0.210986
325 0.215794
330 0.13808
335 0.224209
340 0.170058
345 0.163693
350 0.137099
355 0.14166
360 0.211091
365 0.16658
370 0.117638
375 0.191536
380 0.153507
385 0.126703
390 0.215793
395 0.225339
400 0.177389
405 0.23618
410 0.186062
415 0.162674
420 0.151544
425 0.208133
430 0.126965
435 0.239621
440 0.237242
445 0.138273
450 0.182146
455 0.167422
460 0.250371
465 0.160789
470 0.172961
475 0.235863
480 0.290892
485 0.389891
490 0.463099
495 13.5501
500 191.491
505 262.869
510 63.016
515 8.09305
520 1.77673
525 1.09906
530 0.925951
535 0.870802
540 1.13512
545 1.13482
550 1.10247
555 0.829206
560 0.769877
565 0.740842
570 0.705395
575 0.546187
580 0.441942
585 0.669358
590 0.845506
595 0.719826
600 0.284243
Ex : 513
200 0.146476
205 0.134669
210 0.106075
215 0.156863
220 0.186471
225 0.14613
230 0.0974834
235 0.131553
240 0.195705
245 0.212957
250 0.15278
255 0.170169
260 0.161317
265 0.21433
270 0.1531
275 0.183996
280 0.185352
285 0.195889
290 0.13128
295 0.217534
300 0.133976
305 0.183396
310 0.139761
315 0.22649
320 0.199853
325 0.166379
330 0.197066
335 0.207397
340 0.129132
345 0.202002
350 0.133688
355 0.141289
360 0.166915
365 0.162625
370 0.160629
375 0.12883
380 0.105502
385 0.0942832
390 0.167188
395 0.16505
400 0.227183
405 0.197941
410 0.230873
415 0.181705
420 0.159614
425 0.169398
430 0.143817
435 0.20565
440 0.220106
445 0.122193
450 0.176987
455 0.165271
460 0.187424
465 0.215297
470 0.294353
475 0.259032
480 0.301396
485 0.259634
490 0.353011
495 0.470102
500 12.6059
505 190.97
510 264.356
515 65.6912
520 8.43303
525 1.84575
530 1.12226
535 0.961345
540 0.922812
545 1.04143
550 1.04769
555 0.810776
560 0.816337
565 0.677388
570 0.549534
575 0.503206
580 0.411804
585 0.377573
590 0.440888
595 0.732862
600 0.297091
Ex : 518
200 0.157485
205 0.129847
210 0.234772
215 0.20257
220 0.158004
225 0.166363
230 0.182131
235 0.148562
240 0.159595
245 0.161498
250 0.19191
255 0.195047
260 0.122833
265 0.155746
270 0.132735
275 0.199824
280 0.138136
285 0.116976
290 0.204345
295 0.169118
300 0.163158
305 0.149144
310 0.161457
315 0.118194
320 0.18002
325 0.195078
330 0.203211
335 0.180188
340 0.197051
345 0.181355
350 0.148036
355 0.252765
360 0.184796
365 0.197983
370 0.314874
375 0.22328
380 0.261063
385 0.238094
390 0.149652
395 0.144082
400 0.111961
405 0.15364
410 0.244616
415 0.192465
420 0.166832
425 0.202153
430 0.183269
435 0.238496
440 0.19897
445 0.251237
450 0.181855
455 0.274303
460 0.277563
465 0.20795
470 0.275551
475 0.25614
480 0.258115
485 0.260312
490 0.278
495 0.31827
500 0.403414
505 12.4327
510 184.86
515 262.801
520 65.8959
525 8.43558
530 1.72795
535 1.06617
540 0.816338
545 0.743085
550 0.757424
555 0.847387
560 0.857309
565 0.721574
570 0.556868
575 0.376673
580 0.442795
585 0.368413
590 0.322634
595 0.310854
600 0.1541
Ex : 523
200 0.220892
205 0.152983
210 0.131022
215 0.175201
220 0.219375
225 0.194122
230 0.203629
235 0.164712
240 0.166215
245 0.183011
250 0.150532
255 0.201935
260 0.153926
265 0.224184
270 0.155686
275 0.161581
280 0.148559
285 0.172961
290 0.130194
295 0.178358
300 0.203863
305 0.182808
310 0.115765
315 0.179713
320 0.188709
325 0.19544
330 0.231716
335 0.156304
340 0.316672
345 0.174213
350 0.180619
355 0.184404
360 0.157063
365 0.209266
370 0.159951
375 0.206691
380 0.16476
385 0.229474
390 0.238209
395 0.179405
400 0.211819
405 0.238689
410 0.1706
415 0.153003
420 0.2165
425 0.247426
430 0.191194
435 0.188473
440 0.253316
445 0.202292
450 0.190825
455 0.227166
460 0.243728
465 0.222316
470 0.307009
475 0.199204
480 0.32482
485 0.22831
490 0.21244
495 0.281609
500 0.303866
505 0.461584
510 12.1519
515 178.687
520 264.583
525 68.671
530 8.70942
535 1.68118
540 1.03518
545 0.745243
550 0.704162
555 0.809977
560 0.761781
565 0.69527
570 0.567592
575 0.52413
580 0.342249
585 0.353729
590 0.311181
595 0.284346
600 0.455619
Ex : 528
200 0.250734
205 0.207691
210 0.226379
215 0.177334
220 0.212384
225 0.168802
230 0.242299
235 0.206142
240 0.205416
245 0.187568
250 0.193882
255 0.200371
260 0.240628
265 0.205016
270 0.154515
275 0.239649
280 0.238396
285 0.19445
290 0.207894
295 0.234279
300 0.224675
305 0.163833
310 0.168258
315 0.265097
320 0.162504
325 0.153576
330 0.147286
335 0.157688
340 0.156843
345 0.148796
350 0.205264
355 0.199776
360 0.148684
365 0.225022
370 0.182891
375 0.195814
380 0.208698
385 0.219311
390 0.263848
395 0.184237
400 0.154466
405 0.22237
410 0.177967
415 0.17211
420 0.21212
425 0.179303
430 0.271882
435 0.198113
440 0.167694
445 0.158861
450 0.137941
455 0.207411
460 0.330915
465 0.225732
470 0.282052
475 0.182658
480 0.231983
485 0.244787
490 0.291981
495 0.251689
500 0.328956
505 0.361715
510 0.417664
515 11.5905
520 182.713
525 275.513
530 68.7463
535 8.7285
540 1.66626
545 0.846404
550 0.801526
555 0.545974
560 0.620612
565 0.664246
570 0.594891
575 0.469532
580 0.381743
585 0.317897
590 0.355009
595 0.253587
600 0.267278
Ex : 533
200 0.181455
205 0.213629
210 0.193897
215 0.165301
220 0.192896
225 0.247734
230 0.212954
235 0.17928
240 0.200511
245 0.232652
250 0.220216
255 0.152766
260 0.21981
265 0.134991
270 0.201678
275 0.142262
280 0.198313
285 0.20977
290 0.220532
295 0.33949
300 0.158934
305 0.173758
310 0.162612
315 0.231135
320 0.230579
325 0.229549
330 0.183914
335 0.136244
340 0.180155
345 0.22941
350 0.240257
355 0.25396
360 0.150091
365 0.175535
370 0.161951
375 0.216592
380 0.2429
385 0.199139
390 0.266822
395 0.231988
400 0.196017
405 0.187316
410 0.165179
415 0.143954
420 0.164921
425 0.162234
430 0.213302
435 0.145606
440 0.252689
445 0.183838
450 0.146179
455 0.245499
460 0.278802
465 0.212032
470 0.204676
475 0.20703
480 0.206444
485 0.225993
490 0.196175
495 0.228078
500 0.211908
505 0.272449
510 0.347489
515 0.383682
520 11.3715
525 181.989
530 273.196
535 69.3474
540 8.56743
545 1.61192
550 0.89082
555 0.59512
560 0.627813
565 0.666144
570 0.560995
575 0.552895
580 0.435421
585 0.462
590 0.240471
595 0.300095
600 0.390507
Ex : 538
200 0.233833
205 0.190333
210 0.20835
215 0.173658
220 0.175486
225 0.192457
230 0.140379
235 0.160605
240 0.195747
245 0.201905
250 0.172002
255 0.200591
260 0.196373
265 0.227753
270 0.340038
275 0.230122
280 0.195437
285 0.182427
290 0.235597
295 0.153016
300 0.253087
305 0.235384
310 0.211378
315 0.166273
320 0.187135
325 0.231183
330 0.163078
335 0.203803
340 0.162626
345 0.203002
350 0.217221
355 0.216424
360 0.169957
365 0.205685
370 0.166813
375 0.219646
380 0.241767
385 0.222664
390 0.122065
395 0.224245
400 0.148468
405 0.205912
410 0.151533
415 0.203716
420 0.244704
425 0.194017
430 0.239732
435 0.226945
440 0.256375
445 0.146873
450 0.303739
455 0.17379
460 0.192952
465 0.260271
470 0.21563
475 0.326765
480 0.250689
485 0.31227
490 0.343238
495 0.320536
500 0.150606
505 0.277814
510 0.29037
515 0.319071
520 0.579021
525 9.4366
530 163.227
535 262.493
540 70.9975
545 8.99054
550 1.71012
555 0.734053
560 0.645642
565 0.458968
570 0.450848
575 0.557856
580 0.461329
585 0.349132
590 0.364302
595 0.432557
600 0.0492233
Ex : 543
200 0.166402
205 0.120294
210 0.115798
215 0.157934
220 0.205075
225 0.146872
230 0.233641
235 0.175294
240 0.190344
245 0.243655
250 0.186075
255 0.31133
260 0.277977
265 0.199651
270 0.245717
275 0.310086
280 0.25453
285 0.185138
290 0.226961
295 0.217292
300 0.155438
305 0.151319
310 0.176767
315 0.15234
320 0.215449
325 0.194777
330 0.166603
335 0.183352
340 0.167316
345 0.257406
350 0.293318
355 0.156475
360 0.251168
365 0.198901
370 0.21382
375 0.277313
380 0.239909
385 0.218203
390 0.259775
395 0.172742
400 0.30719
405 0.315682
410 0.227369
415 0.221968
420 0.161716
425 0.193531
430 0.285473
435 0.199188
440 0.19898
445 0.163427
450 0.266867
455 0.207254
460 0.196941
465 0.189998
470 0.186149
475 0.270687
480 0.224668
485 0.259038
490 0.249961
495 0.188729
500 0.300497
505 0.214432
510 0.26962
515 0.300252
520 0.270156
525 0.380557
530 9.01063
535 162.595
540 263.487
545 71.9059
550 8.88033
555 1.60649
560 0.641051
565 0.545986
570 0.457576
575 0.498964
580 0.413997
585 0.36728
590 0.366226
595 0.306019
600 0.112732
Ex : 548
200 0.199376
205 0.169415
210 0.253641
215 0.223639
220 0.217221
225 0.295113
230 0.217405
235 0.236743
240 0.299609
245 0.193563
250 0.198757
255 0.219053
260 0.318704
265 0.183137
270 0.176355
275 0.173716
280 0.174402
285 0.265683
290 0.242991
295 0.166609
300 0.27637
305 0.291256
310 0.261432
315 0.138314
320 0.187063
325 0.233312
330 0.221473
335 0.204484
340 0.178861
345 0.20065
350 0.202246
355 0.253886
360 0.233269
365 0.201643
370 0.286909
375 0.219571
380 0.219486
385 0.318392
390 0.154675
395 0.230727
400 0.202864
405 0.196491
410 0.220348
415 0.125766
420 0.265851
425 0.214061
430 0.185364
435 0.204408
440 0.204411
445 0.329515
450 0.250128
455 0.259747
460 0.214961
465 0.173784
470 0.215607
475 0.226484
480 0.240312
485 0.180648
490 0.213698
495 0.193171
500 0.291812
505 0.279571
510 0.405222
515 0.279459
520 0.31179
525 0.399852
530 0.441867
535 9.95691
540 161.447
545 257.446
550 70.9128
555 8.78653
560 1.46704
565 0.627312
570 0.469528
575 0.519995
580 0.392353
585 0.319845
590 0.35924
595 0.25604
600 0.346357
Ex : 553
200 0.199748
205 0.172831
210 0.211157
215 0.262071
220 0.178565
225 0.204447
230 0.162886
235 0.165568
240 0.193746
245 0.227398
250 0.185243
255 0.244211
260 0.185786
265 0.307155
270 0.255596
275 0.213221
280 0.236245
285 0.248279
290 0.20295
295 0.305723
300 0.171717
305 0.245025
310 0.146194
315 0.192275
320 0.25721
325 0.206035
330 0.225355
335 0.185166
340 0.297464
345 0.29392
350 0.234335
355 0.19496
360 0.22124
365 0.240604
370 0.216692
375 0.260629
380 0.240154
385 0.20697
390 0.168244
395 0.196611
400 0.185467
405 0.209513
410 0.246297
415 0.309172
420 0.214885
425 0.204651
430 0.188393
435 0.17283
440 0.197706
445 0.276984
450 0.227758
455 0.295485
460 0.321191
465 0.233471
470 0.223502
475 0.174867
480 0.2205
485 0.283949
490 0.219957
495 0.198589
500 0.152412
505 0.381604
510 0.241058
515 0.241325
520 0.242897
525 0.333332
530 0.292535
535 0.539871
540 8.45032
545 151.415
550 251.918
555 69.9695
560 8.73644
565 1.38875
570 0.497031
575 0.43756
580 0.312921
585 0.324382
590 0.284505
595 0.303035
600 0.0448492
Ex : 558
200 0.16977
205 0.206706
210 0.120841
215 0.20505
220 0.169832
225 0.218317
230 0.135456
235 0.296529
240 0.249342
245 0.241641
250 0.115912
255 0.18327
260 0.223017
265 0.153252
270 0.226805
275 0.183308
280 0.141782
285 0.225252
290 0.249892
295 0.225903
300 0.157651
305 0.14741
310 0.140172
315 0.223775
320 0.210817
325 0.314426
330 0.236776
335 0.222803
340 0.281982
345 0.177929
350 0.317334
355 0.246569
360 0.200093
365 0.216736
370 0.281807
375 0.2594
380 0.252655
385 0.35368
390 0.222076
395 0.255977
400 0.309649
405 0.318351
410 0.205213
415 0.209021
420 0.244464
425 0.24169
430 0.218563
435 0.384018
440 0.315034
445 0.219292
450 0.263608
455 0.251419
460 0.251709
465 0.246605
470 0.261969
475 0.265727
480 0.214632
485 0.262171
490 0.242884
495 0.246097
500 0.193247
505 0.239628
510 0.201674
515 0.312075
520 0.300292
525 0.151763
530 0.24262
535 0.313854
540 0.477013
545 7.65676
550 145.537
555 252.498
560 70.8103
565 8.77666
570 1.43399
575 0.497782
580 0.480089
585 0.391747
590 0.37254
595 0.355566
600 0.236807
Ex : 563
200 0.224759
205 0.253694
210 0.205764
215 0.243163
220 0.256841
225 0.152912
230 0.156382
235 0.279632
240 0.216447
245 0.238994
250 0.290637
255 0.233493
260 0.275447
265 0.229496
270 0.198296
275 0.235185
280 0.25355
285 0.215985
290 0.223171
295 0.191816
300 0.206697
305 0.208241
310 0.272888
315 0.264386
320 0.228723
325 0.187896
330 0.217962
335 0.326174
340 0.245865
345 0.148587
350 0.260861
355 0.227371
360 0.202821
365 0.312991
370 0.450846
375 0.150839
380 0.293528
385 0.292828
390 0.233004
395 0.305907
400 0.18423
405 0.190766
410 0.206069
415 0.338129
420 0.187023
425 0.27156
430 0.22662
435 0.204411
440 0.241701
445 0.30245
450 0.221621
455 0.199765
460 0.163853
465 0.365613
470 0.162118
475 0.241404
480 0.29943
485 0.197144
490 0.318235
495 0.26764
500 0.274226
505 0.256695
510 0.243906
515 0.284941
520 0.321822
525 0.23884
530 0.276457
535 0.442263
540 0.379345
545 0.471727
550 7.6045
555 138.073
560 236.084
565 68.069
570 8.32086
575 1.3157
580 0.517214
585 0.541524
590 0.406911
595 0.285963
600 0.294183
Ex : 568
200 0.258197
205 0.259285
210 0.193134
215 0.195133
220 0.215389
225 0.324535
230 0.358797
235 0.237855
240 0.32521
245 0.269194
250 0.289652
255 0.23188
260 0.174133
265 0.155514
270 0.190588
275 0.217118
280 0.209379
285 0.223384
290 0.160414
295 0.181275
300 0.244236
305 0.190529
310 0.260989
315 0.178084
320 0.202289
325 0.212363
330 0.245959
335 0.265171
340 0.258807
345 0.193887
350 0.244577
355 0.238414
360 0.235204
365 0.141984
370 0.189102
375 0.229128
380 0.172014
385 0.217499
390 0.212838
395 0.237608
400 0.209913
405 0.277226
410 0.272331
415 0.254258
420 0.36217
425 0.345915
430 0.25939
435 0.294693
440 0.277584
445 0.243694
450 0.248119
455 0.24862
460 0.285053
465 0.221231
470 0.25047
475 0.299607
480 0.275674
485 0.223958
490 0.246143
495 0.244936
500 0.295032
505 0.196861
510 0.302343
515 0.400336
520 0.247628
525 0.189806
530 0.285799
535 0.284897
540 0.282623
545 0.367519
550 0.490953
555 6.20165
560 125.01
565 233.021
570 69.9546
575 8.52103
580 1.32038
585 0.46024
590 0.448797
595 0.333587
600 0.037961
Ex : 573
200 0.180942
205 0.265513
210 0.233668
215 0.274869
220 0.245156
225 0.295554
230 0.245526
235 0.191221
240 0.235984
245 0.177571
250 0.267999
255 0.32703
260 0.21717
265 0.286082
270 0.27684
275 0.211233
280 0.190024
285 0.180152
290 0.269759
295 0.359015
300 0.261564
305 0.271406
310 0.36383
315 0.274421
320 0.318066
325 0.232751
330 0.226478
335 0.192386
340 0.367694
345 0.21914
350 0.210978
355 0.2158
360 0.191898
365 0.259699
370 0.259414
375 0.257907
380 0.256253
385 0.26629
390 0.324153
395 0.282693
400 0.299761
405 0.271815
410 0.266531
415 0.204419
420 0.373031
425 0.288546
430 0.223638
435 0.212284
440 0.293385
445 0.31473
450 0.24689
455 0.284542
460 0.266196
465 0.27678
470 0.245452
475 0.24839
480 0.256836
485 0.183903
490 0.238354
495 0.255433
500 0.245046
505 0.300324
510 0.415806
515 0.279154
520 0.204065
525 0.337786
530 0.250822
535 0.251219
540 0.365402
545 0.23408
550 0.342897
555 0.519857
560 4.82142
565 110.878
570 214.574
575 65.7831
580 8.14112
585 1.22361
590 0.382966
595 0.30362
600 3.33874
Ex : 578
200 0.294576
205 0.193229
210 0.146559
215 0.165006
220 0.252004
225 0.250228
230 0.369177
235 0.27245
240 0.22678
245 0.253269
250 0.239512
255 0.174908
260 0.259257
265 0.30909
270 0.276512
275 0.231282
280 0.245796
285 0.244926
290 0.218073
295 0.244437
300 0.195934
305 0.276575
310 0.258888
315 0.187001
320 0.193117
325 0.294922
330 0.245327
335 0.227588
340 0.190102
345 0.11465
350 0.234561
355 0.245887
360 0.223738
365 0.253719
370 0.196042
375 0.230913
380 0.263756
385 0.292625
390 0.272752
395 0.294307
400 0.300152
405 0.361078
410 0.250727
415 0.18116
420 0.29268
425 0.255075
430 0.250944
435 0.263616
440 0.201368
445 0.241232
450 0.318402
455 0.33523
460 0.306527
465 0.303157
470 0.322888
475 0.265587
480 0.26371
485 0.236979
490 0.295747
495 0.25517
500 0.185401
505 0.284686
510 0.255656
515 0.258715
520 0.321016
525 0.179833
530 0.258814
535 0.303819
540 0.276673
545 0.335695
550 0.256948
555 0.299195
560 0.453866
565 4.69784
570 96.3413
575 190.609
580 55.8986
585 6.82894
590 1.10382
595 0.362405
600 0.167841
Ex : 583
200 0.333333
205 0.26075
210 0.21245
215 0.35464
220 0.208691
225 0.253422
230 0.214152
235 0.153732
240 0.182141
245 0.209008
250 0.203771
255 0.333322
260 0.250512
265 0.226896
270 0.192446
275 0.202596
280 0.239613
285 0.210696
290 0.13639
295 0.174667
300 0.279744
305 0.213734
310 0.259037
315 0.22666
320 0.198787
325 0.296442
330 0.257045
335 0.204437
340 0.226628
345 0.324322
350 0.272323
355 0.277705
360 0.285503
365 0.199541
370 0.324362
375 0.245211
380 0.256809
385 0.20999
390 0.448786
395 0.228788
400 0.316079
405 0.381272
410 0.272912
415 0.249997
420 0.328882
425 0.255824
430 0.243513
435 0.247301
440 0.255942
445 0.231234
450 0.176742
455 0.262333
460 0.275789
465 0.257144
470 0.264896
475 0.283388
480 0.25636
485 0.317939
490 0.295502
495 0.235783
500 0.257827
505 0.274791
510 0.270018
515 0.300797
520 0.231329
525 0.346841
530 0.289624
535 0.319075
540 0.29996
545 0.24322
550 0.386365
555 0.386527
560 0.34236
565 0.365408
570 3.69306
575 86.7224
580 165.484
585 47.3467
590 5.85388
595 0.966775
600 0.297241
Ex : 588
200 0.303108
205 0.294562
210 0.268968
215 0.23294
220 0.216419
225 0.229799
230 0.137353
235 0.194373
240 0.139171
245 0.25057
250 0.273919
255 0.320248
260 0.259186
265 0.20067
270 0.217988
275 0.279168
280 0.255247
285 0.184855
290 0.240742
295 0.224175
300 0.304195
305 0.376424
310 0.252353
315 0.279994
320 0.227702
325 0.38384
330 0.361267
335 0.150773
340 0.227084
345 0.261098
350 0.227021
355 0.216207
360 0.244456
365 0.200417
370 0.327921
375 0.20603
380 0.168125
385 0.290718
390 0.26186
395 0.203748
400 0.250137
405 0.303695
410 0.310236
415 0.297178
420 0.217868
425 0.299079
430 0.215804
435 0.254274
440 0.259011
445 0.351911
450 0.263517
455 0.193401
460 0.194689
465 0.306534
470 0.247228
475 0.216112
480 0.247677
485 0.449047
490 0.311622
495 0.288729
500 0.221462
505 0.281206
510 0.170163
515 0.283038
520 0.146896
525 0.305555
530 0.256283
535 0.195643
540 0.315875
545 0.254466
550 0.237132
555 0.261713
560 0.258753
565 0.245581
570 0.520128
575 3.27888
580 70.2675
585 139.928
590 42.0414
595 5.25102
600 1.09202
Ex : 593
200 0.360644
205 0.205733
210 0.30832
215 0.298022
220 0.265641
225 0.296026
230 0.291477
235 0.210699
240 0.247855
245 0.346342
250 0.19838
255 0.313697
260 0.229013
265 0.309035
270 0.26221
275 0.365626
280 0.199863
285 0.248369
290 0.200254
295 0.331131
300 0.241981
305 0.304805
310 0.365805
315 0.259914
320 0.217043
325 0.395174
330 0.248609
335 0.355065
340 0.247159
345 0.33081
350 0.247662
355 0.26821
360 0.198186
365 0.199761
370 0.350986
375 0.237783
380 0.38573
385 0.394488
390 0.358029
395 0.250853
400 0.233092
405 0.338679
410 0.212155
415 0.204505
420 0.287364
425 0.214083
430 0.227029
435 0.405109
440 0.236597
445 0.310207
450 0.202835
455 0.282283
460 0.330298
465 0.271948
470 0.233199
475 0.32344
480 0.247388
485 0.266517
490 0.263186
495 0.234729
500 0.292201
505 0.193895
510 0.43792
515 0.384129
520 0.301552
525 0.313279
530 0.243364
535 0.269944
540 0.236723
545 0.292287
550 0.322296
555 0.326777
560 0.340857
565 0.320587
570 0.272482
575 0.311861
580 2.97901
585 64.3423
590 118.368
595 35.502
600 5.323
Ex : 598
200 0.299476
205 0.280527
210 0.347824
215 0.264499
220 0.355152
225 0.203194
230 0.247625
235 0.303202
240 0.369441
245 0.27302
250 0.264846
255 0.324308
260 0.449724
265 0.306011
270 0.209315
275 0.156792
280 0.237708
285 0.263875
290 0.280653
295 0.226912
300 0.414546
305 0.294772
310 0.210079
315 0.253114
320 0.270434
325 0.251865
330 0.264102
335 0.221938
340 0.33839
345 0.231066
350 0.182919
355 0.214377
360 0.251722
365 0.247548
370 0.213179
375 0.266773
380 0.247236
385 0.268299
390 0.319887
395 0.353011
400 0.30738
405 0.249602
410 0.298563
415 0.410251
420 0.335092
425 0.219286
430 0.290934
435 0.36224
440 0.233787
445 0.341568
450 0.384224
455 0.307094
460 0.378871
465 0.309897
470 0.262781
475 0.269078
480 0.307853
485 0.279433
490 0.279224
495 0.277812
500 0.23077
505 0.400297
510 0.393447
515 0.402579
520 0.26442
525 0.258062
530 0.206506
535 0.2646
540 0.332688
545 0.260166
550 0.242812
555 0.288378
560 0.335734
565 0.227745
570 0.374074
575 0.299259
580 0.344351
585 2.76938
590 56.0588
595 98.0725
600 53.4142
Ex : 603
200 0.187965
205 0.179816
210 0.334432
215 0.271445
220 0.24827
225 0.220321
230 0.277489
235 0.243579
240 0.27859
245 0.313692
250 0.298677
255 0.19832
260 0.327337
265 0.240532
270 0.200794
275 0.224061
280 0.281686
285 0.234156
290 0.289542
295 0.286324
300 0.210908
305 0.245112
310 0.219784
315 0.238392
320 0.293933
325 0.305536
330 0.240665
335 0.298616
340 0.481987
345 0.352223
350 0.213967
355 0.236236
360 0.287469
365 0.301275
370 0.310687
375 0.295478
380 0.235513
385 0.335472
390 0.364737
395 0.345087
400 0.430329
405 0.345249
410 0.34719
415 0.360544
420 0.249153
425 0.233925
430 0.211253
435 0.235417
440 0.310291
445 0.274084
450 0.390684
455 0.303073
460 0.337014
465 0.184446
470 0.340901
475 0.316372
480 0.422872
485 0.431401
490 0.308968
495 0.235146
500 0.280805
505 0.255122
510 0.350366
515 0.327983
520 0.262632
525 0.43717
530 0.364384
535 0.284491
540 0.367496
545 0.241159
550 0.293409
555 0.313688
560 0.274875
565 0.403902
570 0.343576
575 0.292349
580 0.437572
585 0.268753
590 2.52098
595 47.6007
600 85.7567
