File format V 1.0
ven. 13. janv. 17:09:48 2017
Operator : 
Comments : 

=============================================
SpectroFluorometer parameters
Mode : 3D measurement
Data : Fluorescence
Phospho. : Ordinary
Spectrum : Fluorescence

Scan speed : 2400 nm/mn
Response : 100 ms
PM Voltage : 700 V
Shutter : On

Lambda Ex. Start : 203
Lambda Ex. End : 603
Lambda Ex. Step : 5
Ex. Slit : 5 nm

Lambda Em. Start : 200
Lambda Em. End : 600
Lambda Em. Step : 5
Em. Slit : 5 nm

Repetition : 1
Decal lambda em : 10
=============================================
DATA
Ex : 203
200 3.79147
205 4.68945
210 5.23179
215 4.66566
220 3.99482
225 8.37245
230 6.24453
235 5.39837
240 5.03731
245 5.06846
250 5.78268
255 3.52885
260 4.35755
265 5.58426
270 5.49543
275 5.55981
280 6.44313
285 5.52361
290 3.75982
295 6.05785
300 6.19872
305 7.45665
310 5.92944
315 3.93123
320 5.2066
325 5.53165
330 6.04787
335 6.36573
340 8.0396
345 4.69714
350 5.98808
355 7.72885
360 4.64791
365 6.56793
370 6.97942
375 7.08628
380 8.73367
385 5.97088
390 4.93816
395 7.05517
400 10.6687
405 5.77405
410 8.05066
415 7.50469
420 7.90261
425 5.1228
430 6.45509
435 5.14862
440 4.68562
445 5.44798
450 6.4056
455 6.01809
460 4.07536
465 4.28034
470 7.32008
475 6.54964
480 9.33944
485 5.64501
490 5.48302
495 8.00077
500 5.77482
505 5.71509
510 5.88665
515 9.04972
520 4.53323
525 3.94834
530 3.8754
535 5.69037
540 6.04533
545 5.32672
550 4.50124
555 7.43097
560 4.93003
565 6.35671
570 6.8719
575 6.76495
580 4.79246
585 7.23929
590 7.17201
595 5.59072
600 17.1787
Ex : 208
200 3.86996
205 5.36285
210 5.77372
215 4.6269
220 5.17118
225 5.52528
230 9.57601
235 6.56996
240 3.51806
245 5.20942
250 6.11091
255 5.18025
260 4.411
265 6.45788
270 8.68159
275 7.42583
280 7.15247
285 4.88405
290 4.67856
295 4.38336
300 7.38086
305 5.69987
310 7.84702
315 5.72488
320 8.39648
325 6.25575
330 5.55672
335 7.08009
340 6.1707
345 6.78803
350 5.61863
355 6.55015
360 7.35968
365 6.70909
370 4.97597
375 7.4539
380 6.69717
385 3.90075
390 7.67914
395 6.02394
400 4.69948
405 7.74417
410 5.89188
415 6.60436
420 5.44688
425 4.95975
430 6.32677
435 6.25275
440 8.24219
445 5.67097
450 4.92384
455 3.67263
460 6.48056
465 6.28622
470 5.85377
475 5.5638
480 7.76265
485 7.76848
490 7.16195
495 5.87902
500 4.33522
505 8.67038
510 7.39241
515 6.4778
520 3.11487
525 7.04594
530 5.52966
535 5.55977
540 7.3289
545 6.37992
550 6.48227
555 7.55112
560 5.36889
565 7.6688
570 7.19695
575 6.30617
580 6.3007
585 5.63064
590 6.38876
595 6.55816
600 9.60833
Ex : 213
200 4.60909
205 7.5537
210 7.2672
215 5.21879
220 6.05289
225 5.09149
230 6.44324
235 7.33363
240 4.09037
245 5.50475
250 9.00546
255 6.4984
260 4.80395
265 5.78369
270 7.593
275 6.78659
280 6.08533
285 5.41381
290 6.38661
295 7.06332
300 5.19838
305 7.47978
310 4.79987
315 5.8129
320 7.90893
325 4.80973
330 5.22862
335 8.43538
340 5.54803
345 5.90172
350 7.41883
355 7.02185
360 6.35087
365 6.09206
370 5.76953
375 8.3127
380 6.90207
385 6.15829
390 4.24969
395 5.36959
400 5.10894
405 4.66647
410 6.67728
415 5.20691
420 5.65127
425 6.27918
430 5.48641
435 5.82816
440 5.02607
445 3.89721
450 5.32538
455 7.79692
460 6.14623
465 7.25649
470 8.84673
475 6.95581
480 7.77908
485 6.56736
490 6.27006
495 6.05336
500 6.95162
505 4.93062
510 8.5
515 6.991
520 7.71676
525 5.99177
530 7.09569
535 6.36528
540 4.65843
545 5.56664
550 7.39278
555 6.06668
560 4.72358
565 4.9092
570 5.4014
575 6.58445
580 4.66656
585 5.82431
590 5.45653
595 7.03337
600 8.42172
Ex : 218
200 4.62174
205 6.60216
210 5.33273
215 4.21886
220 6.06755
225 6.33744
230 6.37024
235 5.76419
240 5.01575
245 7.54087
250 4.36701
255 5.02388
260 6.17634
265 7.97796
270 4.28115
275 4.1011
280 5.75198
285 6.62374
290 4.21153
295 7.67383
300 8.82587
305 6.95036
310 9.54056
315 10.3429
320 6.28136
325 7.1906
330 7.50405
335 5.33099
340 7.17967
345 5.75613
350 4.96761
355 5.21986
360 8.00417
365 7.38664
370 4.49616
375 5.74487
380 8.798
385 6.81739
390 5.2974
395 5.84316
400 4.65687
405 6.48016
410 6.36973
415 7.20936
420 5.1508
425 4.69596
430 7.53736
435 7.428
440 8.83354
445 7.1348
450 7.93305
455 4.66811
460 6.00921
465 5.11484
470 7.22652
475 3.78668
480 7.0147
485 6.71696
490 5.19126
495 7.38914
500 4.57673
505 4.85876
510 7.18256
515 8.59798
520 6.06799
525 6.05287
530 6.81869
535 5.76944
540 5.63445
545 7.18089
550 6.96756
555 5.13447
560 5.80822
565 11.5949
570 5.61754
575 5.44051
580 6.06115
585 6.61924
590 5.71281
595 5.46469
600 0.621862
Ex : 223
200 5.66046
205 5.45611
210 6.09338
215 8.79967
220 6.35468
225 4.85742
230 5.95746
235 3.48617
240 6.91497
245 4.8682
250 5.36929
255 4.87446
260 7.14988
265 3.88689
270 5.24585
275 5.97007
280 4.2061
285 5.56553
290 5.64302
295 6.72636
300 4.90489
305 5.94204
310 7.35327
315 4.0824
320 4.81352
325 7.07689
330 6.35992
335 6.13122
340 6.378
345 7.11744
350 5.63393
355 8.32678
360 6.26478
365 8.73518
370 10.2547
375 6.41208
380 4.59852
385 5.36243
390 6.05183
395 5.71559
400 5.42786
405 5.55137
410 8.26759
415 9.73469
420 5.99165
425 6.15064
430 7.52913
435 5.35998
440 5.17524
445 7.36555
450 6.1357
455 6.20391
460 4.8964
465 5.56326
470 8.22023
475 6.69576
480 6.23365
485 6.54261
490 6.43699
495 5.60281
500 6.72821
505 6.90605
510 5.26224
515 5.17493
520 6.27241
525 6.32895
530 6.09473
535 6.12538
540 6.76561
545 6.74197
550 8.7938
555 6.48308
560 5.40937
565 5.02644
570 7.03308
575 6.41421
580 6.22128
585 5.17049
590 8.7199
595 8.36237
600 0.951605
Ex : 228
200 5.57806
205 5.75933
210 4.44086
215 4.83831
220 3.31173
225 5.26049
230 4.38233
235 4.28863
240 6.04487
245 4.73795
250 5.97531
255 6.65519
260 6.15648
265 4.66476
270 4.05243
275 6.5904
280 5.72634
285 5.70339
290 4.63305
295 5.61261
300 3.48611
305 5.41983
310 5.91154
315 5.34262
320 4.03211
325 5.53792
330 5.08485
335 6.60097
340 5.22559
345 4.32487
350 4.50479
355 6.03379
360 6.15093
365 5.70508
370 7.41194
375 7.21401
380 5.79964
385 6.39051
390 5.19291
395 5.30666
400 4.85221
405 5.19083
410 5.17833
415 7.30872
420 6.89642
425 7.08169
430 7.96516
435 4.10267
440 5.90354
445 6.86396
450 6.8465
455 9.51511
460 5.37264
465 4.2044
470 8.59401
475 6.1531
480 9.10954
485 7.18379
490 7.37925
495 4.83299
500 4.0875
505 4.86178
510 5.12683
515 4.90366
520 5.82493
525 6.73864
530 6.53118
535 4.88849
540 6.37177
545 4.76839
550 5.47096
555 6.08625
560 7.21474
565 5.461
570 6.11666
575 4.64599
580 4.44008
585 5.33143
590 5.28673
595 5.90006
600 14.2599
Ex : 233
200 4.24194
205 6.37251
210 4.22693
215 3.71284
220 3.89026
225 7.84934
230 6.66581
235 6.22228
240 4.01024
245 6.61035
250 5.42128
255 5.14365
260 5.85107
265 4.63811
270 6.15629
275 5.19389
280 5.63448
285 4.4515
290 5.03451
295 7.66636
300 5.79211
305 6.53605
310 5.65785
315 4.94622
320 6.73804
325 7.55871
330 4.02833
335 4.67233
340 6.23329
345 4.70788
350 5.11446
355 4.80685
360 4.94229
365 3.18249
370 5.58887
375 6.39632
380 6.2819
385 4.65895
390 5.13247
395 7.2594
400 5.21353
405 5.36325
410 5.94942
415 4.06038
420 7.065
425 4.94077
430 6.42596
435 5.63419
440 5.93752
445 5.45153
450 8.93198
455 6.30187
460 6.43401
465 7.18032
470 5.03179
475 6.55907
480 5.75292
485 7.94745
490 5.2322
495 4.21152
500 4.69047
505 5.49931
510 6.69901
515 6.90392
520 5.18063
525 3.15046
530 5.10387
535 4.97913
540 4.05402
545 5.47612
550 4.50388
555 5.20586
560 5.53593
565 5.74501
570 6.66186
575 5.69094
580 6.04702
585 8.45127
590 8.13756
595 6.94232
600 2.94222
Ex : 238
200 6.7482
205 5.50178
210 4.4952
215 6.76995
220 5.91306
225 4.75392
230 5.22187
235 3.9328
240 5.72609
245 3.64377
250 7.33451
255 5.36061
260 5.21363
265 4.35728
270 3.42867
275 6.61344
280 5.5634
285 7.43787
290 4.61531
295 6.67502
300 4.75388
305 3.37552
310 6.83793
315 7.60846
320 3.9724
325 8.85615
330 5.44834
335 4.88207
340 6.54602
345 5.76369
350 3.37528
355 5.87336
360 3.67948
365 3.80271
370 3.1551
375 5.65354
380 6.16949
385 3.99547
390 6.45969
395 5.42024
400 4.15827
405 5.52897
410 5.24246
415 5.12531
420 4.20217
425 5.88664
430 3.10866
435 3.9117
440 4.42811
445 6.76207
450 5.5308
455 5.17278
460 4.80794
465 5.10049
470 6.91626
475 4.93889
480 4.80681
485 4.85835
490 4.85062
495 4.7639
500 4.91031
505 3.74779
510 5.47593
515 6.24233
520 7.02161
525 3.94962
530 6.40412
535 4.19578
540 6.15843
545 8.34963
550 7.20351
555 5.69223
560 5.23437
565 5.10188
570 7.37036
575 5.12629
580 7.19199
585 5.91329
590 4.01707
595 5.46596
600 2.94829
Ex : 243
200 4.30128
205 7.07351
210 5.34464
215 5.05671
220 3.34338
225 4.37967
230 4.76395
235 4.89023
240 3.27155
245 4.48054
250 3.19635
255 5.90251
260 4.54516
265 3.54139
270 3.59792
275 4.66093
280 3.38031
285 5.08945
290 4.45595
295 5.63292
300 3.22193
305 6.2363
310 6.46999
315 4.3479
320 5.30126
325 4.39679
330 3.43571
335 4.90076
340 3.61859
345 3.75164
350 4.14784
355 4.2884
360 6.50847
365 4.93075
370 3.61822
375 4.2167
380 5.58663
385 4.46922
390 4.36399
395 3.25006
400 2.68052
405 5.72362
410 4.3598
415 7.0593
420 4.19091
425 5.2532
430 4.68385
435 4.04225
440 6.93412
445 5.87448
450 4.29841
455 5.15134
460 5.48008
465 4.04266
470 3.50928
475 3.92368
480 4.58701
485 3.71115
490 3.90171
495 4.15979
500 5.3665
505 4.36609
510 5.55534
515 6.076
520 5.87747
525 6.23124
530 4.70867
535 4.91034
540 5.18206
545 4.92712
550 3.62105
555 3.67182
560 5.74672
565 4.93426
570 5.16216
575 2.88031
580 4.04056
585 3.15936
590 5.16383
595 3.2658
600 8.23669
Ex : 248
200 5.89356
205 3.13684
210 4.4901
215 3.31601
220 3.58505
225 3.89632
230 4.38207
235 5.37522
240 3.65009
245 3.55827
250 3.18551
255 3.35595
260 3.56758
265 3.70348
270 2.65488
275 5.24925
280 2.51745
285 3.06751
290 3.49948
295 3.32119
300 5.41342
305 4.22325
310 4.27717
315 3.24581
320 3.62207
325 3.18157
330 2.70214
335 3.5289
340 3.73049
345 3.99265
350 3.85767
355 3.87646
360 4.71605
365 3.21295
370 5.20547
375 3.96695
380 4.4615
385 5.63051
390 5.49339
395 4.17498
400 4.60737
405 5.32753
410 4.25741
415 3.67887
420 3.72779
425 3.66766
430 3.11451
435 3.33115
440 3.68539
445 2.62353
450 3.50429
455 3.34342
460 4.25257
465 4.57312
470 5.02925
475 3.90373
480 3.34636
485 3.97988
490 3.49059
495 4.0345
500 3.73508
505 4.48223
510 4.57011
515 4.12652
520 3.95853
525 4.22979
530 4.82903
535 5.03748
540 3.21617
545 3.75143
550 3.25789
555 3.95823
560 3.94268
565 4.84732
570 5.00232
575 3.12551
580 3.79284
585 4.90105
590 4.44843
595 4.50052
600 5.16471
Ex : 253
200 4.01928
205 4.52324
210 3.84483
215 3.23595
220 3.79104
225 2.47074
230 2.8869
235 3.18454
240 4.0853
245 3.41819
250 3.59489
255 3.48097
260 1.56779
265 2.25122
270 4.3104
275 4.29885
280 3.52949
285 2.4469
290 3.00278
295 3.78313
300 3.26425
305 3.85791
310 3.04211
315 3.66414
320 3.08222
325 3.16103
330 2.87897
335 2.83924
340 4.20561
345 3.11843
350 3.8828
355 3.57634
360 3.80872
365 3.49126
370 3.37928
375 5.49563
380 4.62627
385 3.9207
390 3.53091
395 3.10003
400 2.99401
405 3.6737
410 2.67461
415 3.85351
420 3.93978
425 3.09644
430 2.88377
435 2.86446
440 3.59713
445 3.78455
450 3.17746
455 3.19021
460 3.27985
465 3.45838
470 4.52351
475 3.91009
480 4.32156
485 4.34344
490 3.29642
495 4.69589
500 3.63928
505 5.19878
510 4.16321
515 4.12321
520 4.36248
525 3.12543
530 3.56626
535 3.96991
540 4.25993
545 3.58751
550 3.35876
555 3.77791
560 3.69806
565 4.40458
570 2.65987
575 5.02066
580 3.13124
585 1.73345
590 2.76383
595 2.19822
600 9.99839
Ex : 258
200 2.27746
205 2.32755
210 2.29711
215 3.62515
220 2.49082
225 2.99398
230 2.63104
235 2.59061
240 3.47065
245 2.61639
250 1.94701
255 2.69203
260 1.88885
265 3.25235
270 3.30866
275 3.35563
280 1.75252
285 2.12011
290 2.76685
295 4.28898
300 2.77108
305 2.51374
310 1.85314
315 3.2174
320 2.21537
325 2.62692
330 1.99921
335 1.77577
340 1.9136
345 2.03037
350 2.33621
355 2.61158
360 4.08731
365 2.34615
370 2.69478
375 2.78561
380 3.87044
385 3.20574
390 2.3065
395 3.12384
400 3.33463
405 1.9145
410 3.03697
415 2.41752
420 2.62968
425 2.41183
430 3.28401
435 3.74128
440 3.57923
445 2.40391
450 1.83003
455 3.35367
460 2.80914
465 3.22186
470 2.65246
475 1.89144
480 2.53218
485 2.86636
490 3.03986
495 2.48687
500 2.87951
505 3.96282
510 3.72888
515 5.10363
520 3.63172
525 3.89732
530 2.75008
535 2.00249
540 2.69369
545 2.69445
550 2.83863
555 2.36944
560 1.80192
565 2.89141
570 2.01916
575 2.55733
580 2.32773
585 2.37048
590 2.5679
595 1.94125
600 0.220907
Ex : 263
200 2.75542
205 2.01396
210 1.65319
215 2.29286
220 2.09897
225 1.68278
230 1.39106
235 1.87945
240 1.86467
245 2.18732
250 1.88508
255 1.75621
260 2.66866
265 1.81341
270 2.12251
275 2.27109
280 2.32671
285 1.83873
290 2.41585
295 2.20444
300 1.8726
305 2.92744
310 2.23078
315 2.26566
320 2.17321
325 1.28775
330 2.32127
335 1.92684
340 2.02425
345 2.56558
350 1.94203
355 2.13696
360 1.67772
365 2.46735
370 3.16644
375 2.35359
380 2.38324
385 3.05309
390 3.18492
395 3.17865
400 2.05507
405 2.4284
410 2.55747
415 2.33107
420 3.10248
425 1.93396
430 3.12694
435 2.2816
440 2.25949
445 1.98799
450 2.69375
455 2.04481
460 2.08715
465 2.59752
470 2.41745
475 2.92166
480 2.76448
485 2.07169
490 2.26584
495 2.16078
500 3.06563
505 3.26067
510 2.44742
515 2.38409
520 2.64788
525 2.49125
530 2.499
535 2.35736
540 1.90563
545 2.07938
550 2.22404
555 2.12942
560 2.67622
565 2.37422
570 2.49903
575 2.40679
580 2.81797
585 1.99219
590 1.8371
595 1.6418
600 2.3728
Ex : 268
200 2.17939
205 1.27725
210 1.30842
215 1.82393
220 1.98105
225 1.07906
230 2.16898
235 1.81252
240 1.56112
245 2.36657
250 1.7087
255 1.53783
260 1.69311
265 1.92499
270 1.78103
275 1.5903
280 1.60935
285 1.35664
290 1.56752
295 1.58378
300 1.40146
305 1.50395
310 1.89104
315 1.07025
320 1.48761
325 1.44477
330 1.15661
335 1.52343
340 1.53343
345 1.1816
350 1.56333
355 1.6578
360 2.00575
365 1.63149
370 2.18428
375 3.41248
380 2.08419
385 1.39122
390 1.73765
395 1.80912
400 1.87421
405 1.72822
410 1.91636
415 2.14224
420 1.93592
425 1.79055
430 1.86553
435 2.07049
440 2.66883
445 1.49882
450 2.72517
455 1.57225
460 1.74715
465 2.01625
470 2.05359
475 2.11326
480 1.92114
485 1.8349
490 2.36581
495 1.99349
500 1.58584
505 1.59574
510 2.19226
515 1.25707
520 1.11185
525 1.601
530 2.16109
535 2.01833
540 1.76605
545 1.80431
550 1.70051
555 2.10706
560 2.20017
565 2.44175
570 1.40376
575 2.0773
580 1.59195
585 1.34409
590 1.14463
595 1.50338
600 1.5447
Ex : 273
200 2.14796
205 1.65062
210 1.44907
215 1.26386
220 1.37916
225 1.49161
230 1.74045
235 1.95204
240 0.978433
245 1.06983
250 1.48071
255 1.68254
260 1.14154
265 1.28055
270 1.51531
275 1.1892
280 1.22968
285 1.43651
290 1.15282
295 1.67759
300 1.13832
305 1.17501
310 0.953116
315 1.38686
320 1.39281
325 1.54357
330 1.36621
335 1.2739
340 1.66874
345 1.23296
350 1.62327
355 1.44322
360 2.32137
365 1.29137
370 1.60421
375 1.2178
380 1.71916
385 1.56198
390 2.20145
395 1.79937
400 1.64204
405 1.78857
410 1.87936
415 1.5934
420 1.88337
425 1.50544
430 1.42921
435 1.84171
440 1.20892
445 1.85686
450 1.42644
455 1.7134
460 1.81163
465 1.63079
470 1.39138
475 1.69682
480 2.00668
485 2.50691
490 1.94209
495 2.21808
500 2.13218
505 1.53318
510 1.5942
515 1.97526
520 1.606
525 1.44787
530 1.45937
535 1.7859
540 1.83561
545 2.05522
550 1.47999
555 1.45835
560 1.14166
565 1.69892
570 2.38566
575 1.62737
580 1.46743
585 1.62116
590 1.6426
595 1.6398
600 0.186603
Ex : 278
200 1.35226
205 1.19
210 1.14959
215 0.79367
220 1.67779
225 1.29159
230 0.965125
235 1.0205
240 0.959405
245 0.962286
250 0.704716
255 1.09017
260 1.07725
265 0.866706
270 1.21391
275 2.33655
280 1.50079
285 1.04014
290 1.11194
295 1.12553
300 1.3206
305 1.47263
310 0.946994
315 0.967047
320 1.38232
325 0.915974
330 1.04522
335 0.929567
340 1.42478
345 1.32311
350 1.25311
355 1.83213
360 1.25186
365 2.12067
370 1.49708
375 1.21183
380 1.12363
385 1.40187
390 1.42709
395 1.38028
400 1.34038
405 1.30416
410 1.40533
415 1.67331
420 1.63169
425 1.44863
430 1.1822
435 1.82857
440 1.28946
445 1.09645
450 1.28297
455 1.89878
460 1.29044
465 1.4609
470 1.58608
475 1.32209
480 1.25034
485 1.6806
490 1.25296
495 1.75645
500 1.1417
505 1.6989
510 1.1432
515 1.03948
520 1.15062
525 1.40603
530 1.15753
535 1.16477
540 1.02966
545 1.55201
550 1.86596
555 1.53868
560 1.05177
565 0.971053
570 1.03007
575 0.804952
580 1.06951
585 1.35433
590 1.37073
595 0.89291
600 8.78029
Ex : 283
200 0.981595
205 1.28002
210 0.692093
215 0.612783
220 1.28389
225 1.09151
230 0.546935
235 0.679417
240 0.968974
245 0.743531
250 1.14551
255 0.858525
260 0.573146
265 0.848677
270 0.92679
275 0.812246
280 0.991416
285 0.816552
290 0.710615
295 0.836834
300 0.693982
305 0.487756
310 0.566332
315 0.87619
320 0.870558
325 0.73425
330 0.933965
335 0.938997
340 0.697044
345 0.986916
350 1.05367
355 0.763969
360 1.25223
365 0.819825
370 1.26267
375 1.24931
380 1.40633
385 1.28471
390 0.973848
395 1.01065
400 1.83415
405 1.36466
410 1.46086
415 1.62911
420 1.36885
425 1.35288
430 1.52209
435 1.19688
440 1.44542
445 1.20622
450 1.82228
455 1.29413
460 2.04959
465 1.50765
470 1.20811
475 1.19505
480 1.42723
485 1.41777
490 1.20684
495 1.02536
500 0.901051
505 0.733352
510 0.80338
515 1.18854
520 0.981034
525 1.04547
530 1.07066
535 1.06053
540 0.685297
545 0.962354
550 1.03462
555 1.22473
560 1.785
565 1.66376
570 1.43234
575 1.02778
580 1.09657
585 0.803593
590 0.774754
595 0.579687
600 2.16754
Ex : 288
200 0.910329
205 0.998499
210 1.09474
215 0.908995
220 0.933361
225 1.11691
230 1.24312
235 0.624846
240 0.6154
245 0.630899
250 0.848375
255 0.805912
260 0.964146
265 0.703782
270 0.687566
275 0.616695
280 1.2331
285 1.2911
290 0.845051
295 0.573115
300 0.839944
305 0.71079
310 1.04892
315 0.810947
320 0.736241
325 0.781941
330 0.68574
335 0.76355
340 0.908632
345 1.07155
350 1.0281
355 1.14818
360 0.932173
365 0.550957
370 0.874284
375 1.0853
380 0.868324
385 0.929975
390 1.51916
395 1.01773
400 1.61081
405 1.15879
410 1.4047
415 1.04861
420 1.18165
425 1.19956
430 1.0532
435 1.00299
440 0.933735
445 1.10865
450 1.43308
455 1.40139
460 1.00224
465 1.01946
470 0.943271
475 0.970076
480 1.1574
485 1.12442
490 0.939498
495 0.880549
500 1.21489
505 1.1713
510 0.712907
515 0.624332
520 0.855547
525 0.732633
530 0.809894
535 0.974805
540 0.921884
545 0.718945
550 0.701951
555 0.590821
560 0.397656
565 1.26918
570 1.32075
575 1.39925
580 1.2652
585 0.911038
590 0.799136
595 0.896906
600 2.43645
Ex : 293
200 0.453753
205 0.606063
210 0.527168
215 0.618324
220 0.376705
225 0.710579
230 0.783878
235 0.557163
240 0.572545
245 0.363458
250 0.684164
255 0.591792
260 0.57797
265 0.587865
270 0.570689
275 0.525348
280 1.01419
285 0.790614
290 0.709349
295 0.840075
300 0.470345
305 0.424583
310 0.515998
315 0.761555
320 0.481067
325 0.479879
330 0.581219
335 0.592351
340 0.863897
345 0.801624
350 0.616493
355 0.698156
360 1.05243
365 1.08898
370 0.964902
375 0.732669
380 0.683975
385 1.13883
390 0.905294
395 0.944606
400 0.96469
405 1.03787
410 1.14187
415 0.957502
420 1.09219
425 1.0502
430 0.872826
435 0.972736
440 0.841647
445 1.08565
450 1.04935
455 0.69144
460 0.742023
465 1.06018
470 0.655159
475 0.845451
480 0.941235
485 0.722455
490 0.779453
495 0.864017
500 1.07811
505 0.633923
510 0.731446
515 0.691466
520 0.82987
525 1.05238
530 0.581933
535 0.592977
540 0.822522
545 0.913142
550 1.12423
555 0.890968
560 0.674944
565 0.591827
570 0.532134
575 1.27284
580 1.35279
585 1.15437
590 0.874716
595 0.884126
600 1.90994
Ex : 298
200 0.454314
205 0.632617
210 0.628469
215 0.58793
220 0.613184
225 0.649321
230 0.535431
235 0.402185
240 0.421836
245 0.457987
250 0.623168
255 0.518351
260 0.553454
265 0.743567
270 0.559475
275 0.413622
280 0.513511
285 0.475339
290 0.765397
295 1.02487
300 0.497135
305 0.583525
310 0.525846
315 0.478155
320 0.476523
325 0.568711
330 0.623946
335 0.501585
340 0.73597
345 0.6314
350 0.699279
355 0.58717
360 1.13079
365 0.989465
370 0.856137
375 0.904645
380 0.892155
385 0.848619
390 0.863957
395 0.740322
400 0.754016
405 0.848378
410 1.22357
415 0.921899
420 1.04575
425 0.767155
430 1.05897
435 1.1154
440 0.944294
445 0.889646
450 0.694177
455 0.86394
460 0.976199
465 0.934261
470 0.843044
475 0.835454
480 0.866988
485 0.776278
490 0.722153
495 0.701949
500 0.573934
505 0.719786
510 0.689842
515 0.605268
520 0.904159
525 0.627176
530 0.709028
535 0.755167
540 0.512133
545 0.701054
550 0.638644
555 0.678035
560 0.805057
565 0.589177
570 0.479411
575 0.536146
580 0.741774
585 1.01726
590 1.5181
595 1.12523
600 0.497299
Ex : 303
200 0.577094
205 0.549903
210 0.476647
215 0.624317
220 0.82524
225 0.735189
230 0.589252
235 0.433805
240 0.856949
245 0.688652
250 0.532804
255 0.409782
260 0.415638
265 0.542781
270 0.41291
275 0.465667
280 0.632938
285 0.583234
290 0.39022
295 0.607901
300 0.949411
305 0.761818
310 0.434242
315 0.380876
320 0.573291
325 0.443198
330 0.769993
335 0.717198
340 0.473798
345 0.586103
350 0.704048
355 0.783907
360 0.706395
365 0.679448
370 0.879639
375 0.880301
380 0.823166
385 0.776236
390 1.13238
395 0.873311
400 0.801955
405 0.603545
410 0.76442
415 1.03986
420 0.770903
425 0.790451
430 0.758677
435 0.889861
440 0.861055
445 0.912102
450 0.918808
455 0.818231
460 1.01404
465 0.85284
470 0.644988
475 0.597532
480 0.733992
485 0.763222
490 0.684578
495 0.695961
500 0.665134
505 0.583802
510 0.694738
515 0.735359
520 0.70722
525 0.499598
530 0.525079
535 0.498072
540 0.550002
545 0.493446
550 0.301216
555 0.687583
560 0.513434
565 0.486522
570 0.560314
575 0.659056
580 0.618412
585 0.478224
590 0.60609
595 0.820389
600 0.0933572
Ex : 308
200 0.346305
205 0.436173
210 0.376238
215 0.375978
220 0.259045
225 0.369743
230 0.635523
235 0.355288
240 0.38713
245 0.428803
250 0.665159
255 0.419192
260 0.38682
265 0.422039
270 0.503159
275 0.68843
280 0.41125
285 0.395521
290 0.446407
295 0.447434
300 0.688183
305 0.880874
310 0.678973
315 0.390622
320 0.596299
325 0.47302
330 0.423765
335 0.645409
340 0.522335
345 0.561903
350 0.6313
355 0.662739
360 0.508235
365 0.744339
370 0.673754
375 0.787905
380 0.674444
385 0.695838
390 0.85988
395 0.74165
400 0.960398
405 1.06157
410 0.954329
415 0.975499
420 0.821366
425 0.856266
430 0.803492
435 0.834333
440 0.670322
445 0.840239
450 0.744392
455 0.789194
460 0.884626
465 0.802585
470 0.88726
475 0.624778
480 0.949477
485 0.838495
490 0.70773
495 0.521188
500 0.712012
505 0.523397
510 0.494319
515 0.567356
520 0.43954
525 0.654181
530 0.483892
535 0.552522
540 0.430728
545 0.634997
550 0.548061
555 0.483321
560 0.505314
565 0.42908
570 0.53512
575 0.465654
580 0.442734
585 0.416499
590 0.624091
595 0.626059
600 0.370636
Ex : 313
200 0.360889
205 0.464726
210 0.30849
215 0.288233
220 0.483434
225 0.348456
230 0.173229
235 0.51267
240 0.626838
245 0.439262
250 0.475436
255 0.701448
260 0.441695
265 0.529832
270 0.382826
275 0.286115
280 0.536223
285 0.296558
290 0.392839
295 0.443918
300 0.405913
305 0.692542
310 0.765578
315 0.429087
320 0.401103
325 0.552118
330 0.324463
335 0.549679
340 0.462986
345 0.408296
350 0.504411
355 0.693944
360 0.725067
365 0.681752
370 0.96022
375 0.805591
380 0.910237
385 0.850492
390 0.817094
395 1.24313
400 1.1322
405 1.15654
410 1.00272
415 1.20393
420 1.21051
425 1.31526
430 1.15366
435 1.3828
440 1.1884
445 1.00458
450 1.43457
455 1.0441
460 1.00323
465 0.923773
470 0.912018
475 1.02238
480 0.90323
485 0.873174
490 0.814773
495 0.597097
500 0.702345
505 0.657883
510 0.549726
515 0.603785
520 0.581854
525 0.528769
530 0.545731
535 0.549106
540 0.344402
545 0.555293
550 0.412502
555 0.493236
560 0.446365
565 0.473599
570 0.475331
575 0.463068
580 0.439899
585 0.383058
590 0.643156
595 0.329708
600 0.0375195
Ex : 318
200 0.297753
205 0.224716
210 0.446399
215 0.389346
220 0.577128
225 0.525442
230 0.270192
235 0.402573
240 0.439021
245 0.424514
250 0.24613
255 0.220405
260 0.386322
265 0.345203
270 0.383231
275 0.353918
280 0.29227
285 0.270615
290 0.25469
295 0.362376
300 0.322721
305 0.379101
310 0.666349
315 1.36163
320 0.646748
325 0.421692
330 0.723858
335 0.745889
340 1.34161
345 1.33306
350 2.23848
355 2.75951
360 3.75153
365 4.30841
370 4.66859
375 5.52158
380 6.20947
385 7.27853
390 7.24602
395 8.35969
400 8.84133
405 9.07164
410 9.06174
415 8.98907
420 8.94113
425 8.5018
430 8.76086
435 8.14172
440 8.00515
445 7.21944
450 6.60353
455 6.89775
460 6.43318
465 6.28663
470 5.15557
475 5.18368
480 4.58462
485 3.93349
490 3.33195
495 3.14864
500 2.85235
505 2.55294
510 2.22832
515 1.66358
520 1.64909
525 1.55996
530 1.36111
535 1.24055
540 1.03403
545 0.928529
550 1.02461
555 0.932024
560 0.670092
565 0.698018
570 0.590017
575 0.632589
580 0.402118
585 0.54031
590 0.488261
595 0.41476
600 0.0471981
Ex : 323
200 0.412597
205 0.360365
210 0.25129
215 0.367194
220 0.375465
225 0.271854
230 0.345534
235 0.28323
240 0.282332
245 0.190794
250 0.308881
255 0.420643
260 0.369642
265 0.368314
270 0.340509
275 0.303409
280 0.350593
285 0.275107
290 0.362028
295 0.271912
300 0.226744
305 0.413504
310 0.352355
315 2.88316
320 11.761
325 5.56219
330 2.17926
335 2.99153
340 4.28538
345 5.58948
350 8.22571
355 11.5776
360 13.7821
365 16.7041
370 20.1023
375 23.2088
380 26.6789
385 27.861
390 30.9015
395 33.2646
400 34.617
405 35.964
410 36.537
415 35.465
420 35.2567
425 34.8511
430 34.586
435 33.4111
440 31.6576
445 30.7058
450 27.92
455 26.5065
460 24.4412
465 23.1418
470 21.4398
475 18.7556
480 18.0984
485 16.2209
490 13.9404
495 12.8976
500 11.435
505 10.0677
510 8.64302
515 7.85345
520 6.43419
525 5.76883
530 5.18348
535 4.51779
540 3.89017
545 3.42767
550 2.97019
555 2.71233
560 2.42113
565 2.02029
570 1.21895
575 1.06684
580 0.832611
585 0.680779
590 0.5522
595 0.738684
600 0.0840594
Ex : 328
200 0.320622
205 0.269775
210 0.253257
215 0.34478
220 0.294541
225 0.35631
230 0.267683
235 0.291197
240 0.258964
245 0.23919
250 0.311938
255 0.234008
260 0.332699
265 0.228951
270 0.310984
275 0.228936
280 0.327261
285 0.280502
290 0.31452
295 0.311788
300 0.276082
305 0.284093
310 0.333789
315 0.893896
320 28.7283
325 68.9954
330 22.576
335 6.04692
340 5.56739
345 6.8427
350 9.15116
355 13.5571
360 18.1587
365 20.2054
370 22.4818
375 25.6244
380 28.9233
385 31.3583
390 33.4334
395 35.9927
400 37.7922
405 39.5728
410 40.1376
415 40.0674
420 39.1224
425 37.912
430 36.2105
435 36.1012
440 35.4226
445 33.5957
450 32.1389
455 30.1742
460 28.1607
465 26.0775
470 23.7772
475 22.2376
480 20.9565
485 18.6856
490 16.429
495 13.9942
500 13.5895
505 11.8336
510 10.6635
515 9.81377
520 8.0341
525 6.97639
530 5.87836
535 5.56741
540 4.62714
545 4.49649
550 3.69606
555 3.22256
560 2.69897
565 2.34265
570 2.0845
575 1.43485
580 1.1754
585 1.03968
590 0.788633
595 0.749886
600 0.638265
Ex : 333
200 0.211159
205 0.260294
210 0.265874
215 0.192195
220 0.345465
225 0.340363
230 0.221301
235 0.302767
240 0.269335
245 0.333433
250 0.27557
255 0.185139
260 0.249836
265 0.320481
270 0.2747
275 0.24821
280 0.278299
285 0.394552
290 0.398542
295 0.204133
300 0.261234
305 0.328617
310 0.397211
315 0.295988
320 4.86182
325 86.8509
330 151.243
335 41.8301
340 8.49779
345 5.60724
350 6.18757
355 6.73442
360 9.87763
365 14.3659
370 15.5555
375 16.0489
380 16.7075
385 17.4236
390 18.9726
395 20.4188
400 21.4121
405 22.3082
410 22.8128
415 22.833
420 21.8106
425 22.3449
430 21.4587
435 21.3603
440 20.08
445 19.7738
450 19.1614
455 18.2502
460 17.2075
465 16.5469
470 16.0626
475 14.9163
480 14.4225
485 13.1717
490 11.9021
495 10.7852
500 10.3484
505 9.12911
510 8.34841
515 7.60796
520 6.87596
525 6.39207
530 5.42594
535 5.32864
540 4.27189
545 3.62815
550 3.10134
555 3.08235
560 2.47185
565 2.32609
570 1.88511
575 1.58995
580 1.24232
585 1.17833
590 0.972016
595 0.77835
600 0.517608
Ex : 338
200 0.155437
205 0.224081
210 0.227571
215 0.199855
220 0.20807
225 0.211744
230 0.252853
235 0.279679
240 0.20035
245 0.24738
250 0.275063
255 0.291615
260 0.301925
265 0.195041
270 0.292375
275 0.413468
280 0.225516
285 0.367661
290 0.260121
295 0.270427
300 0.245522
305 0.222412
310 0.340459
315 0.351746
320 0.310163
325 9.04453
330 135.136
335 199.866
340 50.4741
345 8.5718
350 4.44893
355 4.08183
360 4.29635
365 6.44431
370 10.3122
375 11.6042
380 10.0696
385 9.69122
390 9.7907
395 10.4661
400 10.4884
405 11.2549
410 12.3672
415 12.7606
420 12.6393
425 12.9373
430 12.2698
435 12.3029
440 12.2967
445 11.9731
450 11.9805
455 12.6473
460 11.6784
465 11.5072
470 11.2185
475 11.468
480 11.1595
485 10.6948
490 10.3266
495 9.60426
500 9.22514
505 8.26805
510 7.76626
515 7.17389
520 6.65493
525 5.64125
530 5.62708
535 4.80932
540 4.25791
545 3.8829
550 3.31765
555 3.00857
560 2.95005
565 2.34729
570 2.24638
575 1.74305
580 1.1307
585 1.00077
590 0.889772
595 0.79499
600 0.316869
Ex : 343
200 0.44253
205 0.324921
210 0.249439
215 0.278452
220 0.194579
225 0.260785
230 0.288529
235 0.337743
240 0.297944
245 0.276197
250 0.231213
255 0.175805
260 0.180329
265 0.205653
270 0.257727
275 0.325851
280 0.274341
285 0.30135
290 0.258235
295 0.231134
300 0.249819
305 0.253465
310 0.327568
315 0.192104
320 0.341182
325 0.385357
330 11.4113
335 155.971
340 220.016
345 54.3121
350 8.49185
355 3.73738
360 3.0085
365 2.73106
370 3.71797
375 7.98728
380 9.35294
385 7.84316
390 6.71709
395 6.60241
400 7.30596
405 7.78942
410 8.40452
415 9.13491
420 9.04567
425 9.2361
430 9.58723
435 10.1297
440 10.252
445 11.0055
450 10.7486
455 11.0474
460 11.3139
465 11.1061
470 11.2597
475 11.2202
480 10.9059
485 10.6739
490 10.2935
495 10.0029
500 9.39516
505 8.91364
510 8.4465
515 7.94759
520 7.08532
525 6.45395
530 5.76068
535 5.16283
540 5.00183
545 4.2307
550 4.05067
555 3.52134
560 3.14102
565 2.716
570 2.21625
575 1.9044
580 1.48454
585 1.22737
590 0.991627
595 0.828365
600 0.403007
Ex : 348
200 0.22021
205 0.318201
210 0.251103
215 0.193733
220 0.159204
225 0.166883
230 0.220658
235 0.277771
240 0.246128
245 0.21553
250 0.199088
255 0.193986
260 0.137151
265 0.243864
270 0.234951
275 0.254769
280 0.256906
285 0.220303
290 0.236381
295 0.171424
300 0.200503
305 0.274756
310 0.300867
315 0.275704
320 0.168264
325 0.339455
330 0.527009
335 11.7007
340 156.992
345 227.538
350 59.0628
355 8.50027
360 3.08608
365 2.65178
370 2.25452
375 3.03254
380 6.4526
385 8.67887
390 7.05975
395 6.15653
400 5.85596
405 6.88843
410 7.58118
415 8.70581
420 8.75222
425 9.04361
430 9.41527
435 9.78598
440 10.6424
445 10.8428
450 11.2928
455 11.577
460 12.1021
465 12.4369
470 12.6919
475 12.7582
480 12.7475
485 12.5994
490 12.2915
495 11.9104
500 11.1198
505 11.0067
510 9.93742
515 9.18964
520 8.67575
525 7.73625
530 6.78716
535 6.43486
540 5.69503
545 5.27936
550 4.59115
555 3.97499
560 3.74403
565 3.29833
570 2.77851
575 2.16412
580 1.6405
585 1.41711
590 1.14192
595 0.937503
600 0.434311
Ex : 353
200 0.177733
205 0.222896
210 0.186865
215 0.162128
220 0.242507
225 0.160359
230 0.231976
235 0.19278
240 0.278705
245 0.168129
250 0.220087
255 0.193342
260 0.165016
265 0.146274
270 0.215402
275 0.19854
280 0.168756
285 0.204725
290 0.291547
295 0.211591
300 0.284059
305 0.267408
310 0.227337
315 0.210051
320 0.181284
325 0.254435
330 0.336771
335 0.520752
340 11.6977
345 158.18
350 224.799
355 57.1228
360 8.32318
365 2.69155
370 2.50618
375 2.57911
380 2.80577
385 5.5823
390 8.582
395 7.68517
400 6.94791
405 6.62747
410 7.38447
415 8.27688
420 8.68414
425 8.66893
430 9.52561
435 9.68453
440 10.2118
445 11.0286
450 12.0069
455 12.2955
460 13.0565
465 14.0246
470 14.0487
475 14.2631
480 14.3522
485 14.608
490 14.5558
495 13.4232
500 13.2894
505 12.2275
510 11.5105
515 10.7001
520 10.109
525 8.97288
530 8.32988
535 7.47715
540 6.87052
545 6.31808
550 5.88186
555 5.15219
560 4.44282
565 3.77209
570 3.16322
575 2.70781
580 1.99557
585 1.47066
590 1.23622
595 1.05768
600 0.732737
Ex : 358
200 0.253656
205 0.196868
210 0.175672
215 0.209844
220 0.272003
225 0.192674
230 0.182549
235 0.170426
240 0.163764
245 0.205329
250 0.143875
255 0.161265
260 0.220407
265 0.217372
270 0.182745
275 0.169186
280 0.230382
285 0.143859
290 0.206023
295 0.141844
300 0.169757
305 0.225922
310 0.251511
315 0.312386
320 0.193168
325 0.329611
330 0.187985
335 0.288435
340 0.478285
345 10.9333
350 150.946
355 225.656
360 57.7193
365 8.1257
370 2.85012
375 2.82496
380 2.61199
385 2.71446
390 4.55548
395 8.79496
400 8.85865
405 8.09088
410 8.06492
415 8.79949
420 8.7997
425 9.08925
430 9.77434
435 10.3731
440 11.5967
445 11.8141
450 13.2567
455 13.4374
460 14.0397
465 14.8192
470 15.7352
475 15.7585
480 16.0348
485 16.1827
490 15.5861
495 15.4427
500 14.526
505 13.8249
510 13.0271
515 12.013
520 10.7872
525 10.2245
530 8.87669
535 8.02695
540 7.53408
545 6.84579
550 5.96634
555 5.2583
560 4.59515
565 4.04544
570 3.5777
575 2.70457
580 2.13303
585 1.95033
590 1.35244
595 1.06069
600 0.765636
Ex : 363
200 0.153755
205 0.163961
210 0.133898
215 0.119751
220 0.20252
225 0.142318
230 0.144839
235 0.160758
240 0.252256
245 0.227102
250 0.111765
255 0.149879
260 0.194234
265 0.165945
270 0.217325
275 0.202872
280 0.298516
285 0.191081
290 0.151991
295 0.20148
300 0.175954
305 0.223497
310 0.258838
315 0.188326
320 0.349277
325 0.288295
330 0.164727
335 0.316186
340 0.330266
345 0.429894
350 10.0815
355 145.864
360 219.432
365 59.2607
370 8.37403
375 3.17594
380 3.0691
385 2.93822
390 3.03465
395 4.23794
400 7.94719
405 9.95279
410 10.2675
415 9.8025
420 9.64882
425 10.171
430 10.6453
435 11.4345
440 12.8435
445 13.6722
450 14.1884
455 15.0787
460 16.0273
465 16.736
470 17.6511
475 17.8967
480 18.3637
485 18.5165
490 17.9836
495 17.2698
500 17.0462
505 15.851
510 15.1104
515 14.2743
520 12.9979
525 11.3485
530 10.3404
535 9.65912
540 8.53716
545 7.91559
550 6.93383
555 5.77066
560 5.04754
565 4.63222
570 3.94227
575 3.15556
580 2.48621
585 1.91283
590 1.41769
595 1.12364
600 1.19833
Ex : 368
200 0.138355
205 0.137665
210 0.127093
215 0.20141
220 0.203532
225 0.183577
230 0.151559
235 0.152526
240 0.187773
245 0.203753
250 0.208127
255 0.151297
260 0.185915
265 0.217426
270 0.124027
275 0.160311
280 0.144014
285 0.168087
290 0.189912
295 0.233987
300 0.217639
305 0.177913
310 0.175089
315 0.151545
320 0.153065
325 0.149541
330 0.172506
335 0.242454
340 0.238563
345 0.29584
350 0.412923
355 8.18979
360 137.379
365 220.551
370 60.513
375 8.59866
380 3.0567
385 2.84272
390 2.97348
395 2.94835
400 4.05814
405 7.8247
410 11.4512
415 10.9099
420 10.2144
425 9.65236
430 10.0396
435 11.0522
440 12.3808
445 13.3604
450 13.8168
455 15.0886
460 16.8035
465 18.0963
470 18.6068
475 20.194
480 20.7282
485 20.5333
490 20.5355
495 20.3202
500 19.5972
505 18.3525
510 17.5
515 15.6132
520 14.6054
525 13.3849
530 12.1109
535 11.5075
540 10.0951
545 8.90509
550 8.15611
555 7.36726
560 6.18876
565 5.54239
570 4.62178
575 3.69387
580 2.75317
585 2.03483
590 1.68837
595 1.40542
600 0.823572
Ex : 373
200 0.235027
205 0.112387
210 0.201686
215 0.167622
220 0.140198
225 0.143564
230 0.187224
235 0.204248
240 0.185223
245 0.166894
250 0.187841
255 0.185324
260 0.119815
265 0.153561
270 0.180087
275 0.173442
280 0.121518
285 0.160708
290 0.15919
295 0.18871
300 0.155978
305 0.16028
310 0.197226
315 0.12259
320 0.186303
325 0.192488
330 0.179691
335 0.214143
340 0.218908
345 0.275018
350 0.344775
355 0.503537
360 9.59918
365 142.205
370 228.166
375 62.9092
380 9.09086
385 3.11184
390 3.29058
395 3.41529
400 3.88993
405 4.90777
410 7.99941
415 11.0325
420 9.8725
425 9.67984
430 9.42832
435 10.2148
440 11.2752
445 12.4296
450 13.806
455 15.0704
460 16.789
465 18.5922
470 19.901
475 20.3797
480 21.0126
485 21.0196
490 21.3531
495 21.1637
500 20.2445
505 19.3899
510 18.4287
515 16.8105
520 15.7275
525 14.0937
530 13.3796
535 11.9725
540 11.0311
545 9.9227
550 8.68718
555 7.6627
560 6.87263
565 6.01562
570 4.73716
575 3.79385
580 3.11692
585 2.5443
590 1.98945
595 1.69255
600 1.19104
Ex : 378
200 0.160848
205 0.13753
210 0.159661
215 0.197329
220 0.122603
225 0.15691
230 0.18074
235 0.187782
240 0.122414
245 0.112573
250 0.139675
255 0.149674
260 0.14156
265 0.173736
270 0.153586
275 0.115974
280 0.123655
285 0.166691
290 0.135789
295 0.18424
300 0.169722
305 0.180033
310 0.12798
315 0.152077
320 0.184461
325 0.186762
330 0.0947209
335 0.147463
340 0.193828
345 0.215066
350 0.265384
355 0.268489
360 0.457951
365 9.11888
370 145.765
375 228.71
380 63.35
385 9.26492
390 3.54257
395 3.75725
400 4.18596
405 4.95566
410 6.25554
415 8.66404
420 11.5067
425 11.2289
430 10.5066
435 10.8347
440 11.7899
445 13.1117
450 12.8964
455 15.0026
460 16.7811
465 18.0462
470 19.101
475 19.8204
480 20.5658
485 20.8519
490 20.7874
495 20.477
500 19.7251
505 18.727
510 18.0645
515 16.7573
520 15.2298
525 13.9919
530 13.144
535 11.8332
540 10.4872
545 9.31122
550 8.64471
555 7.53945
560 6.65608
565 5.58902
570 4.58099
575 3.6792
580 3.01903
585 2.24254
590 1.66317
595 1.35109
600 1.2683
Ex : 383
200 0.168192
205 0.165609
210 0.163386
215 0.138577
220 0.111261
225 0.195172
230 0.153874
235 0.16033
240 0.147567
245 0.111313
250 0.129632
255 0.129566
260 0.120175
265 0.112508
270 0.143749
275 0.168711
280 0.134955
285 0.116198
290 0.153607
295 0.144714
300 0.159081
305 0.187599
310 0.161526
315 0.139147
320 0.147975
325 0.14604
330 0.135299
335 0.168486
340 0.172086
345 0.171352
350 0.226896
355 0.213506
360 0.232938
365 0.374758
370 8.48801
375 145.338
380 237.113
385 66.691
390 9.89258
395 3.54612
400 3.98652
405 5.32086
410 6.62404
415 8.15992
420 8.99268
425 11.0352
430 12.5208
435 12.3304
440 12.7786
445 13.3047
450 14.1307
455 15.4172
460 16.8401
465 18.5145
470 19.642
475 20.259
480 21.1225
485 20.9055
490 20.7914
495 20.4849
500 20.328
505 19.1639
510 17.8443
515 16.549
520 15.6742
525 14.1704
530 13.1031
535 11.6211
540 10.6477
545 9.77634
550 8.42844
555 7.43108
560 6.643
565 5.80154
570 4.80175
575 3.71813
580 3.01829
585 2.428
590 1.74872
595 1.44278
600 0.889258
Ex : 388
200 0.163139
205 0.136931
210 0.102808
215 0.154664
220 0.176783
225 0.118602
230 0.109289
235 0.18563
240 0.167169
245 0.0965104
250 0.113786
255 0.125932
260 0.12354
265 0.141007
270 0.130324
275 0.191795
280 0.138782
285 0.13986
290 0.156354
295 0.157046
300 0.158598
305 0.145358
310 0.129872
315 0.127558
320 0.186743
325 0.162433
330 0.138233
335 0.211732
340 0.153606
345 0.263796
350 0.196863
355 0.186753
360 0.248273
365 0.249844
370 0.461988
375 9.41815
380 146.846
385 235.488
390 66.1464
395 9.80825
400 3.88606
405 4.88139
410 6.4503
415 7.1428
420 7.35682
425 7.59532
430 10.6406
435 12.9738
440 13.0235
445 13.6071
450 13.8547
455 15.2079
460 16.8739
465 18.3871
470 20.2832
475 21.0688
480 22.0545
485 21.8496
490 21.7493
495 21.6261
500 21.0668
505 19.8048
510 18.6466
515 17.6121
520 16.1376
525 15.013
530 13.5034
535 12.1795
540 11.1973
545 9.84496
550 9.02385
555 8.12457
560 7.38864
565 6.10744
570 4.75826
575 3.8156
580 2.81898
585 2.24845
590 1.8741
595 1.46809
600 1.05327
Ex : 393
200 0.173793
205 0.087781
210 0.0923498
215 0.177228
220 0.130741
225 0.141478
230 0.124501
235 0.144064
240 0.107484
245 0.145911
250 0.114351
255 0.0698571
260 0.128578
265 0.147235
270 0.158905
275 0.126736
280 0.129423
285 0.128365
290 0.155509
295 0.121789
300 0.129288
305 0.15599
310 0.15469
315 0.158047
320 0.134476
325 0.185812
330 0.179006
335 0.144448
340 0.158002
345 0.124594
350 0.178319
355 0.190284
360 0.247147
365 0.205705
370 0.246419
375 0.395173
380 8.20895
385 147.07
390 244.1
395 68.9859
400 10.3194
405 4.46104
410 5.33785
415 6.04374
420 6.17552
425 5.99698
430 6.96479
435 9.40673
440 13.0413
445 13.3361
450 13.2208
455 14.3815
460 15.8292
465 17.7648
470 19.1804
475 20.9013
480 21.4175
485 21.5066
490 22.4151
495 21.9144
500 21.4032
505 20.5388
510 19.1318
515 18.0321
520 16.7434
525 15.4563
530 14.4177
535 12.8748
540 11.4671
545 10.5159
550 9.38482
555 8.3808
560 7.49873
565 6.33451
570 5.35701
575 4.04065
580 3.15932
585 2.5223
590 2.00228
595 1.58243
600 1.46122
Ex : 398
200 0.103539
205 0.147824
210 0.123505
215 0.11894
220 0.170248
225 0.169647
230 0.175105
235 0.171086
240 0.128284
245 0.128655
250 0.154556
255 0.13507
260 0.136393
265 0.119888
270 0.122799
275 0.125076
280 0.142157
285 0.140605
290 0.154053
295 0.121833
300 0.185484
305 0.163555
310 0.146248
315 0.102188
320 0.10219
325 0.145529
330 0.148084
335 0.129071
340 0.152974
345 0.228641
350 0.168756
355 0.150733
360 0.164709
365 0.187561
370 0.274305
375 0.233767
380 0.406988
385 9.03082
390 153.936
395 251.681
400 70.1215
405 10.7005
410 5.23665
415 5.50005
420 5.74008
425 5.59363
430 5.93464
435 7.26022
440 9.36046
445 12.9352
450 14.4761
455 14.9775
460 16.2351
465 17.9372
470 19.5467
475 20.8568
480 21.2431
485 22.2542
490 22.2472
495 22.0667
500 21.4586
505 20.7736
510 19.6301
515 18.4382
520 17.0951
525 15.7881
530 14.5628
535 13.4636
540 12.4061
545 10.5134
550 9.70589
555 8.71299
560 7.55791
565 6.64441
570 5.35774
575 4.42255
580 3.24858
585 2.52143
590 1.88578
595 1.5222
600 1.21527
Ex : 403
200 0.113599
205 0.119465
210 0.105258
215 0.0907549
220 0.108484
225 0.148219
230 0.146939
235 0.150154
240 0.177551
245 0.115882
250 0.164743
255 0.112232
260 0.113893
265 0.114166
270 0.142242
275 0.170233
280 0.129078
285 0.122005
290 0.128723
295 0.151375
300 0.120087
305 0.159973
310 0.127917
315 0.111858
320 0.138379
325 0.13652
330 0.127875
335 0.148999
340 0.154774
345 0.145246
350 0.205607
355 0.178729
360 0.21852
365 0.14372
370 0.198972
375 0.274312
380 0.329568
385 0.442766
390 9.46934
395 155.283
400 247.772
405 70.5503
410 12.0835
415 5.78005
420 5.63606
425 5.8032
430 6.35305
435 7.19347
440 8.59644
445 10.4152
450 14.0044
455 16.5687
460 17.6892
465 18.8206
470 19.8289
475 20.8144
480 21.8694
485 22.3471
490 22.63
495 22.4887
500 22.108
505 21.5164
510 20.0321
515 19.117
520 17.5584
525 15.9959
530 14.9684
535 13.7761
540 12.4812
545 11.0373
550 9.86869
555 8.68667
560 7.73211
565 6.63494
570 5.35344
575 4.26402
580 3.43861
585 2.48912
590 1.97641
595 1.57048
600 1.28494
Ex : 408
200 0.149091
205 0.103335
210 0.139598
215 0.123331
220 0.139325
225 0.108587
230 0.133824
235 0.1058
240 0.099927
245 0.0990123
250 0.12917
255 0.0915063
260 0.10231
265 0.113916
270 0.16121
275 0.153199
280 0.129962
285 0.154892
290 0.146592
295 0.102413
300 0.105942
305 0.157476
310 0.131566
315 0.140616
320 0.117908
325 0.201866
330 0.146114
335 0.157692
340 0.133927
345 0.164938
350 0.168287
355 0.13967
360 0.135939
365 0.150512
370 0.171701
375 0.171273
380 0.272567
385 0.313031
390 0.424785
395 9.71479
400 162.004
405 255.391
410 70.3119
415 12.3496
420 5.69885
425 5.02709
430 5.8819
435 6.82659
440 7.83123
445 9.26936
450 11.1616
455 14.7963
460 18.4315
465 19.2416
470 19.9145
475 20.9862
480 21.589
485 22.193
490 22.5008
495 22.5893
500 21.6691
505 21.3568
510 19.8421
515 18.4834
520 17.0997
525 16.1817
530 14.6256
535 13.4296
540 12.1862
545 10.8364
550 9.7344
555 8.48365
560 7.32785
565 6.66013
570 5.53535
575 4.27257
580 3.41196
585 2.73669
590 1.99632
595 1.69795
600 1.50208
Ex : 413
200 0.136538
205 0.0926358
210 0.113102
215 0.109374
220 0.136041
225 0.153077
230 0.101272
235 0.112487
240 0.144515
245 0.142235
250 0.17806
255 0.144923
260 0.126395
265 0.127638
270 0.158416
275 0.123707
280 0.10327
285 0.0790917
290 0.122535
295 0.159561
300 0.126829
305 0.138335
310 0.153968
315 0.169362
320 0.141405
325 0.112056
330 0.139455
335 0.108907
340 0.178579
345 0.175677
350 0.188883
355 0.129875
360 0.190509
365 0.201479
370 0.164378
375 0.21824
380 0.194281
385 0.244016
390 0.286761
395 0.480785
400 10.2811
405 165.263
410 257.707
415 68.9148
420 10.9479
425 4.49007
430 4.30416
435 5.17074
440 6.0128
445 7.07899
450 9.02848
455 11.2838
460 14.725
465 18.5221
470 19.555
475 20.2863
480 20.7744
485 21.5012
490 21.5037
495 21.8832
500 21.7478
505 20.2892
510 19.5407
515 18.2597
520 16.8159
525 15.2459
530 14.4685
535 13.058
540 11.9006
545 10.9509
550 9.91916
555 8.56132
560 7.42871
565 6.21051
570 5.36387
575 4.25034
580 3.29719
585 2.63484
590 2.12984
595 1.59664
600 1.54074
Ex : 418
200 0.100244
205 0.115547
210 0.0926538
215 0.135703
220 0.100094
225 0.130792
230 0.110728
235 0.105844
240 0.137878
245 0.13715
250 0.160239
255 0.10186
260 0.121522
265 0.117653
270 0.0949716
275 0.107871
280 0.15228
285 0.108775
290 0.144649
295 0.121167
300 0.136229
305 0.19142
310 0.166201
315 0.179096
320 0.17745
325 0.111345
330 0.116759
335 0.119665
340 0.138422
345 0.191583
350 0.154866
355 0.165946
360 0.109822
365 0.135057
370 0.122307
375 0.189794
380 0.144049
385 0.22379
390 0.309029
395 0.314105
400 0.548282
405 10.3751
410 172.309
415 267.29
420 72.7269
425 10.3844
430 3.24221
435 3.21106
440 4.45142
445 5.63403
450 7.23137
455 9.03607
460 11.7707
465 14.2184
470 17.8153
475 19.3402
480 19.4613
485 19.6814
490 19.8677
495 19.8961
500 19.6193
505 19.3751
510 18.4014
515 17.2287
520 15.6436
525 14.5621
530 13.3649
535 12.4288
540 11.2091
545 10.221
550 9.34953
555 8.21196
560 7.09632
565 6.02751
570 5.16883
575 3.80619
580 3.061
585 2.45802
590 1.97669
595 1.54681
600 0.679479
Ex : 423
200 0.160521
205 0.136163
210 0.121887
215 0.171058
220 0.15574
225 0.133677
230 0.111273
235 0.140568
240 0.125881
245 0.159489
250 0.134795
255 0.0903459
260 0.0860351
265 0.152812
270 0.178911
275 0.129037
280 0.119719
285 0.133854
290 0.125343
295 0.157725
300 0.140181
305 0.132624
310 0.140809
315 0.130167
320 0.162595
325 0.130681
330 0.119081
335 0.102754
340 0.141724
345 0.163689
350 0.129977
355 0.099311
360 0.108802
365 0.148245
370 0.195133
375 0.178968
380 0.185327
385 0.161514
390 0.191863
395 0.299585
400 0.318806
405 0.625809
410 11.0163
415 177.795
420 268.591
425 69.7506
430 9.62389
435 3.17372
440 3.12414
445 4.49965
450 6.28188
455 7.72147
460 9.93915
465 11.9002
470 13.9065
475 17.2853
480 19.2219
485 18.7512
490 19.1135
495 18.8398
500 17.7519
505 17.7105
510 16.539
515 15.4727
520 14.4621
525 13.6294
530 12.4359
535 10.9189
540 10.4076
545 9.73522
550 8.62376
555 7.35189
560 6.56848
565 5.50055
570 4.69067
575 3.63292
580 2.99184
585 2.31476
590 1.75215
595 1.49198
600 0.883425
Ex : 428
200 0.157987
205 0.139167
210 0.158351
215 0.148394
220 0.104091
225 0.0835902
230 0.151265
235 0.0916639
240 0.12052
245 0.121558
250 0.132666
255 0.161838
260 0.12089
265 0.164897
270 0.152906
275 0.145739
280 0.184112
285 0.10901
290 0.124514
295 0.127241
300 0.14109
305 0.153532
310 0.160426
315 0.10896
320 0.108933
325 0.1326
330 0.130993
335 0.151169
340 0.136244
345 0.131713
350 0.132316
355 0.131449
360 0.137621
365 0.164216
370 0.145643
375 0.168435
380 0.20424
385 0.212006
390 0.192733
395 0.192452
400 0.245739
405 0.310263
410 0.504081
415 11.1167
420 180.343
425 277.315
430 74.4318
435 10.2781
440 3.61651
445 3.70151
450 5.25082
455 7.13784
460 8.74616
465 10.429
470 12.3703
475 13.5525
480 16.1227
485 18.4534
490 17.6099
495 16.8022
500 16.5926
505 15.8277
510 14.9784
515 14.4706
520 13.3288
525 12.4236
530 11.469
535 9.98972
540 8.93547
545 8.30292
550 7.52605
555 6.72586
560 5.99508
565 5.0877
570 4.24859
575 3.27489
580 2.67728
585 1.93312
590 1.50063
595 1.25745
600 0.403916
Ex : 433
200 0.139275
205 0.117309
210 0.0927387
215 0.090828
220 0.11637
225 0.0989273
230 0.150443
235 0.152106
240 0.172601
245 0.123164
250 0.170802
255 0.0879887
260 0.117952
265 0.138214
270 0.132972
275 0.15493
280 0.15671
285 0.149178
290 0.103642
295 0.0713955
300 0.130587
305 0.157093
310 0.134566
315 0.161129
320 0.125911
325 0.159732
330 0.152867
335 0.213538
340 0.154799
345 0.130284
350 0.151104
355 0.130466
360 0.1641
365 0.201379
370 0.146768
375 0.145863
380 0.153571
385 0.177451
390 0.190623
395 0.19052
400 0.20164
405 0.213272
410 0.332377
415 0.491843
420 12.5399
425 194.748
430 288.305
435 74.8623
440 10.5952
445 4.16436
450 4.34503
455 6.18689
460 7.76999
465 9.42848
470 10.2666
475 11.5089
480 12.5798
485 14.4573
490 16.6105
495 16.1531
500 14.7845
505 14.6378
510 13.435
515 12.3478
520 11.5152
525 10.6093
530 9.78618
535 8.93428
540 8.05885
545 7.22897
550 6.74272
555 5.87707
560 5.29882
565 4.58675
570 3.79906
575 3.10584
580 2.37388
585 1.9065
590 1.52541
595 1.24994
600 1.33127
Ex : 438
200 0.0906986
205 0.107665
210 0.110061
215 0.120207
220 0.146482
225 0.124934
230 0.187725
235 0.105573
240 0.120238
245 0.090531
250 0.115676
255 0.137558
260 0.153492
265 0.141168
270 0.132406
275 0.148966
280 0.153313
285 0.100261
290 0.157347
295 0.122929
300 0.13956
305 0.1186
310 0.153128
315 0.127819
320 0.117923
325 0.115945
330 0.153064
335 0.115632
340 0.169155
345 0.111387
350 0.194704
355 0.142938
360 0.114268
365 0.147159
370 0.199976
375 0.118358
380 0.194925
385 0.144263
390 0.133799
395 0.139175
400 0.188789
405 0.192383
410 0.228082
415 0.347926
420 0.502792
425 12.8677
430 197.659
435 307.664
440 79.3046
445 11.8756
450 5.0076
455 5.4653
460 6.86014
465 7.9736
470 8.9792
475 9.61547
480 10.7262
485 11.3258
490 12.2079
495 14.2579
500 14.2236
505 12.6242
510 11.5681
515 10.7165
520 10.0784
525 8.93053
530 8.49213
535 7.57126
540 7.10306
545 6.21235
550 5.61092
555 5.08015
560 4.46617
565 3.75774
570 3.40953
575 2.5138
580 2.07074
585 1.54425
590 1.39443
595 0.912962
600 1.47025
Ex : 443
200 0.172071
205 0.152002
210 0.139846
215 0.103067
220 0.169029
225 0.117037
230 0.123931
235 0.137055
240 0.11103
245 0.137548
250 0.140047
255 0.143043
260 0.207233
265 0.190031
270 0.140102
275 0.15242
280 0.106863
285 0.14064
290 0.188656
295 0.16069
300 0.171466
305 0.174697
310 0.11462
315 0.156217
320 0.160785
325 0.156721
330 0.141246
335 0.151534
340 0.152429
345 0.139427
350 0.165853
355 0.177748
360 0.170105
365 0.184342
370 0.149062
375 0.164807
380 0.185528
385 0.184277
390 0.189126
395 0.212098
400 0.227326
405 0.22889
410 0.174777
415 0.306057
420 0.321851
425 0.606328
430 14.0301
435 215.091
440 319.441
445 82.1346
450 12.5052
455 5.15229
460 5.42423
465 6.2696
470 7.27161
475 7.87705
480 8.44663
485 8.78664
490 9.19042
495 9.88226
500 10.7462
505 11.613
510 10.2511
515 8.99531
520 8.42168
525 7.51232
530 6.85493
535 6.34706
540 5.74294
545 5.28784
550 4.87995
555 3.9874
560 3.6737
565 3.26726
570 2.73155
575 2.14112
580 1.69514
585 1.38305
590 1.00957
595 0.859348
600 0.936091
Ex : 448
200 0.131907
205 0.116579
210 0.129798
215 0.111586
220 0.0804476
225 0.105484
230 0.0708956
235 0.155363
240 0.133452
245 0.164362
250 0.177625
255 0.124253
260 0.152863
265 0.158089
270 0.110711
275 0.122211
280 0.121949
285 0.144993
290 0.107464
295 0.213314
300 0.186319
305 0.145049
310 0.137251
315 0.144661
320 0.148428
325 0.111887
330 0.155933
335 0.136621
340 0.139282
345 0.119168
350 0.168313
355 0.170397
360 0.163016
365 0.142179
370 0.171222
375 0.172716
380 0.157225
385 0.163506
390 0.127083
395 0.157009
400 0.188569
405 0.182775
410 0.1872
415 0.217037
420 0.226258
425 0.348687
430 0.53253
435 15.2001
440 227.266
445 333.152
450 85.5888
455 13.0067
460 5.16863
465 4.90098
470 5.46114
475 6.19005
480 6.81519
485 6.82688
490 7.00586
495 7.23866
500 7.1847
505 8.10368
510 9.2433
515 8.27836
520 6.75549
525 6.51709
530 5.71987
535 5.01607
540 4.65174
545 4.01946
550 3.60124
555 3.37978
560 2.9949
565 2.57427
570 2.04814
575 1.67108
580 1.51875
585 1.1928
590 0.922533
595 0.756308
600 0.781943
Ex : 453
200 0.136364
205 0.147058
210 0.120171
215 0.162141
220 0.123798
225 0.138998
230 0.165853
235 0.134046
240 0.121261
245 0.156735
250 0.11653
255 0.126626
260 0.144459
265 0.131957
270 0.109809
275 0.149469
280 0.127262
285 0.168855
290 0.123134
295 0.139606
300 0.122695
305 0.142998
310 0.107032
315 0.135254
320 0.120162
325 0.123883
330 0.126224
335 0.159868
340 0.168089
345 0.106933
350 0.13937
355 0.129559
360 0.159045
365 0.126333
370 0.184698
375 0.108024
380 0.145368
385 0.152028
390 0.129714
395 0.144934
400 0.184054
405 0.178009
410 0.168972
415 0.19537
420 0.228333
425 0.29641
430 0.299727
435 0.624393
440 16.2064
445 245.328
450 343.193
455 83.5525
460 12.2979
465 4.51708
470 3.9767
475 4.50205
480 5.04807
485 5.06707
490 4.9991
495 5.03894
500 5.16285
505 4.93291
510 5.52314
515 6.50177
520 6.28649
525 5.15141
530 4.51187
535 4.32174
540 3.80339
545 3.19523
550 2.83203
555 2.70942
560 2.36814
565 2.07131
570 1.70455
575 1.32724
580 1.13517
585 0.901342
590 0.743817
595 0.60018
600 0.926458
Ex : 458
200 0.154782
205 0.10575
210 0.147643
215 0.113387
220 0.148625
225 0.123079
230 0.154887
235 0.125085
240 0.137582
245 0.145024
250 0.135981
255 0.185543
260 0.132857
265 0.145701
270 0.136893
275 0.112339
280 0.176396
285 0.153823
290 0.164645
295 0.144275
300 0.187119
305 0.204848
310 0.146519
315 0.146736
320 0.143951
325 0.173922
330 0.170765
335 0.176463
340 0.159934
345 0.168693
350 0.179053
355 0.162633
360 0.148924
365 0.191575
370 0.16496
375 0.1373
380 0.123119
385 0.144908
390 0.155966
395 0.151924
400 0.23176
405 0.244056
410 0.165878
415 0.20415
420 0.228232
425 0.249358
430 0.309521
435 0.360433
440 0.604149
445 17.7154
450 249.878
455 358.99
460 89.3192
465 12.6753
470 4.04414
475 3.07473
480 3.28018
485 3.84936
490 3.70235
495 3.66
500 3.61118
505 3.51345
510 3.7303
515 3.59549
520 4.58814
525 5.26129
530 4.20851
535 3.49857
540 3.01473
545 2.66302
550 2.43881
555 2.12037
560 1.75757
565 1.58713
570 1.52576
575 1.25153
580 0.90698
585 0.658107
590 0.630294
595 0.462835
600 0.42749
Ex : 463
200 0.147206
205 0.133321
210 0.123975
215 0.114424
220 0.0747525
225 0.0996153
230 0.135179
235 0.151839
240 0.13124
245 0.171901
250 0.143932
255 0.127564
260 0.103986
265 0.172285
270 0.141375
275 0.138757
280 0.128558
285 0.13914
290 0.0963079
295 0.12526
300 0.17474
305 0.0972502
310 0.117641
315 0.132764
320 0.124898
325 0.1456
330 0.139379
335 0.160277
340 0.162118
345 0.13951
350 0.17637
355 0.124937
360 0.108102
365 0.192725
370 0.183634
375 0.153831
380 0.139573
385 0.128493
390 0.120035
395 0.154258
400 0.143524
405 0.102641
410 0.208498
415 0.204027
420 0.170579
425 0.214375
430 0.229984
435 0.331836
440 0.374585
445 0.614096
450 16.8803
455 254.919
460 378.381
465 93.95
470 12.5961
475 3.40332
480 2.27526
485 2.44847
490 2.85216
495 2.94894
500 2.67379
505 2.48794
510 2.39472
515 2.69939
520 2.62531
525 3.23647
530 4.26225
535 3.60753
540 2.79934
545 2.57658
550 2.23731
555 1.8917
560 1.61449
565 1.32775
570 1.09991
575 1.05613
580 0.839713
585 0.715984
590 0.546889
595 0.516359
600 0.276902
Ex : 468
200 0.121298
205 0.170616
210 0.132116
215 0.168427
220 0.107499
225 0.0980913
230 0.132248
235 0.0996357
240 0.114725
245 0.151772
250 0.135091
255 0.181448
260 0.103559
265 0.156609
270 0.142233
275 0.185199
280 0.122016
285 0.124367
290 0.120899
295 0.111334
300 0.110466
305 0.13317
310 0.127681
315 0.136046
320 0.125905
325 0.0968414
330 0.122958
335 0.14185
340 0.151594
345 0.132904
350 0.123783
355 0.149065
360 0.129364
365 0.153387
370 0.117372
375 0.153536
380 0.095885
385 0.104446
390 0.14434
395 0.147236
400 0.184511
405 0.112665
410 0.164074
415 0.174576
420 0.163357
425 0.182224
430 0.197564
435 0.192678
440 0.253999
445 0.339419
450 0.624349
455 17.782
460 253.244
465 392.797
470 95.5379
475 12.5174
480 3.01787
485 2.01753
490 1.92974
495 2.16519
500 2.35863
505 2.29405
510 2.0424
515 1.91279
520 2.00969
525 1.97872
530 2.26464
535 3.45095
540 3.455
545 2.4357
550 2.23589
555 1.87929
560 1.60351
565 1.312
570 1.18158
575 0.958668
580 0.773277
585 0.646946
590 0.486309
595 0.44988
600 0.489373
Ex : 473
200 0.120793
205 0.138519
210 0.0959585
215 0.118781
220 0.145775
225 0.11364
230 0.140843
235 0.127113
240 0.148951
245 0.16154
250 0.144823
255 0.122678
260 0.13569
265 0.130398
270 0.177732
275 0.122691
280 0.107516
285 0.111061
290 0.154371
295 0.0840617
300 0.119495
305 0.149069
310 0.157426
315 0.144533
320 0.120769
325 0.136151
330 0.142534
335 0.118904
340 0.12496
345 0.147735
350 0.154944
355 0.127557
360 0.127036
365 0.174581
370 0.127745
375 0.148937
380 0.159727
385 0.160922
390 0.109779
395 0.11926
400 0.174632
405 0.179525
410 0.199375
415 0.141311
420 0.150014
425 0.178762
430 0.188782
435 0.213034
440 0.256234
445 0.337165
450 0.39474
455 0.639144
460 20.9001
465 292.336
470 391.178
475 90.973
480 11.8582
485 2.86913
490 1.67508
495 1.71424
500 2.07536
505 2.06037
510 1.84596
515 1.79562
520 1.83359
525 1.77336
530 1.68821
535 1.90984
540 2.67002
545 3.25829
550 2.34596
555 1.71345
560 1.67347
565 1.40209
570 1.0557
575 0.873878
580 0.760526
585 0.539153
590 0.517605
595 0.385116
600 0.888325
Ex : 478
200 0.139236
205 0.12833
210 0.146287
215 0.183225
220 0.191199
225 0.209502
230 0.101633
235 0.157035
240 0.136388
245 0.17618
250 0.104309
255 0.136555
260 0.139679
265 0.230846
270 0.1617
275 0.154259
280 0.261869
285 0.154845
290 0.221722
295 0.211579
300 0.154951
305 0.139007
310 0.109274
315 0.13194
320 0.126402
325 0.138841
330 0.174813
335 0.146548
340 0.157176
345 0.164566
350 0.223019
355 0.129015
360 0.151241
365 0.208104
370 0.166329
375 0.151952
380 0.218361
385 0.217817
390 0.171874
395 0.165851
400 0.232209
405 0.193767
410 0.142251
415 0.166888
420 0.224361
425 0.192509
430 0.168924
435 0.230407
440 0.224855
445 0.272872
450 0.34726
455 0.40313
460 0.703538
465 22.8643
470 280.086
475 371.108
480 89.6102
485 11.7427
490 2.76965
495 1.688
500 1.48208
505 1.6702
510 1.80633
515 1.76332
520 1.58562
525 1.55983
530 1.6264
535 1.62885
540 1.62276
545 2.13177
550 3.11799
555 2.4591
560 1.72164
565 1.49057
570 1.25946
575 0.983718
580 0.698825
585 0.631428
590 0.524893
595 0.476569
600 0.321648
Ex : 483
200 0.179913
205 0.191533
210 0.125145
215 0.163098
220 0.142145
225 0.175816
230 0.156824
235 0.178947
240 0.218114
245 0.12485
250 0.124899
255 0.108156
260 0.138471
265 0.157607
270 0.185249
275 0.186304
280 0.123977
285 0.123953
290 0.158795
295 0.184144
300 0.158133
305 0.16551
310 0.159179
315 0.116756
320 0.13978
325 0.146336
330 0.119529
335 0.160417
340 0.13802
345 0.206225
350 0.197597
355 0.170298
360 0.197982
365 0.14667
370 0.124618
375 0.167072
380 0.184654
385 0.177243
390 0.147815
395 0.169789
400 0.153869
405 0.153194
410 0.1644
415 0.16106
420 0.133734
425 0.193935
430 0.185602
435 0.18979
440 0.255683
445 0.22471
450 0.258217
455 0.393897
460 0.451918
465 0.6789
470 18.7128
475 278.367
480 391.609
485 91.3423
490 11.664
495 2.6024
500 1.48709
505 1.28047
510 1.56552
515 1.63871
520 1.69598
525 1.64732
530 1.47069
535 1.38291
540 1.53033
545 1.43545
550 1.60167
555 2.37661
560 2.49736
565 1.6265
570 1.27707
575 0.978346
580 0.710735
585 0.671384
590 0.481712
595 0.457813
600 0.295921
Ex : 488
200 0.144242
205 0.168513
210 0.136788
215 0.209625
220 0.1863
225 0.221348
230 0.17157
235 0.207701
240 0.164447
245 0.134194
250 0.11952
255 0.159559
260 0.12847
265 0.168634
270 0.138361
275 0.18359
280 0.150486
285 0.167412
290 0.119284
295 0.176402
300 0.130141
305 0.111578
310 0.12379
315 0.153336
320 0.126974
325 0.152213
330 0.141484
335 0.145259
340 0.160934
345 0.130273
350 0.153036
355 0.221379
360 0.170156
365 0.187211
370 0.154333
375 0.167377
380 0.287708
385 0.141514
390 0.233837
395 0.223553
400 0.210797
405 0.178336
410 0.193346
415 0.16417
420 0.222097
425 0.201074
430 0.183949
435 0.257593
440 0.257109
445 0.217298
450 0.255496
455 0.319882
460 0.369314
465 0.453449
470 0.682724
475 23.5621
480 296.799
485 378.177
490 86.4274
495 10.9443
500 2.38646
505 1.38984
510 1.24845
515 1.46001
520 1.67621
525 1.66334
530 1.50974
535 1.47376
540 1.22913
545 1.11981
550 1.14854
555 1.38223
560 2.05901
565 2.33749
570 1.63783
575 1.0674
580 0.899131
585 0.670625
590 0.565075
595 0.477112
600 0.305041
Ex : 493
200 0.158024
205 0.155591
210 0.137221
215 0.228291
220 0.153914
225 0.134361
230 0.127661
235 0.139629
240 0.104485
245 0.183728
250 0.175421
255 0.121866
260 0.160934
265 0.172478
270 0.165973
275 0.156533
280 0.152507
285 0.178815
290 0.149541
295 0.142748
300 0.177705
305 0.190752
310 0.229355
315 0.149604
320 0.175426
325 0.164027
330 0.187272
335 0.199136
340 0.185589
345 0.172817
350 0.169391
355 0.126949
360 0.130404
365 0.205318
370 0.158947
375 0.141925
380 0.131806
385 0.138763
390 0.149573
395 0.131218
400 0.143299
405 0.186179
410 0.143254
415 0.195611
420 0.193786
425 0.215027
430 0.241157
435 0.204326
440 0.219778
445 0.2497
450 0.235299
455 0.27832
460 0.298607
465 0.387208
470 0.532348
475 0.638079
480 22.4913
485 295.677
490 393.193
495 87.7021
500 11.0993
505 2.51105
510 1.36046
515 1.22975
520 1.48248
525 1.61256
530 1.60061
535 1.64021
540 1.33515
545 1.22707
550 1.22967
555 1.20757
560 1.11863
565 1.42952
570 2.0079
575 1.70799
580 0.924401
585 0.785787
590 0.727825
595 0.442541
600 0.0503595
Ex : 498
200 0.222659
205 0.169878
210 0.218698
215 0.209287
220 0.15061
225 0.175236
230 0.196948
235 0.208953
240 0.235152
245 0.140475
250 0.141485
255 0.173784
260 0.172976
265 0.136249
270 0.125065
275 0.194504
280 0.161562
285 0.128532
290 0.212228
295 0.232172
300 0.21176
305 0.225936
310 0.185568
315 0.16407
320 0.213637
325 0.231107
330 0.188503
335 0.213416
340 0.172753
345 0.18025
350 0.150314
355 0.115231
360 0.18598
365 0.157834
370 0.165032
375 0.186142
380 0.189791
385 0.261622
390 0.242618
395 0.198654
400 0.223385
405 0.237644
410 0.315504
415 0.263687
420 0.18676
425 0.216908
430 0.251353
435 0.208052
440 0.21805
445 0.250019
450 0.250879
455 0.216268
460 0.267301
465 0.402526
470 0.442362
475 0.529935
480 0.684178
485 24.8596
490 299.481
495 366.132
500 82.4168
505 10.5255
510 2.14763
515 1.26725
520 1.3419
525 1.29713
530 1.57124
535 1.42798
540 1.52365
545 1.32865
550 1.19724
555 1.01733
560 0.9616
565 1.04451
570 1.1281
575 1.50839
580 1.49482
585 0.889499
590 0.685678
595 0.52289
600 0.172635
Ex : 503
200 0.182881
205 0.167179
210 0.191059
215 0.150922
220 0.220665
225 0.181918
230 0.188313
235 0.161346
240 0.205454
245 0.165683
250 0.251195
255 0.189627
260 0.1823
265 0.252837
270 0.185875
275 0.176337
280 0.21717
285 0.115312
290 0.15342
295 0.185822
300 0.204403
305 0.221582
310 0.27134
315 0.18286
320 0.186978
325 0.226781
330 0.185121
335 0.182116
340 0.224291
345 0.246435
350 0.138605
355 0.169211
360 0.195355
365 0.159657
370 0.174546
375 0.218863
380 0.179413
385 0.184183
390 0.23875
395 0.202814
400 0.188612
405 0.194441
410 0.229012
415 0.197973
420 0.217459
425 0.224903
430 0.183875
435 0.123351
440 0.171517
445 0.212541
450 0.200627
455 0.245425
460 0.279898
465 0.331463
470 0.335456
475 0.419703
480 0.521881
485 0.699477
490 21.2721
495 289.418
500 381.141
505 86.3873
510 10.9832
515 2.4379
520 1.46494
525 1.23855
530 1.23724
535 1.4898
540 1.45491
545 1.38156
550 1.16444
555 1.15816
560 1.03535
565 0.849107
570 0.783675
575 0.787464
580 0.866992
585 1.27555
590 0.900617
595 0.511999
600 0.343115
Ex : 508
200 0.201301
205 0.199637
210 0.146048
215 0.177006
220 0.178306
225 0.180594
230 0.214479
235 0.224441
240 0.223362
245 0.163893
250 0.236392
255 0.195199
260 0.239686
265 0.190755
270 0.178762
275 0.194868
280 0.181999
285 0.20597
290 0.213774
295 0.179848
300 0.144889
305 0.30283
310 0.157348
315 0.134126
320 0.183085
325 0.220932
330 0.192035
335 0.217846
340 0.220294
345 0.184151
350 0.26463
355 0.180835
360 0.140966
365 0.184487
370 0.151929
375 0.193167
380 0.232852
385 0.271702
390 0.146558
395 0.172587
400 0.201842
405 0.172174
410 0.291672
415 0.250796
420 0.239695
425 0.181181
430 0.182502
435 0.169914
440 0.195945
445 0.224654
450 0.255848
455 0.278187
460 0.240579
465 0.282864
470 0.302057
475 0.350557
480 0.389559
485 0.378268
490 0.664701
495 22.8638
500 293.643
505 380.095
510 89.5238
515 11.2119
520 2.34105
525 1.42302
530 1.23216
535 1.1874
540 1.3732
545 1.31351
550 1.18843
555 1.01167
560 0.892039
565 0.816613
570 0.812586
575 0.617321
580 0.650739
585 0.752189
590 0.839743
595 0.894625
600 0.387544
Ex : 513
200 0.236573
205 0.195212
210 0.247744
215 0.216447
220 0.207945
225 0.201471
230 0.149221
235 0.188724
240 0.150979
245 0.182529
250 0.232972
255 0.193923
260 0.288416
265 0.198064
270 0.224106
275 0.213851
280 0.178979
285 0.16437
290 0.164037
295 0.245654
300 0.217277
305 0.185248
310 0.200734
315 0.200488
320 0.13532
325 0.22612
330 0.206727
335 0.243938
340 0.278204
345 0.223938
350 0.195677
355 0.235553
360 0.236655
365 0.242545
370 0.216625
375 0.265789
380 0.158546
385 0.148778
390 0.22583
395 0.144465
400 0.22238
405 0.214996
410 0.168607
415 0.188855
420 0.208343
425 0.251182
430 0.171503
435 0.231795
440 0.27878
445 0.243899
450 0.198766
455 0.261067
460 0.305611
465 0.379604
470 0.339884
475 0.249862
480 0.341689
485 0.312186
490 0.441888
495 0.633519
500 20.1597
505 277.52
510 376.451
515 90.5573
520 11.5529
525 2.30526
530 1.34104
535 1.27598
540 1.14114
545 1.16897
550 1.14498
555 1.09128
560 1.0784
565 0.843428
570 0.738031
575 0.570692
580 0.575871
585 0.575033
590 0.53912
595 0.738556
600 0.418461
Ex : 518
200 0.1471
205 0.168357
210 0.164128
215 0.273757
220 0.250692
225 0.20959
230 0.172182
235 0.16357
240 0.264857
245 0.290314
250 0.247662
255 0.190361
260 0.26674
265 0.227172
270 0.23404
275 0.257205
280 0.210251
285 0.263474
290 0.163637
295 0.151349
300 0.213506
305 0.185215
310 0.222202
315 0.265651
320 0.196276
325 0.205123
330 0.151811
335 0.285911
340 0.227053
345 0.218699
350 0.281321
355 0.182114
360 0.192432
365 0.194658
370 0.189684
375 0.166431
380 0.189588
385 0.219044
390 0.231277
395 0.253497
400 0.23246
405 0.203001
410 0.230958
415 0.235881
420 0.22799
425 0.255755
430 0.269871
435 0.157356
440 0.205813
445 0.300039
450 0.30055
455 0.292464
460 0.18362
465 0.291438
470 0.293098
475 0.240166
480 0.225872
485 0.365705
490 0.432988
495 0.467587
500 0.689956
505 19.4385
510 266.879
515 373.499
520 91.4985
525 11.6895
530 2.33958
535 1.35805
540 1.10531
545 1.04055
550 1.11327
555 1.12322
560 0.930271
565 0.883288
570 0.683069
575 0.664834
580 0.499071
585 0.410878
590 0.509169
595 0.431935
600 0.269623
Ex : 523
200 0.264827
205 0.229497
210 0.252747
215 0.163563
220 0.151844
225 0.17036
230 0.152153
235 0.223561
240 0.197057
245 0.249631
250 0.220272
255 0.269384
260 0.30754
265 0.259696
270 0.199292
275 0.211407
280 0.243726
285 0.197008
290 0.214553
295 0.281345
300 0.185708
305 0.193003
310 0.22878
315 0.235021
320 0.187628
325 0.202667
330 0.281842
335 0.186032
340 0.188856
345 0.192517
350 0.200437
355 0.194995
360 0.22496
365 0.234561
370 0.239662
375 0.266138
380 0.20845
385 0.206388
390 0.217801
395 0.243908
400 0.220512
405 0.258492
410 0.279442
415 0.235122
420 0.18388
425 0.242234
430 0.197448
435 0.253226
440 0.334445
445 0.335542
450 0.224996
455 0.202327
460 0.228806
465 0.303587
470 0.274886
475 0.224709
480 0.324765
485 0.241665
490 0.320966
495 0.375922
500 0.625079
505 0.638195
510 16.6086
515 258.594
520 384.438
525 99.8745
530 12.4835
535 2.47961
540 1.40974
545 0.983103
550 0.92965
555 0.946399
560 0.941227
565 1.00369
570 0.900781
575 0.606612
580 0.504232
585 0.558909
590 0.420346
595 0.394319
600 0.908583
Ex : 528
200 0.166876
205 0.178032
210 0.178546
215 0.228751
220 0.19505
225 0.24886
230 0.204418
235 0.200347
240 0.192874
245 0.152348
250 0.224526
255 0.203948
260 0.204723
265 0.167299
270 0.193879
275 0.26977
280 0.217438
285 0.203382
290 0.196617
295 0.22505
300 0.347663
305 0.152088
310 0.21322
315 0.193223
320 0.256768
325 0.274898
330 0.24009
335 0.282231
340 0.294326
345 0.245392
350 0.259698
355 0.245418
360 0.205834
365 0.254352
370 0.277179
375 0.26761
380 0.295471
385 0.26697
390 0.256135
395 0.233005
400 0.225805
405 0.20118
410 0.266185
415 0.284934
420 0.269115
425 0.329398
430 0.218517
435 0.287462
440 0.254207
445 0.266377
450 0.197582
455 0.230063
460 0.277123
465 0.334913
470 0.245495
475 0.282313
480 0.299869
485 0.344495
490 0.355251
495 0.368431
500 0.323102
505 0.543297
510 0.649261
515 16.0798
520 245.798
525 362.17
530 92.0943
535 11.6336
540 2.23677
545 1.12889
550 0.913597
555 0.932993
560 0.854931
565 0.799567
570 0.744694
575 0.620934
580 0.546444
585 0.374053
590 0.36544
595 0.485353
600 0.129082
Ex : 533
200 0.172237
205 0.259309
210 0.237818
215 0.192353
220 0.16501
225 0.206983
230 0.151503
235 0.193842
240 0.176471
245 0.182887
250 0.223346
255 0.278633
260 0.161167
265 0.169537
270 0.186785
275 0.213545
280 0.245937
285 0.197223
290 0.156762
295 0.219181
300 0.21323
305 0.223381
310 0.156697
315 0.25094
320 0.243414
325 0.287415
330 0.194547
335 0.209783
340 0.213855
345 0.310241
350 0.202595
355 0.227343
360 0.214693
365 0.256747
370 0.228902
375 0.255856
380 0.18943
385 0.212845
390 0.233937
395 0.217774
400 0.194027
405 0.258538
410 0.207879
415 0.232746
420 0.25995
425 0.223748
430 0.295418
435 0.271801
440 0.249327
445 0.179426
450 0.216393
455 0.313178
460 0.2758
465 0.197727
470 0.227239
475 0.254328
480 0.181039
485 0.316692
490 0.308116
495 0.3514
500 0.427013
505 0.405982
510 0.540827
515 0.613899
520 15.3407
525 235.102
530 351.94
535 91.8479
540 11.7318
545 2.13658
550 1.11472
555 0.845414
560 0.677679
565 0.700649
570 0.835715
575 0.732314
580 0.577147
585 0.395545
590 0.494603
595 0.396973
600 0.227205
Ex : 538
200 0.225136
205 0.233427
210 0.25625
215 0.188516
220 0.234502
225 0.175631
230 0.211662
235 0.215481
240 0.269915
245 0.213791
250 0.217661
255 0.266224
260 0.261252
265 0.262693
270 0.237303
275 0.22101
280 0.229585
285 0.206254
290 0.257409
295 0.189254
300 0.233022
305 0.260353
310 0.241638
315 0.184672
320 0.301106
325 0.28878
330 0.195371
335 0.257171
340 0.21854
345 0.257384
350 0.320763
355 0.228152
360 0.302114
365 0.241015
370 0.192745
375 0.21077
380 0.223283
385 0.251928
390 0.174362
395 0.258239
400 0.380361
405 0.28224
410 0.294361
415 0.247747
420 0.242622
425 0.313363
430 0.259358
435 0.24516
440 0.21308
445 0.182758
450 0.262683
455 0.253504
460 0.266783
465 0.263135
470 0.314375
475 0.21978
480 0.279337
485 0.208934
490 0.258318
495 0.27126
500 0.273683
505 0.289241
510 0.450661
515 0.440351
520 0.625745
525 12.9451
530 213.335
535 339.186
540 92.5651
545 11.6816
550 2.23392
555 1.00671
560 0.770893
565 0.70564
570 0.618473
575 0.732614
580 0.637187
585 0.54934
590 0.461849
595 0.400378
600 0.901893
Ex : 543
200 0.268798
205 0.250779
210 0.204018
215 0.239046
220 0.226489
225 0.224848
230 0.266968
235 0.239354
240 0.236971
245 0.245141
250 0.187357
255 0.182261
260 0.257443
265 0.232719
270 0.16761
275 0.29294
280 0.273321
285 0.210939
290 0.228102
295 0.199255
300 0.226342
305 0.196572
310 0.213216
315 0.254024
320 0.144441
325 0.212643
330 0.213697
335 0.266349
340 0.219155
345 0.202228
350 0.296146
355 0.264664
360 0.260357
365 0.283365
370 0.235213
375 0.217596
380 0.193165
385 0.277408
390 0.181895
395 0.190596
400 0.213694
405 0.187352
410 0.181121
415 0.230003
420 0.296571
425 0.207607
430 0.21836
435 0.207213
440 0.221764
445 0.281438
450 0.190715
455 0.241522
460 0.248582
465 0.269387
470 0.24427
475 0.302436
480 0.287565
485 0.261266
490 0.254236
495 0.316631
500 0.254762
505 0.29283
510 0.316221
515 0.414753
520 0.494221
525 0.688446
530 12.3935
535 212.7
540 342.165
545 95.1661
550 11.9246
555 2.06398
560 0.828708
565 0.787508
570 0.609731
575 0.507273
580 0.51642
585 0.506985
590 0.507486
595 0.439922
600 0.120555
Ex : 548
200 0.191454
205 0.21191
210 0.298895
215 0.29662
220 0.205233
225 0.192745
230 0.212669
235 0.200442
240 0.161587
245 0.247772
250 0.226168
255 0.249995
260 0.291938
265 0.231527
270 0.339293
275 0.227584
280 0.211969
285 0.183279
290 0.206486
295 0.243864
300 0.263018
305 0.286781
310 0.274044
315 0.249145
320 0.234834
325 0.246624
330 0.27647
335 0.209698
340 0.225995
345 0.291616
350 0.187958
355 0.246642
360 0.184977
365 0.323312
370 0.258218
375 0.330333
380 0.278749
385 0.266435
390 0.200105
395 0.266965
400 0.249186
405 0.285517
410 0.232323
415 0.334855
420 0.251143
425 0.238601
430 0.240062
435 0.282692
440 0.345966
445 0.29968
450 0.273104
455 0.227127
460 0.356684
465 0.29651
470 0.256505
475 0.261487
480 0.330781
485 0.318998
490 0.313799
495 0.344364
500 0.306622
505 0.330667
510 0.406466
515 0.322991
520 0.332448
525 0.463819
530 0.655786
535 12.9907
540 205.672
545 324.549
550 91.8915
555 11.3729
560 1.96716
565 0.748599
570 0.637865
575 0.483967
580 0.45351
585 0.528555
590 0.501815
595 0.380053
600 0.189212
Ex : 553
200 0.350431
205 0.288184
210 0.1772
215 0.200623
220 0.20079
225 0.296841
230 0.259573
235 0.14987
240 0.228507
245 0.244833
250 0.23107
255 0.274997
260 0.216718
265 0.24798
270 0.206865
275 0.318517
280 0.299486
285 0.224752
290 0.193073
295 0.1998
300 0.266619
305 0.202832
310 0.199576
315 0.204615
320 0.267648
325 0.268775
330 0.31587
335 0.263088
340 0.285996
345 0.253392
350 0.356987
355 0.354168
360 0.182651
365 0.230151
370 0.202075
375 0.306006
380 0.288954
385 0.382854
390 0.22055
395 0.262565
400 0.157988
405 0.288402
410 0.272521
415 0.296603
420 0.361681
425 0.33788
430 0.210928
435 0.263288
440 0.295308
445 0.29643
450 0.237563
455 0.312699
460 0.352984
465 0.295591
470 0.315879
475 0.331475
480 0.366025
485 0.253226
490 0.268324
495 0.216496
500 0.319099
505 0.323232
510 0.32182
515 0.234796
520 0.352476
525 0.312769
530 0.496882
535 0.578702
540 10.3811
545 189.655
550 318.54
555 91.7374
560 11.2863
565 1.92447
570 0.780354
575 0.670849
580 0.532194
585 0.475765
590 0.420407
595 0.483704
600 0.882167
Ex : 558
200 0.223665
205 0.245912
210 0.265691
215 0.347312
220 0.215146
225 0.199194
230 0.211024
235 0.271986
240 0.307016
245 0.258074
250 0.264259
255 0.338087
260 0.281152
265 0.226301
270 0.196531
275 0.194803
280 0.244619
285 0.203806
290 0.247347
295 0.282104
300 0.181289
305 0.283782
310 0.24359
315 0.269939
320 0.276702
325 0.225842
330 0.249658
335 0.22706
340 0.368185
345 0.279876
350 0.250857
355 0.331979
360 0.34029
365 0.27054
370 0.221017
375 0.443493
380 0.275397
385 0.17988
390 0.27968
395 0.29256
400 0.26112
405 0.231706
410 0.311897
415 0.300138
420 0.350618
425 0.317414
430 0.482408
435 0.352717
440 0.308001
445 0.268226
450 0.248846
455 0.265467
460 0.279566
465 0.344693
470 0.201098
475 0.165616
480 0.31416
485 0.264989
490 0.275942
495 0.301865
500 0.236405
505 0.24489
510 0.284706
515 0.361315
520 0.376966
525 0.308255
530 0.361196
535 0.462145
540 0.505002
545 10.2109
550 182.567
555 309.243
560 89.9904
565 11.112
570 1.74399
575 0.649386
580 0.543484
585 0.417067
590 0.428638
595 0.33556
600 0.0381855
Ex : 563
200 0.204022
205 0.270742
210 0.194183
215 0.192684
220 0.215801
225 0.207316
230 0.27514
235 0.194931
240 0.304623
245 0.196612
250 0.259711
255 0.159412
260 0.292031
265 0.252327
270 0.255395
275 0.33309
280 0.333853
285 0.255775
290 0.256995
295 0.224665
300 0.305248
305 0.233716
310 0.239006
315 0.249907
320 0.27932
325 0.206136
330 0.251991
335 0.261319
340 0.262747
345 0.30351
350 0.222857
355 0.318851
360 0.366281
365 0.302281
370 0.339704
375 0.25103
380 0.271427
385 0.40571
390 0.238679
395 0.282978
400 0.358259
405 0.378169
410 0.16713
415 0.286319
420 0.234197
425 0.246697
430 0.31492
435 0.251798
440 0.251429
445 0.265215
450 0.241051
455 0.282713
460 0.310327
465 0.247506
470 0.293972
475 0.241353
480 0.229278
485 0.23374
490 0.264357
495 0.321481
500 0.332939
505 0.357663
510 0.267186
515 0.47242
520 0.324271
525 0.376336
530 0.3864
535 0.441811
540 0.473398
545 0.498476
550 9.52278
555 172.531
560 297.787
565 87.5622
570 10.8959
575 1.60164
580 0.630154
585 0.533163
590 0.44059
595 0.379361
600 0.279107
Ex : 568
200 0.204156
205 0.224604
210 0.224811
215 0.273432
220 0.286039
225 0.207566
230 0.273064
235 0.240642
240 0.222092
245 0.276889
250 0.241333
255 0.175537
260 0.252216
265 0.239241
270 0.237358
275 0.288089
280 0.329123
285 0.235336
290 0.292067
295 0.298227
300 0.347795
305 0.333342
310 0.21316
315 0.210205
320 0.359427
325 0.286929
330 0.216735
335 0.229442
340 0.252306
345 0.189878
350 0.211178
355 0.241064
360 0.21956
365 0.296426
370 0.376401
375 0.309017
380 0.264426
385 0.360755
390 0.284116
395 0.227989
400 0.219152
405 0.212475
410 0.154598
415 0.242761
420 0.255438
425 0.275017
430 0.249706
435 0.283133
440 0.348982
445 0.317195
450 0.242895
455 0.28238
460 0.301817
465 0.209454
470 0.343081
475 0.321435
480 0.197477
485 0.270204
490 0.225137
495 0.203532
500 0.267994
505 0.264779
510 0.367952
515 0.355776
520 0.237498
525 0.450436
530 0.350464
535 0.324997
540 0.374712
545 0.436509
550 0.52898
555 7.91325
560 160.53
565 281.824
570 86.0462
575 10.6139
580 1.80054
585 0.58028
590 0.40314
595 0.462222
600 0.0525992
Ex : 573
200 0.235484
205 0.224955
210 0.19852
215 0.300251
220 0.190895
225 0.276635
230 0.308282
235 0.270901
240 0.326181
245 0.208241
250 0.24514
255 0.298207
260 0.324083
265 0.25962
270 0.204964
275 0.271201
280 0.297576
285 0.301969
290 0.245049
295 0.259428
300 0.22745
305 0.181974
310 0.226862
315 0.275771
320 0.277686
325 0.181539
330 0.240645
335 0.270571
340 0.306987
345 0.260335
350 0.253476
355 0.320053
360 0.263235
365 0.261833
370 0.204986
375 0.207196
380 0.221889
385 0.241871
390 0.242558
395 0.270621
400 0.24139
405 0.279043
410 0.303853
415 0.286546
420 0.41369
425 0.345997
430 0.218915
435 0.317226
440 0.301627
445 0.231499
450 0.305758
455 0.246455
460 0.251947
465 0.253068
470 0.233573
475 0.231243
480 0.277236
485 0.295629
490 0.315452
495 0.336615
500 0.238792
505 0.255434
510 0.301479
515 0.221302
520 0.483649
525 0.331877
530 0.37654
535 0.426451
540 0.359523
545 0.335352
550 0.315803
555 0.537763
560 6.84178
565 138.93
570 271.536
575 85.5171
580 10.455
585 1.52583
590 0.498513
595 0.382861
600 0.0978255
Ex : 578
200 0.222463
205 0.193509
210 0.248364
215 0.215231
220 0.300656
225 0.187703
230 0.297886
235 0.232351
240 0.246178
245 0.232329
250 0.313663
255 0.273785
260 0.255078
265 0.304372
270 0.303588
275 0.267101
280 0.232407
285 0.237137
290 0.266882
295 0.2816
300 0.227043
305 0.351326
310 0.383084
315 0.253709
320 0.273658
325 0.278571
330 0.400528
335 0.242397
340 0.21668
345 0.273995
350 0.209249
355 0.252126
360 0.228307
365 0.257955
370 0.286606
375 0.251503
380 0.255289
385 0.261559
390 0.339735
395 0.352991
400 0.183301
405 0.316754
410 0.259525
415 0.399838
420 0.315279
425 0.276924
430 0.320528
435 0.335503
440 0.296173
445 0.278041
450 0.350827
455 0.233747
460 0.40385
465 0.382021
470 0.348374
475 0.294349
480 0.260309
485 0.322083
490 0.264112
495 0.323187
500 0.271462
505 0.399073
510 0.266483
515 0.289086
520 0.398284
525 0.38373
530 0.388078
535 0.361619
540 0.275817
545 0.412458
550 0.370349
555 0.482123
560 0.527792
565 5.61008
570 122.059
575 227.131
580 69.8058
585 8.56814
590 1.53401
595 0.535726
600 0.85289
Ex : 583
200 0.242528
205 0.251975
210 0.34649
215 0.277243
220 0.217143
225 0.259424
230 0.326202
235 0.225435
240 0.28434
245 0.260448
250 0.274281
255 0.221276
260 0.345254
265 0.340052
270 0.265247
275 0.305102
280 0.265023
285 0.305883
290 0.337243
295 0.231129
300 0.267952
305 0.249792
310 0.201588
315 0.353785
320 0.21936
325 0.263456
330 0.206421
335 0.317014
340 0.224251
345 0.282957
350 0.332338
355 0.325953
360 0.354245
365 0.33029
370 0.32639
375 0.285206
380 0.385716
385 0.270135
390 0.360868
395 0.254734
400 0.260092
405 0.29642
410 0.370874
415 0.283951
420 0.332646
425 0.369438
430 0.323598
435 0.336914
440 0.241611
445 0.187833
450 0.30037
455 0.255086
460 0.390283
465 0.303074
470 0.225985
475 0.331325
480 0.281383
485 0.270363
490 0.251517
495 0.417437
500 0.342499
505 0.289244
510 0.411147
515 0.263934
520 0.266589
525 0.306961
530 0.361387
535 0.291653
540 0.260611
545 0.299623
550 0.35217
555 0.386772
560 0.402802
565 0.381657
570 5.26783
575 119.727
580 216.706
585 61.1231
590 7.58121
595 1.2105
600 0.650482
Ex : 588
200 0.205598
205 0.2506
210 0.289461
215 0.322267
220 0.32691
225 0.228967
230 0.256205
235 0.292974
240 0.247545
245 0.346597
250 0.258427
255 0.236646
260 0.36819
265 0.253291
270 0.440743
275 0.256846
280 0.218104
285 0.369208
290 0.323056
295 0.251212
300 0.275017
305 0.220523
310 0.279803
315 0.259645
320 0.229723
325 0.285137
330 0.241329
335 0.237772
340 0.29046
345 0.205682
350 0.251947
355 0.264605
360 0.233505
365 0.229522
370 0.232454
375 0.339332
380 0.281636
385 0.266924
390 0.311762
395 0.272231
400 0.246296
405 0.432187
410 0.30642
415 0.281976
420 0.251084
425 0.434611
430 0.304133
435 0.349676
440 0.291803
445 0.305113
450 0.264883
455 0.230552
460 0.262021
465 0.370713
470 0.294086
475 0.295427
480 0.242442
485 0.455379
490 0.306645
495 0.282844
500 0.22574
505 0.358211
510 0.309133
515 0.385391
520 0.36504
525 0.295077
530 0.329985
535 0.309537
540 0.385529
545 0.39492
550 0.290663
555 0.340327
560 0.352412
565 0.406901
570 0.492166
575 4.41804
580 88.5011
585 169.937
590 55.7595
595 6.90672
600 0.901551
Ex : 593
200 0.351029
205 0.243948
210 0.156347
215 0.326473
220 0.314781
225 0.338655
230 0.252717
235 0.360016
240 0.24297
245 0.223524
250 0.251746
255 0.251428
260 0.256986
265 0.288516
270 0.30551
275 0.281333
280 0.240136
285 0.204337
290 0.266069
295 0.290305
300 0.273271
305 0.237393
310 0.175511
315 0.470387
320 0.264655
325 0.243061
330 0.257343
335 0.373199
340 0.206263
345 0.316127
350 0.392291
355 0.293512
360 0.218061
365 0.311992
370 0.448661
375 0.273636
380 0.266147
385 0.349227
390 0.328081
395 0.296479
400 0.310728
405 0.30501
410 0.275182
415 0.333748
420 0.42844
425 0.243756
430 0.214693
435 0.282928
440 0.252312
445 0.371536
450 0.190035
455 0.323231
460 0.269157
465 0.25259
470 0.361338
475 0.388386
480 0.29133
485 0.277179
490 0.234699
495 0.305088
500 0.344008
505 0.300585
510 0.310815
515 0.300721
520 0.375751
525 0.292127
530 0.337321
535 0.30183
540 0.327885
545 0.357435
550 0.327378
555 0.290362
560 0.279573
565 0.355971
570 0.439308
575 0.379021
580 4.30682
585 85.6335
590 163.598
595 48.3004
600 7.47332
Ex : 598
200 0.463074
205 0.236449
210 0.335391
215 0.219193
220 0.248899
225 0.30221
230 0.27817
235 0.244185
240 0.187111
245 0.236177
250 0.234917
255 0.266149
260 0.346935
265 0.286861
270 0.28432
275 0.28215
280 0.388725
285 0.358523
290 0.303979
295 0.289813
300 0.246554
305 0.238175
310 0.312914
315 0.235852
320 0.285007
325 0.282904
330 0.313235
335 0.314869
340 0.230497
345 0.247866
350 0.262354
355 0.283376
360 0.292287
365 0.31237
370 0.340481
375 0.377664
380 0.297315
385 0.25577
390 0.256052
395 0.320166
400 0.391157
405 0.291965
410 0.206788
415 0.352688
420 0.342406
425 0.245757
430 0.366398
435 0.312929
440 0.366281
445 0.322336
450 0.300822
455 0.251561
460 0.408428
465 0.297838
470 0.244943
475 0.34748
480 0.311784
485 0.215844
490 0.263861
495 0.294369
500 0.313958
505 0.286225
510 0.309111
515 0.348279
520 0.32726
525 0.27724
530 0.330225
535 0.292349
540 0.239675
545 0.311737
550 0.387595
555 0.324584
560 0.307371
565 0.418084
570 0.372501
575 0.360496
580 0.312728
585 3.94407
590 70.5223
595 130.033
600 79.5841
Ex : 603
200 0.316917
205 0.3283
210 0.287883
215 0.268435
220 0.290169
225 0.351426
230 0.325689
235 0.303677
240 0.340157
245 0.24935
250 0.250016
255 0.417525
260 0.319482
265 0.318379
270 0.327373
275 0.245857
280 0.245538
285 0.312703
290 0.390102
295 0.301723
300 0.318101
305 0.333936
310 0.210591
315 0.220081
320 0.255933
325 0.339063
330 0.339465
335 0.241569
340 0.245624
345 0.25393
350 0.370871
355 0.343256
360 0.320726
365 0.314086
370 0.443578
375 0.328932
380 0.27422
385 0.270177
390 0.331534
395 0.259188
400 0.388977
405 0.308784
410 0.378307
415 0.336653
420 0.351603
425 0.347195
430 0.307444
435 0.328299
440 0.491925
445 0.402332
450 0.325158
455 0.254396
460 0.31103
465 0.29546
470 0.345575
475 0.313819
480 0.335256
485 0.302826
490 0.339391
495 0.380371
500 0.406018
505 0.276627
510 0.33829
515 0.388167
520 0.34564
525 0.388895
530 0.385818
535 0.328961
540 0.33445
545 0.406277
550 0.444573
555 0.325663
560 0.236267
565 0.402262
570 0.413393
575 0.329717
580 0.348826
585 0.392739
590 3.35369
595 60.9342
600 119.172
