File format V 1.0
ven. 13. janv. 19:31:47 2017
Operator : 
Comments : 

=============================================
SpectroFluorometer parameters
Mode : 3D measurement
Data : Fluorescence
Phospho. : Ordinary
Spectrum : Fluorescence

Scan speed : 2400 nm/mn
Response : 100 ms
PM Voltage : 700 V
Shutter : On

Lambda Ex. Start : 203
Lambda Ex. End : 603
Lambda Ex. Step : 5
Ex. Slit : 5 nm

Lambda Em. Start : 200
Lambda Em. End : 600
Lambda Em. Step : 5
Em. Slit : 5 nm

Repetition : 1
Decal lambda em : 10
=============================================
DATA
Ex : 203
200 8.33333
205 6.52064
210 5.67705
215 4.24882
220 4.01979
225 4.38844
230 5.9825
235 7.75385
240 3.93206
245 3.96301
250 3.54199
255 4.76525
260 5.60885
265 4.67305
270 5.72179
275 7.13121
280 4.77336
285 6.1867
290 5.09401
295 6.26719
300 4.70316
305 4.22558
310 5.22932
315 4.85389
320 5.46836
325 8.15719
330 5.46841
335 5.93126
340 5.80345
345 5.97349
350 9.85737
355 6.00876
360 6.33179
365 4.93435
370 4.28865
375 5.60306
380 5.83259
385 6.89628
390 6.21928
395 7.58316
400 4.72338
405 6.11715
410 7.19639
415 5.5539
420 5.41829
425 5.87997
430 6.79396
435 6.70518
440 4.79355
445 7.0802
450 7.68827
455 5.57859
460 5.55915
465 5.32158
470 6.46555
475 6.04865
480 5.18876
485 3.54184
490 4.77636
495 7.87707
500 5.43065
505 5.97701
510 6.81008
515 7.18881
520 6.30306
525 5.74325
530 7.93248
535 5.53111
540 5.69054
545 6.60652
550 6.96765
555 8.72507
560 5.53968
565 6.82085
570 5.41443
575 6.57586
580 6.43933
585 6.62517
590 4.77925
595 6.76409
600 0.769727
Ex : 208
200 4.13122
205 4.61111
210 4.49576
215 7.87075
220 5.24147
225 4.60346
230 4.31842
235 6.44396
240 4.65015
245 6.33505
250 5.11263
255 3.57379
260 4.99534
265 5.55335
270 7.46895
275 6.7688
280 5.72234
285 4.52454
290 4.78873
295 6.40926
300 5.52065
305 7.42533
310 5.96671
315 5.74697
320 6.57224
325 5.58858
330 8.02809
335 4.90148
340 7.0332
345 6.7039
350 6.08827
355 6.80628
360 4.47229
365 3.27406
370 5.27202
375 5.30666
380 8.53711
385 6.08068
390 6.98912
395 4.79824
400 10.0577
405 7.876
410 6.33349
415 7.02121
420 5.42284
425 5.79863
430 6.50354
435 7.83395
440 5.69807
445 8.23519
450 7.33468
455 4.05902
460 5.25162
465 6.46819
470 6.0945
475 5.55557
480 5.11861
485 7.28548
490 6.25358
495 6.11053
500 3.98453
505 4.64042
510 6.42235
515 7.3004
520 8.40023
525 5.26318
530 4.77734
535 3.95594
540 4.19824
545 6.67681
550 5.19494
555 4.09818
560 5.73318
565 5.03657
570 5.4197
575 7.19444
580 6.0167
585 5.46102
590 4.4912
595 8.08733
600 2.16099
Ex : 213
200 4.44196
205 3.94853
210 5.28969
215 4.59838
220 4.84901
225 5.06938
230 6.1335
235 3.29388
240 11.1716
245 6.9265
250 6.1908
255 5.38123
260 5.45209
265 3.81488
270 4.94808
275 6.42304
280 7.04615
285 6.45826
290 7.46468
295 6.9239
300 4.27032
305 5.86617
310 3.86483
315 6.2716
320 5.06528
325 4.40301
330 7.59068
335 3.93944
340 5.61441
345 6.89445
350 6.66648
355 6.24362
360 4.43256
365 7.12739
370 5.48536
375 5.37115
380 7.55454
385 7.65247
390 6.98646
395 6.80333
400 7.48105
405 8.60664
410 4.5325
415 7.3494
420 8.51677
425 5.58742
430 5.76605
435 5.38815
440 6.04115
445 7.53618
450 5.06295
455 6.11695
460 5.68958
465 4.58568
470 6.07163
475 6.59615
480 5.33827
485 4.71328
490 8.18613
495 5.05076
500 5.67751
505 8.65489
510 8.78604
515 4.54463
520 4.06198
525 5.66765
530 6.36656
535 7.09505
540 8.00835
545 6.04777
550 5.40349
555 4.43542
560 3.5748
565 5.61635
570 5.16137
575 4.92341
580 7.01628
585 5.27145
590 5.4374
595 6.3833
600 13.4877
Ex : 218
200 4.15556
205 5.06684
210 4.39035
215 4.64736
220 5.47419
225 5.05396
230 6.45077
235 7.41981
240 5.3214
245 5.90217
250 6.87919
255 7.26881
260 5.17162
265 4.95389
270 5.55016
275 2.93082
280 5.92473
285 4.97749
290 6.8791
295 5.0635
300 6.25037
305 6.50113
310 5.03417
315 4.70039
320 5.90157
325 4.44917
330 5.31434
335 7.68219
340 5.01392
345 5.74141
350 5.72416
355 4.84877
360 6.75102
365 8.11286
370 5.9759
375 7.60966
380 6.64097
385 4.39765
390 4.92735
395 5.52187
400 5.57918
405 8.29046
410 4.89509
415 6.11746
420 7.59463
425 4.54965
430 5.49319
435 6.23221
440 6.23062
445 5.22258
450 7.62064
455 6.71875
460 4.94595
465 4.54865
470 6.37664
475 7.77765
480 4.68482
485 6.09917
490 5.19825
495 4.91735
500 5.69722
505 5.03462
510 4.11352
515 5.02921
520 5.78077
525 5.71263
530 5.29744
535 4.81338
540 9.37896
545 6.00645
550 6.71856
555 4.59908
560 4.70056
565 7.02951
570 5.23981
575 6.31932
580 3.22465
585 5.22303
590 5.73353
595 5.59106
600 0.636242
Ex : 223
200 3.91736
205 4.50036
210 4.89458
215 6.99786
220 6.66991
225 3.80583
230 6.28375
235 6.2371
240 4.01568
245 6.48559
250 7.13052
255 4.55179
260 4.30075
265 3.54103
270 4.50956
275 5.74872
280 5.79103
285 7.95163
290 4.95608
295 4.47134
300 5.41488
305 4.39203
310 3.30971
315 3.41003
320 4.36098
325 4.93971
330 6.44634
335 6.25882
340 10.3562
345 5.67456
350 6.04642
355 6.13702
360 10.392
365 6.96774
370 6.96863
375 4.71873
380 5.07104
385 5.377
390 6.43719
395 5.86598
400 5.93871
405 4.34832
410 5.66024
415 3.63006
420 4.4278
425 3.34447
430 6.17768
435 5.35168
440 5.68856
445 5.46506
450 6.11327
455 3.63374
460 7.2482
465 9.96077
470 6.18915
475 4.39616
480 5.72125
485 4.32247
490 4.94664
495 8.18745
500 7.80932
505 6.74838
510 5.93554
515 5.82024
520 6.41668
525 5.26378
530 5.79962
535 6.03708
540 7.71919
545 5.82375
550 7.13045
555 6.83515
560 7.29001
565 6.3455
570 6.33985
575 4.47846
580 6.66297
585 4.10354
590 6.98831
595 4.13315
600 0.470336
Ex : 228
200 7.56904
205 4.50051
210 5.19205
215 4.15169
220 5.0831
225 4.81548
230 5.7148
235 7.74407
240 4.83029
245 5.79115
250 4.73477
255 4.65747
260 4.1661
265 4.62817
270 6.8805
275 5.65134
280 5.62994
285 5.97025
290 4.83684
295 5.21958
300 6.68708
305 4.43622
310 5.48673
315 4.58994
320 5.5428
325 7.7084
330 5.05146
335 4.29304
340 4.86073
345 4.72143
350 6.23591
355 4.93887
360 6.19408
365 4.83281
370 4.22521
375 5.94574
380 5.6756
385 4.44279
390 6.097
395 8.40263
400 7.05488
405 4.91087
410 5.36238
415 5.2707
420 8.27515
425 4.86737
430 4.8227
435 8.0483
440 10.1789
445 7.00501
450 6.35897
455 6.04085
460 5.99732
465 5.17383
470 5.40013
475 5.27602
480 4.19242
485 5.19459
490 4.14438
495 5.432
500 4.11106
505 5.69112
510 6.99412
515 4.89855
520 3.48813
525 3.82896
530 4.61629
535 5.84631
540 5.54326
545 6.09121
550 6.65105
555 4.42253
560 3.03528
565 6.68156
570 4.73649
575 4.38575
580 6.61811
585 5.47584
590 4.75087
595 3.99257
600 0.454339
Ex : 233
200 4.36638
205 5.24332
210 4.9879
215 4.43536
220 4.38506
225 4.27872
230 3.47181
235 4.27222
240 6.70053
245 4.74857
250 5.21308
255 5.7797
260 3.60219
265 4.95562
270 5.7862
275 3.61975
280 4.95821
285 6.24416
290 5.17495
295 4.91301
300 4.57369
305 4.41032
310 3.92262
315 5.3241
320 6.39247
325 5.623
330 7.77327
335 5.60031
340 5.40153
345 7.24437
350 5.21127
355 4.84609
360 5.09773
365 4.90079
370 5.92175
375 5.78885
380 5.78455
385 5.47393
390 6.70768
395 8.73157
400 5.63564
405 3.03266
410 4.91074
415 7.46354
420 5.74658
425 4.27051
430 4.62277
435 5.50243
440 5.70396
445 5.07649
450 6.7476
455 6.31306
460 6.58243
465 4.39895
470 5.32547
475 4.49872
480 5.19616
485 5.36617
490 8.57919
495 6.52244
500 5.83349
505 7.81205
510 6.26292
515 6.35897
520 5.95557
525 4.75497
530 5.9179
535 4.70979
540 4.81803
545 6.73705
550 5.3715
555 4.74451
560 4.98191
565 6.40201
570 4.0961
575 9.05411
580 7.5819
585 4.45784
590 4.3897
595 6.04512
600 3.34652
Ex : 238
200 7.94531
205 5.76504
210 3.55121
215 4.59904
220 3.80231
225 4.13927
230 6.28427
235 3.06521
240 3.20852
245 5.12759
250 3.47124
255 6.86659
260 7.55358
265 6.8448
270 5.85156
275 2.93213
280 4.58744
285 3.6554
290 4.55922
295 3.72498
300 5.75138
305 4.22271
310 4.68659
315 4.42506
320 5.35982
325 4.80791
330 3.92329
335 5.6849
340 4.81485
345 4.33965
350 3.25709
355 4.36034
360 2.65652
365 4.08051
370 4.69014
375 5.30993
380 6.35948
385 6.28169
390 6.19717
395 4.64785
400 4.69574
405 4.7988
410 3.92729
415 4.11546
420 5.85168
425 4.12835
430 4.6245
435 3.30215
440 4.21599
445 4.57975
450 4.10208
455 4.44636
460 6.98467
465 6.43586
470 3.4252
475 7.46517
480 5.10259
485 4.71627
490 5.09572
495 6.9019
500 5.17615
505 4.70591
510 4.81241
515 3.63256
520 6.22111
525 4.76722
530 4.2926
535 4.64051
540 4.71292
545 6.55787
550 4.64221
555 4.70327
560 5.37256
565 6.14008
570 3.87112
575 5.67656
580 4.03722
585 3.28261
590 5.46422
595 5.94523
600 0.676544
Ex : 243
200 3.74267
205 5.9548
210 3.34496
215 2.95559
220 4.32572
225 6.54168
230 4.92387
235 3.06238
240 4.22815
245 3.35556
250 3.79213
255 3.97063
260 3.14317
265 3.87862
270 3.74556
275 3.70824
280 2.23032
285 3.15657
290 2.32292
295 3.25305
300 3.29966
305 3.26684
310 4.44023
315 5.23561
320 2.5941
325 2.91117
330 4.19304
335 4.67026
340 3.014
345 4.42905
350 3.49421
355 3.05041
360 4.37921
365 3.33991
370 4.42139
375 5.79421
380 4.49167
385 4.36123
390 5.16285
395 4.63284
400 4.44588
405 4.3705
410 4.13932
415 5.4949
420 4.0101
425 3.77119
430 4.10446
435 6.15473
440 3.5193
445 4.02117
450 5.31295
455 5.15604
460 4.7835
465 3.93122
470 5.51305
475 5.54682
480 7.05542
485 4.86659
490 3.73635
495 3.1044
500 4.41191
505 3.27788
510 4.36537
515 2.2063
520 3.53506
525 3.86056
530 3.2403
535 3.58305
540 3.19535
545 5.21664
550 4.70712
555 3.31458
560 4.66735
565 4.02092
570 5.70774
575 3.89116
580 4.23147
585 3.4306
590 3.38133
595 2.77027
600 4.87287
Ex : 248
200 3.31373
205 3.22214
210 3.93982
215 2.74534
220 4.58254
225 2.74319
230 2.54164
235 4.62067
240 4.82507
245 3.52239
250 2.83913
255 2.59792
260 4.90234
265 3.99842
270 4.34474
275 3.90922
280 3.48068
285 3.71684
290 2.98144
295 4.5411
300 3.46216
305 2.78443
310 4.05545
315 4.73612
320 2.82067
325 4.52917
330 6.62636
335 4.90876
340 3.65522
345 5.05822
350 4.40275
355 4.03567
360 3.40253
365 3.6392
370 3.29233
375 3.65131
380 2.7948
385 4.66172
390 5.55736
395 6.17434
400 5.31245
405 5.18791
410 6.35584
415 6.27664
420 4.85074
425 2.87675
430 3.10994
435 4.02035
440 3.92337
445 2.66829
450 4.35661
455 5.04893
460 3.53283
465 4.00849
470 4.62479
475 4.02353
480 3.7376
485 4.47284
490 4.00254
495 5.14045
500 3.69948
505 3.13068
510 3.3338
515 4.42985
520 3.8747
525 3.54015
530 2.71105
535 2.66036
540 3.00932
545 2.45126
550 4.29557
555 3.40027
560 3.93683
565 4.15646
570 3.62993
575 2.59921
580 3.40513
585 2.9304
590 3.19617
595 4.64787
600 0.52891
Ex : 253
200 3.35335
205 2.71081
210 3.62899
215 2.99332
220 2.62644
225 3.72857
230 4.47922
235 4.66756
240 3.50056
245 3.0333
250 4.09434
255 3.04179
260 3.46601
265 2.55786
270 3.11677
275 2.89157
280 3.95074
285 3.2715
290 3.3085
295 4.49734
300 2.63824
305 2.64129
310 1.77032
315 2.8558
320 4.2356
325 3.78183
330 2.67243
335 3.15456
340 2.69787
345 2.30097
350 4.11882
355 2.2223
360 2.28097
365 3.46648
370 3.4396
375 3.31946
380 2.05937
385 3.88968
390 2.3322
395 3.38312
400 1.97645
405 3.63289
410 3.43283
415 2.97002
420 4.20759
425 3.31081
430 3.77459
435 3.34557
440 2.24708
445 3.65772
450 4.02465
455 3.36465
460 3.7534
465 3.13004
470 4.09817
475 4.65549
480 3.21628
485 2.37892
490 3.17158
495 3.18182
500 2.42196
505 3.86641
510 3.32715
515 3.05617
520 2.66488
525 2.66859
530 3.54752
535 3.58935
540 3.67285
545 3.92793
550 4.13591
555 3.87929
560 3.17516
565 2.87043
570 3.40817
575 2.8859
580 3.85646
585 2.67779
590 4.98354
595 4.59627
600 0.523038
Ex : 258
200 3.64672
205 2.04462
210 2.2262
215 1.83015
220 2.78256
225 2.32161
230 1.77504
235 2.84472
240 2.72713
245 2.40438
250 2.10944
255 2.0844
260 2.73064
265 2.36812
270 2.14851
275 2.40092
280 2.51439
285 2.28603
290 3.28815
295 2.30194
300 2.51301
305 3.07632
310 2.06491
315 3.00196
320 2.29302
325 2.20787
330 3.52032
335 2.44027
340 3.22415
345 1.86809
350 2.21277
355 2.86032
360 2.5936
365 2.11091
370 2.81967
375 3.45694
380 3.04159
385 4.2879
390 2.66126
395 3.57191
400 2.63291
405 2.61026
410 2.86462
415 2.03407
420 2.64449
425 3.43646
430 2.62252
435 2.39618
440 2.97117
445 4.03858
450 2.50267
455 2.60323
460 3.1539
465 2.15955
470 3.11528
475 2.41767
480 3.54473
485 1.7884
490 3.35485
495 2.94058
500 1.96992
505 3.00244
510 3.07863
515 2.59424
520 1.86871
525 2.83052
530 3.02283
535 3.14711
540 2.01124
545 2.6921
550 2.28638
555 1.8136
560 2.35605
565 1.9181
570 1.9095
575 2.23798
580 2.37883
585 2.96652
590 2.24239
595 3.16674
600 2.60996
Ex : 263
200 1.42661
205 1.91253
210 1.49372
215 1.30578
220 2.37431
225 1.95356
230 1.79255
235 2.20866
240 3.47994
245 1.69322
250 1.15631
255 2.22097
260 2.49833
265 1.65874
270 1.92499
275 1.79056
280 2.70704
285 1.56668
290 1.83683
295 1.25112
300 1.83598
305 1.60153
310 1.53428
315 1.98119
320 2.33228
325 1.55061
330 1.75193
335 1.57527
340 1.88747
345 2.02698
350 2.27575
355 2.26503
360 2.42511
365 1.72499
370 2.40205
375 2.38755
380 2.51987
385 2.40736
390 2.64633
395 1.98106
400 2.15317
405 2.28246
410 2.3675
415 2.54528
420 2.65608
425 2.14219
430 1.78739
435 3.62338
440 2.56158
445 2.83113
450 1.91679
455 2.26
460 2.29197
465 1.78239
470 2.59544
475 2.33777
480 2.95726
485 1.53665
490 2.18682
495 3.84991
500 2.62463
505 2.65265
510 2.60767
515 3.74309
520 1.83838
525 2.66144
530 1.95289
535 2.78222
540 1.80974
545 3.03393
550 1.86167
555 2.42736
560 2.18177
565 3.45076
570 2.02649
575 1.91331
580 2.19873
585 1.52011
590 1.97465
595 2.13537
600 3.15481
Ex : 268
200 1.60073
205 1.51584
210 1.51277
215 1.5959
220 2.02638
225 1.31228
230 1.53042
235 1.85663
240 1.59857
245 1.59032
250 1.12148
255 1.41278
260 2.04167
265 1.74753
270 1.81095
275 0.889535
280 1.29223
285 2.24865
290 1.20818
295 1.55982
300 1.56028
305 1.67679
310 1.2174
315 1.48821
320 1.23237
325 1.98275
330 1.89183
335 1.61585
340 2.05428
345 2.10222
350 2.27933
355 1.48241
360 2.04472
365 1.37635
370 1.62927
375 1.32945
380 1.42856
385 2.71286
390 1.96524
395 2.28891
400 1.86371
405 2.17999
410 2.06294
415 2.09993
420 1.67649
425 1.98501
430 1.62149
435 1.13325
440 2.31866
445 1.90009
450 2.41907
455 2.11586
460 1.28752
465 1.84608
470 1.61469
475 1.74224
480 1.81365
485 1.8721
490 1.81907
495 1.66471
500 1.87333
505 1.58836
510 1.39593
515 1.31337
520 2.02299
525 1.44392
530 1.47838
535 1.34551
540 1.43294
545 1.05914
550 2.03459
555 1.16248
560 1.02174
565 1.47873
570 1.80087
575 1.59456
580 1.54425
585 1.19138
590 0.638197
595 0.952367
600 0.649945
Ex : 273
200 1.3994
205 1.24337
210 1.15647
215 1.34355
220 1.61709
225 1.22535
230 1.20556
235 1.49402
240 1.53702
245 1.0522
250 1.38625
255 1.14842
260 1.22364
265 1.05821
270 1.48103
275 1.16183
280 1.44038
285 0.901252
290 0.622899
295 1.26882
300 1.02444
305 0.984732
310 1.96438
315 1.61107
320 1.04215
325 1.66856
330 1.28423
335 2.0995
340 1.11371
345 1.48049
350 1.93824
355 1.31093
360 1.27651
365 1.11792
370 1.68892
375 1.3555
380 2.04989
385 1.60172
390 1.85068
395 1.45416
400 2.07748
405 2.11459
410 1.53963
415 1.31988
420 1.75875
425 1.73794
430 1.10544
435 1.89464
440 1.97025
445 1.40521
450 1.56558
455 1.25344
460 1.3423
465 2.14983
470 1.43367
475 1.40898
480 1.91507
485 1.25567
490 1.63175
495 1.15221
500 1.06051
505 1.03622
510 1.57828
515 1.9136
520 1.15201
525 1.31857
530 0.975809
535 1.57893
540 1.45886
545 1.9519
550 1.71611
555 1.04975
560 1.49929
565 1.58978
570 1.0609
575 1.06287
580 1.09037
585 1.32546
590 1.12859
595 1.84612
600 2.09808
Ex : 278
200 0.920622
205 1.04215
210 0.887172
215 1.00838
220 0.842416
225 0.611368
230 0.768309
235 1.08559
240 0.93176
245 0.934454
250 0.775865
255 1.10308
260 0.996463
265 1.12682
270 0.946375
275 1.48279
280 0.867487
285 0.817616
290 1.09658
295 1.10129
300 0.914125
305 1.26844
310 1.15363
315 0.911403
320 1.11381
325 1.15791
330 1.06461
335 1.0535
340 1.07892
345 0.850782
350 0.743701
355 1.32691
360 1.54227
365 1.2423
370 1.10422
375 1.31285
380 1.05886
385 2.28103
390 2.06679
395 2.0032
400 1.26502
405 1.68609
410 1.05319
415 1.49645
420 1.13527
425 1.44159
430 1.16547
435 1.41027
440 1.09217
445 1.47368
450 1.66631
455 1.37944
460 1.29804
465 2.00903
470 1.19405
475 1.51531
480 1.41443
485 1.69293
490 1.32449
495 1.04876
500 1.03129
505 1.09458
510 0.992468
515 0.996247
520 1.10225
525 1.0825
530 0.9351
535 0.980808
540 1.08267
545 1.01232
550 1.37701
555 1.72145
560 1.33102
565 1.02812
570 1.06609
575 0.668356
580 0.873353
585 0.939637
590 1.06068
595 1.32611
600 0.150907
Ex : 283
200 1.01811
205 0.792473
210 0.861506
215 0.802611
220 0.813132
225 0.712084
230 1.24148
235 0.959357
240 0.99233
245 1.46632
250 0.844865
255 0.833936
260 0.513283
265 0.87593
270 0.846369
275 1.18707
280 1.10401
285 1.08223
290 0.942323
295 0.87968
300 1.02394
305 0.56608
310 0.707942
315 0.588426
320 0.976853
325 0.845619
330 1.31136
335 1.15784
340 1.15559
345 0.912263
350 1.35801
355 1.27722
360 0.807727
365 1.44711
370 1.40865
375 0.885375
380 0.828792
385 1.28786
390 1.34305
395 1.30429
400 1.38547
405 1.32493
410 1.15336
415 0.788714
420 1.37159
425 1.21443
430 1.5888
435 1.23222
440 1.52122
445 1.37551
450 1.13336
455 0.959102
460 1.03048
465 0.916311
470 1.53626
475 1.05981
480 1.16771
485 1.03004
490 1.0016
495 0.897997
500 1.10196
505 1.01955
510 0.79367
515 0.789951
520 1.06211
525 1.00281
530 1.15711
535 1.46825
540 0.899846
545 0.740197
550 1.19547
555 1.21158
560 1.96685
565 0.956595
570 1.1563
575 0.860576
580 1.01624
585 1.01528
590 1.13869
595 0.430852
600 0.0490293
Ex : 288
200 0.658523
205 0.664551
210 0.662885
215 0.587485
220 0.577887
225 0.831604
230 0.592169
235 0.593221
240 0.643257
245 0.836008
250 0.798074
255 0.519462
260 0.815442
265 0.875522
270 0.743636
275 0.762518
280 1.03326
285 1.17768
290 0.722276
295 0.722257
300 0.589841
305 0.658605
310 0.428096
315 0.94346
320 0.66086
325 0.650853
330 0.649917
335 0.643037
340 1.01873
345 0.713635
350 0.94237
355 0.665293
360 0.829082
365 1.0479
370 0.958111
375 0.914948
380 1.62873
385 1.16657
390 1.25179
395 1.23316
400 1.24273
405 1.0679
410 1.39547
415 1.47768
420 1.49645
425 1.62435
430 1.43842
435 1.28835
440 1.40134
445 0.879413
450 0.853932
455 0.916773
460 0.868312
465 1.27665
470 0.926984
475 1.3557
480 1.04763
485 1.05378
490 0.889074
495 0.945899
500 1.01171
505 0.969812
510 0.641778
515 0.681855
520 0.934307
525 0.747773
530 0.830403
535 0.585646
540 0.489327
545 0.729301
550 0.70656
555 0.867971
560 0.729949
565 1.11432
570 1.05584
575 0.85407
580 0.965079
585 0.96003
590 0.933387
595 1.05729
600 0.120315
Ex : 293
200 0.284041
205 0.567801
210 0.519032
215 0.45046
220 0.662737
225 0.418337
230 0.645452
235 0.799281
240 0.622246
245 0.68898
250 0.569568
255 0.561678
260 0.57802
265 0.521614
270 0.338027
275 0.384312
280 0.553225
285 0.779943
290 0.616567
295 0.570872
300 0.663478
305 0.574728
310 0.66386
315 0.766505
320 0.911045
325 0.723799
330 0.657811
335 0.452475
340 0.619558
345 0.727259
350 0.716325
355 0.671297
360 0.947875
365 0.743496
370 0.942294
375 0.909468
380 1.02591
385 0.8572
390 0.826114
395 1.09126
400 1.35682
405 1.14003
410 1.09814
415 1.15412
420 1.06121
425 1.39051
430 1.50395
435 1.11602
440 0.933111
445 0.950312
450 1.17394
455 0.993005
460 0.895355
465 0.832886
470 0.95978
475 1.03348
480 0.756335
485 0.851089
490 0.612524
495 0.692264
500 0.600329
505 0.461074
510 0.855536
515 0.784219
520 0.645041
525 0.805842
530 0.764326
535 0.80531
540 0.6162
545 0.643368
550 0.620038
555 0.599193
560 0.672317
565 0.47359
570 0.701486
575 0.842242
580 1.28421
585 0.903041
590 0.534705
595 0.644807
600 1.31406
Ex : 298
200 0.331494
205 0.675108
210 0.446738
215 0.425062
220 0.699306
225 0.373079
230 0.441512
235 0.412106
240 0.53636
245 0.412037
250 0.337028
255 0.444561
260 0.343461
265 0.372688
270 0.441863
275 0.538167
280 0.5329
285 0.236446
290 0.766983
295 0.824406
300 0.647833
305 0.423439
310 0.410878
315 0.579233
320 0.549573
325 0.489119
330 0.55692
335 0.567295
340 0.567526
345 0.538054
350 0.551933
355 0.607153
360 0.747686
365 0.978539
370 0.737913
375 0.724071
380 0.823216
385 0.929479
390 1.26589
395 0.955271
400 0.937345
405 1.08625
410 0.980913
415 1.24568
420 0.975515
425 0.903989
430 0.776691
435 0.77559
440 1.04327
445 1.02662
450 0.997307
455 0.862714
460 1.00961
465 0.66234
470 1.19757
475 0.721616
480 0.833008
485 0.82884
490 0.777088
495 0.757804
500 0.727087
505 0.648715
510 0.686883
515 0.697257
520 0.509486
525 0.790894
530 0.58698
535 0.66468
540 0.782627
545 0.47899
550 0.412151
555 0.726941
560 0.595089
565 0.318709
570 0.574563
575 0.543616
580 0.590283
585 1.03079
590 0.992497
595 0.740733
600 1.3503
Ex : 303
200 0.340968
205 0.311352
210 0.50697
215 1.00712
220 0.446892
225 0.393678
230 0.515097
235 0.46323
240 0.432563
245 0.390148
250 0.507648
255 0.605508
260 0.538687
265 0.491264
270 0.607554
275 0.518628
280 0.383239
285 0.270115
290 0.449251
295 0.485983
300 0.645338
305 0.571393
310 0.520341
315 0.356038
320 0.38397
325 0.389314
330 0.54481
335 0.575063
340 0.537187
345 0.627919
350 0.777787
355 0.65934
360 0.794051
365 0.784766
370 0.99856
375 0.886711
380 1.15367
385 0.893305
390 0.949515
395 0.858068
400 0.998796
405 0.845942
410 1.17369
415 1.04241
420 0.767604
425 0.787902
430 0.796964
435 1.12207
440 1.04559
445 1.11945
450 0.930749
455 1.0227
460 1.10903
465 0.872671
470 0.613645
475 0.669495
480 0.763372
485 0.592236
490 0.724953
495 0.955601
500 0.648743
505 0.717291
510 0.773312
515 0.612972
520 0.459027
525 0.586901
530 0.587751
535 0.513765
540 0.501236
545 0.296357
550 0.385387
555 0.461938
560 0.407048
565 0.515992
570 0.532043
575 0.365939
580 0.350131
585 0.279145
590 0.431311
595 0.708551
600 2.10624
Ex : 308
200 0.504688
205 0.357462
210 0.34138
215 0.28558
220 0.428332
225 0.370736
230 0.39922
235 0.757465
240 0.344576
245 0.330943
250 0.260086
255 0.308308
260 0.432907
265 0.502108
270 0.432403
275 0.402168
280 0.693798
285 0.434125
290 0.540281
295 0.386211
300 0.625331
305 0.972764
310 0.429556
315 0.50564
320 0.55158
325 0.404659
330 0.849034
335 0.70893
340 0.640244
345 0.469294
350 0.506263
355 0.664386
360 0.642833
365 0.859267
370 0.794975
375 0.748673
380 0.925666
385 1.01486
390 0.764791
395 0.736061
400 0.888268
405 0.893188
410 0.873091
415 0.831195
420 0.944447
425 0.790735
430 0.850375
435 1.07909
440 1.02622
445 0.911852
450 0.885453
455 0.871486
460 0.719369
465 0.754854
470 0.831294
475 0.486439
480 0.702287
485 0.508501
490 0.627797
495 0.593909
500 0.722012
505 0.607492
510 0.530026
515 0.572556
520 0.525992
525 0.51695
530 0.426342
535 0.501748
540 0.327946
545 0.476239
550 0.547882
555 0.383676
560 0.370568
565 0.294463
570 0.466603
575 0.644673
580 0.526027
585 0.38579
590 0.3603
595 0.392618
600 0.870183
Ex : 313
200 0.396734
205 0.406868
210 0.266318
215 0.320355
220 0.340326
225 0.511147
230 0.41556
235 0.297566
240 0.268894
245 0.339308
250 0.37336
255 0.294316
260 0.4789
265 0.35143
270 0.414483
275 0.430529
280 0.246806
285 0.364833
290 0.293142
295 0.311082
300 0.390341
305 0.548409
310 0.701489
315 0.394757
320 0.475247
325 0.465004
330 0.62977
335 0.594821
340 0.551326
345 0.506348
350 0.781094
355 0.664701
360 0.743925
365 1.01701
370 0.74779
375 1.12775
380 1.47221
385 1.29065
390 1.60251
395 1.50876
400 1.51231
405 1.35327
410 1.54183
415 1.91902
420 1.5908
425 1.59703
430 1.47686
435 1.35976
440 1.60825
445 1.4264
450 1.54971
455 1.44104
460 1.23855
465 1.26563
470 1.22865
475 0.961936
480 1.05846
485 0.709294
490 0.915684
495 0.855217
500 0.764535
505 0.682114
510 0.607712
515 0.66445
520 0.607889
525 0.540228
530 0.684873
535 0.619434
540 0.505327
545 0.330672
550 0.447018
555 0.410721
560 0.409311
565 0.393431
570 0.3654
575 0.501188
580 0.445178
585 0.398491
590 0.438036
595 0.522676
600 0.0594785
Ex : 318
200 0.461303
205 0.290118
210 0.2374
215 0.323027
220 0.467227
225 0.279332
230 0.328414
235 0.295074
240 0.282617
245 0.278291
250 0.329345
255 0.312883
260 0.478252
265 0.333532
270 0.139385
275 0.290357
280 0.520065
285 0.435755
290 0.30408
295 0.321182
300 0.482384
305 0.386992
310 0.671623
315 1.27235
320 0.81445
325 0.641621
330 0.761572
335 0.973777
340 1.42118
345 2.11188
350 2.83729
355 3.23586
360 4.20981
365 5.27576
370 6.20952
375 7.00227
380 8.33548
385 9.46201
390 10.31
395 10.9526
400 11.5122
405 11.4958
410 11.8332
415 12.0276
420 12.0739
425 11.3692
430 11.0997
435 11.3419
440 10.5172
445 10.0059
450 9.341
455 8.82385
460 8.27282
465 7.8048
470 7.33125
475 6.88089
480 6.04104
485 5.12098
490 4.69723
495 4.05962
500 4.17738
505 3.29128
510 3.0632
515 2.42042
520 2.14151
525 1.78775
530 1.55166
535 1.68732
540 1.26276
545 1.06935
550 1.07069
555 0.936964
560 0.796728
565 0.627592
570 0.595166
575 0.52321
580 0.500472
585 0.392538
590 0.269832
595 0.331561
600 0.140343
Ex : 323
200 0.398089
205 0.417535
210 0.314959
215 0.234963
220 0.282092
225 0.207271
230 0.354447
235 0.275097
240 0.414643
245 0.29299
250 0.243876
255 0.247212
260 0.343236
265 0.369924
270 0.29012
275 0.306322
280 0.28582
285 0.360335
290 0.255422
295 0.270407
300 0.384234
305 0.343148
310 0.416352
315 4.25351
320 15.7609
325 7.42034
330 2.58742
335 2.92882
340 4.96801
345 6.51252
350 9.9117
355 13.1502
360 16.3332
365 18.5538
370 22.5393
375 25.9164
380 29.1125
385 33.3883
390 35.9762
395 38.0826
400 39.8745
405 41.1977
410 42.1187
415 41.2289
420 41.2001
425 39.526
430 39.0847
435 38.333
440 36.5625
445 35.2165
450 32.5798
455 30.7925
460 29.0499
465 26.0683
470 24.279
475 22.4013
480 20.7514
485 18.4044
490 15.906
495 14.7917
500 12.8441
505 11.0261
510 9.44805
515 8.79
520 7.2663
525 6.55442
530 5.47732
535 4.94849
540 4.26472
545 3.80101
550 3.38547
555 2.95255
560 2.30163
565 1.88105
570 1.81675
575 1.23592
580 1.19995
585 0.995592
590 0.809511
595 0.53859
600 0.702732
Ex : 328
200 0.231893
205 0.237075
210 0.336993
215 0.388268
220 0.240054
225 0.181862
230 0.400893
235 0.263424
240 0.2457
245 0.29096
250 0.348188
255 0.272075
260 0.220717
265 0.410407
270 0.343769
275 0.310599
280 0.162103
285 0.274589
290 0.372737
295 0.281996
300 0.261935
305 0.296441
310 0.390359
315 1.32712
320 36.7267
325 87.3466
330 29.6061
335 7.3762
340 6.10187
345 7.8689
350 9.97092
355 14.6244
360 20.2335
365 21.8627
370 23.3078
375 27.5583
380 30.7947
385 34.0404
390 36.7257
395 38.9965
400 40.5885
405 41.4249
410 43.5659
415 43.4176
420 43.2972
425 41.8399
430 40.8669
435 39.4552
440 37.9179
445 35.9937
450 34.1612
455 32.4702
460 31.1317
465 29.3294
470 26.0035
475 24.2087
480 22.31
485 20.2771
490 19.163
495 16.4788
500 14.7176
505 13.3848
510 11.6339
515 10.2014
520 9.02747
525 7.53076
530 7.00855
535 6.30868
540 5.66624
545 4.86629
550 4.12749
555 3.74715
560 2.9883
565 2.71166
570 2.11422
575 1.76727
580 1.23064
585 0.955638
590 1.04559
595 0.638755
600 1.26187
Ex : 333
200 0.219815
205 0.213828
210 0.237955
215 0.312134
220 0.201871
225 0.25577
230 0.169865
235 0.234131
240 0.284733
245 0.344052
250 0.375361
255 0.262504
260 0.197759
265 0.268205
270 0.24766
275 0.285204
280 0.253712
285 0.204059
290 0.21329
295 0.336696
300 0.27822
305 0.323186
310 0.421363
315 0.42532
320 6.26304
325 111.774
330 197.537
335 55.1748
340 10.2853
345 6.06477
350 6.88614
355 7.58391
360 11.2269
365 15.2913
370 16.9768
375 17.1551
380 18.0485
385 18.8982
390 20.6115
395 22.4721
400 23.1301
405 24.2104
410 25.1688
415 26.2537
420 24.7417
425 24.3738
430 24.6733
435 23.812
440 24.2865
445 22.9764
450 22.4524
455 21.3008
460 20.146
465 19.4782
470 17.6429
475 16.8848
480 15.7645
485 14.6098
490 13.3069
495 12.6567
500 11.1157
505 10.0932
510 9.34895
515 8.0166
520 7.32421
525 6.84887
530 5.81065
535 5.1444
540 4.98467
545 4.11255
550 3.59549
555 3.23108
560 3.03856
565 2.5491
570 1.95075
575 1.56499
580 1.41141
585 1.18547
590 0.814755
595 0.876905
600 0.340231
Ex : 338
200 0.399897
205 0.219681
210 0.181191
215 0.312648
220 0.268005
225 0.305442
230 0.262732
235 0.185781
240 0.139507
245 0.33841
250 0.252753
255 0.215799
260 0.220419
265 0.190208
270 0.301274
275 0.192567
280 0.233759
285 0.248916
290 0.244864
295 0.201319
300 0.22684
305 0.333228
310 0.286768
315 0.440367
320 0.427972
325 13.0897
330 180.825
335 264.017
340 70.8227
345 11.195
350 5.02224
355 4.75817
360 4.68898
365 6.61998
370 11.183
375 12.6705
380 11.441
385 10.9563
390 10.956
395 11.517
400 12.6609
405 13.3087
410 14.6038
415 15.3949
420 16.0138
425 15.5463
430 15.8303
435 16.6233
440 16.1656
445 16.5108
450 15.7696
455 15.5449
460 15.0981
465 14.8524
470 14.2805
475 14.1112
480 13.5689
485 12.8371
490 12.3233
495 11.5676
500 10.5268
505 9.50428
510 8.57738
515 8.06432
520 7.1176
525 6.76826
530 5.89938
535 5.27287
540 4.85645
545 4.34755
550 4.05552
555 3.53891
560 3.00582
565 2.6549
570 2.30178
575 1.71594
580 1.40394
585 1.14186
590 0.778694
595 0.924172
600 0.404819
Ex : 343
200 0.156127
205 0.192751
210 0.163088
215 0.243238
220 0.248564
225 0.32111
230 0.262899
235 0.188173
240 0.219081
245 0.194659
250 0.191577
255 0.222749
260 0.248621
265 0.230084
270 0.171641
275 0.175554
280 0.210624
285 0.339
290 0.31964
295 0.215524
300 0.256924
305 0.293341
310 0.21913
315 0.27193
320 0.271993
325 0.464201
330 15.7147
335 206.442
340 296.755
345 76.3156
350 11.344
355 4.21109
360 3.55615
365 3.19918
370 4.58131
375 8.81024
380 10.2025
385 8.19045
390 7.43778
395 7.76039
400 8.72351
405 10.0698
410 11.7957
415 13.1087
420 12.981
425 13.0805
430 14.2433
435 15.2891
440 15.4944
445 15.3309
450 15.251
455 14.9074
460 15.1651
465 15.1712
470 14.9272
475 14.856
480 14.0759
485 13.5392
490 12.4618
495 12.5047
500 11.6828
505 10.7899
510 9.94726
515 9.121
520 8.10172
525 7.14654
530 6.50356
535 6.03913
540 5.48612
545 4.9038
550 4.58234
555 3.60619
560 3.20236
565 3.07026
570 2.36576
575 2.0617
580 1.68556
585 1.2989
590 1.09756
595 1.00842
600 0.438099
Ex : 348
200 0.168204
205 0.174859
210 0.175896
215 0.175945
220 0.185379
225 0.218395
230 0.172619
235 0.213167
240 0.205503
245 0.244576
250 0.247745
255 0.148314
260 0.25519
265 0.218764
270 0.236219
275 0.176022
280 0.153873
285 0.29422
290 0.276909
295 0.16491
300 0.16905
305 0.206962
310 0.257545
315 0.250956
320 0.190643
325 0.246303
330 0.443154
335 16.0766
340 209.442
345 306.519
350 81.9276
355 11.6052
360 3.59402
365 3.0933
370 2.62322
375 3.36591
380 6.63269
385 9.29662
390 8.28016
395 7.38486
400 7.29861
405 9.15991
410 11.9043
415 12.6533
420 13.1137
425 13.3616
430 14.1161
435 15.3471
440 16.4124
445 17.2242
450 16.6534
455 16.9302
460 16.901
465 17.4187
470 17.3123
475 16.5487
480 16.594
485 15.5266
490 15.24
495 14.4373
500 13.4545
505 12.9632
510 12.1667
515 10.9746
520 10.0922
525 8.89029
530 8.10354
535 7.17759
540 6.62206
545 5.75728
550 5.0493
555 4.59391
560 4.03297
565 3.66537
570 3.10803
575 2.46538
580 1.99882
585 1.43002
590 1.16239
595 0.947936
600 0.275386
Ex : 353
200 0.193018
205 0.163279
210 0.148195
215 0.231057
220 0.302915
225 0.288465
230 0.204706
235 0.22051
240 0.197941
245 0.175885
250 0.197328
255 0.215171
260 0.18884
265 0.21357
270 0.155868
275 0.18246
280 0.194689
285 0.187287
290 0.296886
295 0.17361
300 0.212241
305 0.202138
310 0.174335
315 0.172278
320 0.235493
325 0.347345
330 0.335248
335 0.57886
340 15.8427
345 215.731
350 303.827
355 80.561
360 11.0973
365 3.3679
370 2.89773
375 3.01306
380 3.20594
385 5.64679
390 9.0626
395 8.72386
400 8.18821
405 9.17597
410 11.1933
415 12.9773
420 13.5474
425 13.0895
430 13.7107
435 15.5902
440 16.9322
445 17.418
450 17.3814
455 17.8284
460 17.9486
465 18.7174
470 19.2888
475 18.8014
480 18.4753
485 17.9038
490 17.4075
495 17.268
500 15.822
505 15.0212
510 13.8422
515 12.585
520 11.4145
525 10.341
530 9.38585
535 8.68694
540 7.61554
545 6.88125
550 6.10161
555 5.46377
560 4.76091
565 4.16368
570 3.59088
575 2.67594
580 2.24408
585 1.64712
590 1.3313
595 1.15667
600 0.708687
Ex : 358
200 0.21784
205 0.176697
210 0.118637
215 0.159085
220 0.147404
225 0.176702
230 0.167696
235 0.226043
240 0.191542
245 0.199353
250 0.156775
255 0.177335
260 0.210536
265 0.146942
270 0.165565
275 0.1916
280 0.147359
285 0.185323
290 0.260376
295 0.259678
300 0.223047
305 0.161488
310 0.232657
315 0.212476
320 0.186793
325 0.24808
330 0.236849
335 0.344099
340 0.514049
345 15.0775
350 207.779
355 308.591
360 81.7762
365 11.2296
370 3.47151
375 3.29623
380 3.09905
385 3.09552
390 4.92999
395 9.41194
400 10.1927
405 11.03
410 12.2822
415 13.5099
420 14.0414
425 14.7762
430 15.5083
435 17.202
440 17.9148
445 18.9399
450 19.2659
455 19.724
460 19.8665
465 19.8676
470 20.4288
475 20.5433
480 20.3782
485 19.9902
490 19.2107
495 18.262
500 17.457
505 16.3647
510 14.9928
515 13.8369
520 12.8485
525 11.9568
530 10.0124
535 9.47745
540 8.45552
545 7.80524
550 6.96531
555 5.8738
560 5.13849
565 4.60485
570 3.69297
575 3.01399
580 2.39896
585 2.14493
590 1.5873
595 1.11621
600 1.29489
Ex : 363
200 0.239632
205 0.133446
210 0.158437
215 0.170361
220 0.149945
225 0.215795
230 0.155299
235 0.125616
240 0.120504
245 0.145966
250 0.170687
255 0.163816
260 0.158087
265 0.189045
270 0.198231
275 0.149787
280 0.225372
285 0.184923
290 0.156501
295 0.152374
300 0.165075
305 0.137767
310 0.25453
315 0.216201
320 0.236117
325 0.243907
330 0.20402
335 0.278521
340 0.386532
345 0.590607
350 13.9277
355 202.705
360 307.855
365 86.604
370 11.6748
375 3.66601
380 3.5061
385 3.25066
390 3.49265
395 5.26854
400 10.0765
405 13.3744
410 15.1251
415 16.1578
420 16.5916
425 16.704
430 17.8269
435 20.3612
440 22.235
445 21.9386
450 21.8322
455 22.6043
460 23.9071
465 23.7304
470 24.6197
475 24.1794
480 24.0726
485 22.7965
490 22.1926
495 21.2913
500 20.4911
505 19.0321
510 17.5533
515 16.0049
520 14.6944
525 13.2582
530 12.1181
535 11.0009
540 9.74769
545 8.67968
550 8.01344
555 7.14559
560 6.15434
565 5.09238
570 4.27844
575 3.46428
580 2.75249
585 2.15562
590 1.65006
595 1.40745
600 1.24718
Ex : 368
200 0.124589
205 0.21015
210 0.209126
215 0.1627
220 0.123802
225 0.149016
230 0.166058
235 0.130126
240 0.188125
245 0.11792
250 0.146041
255 0.105757
260 0.159276
265 0.146061
270 0.194374
275 0.155566
280 0.128295
285 0.172147
290 0.145037
295 0.132309
300 0.180944
305 0.123665
310 0.180917
315 0.125677
320 0.149875
325 0.155285
330 0.16987
335 0.158418
340 0.220743
345 0.357287
350 0.479049
355 11.6382
360 188.186
365 306.795
370 86.0657
375 11.9343
380 3.86845
385 3.40805
390 3.39013
395 3.39913
400 5.33734
405 10.9257
410 16.3944
415 17.2073
420 16.2742
425 15.8327
430 16.7805
435 18.4858
440 20.3261
445 21.4918
450 21.651
455 22.64
460 23.7851
465 24.9431
470 25.7731
475 26.1662
480 24.9832
485 24.9918
490 24.472
495 23.466
500 23.1329
505 21.8597
510 20.6006
515 18.4107
520 16.9159
525 15.5419
530 13.8059
535 12.5298
540 11.0358
545 10.1755
550 9.20755
555 8.16568
560 7.35729
565 5.99976
570 5.12113
575 3.81025
580 3.10776
585 2.47023
590 1.75086
595 1.45335
600 0.473096
Ex : 373
200 0.184967
205 0.120802
210 0.149248
215 0.164111
220 0.110383
225 0.144957
230 0.145473
235 0.169929
240 0.144841
245 0.175661
250 0.183345
255 0.110003
260 0.120341
265 0.174957
270 0.161179
275 0.131326
280 0.21622
285 0.121492
290 0.134422
295 0.205794
300 0.135656
305 0.134453
310 0.18673
315 0.125661
320 0.173957
325 0.173519
330 0.152905
335 0.179849
340 0.215141
345 0.25085
350 0.417201
355 0.452124
360 13.3903
365 192.387
370 309.662
375 88.6984
380 12.2443
385 3.78885
390 3.362
395 3.76118
400 4.58456
405 7.32505
410 12.4243
415 16.8467
420 16.1781
425 15.2311
430 15.1
435 16.6548
440 18.7129
445 20.0564
450 20.3202
455 21.0408
460 22.4419
465 24.0847
470 25.46
475 25.8431
480 26.1807
485 25.7686
490 25.222
495 24.7593
500 23.1771
505 22.6158
510 20.9938
515 19.2582
520 17.6938
525 16.7395
530 15.0043
535 13.5868
540 12.5723
545 11.1857
550 9.65419
555 8.54174
560 7.6162
565 6.56079
570 5.55554
575 4.485
580 3.45803
585 2.52208
590 2.06579
595 1.62071
600 0.773948
Ex : 378
200 0.144413
205 0.15326
210 0.133647
215 0.0918907
220 0.144293
225 0.16723
230 0.129541
235 0.158911
240 0.106034
245 0.193313
250 0.162606
255 0.127655
260 0.215673
265 0.114206
270 0.13828
275 0.163965
280 0.184336
285 0.147853
290 0.166316
295 0.156561
300 0.150455
305 0.170577
310 0.15861
315 0.226677
320 0.128588
325 0.115438
330 0.227453
335 0.251711
340 0.181595
345 0.231962
350 0.263408
355 0.321122
360 0.439738
365 12.7993
370 200.54
375 320.294
380 92.5565
385 13.3362
390 4.21985
395 3.98532
400 5.27011
405 7.6779
410 11.0263
415 14.3328
420 17.7765
425 17.3257
430 17.0273
435 18.5151
440 19.7736
445 20.2723
450 21.0046
455 21.9191
460 23.1776
465 24.3042
470 25.8072
475 25.5822
480 25.2024
485 25.4595
490 25.1003
495 24.0951
500 23.3506
505 22.0156
510 20.5281
515 18.9186
520 17.2734
525 15.6756
530 14.3783
535 12.6937
540 11.8023
545 10.5089
550 9.58715
555 8.35548
560 7.22007
565 6.42033
570 5.57083
575 4.3606
580 3.26552
585 2.64775
590 2.05647
595 1.51918
600 1.07717
Ex : 383
200 0.173649
205 0.208706
210 0.139247
215 0.113968
220 0.111034
225 0.140558
230 0.16981
235 0.116035
240 0.140203
245 0.15339
250 0.152579
255 0.153657
260 0.132053
265 0.180548
270 0.0891311
275 0.151379
280 0.141915
285 0.140054
290 0.174299
295 0.125026
300 0.203726
305 0.154038
310 0.133505
315 0.136741
320 0.123851
325 0.136965
330 0.181251
335 0.210129
340 0.19849
345 0.201536
350 0.165624
355 0.210689
360 0.365994
365 0.543135
370 12.5965
375 203.063
380 335.637
385 97.0309
390 13.7292
395 4.65111
400 5.31117
405 8.57332
410 12.3236
415 14.3443
420 15.8125
425 18.3143
430 20.1275
435 21.3856
440 22.3351
445 22.4586
450 22.5578
455 23.2153
460 25.065
465 25.8945
470 26.932
475 26.9098
480 27.1202
485 26.5893
490 25.3779
495 25.0854
500 24.4263
505 23.0097
510 21.4063
515 19.4981
520 17.6544
525 16.4204
530 14.4493
535 13.4
540 12.0768
545 10.831
550 9.65949
555 8.73794
560 7.57397
565 6.48607
570 5.35805
575 4.4765
580 3.41607
585 2.51148
590 1.96623
595 1.59708
600 1.6657
Ex : 388
200 0.112598
205 0.102017
210 0.194911
215 0.113584
220 0.122811
225 0.106561
230 0.161511
235 0.115838
240 0.155386
245 0.167848
250 0.142209
255 0.161466
260 0.111412
265 0.142643
270 0.15931
275 0.108407
280 0.129982
285 0.162479
290 0.107944
295 0.10283
300 0.110024
305 0.165051
310 0.13291
315 0.123431
320 0.144572
325 0.150612
330 0.162558
335 0.131254
340 0.133648
345 0.178905
350 0.178976
355 0.234757
360 0.217551
365 0.300722
370 0.58745
375 13.5513
380 208.015
385 337.919
390 96.6113
395 13.903
400 5.33369
405 7.5839
410 11.2764
415 13.377
420 13.7043
425 13.9974
430 17.0295
435 21.0916
440 21.8831
445 22.2626
450 21.871
455 22.595
460 23.4369
465 24.9704
470 26.2063
475 26.9214
480 26.7464
485 27.1725
490 26.1557
495 25.5981
500 24.9218
505 23.5975
510 21.7868
515 20.4886
520 18.9139
525 16.7739
530 15.1319
535 14.1876
540 12.5829
545 11.2647
550 10.3271
555 8.69026
560 7.72718
565 6.69803
570 5.53505
575 4.2509
580 3.42262
585 2.56481
590 1.93207
595 1.60763
600 1.58581
Ex : 393
200 0.101869
205 0.101081
210 0.110303
215 0.106884
220 0.124609
225 0.159666
230 0.159477
235 0.108151
240 0.18795
245 0.127185
250 0.109126
255 0.120188
260 0.1126
265 0.118367
270 0.115597
275 0.168548
280 0.133933
285 0.107301
290 0.131075
295 0.170532
300 0.148888
305 0.142018
310 0.112473
315 0.126344
320 0.152317
325 0.133106
330 0.152956
335 0.133633
340 0.15792
345 0.173099
350 0.24767
355 0.196163
360 0.198658
365 0.192562
370 0.266727
375 0.566179
380 12.0805
385 210.501
390 353.753
395 101.904
400 14.773
405 6.74048
410 9.1595
415 10.6654
420 10.5372
425 10.9475
430 12.1953
435 15.8332
440 19.5671
445 19.6856
450 20.0991
455 20.1913
460 21.5382
465 23.44
470 24.7017
475 25.8797
480 26.1733
485 25.6292
490 25.9185
495 25.9398
500 24.6673
505 23.5469
510 21.7537
515 20.0417
520 18.8215
525 17.4552
530 15.7258
535 14.0696
540 12.7201
545 11.6193
550 10.4546
555 9.2145
560 8.16576
565 6.97853
570 5.54634
575 4.58643
580 3.63233
585 2.82792
590 2.04922
595 1.62447
600 0.727498
Ex : 398
200 0.0939059
205 0.134214
210 0.115617
215 0.121565
220 0.113503
225 0.126745
230 0.107931
235 0.133625
240 0.106952
245 0.117242
250 0.134154
255 0.150325
260 0.0882381
265 0.137192
270 0.123769
275 0.133367
280 0.15381
285 0.110058
290 0.0990504
295 0.119944
300 0.125826
305 0.129607
310 0.152357
315 0.13703
320 0.145875
325 0.112807
330 0.127039
335 0.129684
340 0.16802
345 0.146867
350 0.173
355 0.163893
360 0.19228
365 0.15163
370 0.227879
375 0.303467
380 0.53415
385 12.1914
390 213.607
395 361.473
400 103.723
405 16.7505
410 9.35081
415 9.93665
420 10.1079
425 10.1099
430 10.8647
435 12.9592
440 15.6575
445 19.1797
450 20.2201
455 20.5697
460 22.4983
465 23.187
470 24.7227
475 25.8422
480 25.6102
485 26.5872
490 26.3299
495 26.3073
500 25.0443
505 23.7038
510 22.1735
515 21.2856
520 19.6612
525 17.7726
530 15.9554
535 14.7784
540 13.2734
545 11.9318
550 10.8264
555 9.6175
560 8.27278
565 7.23714
570 6.00175
575 4.80506
580 3.72901
585 2.84169
590 2.2031
595 1.77619
600 0.609054
Ex : 403
200 0.129124
205 0.11
210 0.0983287
215 0.149914
220 0.0983371
225 0.115953
230 0.151664
235 0.131608
240 0.11633
245 0.137554
250 0.0980024
255 0.139435
260 0.148717
265 0.101759
270 0.121225
275 0.12139
280 0.100758
285 0.168642
290 0.110036
295 0.121095
300 0.131926
305 0.140682
310 0.136159
315 0.11375
320 0.122652
325 0.155879
330 0.106794
335 0.0899504
340 0.165389
345 0.160523
350 0.15399
355 0.158832
360 0.194687
365 0.166567
370 0.232729
375 0.26379
380 0.353832
385 0.552558
390 13.3814
395 221.874
400 359.734
405 105.522
410 20.1366
415 11.4176
420 10.9144
425 11.0814
430 11.4396
435 13.6471
440 15.9042
445 17.6526
450 20.7173
455 22.9535
460 23.0304
465 24.88
470 26.3196
475 26.769
480 27.3326
485 27.2003
490 26.8323
495 26.6111
500 25.7023
505 24.6513
510 23.2068
515 21.5624
520 19.9082
525 18.2854
530 16.8283
535 15.5198
540 13.8584
545 12.8445
550 11.0434
555 9.79016
560 8.41092
565 7.16874
570 6.11554
575 4.77238
580 3.80833
585 2.80735
590 2.47054
595 1.80596
600 0.865581
Ex : 408
200 0.139666
205 0.106325
210 0.102801
215 0.14707
220 0.138124
225 0.123421
230 0.145478
235 0.0920477
240 0.105592
245 0.126966
250 0.208881
255 0.121574
260 0.144615
265 0.144369
270 0.125846
275 0.1555
280 0.123512
285 0.167023
290 0.145701
295 0.162693
300 0.166591
305 0.1518
310 0.0954602
315 0.137007
320 0.0943468
325 0.12059
330 0.193461
335 0.158499
340 0.194899
345 0.151996
350 0.159488
355 0.105558
360 0.140298
365 0.159136
370 0.174824
375 0.202294
380 0.325385
385 0.327034
390 0.595522
395 14.2087
400 259.294
405 412.652
410 111.939
415 21.1814
420 10.9547
425 9.88381
430 11.0804
435 12.5785
440 14.5293
445 15.8768
450 17.3929
455 20.5671
460 23.6199
465 24.8096
470 24.8693
475 26.2322
480 26.75
485 26.7692
490 26.8042
495 26.552
500 25.1299
505 24.589
510 22.8407
515 21.31
520 19.9067
525 18.2714
530 16.5441
535 14.8402
540 14.0889
545 12.2295
550 10.9596
555 9.94532
560 8.67165
565 7.33621
570 6.20098
575 4.96582
580 3.82062
585 2.93984
590 2.19887
595 1.78642
600 1.36681
Ex : 413
200 0.0887077
205 0.0866168
210 0.0804393
215 0.129574
220 0.115558
225 0.100167
230 0.125231
235 0.164874
240 0.17882
245 0.152793
250 0.145381
255 0.118935
260 0.0667166
265 0.0980486
270 0.119816
275 0.115966
280 0.151098
285 0.105993
290 0.186518
295 0.13891
300 0.109385
305 0.172001
310 0.208442
315 0.164678
320 0.140987
325 0.167779
330 0.111928
335 0.196937
340 0.175121
345 0.132406
350 0.108079
355 0.156623
360 0.104956
365 0.1495
370 0.162654
375 0.171485
380 0.194255
385 0.266992
390 0.371137
395 0.693135
400 15.7611
405 237.964
410 376.856
415 105.637
420 17.9234
425 7.74051
430 7.37209
435 8.93367
440 10.1882
445 11.5258
450 12.6022
455 15.0578
460 18.2119
465 22.2568
470 23.5036
475 23.7539
480 24.7112
485 24.6476
490 24.5424
495 23.8911
500 23.641
505 23.6192
510 21.6662
515 20.6173
520 18.8145
525 17.3031
530 16.3269
535 14.2777
540 13.1936
545 11.8659
550 10.6059
555 9.4149
560 8.38181
565 6.99834
570 5.68864
575 4.60727
580 3.64685
585 2.91008
590 2.27598
595 1.90494
600 0.857476
Ex : 418
200 0.0623772
205 0.114549
210 0.125544
215 0.119792
220 0.123714
225 0.100314
230 0.146547
235 0.0950181
240 0.123808
245 0.125251
250 0.090012
255 0.0760701
260 0.17326
265 0.15686
270 0.144732
275 0.119152
280 0.143225
285 0.137103
290 0.145361
295 0.147748
300 0.116386
305 0.124878
310 0.0985139
315 0.0903119
320 0.154153
325 0.135474
330 0.109754
335 0.1233
340 0.106372
345 0.104157
350 0.135199
355 0.13068
360 0.114914
365 0.143994
370 0.141091
375 0.152422
380 0.158086
385 0.216818
390 0.290077
395 0.381822
400 0.803373
405 15.7109
410 244.391
415 394.374
420 111.647
425 15.9409
430 5.12727
435 4.81826
440 6.22257
445 7.277
450 8.81372
455 11.0951
460 13.0168
465 16.3714
470 19.7819
475 21.2614
480 21.6799
485 22.2277
490 22.2083
495 22.1455
500 22.2957
505 20.9617
510 20.4625
515 18.98
520 17.4665
525 16.1696
530 14.8553
535 13.59
540 12.5207
545 11.2149
550 10.012
555 8.62953
560 7.92047
565 6.80089
570 5.59434
575 4.54211
580 3.48659
585 2.49225
590 2.07718
595 1.71425
600 0.877219
Ex : 423
200 0.135196
205 0.139529
210 0.0871069
215 0.133631
220 0.111052
225 0.109055
230 0.139585
235 0.0939822
240 0.158778
245 0.151745
250 0.117918
255 0.125422
260 0.105499
265 0.100507
270 0.130389
275 0.110774
280 0.126774
285 0.110505
290 0.1487
295 0.148459
300 0.0968865
305 0.107933
310 0.134709
315 0.126713
320 0.125789
325 0.156509
330 0.11312
335 0.128165
340 0.112951
345 0.151852
350 0.133311
355 0.121339
360 0.141974
365 0.151469
370 0.142783
375 0.152373
380 0.177069
385 0.220285
390 0.195187
395 0.284824
400 0.448113
405 0.913272
410 16.4552
415 268.784
420 413.109
425 107.52
430 14.6696
435 4.24768
440 3.84611
445 5.42206
450 6.97197
455 8.86675
460 10.8881
465 13.2109
470 15.284
475 18.7528
480 21.1136
485 20.099
490 20.6408
495 20.3903
500 20.2913
505 19.6535
510 18.4607
515 17.1733
520 15.9286
525 14.8452
530 13.6977
535 12.5729
540 11.4235
545 10.3646
550 8.99359
555 8.14357
560 7.11685
565 6.15151
570 5.31112
575 4.30641
580 3.19457
585 2.5179
590 1.9224
595 1.6254
600 1.61339
Ex : 428
200 0.0662992
205 0.187029
210 0.100624
215 0.158607
220 0.106984
225 0.134611
230 0.168201
235 0.120664
240 0.106536
245 0.0977031
250 0.137678
255 0.16383
260 0.138672
265 0.0996606
270 0.114542
275 0.163668
280 0.142018
285 0.127187
290 0.216406
295 0.144358
300 0.125375
305 0.0846211
310 0.106353
315 0.122131
320 0.0858967
325 0.122118
330 0.118714
335 0.121491
340 0.154399
345 0.172979
350 0.133247
355 0.164107
360 0.171388
365 0.165073
370 0.145527
375 0.185429
380 0.130013
385 0.161217
390 0.230187
395 0.212913
400 0.273122
405 0.40474
410 0.640163
415 17.252
420 261.458
425 411.756
430 114.466
435 15.2312
440 4.40061
445 4.31205
450 5.79606
455 7.82696
460 9.61088
465 11.7579
470 13.0779
475 14.5533
480 16.9671
485 19.9984
490 19.1961
495 18.3479
500 18.2577
505 17.3411
510 16.4473
515 15.0834
520 14.6265
525 13.2841
530 12.2583
535 11.2879
540 10.2437
545 9.37272
550 8.18577
555 7.25045
560 6.34885
565 5.78225
570 5.00038
575 3.76296
580 3.10723
585 2.43875
590 1.80359
595 1.36566
600 0.681221
Ex : 433
200 0.153914
205 0.0784764
210 0.129972
215 0.129386
220 0.151217
225 0.0843642
230 0.0925961
235 0.0952677
240 0.154065
245 0.11195
250 0.159421
255 0.136812
260 0.102842
265 0.0981812
270 0.133922
275 0.130694
280 0.11399
285 0.0961651
290 0.1197
295 0.137328
300 0.109639
305 0.126355
310 0.116743
315 0.129236
320 0.163677
325 0.0873021
330 0.125034
335 0.128912
340 0.131466
345 0.0982331
350 0.158747
355 0.138569
360 0.0985334
365 0.179675
370 0.196909
375 0.197743
380 0.168487
385 0.167124
390 0.232186
395 0.177778
400 0.202603
405 0.250379
410 0.368592
415 0.675676
420 19.0056
425 290.003
430 429.848
435 114.296
440 15.6113
445 4.95007
450 4.87565
455 6.7644
460 8.58716
465 9.93588
470 11.2003
475 12.4925
480 13.8363
485 15.5213
490 18.4653
495 17.4981
500 16.2407
505 16.1366
510 15.1859
515 13.691
520 12.9721
525 11.6168
530 10.9841
535 10.1836
540 8.89708
545 8.22909
550 7.52223
555 6.57381
560 5.74703
565 5.2023
570 4.31927
575 3.38791
580 2.70546
585 2.0286
590 1.64161
595 1.23742
600 1.53898
Ex : 438
200 0.0887895
205 0.123621
210 0.102717
215 0.114873
220 0.150212
225 0.109451
230 0.104342
235 0.0940023
240 0.107427
245 0.161582
250 0.246024
255 0.110141
260 0.159039
265 0.100203
270 0.150547
275 0.146103
280 0.103558
285 0.0848029
290 0.0812965
295 0.142121
300 0.11303
305 0.145765
310 0.192056
315 0.161572
320 0.114317
325 0.149753
330 0.138641
335 0.102051
340 0.124053
345 0.157014
350 0.180715
355 0.184869
360 0.130523
365 0.16092
370 0.126604
375 0.149577
380 0.161036
385 0.181525
390 0.153095
395 0.158901
400 0.215593
405 0.192326
410 0.310138
415 0.393589
420 0.644213
425 19.3264
430 294.049
435 465.128
440 123.624
445 17.1507
450 6.05041
455 5.87811
460 7.07536
465 8.55431
470 9.35359
475 10.8587
480 11.7457
485 12.6072
490 13.3296
495 15.7013
500 15.6768
505 13.8161
510 13.0121
515 12.2081
520 10.8763
525 10.1142
530 9.47972
535 8.81924
540 7.72366
545 7.02199
550 6.3567
555 5.71221
560 5.06149
565 4.19244
570 3.77549
575 2.85088
580 2.39083
585 1.71319
590 1.27347
595 1.17656
600 1.65225
Ex : 443
200 0.0903313
205 0.0885649
210 0.130928
215 0.185204
220 0.147861
225 0.0990563
230 0.12176
235 0.132724
240 0.132141
245 0.153966
250 0.173462
255 0.124125
260 0.142007
265 0.137516
270 0.115409
275 0.155816
280 0.126054
285 0.209677
290 0.119432
295 0.195979
300 0.129213
305 0.133352
310 0.12121
315 0.125343
320 0.131473
325 0.0997371
330 0.126046
335 0.135589
340 0.133018
345 0.143026
350 0.102475
355 0.162911
360 0.150689
365 0.14475
370 0.148431
375 0.166663
380 0.176358
385 0.220947
390 0.179535
395 0.207129
400 0.198503
405 0.177746
410 0.274074
415 0.304832
420 0.427004
425 0.629252
430 21.9019
435 334.101
440 493.307
445 127.833
450 18.1064
455 6.23441
460 6.02732
465 7.106
470 8.12876
475 8.86574
480 9.30719
485 10.1329
490 10.5691
495 10.9862
500 12.0029
505 12.8363
510 11.5393
515 10.5538
520 9.81256
525 8.78576
530 7.50057
535 7.14274
540 6.5438
545 6.10011
550 5.4509
555 4.81249
560 4.25396
565 3.66059
570 3.07431
575 2.55533
580 1.98301
585 1.47351
590 1.10287
595 0.911316
600 1.42188
Ex : 448
200 0.166161
205 0.112152
210 0.0892992
215 0.0743514
220 0.125462
225 0.159498
230 0.10593
235 0.124564
240 0.140447
245 0.1646
250 0.132056
255 0.136112
260 0.101738
265 0.142047
270 0.139621
275 0.14168
280 0.100245
285 0.14504
290 0.128223
295 0.114838
300 0.14213
305 0.150127
310 0.157113
315 0.12509
320 0.115356
325 0.125025
330 0.149225
335 0.10334
340 0.145489
345 0.182795
350 0.158168
355 0.141747
360 0.147933
365 0.155834
370 0.195332
375 0.147897
380 0.161729
385 0.126913
390 0.155437
395 0.156263
400 0.187973
405 0.206786
410 0.255379
415 0.352009
420 0.399236
425 0.481572
430 0.786006
435 22.5947
440 345.082
445 514.589
450 133.913
455 18.9183
460 6.34104
465 5.5262
470 6.218
475 6.76938
480 7.17914
485 7.63257
490 8.18484
495 8.18867
500 8.28163
505 8.92486
510 10.0992
515 8.84902
520 7.53205
525 7.03885
530 6.23782
535 5.61343
540 5.35479
545 4.57293
550 4.35669
555 3.95475
560 3.4056
565 2.88847
570 2.44325
575 2.06378
580 1.48025
585 1.30206
590 1.01599
595 0.827937
600 0.18104
Ex : 453
200 0.113434
205 0.0974631
210 0.138913
215 0.123485
220 0.0867348
225 0.0843109
230 0.122786
235 0.123836
240 0.140276
245 0.1746
250 0.0987311
255 0.134218
260 0.139769
265 0.16164
270 0.126463
275 0.106486
280 0.0897072
285 0.0724718
290 0.151943
295 0.102028
300 0.144643
305 0.112088
310 0.116373
315 0.124642
320 0.192245
325 0.128251
330 0.16639
335 0.151466
340 0.179525
345 0.189429
350 0.177191
355 0.14862
360 0.156337
365 0.169179
370 0.124075
375 0.140061
380 0.196292
385 0.15518
390 0.137266
395 0.141308
400 0.182882
405 0.167892
410 0.199513
415 0.208811
420 0.268234
425 0.358148
430 0.507969
435 0.676532
440 24.065
445 368.687
450 529.933
455 131.662
460 18.3251
465 5.89621
470 4.60818
475 5.08741
480 5.58916
485 5.89754
490 5.88997
495 5.64989
500 6.06194
505 5.9386
510 6.27959
515 7.58695
520 7.23491
525 5.9508
530 5.23122
535 4.78442
540 4.17961
545 3.5918
550 3.16328
555 3.04048
560 2.70921
565 2.38856
570 1.94803
575 1.7508
580 1.41036
585 0.897299
590 0.85244
595 0.668011
600 0.611137
Ex : 458
200 0.131261
205 0.101175
210 0.1673
215 0.119501
220 0.11173
225 0.09438
230 0.146025
235 0.149922
240 0.120375
245 0.109481
250 0.0973475
255 0.118023
260 0.145971
265 0.0931077
270 0.10673
275 0.123088
280 0.152964
285 0.119406
290 0.151666
295 0.140638
300 0.122489
305 0.107691
310 0.142047
315 0.126888
320 0.113085
325 0.110107
330 0.148642
335 0.139651
340 0.139876
345 0.113496
350 0.136229
355 0.115735
360 0.173098
365 0.204481
370 0.118494
375 0.119246
380 0.190726
385 0.158809
390 0.162364
395 0.174976
400 0.170192
405 0.213013
410 0.201453
415 0.194425
420 0.221479
425 0.268752
430 0.380568
435 0.489581
440 0.824744
445 26.4621
450 374.288
455 547.311
460 139.107
465 18.7561
470 5.26915
475 3.49827
480 3.84519
485 4.22741
490 4.28951
495 4.27147
500 4.27097
505 4.08101
510 4.02729
515 4.11928
520 5.26425
525 5.72467
530 4.80803
535 4.05613
540 3.60103
545 3.16033
550 2.50215
555 2.4332
560 2.22952
565 1.84131
570 1.65863
575 1.31916
580 1.12193
585 0.837293
590 0.686036
595 0.513492
600 0.418179
Ex : 463
200 0.0997651
205 0.146328
210 0.137539
215 0.0841124
220 0.124736
225 0.117974
230 0.116877
235 0.0957025
240 0.137192
245 0.168218
250 0.123164
255 0.139054
260 0.156762
265 0.109138
270 0.146828
275 0.190769
280 0.167251
285 0.0955719
290 0.0800182
295 0.0903602
300 0.118289
305 0.133719
310 0.119225
315 0.156594
320 0.205207
325 0.134701
330 0.130839
335 0.166025
340 0.11831
345 0.0866221
350 0.138136
355 0.115346
360 0.132773
365 0.142429
370 0.118087
375 0.157582
380 0.131214
385 0.10988
390 0.143779
395 0.151563
400 0.176029
405 0.17384
410 0.21774
415 0.185389
420 0.234506
425 0.240028
430 0.353789
435 0.380461
440 0.489116
445 0.916263
450 25.6691
455 387.593
460 585.78
465 149.041
470 19.49
475 4.71345
480 3.0156
485 2.84058
490 3.4049
495 3.28879
500 3.00755
505 3.12906
510 3.08334
515 2.98638
520 3.00539
525 3.56513
530 4.48882
535 3.87128
540 3.00607
545 2.79338
550 2.65567
555 1.94888
560 1.71896
565 1.56596
570 1.32656
575 1.11009
580 0.90458
585 0.669383
590 0.544746
595 0.500033
600 0.893872
Ex : 468
200 0.124575
205 0.114791
210 0.127391
215 0.11447
220 0.124417
225 0.118931
230 0.125928
235 0.101432
240 0.0902461
245 0.112783
250 0.124585
255 0.132576
260 0.104346
265 0.121983
270 0.139974
275 0.111916
280 0.101743
285 0.109394
290 0.104366
295 0.104045
300 0.13018
305 0.118431
310 0.104967
315 0.11499
320 0.0979366
325 0.117931
330 0.082765
335 0.155932
340 0.151362
345 0.14762
350 0.0995109
355 0.153607
360 0.0918089
365 0.11324
370 0.1515
375 0.136269
380 0.171226
385 0.129945
390 0.152506
395 0.140281
400 0.15629
405 0.1279
410 0.164759
415 0.169431
420 0.20781
425 0.183986
430 0.292119
435 0.256823
440 0.329185
445 0.536749
450 0.784181
455 27.3746
460 385.916
465 599.395
470 151.277
475 19.3134
480 4.278
485 2.46897
490 2.33315
495 2.61425
500 2.672
505 2.4702
510 2.33776
515 2.41234
520 2.23813
525 2.29797
530 2.76032
535 3.92973
540 3.93491
545 2.71172
550 2.36758
555 2.20958
560 1.72477
565 1.49476
570 1.21725
575 0.931682
580 0.768931
585 0.720806
590 0.572807
595 0.454628
600 0.718219
Ex : 473
200 0.120925
205 0.101694
210 0.126164
215 0.150302
220 0.108464
225 0.104084
230 0.13078
235 0.105573
240 0.1012
245 0.147372
250 0.179981
255 0.116916
260 0.20372
265 0.163899
270 0.10327
275 0.115106
280 0.115158
285 0.159087
290 0.137537
295 0.104964
300 0.101116
305 0.132139
310 0.129823
315 0.118836
320 0.167374
325 0.143165
330 0.117108
335 0.122137
340 0.124728
345 0.181933
350 0.143181
355 0.141872
360 0.125669
365 0.113379
370 0.142937
375 0.158531
380 0.116907
385 0.142676
390 0.126568
395 0.158189
400 0.178587
405 0.136935
410 0.147217
415 0.144705
420 0.217114
425 0.201761
430 0.211374
435 0.270194
440 0.238005
445 0.379417
450 0.611348
455 0.915949
460 32.4291
465 430.146
470 582.416
475 139.107
480 17.7361
485 3.86397
490 2.10866
495 1.93752
500 2.22336
505 2.36863
510 2.34826
515 2.15711
520 1.97208
525 1.89963
530 2.13591
535 2.0897
540 3.08268
545 3.51553
550 2.50733
555 1.89752
560 1.76524
565 1.6261
570 1.20099
575 0.970647
580 0.834472
585 0.591204
590 0.531903
595 0.442711
600 0.621747
Ex : 478
200 0.175635
205 0.131823
210 0.147186
215 0.124303
220 0.124051
225 0.0726323
230 0.13033
235 0.122707
240 0.131215
245 0.11831
250 0.105793
255 0.120757
260 0.12034
265 0.139994
270 0.146905
275 0.127427
280 0.157624
285 0.107844
290 0.108231
295 0.144009
300 0.1153
305 0.188897
310 0.173391
315 0.141152
320 0.131063
325 0.164074
330 0.150255
335 0.129456
340 0.13554
345 0.10409
350 0.179244
355 0.146048
360 0.156007
365 0.13153
370 0.169667
375 0.168581
380 0.173956
385 0.136704
390 0.105387
395 0.171757
400 0.144744
405 0.19755
410 0.236656
415 0.210531
420 0.184414
425 0.262753
430 0.267317
435 0.225587
440 0.246205
445 0.339865
450 0.387978
455 0.62698
460 0.949181
465 34.0936
470 427.3
475 582.782
480 146.745
485 18.638
490 3.75567
495 2.03237
500 1.78713
505 1.89659
510 2.04863
515 2.02239
520 1.80004
525 1.75246
530 1.90964
535 1.72435
540 1.78529
545 2.49754
550 3.15178
555 2.67901
560 1.90152
565 1.71765
570 1.36509
575 1.13816
580 0.755568
585 0.589933
590 0.523602
595 0.513931
600 0.0740856
Ex : 483
200 0.140928
205 0.130775
210 0.183371
215 0.114483
220 0.143701
225 0.116673
230 0.149391
235 0.127365
240 0.123553
245 0.0855629
250 0.119587
255 0.133179
260 0.129009
265 0.122302
270 0.136263
275 0.122977
280 0.137839
285 0.148654
290 0.126454
295 0.191586
300 0.131428
305 0.142462
310 0.153183
315 0.213048
320 0.132132
325 0.177579
330 0.150986
335 0.10488
340 0.121571
345 0.137414
350 0.19137
355 0.147303
360 0.153285
365 0.160561
370 0.180107
375 0.218619
380 0.170069
385 0.197445
390 0.214645
395 0.169848
400 0.170178
405 0.142165
410 0.191866
415 0.217128
420 0.202129
425 0.239411
430 0.238281
435 0.218735
440 0.212155
445 0.28865
450 0.347872
455 0.386604
460 0.689729
465 1.02535
470 26.1294
475 454.422
480 679.948
485 166.428
490 20.8126
495 3.80943
500 1.93923
505 1.54768
510 1.74573
515 2.06513
520 1.90817
525 1.78741
530 1.8347
535 1.62942
540 1.71642
545 1.57768
550 1.71977
555 2.59701
560 2.68917
565 1.80323
570 1.29631
575 1.11073
580 1.02875
585 0.644152
590 0.49937
595 0.454708
600 0.928586
Ex : 488
200 0.124515
205 0.159038
210 0.156249
215 0.113056
220 0.115495
225 0.143778
230 0.164755
235 0.141143
240 0.122574
245 0.114635
250 0.144176
255 0.140365
260 0.176418
265 0.11738
270 0.176458
275 0.130609
280 0.127877
285 0.166674
290 0.155141
295 0.22902
300 0.178901
305 0.175143
310 0.130358
315 0.14041
320 0.198444
325 0.219771
330 0.164875
335 0.178722
340 0.156177
345 0.128558
350 0.167902
355 0.156844
360 0.155229
365 0.157826
370 0.142415
375 0.163098
380 0.176109
385 0.173739
390 0.126852
395 0.146559
400 0.198415
405 0.204774
410 0.192103
415 0.186254
420 0.170382
425 0.20358
430 0.198933
435 0.166074
440 0.261147
445 0.312279
450 0.235466
455 0.436421
460 0.431732
465 0.761963
470 1.06892
475 31.8641
480 442.417
485 614.818
490 155.578
495 19.2825
500 3.54024
505 1.89751
510 1.60889
515 1.70247
520 1.83245
525 1.83654
530 1.67648
535 1.4816
540 1.41434
545 1.57974
550 1.44362
555 1.48428
560 2.13476
565 2.57787
570 1.65283
575 1.08645
580 0.881505
585 0.879247
590 0.591481
595 0.457931
600 0.808792
Ex : 493
200 0.148152
205 0.154936
210 0.136637
215 0.182955
220 0.119954
225 0.15403
230 0.104399
235 0.153422
240 0.12505
245 0.110027
250 0.176747
255 0.137014
260 0.0984618
265 0.0948056
270 0.139305
275 0.199938
280 0.107859
285 0.184811
290 0.193114
295 0.185019
300 0.106361
305 0.11861
310 0.186954
315 0.171403
320 0.171278
325 0.159015
330 0.128267
335 0.115169
340 0.151386
345 0.134031
350 0.109863
355 0.166511
360 0.142626
365 0.177602
370 0.200983
375 0.197158
380 0.210453
385 0.21575
390 0.186376
395 0.154711
400 0.161839
405 0.153742
410 0.159928
415 0.243041
420 0.182253
425 0.21666
430 0.180188
435 0.204951
440 0.207555
445 0.242682
450 0.217785
455 0.258934
460 0.426227
465 0.486633
470 0.602492
475 0.881485
480 27.9168
485 427.388
490 638.367
495 157.584
500 19.498
505 3.61406
510 1.78781
515 1.4474
520 1.5971
525 1.76196
530 1.66395
535 1.54694
540 1.46864
545 1.31921
550 1.28005
555 1.31537
560 1.33023
565 1.48834
570 1.95897
575 1.69626
580 0.981145
585 0.85408
590 0.770222
595 0.568304
600 0.815058
Ex : 498
200 0.200723
205 0.153911
210 0.215283
215 0.186332
220 0.136142
225 0.139201
230 0.153053
235 0.115373
240 0.182191
245 0.20344
250 0.147356
255 0.149825
260 0.132443
265 0.172042
270 0.173591
275 0.144796
280 0.231129
285 0.155665
290 0.206144
295 0.15674
300 0.166498
305 0.163738
310 0.171588
315 0.143021
320 0.231369
325 0.164231
330 0.181283
335 0.150495
340 0.151251
345 0.155608
350 0.215508
355 0.168725
360 0.159925
365 0.205797
370 0.163816
375 0.180916
380 0.150941
385 0.166248
390 0.229731
395 0.174781
400 0.214266
405 0.182878
410 0.203597
415 0.23643
420 0.232477
425 0.196931
430 0.193556
435 0.237379
440 0.222091
445 0.255638
450 0.2727
455 0.33141
460 0.316289
465 0.428117
470 0.460875
475 0.592429
480 0.895043
485 33.4852
490 448.064
495 609.221
500 146.674
505 18.1559
510 3.46009
515 1.64122
520 1.48219
525 1.58733
530 1.73394
535 1.71112
540 1.52488
545 1.36828
550 1.34661
555 1.35974
560 1.08402
565 1.02509
570 1.08532
575 1.56641
580 1.4355
585 0.973169
590 0.75133
595 0.60558
600 0.61255
Ex : 503
200 0.146723
205 0.187885
210 0.20949
215 0.182595
220 0.190424
225 0.212182
230 0.176302
235 0.14395
240 0.135756
245 0.233903
250 0.153109
255 0.226059
260 0.130748
265 0.165155
270 0.150468
275 0.171423
280 0.182097
285 0.165523
290 0.219097
295 0.183493
300 0.199529
305 0.168267
310 0.131078
315 0.129569
320 0.173672
325 0.129389
330 0.124496
335 0.265636
340 0.205467
345 0.136526
350 0.138798
355 0.20108
360 0.195471
365 0.176449
370 0.263602
375 0.130043
380 0.212736
385 0.218313
390 0.172305
395 0.151478
400 0.197963
405 0.231124
410 0.15456
415 0.16183
420 0.138807
425 0.199885
430 0.251546
435 0.215708
440 0.201465
445 0.202237
450 0.22997
455 0.329422
460 0.292898
465 0.358898
470 0.374235
475 0.456943
480 0.650203
485 0.884587
490 30.4759
495 440.633
500 618.061
505 152.468
510 19.0994
515 3.46271
520 1.86482
525 1.42071
530 1.42343
535 1.54372
540 1.62006
545 1.45082
550 1.30746
555 1.21988
560 1.16867
565 1.14783
570 0.957055
575 0.927294
580 1.03069
585 1.24582
590 0.957142
595 0.514407
600 1.03969
Ex : 508
200 0.186817
205 0.214704
210 0.225964
215 0.18287
220 0.290279
225 0.199159
230 0.300887
235 0.0925959
240 0.134828
245 0.158247
250 0.164068
255 0.199734
260 0.239361
265 0.175022
270 0.140334
275 0.194481
280 0.204339
285 0.11423
290 0.173511
295 0.210846
300 0.156626
305 0.109243
310 0.120464
315 0.206507
320 0.213689
325 0.13264
330 0.144621
335 0.20482
340 0.171764
345 0.154001
350 0.188467
355 0.172608
360 0.196606
365 0.20375
370 0.168695
375 0.169489
380 0.135859
385 0.155904
390 0.227853
395 0.174947
400 0.161366
405 0.202762
410 0.164038
415 0.207489
420 0.182176
425 0.263979
430 0.217158
435 0.345241
440 0.229882
445 0.2658
450 0.260877
455 0.206356
460 0.303789
465 0.388912
470 0.323865
475 0.344611
480 0.385248
485 0.647881
490 0.916049
495 31.6709
500 433.595
505 607.379
510 156.68
515 19.3074
520 3.45941
525 1.71308
530 1.32074
535 1.33187
540 1.48496
545 1.52549
550 1.24243
555 1.22036
560 1.12547
565 0.900658
570 0.944611
575 0.897627
580 0.660017
585 0.767586
590 0.924122
595 0.878376
600 0.990282
Ex : 513
200 0.142581
205 0.231829
210 0.113885
215 0.207896
220 0.207518
225 0.169672
230 0.161884
235 0.183328
240 0.157389
245 0.192899
250 0.127507
255 0.140705
260 0.21183
265 0.218663
270 0.189727
275 0.162388
280 0.153652
285 0.22062
290 0.173497
295 0.232424
300 0.149027
305 0.146366
310 0.214341
315 0.153299
320 0.145583
325 0.191481
330 0.205806
335 0.197592
340 0.207598
345 0.170693
350 0.216823
355 0.144903
360 0.207161
365 0.15625
370 0.152305
375 0.184658
380 0.186416
385 0.245765
390 0.242653
395 0.221719
400 0.192493
405 0.213442
410 0.170428
415 0.16607
420 0.198228
425 0.187297
430 0.258927
435 0.192659
440 0.215765
445 0.197948
450 0.229974
455 0.253287
460 0.278488
465 0.331113
470 0.314801
475 0.396805
480 0.300679
485 0.429665
490 0.615437
495 1.08491
500 30.7274
505 443.103
510 631.022
515 158.304
520 19.6428
525 3.37702
530 1.64767
535 1.30886
540 1.26711
545 1.28146
550 1.47849
555 1.29632
560 1.02076
565 0.777146
570 0.807241
575 0.722005
580 0.671477
585 0.495285
590 0.652424
595 0.762204
600 1.32742
Ex : 518
200 0.147376
205 0.196417
210 0.198961
215 0.176128
220 0.224607
225 0.133554
230 0.237145
235 0.213821
240 0.281529
245 0.169273
250 0.0934782
255 0.155943
260 0.204874
265 0.207316
270 0.226397
275 0.227922
280 0.152552
285 0.219066
290 0.169332
295 0.173674
300 0.2198
305 0.20949
310 0.180179
315 0.243131
320 0.176675
325 0.123014
330 0.196658
335 0.21219
340 0.227915
345 0.220125
350 0.263046
355 0.199726
360 0.163708
365 0.170187
370 0.164747
375 0.222941
380 0.193237
385 0.188835
390 0.193415
395 0.202868
400 0.234741
405 0.175337
410 0.348053
415 0.242171
420 0.269078
425 0.206141
430 0.217424
435 0.252785
440 0.248625
445 0.285249
450 0.219273
455 0.232997
460 0.268026
465 0.267936
470 0.226853
475 0.246684
480 0.325601
485 0.405272
490 0.484348
495 0.593698
500 0.943112
505 29.3093
510 413.646
515 597.037
520 152.575
525 18.9646
530 3.41852
535 1.54474
540 1.27883
545 1.18245
550 1.382
555 1.08546
560 1.16233
565 1.00235
570 0.752512
575 0.789706
580 0.47592
585 0.471975
590 0.431197
595 0.401701
600 0.045712
Ex : 523
200 0.193416
205 0.19016
210 0.194705
215 0.146094
220 0.134893
225 0.132637
230 0.192859
235 0.17137
240 0.155194
245 0.260862
250 0.157011
255 0.144127
260 0.222841
265 0.182925
270 0.16511
275 0.168312
280 0.234877
285 0.220743
290 0.160754
295 0.166843
300 0.136125
305 0.127536
310 0.199995
315 0.207478
320 0.168178
325 0.215543
330 0.166942
335 0.241732
340 0.293972
345 0.208316
350 0.17716
355 0.194588
360 0.193628
365 0.246186
370 0.171928
375 0.225694
380 0.174591
385 0.214939
390 0.238688
395 0.213306
400 0.253462
405 0.21931
410 0.227626
415 0.187996
420 0.200031
425 0.180183
430 0.249012
435 0.276781
440 0.195996
445 0.254724
450 0.197454
455 0.275175
460 0.270132
465 0.246942
470 0.228836
475 0.262952
480 0.241702
485 0.290517
490 0.454407
495 0.375244
500 0.633252
505 1.00099
510 31.1642
515 443.033
520 611.007
525 160.772
530 19.8388
535 3.49426
540 1.63609
545 1.22545
550 1.15277
555 1.13229
560 1.08215
565 1.01623
570 0.804194
575 0.650897
580 0.5479
585 0.474567
590 0.535528
595 0.533908
600 0.606801
Ex : 528
200 0.164045
205 0.243214
210 0.136382
215 0.185657
220 0.189753
225 0.205981
230 0.137411
235 0.186729
240 0.106932
245 0.152019
250 0.208031
255 0.22486
260 0.224132
265 0.158866
270 0.175673
275 0.177249
280 0.109637
285 0.207466
290 0.156484
295 0.134111
300 0.133666
305 0.255473
310 0.199182
315 0.179068
320 0.228307
325 0.203421
330 0.183857
335 0.17028
340 0.173737
345 0.220599
350 0.164797
355 0.19038
360 0.247988
365 0.191074
370 0.188457
375 0.229801
380 0.216709
385 0.301119
390 0.194137
395 0.184663
400 0.24899
405 0.237121
410 0.246519
415 0.184068
420 0.267566
425 0.268956
430 0.32567
435 0.241611
440 0.266865
445 0.218216
450 0.180088
455 0.257764
460 0.213371
465 0.287822
470 0.305603
475 0.325679
480 0.33562
485 0.301258
490 0.306222
495 0.342303
500 0.479277
505 0.688162
510 0.937198
515 27.4217
520 481.919
525 610.03
530 154.139
535 18.9842
540 3.21068
545 1.55292
550 1.03479
555 0.886705
560 0.944071
565 1.06459
570 0.769974
575 0.718237
580 0.618614
585 0.547411
590 0.416374
595 0.45323
600 0.573144
Ex : 533
200 0.246253
205 0.234342
210 0.140601
215 0.220967
220 0.17198
225 0.173688
230 0.229802
235 0.217911
240 0.168999
245 0.178267
250 0.195897
255 0.161063
260 0.261963
265 0.162461
270 0.156763
275 0.240923
280 0.173718
285 0.150811
290 0.180893
295 0.202606
300 0.185291
305 0.24567
310 0.174564
315 0.185286
320 0.167828
325 0.222831
330 0.220017
335 0.135682
340 0.176005
345 0.179644
350 0.168028
355 0.136304
360 0.225444
365 0.236815
370 0.215564
375 0.218254
380 0.204422
385 0.172599
390 0.196376
395 0.221999
400 0.183972
405 0.186289
410 0.270787
415 0.262188
420 0.219564
425 0.245465
430 0.270646
435 0.293828
440 0.279955
445 0.22955
450 0.194082
455 0.201013
460 0.297074
465 0.290698
470 0.288381
475 0.263865
480 0.304281
485 0.315129
490 0.298796
495 0.35192
500 0.434567
505 0.448463
510 0.612985
515 0.932076
520 25.0552
525 374.992
530 588.667
535 160.518
540 19.7579
545 3.18699
550 1.45726
555 0.990153
560 0.980338
565 0.820637
570 0.770677
575 0.751576
580 0.505653
585 0.604443
590 0.49968
595 0.465994
600 0.0530284
Ex : 538
200 0.165205
205 0.297277
210 0.169986
215 0.197417
220 0.164782
225 0.179685
230 0.163711
235 0.215774
240 0.161378
245 0.174107
250 0.151304
255 0.191997
260 0.16836
265 0.250704
270 0.159505
275 0.202896
280 0.205819
285 0.215466
290 0.196519
295 0.179689
300 0.191665
305 0.16358
310 0.167108
315 0.186018
320 0.150943
325 0.202306
330 0.169762
335 0.186307
340 0.184534
345 0.207643
350 0.209986
355 0.238438
360 0.245387
365 0.22256
370 0.224431
375 0.186119
380 0.20533
385 0.214464
390 0.184794
395 0.163733
400 0.316643
405 0.296381
410 0.275548
415 0.178406
420 0.222998
425 0.226064
430 0.232654
435 0.317464
440 0.291407
445 0.281835
450 0.238924
455 0.183919
460 0.242748
465 0.334983
470 0.259997
475 0.332737
480 0.335912
485 0.253676
490 0.235431
495 0.269953
500 0.331239
505 0.476821
510 0.529593
515 0.524824
520 0.92038
525 24.8013
530 397.204
535 580.826
540 161.805
545 19.8571
550 3.1933
555 1.24994
560 0.885051
565 0.698656
570 0.634077
575 0.598494
580 0.640721
585 0.61623
590 0.446735
595 0.399324
600 0.616217
Ex : 543
200 0.172959
205 0.228636
210 0.203452
215 0.189619
220 0.204017
225 0.180419
230 0.163672
235 0.254776
240 0.186367
245 0.189695
250 0.213496
255 0.275068
260 0.209367
265 0.182371
270 0.230967
275 0.213186
280 0.278348
285 0.190939
290 0.290249
295 0.208273
300 0.15743
305 0.212739
310 0.159713
315 0.190226
320 0.115398
325 0.170894
330 0.278659
335 0.187771
340 0.209764
345 0.200576
350 0.210521
355 0.275214
360 0.203507
365 0.231992
370 0.1619
375 0.206766
380 0.278573
385 0.317757
390 0.219031
395 0.195204
400 0.17585
405 0.202712
410 0.224593
415 0.155531
420 0.2043
425 0.287689
430 0.21923
435 0.211529
440 0.285672
445 0.210753
450 0.272484
455 0.245683
460 0.251028
465 0.210837
470 0.320735
475 0.305167
480 0.447852
485 0.30237
490 0.375602
495 0.267294
500 0.266924
505 0.374335
510 0.457771
515 0.400555
520 0.532356
525 0.876038
530 20.7489
535 349.825
540 577.517
545 161.027
550 19.752
555 3.1065
560 1.05196
565 0.745805
570 0.672558
575 0.585425
580 0.410266
585 0.521046
590 0.409729
595 0.374376
600 0.0979903
Ex : 548
200 0.192872
205 0.27212
210 0.179977
215 0.28419
220 0.161805
225 0.250085
230 0.177249
235 0.141238
240 0.213131
245 0.194241
250 0.236348
255 0.262026
260 0.262437
265 0.219801
270 0.201128
275 0.262074
280 0.199911
285 0.200465
290 0.191571
295 0.145819
300 0.199423
305 0.174425
310 0.215348
315 0.20102
320 0.2153
325 0.21166
330 0.210655
335 0.185904
340 0.189713
345 0.219786
350 0.243276
355 0.268968
360 0.348402
365 0.244396
370 0.395389
375 0.242219
380 0.214047
385 0.245846
390 0.215639
395 0.15437
400 0.242492
405 0.240334
410 0.202212
415 0.258335
420 0.253387
425 0.205627
430 0.287479
435 0.321962
440 0.24567
445 0.240355
450 0.210618
455 0.234879
460 0.312051
465 0.245655
470 0.266827
475 0.249251
480 0.354427
485 0.269276
490 0.335291
495 0.327497
500 0.376114
505 0.267335
510 0.336992
515 0.360991
520 0.456343
525 0.500733
530 0.75659
535 22.8577
540 353.047
545 537.266
550 154.063
555 18.7891
560 2.85608
565 0.930855
570 0.683348
575 0.583843
580 0.404726
585 0.466081
590 0.567994
595 0.439874
600 0.589034
Ex : 553
200 0.166715
205 0.192737
210 0.245608
215 0.2559
220 0.204019
225 0.203999
230 0.251356
235 0.201628
240 0.16003
245 0.168589
250 0.271509
255 0.187217
260 0.239798
265 0.178096
270 0.201188
275 0.204341
280 0.178517
285 0.18593
290 0.19547
295 0.212301
300 0.225704
305 0.21272
310 0.23927
315 0.200783
320 0.187996
325 0.192451
330 0.175341
335 0.194879
340 0.148759
345 0.280276
350 0.203002
355 0.221187
360 0.17851
365 0.22757
370 0.227435
375 0.233004
380 0.257827
385 0.265025
390 0.217593
395 0.26068
400 0.190945
405 0.25799
410 0.224671
415 0.235863
420 0.254652
425 0.237019
430 0.290634
435 0.256485
440 0.36058
445 0.295354
450 0.212734
455 0.283148
460 0.237173
465 0.215755
470 0.206608
475 0.215182
480 0.324514
485 0.271224
490 0.273233
495 0.304896
500 0.27565
505 0.252019
510 0.336153
515 0.369307
520 0.45356
525 0.429232
530 0.485328
535 0.779987
540 17.3292
545 312.03
550 521.204
555 153.066
560 18.8055
565 2.852
570 0.953503
575 0.511793
580 0.512316
585 0.353187
590 0.371603
595 0.347949
600 0.0395953
Ex : 558
200 0.145708
205 0.160757
210 0.208616
215 0.23517
220 0.296476
225 0.189224
230 0.303117
235 0.170435
240 0.200851
245 0.252145
250 0.238813
255 0.20323
260 0.263651
265 0.223139
270 0.163246
275 0.161988
280 0.156199
285 0.208235
290 0.195599
295 0.310285
300 0.24166
305 0.227223
310 0.206565
315 0.256697
320 0.174941
325 0.196592
330 0.227348
335 0.179538
340 0.249056
345 0.187667
350 0.185497
355 0.209244
360 0.24188
365 0.235848
370 0.212493
375 0.273326
380 0.257591
385 0.248085
390 0.240936
395 0.275835
400 0.438934
405 0.328725
410 0.265296
415 0.204232
420 0.23728
425 0.201287
430 0.292982
435 0.25838
440 0.375468
445 0.247959
450 0.228507
455 0.199063
460 0.208446
465 0.283608
470 0.219915
475 0.306831
480 0.266094
485 0.230216
490 0.265841
495 0.312894
500 0.24123
505 0.298963
510 0.272782
515 0.356919
520 0.462124
525 0.39205
530 0.491157
535 0.593045
540 0.731277
545 16.5516
550 295.001
555 514.721
560 150.798
565 18.3277
570 2.6754
575 0.789553
580 0.524126
585 0.434066
590 0.316707
595 0.424868
600 0.0483484
Ex : 563
200 0.183599
205 0.302308
210 0.18026
215 0.198493
220 0.193528
225 0.235216
230 0.203484
235 0.219285
240 0.274828
245 0.224414
250 0.222532
255 0.255747
260 0.191992
265 0.265544
270 0.216125
275 0.171249
280 0.215602
285 0.185032
290 0.269487
295 0.187514
300 0.18579
305 0.260483
310 0.230186
315 0.193758
320 0.262051
325 0.171329
330 0.218697
335 0.224859
340 0.199225
345 0.232284
350 0.217223
355 0.192172
360 0.218666
365 0.175052
370 0.308512
375 0.220595
380 0.320275
385 0.442919
390 0.319231
395 0.267742
400 0.325915
405 0.293313
410 0.264829
415 0.226249
420 0.278321
425 0.234225
430 0.342744
435 0.18454
440 0.269082
445 0.234331
450 0.295473
455 0.300142
460 0.191044
465 0.260244
470 0.277076
475 0.285412
480 0.281561
485 0.280156
490 0.203947
495 0.268845
500 0.274378
505 0.289117
510 0.259311
515 0.347253
520 0.299251
525 0.38984
530 0.435766
535 0.427158
540 0.570363
545 0.808588
550 17.0737
555 332.475
560 538.82
565 163.693
570 19.8202
575 2.83671
580 0.799067
585 0.600655
590 0.413093
595 0.371259
600 0.395571
Ex : 568
200 0.234609
205 0.29816
210 0.253472
215 0.286156
220 0.244515
225 0.214616
230 0.208598
235 0.196356
240 0.1836
245 0.234173
250 0.224315
255 0.25588
260 0.224786
265 0.237716
270 0.179359
275 0.185492
280 0.251787
285 0.194394
290 0.238928
295 0.328339
300 0.263079
305 0.193197
310 0.183559
315 0.197111
320 0.304379
325 0.23622
330 0.311894
335 0.271476
340 0.257544
345 0.157315
350 0.213725
355 0.213839
360 0.224671
365 0.241597
370 0.198155
375 0.205292
380 0.247135
385 0.279898
390 0.242416
395 0.335641
400 0.240526
405 0.244208
410 0.303379
415 0.226523
420 0.235114
425 0.277042
430 0.356872
435 0.228657
440 0.284826
445 0.188269
450 0.267866
455 0.278748
460 0.24957
465 0.355462
470 0.281359
475 0.285679
480 0.308167
485 0.372374
490 0.312531
495 0.206984
500 0.311366
505 0.332102
510 0.290187
515 0.300205
520 0.337523
525 0.356094
530 0.321364
535 0.345576
540 0.525725
545 0.525308
550 0.89137
555 12.7489
560 259.362
565 466.584
570 157.837
575 19.2194
580 2.74848
585 0.755657
590 0.528528
595 0.353809
600 0.0402621
Ex : 573
200 0.153424
205 0.235682
210 0.241212
215 0.167864
220 0.192899
225 0.214208
230 0.197529
235 0.218623
240 0.188648
245 0.248167
250 0.279619
255 0.223271
260 0.26569
265 0.269929
270 0.301104
275 0.247548
280 0.182475
285 0.241481
290 0.174334
295 0.27428
300 0.24681
305 0.16399
310 0.214139
315 0.11146
320 0.1649
325 0.26258
330 0.248467
335 0.31616
340 0.277564
345 0.143448
350 0.186943
355 0.215526
360 0.220701
365 0.298503
370 0.220194
375 0.260039
380 0.171095
385 0.209835
390 0.259824
395 0.210925
400 0.216256
405 0.251785
410 0.253706
415 0.301705
420 0.244311
425 0.312995
430 0.209082
435 0.240186
440 0.301062
445 0.299176
450 0.293952
455 0.324997
460 0.318984
465 0.410564
470 0.229038
475 0.249279
480 0.316362
485 0.384993
490 0.287386
495 0.328105
500 0.30697
505 0.269357
510 0.335515
515 0.295904
520 0.23362
525 0.28984
530 0.356298
535 0.317212
540 0.31717
545 0.48339
550 0.531469
555 0.774527
560 10.4742
565 227.424
570 455.641
575 154.767
580 18.7154
585 2.58647
590 0.666081
595 0.428428
600 0.312219
Ex : 578
200 0.135027
205 0.237028
210 0.229137
215 0.306866
220 0.252019
225 0.189672
230 0.136393
235 0.193983
240 0.324986
245 0.369141
250 0.205333
255 0.370556
260 0.243233
265 0.382877
270 0.300754
275 0.337298
280 0.197324
285 0.275912
290 0.282566
295 0.289464
300 0.3717
305 0.25245
310 0.216082
315 0.271405
320 0.204721
325 0.162449
330 0.179614
335 0.145722
340 0.175852
345 0.202198
350 0.202511
355 0.298888
360 0.232321
365 0.304307
370 0.223967
375 0.277562
380 0.304551
385 0.278664
390 0.283665
395 0.235071
400 0.327421
405 0.287074
410 0.219151
415 0.347505
420 0.240671
425 0.313005
430 0.316167
435 0.224124
440 0.295516
445 0.287126
450 0.285726
455 0.339432
460 0.21777
465 0.274138
470 0.281101
475 0.389858
480 0.361526
485 0.29781
490 0.26539
495 0.329509
500 0.252258
505 0.268899
510 0.26331
515 0.300544
520 0.288334
525 0.285397
530 0.182158
535 0.294311
540 0.319431
545 0.332936
550 0.355086
555 0.558979
560 0.68091
565 10.3934
570 223.345
575 442.921
580 151.302
585 18.2052
590 2.57124
595 0.585471
600 0.10407
Ex : 583
200 0.134718
205 0.220145
210 0.324745
215 0.296261
220 0.223396
225 0.115238
230 0.197675
235 0.245688
240 0.37132
245 0.188045
250 0.245364
255 0.205499
260 0.276891
265 0.175796
270 0.268013
275 0.182415
280 0.302843
285 0.192386
290 0.253454
295 0.219736
300 0.223051
305 0.198281
310 0.239877
315 0.256884
320 0.249635
325 0.199394
330 0.235842
335 0.233558
340 0.293697
345 0.19147
350 0.331093
355 0.305343
360 0.231187
365 0.190488
370 0.19066
375 0.334582
380 0.221538
385 0.278455
390 0.289262
395 0.240036
400 0.264595
405 0.262251
410 0.263764
415 0.266847
420 0.270132
425 0.259537
430 0.341599
435 0.354687
440 0.273121
445 0.235589
450 0.258278
455 0.258241
460 0.277292
465 0.181455
470 0.258093
475 0.244041
480 0.341268
485 0.371562
490 0.308036
495 0.227339
500 0.170613
505 0.219901
510 0.187967
515 0.233395
520 0.175182
525 0.256164
530 0.242479
535 0.286076
540 0.367767
545 0.355115
550 0.467624
555 0.392399
560 0.409077
565 0.532218
570 8.41297
575 183.555
580 330.444
585 101.896
590 12.3895
595 1.80999
600 0.475684
Ex : 588
200 0.338442
205 0.344619
210 0.162432
215 0.376487
220 0.285844
225 0.212867
230 0.244149
235 0.332455
240 0.252545
245 0.228859
250 0.195309
255 0.208287
260 0.259245
265 0.211444
270 0.148178
275 0.228777
280 0.253571
285 0.220471
290 0.249201
295 0.159765
300 0.334603
305 0.348739
310 0.300464
315 0.158494
320 0.276164
325 0.24727
330 0.151414
335 0.198614
340 0.236114
345 0.281435
350 0.20791
355 0.184486
360 0.214502
365 0.312516
370 0.248929
375 0.28304
380 0.231439
385 0.282629
390 0.2612
395 0.346948
400 0.236345
405 0.314142
410 0.234036
415 0.270125
420 0.197675
425 0.300007
430 0.324977
435 0.297517
440 0.19235
445 0.291843
450 0.236272
455 0.376542
460 0.290425
465 0.273405
470 0.286526
475 0.286417
480 0.268946
485 0.296434
490 0.303908
495 0.223922
500 0.241421
505 0.24298
510 0.257471
515 0.268263
520 0.274817
525 0.383885
530 0.32161
535 0.372995
540 0.250862
545 0.337776
550 0.265259
555 0.324691
560 0.43548
565 0.340366
570 0.607467
575 7.27688
580 149.97
585 301.535
590 93.5623
595 11.3935
600 1.72323
Ex : 593
200 0.22308
205 0.256663
210 0.296158
215 0.297185
220 0.259083
225 0.253086
230 0.234337
235 0.293653
240 0.210128
245 0.241585
250 0.300004
255 0.359119
260 0.267289
265 0.191919
270 0.278034
275 0.324022
280 0.315802
285 0.321372
290 0.301871
295 0.276297
300 0.246893
305 0.262406
310 0.340156
315 0.254621
320 0.219312
325 0.283138
330 0.226144
335 0.195897
340 0.307391
345 0.341622
350 0.261043
355 0.366813
360 0.250309
365 0.244672
370 0.262387
375 0.301738
380 0.271554
385 0.325425
390 0.344457
395 0.291904
400 0.253695
405 0.243298
410 0.375521
415 0.297083
420 0.244674
425 0.271144
430 0.227014
435 0.392925
440 0.366594
445 0.314573
450 0.239335
455 0.235997
460 0.364709
465 0.473765
470 0.283347
475 0.253055
480 0.432624
485 0.284178
490 0.259291
495 0.269307
500 0.211922
505 0.280999
510 0.325386
515 0.323314
520 0.284055
525 0.3269
530 0.265712
535 0.192237
540 0.317057
545 0.334899
550 0.247146
555 0.375781
560 0.3107
565 0.295704
570 0.34909
575 0.638431
580 6.66626
585 133.26
590 246.642
595 79.327
600 14.436
Ex : 598
200 0.312766
205 0.292051
210 0.193544
215 0.21221
220 0.224612
225 0.238713
230 0.223507
235 0.20536
240 0.281426
245 0.27234
250 0.187929
255 0.282987
260 0.186797
265 0.206035
270 0.400319
275 0.229545
280 0.265636
285 0.299273
290 0.31146
295 0.248111
300 0.297362
305 0.315711
310 0.230426
315 0.303767
320 0.257623
325 0.249831
330 0.229911
335 0.281965
340 0.238193
345 0.259473
350 0.242975
355 0.260825
360 0.305076
365 0.179276
370 0.233138
375 0.342884
380 0.433464
385 0.269798
390 0.394096
395 0.256953
400 0.317844
405 0.329023
410 0.324378
415 0.207596
420 0.187607
425 0.242252
430 0.279904
435 0.284158
440 0.28323
445 0.340543
450 0.254925
455 0.318986
460 0.266633
465 0.296464
470 0.28343
475 0.266832
480 0.226146
485 0.290397
490 0.23229
495 0.248461
500 0.244299
505 0.339795
510 0.243496
515 0.332895
520 0.321509
525 0.352915
530 0.321969
535 0.378968
540 0.297714
545 0.336999
550 0.334674
555 0.357645
560 0.449662
565 0.516574
570 0.324127
575 0.429967
580 0.469091
585 6.32246
590 122.268
595 215.078
600 136.708
Ex : 603
200 0.227181
205 0.238513
210 0.379864
215 0.287037
220 0.262135
225 0.270114
230 0.175773
235 0.30742
240 0.26492
245 0.391206
250 0.276053
255 0.289372
260 0.254526
265 0.225719
270 0.367459
275 0.257393
280 0.396193
285 0.287893
290 0.209136
295 0.276512
300 0.148529
305 0.366535
310 0.288278
315 0.323787
320 0.375339
325 0.261472
330 0.300137
335 0.254807
340 0.185979
345 0.293924
350 0.257698
355 0.336026
360 0.340981
365 0.233814
370 0.24462
375 0.26459
380 0.410299
385 0.263026
390 0.360615
395 0.354867
400 0.331816
405 0.255065
410 0.41692
415 0.317551
420 0.25944
425 0.223252
430 0.40216
435 0.323131
440 0.256077
445 0.297649
450 0.315804
455 0.258525
460 0.272227
465 0.230874
470 0.22849
475 0.237635
480 0.36703
485 0.344733
490 0.218702
495 0.269488
500 0.293418
505 0.252958
510 0.299319
515 0.345877
520 0.253612
525 0.299121
530 0.300369
535 0.341292
540 0.332314
545 0.285179
550 0.275749
555 0.427044
560 0.471946
565 0.292278
570 0.388976
575 0.350923
580 0.40465
585 0.360013
590 5.33614
595 102.346
600 195.426
