File format V 1.0
jeu. 12. janv. 19:50:26 2017
Operator : 
Comments : 

=============================================
SpectroFluorometer parameters
Mode : 3D measurement
Data : Fluorescence
Phospho. : Ordinary
Spectrum : Fluorescence

Scan speed : 2400 nm/mn
Response : 100 ms
PM Voltage : 700 V
Shutter : On

Lambda Ex. Start : 203
Lambda Ex. End : 603
Lambda Ex. Step : 5
Ex. Slit : 5 nm

Lambda Em. Start : 200
Lambda Em. End : 600
Lambda Em. Step : 5
Em. Slit : 5 nm

Repetition : 1
Decal lambda em : 10
=============================================
DATA
Ex : 203
200 10.5072
205 7.93908
210 7.36646
215 10.4862
220 10.1966
225 7.73756
230 9.5065
235 7.33232
240 8.15468
245 6.60716
250 7.00546
255 7.0303
260 8.6499
265 6.20308
270 8.91238
275 7.35801
280 6.82315
285 5.79018
290 7.98629
295 7.45734
300 9.17382
305 8.37879
310 6.03839
315 8.16136
320 8.53679
325 7.38894
330 7.9695
335 5.26196
340 6.46137
345 7.89842
350 10.4265
355 7.78975
360 6.13892
365 4.9203
370 9.09267
375 17.2818
380 10.7862
385 10.3567
390 8.05398
395 8.54557
400 7.75305
405 6.90845
410 6.33329
415 11.0329
420 5.49995
425 5.8885
430 7.31461
435 9.02003
440 7.87366
445 7.05702
450 7.45175
455 5.76471
460 7.12972
465 11.7527
470 6.89911
475 9.35456
480 6.49452
485 9.22863
490 7.27041
495 7.30314
500 8.82841
505 8.85682
510 8.6519
515 7.02311
520 8.64904
525 8.74413
530 7.66764
535 11.0151
540 8.19963
545 8.72257
550 8.56367
555 7.46439
560 7.51108
565 13.7345
570 9.60694
575 8.76945
580 6.86903
585 8.47204
590 7.65748
595 8.41453
600 0.957541
Ex : 208
200 6.48848
205 6.7637
210 8.77534
215 10.4123
220 10.8398
225 10.6656
230 11.0816
235 10.5259
240 8.37291
245 5.5484
250 9.95037
255 8.043
260 6.27065
265 8.07882
270 6.22396
275 11.4045
280 6.44724
285 6.07975
290 8.09706
295 4.97263
300 6.4269
305 7.93586
310 8.62699
315 7.26004
320 7.44688
325 7.95009
330 8.27209
335 8.01073
340 7.969
345 11.6043
350 7.67702
355 8.11025
360 10.2432
365 9.18949
370 6.55168
375 9.41161
380 7.17644
385 5.62147
390 7.71697
395 9.41639
400 7.68942
405 6.83827
410 7.56964
415 10.1896
420 8.89879
425 6.90947
430 9.56013
435 10.6113
440 5.87848
445 6.56323
450 5.54227
455 7.70352
460 7.09574
465 8.45098
470 6.17273
475 6.9658
480 7.37767
485 8.86364
490 8.47808
495 11.1217
500 7.26225
505 10.7788
510 6.09219
515 7.81331
520 10.5735
525 7.18192
530 10.0122
535 9.68886
540 7.52542
545 7.34464
550 7.73089
555 8.51839
560 8.17133
565 10.2082
570 6.44905
575 8.74607
580 5.17677
585 7.14528
590 5.20937
595 8.10403
600 7.79029
Ex : 213
200 6.57466
205 7.10774
210 6.39235
215 8.06604
220 6.08674
225 7.21108
230 7.49804
235 8.42778
240 12.6124
245 7.53882
250 8.46832
255 9.0399
260 6.21573
265 10.5241
270 7.32414
275 7.98579
280 7.35045
285 8.39186
290 10.0829
295 7.17705
300 6.75173
305 6.55281
310 6.88223
315 7.39989
320 6.70273
325 7.22054
330 4.76818
335 8.69824
340 6.85376
345 10.5589
350 7.90717
355 6.4772
360 11.1132
365 7.41449
370 7.11374
375 6.50886
380 7.45624
385 9.18648
390 8.43464
395 7.72452
400 10.649
405 8.4604
410 6.31851
415 8.20443
420 7.02472
425 4.68473
430 7.48897
435 8.36078
440 7.19607
445 6.93205
450 5.76685
455 8.48438
460 11.3656
465 7.32039
470 10.0413
475 9.07081
480 7.90882
485 10.3317
490 9.63123
495 11.0615
500 8.42024
505 7.45843
510 6.87755
515 9.22607
520 6.80386
525 6.71337
530 9.38208
535 9.40761
540 7.42028
545 7.61401
550 8.88468
555 9.02504
560 8.00437
565 6.61029
570 6.99241
575 5.43773
580 7.95869
585 11.5401
590 8.29208
595 8.99017
600 1.02305
Ex : 218
200 5.27074
205 5.8869
210 7.13623
215 6.00032
220 7.4391
225 8.92176
230 6.78372
235 6.06838
240 9.06178
245 5.59514
250 8.41607
255 6.92348
260 7.04099
265 5.96327
270 4.73202
275 5.64165
280 7.79744
285 7.53385
290 6.83218
295 6.13418
300 13.0842
305 7.88465
310 6.04528
315 10.0241
320 8.26659
325 8.77086
330 6.0023
335 9.25766
340 7.958
345 8.51146
350 5.94648
355 8.12944
360 7.3368
365 6.69347
370 8.53461
375 9.3606
380 7.87763
385 6.87636
390 5.95874
395 8.3396
400 8.10194
405 7.74453
410 5.96574
415 4.8747
420 11.9203
425 10.2678
430 8.95704
435 7.55186
440 6.06531
445 5.86463
450 7.12846
455 5.34694
460 8.98567
465 10.1883
470 9.43931
475 7.37556
480 8.76894
485 7.60904
490 8.40452
495 10.8786
500 7.86138
505 7.28437
510 7.21893
515 9.52005
520 6.63552
525 8.5372
530 7.26633
535 5.5919
540 8.91307
545 8.24185
550 6.65912
555 11.1665
560 9.99282
565 8.94438
570 6.75746
575 7.68607
580 9.24253
585 6.96707
590 10.1918
595 8.05713
600 17.9763
Ex : 223
200 7.86697
205 5.34639
210 7.38041
215 7.14539
220 6.44656
225 8.77729
230 8.06803
235 6.38035
240 7.24657
245 7.81623
250 5.94
255 6.50353
260 6.00587
265 8.26009
270 10.0147
275 7.20207
280 7.82422
285 6.30875
290 10.4907
295 6.38727
300 8.48012
305 7.82206
310 7.84442
315 7.37039
320 7.63855
325 6.52763
330 8.26515
335 9.74039
340 7.42607
345 9.21432
350 6.81909
355 9.23964
360 6.93432
365 6.38495
370 7.6148
375 6.67014
380 9.60451
385 12.8372
390 7.98877
395 8.30974
400 7.14492
405 9.36995
410 9.56504
415 7.20493
420 8.41535
425 10.2404
430 10.3597
435 7.1941
440 7.65893
445 6.99227
450 8.95975
455 6.74797
460 7.30415
465 9.64234
470 8.52585
475 8.12375
480 6.48227
485 8.11303
490 6.02188
495 9.25968
500 8.72453
505 6.87252
510 4.80342
515 6.75004
520 10.0833
525 6.82247
530 9.33087
535 7.91214
540 6.3294
545 9.07985
550 9.14107
555 6.88111
560 5.86107
565 5.01359
570 6.34995
575 9.19667
580 12.0062
585 8.03839
590 4.89495
595 5.15626
600 2.35917
Ex : 228
200 8.13992
205 6.5271
210 11.3811
215 6.08521
220 5.85145
225 8.99131
230 4.37518
235 7.84707
240 7.28378
245 5.59033
250 8.92849
255 9.35726
260 9.75767
265 7.72162
270 10.4287
275 8.19507
280 6.77495
285 8.23395
290 5.10759
295 6.29318
300 8.37294
305 5.98105
310 6.45851
315 7.11185
320 6.17104
325 4.70994
330 8.87767
335 7.09576
340 7.36081
345 9.81943
350 6.24888
355 7.76894
360 8.64311
365 8.86569
370 8.66282
375 8.94692
380 7.87497
385 6.34057
390 8.63545
395 7.66086
400 6.49261
405 7.33527
410 6.01348
415 8.69282
420 9.95854
425 9.36973
430 4.93465
435 5.63707
440 9.295
445 6.81998
450 7.49779
455 7.94285
460 6.76914
465 8.15533
470 5.37533
475 7.56899
480 9.25154
485 9.42467
490 7.05237
495 5.75182
500 7.68278
505 8.82594
510 7.79187
515 7.64088
520 6.69755
525 6.3556
530 7.39985
535 6.95648
540 8.12586
545 8.54761
550 6.08713
555 6.63959
560 7.85355
565 5.04609
570 7.88138
575 6.55188
580 7.99876
585 7.62586
590 7.86274
595 5.86604
600 2.43994
Ex : 233
200 5.04472
205 7.16521
210 5.85543
215 7.14127
220 6.46401
225 4.98003
230 6.50993
235 6.22186
240 8.02985
245 6.85209
250 6.21882
255 6.79218
260 7.53488
265 9.59899
270 7.79218
275 5.45029
280 7.37895
285 7.79749
290 9.89328
295 7.3146
300 6.46722
305 6.4574
310 8.95895
315 6.55039
320 7.86155
325 7.12758
330 6.47378
335 8.83387
340 11.7366
345 7.49752
350 9.08813
355 9.44328
360 8.1565
365 9.98204
370 5.84106
375 4.82616
380 8.77879
385 9.39577
390 6.01035
395 3.93459
400 6.02284
405 5.13961
410 6.56195
415 8.00276
420 7.30481
425 8.74722
430 9.93936
435 8.12914
440 7.07553
445 7.75027
450 8.30773
455 3.86043
460 7.9049
465 5.74464
470 5.82443
475 5.41607
480 6.94743
485 7.23008
490 6.92565
495 7.35799
500 9.49995
505 7.70388
510 8.37367
515 9.63248
520 8.83367
525 7.16417
530 7.64218
535 10.1994
540 6.98374
545 6.4594
550 4.94635
555 7.62333
560 9.94827
565 9.17866
570 6.99304
575 8.01305
580 6.80752
585 3.96429
590 5.02409
595 6.87196
600 1.2251
Ex : 238
200 6.8626
205 8.96465
210 5.11584
215 7.13386
220 4.60879
225 5.39345
230 5.72029
235 5.77086
240 6.07737
245 7.49043
250 9.17206
255 6.76786
260 5.23579
265 6.04356
270 6.64597
275 5.20816
280 7.88734
285 5.82706
290 4.9665
295 5.73829
300 9.04587
305 7.74887
310 8.28529
315 5.65811
320 4.3611
325 6.02397
330 7.50385
335 6.58537
340 5.18041
345 4.85306
350 7.49535
355 5.18778
360 6.51132
365 5.26415
370 9.22769
375 6.13716
380 4.74527
385 7.271
390 7.3993
395 6.67932
400 5.28581
405 6.75176
410 4.95702
415 6.3631
420 10.4443
425 7.66072
430 7.54737
435 7.06229
440 7.37495
445 4.8149
450 10.0357
455 7.45266
460 5.0273
465 7.67889
470 4.19955
475 6.6917
480 7.46596
485 5.49702
490 9.98584
495 5.99063
500 5.87545
505 6.65824
510 5.3381
515 6.55416
520 5.04531
525 6.66052
530 5.29888
535 5.54836
540 7.36165
545 5.77024
550 4.5573
555 5.07914
560 5.5951
565 8.54381
570 8.7406
575 7.86901
580 6.45019
585 6.75538
590 5.77649
595 4.46628
600 12.6935
Ex : 243
200 4.69792
205 7.64647
210 7.56934
215 6.96489
220 7.50469
225 5.38108
230 5.81271
235 4.17429
240 6.18982
245 5.92313
250 4.64824
255 6.38839
260 6.31639
265 6.11599
270 4.96503
275 4.70062
280 7.32494
285 4.37236
290 6.6466
295 4.92056
300 3.62054
305 5.12288
310 6.72668
315 5.19955
320 5.73677
325 3.93178
330 4.00446
335 6.08988
340 5.51271
345 4.93037
350 5.25978
355 6.36999
360 4.79956
365 6.21361
370 6.62126
375 5.66871
380 5.8255
385 5.38218
390 5.92969
395 5.19798
400 7.05798
405 5.80691
410 5.0802
415 5.28035
420 7.50824
425 6.52674
430 5.52065
435 5.23776
440 6.56177
445 5.64871
450 4.88327
455 5.71179
460 5.12073
465 5.8598
470 6.33914
475 7.20174
480 6.98181
485 5.22246
490 4.87241
495 4.33727
500 7.31335
505 7.97435
510 4.69726
515 10.6109
520 7.45105
525 4.80173
530 6.04207
535 4.95493
540 7.9702
545 5.80958
550 7.43628
555 4.17103
560 6.70502
565 6.65435
570 8.06235
575 8.2209
580 5.14886
585 6.6714
590 4.46835
595 4.07182
600 0.463358
Ex : 248
200 3.35398
205 5.26257
210 4.79392
215 3.79409
220 3.80259
225 4.80916
230 4.49925
235 5.13442
240 3.63337
245 4.34843
250 4.6031
255 6.07841
260 6.02744
265 6.89452
270 5.14373
275 5.86711
280 4.22619
285 4.1606
290 4.36098
295 4.37481
300 4.42558
305 3.39601
310 3.97637
315 5.27271
320 6.61471
325 4.25349
330 4.62146
335 4.78439
340 3.4892
345 3.68867
350 4.88837
355 5.55739
360 4.93683
365 4.62775
370 5.55944
375 4.12072
380 4.3506
385 3.41466
390 8.90395
395 3.90941
400 5.06246
405 4.73751
410 5.69979
415 4.09045
420 5.28543
425 8.87001
430 7.84311
435 4.93466
440 7.21071
445 5.04584
450 5.53853
455 5.25019
460 6.75752
465 6.32469
470 6.96922
475 3.71835
480 5.22475
485 3.85342
490 6.16536
495 5.95475
500 5.33154
505 5.31061
510 5.05479
515 5.90052
520 4.49239
525 4.72466
530 4.65701
535 4.31253
540 7.93374
545 3.98253
550 5.00494
555 6.37599
560 4.77913
565 4.97486
570 4.50109
575 4.90663
580 4.30557
585 4.57226
590 5.6023
595 5.88519
600 5.98693
Ex : 253
200 2.93915
205 5.72765
210 3.6549
215 3.28619
220 3.46388
225 5.33386
230 3.79731
235 6.36853
240 4.2424
245 3.21579
250 4.62382
255 3.46837
260 6.1227
265 4.02796
270 5.33603
275 6.09551
280 4.72947
285 3.40586
290 4.14198
295 4.3245
300 3.76246
305 3.79938
310 4.79158
315 4.96285
320 3.86134
325 3.14801
330 4.27887
335 4.54962
340 4.99192
345 4.34997
350 4.73308
355 4.18163
360 4.25525
365 4.21272
370 4.52157
375 3.91546
380 4.04251
385 3.77079
390 3.11703
395 3.00159
400 4.30194
405 3.18739
410 3.8483
415 3.92938
420 3.9989
425 5.64338
430 4.99956
435 4.1316
440 5.54122
445 6.19202
450 4.09471
455 4.46302
460 4.27835
465 4.58555
470 4.20297
475 4.98716
480 7.06561
485 4.48059
490 4.52063
495 3.89496
500 4.22138
505 3.78856
510 4.21427
515 3.81142
520 5.92911
525 4.6911
530 4.07864
535 4.36477
540 4.34966
545 5.20438
550 5.17172
555 5.56697
560 3.74207
565 4.77588
570 5.67031
575 5.21798
580 3.62496
585 6.05389
590 4.16045
595 4.40236
600 0.500971
Ex : 258
200 3.27926
205 3.61311
210 2.81991
215 3.67983
220 2.10107
225 3.8385
230 4.38078
235 3.77321
240 2.30791
245 2.06421
250 3.52785
255 4.06273
260 3.71545
265 2.52551
270 3.63916
275 3.55408
280 3.23917
285 3.29272
290 2.97281
295 3.96796
300 2.65418
305 3.57333
310 2.82929
315 3.10068
320 4.02771
325 2.843
330 2.83443
335 4.10838
340 3.54875
345 2.86715
350 3.30765
355 3.30656
360 3.08515
365 3.42651
370 4.52491
375 4.36571
380 6.58362
385 4.11531
390 5.06079
395 4.09163
400 4.05987
405 3.35363
410 4.53466
415 4.17069
420 2.91667
425 5.45663
430 3.65716
435 4.81182
440 3.82597
445 3.56992
450 5.06723
455 3.18159
460 2.99524
465 3.71256
470 4.99381
475 3.68012
480 2.86648
485 2.79135
490 3.35317
495 4.24157
500 4.2551
505 3.32466
510 3.64586
515 3.60043
520 3.68703
525 3.80223
530 3.66875
535 3.0004
540 2.23728
545 2.58926
550 3.90524
555 3.53212
560 2.69053
565 2.73286
570 3.44736
575 2.75177
580 3.52748
585 2.8277
590 3.46965
595 3.75377
600 0.427165
Ex : 263
200 3.5149
205 3.04831
210 1.9365
215 2.78018
220 2.44446
225 2.29617
230 2.75337
235 2.1748
240 2.37231
245 2.50518
250 3.48211
255 3.29007
260 2.7541
265 2.82285
270 2.69494
275 2.85178
280 2.53857
285 1.66007
290 2.8852
295 2.77971
300 1.99981
305 3.34477
310 3.25299
315 2.67012
320 3.97317
325 2.23343
330 2.35833
335 3.05894
340 2.51354
345 2.91924
350 2.80354
355 2.82073
360 3.76701
365 3.57094
370 3.27117
375 2.1784
380 2.93208
385 2.78697
390 2.20199
395 2.67386
400 1.99506
405 2.2071
410 2.78656
415 2.98148
420 2.59239
425 4.19817
430 3.96086
435 2.37352
440 3.47999
445 2.15797
450 2.99817
455 2.90116
460 3.19947
465 2.89251
470 4.01896
475 3.28615
480 2.51645
485 2.27886
490 2.36442
495 3.51506
500 3.00031
505 2.8993
510 4.28037
515 3.3942
520 4.00781
525 3.50102
530 2.55908
535 3.22193
540 3.1091
545 2.70548
550 1.72934
555 2.64989
560 2.17226
565 2.9252
570 3.54462
575 2.54845
580 2.52198
585 2.55689
590 2.98377
595 2.77173
600 18.2294
Ex : 268
200 2.20157
205 3.31696
210 2.11269
215 1.90323
220 2.60802
225 3.46549
230 2.43549
235 1.85905
240 2.68544
245 2.6899
250 2.54886
255 2.10301
260 2.78598
265 2.24465
270 2.17006
275 2.0961
280 2.14157
285 1.48844
290 1.77904
295 1.74973
300 2.01914
305 1.63126
310 1.63322
315 1.61889
320 2.26141
325 1.87246
330 1.65861
335 1.95047
340 2.42527
345 1.39027
350 1.60139
355 1.94874
360 2.81202
365 2.26363
370 2.0953
375 3.13392
380 2.4474
385 2.25971
390 3.11256
395 1.80413
400 2.75504
405 2.093
410 2.1573
415 1.96633
420 1.95386
425 2.01019
430 2.45747
435 1.63606
440 2.95466
445 2.61931
450 2.6656
455 1.28827
460 2.26331
465 2.85945
470 2.15735
475 2.56572
480 3.34301
485 2.48821
490 2.20403
495 1.87825
500 2.41604
505 2.25248
510 2.43674
515 2.82205
520 1.58596
525 2.1697
530 2.67324
535 2.78629
540 2.07621
545 2.40006
550 2.16974
555 1.89289
560 2.89435
565 2.64767
570 1.72795
575 1.64603
580 2.14465
585 1.86836
590 2.86306
595 1.89123
600 1.59991
Ex : 273
200 1.69872
205 1.59806
210 1.35318
215 1.90019
220 1.69069
225 1.63354
230 1.77339
235 1.77515
240 1.97154
245 1.80004
250 1.40727
255 1.80377
260 1.34412
265 1.55915
270 1.82036
275 1.86024
280 1.70637
285 1.69219
290 1.64628
295 1.15253
300 1.75007
305 1.91909
310 1.93165
315 1.50258
320 1.8493
325 2.37098
330 1.33268
335 1.52594
340 1.83
345 1.63549
350 2.30138
355 2.01997
360 1.7788
365 1.83804
370 2.5012
375 2.4639
380 1.64677
385 1.74465
390 1.72611
395 2.33262
400 2.04267
405 2.08112
410 2.77142
415 1.87641
420 2.36465
425 2.00321
430 1.91743
435 2.91833
440 1.92688
445 1.91348
450 2.38286
455 2.3412
460 2.26533
465 1.90455
470 2.35791
475 1.94729
480 1.85856
485 2.59977
490 1.62091
495 1.78669
500 2.66468
505 2.13306
510 2.41536
515 1.77257
520 2.41148
525 2.57739
530 2.04365
535 1.65836
540 1.69651
545 1.72618
550 2.04301
555 1.8376
560 1.73418
565 1.84591
570 1.53026
575 1.86103
580 2.12331
585 1.7961
590 1.82507
595 1.80863
600 1.66172
Ex : 278
200 1.44162
205 1.61755
210 1.36488
215 1.41907
220 1.53454
225 1.85358
230 1.50615
235 1.16061
240 1.50296
245 1.12229
250 1.49897
255 1.49595
260 1.10889
265 1.25865
270 1.24474
275 1.58054
280 1.57258
285 1.26912
290 1.8772
295 1.80461
300 1.45895
305 1.21651
310 1.67131
315 1.42881
320 1.38043
325 1.09064
330 1.32188
335 1.62478
340 1.71034
345 2.62475
350 1.1531
355 1.33961
360 1.61452
365 1.73538
370 1.04248
375 2.07126
380 1.8681
385 2.19374
390 2.16488
395 2.26888
400 2.15879
405 1.80188
410 2.14764
415 1.49681
420 2.20171
425 2.04449
430 1.73577
435 2.00744
440 2.2545
445 1.84302
450 2.16916
455 2.06923
460 1.56478
465 1.7513
470 1.36889
475 1.99714
480 2.26284
485 1.8838
490 1.00871
495 1.4086
500 1.60057
505 1.55885
510 1.81903
515 1.78485
520 1.09248
525 1.41026
530 1.14303
535 1.5123
540 1.26353
545 1.73355
550 1.71603
555 1.71142
560 1.27097
565 1.38532
570 1.09175
575 1.42147
580 1.63169
585 1.83659
590 1.50482
595 1.29461
600 0.147322
Ex : 283
200 0.890022
205 1.09612
210 1.52138
215 1.63164
220 1.43436
225 1.21748
230 1.11768
235 1.09782
240 1.05528
245 1.25875
250 1.30368
255 1.32581
260 1.11098
265 1.23746
270 0.968591
275 1.42115
280 1.26489
285 0.968638
290 1.24514
295 1.39211
300 1.09513
305 1.44598
310 1.04482
315 1.40386
320 0.934612
325 1.11972
330 1.5734
335 1.19384
340 0.983184
345 1.27725
350 1.18375
355 1.013
360 1.05148
365 1.51792
370 1.6526
375 1.4612
380 1.17852
385 1.05076
390 1.5639
395 1.40324
400 1.29937
405 1.37892
410 1.18081
415 1.16119
420 1.87771
425 1.17754
430 1.39639
435 1.38545
440 1.28555
445 1.7295
450 1.74832
455 1.37947
460 1.39753
465 1.47884
470 1.4158
475 1.47428
480 1.66324
485 1.3299
490 1.63164
495 1.43358
500 1.79246
505 1.23799
510 1.33722
515 1.35445
520 1.35496
525 1.93842
530 1.47958
535 1.22919
540 1.39329
545 1.51888
550 1.11857
555 1.48867
560 1.38492
565 1.31867
570 1.30451
575 1.2205
580 0.895468
585 1.60659
590 1.36885
595 0.982582
600 0.610304
Ex : 288
200 1.0167
205 1.43008
210 1.27803
215 0.945425
220 0.734399
225 0.735756
230 0.807881
235 0.916258
240 0.750809
245 1.13363
250 0.751606
255 0.852127
260 0.824367
265 0.908339
270 1.1141
275 0.899028
280 1.01601
285 1.54938
290 1.21354
295 0.93291
300 0.863811
305 0.885849
310 0.91478
315 0.884618
320 0.954394
325 1.15629
330 1.22012
335 1.06282
340 1.08791
345 0.932413
350 1.52591
355 1.09132
360 1.34231
365 1.50206
370 1.12328
375 1.44068
380 1.65142
385 1.14422
390 1.00378
395 1.35381
400 1.7525
405 1.13284
410 1.48293
415 1.10806
420 1.20085
425 1.11474
430 1.19219
435 1.43085
440 0.983648
445 1.46907
450 1.17809
455 1.32262
460 1.25051
465 1.02631
470 1.32341
475 1.09828
480 1.31411
485 1.32181
490 1.2495
495 1.39096
500 1.09652
505 1.40467
510 1.4961
515 0.933993
520 0.975945
525 1.21259
530 0.888284
535 0.943776
540 1.52148
545 0.910817
550 1.21711
555 1.11338
560 1.04656
565 1.31429
570 1.50233
575 1.81843
580 1.18665
585 1.17541
590 0.659819
595 0.982716
600 0.225445
Ex : 293
200 0.775222
205 0.685595
210 1.02665
215 0.845818
220 0.718042
225 0.919567
230 0.568327
235 0.64424
240 1.12635
245 0.834125
250 1.00819
255 0.602094
260 0.696049
265 0.676891
270 0.75764
275 1.10764
280 0.795621
285 0.738946
290 1.09595
295 0.986355
300 0.901175
305 0.972386
310 0.857753
315 0.800787
320 0.733718
325 0.732912
330 0.850246
335 0.943708
340 0.975327
345 0.66767
350 0.975766
355 1.20421
360 0.861042
365 1.00151
370 0.940935
375 1.24996
380 0.893221
385 1.05508
390 1.23676
395 1.28624
400 1.18405
405 1.31306
410 1.09919
415 1.34609
420 1.475
425 1.06206
430 1.12633
435 1.39785
440 1.08902
445 1.01107
450 0.85161
455 1.1273
460 1.43642
465 1.00186
470 0.87788
475 0.935119
480 0.749062
485 0.895973
490 0.818393
495 0.951478
500 0.797544
505 1.16348
510 0.869583
515 0.955949
520 0.979854
525 0.872976
530 1.04942
535 1.02394
540 0.893834
545 0.864809
550 0.967276
555 0.869341
560 0.896745
565 1.10938
570 0.834924
575 1.0267
580 1.24704
585 1.4187
590 1.04906
595 0.849879
600 0.785983
Ex : 298
200 0.610884
205 1.03202
210 0.676889
215 0.618824
220 0.835778
225 0.63319
230 0.779869
235 0.910685
240 0.702177
245 0.744558
250 0.699752
255 0.659491
260 0.833958
265 0.612561
270 0.950655
275 0.497335
280 0.88582
285 0.796499
290 0.756414
295 0.869081
300 0.682959
305 0.754758
310 0.884127
315 0.661576
320 0.519821
325 0.664088
330 0.728909
335 0.938676
340 0.86451
345 0.831886
350 0.80949
355 0.807349
360 0.986532
365 1.19778
370 0.957327
375 0.931669
380 1.0271
385 1.04852
390 0.965999
395 0.935222
400 0.87959
405 1.07997
410 1.07525
415 0.885266
420 0.900802
425 0.752899
430 0.940671
435 0.955036
440 1.1539
445 0.819497
450 0.896062
455 0.840134
460 0.843161
465 0.810564
470 0.898506
475 1.01064
480 0.904813
485 0.571194
490 0.714285
495 0.783796
500 0.874221
505 0.732714
510 0.846556
515 0.989453
520 0.773603
525 1.14244
530 0.854268
535 0.622295
540 0.568596
545 0.70483
550 0.874259
555 0.9323
560 0.728579
565 0.719086
570 0.625508
575 0.622623
580 0.533202
585 1.01694
590 1.17138
595 1.17098
600 0.330188
Ex : 303
200 0.652981
205 0.665581
210 0.574012
215 0.729973
220 0.652846
225 0.763561
230 0.754137
235 0.485833
240 0.602512
245 0.910335
250 0.521002
255 0.611372
260 0.652656
265 0.677341
270 0.703624
275 0.821868
280 0.580602
285 0.727022
290 0.625673
295 0.823258
300 0.744296
305 0.447478
310 0.649926
315 0.639115
320 0.723221
325 0.730155
330 0.501977
335 0.604027
340 0.883335
345 0.806024
350 0.723156
355 1.10356
360 0.834686
365 0.921543
370 0.941722
375 0.905311
380 0.783271
385 0.957634
390 1.17256
395 0.846848
400 1.17962
405 1.21198
410 1.04983
415 1.00673
420 1.04436
425 0.989768
430 1.1968
435 0.813544
440 0.868981
445 0.726541
450 0.985371
455 1.02659
460 0.881217
465 1.0003
470 0.835909
475 0.782786
480 0.797191
485 0.651334
490 0.659502
495 0.832382
500 0.7711
505 0.784331
510 0.733605
515 0.690407
520 0.839327
525 0.656539
530 0.680124
535 0.553986
540 0.672219
545 0.603437
550 0.546725
555 0.661364
560 0.665003
565 0.573193
570 0.546309
575 0.684716
580 0.467077
585 0.449816
590 0.854872
595 0.778814
600 0.839646
Ex : 308
200 0.452856
205 0.871704
210 0.532094
215 0.402204
220 0.651415
225 0.535487
230 0.534742
235 0.629128
240 0.576753
245 0.55469
250 0.504366
255 0.451606
260 0.577121
265 0.616157
270 0.625194
275 0.48512
280 0.575301
285 0.553984
290 0.5398
295 0.410725
300 0.60395
305 0.693287
310 0.692632
315 0.513729
320 0.477786
325 0.555201
330 0.439325
335 0.626941
340 0.766568
345 0.889681
350 0.848793
355 1.08931
360 0.701663
365 0.929627
370 0.866986
375 0.895532
380 0.897068
385 1.25492
390 0.746309
395 0.763049
400 0.712406
405 0.674044
410 1.04156
415 1.23914
420 1.01299
425 1.20711
430 0.986461
435 0.679561
440 0.861305
445 1.01321
450 0.948084
455 0.570632
460 0.782014
465 0.952424
470 0.75771
475 0.909194
480 0.664911
485 0.819703
490 0.732665
495 0.680659
500 0.620693
505 0.736822
510 0.833476
515 0.778771
520 0.840223
525 0.676635
530 0.681823
535 0.561841
540 0.621366
545 0.538514
550 0.57124
555 0.469173
560 0.490448
565 0.62558
570 0.56373
575 0.520782
580 0.509664
585 0.579076
590 0.604563
595 0.620199
600 0.0705763
Ex : 313
200 0.592366
205 0.34563
210 0.416663
215 0.553934
220 0.466396
225 0.519212
230 0.506281
235 0.443025
240 0.440116
245 0.626509
250 0.527472
255 0.528299
260 0.58592
265 0.521848
270 0.58608
275 0.686221
280 0.483792
285 0.60801
290 0.389343
295 0.538269
300 0.61058
305 0.587449
310 0.811347
315 0.611996
320 0.431644
325 0.496291
330 0.443522
335 0.828502
340 0.511285
345 0.720202
350 0.739838
355 0.84893
360 0.792908
365 0.871837
370 0.885356
375 0.911117
380 1.17697
385 1.16058
390 1.1774
395 1.30147
400 1.14393
405 1.13037
410 1.30733
415 1.07211
420 1.21519
425 1.1707
430 0.940261
435 0.991295
440 1.13474
445 1.05827
450 1.19725
455 1.14035
460 0.938439
465 0.842048
470 0.978517
475 0.878586
480 0.81236
485 0.803309
490 0.799074
495 0.597064
500 0.689544
505 0.673447
510 0.928557
515 0.794634
520 0.726828
525 0.582773
530 0.680938
535 0.469795
540 0.735449
545 0.521109
550 0.654427
555 0.583504
560 0.534865
565 0.593612
570 0.545977
575 0.763088
580 0.483774
585 0.505765
590 0.628375
595 0.69581
600 0.36322
Ex : 318
200 0.376344
205 0.345731
210 0.414796
215 0.378505
220 0.416274
225 0.345085
230 0.382821
235 0.433022
240 0.524718
245 0.441471
250 0.406349
255 0.555887
260 0.401418
265 0.444412
270 0.516805
275 0.440233
280 0.540799
285 0.532034
290 0.582958
295 0.354595
300 0.530714
305 0.482992
310 0.507559
315 0.848339
320 0.897941
325 0.687221
330 0.90444
335 0.849769
340 1.02873
345 1.65172
350 2.34171
355 2.58552
360 3.32319
365 4.11642
370 4.81707
375 5.33275
380 6.67297
385 6.76606
390 7.21722
395 8.19016
400 7.85448
405 8.14179
410 8.04428
415 8.352
420 7.5815
425 7.56011
430 6.89551
435 6.79024
440 6.56975
445 6.05559
450 5.94739
455 5.6344
460 5.0837
465 4.92242
470 4.83282
475 4.09357
480 3.53233
485 3.51693
490 3.26673
495 3.08729
500 2.51917
505 2.41814
510 1.94676
515 2.11775
520 1.91641
525 1.57154
530 1.54308
535 1.31812
540 1.24674
545 1.15075
550 1.0848
555 0.825194
560 0.901329
565 0.765242
570 0.651862
575 0.674261
580 0.528814
585 0.497883
590 0.531906
595 0.866366
600 0.3125
Ex : 323
200 0.368584
205 0.458048
210 0.377216
215 0.521357
220 0.296777
225 0.504736
230 0.308007
235 0.46405
240 0.455744
245 0.311254
250 0.362266
255 0.279039
260 0.373345
265 0.411328
270 0.350299
275 0.46567
280 0.357029
285 0.36717
290 0.335823
295 0.280552
300 0.357146
305 0.415607
310 0.545838
315 2.37651
320 10.7426
325 5.03001
330 2.03998
335 2.90871
340 3.99506
345 5.56645
350 8.89654
355 11.3278
360 13.6105
365 16.2718
370 18.407
375 21.9043
380 24.0016
385 27.8446
390 29.4918
395 30.8685
400 32.2558
405 32.8707
410 31.9325
415 31.5487
420 31.2252
425 30.6469
430 28.2678
435 28.4033
440 26.2376
445 25.6435
450 23.5183
455 22.3748
460 21.1303
465 19.6369
470 17.9368
475 15.7774
480 15.549
485 13.3622
490 12.4205
495 11.4791
500 10.135
505 8.4571
510 7.99331
515 6.60725
520 5.61388
525 5.22509
530 4.64111
535 4.24784
540 3.47534
545 3.20943
550 2.67511
555 2.31009
560 2.15524
565 1.84098
570 1.49148
575 1.14948
580 0.96817
585 0.865815
590 0.767818
595 0.611762
600 0.0696162
Ex : 328
200 0.263169
205 0.222643
210 0.347942
215 0.321358
220 0.374942
225 0.352829
230 0.421135
235 0.400787
240 0.636153
245 0.330562
250 0.336533
255 0.325259
260 0.409867
265 0.413909
270 0.314653
275 0.330242
280 0.350415
285 0.316335
290 0.362392
295 0.305677
300 0.361781
305 0.39407
310 0.377673
315 0.906158
320 23.8237
325 58.953
330 19.6619
335 5.76545
340 5.90012
345 7.59609
350 9.26115
355 12.522
360 17.6616
365 20.018
370 21.6609
375 24.3134
380 27.0596
385 30.8129
390 32.6401
395 34.5016
400 34.9273
405 34.7989
410 35.6409
415 34.2097
420 34.3294
425 33.1933
430 31.2561
435 30.3414
440 28.1092
445 28.1566
450 26.2843
455 24.4378
460 22.8373
465 21.8225
470 19.6811
475 18.0409
480 17.3594
485 15.0117
490 14.0625
495 12.159
500 10.9875
505 10.1756
510 9.08091
515 8.09339
520 6.83089
525 6.25174
530 5.3259
535 4.42394
540 4.23729
545 3.51415
550 3.07028
555 2.81299
560 2.65963
565 2.05811
570 1.67527
575 1.63536
580 1.08846
585 0.990091
590 0.931902
595 0.595305
600 0.285266
Ex : 333
200 0.319969
205 0.342621
210 0.342555
215 0.486995
220 0.329361
225 0.307247
230 0.278184
235 0.255644
240 0.509242
245 0.515705
250 0.32352
255 0.362679
260 0.328133
265 0.502125
270 0.482797
275 0.482865
280 0.302131
285 0.228217
290 0.412166
295 0.617105
300 0.313006
305 0.400742
310 0.38516
315 0.336979
320 3.83442
325 69.4887
330 119.801
335 33.9065
340 7.28041
345 5.72929
350 5.74089
355 6.55095
360 9.99846
365 14.594
370 15.6365
375 15.2261
380 15.5677
385 17.3325
390 17.9875
395 19.1121
400 19.4817
405 19.4467
410 20.1488
415 18.991
420 18.4731
425 17.7763
430 17.1936
435 16.7439
440 15.8306
445 14.7858
450 13.8579
455 12.7392
460 12.4879
465 11.703
470 11.1401
475 10.617
480 9.49157
485 8.8526
490 8.04585
495 7.60022
500 6.86793
505 5.63462
510 5.30669
515 4.72653
520 4.42273
525 3.7057
530 3.37267
535 3.12571
540 2.78969
545 2.16418
550 2.15892
555 1.80805
560 1.80208
565 1.65907
570 1.2761
575 1.2483
580 0.985501
585 0.778462
590 0.681717
595 0.782179
600 1.24846
Ex : 338
200 0.311368
205 0.245619
210 0.301989
215 0.429448
220 0.369438
225 0.351736
230 0.301283
235 0.36835
240 0.339114
245 0.456261
250 0.358365
255 0.273526
260 0.263921
265 0.348806
270 0.406791
275 0.352212
280 0.348765
285 0.337529
290 0.356105
295 0.334811
300 0.323701
305 0.273704
310 0.301158
315 0.302289
320 0.483443
325 7.14211
330 107.445
335 160.024
340 40.9855
345 7.49745
350 4.31513
355 4.28609
360 4.37767
365 6.12969
370 10.2531
375 10.688
380 9.28076
385 8.40886
390 8.6976
395 9.28824
400 9.47929
405 9.51694
410 9.8419
415 9.48011
420 9.53245
425 8.80503
430 8.99729
435 8.40578
440 8.59962
445 7.76301
450 7.96545
455 7.4031
460 7.34111
465 6.82938
470 6.2168
475 6.29117
480 5.74307
485 5.22257
490 4.8143
495 4.5633
500 4.15864
505 3.77254
510 3.48956
515 3.29393
520 2.86163
525 2.59026
530 2.63795
535 2.31558
540 1.7916
545 1.75923
550 1.74875
555 1.27329
560 1.48197
565 1.19946
570 0.93793
575 0.860285
580 0.820631
585 0.719488
590 0.692973
595 0.52188
600 0.280939
Ex : 343
200 0.264243
205 0.373135
210 0.510817
215 0.298143
220 0.330818
225 0.263797
230 0.22697
235 0.249801
240 0.264346
245 0.261953
250 0.276065
255 0.271016
260 0.28464
265 0.285406
270 0.253231
275 0.261443
280 0.22532
285 0.241887
290 0.251109
295 0.223055
300 0.457769
305 0.301071
310 0.259349
315 0.365989
320 0.283536
325 0.454446
330 8.0623
335 122.289
340 181.405
345 45.7086
350 7.15636
355 3.54986
360 3.04488
365 2.54892
370 3.57333
375 7.61407
380 8.32306
385 6.64886
390 5.77641
395 5.34771
400 5.50677
405 5.79324
410 6.10425
415 6.27993
420 6.47517
425 6.29277
430 5.98846
435 6.26897
440 6.48212
445 6.05558
450 6.10591
455 5.57185
460 5.64556
465 5.77417
470 5.51314
475 5.35039
480 4.74245
485 4.48919
490 4.64271
495 4.18249
500 3.88373
505 3.70675
510 3.28913
515 3.03594
520 2.72187
525 2.44772
530 2.39202
535 1.90623
540 1.79438
545 1.77532
550 1.5831
555 1.50098
560 1.33655
565 1.14262
570 1.04794
575 0.707843
580 0.68139
585 0.713421
590 0.603159
595 0.55655
600 0.201054
Ex : 348
200 0.334418
205 0.309194
210 0.254809
215 0.263018
220 0.238137
225 0.210314
230 0.267325
235 0.218684
240 0.251762
245 0.305505
250 0.301729
255 0.284185
260 0.27103
265 0.268701
270 0.26997
275 0.316044
280 0.239192
285 0.220493
290 0.225829
295 0.245205
300 0.355468
305 0.277502
310 0.38502
315 0.270316
320 0.342549
325 0.331874
330 0.521625
335 8.10075
340 125.27
345 189.331
350 50.4252
355 7.38065
360 2.88657
365 2.40535
370 2.08389
375 2.65945
380 5.6875
385 7.51173
390 6.2745
395 5.10967
400 4.80607
405 4.83901
410 5.14138
415 5.80671
420 5.74769
425 5.76758
430 5.61918
435 5.82895
440 5.98887
445 5.8336
450 5.56737
455 5.60897
460 5.57703
465 5.13655
470 5.13366
475 5.32252
480 5.0958
485 4.60251
490 4.14244
495 4.29176
500 4.20023
505 3.85262
510 3.30843
515 3.04819
520 2.96683
525 2.84693
530 2.71388
535 2.23313
540 2.07604
545 1.83531
550 1.58608
555 1.40411
560 1.32599
565 1.31339
570 1.10074
575 1.02222
580 0.687782
585 0.681996
590 0.486615
595 0.505019
600 0.723498
Ex : 353
200 0.223567
205 0.172999
210 0.251312
215 0.198766
220 0.22949
225 0.233248
230 0.237055
235 0.211791
240 0.251985
245 0.306365
250 0.272108
255 0.371151
260 0.300635
265 0.216704
270 0.293162
275 0.291101
280 0.22886
285 0.282145
290 0.252104
295 0.320232
300 0.264747
305 0.182468
310 0.23476
315 0.226825
320 0.336477
325 0.317394
330 0.353727
335 0.509031
340 8.74813
345 128.298
350 190.372
355 47.7014
360 7.17528
365 2.8548
370 2.46719
375 2.41295
380 2.36841
385 4.7726
390 7.47299
395 6.97691
400 5.27593
405 4.64162
410 5.01921
415 5.32554
420 5.33095
425 5.48787
430 5.31435
435 5.86229
440 5.78094
445 5.88693
450 5.7713
455 5.7775
460 5.57667
465 5.5658
470 5.55577
475 5.45579
480 5.23182
485 5.0954
490 4.63662
495 4.48143
500 4.41463
505 3.87202
510 3.53281
515 3.24233
520 3.16326
525 2.78695
530 2.57785
535 2.36342
540 2.12889
545 2.02713
550 1.83509
555 1.63762
560 1.32991
565 1.31169
570 1.0475
575 0.997062
580 0.748296
585 0.692251
590 0.607056
595 0.593651
600 0.80865
Ex : 358
200 0.235151
205 0.278916
210 0.244082
215 0.315617
220 0.317464
225 0.240635
230 0.216432
235 0.195479
240 0.195536
245 0.213033
250 0.278823
255 0.221694
260 0.230448
265 0.262202
270 0.237018
275 0.234975
280 0.240505
285 0.207613
290 0.292982
295 0.237427
300 0.294739
305 0.262907
310 0.247411
315 0.216677
320 0.233182
325 0.286776
330 0.265767
335 0.2968
340 0.473226
345 8.06793
350 124.959
355 192.115
360 49.2411
365 7.11471
370 2.59122
375 2.8585
380 2.40478
385 2.16376
390 4.06102
395 7.65805
400 7.26273
405 5.95109
410 5.53466
415 5.3526
420 5.64588
425 5.77206
430 5.72825
435 5.79905
440 5.88979
445 6.28871
450 6.06703
455 6.02697
460 6.05563
465 5.85317
470 6.12936
475 5.72516
480 5.67683
485 5.71502
490 5.53545
495 5.23604
500 4.79939
505 4.29289
510 3.98683
515 3.7363
520 3.47326
525 3.02091
530 2.88162
535 2.67447
540 2.18944
545 2.25063
550 1.92997
555 1.71489
560 1.54523
565 1.39205
570 1.06938
575 0.84685
580 0.817315
585 0.777006
590 0.731518
595 0.688551
600 0.2706
Ex : 363
200 0.227332
205 0.251397
210 0.14227
215 0.1856
220 0.224642
225 0.241734
230 0.272549
235 0.201631
240 0.253409
245 0.211022
250 0.26614
255 0.212908
260 0.209567
265 0.250497
270 0.18748
275 0.177899
280 0.228005
285 0.221102
290 0.210431
295 0.181243
300 0.256119
305 0.194889
310 0.171241
315 0.223962
320 0.290997
325 0.245392
330 0.254548
335 0.228691
340 0.261326
345 0.503976
350 7.40997
355 122.333
360 193.027
365 50.6466
370 7.37788
375 2.74196
380 2.67227
385 2.38852
390 2.26613
395 3.45791
400 6.86981
405 7.76233
410 6.64147
415 5.89077
420 5.60475
425 5.49419
430 5.812
435 5.98808
440 6.45578
445 6.68017
450 6.75103
455 6.28084
460 6.32331
465 6.75318
470 6.52526
475 6.49268
480 6.26217
485 5.88661
490 5.66253
495 5.32983
500 4.93237
505 4.58357
510 4.3465
515 3.94804
520 3.58744
525 3.36069
530 3.13995
535 2.51674
540 2.43589
545 2.34614
550 2.11035
555 1.94496
560 1.43986
565 1.31502
570 1.18762
575 0.93563
580 0.875257
585 0.792594
590 0.569292
595 0.459608
600 0.546107
Ex : 368
200 0.161104
205 0.189214
210 0.190119
215 0.180298
220 0.209426
225 0.152476
230 0.205236
235 0.165283
240 0.16151
245 0.188864
250 0.193754
255 0.150754
260 0.218261
265 0.216551
270 0.180361
275 0.202696
280 0.178624
285 0.200646
290 0.232099
295 0.167167
300 0.199367
305 0.138868
310 0.217235
315 0.248233
320 0.268899
325 0.179933
330 0.246947
335 0.239848
340 0.26874
345 0.259686
350 0.447524
355 5.99328
360 115.71
365 195.912
370 53.6191
375 7.84596
380 2.65612
385 2.756
390 2.45128
395 2.45336
400 3.06763
405 5.83687
410 8.58763
415 7.24889
420 6.1122
425 5.41225
430 5.26709
435 6.02192
440 6.40349
445 6.68983
450 6.36726
455 6.10577
460 6.40282
465 6.68328
470 6.63311
475 6.62986
480 6.23487
485 6.37986
490 5.95415
495 5.69655
500 5.46512
505 5.18214
510 4.58921
515 4.35791
520 3.97879
525 3.75234
530 3.25905
535 2.89274
540 2.63591
545 2.47861
550 2.08827
555 1.8909
560 1.72986
565 1.44872
570 1.40102
575 1.17292
580 0.803414
585 0.675144
590 0.633744
595 0.45064
600 0.0512811
Ex : 373
200 0.231081
205 0.219174
210 0.1773
215 0.181986
220 0.209588
225 0.155534
230 0.213491
235 0.197413
240 0.174026
245 0.178787
250 0.216561
255 0.114486
260 0.182526
265 0.205252
270 0.21116
275 0.169856
280 0.167154
285 0.186144
290 0.170692
295 0.228284
300 0.213566
305 0.158371
310 0.145661
315 0.216935
320 0.220895
325 0.214161
330 0.251974
335 0.262487
340 0.288009
345 0.350481
350 0.342839
355 0.384256
360 7.13605
365 119.975
370 195.09
375 52.5546
380 7.58061
385 2.69776
390 2.68665
395 2.84061
400 2.85549
405 3.36294
410 5.71014
415 8.19086
420 7.18915
425 5.97881
430 5.56869
435 5.7138
440 5.97367
445 6.17462
450 6.03532
455 6.15797
460 6.13314
465 6.09021
470 6.46384
475 6.15597
480 6.2515
485 6.01931
490 5.94827
495 5.8459
500 5.40555
505 5.38021
510 4.67956
515 4.35493
520 4.04843
525 3.71464
530 3.2583
535 3.03436
540 2.76384
545 2.50523
550 2.36348
555 1.93904
560 1.74184
565 1.57571
570 1.33713
575 1.04927
580 0.897952
585 0.667286
590 0.55033
595 0.499061
600 0.412439
Ex : 378
200 0.222157
205 0.131145
210 0.18157
215 0.16568
220 0.181245
225 0.202608
230 0.210821
235 0.14831
240 0.167758
245 0.195552
250 0.184176
255 0.172064
260 0.227553
265 0.192152
270 0.151209
275 0.161565
280 0.149009
285 0.174247
290 0.189069
295 0.187949
300 0.12841
305 0.194925
310 0.21255
315 0.155513
320 0.173873
325 0.152876
330 0.194886
335 0.237948
340 0.272526
345 0.232722
350 0.184415
355 0.356648
360 0.367104
365 6.51456
370 121.507
375 196.536
380 54.397
385 7.96188
390 2.89666
395 3.10835
400 3.1959
405 3.10045
410 3.66755
415 5.4309
420 8.15411
425 7.67052
430 6.40511
435 6.24392
440 5.68794
445 5.93689
450 6.02943
455 6.04776
460 6.01009
465 6.40208
470 6.26808
475 6.52205
480 6.30953
485 6.00555
490 6.0045
495 5.68903
500 5.41376
505 5.03121
510 4.7441
515 4.53294
520 3.93804
525 3.56118
530 3.49729
535 2.97573
540 2.68718
545 2.30894
550 2.36737
555 1.96851
560 1.73115
565 1.58003
570 1.36684
575 1.01613
580 0.827349
585 0.722683
590 0.563014
595 0.394287
600 0.420946
Ex : 383
200 0.1536
205 0.116927
210 0.123754
215 0.173814
220 0.276343
225 0.174276
230 0.219756
235 0.178243
240 0.18089
245 0.162716
250 0.153456
255 0.231765
260 0.128361
265 0.162686
270 0.173417
275 0.120773
280 0.193034
285 0.209145
290 0.230771
295 0.17223
300 0.149615
305 0.190446
310 0.176625
315 0.162321
320 0.185512
325 0.249571
330 0.210558
335 0.206449
340 0.246264
345 0.250796
350 0.227292
355 0.268944
360 0.30045
365 0.431517
370 6.38883
375 116.229
380 199.833
385 55.1742
390 8.07008
395 2.85546
400 2.8399
405 3.4359
410 3.91461
415 4.11814
420 4.99
425 7.31822
430 7.5112
435 7.03601
440 6.83724
445 6.25449
450 6.2274
455 5.88404
460 6.15789
465 6.24808
470 6.29278
475 6.32729
480 6.19083
485 6.14577
490 6.03561
495 5.74398
500 5.53765
505 5.33136
510 4.66558
515 4.39999
520 4.10104
525 3.65487
530 3.51495
535 2.96621
540 2.84881
545 2.52194
550 2.30851
555 2.05058
560 1.75392
565 1.49254
570 1.33791
575 1.12371
580 0.956125
585 0.713403
590 0.62489
595 0.536514
600 1.05935
Ex : 388
200 0.170058
205 0.180231
210 0.213945
215 0.177875
220 0.198324
225 0.12008
230 0.180928
235 0.122336
240 0.144179
245 0.167206
250 0.239365
255 0.263074
260 0.149443
265 0.126173
270 0.214393
275 0.141803
280 0.15981
285 0.15243
290 0.113158
295 0.164306
300 0.177003
305 0.17101
310 0.154845
315 0.205581
320 0.191308
325 0.186641
330 0.171573
335 0.194534
340 0.162154
345 0.23492
350 0.259482
355 0.225112
360 0.222398
365 0.285488
370 0.383219
375 6.516
380 117.093
385 197.712
390 54.7305
395 8.08375
400 2.74315
405 3.10516
410 3.90441
415 4.01844
420 3.99919
425 4.32814
430 6.40291
435 7.91388
440 7.0874
445 6.41607
450 5.83156
455 5.50585
460 5.95672
465 5.97233
470 6.26117
475 6.24816
480 6.23071
485 6.01435
490 5.84175
495 5.54135
500 5.21407
505 5.1511
510 4.94166
515 4.26886
520 3.81663
525 3.80091
530 3.21835
535 3.18848
540 2.83936
545 2.47095
550 2.2625
555 2.11612
560 1.81057
565 1.55616
570 1.34338
575 1.03754
580 0.786428
585 0.738754
590 0.604945
595 0.543526
600 0.0618512
Ex : 393
200 0.193435
205 0.143311
210 0.163371
215 0.132698
220 0.139658
225 0.10185
230 0.208482
235 0.135307
240 0.136515
245 0.144743
250 0.164261
255 0.141315
260 0.166629
265 0.16413
270 0.183166
275 0.124424
280 0.154339
285 0.145587
290 0.122035
295 0.105014
300 0.152708
305 0.138685
310 0.140416
315 0.171731
320 0.162729
325 0.172151
330 0.18623
335 0.181903
340 0.210813
345 0.169584
350 0.156176
355 0.193354
360 0.243019
365 0.190366
370 0.333399
375 0.436314
380 5.85418
385 116.192
390 200.978
395 56.6162
400 8.35116
405 2.95445
410 3.47
415 3.77288
420 3.51811
425 3.39243
430 3.78129
435 5.34793
440 7.58202
445 6.64855
450 5.95151
455 5.36729
460 5.23728
465 5.35816
470 5.59775
475 5.56332
480 5.63223
485 5.54934
490 5.44644
495 5.34511
500 5.17931
505 4.95126
510 4.47073
515 4.33351
520 4.01072
525 3.44349
530 3.13321
535 3.13817
540 2.79809
545 2.43195
550 2.22661
555 2.01215
560 1.74849
565 1.39523
570 1.27788
575 1.06127
580 0.824612
585 0.771038
590 0.591932
595 0.408903
600 0.49121
Ex : 398
200 0.14181
205 0.148575
210 0.156989
215 0.173729
220 0.142198
225 0.124067
230 0.18403
235 0.150019
240 0.169248
245 0.148215
250 0.149288
255 0.140845
260 0.108861
265 0.163064
270 0.121517
275 0.161336
280 0.200174
285 0.157998
290 0.189747
295 0.186557
300 0.148014
305 0.142065
310 0.23967
315 0.173532
320 0.16528
325 0.156336
330 0.169838
335 0.152945
340 0.18231
345 0.148637
350 0.201633
355 0.225257
360 0.199043
365 0.224922
370 0.246622
375 0.288433
380 0.393807
385 6.07334
390 118.594
395 201.347
400 55.7179
405 8.46717
410 3.3559
415 3.38814
420 3.47981
425 3.16107
430 3.20821
435 3.38669
440 4.76071
445 6.65783
450 6.62801
455 5.56141
460 5.45302
465 5.22925
470 5.14951
475 5.57874
480 5.51684
485 5.35929
490 5.32121
495 5.1136
500 4.92553
505 4.6594
510 4.36437
515 4.05451
520 3.68307
525 3.58313
530 3.28037
535 3.04423
540 2.63499
545 2.32191
550 2.16274
555 1.93638
560 1.70892
565 1.62671
570 1.25693
575 1.17798
580 0.877224
585 0.688082
590 0.69507
595 0.495701
600 0.448268
Ex : 403
200 0.121625
205 0.161553
210 0.164322
215 0.170691
220 0.163255
225 0.176585
230 0.138015
235 0.140919
240 0.161693
245 0.189736
250 0.122778
255 0.131097
260 0.114024
265 0.146106
270 0.164861
275 0.158311
280 0.140625
285 0.11634
290 0.148354
295 0.169048
300 0.106327
305 0.146061
310 0.113405
315 0.118859
320 0.170855
325 0.163296
330 0.20641
335 0.150846
340 0.141426
345 0.143212
350 0.220738
355 0.177119
360 0.189008
365 0.172151
370 0.194186
375 0.24488
380 0.297678
385 0.397212
390 6.72097
395 118.14
400 193.863
405 54.8819
410 8.58034
415 3.67973
420 3.23233
425 3.15814
430 3.37724
435 3.58492
440 3.85569
445 4.75831
450 6.14096
455 6.82298
460 5.85902
465 5.6622
470 5.60556
475 5.19117
480 5.32375
485 5.1366
490 5.07973
495 4.75772
500 4.93681
505 4.40102
510 4.47301
515 4.12741
520 3.67309
525 3.4018
530 3.27668
535 2.94684
540 2.69366
545 2.38198
550 2.05598
555 1.87962
560 1.57821
565 1.52253
570 1.13442
575 1.08617
580 0.851312
585 0.757487
590 0.533967
595 0.546805
600 0.779051
Ex : 408
200 0.159656
205 0.156429
210 0.176695
215 0.148933
220 0.181872
225 0.143646
230 0.154629
235 0.118108
240 0.13969
245 0.172399
250 0.143583
255 0.205537
260 0.144136
265 0.108178
270 0.150161
275 0.160361
280 0.115697
285 0.148628
290 0.175019
295 0.13487
300 0.110477
305 0.15044
310 0.136271
315 0.141776
320 0.170578
325 0.151867
330 0.123818
335 0.108169
340 0.212114
345 0.201077
350 0.157574
355 0.159759
360 0.165832
365 0.195706
370 0.191181
375 0.17188
380 0.232839
385 0.281345
390 0.377029
395 6.31709
400 121.122
405 199.836
410 55.1186
415 8.91162
420 3.54618
425 2.89551
430 3.37889
435 3.31994
440 3.37939
445 3.58193
450 3.88526
455 5.81377
460 7.05626
465 6.23513
470 5.39488
475 5.2934
480 4.98328
485 5.06682
490 5.11991
495 4.96272
500 4.57993
505 4.3259
510 4.03027
515 3.89631
520 3.64181
525 3.2801
530 3.15962
535 2.88534
540 2.6553
545 2.41497
550 2.14468
555 1.91106
560 1.76615
565 1.54629
570 1.17497
575 1.1567
580 0.916003
585 0.689522
590 0.626326
595 0.492336
600 0.282098
Ex : 413
200 0.154237
205 0.130941
210 0.131575
215 0.186172
220 0.177974
225 0.1162
230 0.124654
235 0.102421
240 0.154429
245 0.158699
250 0.164142
255 0.153553
260 0.114554
265 0.175892
270 0.147255
275 0.198182
280 0.135671
285 0.118371
290 0.134516
295 0.188992
300 0.100197
305 0.10711
310 0.185364
315 0.136812
320 0.130133
325 0.154237
330 0.147334
335 0.129027
340 0.172784
345 0.165659
350 0.150217
355 0.155794
360 0.16195
365 0.174401
370 0.171382
375 0.186086
380 0.191262
385 0.231164
390 0.265376
395 0.372048
400 7.25971
405 125.927
410 198.084
415 52.3289
420 7.71753
425 2.61106
430 2.37147
435 2.80717
440 2.86086
445 2.64777
450 2.89634
455 3.20193
460 4.37739
465 6.29569
470 5.73242
475 5.26673
480 5.18105
485 4.56841
490 4.21296
495 4.1363
500 4.25885
505 4.18817
510 3.98082
515 3.5463
520 3.34269
525 3.07152
530 3.03743
535 2.85637
540 2.53868
545 2.18412
550 2.11768
555 1.74951
560 1.6124
565 1.39204
570 1.23207
575 0.961578
580 0.823407
585 0.632695
590 0.507486
595 0.465865
600 0.274565
Ex : 418
200 0.166562
205 0.117219
210 0.138594
215 0.157755
220 0.149817
225 0.137303
230 0.143361
235 0.164949
240 0.172292
245 0.191419
250 0.167129
255 0.230325
260 0.180225
265 0.199171
270 0.0981014
275 0.119424
280 0.160532
285 0.152176
290 0.130508
295 0.129297
300 0.213818
305 0.159292
310 0.157649
315 0.156418
320 0.137407
325 0.156851
330 0.172238
335 0.139179
340 0.123631
345 0.159577
350 0.139707
355 0.1701
360 0.185152
365 0.163573
370 0.161273
375 0.162188
380 0.161647
385 0.24292
390 0.197538
395 0.275901
400 0.39632
405 6.81914
410 121.898
415 200.42
420 54.2693
425 7.50005
430 2.07485
435 1.69039
440 2.00692
445 2.14249
450 2.07989
455 2.14967
460 2.68423
465 3.259
470 5.43357
475 5.72381
480 4.48482
485 4.65494
490 4.18
495 4.0011
500 3.85169
505 3.58616
510 3.45226
515 3.11581
520 3.00294
525 2.99508
530 2.46715
535 2.588
540 2.33412
545 2.02363
550 1.79614
555 1.73249
560 1.62022
565 1.31725
570 1.21485
575 0.95222
580 0.758542
585 0.598337
590 0.504762
595 0.467037
600 0.21931
Ex : 423
200 0.159369
205 0.152138
210 0.0982551
215 0.125391
220 0.150163
225 0.114193
230 0.142722
235 0.163527
240 0.19357
245 0.168372
250 0.143956
255 0.131036
260 0.17289
265 0.103157
270 0.165897
275 0.161505
280 0.132519
285 0.116927
290 0.231992
295 0.199482
300 0.155721
305 0.167093
310 0.144288
315 0.151161
320 0.136159
325 0.134619
330 0.161324
335 0.211174
340 0.189608
345 0.172283
350 0.144019
355 0.241668
360 0.219109
365 0.215133
370 0.145881
375 0.200127
380 0.167388
385 0.219192
390 0.233114
395 0.239976
400 0.28019
405 0.429184
410 6.86624
415 126.489
420 197.495
425 51.2954
430 6.87877
435 1.9109
440 1.36841
445 1.70119
450 1.95889
455 1.79632
460 2.0235
465 2.26492
470 2.75567
475 4.79403
480 5.54425
485 4.25915
490 4.01137
495 3.91671
500 3.65009
505 3.33436
510 3.1054
515 2.8258
520 2.94667
525 2.42655
530 2.31634
535 2.26199
540 2.18772
545 1.93592
550 1.69085
555 1.58766
560 1.38993
565 1.21618
570 1.1316
575 0.86355
580 0.729747
585 0.623885
590 0.484613
595 0.391737
600 0.714986
Ex : 428
200 0.205338
205 0.113773
210 0.147688
215 0.201251
220 0.203796
225 0.131425
230 0.199237
235 0.135242
240 0.136644
245 0.128061
250 0.22252
255 0.206116
260 0.128757
265 0.133605
270 0.159188
275 0.152682
280 0.174173
285 0.136594
290 0.125595
295 0.162559
300 0.18178
305 0.135631
310 0.143283
315 0.135809
320 0.173723
325 0.129548
330 0.159338
335 0.140706
340 0.178112
345 0.134441
350 0.176792
355 0.164809
360 0.153763
365 0.184171
370 0.179099
375 0.146252
380 0.152955
385 0.148235
390 0.23762
395 0.211651
400 0.228013
405 0.261029
410 0.44369
415 7.45063
420 125.255
425 198.838
430 53.5767
435 7.19319
440 1.89618
445 1.36084
450 1.78251
455 1.91184
460 1.96239
465 2.0681
470 2.20029
475 2.48278
480 4.11895
485 5.21474
490 4.31498
495 3.5765
500 3.48325
505 3.00596
510 2.83281
515 2.70943
520 2.51088
525 2.4004
530 2.15334
535 2.11049
540 1.99743
545 1.80065
550 1.6115
555 1.40943
560 1.28858
565 1.23236
570 1.07078
575 0.793762
580 0.70077
585 0.587194
590 0.509429
595 0.413668
600 0.204521
Ex : 433
200 0.157141
205 0.154731
210 0.163518
215 0.218076
220 0.168425
225 0.177625
230 0.0955919
235 0.130094
240 0.143944
245 0.136577
250 0.140993
255 0.152438
260 0.150203
265 0.13944
270 0.111896
275 0.175262
280 0.162218
285 0.12706
290 0.142862
295 0.109057
300 0.197941
305 0.153917
310 0.18287
315 0.194295
320 0.124932
325 0.1538
330 0.131985
335 0.12717
340 0.12758
345 0.137395
350 0.165129
355 0.16031
360 0.159837
365 0.130821
370 0.152919
375 0.153675
380 0.145852
385 0.173795
390 0.195514
395 0.228329
400 0.214752
405 0.257148
410 0.28814
415 0.384132
420 7.74357
425 131.384
430 197.258
435 50.5929
440 6.73632
445 1.85954
450 1.31788
455 1.70445
460 1.98472
465 1.81207
470 1.76773
475 1.99967
480 2.37785
485 3.35968
490 4.79752
495 4.62602
500 3.55706
505 3.26856
510 2.92538
515 2.54685
520 2.24746
525 2.16411
530 1.97529
535 2.02964
540 1.87705
545 1.58674
550 1.48643
555 1.34462
560 1.34509
565 1.16071
570 0.997267
575 0.876467
580 0.632962
585 0.518332
590 0.454117
595 0.437265
600 0.198952
Ex : 438
200 0.176666
205 0.112915
210 0.0951634
215 0.0925077
220 0.112479
225 0.165283
230 0.108091
235 0.145806
240 0.120562
245 0.102446
250 0.134855
255 0.148266
260 0.123616
265 0.134553
270 0.186016
275 0.16664
280 0.131076
285 0.136691
290 0.11278
295 0.181681
300 0.116651
305 0.192134
310 0.114118
315 0.11466
320 0.153309
325 0.135171
330 0.118513
335 0.142817
340 0.130501
345 0.177106
350 0.179776
355 0.166192
360 0.211568
365 0.120017
370 0.131055
375 0.183167
380 0.166706
385 0.174593
390 0.244871
395 0.219129
400 0.229868
405 0.194073
410 0.236635
415 0.274972
420 0.407578
425 7.70962
430 130.381
435 211.663
440 54.6256
445 7.18406
450 2.02509
455 1.40505
460 1.69763
465 1.96391
470 1.9249
475 2.03487
480 2.12063
485 2.10042
490 2.69928
495 4.1471
500 4.35612
505 3.114
510 2.92107
515 2.76159
520 2.28743
525 2.04258
530 1.85957
535 1.80424
540 1.60095
545 1.51437
550 1.35947
555 1.37289
560 1.22351
565 1.00669
570 0.948929
575 0.651626
580 0.677469
585 0.553814
590 0.489883
595 0.429197
600 0.32854
Ex : 443
200 0.121812
205 0.0904953
210 0.130132
215 0.165154
220 0.196191
225 0.171764
230 0.123206
235 0.218392
240 0.189622
245 0.135562
250 0.148559
255 0.161025
260 0.225944
265 0.159806
270 0.212808
275 0.144872
280 0.147547
285 0.144483
290 0.141329
295 0.116334
300 0.177092
305 0.157194
310 0.127087
315 0.16789
320 0.146962
325 0.154025
330 0.131553
335 0.132523
340 0.165059
345 0.17281
350 0.129202
355 0.149294
360 0.197966
365 0.145424
370 0.177432
375 0.193041
380 0.190907
385 0.199787
390 0.166319
395 0.207923
400 0.247128
405 0.157902
410 0.200425
415 0.234042
420 0.35454
425 0.37728
430 8.28233
435 139.502
440 214.297
445 54.2569
450 7.35251
455 2.04872
460 1.50075
465 1.68518
470 1.88958
475 1.89915
480 1.86796
485 1.8411
490 2.06027
495 2.25656
500 3.28383
505 4.16058
510 3.23874
515 2.58009
520 2.34601
525 1.99003
530 1.86076
535 1.65815
540 1.47701
545 1.38859
550 1.30343
555 1.16307
560 1.09161
565 1.05343
570 0.856748
575 0.717376
580 0.669504
585 0.560458
590 0.450355
595 0.428183
600 0.422176
Ex : 448
200 0.142936
205 0.144077
210 0.0949324
215 0.129745
220 0.139146
225 0.116526
230 0.136865
235 0.110495
240 0.162155
245 0.165975
250 0.157159
255 0.172982
260 0.129583
265 0.130806
270 0.145662
275 0.176085
280 0.139268
285 0.120809
290 0.127738
295 0.12231
300 0.125854
305 0.201492
310 0.196103
315 0.136396
320 0.140492
325 0.133393
330 0.160094
335 0.166072
340 0.143396
345 0.141985
350 0.159799
355 0.139755
360 0.197776
365 0.15227
370 0.143299
375 0.150363
380 0.176278
385 0.186792
390 0.14656
395 0.123503
400 0.142113
405 0.168479
410 0.193543
415 0.212021
420 0.250437
425 0.311283
430 0.425959
435 8.55666
440 144.384
445 221.905
450 56.1414
455 7.60038
460 2.00424
465 1.34268
470 1.49766
475 1.86146
480 1.76528
485 1.77552
490 1.64834
495 1.73997
500 1.81482
505 2.56349
510 3.75006
515 3.266
520 2.26519
525 2.19244
530 1.87049
535 1.60886
540 1.42753
545 1.4167
550 1.22791
555 1.00753
560 0.946677
565 0.834461
570 0.784994
575 0.76644
580 0.616192
585 0.466726
590 0.487837
595 0.399193
600 0.189692
Ex : 453
200 0.129524
205 0.123666
210 0.134064
215 0.130275
220 0.130838
225 0.191473
230 0.164393
235 0.167277
240 0.122854
245 0.134522
250 0.124555
255 0.130487
260 0.163163
265 0.130415
270 0.13235
275 0.147614
280 0.196205
285 0.170753
290 0.125941
295 0.157772
300 0.123868
305 0.138251
310 0.158701
315 0.158071
320 0.126906
325 0.164208
330 0.188166
335 0.163237
340 0.146331
345 0.15938
350 0.153812
355 0.169211
360 0.211758
365 0.166943
370 0.137626
375 0.14573
380 0.126071
385 0.150788
390 0.195117
395 0.147481
400 0.151121
405 0.166725
410 0.19033
415 0.214874
420 0.219657
425 0.198054
430 0.285089
435 0.452472
440 9.53179
445 164.775
450 242.444
455 57.2887
460 7.6629
465 2.00743
470 1.3567
475 1.50491
480 1.7077
485 1.69746
490 1.425
495 1.47548
500 1.33574
505 1.47789
510 1.92136
515 3.2409
520 3.41836
525 2.2746
530 1.94527
535 1.73377
540 1.46405
545 1.24792
550 1.26648
555 1.05159
560 0.996302
565 1.0054
570 0.760822
575 0.717616
580 0.63843
585 0.498293
590 0.447875
595 0.440741
600 0.113851
Ex : 458
200 0.123556
205 0.140986
210 0.21758
215 0.149245
220 0.10375
225 0.142609
230 0.139256
235 0.16055
240 0.130157
245 0.156801
250 0.126848
255 0.141984
260 0.145999
265 0.212303
270 0.159387
275 0.141873
280 0.101513
285 0.128187
290 0.208572
295 0.178841
300 0.178252
305 0.154863
310 0.148562
315 0.134058
320 0.164279
325 0.168221
330 0.22182
335 0.130804
340 0.223729
345 0.129169
350 0.188563
355 0.135664
360 0.167228
365 0.198118
370 0.185465
375 0.200108
380 0.123817
385 0.17579
390 0.158646
395 0.147159
400 0.131945
405 0.200343
410 0.154996
415 0.218695
420 0.202558
425 0.210636
430 0.241264
435 0.266975
440 0.432564
445 10.2133
450 168.418
455 252.819
460 62.5825
465 8.19197
470 2.05675
475 1.25481
480 1.44159
485 1.59188
490 1.59759
495 1.30592
500 1.33541
505 1.41134
510 1.3654
515 1.58954
520 2.70902
525 3.21287
530 2.50204
535 1.74199
540 1.75174
545 1.48842
550 1.26125
555 1.03712
560 0.92923
565 0.949937
570 0.752403
575 0.714151
580 0.575551
585 0.442528
590 0.399118
595 0.380944
600 0.258448
Ex : 463
200 0.162602
205 0.151402
210 0.13908
215 0.151091
220 0.135583
225 0.112922
230 0.185084
235 0.208624
240 0.147038
245 0.19013
250 0.129511
255 0.180751
260 0.173553
265 0.164453
270 0.179959
275 0.143747
280 0.141789
285 0.18492
290 0.186041
295 0.150723
300 0.130509
305 0.148944
310 0.146743
315 0.175662
320 0.133144
325 0.146814
330 0.175593
335 0.172374
340 0.186086
345 0.151791
350 0.144879
355 0.157636
360 0.196954
365 0.128537
370 0.198293
375 0.159739
380 0.13096
385 0.127831
390 0.16133
395 0.187314
400 0.165226
405 0.131118
410 0.176427
415 0.159279
420 0.169416
425 0.14363
430 0.186314
435 0.24251
440 0.306196
445 0.438267
450 10.1051
455 176.326
460 271.291
465 67.1411
470 8.73597
475 2.15363
480 1.23124
485 1.29208
490 1.56658
495 1.54156
500 1.38567
505 1.21212
510 1.22012
515 1.3262
520 1.44356
525 2.07124
530 3.0921
535 2.64147
540 1.74915
545 1.50565
550 1.40393
555 1.17432
560 0.896923
565 0.906582
570 0.881639
575 0.715265
580 0.633863
585 0.491932
590 0.441751
595 0.403295
600 0.446028
Ex : 468
200 0.20146
205 0.183706
210 0.154549
215 0.196366
220 0.141519
225 0.146165
230 0.146688
235 0.122519
240 0.137795
245 0.158429
250 0.138927
255 0.128616
260 0.142993
265 0.135771
270 0.123771
275 0.128618
280 0.158398
285 0.147505
290 0.140665
295 0.165343
300 0.140765
305 0.175018
310 0.164397
315 0.11915
320 0.103547
325 0.104803
330 0.197189
335 0.212348
340 0.137441
345 0.13926
350 0.248189
355 0.135029
360 0.138772
365 0.127488
370 0.146942
375 0.152883
380 0.144626
385 0.172425
390 0.131897
395 0.160837
400 0.179215
405 0.184918
410 0.178401
415 0.152361
420 0.163048
425 0.176906
430 0.144635
435 0.177876
440 0.232059
445 0.243764
450 0.341846
455 10.951
460 177.677
465 282.792
470 69.1463
475 8.95872
480 2.08536
485 1.25715
490 1.18705
495 1.57319
500 1.49085
505 1.37874
510 1.18555
515 1.21062
520 1.23522
525 1.29124
530 1.60268
535 2.55247
540 2.78633
545 1.85192
550 1.43919
555 1.35267
560 1.19809
565 0.909248
570 0.851942
575 0.723159
580 0.509779
585 0.505491
590 0.40335
595 0.405753
600 0.206418
Ex : 473
200 0.0992178
205 0.1453
210 0.159384
215 0.127663
220 0.13884
225 0.140273
230 0.140464
235 0.110784
240 0.154082
245 0.132
250 0.180046
255 0.153807
260 0.135663
265 0.150215
270 0.141515
275 0.138845
280 0.132243
285 0.137356
290 0.203649
295 0.163143
300 0.139369
305 0.144121
310 0.15584
315 0.148033
320 0.151926
325 0.151321
330 0.112891
335 0.145199
340 0.159501
345 0.145372
350 0.115433
355 0.146404
360 0.176155
365 0.188826
370 0.164172
375 0.1671
380 0.12986
385 0.13843
390 0.137344
395 0.182315
400 0.179175
405 0.151611
410 0.167049
415 0.171622
420 0.17076
425 0.180962
430 0.238789
435 0.210917
440 0.203117
445 0.25163
450 0.286601
455 0.469902
460 12.9941
465 199.384
470 280.27
475 66.5538
480 8.58287
485 1.89417
490 1.21492
495 1.03482
500 1.3776
505 1.44658
510 1.23203
515 1.19717
520 1.12438
525 1.19186
530 1.17945
535 1.45371
540 2.24751
545 2.79559
550 1.96487
555 1.42266
560 1.31971
565 1.14481
570 0.876064
575 0.648799
580 0.537304
585 0.497091
590 0.445959
595 0.422858
600 0.898569
Ex : 478
200 0.14249
205 0.199301
210 0.142125
215 0.117987
220 0.138332
225 0.15563
230 0.184201
235 0.160158
240 0.191904
245 0.178669
250 0.178694
255 0.158012
260 0.181001
265 0.188056
270 0.212472
275 0.168032
280 0.188728
285 0.186648
290 0.163308
295 0.228494
300 0.164024
305 0.238858
310 0.18701
315 0.163793
320 0.20782
325 0.140876
330 0.132053
335 0.122187
340 0.155444
345 0.158985
350 0.142193
355 0.182465
360 0.182337
365 0.181965
370 0.225301
375 0.176719
380 0.170797
385 0.195298
390 0.166629
395 0.15409
400 0.230525
405 0.168602
410 0.165849
415 0.243321
420 0.182717
425 0.171808
430 0.248138
435 0.184994
440 0.254334
445 0.258155
450 0.326983
455 0.382235
460 0.548945
465 14.0968
470 205.808
475 294.514
480 72.6564
485 9.43525
490 2.08108
495 1.29075
500 1.02679
505 1.26411
510 1.40506
515 1.3082
520 1.31269
525 1.27996
530 1.1668
535 1.22424
540 1.30592
545 1.88348
550 2.59838
555 2.08801
560 1.39357
565 1.17378
570 1.08541
575 0.7781
580 0.620505
585 0.524833
590 0.468592
595 0.418863
600 0.256908
Ex : 483
200 0.19437
205 0.17626
210 0.160882
215 0.129982
220 0.16894
225 0.196865
230 0.187454
235 0.166078
240 0.220755
245 0.196017
250 0.171335
255 0.163667
260 0.226873
265 0.155055
270 0.163814
275 0.17296
280 0.193472
285 0.131334
290 0.137544
295 0.179805
300 0.164819
305 0.138079
310 0.160052
315 0.172491
320 0.147996
325 0.140192
330 0.20202
335 0.151471
340 0.120439
345 0.158733
350 0.143237
355 0.196922
360 0.229715
365 0.151851
370 0.135455
375 0.232893
380 0.137983
385 0.165344
390 0.13658
395 0.166477
400 0.200152
405 0.219384
410 0.18244
415 0.261061
420 0.170028
425 0.18873
430 0.214296
435 0.219457
440 0.316453
445 0.211013
450 0.229966
455 0.292784
460 0.29347
465 0.596328
470 11.9001
475 212.56
480 330.066
485 81.9554
490 10.4298
495 2.20834
500 1.16592
505 1.02725
510 1.24437
515 1.34077
520 1.34295
525 1.34718
530 1.12976
535 1.12012
540 1.08991
545 1.10944
550 1.33141
555 2.12831
560 2.33609
565 1.53673
570 1.00596
575 0.933511
580 0.768732
585 0.603678
590 0.434929
595 0.430983
600 0.308088
Ex : 488
200 0.15961
205 0.209428
210 0.220685
215 0.165296
220 0.215663
225 0.224838
230 0.197109
235 0.198615
240 0.199533
245 0.209245
250 0.211585
255 0.177869
260 0.159024
265 0.145502
270 0.146886
275 0.163507
280 0.212262
285 0.238955
290 0.199149
295 0.189431
300 0.183539
305 0.149122
310 0.222058
315 0.144126
320 0.14299
325 0.141476
330 0.178753
335 0.209823
340 0.184644
345 0.265292
350 0.14762
355 0.163577
360 0.172044
365 0.170672
370 0.183525
375 0.155007
380 0.218871
385 0.18385
390 0.189202
395 0.291872
400 0.232829
405 0.277307
410 0.202731
415 0.195631
420 0.252124
425 0.208343
430 0.279559
435 0.206561
440 0.247578
445 0.189776
450 0.266425
455 0.277426
460 0.317051
465 0.47134
470 0.5485
475 14.6402
480 229.788
485 322.495
490 76.1309
495 9.71976
500 2.08134
505 1.26256
510 1.15699
515 1.22467
520 1.44124
525 1.30255
530 1.26462
535 1.10296
540 1.08539
545 1.00915
550 1.05885
555 1.16022
560 1.64294
565 2.18251
570 1.46244
575 0.912842
580 0.779494
585 0.75956
590 0.548081
595 0.491178
600 0.106631
Ex : 493
200 0.204201
205 0.215052
210 0.158414
215 0.196479
220 0.188874
225 0.212746
230 0.200607
235 0.188896
240 0.194057
245 0.178074
250 0.210998
255 0.16373
260 0.159701
265 0.196088
270 0.199636
275 0.194402
280 0.155125
285 0.203554
290 0.151996
295 0.172316
300 0.226065
305 0.176139
310 0.226617
315 0.150333
320 0.173582
325 0.208856
330 0.123296
335 0.143038
340 0.153138
345 0.161521
350 0.191649
355 0.156009
360 0.220491
365 0.225329
370 0.173302
375 0.191156
380 0.231909
385 0.215219
390 0.149995
395 0.142695
400 0.226454
405 0.158376
410 0.238632
415 0.229705
420 0.203829
425 0.188115
430 0.24415
435 0.21793
440 0.187763
445 0.32704
450 0.195521
455 0.274485
460 0.238495
465 0.321926
470 0.388847
475 0.664264
480 13.6095
485 229.73
490 351.252
495 82.0103
500 10.3484
505 2.27794
510 1.21567
515 0.908224
520 1.10862
525 1.238
530 1.41953
535 1.3133
540 1.19246
545 1.10025
550 1.07698
555 1.01696
560 1.05066
565 1.13932
570 1.89099
575 1.5352
580 0.876667
585 0.657388
590 0.584231
595 0.499126
600 0.996916
Ex : 498
200 0.193488
205 0.209594
210 0.193034
215 0.217706
220 0.181377
225 0.238483
230 0.191638
235 0.233917
240 0.200428
245 0.159496
250 0.214544
255 0.214644
260 0.175538
265 0.181823
270 0.258645
275 0.218486
280 0.196789
285 0.240038
290 0.217552
295 0.25228
300 0.178537
305 0.196121
310 0.153062
315 0.184819
320 0.187206
325 0.191843
330 0.237582
335 0.205895
340 0.217967
345 0.219639
350 0.249543
355 0.238334
360 0.214346
365 0.230322
370 0.192124
375 0.225642
380 0.190917
385 0.189696
390 0.273375
395 0.20609
400 0.186558
405 0.247217
410 0.186116
415 0.173435
420 0.180165
425 0.206851
430 0.196747
435 0.222122
440 0.208485
445 0.267845
450 0.264447
455 0.242515
460 0.273327
465 0.343119
470 0.429511
475 0.359013
480 0.601838
485 16.9287
490 251.857
495 354.367
500 83.4392
505 10.5952
510 2.1799
515 1.25778
520 0.985315
525 1.19195
530 1.35305
535 1.28472
540 1.21133
545 1.0848
550 1.02225
555 0.968363
560 0.863398
565 0.770959
570 0.870761
575 1.25483
580 1.45376
585 0.813608
590 0.559745
595 0.546209
600 0.54826
Ex : 503
200 0.170581
205 0.198918
210 0.154738
215 0.223423
220 0.139949
225 0.201159
230 0.170607
235 0.17652
240 0.195231
245 0.1964
250 0.266263
255 0.23376
260 0.244831
265 0.176794
270 0.210467
275 0.263594
280 0.252041
285 0.19121
290 0.244878
295 0.237638
300 0.204658
305 0.189963
310 0.234557
315 0.267036
320 0.218736
325 0.222128
330 0.171026
335 0.193338
340 0.222837
345 0.181173
350 0.214076
355 0.21259
360 0.244784
365 0.174479
370 0.225584
375 0.231597
380 0.342448
385 0.248055
390 0.213005
395 0.190361
400 0.144915
405 0.272753
410 0.216575
415 0.190049
420 0.280736
425 0.178472
430 0.268314
435 0.254904
440 0.362304
445 0.178947
450 0.191065
455 0.273245
460 0.212957
465 0.311413
470 0.326521
475 0.325363
480 0.478539
485 0.61764
490 14.8786
495 249.285
500 361.644
505 84.0558
510 10.5433
515 2.26223
520 1.41624
525 1.25835
530 1.1643
535 1.28746
540 1.29943
545 1.16065
550 0.861755
555 0.863278
560 0.832457
565 0.866522
570 0.70679
575 0.783558
580 1.12788
585 1.26476
590 0.903542
595 0.561114
600 0.456425
Ex : 508
200 0.302507
205 0.223112
210 0.243564
215 0.153972
220 0.158624
225 0.246438
230 0.251473
235 0.234954
240 0.190781
245 0.189727
250 0.191457
255 0.155248
260 0.1817
265 0.227855
270 0.210297
275 0.21261
280 0.226509
285 0.161736
290 0.212386
295 0.254068
300 0.353133
305 0.274936
310 0.185535
315 0.272165
320 0.247526
325 0.183015
330 0.210993
335 0.214201
340 0.189424
345 0.193187
350 0.251383
355 0.262428
360 0.272301
365 0.204562
370 0.184949
375 0.243586
380 0.293843
385 0.283927
390 0.268148
395 0.212828
400 0.257964
405 0.258356
410 0.387986
415 0.248846
420 0.223341
425 0.260765
430 0.220408
435 0.217516
440 0.211647
445 0.226816
450 0.245476
455 0.181851
460 0.296481
465 0.295607
470 0.325916
475 0.415883
480 0.337978
485 0.383556
490 0.549994
495 17.0118
500 257.918
505 369.995
510 91.4597
515 11.5249
520 2.34901
525 1.37289
530 1.19788
535 1.19883
540 1.28521
545 1.2376
550 1.09182
555 0.961328
560 0.820063
565 0.703356
570 0.617929
575 0.625814
580 0.53208
585 0.668242
590 0.927135
595 0.863225
600 0.609813
Ex : 513
200 0.187715
205 0.181634
210 0.232633
215 0.209211
220 0.207303
225 0.226376
230 0.303292
235 0.250581
240 0.275904
245 0.205412
250 0.152545
255 0.196302
260 0.209833
265 0.160864
270 0.169338
275 0.258894
280 0.253895
285 0.289529
290 0.259616
295 0.241243
300 0.240063
305 0.215741
310 0.23955
315 0.182435
320 0.191563
325 0.294888
330 0.294967
335 0.190549
340 0.269833
345 0.189485
350 0.288019
355 0.194569
360 0.296904
365 0.205163
370 0.210708
375 0.242265
380 0.231117
385 0.174809
390 0.196758
395 0.287082
400 0.333063
405 0.189743
410 0.200456
415 0.252791
420 0.184403
425 0.316188
430 0.313943
435 0.267888
440 0.186897
445 0.274838
450 0.20967
455 0.255318
460 0.313207
465 0.2303
470 0.289889
475 0.263407
480 0.322599
485 0.266196
490 0.54956
495 0.578297
500 15.4247
505 256.782
510 376.171
515 93.5552
520 11.7789
525 2.35798
530 1.44506
535 1.12014
540 1.00884
545 1.03382
550 1.11837
555 1.12566
560 0.858898
565 0.63307
570 0.575094
575 0.640967
580 0.626024
585 0.519712
590 0.518004
595 0.667662
600 0.880125
Ex : 518
200 0.255601
205 0.191933
210 0.208678
215 0.179601
220 0.220866
225 0.2492
230 0.183344
235 0.227939
240 0.252417
245 0.230549
250 0.213153
255 0.273735
260 0.269826
265 0.289135
270 0.273933
275 0.233998
280 0.196911
285 0.218992
290 0.273558
295 0.245111
300 0.247406
305 0.274259
310 0.24913
315 0.195279
320 0.18465
325 0.179089
330 0.188188
335 0.210432
340 0.191482
345 0.213443
350 0.170384
355 0.173299
360 0.226058
365 0.20621
370 0.258735
375 0.247435
380 0.205255
385 0.274852
390 0.244954
395 0.270673
400 0.26214
405 0.247335
410 0.276319
415 0.24823
420 0.215067
425 0.359275
430 0.272653
435 0.279771
440 0.204415
445 0.208911
450 0.303616
455 0.249733
460 0.217588
465 0.284907
470 0.286379
475 0.385832
480 0.366116
485 0.369352
490 0.353911
495 0.548683
500 0.680061
505 16.0435
510 254.33
515 376.85
520 94.2363
525 11.9154
530 2.44581
535 1.22913
540 0.922736
545 1.06117
550 0.828848
555 1.0075
560 0.891219
565 0.785086
570 0.643534
575 0.654422
580 0.452366
585 0.546517
590 0.505344
595 0.345072
600 0.403926
Ex : 523
200 0.183916
205 0.253105
210 0.23215
215 0.318301
220 0.263203
225 0.256436
230 0.241515
235 0.212591
240 0.189162
245 0.25
250 0.245579
255 0.267042
260 0.200655
265 0.289571
270 0.25354
275 0.178136
280 0.279656
285 0.255498
290 0.307659
295 0.244265
300 0.208999
305 0.3108
310 0.279357
315 0.174409
320 0.275083
325 0.206017
330 0.321092
335 0.247614
340 0.164161
345 0.212744
350 0.224051
355 0.22627
360 0.201061
365 0.37954
370 0.27422
375 0.240166
380 0.218283
385 0.244767
390 0.250532
395 0.208719
400 0.169705
405 0.273563
410 0.262701
415 0.322471
420 0.247394
425 0.240883
430 0.282524
435 0.221804
440 0.308361
445 0.33794
450 0.259148
455 0.336596
460 0.328248
465 0.30851
470 0.303739
475 0.294087
480 0.278724
485 0.322609
490 0.387139
495 0.44206
500 0.432101
505 0.616392
510 14.736
515 242.866
520 381.627
525 98.7523
530 12.4894
535 2.34299
540 1.14635
545 0.992691
550 0.911521
555 0.848155
560 1.00592
565 0.903721
570 0.868465
575 0.708264
580 0.517216
585 0.442697
590 0.368184
595 0.387039
600 0.375824
Ex : 528
200 0.260691
205 0.27349
210 0.198951
215 0.225306
220 0.256869
225 0.228023
230 0.282344
235 0.248685
240 0.270953
245 0.213091
250 0.254849
255 0.22892
260 0.258208
265 0.305158
270 0.277406
275 0.266698
280 0.244212
285 0.253413
290 0.192898
295 0.240672
300 0.195546
305 0.315317
310 0.375251
315 0.260509
320 0.28874
325 0.213934
330 0.222137
335 0.254198
340 0.245253
345 0.3089
350 0.274958
355 0.451025
360 0.341537
365 0.296039
370 0.22947
375 0.260068
380 0.231315
385 0.256974
390 0.285221
395 0.253442
400 0.207099
405 0.214493
410 0.349718
415 0.3835
420 0.273129
425 0.274922
430 0.426846
435 0.271118
440 0.274763
445 0.283542
450 0.322942
455 0.258192
460 0.271966
465 0.24307
470 0.255661
475 0.274266
480 0.267078
485 0.25251
490 0.253335
495 0.263792
500 0.329374
505 0.631589
510 0.727033
515 14.184
520 246.623
525 377.109
530 97.3631
535 12.3557
540 2.34444
545 1.08261
550 0.8805
555 0.723586
560 0.731722
565 0.748429
570 0.809667
575 0.683513
580 0.510252
585 0.361811
590 0.411814
595 0.392165
600 0.317305
Ex : 533
200 0.263813
205 0.226845
210 0.331646
215 0.240419
220 0.246225
225 0.33828
230 0.260573
235 0.230099
240 0.262269
245 0.260098
250 0.24688
255 0.246888
260 0.258032
265 0.270873
270 0.223772
275 0.231615
280 0.185659
285 0.275532
290 0.197615
295 0.29439
300 0.24975
305 0.238112
310 0.236635
315 0.293389
320 0.298228
325 0.240054
330 0.274257
335 0.230705
340 0.269132
345 0.228471
350 0.190851
355 0.276956
360 0.230565
365 0.252822
370 0.163155
375 0.283427
380 0.279249
385 0.217984
390 0.342944
395 0.280607
400 0.174183
405 0.292833
410 0.219226
415 0.221437
420 0.317184
425 0.293025
430 0.326122
435 0.24387
440 0.338979
445 0.339691
450 0.302119
455 0.29189
460 0.28012
465 0.293111
470 0.338472
475 0.337983
480 0.355644
485 0.396392
490 0.373126
495 0.332677
500 0.332889
505 0.444077
510 0.602275
515 0.804631
520 14.8988
525 242.516
530 381.722
535 99.05
540 12.3274
545 2.10992
550 1.05627
555 0.851698
560 0.794565
565 0.690324
570 0.752691
575 0.727865
580 0.50339
585 0.481154
590 0.413034
595 0.416797
600 0.598437
Ex : 538
200 0.264725
205 0.301335
210 0.201634
215 0.396996
220 0.223927
225 0.284505
230 0.296012
235 0.308325
240 0.34217
245 0.274405
250 0.232974
255 0.251239
260 0.2478
265 0.241909
270 0.203579
275 0.2605
280 0.321848
285 0.285484
290 0.285427
295 0.228169
300 0.30841
305 0.257307
310 0.252801
315 0.308951
320 0.315815
325 0.319625
330 0.247793
335 0.255916
340 0.270266
345 0.278182
350 0.288937
355 0.303943
360 0.291597
365 0.333705
370 0.329044
375 0.289374
380 0.237718
385 0.270094
390 0.272167
395 0.287396
400 0.295356
405 0.234323
410 0.285488
415 0.398663
420 0.315909
425 0.284447
430 0.225581
435 0.262723
440 0.295953
445 0.274638
450 0.296285
455 0.291385
460 0.316789
465 0.307464
470 0.273163
475 0.243189
480 0.21799
485 0.320551
490 0.410296
495 0.345182
500 0.412443
505 0.372556
510 0.477818
515 0.455143
520 0.553104
525 11.8694
530 229.631
535 378.651
540 102.756
545 12.68
550 2.12248
555 0.818673
560 0.852308
565 0.633088
570 0.631545
575 0.52782
580 0.544
585 0.501757
590 0.449873
595 0.392668
600 2.00442
Ex : 543
200 0.280992
205 0.350569
210 0.261356
215 0.27917
220 0.248576
225 0.242557
230 0.237878
235 0.220351
240 0.176785
245 0.212042
250 0.2564
255 0.229602
260 0.257873
265 0.243636
270 0.225787
275 0.231738
280 0.245376
285 0.353193
290 0.273996
295 0.348474
300 0.244632
305 0.24348
310 0.232621
315 0.363838
320 0.251168
325 0.327067
330 0.278211
335 0.225894
340 0.307029
345 0.258928
350 0.267445
355 0.295535
360 0.292961
365 0.28684
370 0.302197
375 0.314888
380 0.388695
385 0.223817
390 0.305046
395 0.258314
400 0.261959
405 0.201641
410 0.24614
415 0.22794
420 0.293057
425 0.259706
430 0.299324
435 0.339988
440 0.401637
445 0.327636
450 0.305958
455 0.236205
460 0.341531
465 0.317978
470 0.345569
475 0.310464
480 0.353646
485 0.318261
490 0.32796
495 0.32465
500 0.319189
505 0.355431
510 0.407783
515 0.418427
520 0.583675
525 0.663649
530 10.7686
535 225.455
540 386.632
545 110.345
550 13.7368
555 2.35325
560 1.04434
565 0.644498
570 0.535314
575 0.516612
580 0.444496
585 0.678577
590 0.464934
595 0.444098
600 0.479031
Ex : 548
200 0.218712
205 0.271136
210 0.293783
215 0.32034
220 0.295525
225 0.272709
230 0.265877
235 0.259713
240 0.313111
245 0.22779
250 0.338721
255 0.233305
260 0.224393
265 0.294863
270 0.28481
275 0.279369
280 0.314263
285 0.260782
290 0.367876
295 0.257354
300 0.343102
305 0.287166
310 0.246268
315 0.276764
320 0.303616
325 0.241127
330 0.32878
335 0.23024
340 0.257589
345 0.285154
350 0.3101
355 0.267923
360 0.414714
365 0.279675
370 0.304039
375 0.359576
380 0.237826
385 0.419332
390 0.381584
395 0.348553
400 0.242915
405 0.296525
410 0.286565
415 0.340375
420 0.234731
425 0.209939
430 0.280381
435 0.281514
440 0.286009
445 0.350829
450 0.247394
455 0.286824
460 0.296115
465 0.240819
470 0.349945
475 0.28213
480 0.335496
485 0.301037
490 0.328898
495 0.324331
500 0.362171
505 0.375534
510 0.35425
515 0.399223
520 0.49768
525 0.464613
530 0.613469
535 12.3029
540 222.173
545 370.703
550 105.607
555 13.0256
560 2.04691
565 0.872098
570 0.779153
575 0.650601
580 0.480932
585 0.455736
590 0.391345
595 0.371143
600 0.0422347
Ex : 553
200 0.222608
205 0.275509
210 0.371014
215 0.241377
220 0.290752
225 0.35698
230 0.244582
235 0.321541
240 0.321503
245 0.351141
250 0.27203
255 0.300897
260 0.242555
265 0.375381
270 0.342369
275 0.395779
280 0.3335
285 0.278978
290 0.256122
295 0.259045
300 0.266356
305 0.344102
310 0.240044
315 0.311314
320 0.346125
325 0.265441
330 0.238681
335 0.279036
340 0.403179
345 0.216748
350 0.372181
355 0.258064
360 0.219232
365 0.282312
370 0.331955
375 0.28512
380 0.329041
385 0.343795
390 0.346348
395 0.326455
400 0.285693
405 0.27613
410 0.2848
415 0.300775
420 0.319012
425 0.388283
430 0.281315
435 0.304423
440 0.298459
445 0.377956
450 0.326689
455 0.334321
460 0.274706
465 0.335201
470 0.274068
475 0.360061
480 0.288492
485 0.259663
490 0.398057
495 0.335554
500 0.326592
505 0.264212
510 0.276884
515 0.284656
520 0.402303
525 0.419129
530 0.515281
535 0.582083
540 10.4741
545 208.379
550 355.195
555 103.261
560 12.5841
565 2.02544
570 0.773385
575 0.5455
580 0.470183
585 0.477401
590 0.415391
595 0.5295
600 0.346968
Ex : 558
200 0.312206
205 0.310856
210 0.350905
215 0.356543
220 0.299738
225 0.299163
230 0.322964
235 0.303864
240 0.284838
245 0.296606
250 0.358917
255 0.308976
260 0.333962
265 0.392973
270 0.352138
275 0.267251
280 0.342965
285 0.27815
290 0.267127
295 0.241131
300 0.306724
305 0.300472
310 0.325133
315 0.299383
320 0.231844
325 0.293839
330 0.360138
335 0.349227
340 0.250078
345 0.187967
350 0.275819
355 0.245886
360 0.340698
365 0.359916
370 0.294834
375 0.305412
380 0.262957
385 0.358465
390 0.422717
395 0.266403
400 0.312052
405 0.260482
410 0.300614
415 0.2312
420 0.30886
425 0.22588
430 0.309481
435 0.314897
440 0.281426
445 0.309395
450 0.25319
455 0.229883
460 0.310832
465 0.260874
470 0.336346
475 0.291731
480 0.274948
485 0.276485
490 0.391002
495 0.307616
500 0.287803
505 0.309801
510 0.373488
515 0.342319
520 0.393462
525 0.4637
530 0.462519
535 0.370571
540 0.62332
545 9.97795
550 203.982
555 354.375
560 103.422
565 12.7109
570 1.9342
575 0.62625
580 0.596541
585 0.451634
590 0.553619
595 0.367848
600 0.701237
Ex : 563
200 0.237637
205 0.273766
210 0.344194
215 0.348753
220 0.276473
225 0.245254
230 0.382337
235 0.264598
240 0.362304
245 0.263505
250 0.347166
255 0.312144
260 0.283653
265 0.329748
270 0.334196
275 0.311552
280 0.416988
285 0.366411
290 0.331847
295 0.350549
300 0.259819
305 0.26748
310 0.300451
315 0.269584
320 0.403044
325 0.344335
330 0.431079
335 0.279654
340 0.301261
345 0.272028
350 0.336025
355 0.280532
360 0.367773
365 0.368049
370 0.252211
375 0.390767
380 0.381654
385 0.304063
390 0.289669
395 0.318929
400 0.428197
405 0.308101
410 0.342791
415 0.360867
420 0.308464
425 0.351167
430 0.307791
435 0.352696
440 0.35165
445 0.331952
450 0.348814
455 0.370383
460 0.353247
465 0.33696
470 0.253473
475 0.32803
480 0.4411
485 0.241643
490 0.456934
495 0.349384
500 0.319131
505 0.286989
510 0.313543
515 0.314702
520 0.383312
525 0.348541
530 0.433516
535 0.445378
540 0.474963
545 0.611926
550 10.0036
555 194.855
560 339.459
565 103.42
570 12.6703
575 2.08367
580 0.738057
585 0.558467
590 0.530962
595 0.425777
600 0.815045
Ex : 568
200 0.279352
205 0.310178
210 0.365227
215 0.318458
220 0.352809
225 0.360577
230 0.379072
235 0.355651
240 0.217984
245 0.388899
250 0.23601
255 0.327819
260 0.364702
265 0.301487
270 0.372367
275 0.308344
280 0.333891
285 0.320254
290 0.252866
295 0.308018
300 0.295875
305 0.363851
310 0.296019
315 0.317293
320 0.375426
325 0.260881
330 0.306472
335 0.278758
340 0.305077
345 0.405609
350 0.324436
355 0.320821
360 0.411561
365 0.331481
370 0.367999
375 0.333963
380 0.351504
385 0.342192
390 0.254445
395 0.304031
400 0.323456
405 0.303734
410 0.383116
415 0.423399
420 0.387628
425 0.35961
430 0.263571
435 0.340083
440 0.227483
445 0.269331
450 0.347237
455 0.405325
460 0.405124
465 0.372477
470 0.357252
475 0.336055
480 0.31771
485 0.280075
490 0.298466
495 0.347277
500 0.356582
505 0.406014
510 0.44083
515 0.451569
520 0.428955
525 0.396528
530 0.418132
535 0.502935
540 0.534555
545 0.539914
550 0.685623
555 7.43969
560 177.467
565 331.233
570 102.161
575 12.7295
580 2.09066
585 0.742054
590 0.508079
595 0.359284
600 0.0866247
Ex : 573
200 0.245696
205 0.313593
210 0.28654
215 0.389216
220 0.395353
225 0.372457
230 0.386635
235 0.364712
240 0.282281
245 0.245424
250 0.222574
255 0.195606
260 0.330565
265 0.274843
270 0.297123
275 0.294269
280 0.260105
285 0.410501
290 0.476732
295 0.32462
300 0.510894
305 0.290249
310 0.24417
315 0.382798
320 0.330615
325 0.325604
330 0.347358
335 0.334976
340 0.29588
345 0.280826
350 0.415052
355 0.290555
360 0.255768
365 0.458413
370 0.366819
375 0.303867
380 0.361632
385 0.354251
390 0.307255
395 0.344206
400 0.326067
405 0.264542
410 0.351518
415 0.446441
420 0.277572
425 0.32196
430 0.297963
435 0.329448
440 0.451332
445 0.340005
450 0.249652
455 0.279991
460 0.264573
465 0.367949
470 0.326438
475 0.304309
480 0.384509
485 0.292935
490 0.207996
495 0.288358
500 0.297336
505 0.373868
510 0.396662
515 0.4356
520 0.35255
525 0.459973
530 0.469953
535 0.436748
540 0.395778
545 0.477172
550 0.507567
555 0.646424
560 6.91826
565 149.665
570 307.118
575 96.7076
580 11.8801
585 1.85957
590 0.587115
595 0.576748
600 0.740555
Ex : 578
200 0.407933
205 0.261766
210 0.306538
215 0.268382
220 0.318195
225 0.324764
230 0.393038
235 0.272076
240 0.43779
245 0.313417
250 0.380962
255 0.259027
260 0.364153
265 0.376744
270 0.426013
275 0.321201
280 0.349117
285 0.346679
290 0.226818
295 0.347226
300 0.244633
305 0.337299
310 0.280795
315 0.282086
320 0.295282
325 0.386961
330 0.366198
335 0.411645
340 0.388927
345 0.254081
350 0.360753
355 0.415668
360 0.382696
365 0.361999
370 0.410709
375 0.281682
380 0.237352
385 0.486704
390 0.366563
395 0.431706
400 0.382892
405 0.249093
410 0.401759
415 0.329425
420 0.406296
425 0.289515
430 0.285525
435 0.454281
440 0.401402
445 0.390281
450 0.276606
455 0.366723
460 0.295982
465 0.393607
470 0.373132
475 0.456379
480 0.360693
485 0.408485
490 0.412641
495 0.327744
500 0.344375
505 0.292184
510 0.343105
515 0.41967
520 0.273202
525 0.265238
530 0.295694
535 0.386777
540 0.388144
545 0.414766
550 0.404212
555 0.468864
560 0.438511
565 5.86293
570 137.132
575 268.456
580 84.7839
585 10.2982
590 1.53151
595 0.49038
600 1.2275
Ex : 583
200 0.296616
205 0.342011
210 0.319358
215 0.365558
220 0.278869
225 0.302232
230 0.349564
235 0.323145
240 0.344484
245 0.358252
250 0.265217
255 0.361934
260 0.32129
265 0.329837
270 0.391098
275 0.3178
280 0.203736
285 0.333178
290 0.38962
295 0.40457
300 0.346625
305 0.293493
310 0.405213
315 0.269213
320 0.275746
325 0.196055
330 0.200808
335 0.38686
340 0.278484
345 0.277801
350 0.392318
355 0.26849
360 0.388591
365 0.308896
370 0.340102
375 0.35331
380 0.329281
385 0.374657
390 0.318362
395 0.335564
400 0.283805
405 0.284739
410 0.371093
415 0.379992
420 0.334457
425 0.28778
430 0.320206
435 0.409197
440 0.240537
445 0.204791
450 0.291089
455 0.314048
460 0.328182
465 0.483311
470 0.376141
475 0.343485
480 0.255289
485 0.268354
490 0.316491
495 0.2426
500 0.3268
505 0.393207
510 0.385604
515 0.344303
520 0.359867
525 0.356082
530 0.403153
535 0.393613
540 0.468911
545 0.349993
550 0.448288
555 0.535795
560 0.648925
565 0.652572
570 4.80952
575 124.994
580 235.811
585 70.068
590 8.71127
595 1.45633
600 0.814775
Ex : 588
200 0.405341
205 0.329802
210 0.291926
215 0.38904
220 0.416067
225 0.34483
230 0.361218
235 0.290955
240 0.27404
245 0.310214
250 0.318018
255 0.413836
260 0.407066
265 0.373637
270 0.311837
275 0.25475
280 0.288865
285 0.287382
290 0.298503
295 0.330535
300 0.340223
305 0.346588
310 0.331273
315 0.372401
320 0.299354
325 0.274428
330 0.308523
335 0.262427
340 0.263436
345 0.427604
350 0.354379
355 0.382738
360 0.344638
365 0.339394
370 0.306172
375 0.315366
380 0.370341
385 0.379266
390 0.418667
395 0.361253
400 0.32863
405 0.364359
410 0.282448
415 0.314587
420 0.395203
425 0.35609
430 0.332643
435 0.274093
440 0.37542
445 0.367195
450 0.320442
455 0.286193
460 0.2891
465 0.359794
470 0.38221
475 0.271144
480 0.328959
485 0.28284
490 0.283409
495 0.29444
500 0.275641
505 0.400796
510 0.342382
515 0.413613
520 0.384727
525 0.443607
530 0.479274
535 0.360863
540 0.302025
545 0.297254
550 0.35654
555 0.385562
560 0.368536
565 0.404046
570 0.631749
575 4.48042
580 106.495
585 205.533
590 62.3235
595 7.75383
600 3.76095
Ex : 593
200 0.398181
205 0.259322
210 0.427818
215 0.323823
220 0.245453
225 0.3108
230 0.392247
235 0.452586
240 0.337968
245 0.355257
250 0.273613
255 0.255455
260 0.337853
265 0.279132
270 0.302642
275 0.381908
280 0.434343
285 0.372173
290 0.357221
295 0.261685
300 0.307387
305 0.314783
310 0.262939
315 0.341501
320 0.280236
325 0.382205
330 0.438983
335 0.308006
340 0.337847
345 0.317872
350 0.353514
355 0.295565
360 0.342742
365 0.325034
370 0.332071
375 0.3492
380 0.322298
385 0.365493
390 0.329434
395 0.379129
400 0.313999
405 0.380119
410 0.344258
415 0.375343
420 0.31656
425 0.384249
430 0.351845
435 0.324697
440 0.353949
445 0.439426
450 0.315532
455 0.402403
460 0.304824
465 0.458767
470 0.343804
475 0.298895
480 0.386078
485 0.513549
490 0.318732
495 0.334966
500 0.380186
505 0.320659
510 0.31114
515 0.3219
520 0.432621
525 0.324436
530 0.312924
535 0.351178
540 0.537377
545 0.432601
550 0.304594
555 0.321375
560 0.429612
565 0.422328
570 0.524136
575 0.505213
580 3.74988
585 92.016
590 175.533
595 53.6302
600 8.13133
Ex : 598
200 0.438633
205 0.371533
210 0.293242
215 0.417908
220 0.359562
225 0.312221
230 0.388462
235 0.376594
240 0.388324
245 0.315192
250 0.406698
255 0.344132
260 0.35085
265 0.385225
270 0.282802
275 0.296182
280 0.275729
285 0.377683
290 0.421566
295 0.332782
300 0.36978
305 0.40445
310 0.416586
315 0.310177
320 0.424492
325 0.421242
330 0.279273
335 0.28957
340 0.368196
345 0.334965
350 0.258
355 0.331876
360 0.338738
365 0.476308
370 0.330913
375 0.32935
380 0.491262
385 0.429103
390 0.417596
395 0.378006
400 0.286431
405 0.368481
410 0.405768
415 0.404385
420 0.448792
425 0.305226
430 0.412934
435 0.366117
440 0.383589
445 0.368226
450 0.321888
455 0.273705
460 0.257819
465 0.390856
470 0.508339
475 0.414289
480 0.31767
485 0.372757
490 0.333248
495 0.251407
500 0.323568
505 0.468497
510 0.360057
515 0.529562
520 0.230622
525 0.373113
530 0.347543
535 0.297886
540 0.326629
545 0.406907
550 0.498887
555 0.398619
560 0.371814
565 0.479918
570 0.526956
575 0.526538
580 0.607807
585 3.5947
590 80.5532
595 150.734
600 91.7049
Ex : 603
200 0.311749
205 0.329667
210 0.377653
215 0.23852
220 0.284806
225 0.268397
230 0.320347
235 0.358237
240 0.264702
245 0.330023
250 0.527796
255 0.485938
260 0.253525
265 0.225361
270 0.406112
275 0.377867
280 0.440791
285 0.32608
290 0.364481
295 0.477892
300 0.354054
305 0.473321
310 0.312912
315 0.391162
320 0.363768
325 0.275045
330 0.387255
335 0.365043
340 0.304395
345 0.395164
350 0.348463
355 0.345991
360 0.390451
365 0.531853
370 0.540369
375 0.324167
380 0.444681
385 0.275279
390 0.451691
395 0.352658
400 0.357416
405 0.342433
410 0.359236
415 0.397031
420 0.552006
425 0.468957
430 0.310679
435 0.382393
440 0.378535
445 0.328551
450 0.393436
455 0.343709
460 0.294782
465 0.425759
470 0.362965
475 0.522178
480 0.36921
485 0.302377
490 0.515842
495 0.384192
500 0.463216
505 0.422457
510 0.396393
515 0.357539
520 0.45256
525 0.358664
530 0.331419
535 0.464725
540 0.320782
545 0.31758
550 0.408439
555 0.546571
560 0.467749
565 0.383328
570 0.39589
575 0.380189
580 0.472392
585 0.631896
590 3.32207
595 69.4658
600 141.527
