File format V 1.0
ven. 13. janv. 19:16:33 2017
Operator : 
Comments : 

=============================================
SpectroFluorometer parameters
Mode : 3D measurement
Data : Fluorescence
Phospho. : Ordinary
Spectrum : Fluorescence

Scan speed : 2400 nm/mn
Response : 100 ms
PM Voltage : 700 V
Shutter : On

Lambda Ex. Start : 203
Lambda Ex. End : 603
Lambda Ex. Step : 5
Ex. Slit : 5 nm

Lambda Em. Start : 200
Lambda Em. End : 600
Lambda Em. Step : 5
Em. Slit : 5 nm

Repetition : 1
Decal lambda em : 10
=============================================
DATA
Ex : 203
200 6.28837
205 7.74319
210 7.32626
215 4.52622
220 6.55659
225 5.88525
230 4.66994
235 4.10008
240 6.15889
245 5.15318
250 5.37693
255 5.69113
260 6.58831
265 5.82802
270 2.8623
275 7.45445
280 6.11463
285 6.38049
290 4.63508
295 4.19072
300 5.09589
305 7.30437
310 5.54783
315 5.84406
320 4.82803
325 4.96783
330 5.87006
335 6.42832
340 5.32138
345 3.4923
350 3.96004
355 3.50848
360 5.91341
365 7.65573
370 6.74128
375 5.14751
380 3.75565
385 6.38319
390 5.76261
395 9.24913
400 5.90756
405 4.71761
410 5.67014
415 5.30207
420 5.40931
425 8.64573
430 6.95181
435 7.19145
440 7.02179
445 7.82211
450 4.9537
455 6.29505
460 8.27563
465 6.34758
470 7.5294
475 6.54329
480 7.44652
485 4.88588
490 4.18287
495 9.06232
500 8.07617
505 5.40118
510 6.41864
515 6.83827
520 4.68764
525 6.88113
530 4.58567
535 4.67106
540 6.50154
545 5.0899
550 7.1607
555 3.68271
560 4.78254
565 6.0917
570 5.40275
575 6.28249
580 8.39001
585 6.68609
590 6.18668
595 6.92401
600 13.8594
Ex : 208
200 4.57277
205 3.88631
210 6.02777
215 4.99516
220 5.90206
225 6.45573
230 6.01919
235 7.54452
240 8.87235
245 5.01034
250 4.72953
255 6.53063
260 4.55466
265 6.41722
270 5.48869
275 5.27389
280 7.64569
285 4.58129
290 4.99435
295 4.45919
300 3.01228
305 4.2252
310 6.81444
315 4.71037
320 3.46132
325 4.35226
330 3.84688
335 5.94284
340 5.01992
345 4.29839
350 6.12783
355 5.48282
360 6.6424
365 5.1236
370 5.84643
375 5.6372
380 6.90262
385 6.63094
390 4.20871
395 4.84479
400 5.67401
405 5.38765
410 6.95537
415 5.07013
420 6.1241
425 4.6409
430 7.84242
435 6.20523
440 4.59115
445 6.18994
450 7.13472
455 5.84288
460 6.08244
465 4.70962
470 7.8336
475 5.14684
480 9.74895
485 7.09537
490 6.0348
495 5.93546
500 4.34908
505 5.84112
510 6.09432
515 4.6753
520 5.21739
525 6.91364
530 7.67
535 5.58676
540 8.17661
545 5.06009
550 5.81953
555 6.86977
560 6.34861
565 3.82624
570 6.8757
575 6.60605
580 5.97828
585 6.3079
590 8.029
595 7.42268
600 0.844673
Ex : 213
200 7.33333
205 5.13952
210 4.96297
215 6.17179
220 4.28074
225 3.26584
230 5.89929
235 6.71248
240 5.98885
245 8.01283
250 5.06195
255 6.4695
260 4.79833
265 5.28864
270 4.45767
275 7.30149
280 6.90016
285 5.63538
290 4.49239
295 5.45791
300 5.71358
305 8.13778
310 7.10008
315 5.38466
320 9.16175
325 5.65083
330 6.78944
335 6.01666
340 3.53051
345 5.34694
350 6.054
355 6.46144
360 6.84845
365 7.63777
370 4.12634
375 4.88337
380 5.29731
385 4.63464
390 4.6799
395 4.87579
400 4.88109
405 4.7749
410 5.52879
415 2.73487
420 5.01891
425 5.66035
430 5.4253
435 6.73544
440 5.33383
445 3.26972
450 6.56291
455 6.95824
460 5.17792
465 6.57612
470 6.60761
475 4.69956
480 4.96982
485 8.40438
490 8.40551
495 7.50598
500 5.61851
505 5.83183
510 5.2711
515 6.59401
520 6.60847
525 8.63881
530 7.45672
535 7.14141
540 6.4143
545 3.89494
550 5.61765
555 7.15451
560 6.26642
565 5.44761
570 4.92074
575 4.79686
580 7.55376
585 6.30169
590 7.0059
595 5.02121
600 0.571394
Ex : 218
200 5.39565
205 5.48402
210 4.81375
215 5.38124
220 3.68687
225 6.41029
230 6.72507
235 3.353
240 3.9595
245 4.9232
250 5.69198
255 6.2304
260 5.6505
265 4.79395
270 4.88244
275 4.82667
280 4.61414
285 3.39902
290 4.21126
295 5.02102
300 4.89011
305 5.70604
310 5.07166
315 5.36264
320 4.25547
325 7.20732
330 5.63464
335 5.86858
340 4.43419
345 4.02147
350 5.13437
355 6.71891
360 4.30575
365 3.88777
370 4.538
375 4.55971
380 6.57786
385 10.5818
390 6.61891
395 4.97873
400 6.84742
405 5.69764
410 5.50793
415 5.70194
420 6.60147
425 8.21314
430 6.97544
435 6.38305
440 8.77131
445 3.88045
450 4.06961
455 7.50462
460 12.8744
465 6.239
470 5.92825
475 7.89963
480 10.2779
485 6.36373
490 5.38584
495 6.62168
500 8.13855
505 9.40837
510 5.90947
515 4.17607
520 4.20932
525 5.2928
530 4.46089
535 6.34077
540 7.05643
545 5.29996
550 5.12909
555 3.9794
560 5.41068
565 4.51167
570 7.46378
575 7.21162
580 5.72157
585 2.98148
590 5.14602
595 5.87797
600 17.0637
Ex : 223
200 5.27313
205 4.51758
210 3.69742
215 5.09346
220 4.53128
225 3.86264
230 5.71631
235 5.13715
240 5.74104
245 4.29874
250 6.87068
255 5.25822
260 3.94369
265 4.84587
270 4.08043
275 6.1723
280 8.18678
285 6.0684
290 3.77355
295 8.07046
300 6.49744
305 6.8983
310 5.27904
315 4.12149
320 6.42559
325 3.55978
330 5.5467
335 4.7775
340 4.21033
345 5.78473
350 8.3264
355 7.29864
360 5.23696
365 4.21953
370 6.21419
375 4.78044
380 6.59435
385 5.92122
390 5.91519
395 7.46735
400 6.96419
405 7.19825
410 7.69814
415 8.16652
420 6.98308
425 6.00992
430 5.98071
435 4.9336
440 4.812
445 9.36101
450 7.06576
455 3.68422
460 7.55299
465 8.36784
470 7.51912
475 4.96547
480 6.27048
485 4.26618
490 4.5787
495 7.83832
500 8.00523
505 5.80861
510 5.36353
515 4.41728
520 4.4886
525 7.39716
530 8.44767
535 6.31792
540 6.25065
545 6.34416
550 5.7033
555 5.61878
560 7.12028
565 5.71878
570 3.63833
575 5.77406
580 4.52303
585 3.96841
590 6.28987
595 3.83204
600 10.7751
Ex : 228
200 7.17826
205 5.86453
210 4.21985
215 7.72765
220 6.17318
225 5.10227
230 5.41654
235 5.1907
240 3.39508
245 4.97491
250 6.29177
255 6.66077
260 6.40797
265 5.40884
270 8.03992
275 4.12194
280 3.87911
285 5.91944
290 6.31075
295 5.52841
300 5.07561
305 5.51714
310 3.61294
315 6.28518
320 5.98711
325 6.92749
330 5.57841
335 4.606
340 6.6612
345 6.58481
350 9.00401
355 6.05033
360 5.9077
365 6.19282
370 3.87446
375 7.75841
380 4.06636
385 5.2047
390 5.62044
395 4.99543
400 4.0537
405 4.3744
410 6.53185
415 5.08856
420 7.44714
425 5.47625
430 4.81321
435 6.79429
440 5.97298
445 4.76794
450 3.6582
455 3.77255
460 4.66717
465 4.28467
470 4.63662
475 6.12984
480 4.67019
485 4.90683
490 5.58536
495 5.27491
500 6.21029
505 6.27713
510 4.22336
515 5.31234
520 5.63493
525 4.93126
530 4.59376
535 3.6564
540 8.3033
545 5.47347
550 2.90453
555 6.25974
560 4.62451
565 5.59504
570 4.60031
575 4.88777
580 7.32063
585 6.49951
590 4.19262
595 4.35425
600 0.495497
Ex : 233
200 4.45122
205 5.93857
210 4.81514
215 4.89215
220 6.44182
225 4.27064
230 3.92952
235 4.01815
240 4.49283
245 4.93107
250 5.42996
255 4.20956
260 6.38824
265 7.48473
270 5.7871
275 4.17407
280 4.19633
285 3.43849
290 4.28544
295 3.70579
300 5.52593
305 5.31895
310 2.86753
315 6.03304
320 4.80948
325 3.15052
330 4.09583
335 3.44318
340 4.13675
345 4.30849
350 4.82003
355 5.3325
360 4.34696
365 4.11575
370 5.06801
375 5.49079
380 7.2301
385 6.96854
390 5.1128
395 6.1169
400 5.28154
405 4.39141
410 5.57656
415 7.25722
420 6.58241
425 3.93282
430 8.65408
435 5.24755
440 6.65597
445 5.25095
450 6.1044
455 4.8817
460 5.18477
465 6.67455
470 6.19924
475 3.81238
480 5.46507
485 4.83137
490 2.90672
495 6.16045
500 8.13451
505 5.39714
510 7.41688
515 5.56295
520 3.99768
525 4.82735
530 3.83307
535 4.81182
540 5.45411
545 4.93352
550 4.85581
555 6.71813
560 4.95801
565 6.82988
570 6.03905
575 5.54423
580 4.10157
585 3.5484
590 6.9038
595 5.31274
600 0.60457
Ex : 238
200 3.68182
205 6.09385
210 4.03805
215 4.96267
220 3.19608
225 2.74785
230 2.82094
235 2.34753
240 4.06946
245 3.65276
250 4.41887
255 6.31241
260 3.22221
265 4.28938
270 6.86285
275 3.03705
280 4.58625
285 3.53952
290 4.48971
295 6.23125
300 4.57616
305 7.60031
310 6.07844
315 5.59865
320 2.57726
325 6.22556
330 4.35631
335 4.98476
340 4.00304
345 5.09005
350 4.54329
355 5.6584
360 4.4391
365 5.19964
370 4.94942
375 5.97748
380 5.3535
385 3.96831
390 7.00883
395 4.29193
400 7.03876
405 4.30019
410 3.1834
415 6.2065
420 4.5204
425 3.90189
430 4.77356
435 4.97423
440 4.80979
445 5.66953
450 3.12982
455 6.00111
460 5.70242
465 4.575
470 4.27735
475 3.61907
480 7.18217
485 3.69578
490 4.3052
495 4.11897
500 8.43157
505 4.9004
510 7.30187
515 5.94603
520 6.53145
525 4.48072
530 5.63999
535 5.72517
540 5.05838
545 4.93175
550 4.29451
555 3.82017
560 4.82762
565 4.21666
570 4.45293
575 4.94105
580 4.99993
585 4.04509
590 3.45451
595 5.28066
600 3.59186
Ex : 243
200 4.63551
205 3.27648
210 4.24999
215 3.2445
220 3.75588
225 4.17789
230 5.34955
235 4.92646
240 3.56842
245 2.91549
250 5.20446
255 3.0997
260 6.99057
265 6.00513
270 5.42455
275 4.25831
280 2.89347
285 3.1788
290 2.99291
295 3.79594
300 3.74713
305 3.07901
310 3.79005
315 3.7478
320 5.36182
325 5.10757
330 3.90088
335 3.15701
340 4.82842
345 4.17644
350 3.86841
355 3.51238
360 5.42248
365 3.40917
370 5.41165
375 3.25695
380 2.84449
385 3.49797
390 4.09943
395 4.44159
400 4.42674
405 4.83992
410 4.85721
415 5.83543
420 6.19241
425 3.8279
430 5.04782
435 4.53163
440 3.55577
445 5.45688
450 6.09696
455 4.89352
460 5.30417
465 4.52067
470 9.2216
475 4.67126
480 4.04494
485 6.06206
490 3.37595
495 3.90574
500 6.03483
505 4.37458
510 4.01891
515 5.8287
520 3.72807
525 4.45719
530 4.41712
535 3.63149
540 4.6894
545 4.16505
550 3.51365
555 5.26951
560 5.6469
565 4.37037
570 3.47873
575 4.94786
580 4.2851
585 3.53559
590 4.63418
595 4.85411
600 0.552379
Ex : 248
200 3.12813
205 2.77473
210 2.89311
215 2.97725
220 4.51165
225 3.97114
230 4.65118
235 2.72258
240 3.71325
245 3.02375
250 4.0799
255 3.18047
260 4.44516
265 3.138
270 3.9097
275 3.75529
280 2.96968
285 2.66823
290 4.65616
295 4.66197
300 3.95769
305 2.75246
310 4.06684
315 4.50156
320 4.12704
325 2.34108
330 2.7066
335 3.6605
340 4.18731
345 2.61307
350 3.27211
355 3.94971
360 3.93571
365 6.26856
370 6.11607
375 3.38036
380 3.74746
385 3.5712
390 4.01666
395 3.51665
400 3.21107
405 2.81123
410 2.77568
415 4.36601
420 4.09472
425 4.37249
430 4.97417
435 3.62586
440 4.60445
445 4.48776
450 3.13848
455 3.89948
460 3.73828
465 4.36126
470 5.33286
475 4.14172
480 4.12299
485 4.53376
490 4.62882
495 4.15423
500 4.45559
505 3.53011
510 5.21575
515 4.14582
520 4.33633
525 3.03391
530 2.89901
535 3.87721
540 3.09726
545 4.88024
550 3.72
555 3.42771
560 3.40572
565 2.56117
570 2.34916
575 3.34612
580 3.56294
585 4.61231
590 3.9378
595 3.49603
600 4.82885
Ex : 253
200 2.42389
205 3.0322
210 2.65736
215 3.95096
220 2.25235
225 2.75779
230 3.24679
235 3.03233
240 2.34554
245 3.5677
250 2.13821
255 4.76446
260 3.50266
265 2.60015
270 2.87781
275 3.03759
280 3.15877
285 3.94544
290 2.88815
295 3.0855
300 4.15796
305 2.32153
310 2.29813
315 2.2795
320 2.81881
325 2.68468
330 2.27388
335 4.28908
340 3.70572
345 3.65732
350 3.1798
355 3.58849
360 4.53603
365 3.20249
370 1.89534
375 2.2204
380 3.39447
385 2.47823
390 3.73142
395 3.85894
400 5.47558
405 3.7612
410 4.08971
415 4.17171
420 3.91654
425 3.72002
430 3.02127
435 4.10372
440 3.35288
445 3.64076
450 3.57127
455 4.49158
460 4.27803
465 5.51646
470 3.37542
475 5.27629
480 2.8127
485 3.15118
490 3.34381
495 4.36198
500 3.23517
505 3.4773
510 2.66519
515 4.06045
520 5.01225
525 3.31092
530 3.25094
535 3.2215
540 3.20495
545 3.62637
550 3.06479
555 3.30789
560 2.83514
565 2.88108
570 3.79289
575 5.36031
580 2.33235
585 3.53851
590 2.16647
595 3.08951
600 0.351575
Ex : 258
200 2.66928
205 1.99324
210 1.80613
215 1.79209
220 2.507
225 2.24747
230 3.80398
235 2.7516
240 2.202
245 2.44774
250 1.70785
255 3.00418
260 2.67121
265 1.96365
270 1.48604
275 2.60574
280 1.52537
285 1.98926
290 2.12243
295 2.50607
300 2.77872
305 1.86053
310 2.28237
315 1.88092
320 1.75891
325 2.10694
330 2.2239
335 2.08916
340 1.85386
345 2.72703
350 4.04124
355 2.9303
360 2.45782
365 2.28783
370 3.06354
375 2.57289
380 3.10337
385 2.66034
390 2.3192
395 3.33654
400 2.47323
405 2.80713
410 4.14825
415 2.88507
420 2.83978
425 4.17849
430 2.78136
435 2.44584
440 3.27671
445 3.03149
450 3.60397
455 3.82533
460 2.82718
465 2.61471
470 3.24107
475 2.50136
480 1.90621
485 2.18009
490 3.84383
495 2.69758
500 1.64746
505 3.58344
510 2.91144
515 3.7515
520 3.12048
525 3.0466
530 2.66636
535 3.0152
540 2.23988
545 2.3594
550 1.8867
555 2.19811
560 2.55013
565 1.59455
570 2.66957
575 4.31355
580 1.86864
585 2.57131
590 3.06562
595 2.01028
600 0.228762
Ex : 263
200 1.25881
205 1.65752
210 1.76363
215 2.12585
220 1.42948
225 1.50323
230 1.97665
235 1.71771
240 1.76535
245 1.22972
250 1.96799
255 1.61252
260 1.99668
265 2.59819
270 1.65191
275 1.46544
280 1.80251
285 1.55717
290 2.1332
295 2.39633
300 3.19122
305 1.87283
310 1.96239
315 2.22522
320 2.74945
325 1.36046
330 2.02066
335 2.23942
340 1.54902
345 2.23034
350 2.70853
355 2.83783
360 2.98571
365 2.03832
370 2.04739
375 2.02188
380 1.8022
385 2.36333
390 2.35333
395 1.74118
400 1.95155
405 2.41662
410 2.39159
415 3.12785
420 2.73957
425 1.6848
430 2.10317
435 2.40759
440 2.7739
445 2.51537
450 2.20753
455 2.17336
460 2.41941
465 1.94019
470 1.91816
475 2.50101
480 3.03536
485 2.18807
490 2.62833
495 1.92541
500 2.63124
505 1.90369
510 2.50793
515 2.28525
520 2.70714
525 3.22635
530 1.92598
535 2.39995
540 1.81704
545 1.97236
550 1.16491
555 1.91992
560 2.22289
565 2.6249
570 3.21348
575 1.42995
580 1.28951
585 2.63145
590 2.07599
595 1.74499
600 1.36172
Ex : 268
200 1.63603
205 2.11991
210 1.64194
215 1.12803
220 1.46454
225 0.808279
230 1.58226
235 2.11666
240 1.78791
245 1.94858
250 1.48097
255 1.16081
260 2.28493
265 2.3153
270 2.05129
275 1.52177
280 2.31465
285 1.25023
290 1.45879
295 1.18476
300 1.10279
305 1.4336
310 1.78516
315 1.25503
320 1.30616
325 1.45872
330 1.17444
335 2.14057
340 2.22964
345 1.62973
350 1.52349
355 1.50651
360 1.75494
365 1.61655
370 2.27509
375 2.14925
380 1.65803
385 2.25136
390 2.47224
395 2.25319
400 1.85375
405 2.20299
410 2.04823
415 2.1461
420 2.20847
425 1.98142
430 2.29911
435 3.00417
440 2.31836
445 2.54463
450 2.11709
455 2.29227
460 2.22958
465 1.83708
470 1.60815
475 1.49812
480 2.82801
485 2.16099
490 2.118
495 1.85448
500 1.49279
505 1.82536
510 1.83747
515 1.43137
520 1.58189
525 2.445
530 2.66978
535 1.94449
540 1.78478
545 2.89242
550 2.04036
555 2.17685
560 1.61691
565 2.38209
570 2.15371
575 2.25236
580 1.5927
585 1.74114
590 1.34868
595 1.63301
600 1.95824
Ex : 273
200 1.0993
205 1.94797
210 1.05899
215 1.02438
220 1.49028
225 1.22823
230 1.6884
235 1.40372
240 0.965621
245 1.67703
250 0.937023
255 1.23116
260 2.00998
265 1.07633
270 1.1583
275 1.10843
280 0.943558
285 1.01567
290 0.930387
295 1.32562
300 0.897743
305 1.5556
310 1.11094
315 0.962211
320 1.29824
325 1.70149
330 1.51486
335 1.5128
340 1.05835
345 1.23802
350 1.98222
355 1.61944
360 1.45257
365 1.78732
370 1.17544
375 1.63486
380 1.47547
385 1.8269
390 1.63212
395 1.47964
400 1.89871
405 1.8311
410 1.77117
415 1.57464
420 1.49732
425 1.6462
430 1.23683
435 1.66694
440 1.41146
445 1.87769
450 1.42091
455 1.47058
460 1.36103
465 1.6919
470 1.63272
475 1.1958
480 1.55436
485 1.52881
490 1.70041
495 1.43579
500 1.57146
505 1.62703
510 1.2252
515 2.60061
520 2.08517
525 1.32429
530 1.09858
535 1.46675
540 2.52453
545 1.86098
550 1.34434
555 2.42648
560 1.54679
565 1.23434
570 1.00604
575 1.3534
580 1.43329
585 1.29631
590 1.43255
595 1.2612
600 1.39898
Ex : 278
200 0.754902
205 1.36907
210 0.959393
215 0.993189
220 1.14186
225 1.16819
230 0.67661
235 0.862861
240 0.924584
245 1.01317
250 1.13051
255 0.972169
260 1.25817
265 0.99882
270 0.843477
275 1.14776
280 0.659522
285 0.765779
290 0.90118
295 0.815996
300 1.32568
305 1.76447
310 1.26699
315 0.888443
320 0.924469
325 1.18714
330 0.966555
335 1.20894
340 1.04048
345 1.26208
350 1.25519
355 1.28758
360 1.34555
365 1.60632
370 1.11491
375 1.43224
380 1.50732
385 1.56622
390 1.94269
395 1.44006
400 1.20356
405 1.34721
410 1.29355
415 1.11469
420 1.84378
425 1.19561
430 1.29003
435 1.6425
440 1.37093
445 1.5827
450 1.65123
455 1.34729
460 1.14575
465 1.43576
470 1.36198
475 1.20398
480 0.95735
485 1.33796
490 1.66397
495 1.23584
500 1.68331
505 1.56473
510 1.27847
515 1.62421
520 1.21667
525 0.76448
530 1.06306
535 1.00281
540 1.52824
545 2.12703
550 1.64588
555 1.15797
560 1.14044
565 1.0377
570 1.08519
575 0.69858
580 0.778596
585 1.39639
590 0.878809
595 0.966516
600 0.50725
Ex : 283
200 0.911247
205 0.737477
210 0.839334
215 0.577632
220 0.915417
225 1.08131
230 0.985769
235 0.676513
240 1.10616
245 0.970653
250 0.985712
255 1.25366
260 0.609944
265 0.903626
270 0.929261
275 0.878973
280 1.13039
285 1.03393
290 1.01734
295 0.786313
300 0.632774
305 0.845995
310 0.968456
315 0.669819
320 1.19432
325 1.26741
330 1.1027
335 1.56104
340 1.02844
345 1.09535
350 0.998182
355 1.55352
360 0.612911
365 0.960159
370 0.829266
375 1.02522
380 1.34607
385 1.33458
390 1.60025
395 1.16684
400 1.23357
405 1.31409
410 1.71031
415 1.25172
420 1.13752
425 1.19374
430 1.51214
435 1.31087
440 1.26192
445 1.69174
450 1.40014
455 0.911354
460 1.2057
465 1.11582
470 1.45354
475 1.38884
480 1.11321
485 0.951933
490 1.24267
495 1.03492
500 1.15839
505 0.865982
510 0.8415
515 1.14928
520 0.819514
525 0.683655
530 1.21817
535 1.23882
540 0.691773
545 1.01073
550 0.960553
555 0.862977
560 1.21612
565 0.879115
570 0.840894
575 0.710345
580 0.681283
585 0.888102
590 0.643847
595 1.18984
600 0.369982
Ex : 288
200 1.1764
205 0.873974
210 0.534139
215 0.617272
220 0.604803
225 0.677459
230 0.492709
235 0.389416
240 0.92333
245 1.14144
250 0.762387
255 0.588546
260 0.875851
265 0.420026
270 1.00942
275 0.639346
280 0.872007
285 0.928673
290 0.916113
295 0.628769
300 0.831443
305 0.625021
310 1.02609
315 0.762797
320 0.371691
325 0.72651
330 0.961238
335 1.14965
340 0.969373
345 0.83799
350 0.966258
355 0.923238
360 0.608042
365 1.33013
370 0.868913
375 0.856945
380 1.16035
385 0.992927
390 1.26693
395 1.22468
400 1.0566
405 1.42692
410 0.955591
415 1.67272
420 1.06689
425 1.57446
430 1.21231
435 1.11489
440 1.16898
445 1.31021
450 1.23757
455 1.25809
460 1.2111
465 1.08794
470 1.17289
475 1.13719
480 1.15171
485 0.596873
490 0.625996
495 0.841233
500 0.796626
505 0.992171
510 1.05707
515 0.962415
520 1.00698
525 0.646313
530 0.855371
535 0.900428
540 0.753231
545 1.00317
550 0.875085
555 0.617708
560 0.909505
565 1.40506
570 1.46399
575 1.34957
580 0.852167
585 1.198
590 0.897396
595 0.685457
600 0.0780024
Ex : 293
200 0.638672
205 0.394934
210 0.620974
215 0.616587
220 0.504932
225 0.59937
230 0.487895
235 0.418925
240 0.468434
245 0.422047
250 0.37819
255 0.341048
260 0.474961
265 0.826031
270 0.872611
275 0.863705
280 0.531114
285 0.516375
290 0.519535
295 0.6792
300 0.589261
305 0.518624
310 0.826887
315 0.625558
320 0.705499
325 0.693674
330 0.508295
335 0.487226
340 0.694638
345 0.703011
350 0.639225
355 0.608464
360 0.694745
365 0.860927
370 0.883429
375 1.11743
380 1.03863
385 0.712308
390 0.866675
395 1.29915
400 1.16866
405 1.13325
410 1.27768
415 1.31312
420 1.10424
425 0.818318
430 1.07808
435 1.00317
440 0.971354
445 1.21342
450 1.30948
455 0.867756
460 0.887653
465 0.965323
470 0.897539
475 0.749713
480 0.859213
485 0.821704
490 0.78472
495 0.723875
500 0.619015
505 1.01503
510 0.666145
515 0.946593
520 0.7236
525 0.470328
530 0.633566
535 0.789813
540 0.615776
545 0.753071
550 0.805245
555 0.532574
560 0.763997
565 0.600028
570 0.605729
575 1.00911
580 1.19435
585 0.930742
590 0.686667
595 0.69634
600 0.0792409
Ex : 298
200 0.346236
205 0.665555
210 0.516594
215 0.410017
220 0.734368
225 0.779357
230 0.405135
235 0.686809
240 0.529776
245 0.391242
250 0.763787
255 0.482711
260 0.504849
265 0.575689
270 0.424213
275 0.736327
280 0.546846
285 0.432296
290 0.661906
295 0.657437
300 0.476979
305 0.527622
310 0.696058
315 0.748668
320 0.373032
325 0.546584
330 0.711346
335 0.555297
340 0.925677
345 0.711251
350 0.761171
355 0.703419
360 0.831599
365 0.609399
370 0.979092
375 0.816318
380 0.993774
385 0.692281
390 1.04996
395 1.08052
400 1.30707
405 1.24344
410 1.0224
415 1.03248
420 1.18314
425 0.976171
430 1.05958
435 1.01243
440 1.01622
445 1.00527
450 1.05264
455 1.05055
460 1.01928
465 0.980616
470 0.836769
475 0.721065
480 0.989314
485 0.983316
490 0.558382
495 0.576409
500 0.610949
505 0.603725
510 0.745193
515 0.656263
520 0.883014
525 0.782902
530 0.675712
535 0.477553
540 0.603018
545 0.696079
550 0.747179
555 0.738078
560 0.69527
565 0.68328
570 0.346774
575 0.46074
580 0.438802
585 0.9697
590 0.921825
595 1.0349
600 0.117768
Ex : 303
200 0.458333
205 0.267363
210 0.366309
215 0.475662
220 0.346765
225 0.653419
230 0.494243
235 0.311752
240 0.451925
245 0.504155
250 0.479075
255 0.307623
260 0.481587
265 0.599521
270 0.355498
275 0.37377
280 0.466655
285 0.434128
290 0.430953
295 0.427704
300 0.836335
305 0.455622
310 0.336969
315 0.409238
320 0.52803
325 0.549607
330 0.722826
335 0.348836
340 0.443628
345 0.593213
350 0.475764
355 0.628895
360 0.585677
365 0.664151
370 0.619738
375 0.930731
380 0.826487
385 1.0583
390 1.01193
395 0.925463
400 0.65853
405 0.810144
410 1.17918
415 1.02204
420 0.848442
425 1.08107
430 1.24597
435 0.782743
440 0.814479
445 1.17385
450 0.918745
455 0.69095
460 0.921522
465 0.671015
470 0.895973
475 0.732615
480 0.564244
485 0.919522
490 0.618656
495 0.901032
500 0.649885
505 0.474324
510 0.493454
515 0.448854
520 0.750037
525 0.524835
530 0.381022
535 0.516571
540 0.595318
545 0.406549
550 0.558688
555 0.61152
560 0.831401
565 0.552912
570 0.535956
575 0.424005
580 0.502495
585 0.550793
590 0.491846
595 0.892395
600 0.821592
Ex : 308
200 0.362314
205 0.476186
210 0.409719
215 0.381361
220 0.408612
225 0.359721
230 0.457541
235 0.352129
240 0.385349
245 0.527473
250 0.289439
255 0.375295
260 0.283614
265 0.481454
270 0.464852
275 0.405524
280 0.434438
285 0.457108
290 0.268143
295 0.466772
300 0.521618
305 0.523905
310 0.576282
315 0.35789
320 0.262205
325 0.488682
330 0.391947
335 0.45722
340 0.407559
345 0.583305
350 0.571284
355 0.785195
360 0.705453
365 0.818201
370 0.758706
375 0.833973
380 0.743917
385 0.802956
390 1.25341
395 1.27838
400 0.924444
405 1.37435
410 0.988864
415 1.15771
420 1.0822
425 1.08157
430 0.984592
435 1.16699
440 0.964267
445 0.891521
450 0.961804
455 0.987834
460 1.04068
465 0.904902
470 0.770175
475 0.668249
480 0.769368
485 0.451085
490 0.845077
495 0.657468
500 0.635607
505 0.592982
510 0.737683
515 0.445691
520 0.361166
525 0.366828
530 0.31966
535 0.555706
540 0.525667
545 0.41073
550 0.403958
555 0.335868
560 0.474363
565 0.568839
570 0.391366
575 0.259011
580 0.401006
585 0.400637
590 0.37224
595 0.359754
600 0.124769
Ex : 313
200 0.287966
205 0.419343
210 0.356908
215 0.548229
220 0.465647
225 0.449556
230 0.490013
235 0.388884
240 0.434827
245 0.223307
250 0.35054
255 0.25595
260 0.297502
265 0.252336
270 0.292707
275 0.275744
280 0.425501
285 0.400859
290 0.268439
295 0.391235
300 0.330138
305 0.573371
310 0.68432
315 0.344193
320 0.220986
325 0.264476
330 0.468061
335 0.519499
340 0.852117
345 0.53638
350 0.692362
355 0.923495
360 1.15323
365 0.962034
370 0.804582
375 0.949894
380 1.48365
385 1.55071
390 1.45014
395 1.26775
400 1.51686
405 1.53522
410 1.36274
415 1.82778
420 1.44434
425 1.3665
430 1.44661
435 1.36963
440 1.61934
445 1.26798
450 1.43924
455 1.32286
460 1.21956
465 1.26921
470 1.27209
475 0.959862
480 0.928732
485 0.980166
490 0.956524
495 0.693962
500 0.747402
505 0.625158
510 0.608849
515 0.604404
520 0.57551
525 0.373457
530 0.406193
535 0.548827
540 0.461795
545 0.582897
550 0.268232
555 0.44283
560 0.483856
565 0.454387
570 0.342947
575 0.339126
580 0.408584
585 0.452154
590 0.377163
595 0.299104
600 0.325836
Ex : 318
200 0.342306
205 0.253273
210 0.339291
215 0.246808
220 0.441419
225 0.393472
230 0.22399
235 0.27017
240 0.3504
245 0.414359
250 0.284176
255 0.269866
260 0.375155
265 0.317492
270 0.333371
275 0.446216
280 0.284589
285 0.277027
290 0.202746
295 0.25177
300 0.215292
305 0.263014
310 0.696578
315 1.08656
320 0.738014
325 0.690009
330 0.812744
335 1.08094
340 1.4718
345 2.0416
350 2.65102
355 3.96376
360 4.22157
365 5.06048
370 6.3501
375 7.28878
380 8.45805
385 9.68859
390 9.83582
395 11.1153
400 11.4858
405 11.6254
410 12.0762
415 11.5884
420 11.7043
425 11.89
430 11.6594
435 11.518
440 10.7933
445 9.67262
450 9.6975
455 9.0974
460 8.01476
465 7.864
470 7.02294
475 6.65084
480 5.72176
485 5.28928
490 4.45263
495 4.54379
500 3.93814
505 3.16456
510 3.19
515 2.61748
520 2.30257
525 2.06433
530 1.62973
535 1.14679
540 1.03704
545 1.05093
550 0.955402
555 0.926948
560 0.89582
565 0.636813
570 0.543341
575 0.505618
580 0.576291
585 0.421648
590 0.39861
595 0.457146
600 0.0520214
Ex : 323
200 0.337207
205 0.346281
210 0.342853
215 0.294881
220 0.300047
225 0.217076
230 0.271493
235 0.317482
240 0.336395
245 0.255798
250 0.299548
255 0.315004
260 0.321896
265 0.396955
270 0.341721
275 0.349757
280 0.410784
285 0.289402
290 0.288166
295 0.195181
300 0.308233
305 0.284302
310 0.372514
315 3.84076
320 15.7146
325 7.39292
330 2.58648
335 3.24402
340 4.94073
345 6.97923
350 9.92337
355 13.0207
360 15.8958
365 19.2353
370 21.8976
375 26.6913
380 30.345
385 32.7929
390 35.1665
395 37.8763
400 40.944
405 40.9932
410 41.3326
415 40.1381
420 41.2517
425 40.0267
430 37.7746
435 37.6403
440 36.2165
445 35.2221
450 32.6767
455 30.3983
460 28.5249
465 27.0896
470 24.257
475 22.5848
480 20.0663
485 18.7834
490 16.5688
495 14.5004
500 13.3543
505 11.913
510 9.89167
515 8.45902
520 7.20429
525 6.33744
530 5.58692
535 5.01229
540 4.32352
545 3.6882
550 3.06062
555 2.90004
560 2.33425
565 2.11906
570 1.72478
575 1.18658
580 1.10891
585 0.934753
590 0.746609
595 0.700182
600 0.5692
Ex : 328
200 0.257759
205 0.255753
210 0.326781
215 0.250995
220 0.20297
225 0.217179
230 0.338847
235 0.443488
240 0.274465
245 0.246906
250 0.346056
255 0.290746
260 0.345864
265 0.314527
270 0.323353
275 0.186869
280 0.253949
285 0.357929
290 0.247248
295 0.442809
300 0.410468
305 0.340817
310 0.397213
315 1.1627
320 35.0654
325 86.8215
330 29.9661
335 7.23874
340 6.52097
345 7.98562
350 9.90639
355 13.906
360 19.2143
365 21.5221
370 24.021
375 27.1507
380 30.4243
385 33.7699
390 35.8545
395 38.9507
400 40.5777
405 41.7159
410 42.8566
415 42.9657
420 42.7465
425 42.3552
430 40.4167
435 39.8817
440 38.8007
445 37.4581
450 34.6215
455 32.5177
460 30.5147
465 28.2805
470 27.5645
475 24.1353
480 21.8602
485 20.4212
490 18.4729
495 16.6432
500 14.8873
505 13.4524
510 11.5671
515 10.6605
520 8.84312
525 8.45723
530 6.6741
535 6.38797
540 5.50522
545 4.46584
550 3.96073
555 3.34917
560 2.96518
565 2.41838
570 2.20294
575 1.67748
580 1.26379
585 1.14065
590 0.923206
595 0.812999
600 0.0925161
Ex : 333
200 0.316817
205 0.293625
210 0.294844
215 0.335858
220 0.304147
225 0.290111
230 0.216658
235 0.234536
240 0.262628
245 0.265748
250 0.23285
255 0.19881
260 0.310339
265 0.320071
270 0.302015
275 0.284521
280 0.335874
285 0.313617
290 0.251634
295 0.245233
300 0.264295
305 0.217911
310 0.385179
315 0.301609
320 6.14359
325 114.744
330 198.564
335 55.8499
340 10.3019
345 6.14615
350 6.38966
355 7.42025
360 10.8114
365 14.7971
370 17.1924
375 17.2163
380 17.3752
385 19.449
390 20.2596
395 21.9429
400 21.8579
405 24.056
410 25.2792
415 25.4813
420 25.5767
425 24.4634
430 24.3119
435 24.1973
440 23.3561
445 22.7528
450 21.8422
455 20.9364
460 19.9005
465 18.4347
470 17.6895
475 16.6976
480 15.8973
485 14.8528
490 13.7793
495 12.1921
500 11.4364
505 10.786
510 9.48892
515 8.2231
520 7.5335
525 6.72865
530 5.64875
535 4.8942
540 4.91737
545 4.14276
550 3.6593
555 3.1772
560 2.90116
565 2.30449
570 2.31594
575 1.93935
580 1.38229
585 1.0188
590 0.882782
595 0.698527
600 0.916848
Ex : 338
200 0.240083
205 0.280762
210 0.232411
215 0.278337
220 0.263559
225 0.341958
230 0.298438
235 0.30228
240 0.278547
245 0.208077
250 0.239071
255 0.356489
260 0.169093
265 0.274178
270 0.284555
275 0.225721
280 0.219109
285 0.296572
290 0.255989
295 0.302622
300 0.240538
305 0.265317
310 0.289528
315 0.284174
320 0.347109
325 12.8419
330 180.456
335 265.051
340 70.2454
345 11.1592
350 4.99576
355 4.65874
360 4.91883
365 6.76868
370 12.0047
375 12.6533
380 10.5574
385 10.4844
390 10.8982
395 11.4129
400 12.113
405 12.5625
410 14.8113
415 15.1343
420 15.5199
425 15.1906
430 15.4875
435 15.8235
440 15.8792
445 16.0389
450 16.1495
455 15.0995
460 14.5812
465 14.3889
470 14.3556
475 13.0847
480 13.2079
485 12.5763
490 11.3973
495 10.9436
500 9.86075
505 9.0981
510 8.75785
515 8.37118
520 7.08721
525 6.39945
530 5.88443
535 5.07628
540 4.78943
545 3.98266
550 3.92254
555 3.55343
560 3.20862
565 2.657
570 2.36819
575 1.80575
580 1.41853
585 1.21697
590 0.921253
595 0.821331
600 0.667265
Ex : 343
200 0.224116
205 0.2406
210 0.173178
215 0.287435
220 0.122848
225 0.130515
230 0.258699
235 0.222447
240 0.31275
245 0.248822
250 0.218785
255 0.190641
260 0.230487
265 0.221733
270 0.163544
275 0.196947
280 0.319028
285 0.233301
290 0.231176
295 0.246838
300 0.321615
305 0.270369
310 0.233619
315 0.22955
320 0.241269
325 0.436031
330 15.8266
335 210.674
340 299.178
345 76.1691
350 11.2997
355 4.30041
360 3.67747
365 3.10662
370 4.28435
375 9.00523
380 9.99112
385 8.41885
390 7.95578
395 7.59976
400 8.54259
405 9.78458
410 11.7133
415 12.6101
420 12.4923
425 13.1843
430 13.7076
435 14.4375
440 15.3909
445 15.4267
450 14.9762
455 14.8647
460 15.14
465 15.1769
470 14.48
475 14.4839
480 13.8751
485 13.5291
490 12.8561
495 12.4871
500 11.4786
505 11.0554
510 10.1956
515 9.08946
520 8.26424
525 7.36901
530 6.53201
535 5.90302
540 5.32322
545 4.79152
550 4.31588
555 3.86638
560 3.41789
565 2.92506
570 2.50033
575 1.93377
580 1.48022
585 1.26674
590 1.23595
595 0.923888
600 0.5662
Ex : 348
200 0.185594
205 0.160448
210 0.168773
215 0.236815
220 0.2032
225 0.257037
230 0.300636
235 0.187681
240 0.212066
245 0.177746
250 0.227951
255 0.178886
260 0.150956
265 0.228995
270 0.246149
275 0.236705
280 0.229012
285 0.194737
290 0.210518
295 0.229355
300 0.253836
305 0.206695
310 0.248913
315 0.319079
320 0.22392
325 0.293941
330 0.540284
335 16.2348
340 210.626
345 310.041
350 83.106
355 11.7902
360 3.79092
365 2.85705
370 2.6911
375 3.17245
380 6.7057
385 9.71168
390 8.31155
395 7.3065
400 6.85055
405 9.149
410 11.455
415 13.1195
420 13.4858
425 13.7712
430 14.2328
435 15.8579
440 16.5694
445 16.534
450 16.5553
455 16.2207
460 16.7234
465 17.3249
470 17.0457
475 16.6236
480 16.2013
485 15.8059
490 15.107
495 14.4826
500 13.5267
505 12.8695
510 11.6952
515 10.5589
520 9.38
525 8.77264
530 7.90667
535 7.2768
540 6.5994
545 5.71736
550 5.38209
555 4.73362
560 3.98593
565 3.37243
570 2.80089
575 2.22913
580 1.90018
585 1.49094
590 1.13125
595 0.804189
600 0.860269
Ex : 353
200 0.128502
205 0.150098
210 0.153271
215 0.21368
220 0.188128
225 0.245287
230 0.179308
235 0.238697
240 0.16217
245 0.170848
250 0.236689
255 0.207889
260 0.302251
265 0.204707
270 0.184478
275 0.181052
280 0.195759
285 0.268939
290 0.18258
295 0.239194
300 0.192876
305 0.313187
310 0.210831
315 0.165338
320 0.158907
325 0.214143
330 0.420956
335 0.56107
340 15.5338
345 214.93
350 304.011
355 79.516
360 11.2279
365 3.29038
370 2.7541
375 2.74326
380 3.22294
385 5.87276
390 9.19904
395 8.23093
400 7.64618
405 9.0983
410 11.0516
415 12.9424
420 13.1676
425 13.6677
430 13.6046
435 15.9543
440 16.5219
445 17.7933
450 17.385
455 17.0977
460 17.7569
465 18.7671
470 18.8822
475 18.8863
480 18.4961
485 17.9868
490 17.2018
495 16.2408
500 15.7786
505 14.8715
510 13.4489
515 12.6858
520 11.4286
525 10.0254
530 9.49151
535 8.97641
540 7.95661
545 7.05343
550 6.13466
555 5.40492
560 4.46635
565 4.13643
570 3.58018
575 3.11323
580 2.28763
585 1.64171
590 1.32825
595 1.11719
600 0.454423
Ex : 358
200 0.201786
205 0.139951
210 0.182321
215 0.160242
220 0.154695
225 0.151571
230 0.13745
235 0.190083
240 0.166452
245 0.212149
250 0.124437
255 0.186691
260 0.153102
265 0.172746
270 0.131823
275 0.13113
280 0.300457
285 0.22997
290 0.18269
295 0.291767
300 0.168437
305 0.120213
310 0.301228
315 0.254349
320 0.157373
325 0.228135
330 0.29883
335 0.357417
340 0.58807
345 15.4105
350 211.877
355 310.247
360 81.5007
365 11.0751
370 3.48769
375 3.14421
380 3.05949
385 3.49587
390 5.15207
395 9.54786
400 9.97271
405 10.771
410 12.3487
415 14.1904
420 14.8449
425 14.3514
430 15.3517
435 17.1218
440 18.7222
445 19.5125
450 19.4541
455 19.1463
460 19.8195
465 20.3872
470 20.6368
475 20.7939
480 20.5348
485 19.5438
490 19.2948
495 18.4709
500 16.9805
505 16.4613
510 15.0745
515 14.0463
520 12.6316
525 11.6688
530 10.4492
535 9.36298
540 8.96861
545 7.8684
550 7.08853
555 6.20389
560 5.34083
565 4.49471
570 3.65381
575 3.10176
580 2.34701
585 1.77991
590 1.35313
595 1.09297
600 1.24502
Ex : 363
200 0.205546
205 0.186226
210 0.155981
215 0.170681
220 0.180026
225 0.151578
230 0.191099
235 0.187864
240 0.143957
245 0.194711
250 0.180173
255 0.131239
260 0.191923
265 0.283148
270 0.207452
275 0.211939
280 0.177963
285 0.12488
290 0.240563
295 0.128928
300 0.234055
305 0.190463
310 0.159528
315 0.133268
320 0.179172
325 0.258156
330 0.305695
335 0.296682
340 0.34819
345 0.524295
350 14.2696
355 199.286
360 304.029
365 83.0945
370 11.0774
375 3.50764
380 3.50113
385 3.37694
390 3.45075
395 5.06154
400 9.80929
405 13.4586
410 15.2521
415 17.096
420 16.396
425 16.544
430 17.4472
435 19.4877
440 21.4321
445 22.1352
450 21.9447
455 21.7589
460 22.7244
465 24.0266
470 24.7166
475 24.5484
480 23.7197
485 23.1179
490 22.3073
495 21.2006
500 20.2451
505 18.9244
510 18.1516
515 16.1303
520 14.761
525 13.3311
530 12.0442
535 11.2146
540 10.0399
545 8.92639
550 7.77387
555 7.09902
560 5.81927
565 4.84373
570 4.54497
575 3.4461
580 2.848
585 2.20906
590 1.71466
595 1.23645
600 0.478514
Ex : 368
200 0.177551
205 0.211268
210 0.110838
215 0.154047
220 0.15591
225 0.159675
230 0.127642
235 0.115407
240 0.155952
245 0.220079
250 0.17728
255 0.169562
260 0.161563
265 0.131449
270 0.136757
275 0.140734
280 0.221446
285 0.110803
290 0.235894
295 0.193227
300 0.119169
305 0.144166
310 0.230452
315 0.231884
320 0.131704
325 0.157751
330 0.199889
335 0.202709
340 0.253581
345 0.286784
350 0.546225
355 11.4171
360 192.374
365 304.288
370 85.9741
375 11.8994
380 3.55619
385 3.48402
390 3.58
395 3.64586
400 5.29382
405 11.3805
410 16.0353
415 16.9897
420 15.7794
425 15.4258
430 16.2113
435 18.7613
440 20.9656
445 21.7707
450 21.878
455 22.5518
460 22.8356
465 24.9786
470 25.4126
475 26.0425
480 25.9476
485 25.4437
490 24.8197
495 23.9179
500 23.0492
505 21.3378
510 20.2328
515 18.7618
520 16.8404
525 15.5509
530 13.6682
535 12.6505
540 11.7189
545 10.0361
550 9.23802
555 7.80357
560 6.85416
565 6.37694
570 5.0163
575 4.1343
580 3.08241
585 2.36792
590 1.87573
595 1.50431
600 2.20448
Ex : 373
200 0.154768
205 0.143178
210 0.121879
215 0.116535
220 0.189558
225 0.193994
230 0.138623
235 0.112749
240 0.137024
245 0.137869
250 0.200993
255 0.151501
260 0.139392
265 0.166032
270 0.152629
275 0.140602
280 0.150197
285 0.207664
290 0.154767
295 0.164033
300 0.116937
305 0.202916
310 0.136218
315 0.190565
320 0.135912
325 0.145969
330 0.171279
335 0.208663
340 0.195495
345 0.234016
350 0.362434
355 0.430261
360 13.5803
365 194.751
370 309.488
375 87.9942
380 11.9912
385 3.78263
390 3.28867
395 3.62536
400 4.50654
405 7.35172
410 12.4492
415 16.5886
420 16.0611
425 14.6903
430 14.7764
435 16.9313
440 18.8763
445 19.6053
450 20.3801
455 21.5122
460 23.0845
465 24.3853
470 25.3605
475 25.5423
480 26.1303
485 25.9253
490 24.9051
495 24.4261
500 24
505 22.727
510 21.018
515 19.0694
520 17.9599
525 16.604
530 14.6738
535 13.7481
540 12.5927
545 11.4524
550 9.84046
555 8.48094
560 7.33298
565 6.2372
570 5.32006
575 4.38129
580 3.63215
585 2.74729
590 1.99941
595 1.51302
600 2.32938
Ex : 378
200 0.143656
205 0.161034
210 0.137966
215 0.1726
220 0.154523
225 0.134403
230 0.15982
235 0.108048
240 0.130427
245 0.0925036
250 0.130836
255 0.14208
260 0.155789
265 0.135083
270 0.175126
275 0.173059
280 0.125175
285 0.172949
290 0.13277
295 0.17518
300 0.102992
305 0.162888
310 0.181337
315 0.164518
320 0.119197
325 0.157014
330 0.201827
335 0.135761
340 0.218363
345 0.251387
350 0.258974
355 0.328905
360 0.513749
365 12.8731
370 205.179
375 328.035
380 93.418
385 13.2352
390 4.10473
395 4.20134
400 5.25938
405 7.3816
410 11.0528
415 14.4132
420 17.3941
425 17.2002
430 17.1236
435 17.6209
440 19.1368
445 20.759
450 20.8269
455 22.079
460 22.6042
465 24.5208
470 24.9705
475 25.4275
480 25.623
485 25.2868
490 24.7728
495 24.2023
500 23.3193
505 22.1963
510 20.7914
515 18.7609
520 17.3827
525 15.7837
530 14.2156
535 13.3877
540 11.7447
545 10.8328
550 9.35278
555 8.22162
560 7.21943
565 6.38444
570 5.05144
575 4.23019
580 3.1994
585 2.62156
590 1.97393
595 1.49028
600 0.820677
Ex : 383
200 0.155166
205 0.110406
210 0.175227
215 0.193073
220 0.152154
225 0.170835
230 0.109378
235 0.132206
240 0.197619
245 0.113605
250 0.110688
255 0.193473
260 0.172822
265 0.112494
270 0.150868
275 0.156205
280 0.119039
285 0.122794
290 0.161758
295 0.145849
300 0.159235
305 0.12919
310 0.0928785
315 0.102708
320 0.173851
325 0.188908
330 0.196822
335 0.168679
340 0.19726
345 0.171568
350 0.207647
355 0.325355
360 0.368371
365 0.484686
370 12.1796
375 206.727
380 341.955
385 97.2824
390 13.9172
395 4.58608
400 5.38775
405 8.27392
410 11.769
415 14.3206
420 15.5971
425 18.6318
430 20.2192
435 20.5938
440 22.274
445 22.5136
450 22.1634
455 23.5447
460 24.1669
465 25.4824
470 26.7368
475 26.8994
480 26.9175
485 26.3863
490 25.5916
495 25.0328
500 23.9663
505 23.1247
510 21.7036
515 19.5236
520 17.5768
525 16.2832
530 14.4627
535 13.3603
540 12.04
545 10.6633
550 9.77418
555 8.48232
560 7.52034
565 6.10777
570 5.21303
575 4.45454
580 3.20932
585 2.54826
590 2.04827
595 1.56831
600 1.88484
Ex : 388
200 0.106873
205 0.102497
210 0.137039
215 0.141405
220 0.14367
225 0.0991103
230 0.100005
235 0.10947
240 0.107021
245 0.0862321
250 0.11955
255 0.0979621
260 0.118972
265 0.104491
270 0.114226
275 0.167542
280 0.125482
285 0.159817
290 0.174752
295 0.119817
300 0.124502
305 0.104219
310 0.162522
315 0.19847
320 0.127855
325 0.169651
330 0.147521
335 0.160878
340 0.184699
345 0.19912
350 0.144947
355 0.273947
360 0.261962
365 0.282663
370 0.547563
375 13.52
380 213.148
385 342.77
390 97.3859
395 13.9117
400 5.22225
405 7.47378
410 11.1155
415 13.4864
420 13.797
425 14.0524
430 17.3008
435 20.5356
440 22.2388
445 22.0055
450 21.8939
455 22.4986
460 24.0216
465 25.3373
470 26.7466
475 26.8872
480 27.1228
485 26.7356
490 26.7369
495 24.9303
500 24.793
505 23.5079
510 21.445
515 20.0646
520 18.4373
525 16.6893
530 15.3152
535 14.0882
540 12.6702
545 11.5763
550 10.0662
555 9.07271
560 7.66006
565 6.64611
570 5.47237
575 4.29464
580 3.32471
585 2.69375
590 2.1066
595 1.49374
600 1.3426
Ex : 393
200 0.113484
205 0.194407
210 0.143865
215 0.107294
220 0.117952
225 0.130228
230 0.152725
235 0.185325
240 0.169047
245 0.147888
250 0.164735
255 0.132092
260 0.107539
265 0.111048
270 0.123229
275 0.14204
280 0.119656
285 0.0859565
290 0.0908872
295 0.131774
300 0.183358
305 0.173237
310 0.137705
315 0.200897
320 0.156015
325 0.133162
330 0.15337
335 0.120181
340 0.156286
345 0.213199
350 0.148084
355 0.16879
360 0.228736
365 0.289634
370 0.34762
375 0.558786
380 11.8751
385 210.475
390 351.061
395 100.159
400 14.5246
405 6.77114
410 8.82999
415 10.7544
420 10.8212
425 10.8306
430 11.8781
435 15.7333
440 19.7808
445 19.3591
450 19.7252
455 19.9216
460 21.5648
465 23.1137
470 24.861
475 25.5814
480 26.4019
485 26.1951
490 26.3631
495 25.5629
500 24.3314
505 23.7293
510 22.238
515 20.3113
520 18.6472
525 17.323
530 16.0715
535 14.3227
540 12.9955
545 11.8136
550 10.3912
555 9.25543
560 8.15599
565 7.08046
570 5.8424
575 4.46862
580 3.64365
585 2.78922
590 2.16386
595 1.6995
600 1.2103
Ex : 398
200 0.0716102
205 0.135845
210 0.134885
215 0.09386
220 0.105725
225 0.12267
230 0.136552
235 0.141116
240 0.0973114
245 0.145006
250 0.0976007
255 0.104842
260 0.094578
265 0.14573
270 0.124819
275 0.126614
280 0.137527
285 0.115417
290 0.118926
295 0.0775049
300 0.130575
305 0.129231
310 0.143677
315 0.165971
320 0.147731
325 0.150994
330 0.166541
335 0.168476
340 0.170947
345 0.130156
350 0.150472
355 0.165309
360 0.182105
365 0.21463
370 0.304839
375 0.378257
380 0.568022
385 12.4878
390 222.888
395 387.203
400 109.24
405 17.1515
410 8.96985
415 9.88379
420 10.1802
425 9.74673
430 10.7584
435 12.9282
440 15.7464
445 18.9783
450 20.0439
455 19.9651
460 21.9463
465 23.4943
470 24.3473
475 25.8485
480 25.8392
485 26.225
490 26.1111
495 25.8529
500 25.2066
505 23.9848
510 22.5265
515 20.9826
520 19.3335
525 17.8135
530 16.5963
535 14.7582
540 13.4647
545 12.0684
550 10.8694
555 9.57869
560 8.48887
565 6.96667
570 5.75289
575 4.62145
580 3.37446
585 2.82727
590 2.10085
595 1.68826
600 1.07832
Ex : 403
200 0.0990002
205 0.0928322
210 0.108304
215 0.11319
220 0.113992
225 0.0988324
230 0.136342
235 0.138284
240 0.115797
245 0.14209
250 0.164884
255 0.139344
260 0.156971
265 0.137931
270 0.0961401
275 0.153451
280 0.0948216
285 0.110081
290 0.139295
295 0.142755
300 0.146204
305 0.131634
310 0.116102
315 0.165321
320 0.15668
325 0.128826
330 0.181541
335 0.159976
340 0.146754
345 0.142435
350 0.130455
355 0.156311
360 0.202216
365 0.139936
370 0.264941
375 0.278304
380 0.37863
385 0.485603
390 14.3189
395 220.916
400 359.3
405 106.543
410 19.6351
415 11.4154
420 10.8179
425 10.8003
430 11.8419
435 13.4259
440 15.6215
445 17.3759
450 20.4699
455 22.6454
460 22.8254
465 24.7248
470 25.9981
475 26.0011
480 27.0416
485 27.1485
490 27.2186
495 26.6339
500 25.8256
505 24.9262
510 23.209
515 21.7738
520 19.8191
525 18.1194
530 16.4617
535 14.9738
540 13.7133
545 12.5285
550 11.2617
555 10.073
560 8.37125
565 7.1894
570 6.08274
575 4.87217
580 3.85813
585 2.9586
590 2.32265
595 1.81456
600 1.55864
Ex : 408
200 0.0760039
205 0.108923
210 0.156739
215 0.116432
220 0.0963539
225 0.104642
230 0.135357
235 0.0684301
240 0.11374
245 0.135377
250 0.110954
255 0.103935
260 0.14779
265 0.127311
270 0.127481
275 0.110672
280 0.175945
285 0.121046
290 0.113882
295 0.116635
300 0.115304
305 0.122907
310 0.190555
315 0.124284
320 0.0977485
325 0.130388
330 0.18107
335 0.184126
340 0.165186
345 0.14604
350 0.212455
355 0.169483
360 0.150415
365 0.182087
370 0.161663
375 0.204134
380 0.310759
385 0.370547
390 0.593466
395 13.9384
400 234.218
405 378.568
410 108.992
415 20.948
420 11.0508
425 10.1825
430 10.8426
435 12.9041
440 14.6966
445 15.6648
450 17.1284
455 19.976
460 24.0444
465 24.6224
470 25.4887
475 26.0681
480 26.8731
485 27.0584
490 26.6695
495 26.8105
500 26.0136
505 24.4398
510 23.0729
515 21.6747
520 20.0126
525 18.4539
530 16.9057
535 15.1615
540 13.8821
545 12.2434
550 10.7941
555 9.97286
560 8.45836
565 7.41444
570 5.99727
575 4.62205
580 3.55687
585 2.8699
590 2.18147
595 1.62907
600 2.11058
Ex : 413
200 0.110899
205 0.0969049
210 0.119333
215 0.128653
220 0.117507
225 0.134688
230 0.125473
235 0.117875
240 0.134772
245 0.117247
250 0.15755
255 0.0986868
260 0.0978153
265 0.116191
270 0.125432
275 0.0955233
280 0.120304
285 0.136213
290 0.138893
295 0.1509
300 0.0980923
305 0.116896
310 0.120589
315 0.0989842
320 0.128514
325 0.178507
330 0.166972
335 0.15075
340 0.175377
345 0.144724
350 0.150119
355 0.141427
360 0.153711
365 0.146776
370 0.199922
375 0.161584
380 0.197308
385 0.278263
390 0.421641
395 0.70672
400 15.9436
405 238.914
410 380.59
415 106.291
420 18.1594
425 7.76195
430 7.31965
435 9.0004
440 10.2618
445 11.3229
450 12.7332
455 14.964
460 18.3436
465 22.5691
470 23.8686
475 24.1887
480 24.521
485 25.2297
490 24.885
495 25.2533
500 24.4708
505 23.146
510 22.0336
515 20.7815
520 19.1246
525 17.6065
530 16.0215
535 14.674
540 13.1413
545 11.7869
550 10.5421
555 9.47892
560 8.19661
565 7.06556
570 5.73372
575 4.63265
580 3.63925
585 2.71628
590 2.27165
595 1.84194
600 1.28782
Ex : 418
200 0.100464
205 0.127288
210 0.102414
215 0.130054
220 0.0881548
225 0.135144
230 0.146034
235 0.0985059
240 0.143352
245 0.0971209
250 0.10179
255 0.127695
260 0.0979734
265 0.162346
270 0.109752
275 0.16218
280 0.134322
285 0.133829
290 0.149875
295 0.158684
300 0.15186
305 0.142092
310 0.121494
315 0.112136
320 0.15091
325 0.154589
330 0.132882
335 0.157143
340 0.143507
345 0.158386
350 0.157435
355 0.11272
360 0.174224
365 0.147492
370 0.159597
375 0.203348
380 0.174054
385 0.203181
390 0.349465
395 0.444201
400 0.752754
405 15.2952
410 245.905
415 399.277
420 112.952
425 16.2096
430 5.39526
435 4.86812
440 6.27112
445 7.45282
450 8.67636
455 10.8038
460 13.2113
465 15.9262
470 19.9547
475 21.7802
480 21.3378
485 22.4659
490 22.5732
495 22.4265
500 21.8706
505 21.3633
510 20.3138
515 18.7294
520 17.4242
525 16.5066
530 15.0312
535 13.6829
540 12.6233
545 11.2502
550 10.2177
555 9.00971
560 7.82756
565 6.55977
570 5.36806
575 4.56676
580 3.61033
585 2.6805
590 2.25186
595 1.65837
600 1.11879
Ex : 423
200 0.108424
205 0.0985775
210 0.135886
215 0.128964
220 0.0991952
225 0.0925471
230 0.129137
235 0.152187
240 0.103705
245 0.102459
250 0.131379
255 0.116694
260 0.110383
265 0.12895
270 0.0858557
275 0.0901007
280 0.152029
285 0.107594
290 0.147139
295 0.13607
300 0.14057
305 0.107101
310 0.155083
315 0.150127
320 0.140331
325 0.108613
330 0.144031
335 0.108206
340 0.148599
345 0.164215
350 0.1126
355 0.136599
360 0.136009
365 0.123132
370 0.134747
375 0.157646
380 0.188652
385 0.24901
390 0.266927
395 0.33238
400 0.421371
405 0.798198
410 16.3291
415 258.392
420 400.843
425 107.048
430 14.563
435 4.35071
440 3.74811
445 5.5281
450 7.10208
455 8.90734
460 11.1049
465 13.1722
470 15.467
475 18.7454
480 21.0488
485 20.6674
490 20.6885
495 20.4157
500 20.0015
505 19.3526
510 18.6279
515 17.0672
520 15.926
525 14.8662
530 13.849
535 12.457
540 11.3536
545 10.3242
550 9.30801
555 8.0814
560 7.29585
565 6.28181
570 5.25586
575 4.00637
580 3.22953
585 2.4957
590 1.94629
595 1.5392
600 1.40356
Ex : 428
200 0.161845
205 0.120518
210 0.134955
215 0.136701
220 0.132041
225 0.104465
230 0.115501
235 0.115549
240 0.186135
245 0.134658
250 0.1256
255 0.109049
260 0.151615
265 0.112183
270 0.122812
275 0.144786
280 0.103397
285 0.0916371
290 0.162839
295 0.141409
300 0.141052
305 0.13075
310 0.107824
315 0.122477
320 0.124303
325 0.109628
330 0.091028
335 0.190502
340 0.187187
345 0.130882
350 0.12534
355 0.176958
360 0.136409
365 0.173572
370 0.14437
375 0.163273
380 0.149491
385 0.168235
390 0.205879
395 0.266491
400 0.334167
405 0.391912
410 0.629583
415 17.6451
420 267.843
425 416.151
430 114.046
435 15.2188
440 4.31267
445 4.21278
450 5.89184
455 8.12616
460 9.74642
465 11.5128
470 13.2877
475 15.0026
480 17.7201
485 19.8735
490 19.4355
495 18.8319
500 18.4953
505 17.4743
510 16.4668
515 15.2476
520 14.4852
525 13.5652
530 12.2832
535 11.4238
540 10.5341
545 9.37106
550 8.39028
555 7.48688
560 6.42255
565 5.46074
570 4.7978
575 3.72729
580 2.82675
585 2.28639
590 1.88104
595 1.37557
600 2.31554
Ex : 433
200 0.0973906
205 0.112304
210 0.130465
215 0.115408
220 0.16587
225 0.139741
230 0.0987214
235 0.145359
240 0.13791
245 0.12646
250 0.125498
255 0.0990659
260 0.0990655
265 0.136926
270 0.143276
275 0.145544
280 0.101794
285 0.0852233
290 0.130893
295 0.161086
300 0.139606
305 0.0784465
310 0.131172
315 0.104094
320 0.119097
325 0.142668
330 0.138502
335 0.122438
340 0.121419
345 0.136704
350 0.122146
355 0.167716
360 0.121791
365 0.185341
370 0.172891
375 0.150637
380 0.14611
385 0.193624
390 0.196234
395 0.190313
400 0.232589
405 0.312416
410 0.408509
415 0.741426
420 19.8558
425 294.32
430 436.153
435 115.479
440 15.858
445 5.14664
450 4.97985
455 7.05855
460 8.48674
465 10.1719
470 11.3794
475 12.8892
480 14.1011
485 15.5932
490 18.1218
495 18.1613
500 16.5584
505 15.5423
510 14.9242
515 13.9695
520 12.6131
525 11.8568
530 10.8549
535 10.171
540 9.40544
545 8.39129
550 7.54955
555 6.83596
560 5.94859
565 4.87094
570 4.07289
575 3.34897
580 2.6465
585 2.12543
590 1.56863
595 1.25289
600 1.45392
Ex : 438
200 0.113191
205 0.0871941
210 0.153874
215 0.115364
220 0.113251
225 0.108979
230 0.0867414
235 0.100594
240 0.130561
245 0.0845355
250 0.135742
255 0.0999016
260 0.151198
265 0.105862
270 0.137082
275 0.141579
280 0.188965
285 0.118981
290 0.140171
295 0.133126
300 0.129904
305 0.111639
310 0.171441
315 0.146895
320 0.133213
325 0.14455
330 0.0885283
335 0.134322
340 0.127349
345 0.134065
350 0.119369
355 0.114504
360 0.0966115
365 0.16271
370 0.178132
375 0.173919
380 0.142152
385 0.160879
390 0.158336
395 0.223188
400 0.211669
405 0.257755
410 0.328743
415 0.438408
420 0.725783
425 18.984
430 292.287
435 462.274
440 123.222
445 17.1819
450 5.94624
455 5.84695
460 7.41385
465 8.87379
470 9.8842
475 10.7357
480 11.9907
485 12.5703
490 13.6988
495 15.1627
500 15.3704
505 14.0098
510 12.8864
515 12.1093
520 10.9915
525 10.204
530 9.50287
535 8.5236
540 7.68389
545 7.05806
550 6.64753
555 5.59769
560 4.91632
565 4.53393
570 3.4996
575 2.82545
580 2.4467
585 1.93077
590 1.37961
595 1.15205
600 0.900932
Ex : 443
200 0.127914
205 0.138436
210 0.126565
215 0.163014
220 0.114882
225 0.0964788
230 0.0834622
235 0.104275
240 0.121726
245 0.136042
250 0.100717
255 0.142971
260 0.127979
265 0.132695
270 0.0905879
275 0.111827
280 0.174126
285 0.1313
290 0.105797
295 0.119345
300 0.116753
305 0.105852
310 0.119171
315 0.129462
320 0.124425
325 0.205701
330 0.134782
335 0.114229
340 0.121565
345 0.154208
350 0.128378
355 0.173453
360 0.116992
365 0.12139
370 0.166635
375 0.138247
380 0.178061
385 0.161168
390 0.144068
395 0.160773
400 0.212838
405 0.253092
410 0.293528
415 0.342199
420 0.393133
425 0.751217
430 22.5158
435 329.26
440 487.29
445 127.661
450 18.0718
455 6.26465
460 5.91194
465 7.11707
470 8.1641
475 8.8216
480 9.45504
485 10.0095
490 10.4812
495 11.071
500 12.1207
505 12.823
510 11.215
515 10.2746
520 9.55684
525 8.64049
530 7.72544
535 7.21424
540 6.42939
545 6.05532
550 5.37611
555 4.66065
560 4.46325
565 3.64593
570 2.97383
575 2.50081
580 1.98113
585 1.55188
590 1.07806
595 0.998712
600 0.444099
Ex : 448
200 0.154191
205 0.117801
210 0.151218
215 0.147441
220 0.146897
225 0.149647
230 0.138772
235 0.109027
240 0.131684
245 0.0950141
250 0.156579
255 0.118451
260 0.117455
265 0.103821
270 0.13709
275 0.169822
280 0.171217
285 0.146537
290 0.142067
295 0.0522035
300 0.107291
305 0.099476
310 0.155013
315 0.155851
320 0.147012
325 0.146157
330 0.146282
335 0.125905
340 0.182129
345 0.131009
350 0.13612
355 0.184174
360 0.153932
365 0.12849
370 0.130345
375 0.131315
380 0.151874
385 0.208157
390 0.188137
395 0.178445
400 0.164724
405 0.250618
410 0.291811
415 0.268708
420 0.335816
425 0.523215
430 0.786975
435 23.2637
440 349.073
445 517.902
450 137.497
455 19.3229
460 6.61891
465 5.56422
470 6.14068
475 6.85378
480 7.31082
485 7.5486
490 7.94949
495 8.4485
500 8.31187
505 9.00866
510 9.97403
515 9.27719
520 7.94597
525 7.02449
530 6.39616
535 5.77666
540 5.12121
545 4.70459
550 4.3569
555 3.90758
560 3.39787
565 2.94992
570 2.45901
575 1.98535
580 1.60406
585 1.22677
590 0.980716
595 0.838719
600 0.752661
Ex : 453
200 0.114035
205 0.119373
210 0.113481
215 0.139068
220 0.165357
225 0.113354
230 0.105789
235 0.145519
240 0.0974195
245 0.145477
250 0.102069
255 0.101537
260 0.122347
265 0.114523
270 0.0855962
275 0.110592
280 0.151545
285 0.16831
290 0.139715
295 0.139808
300 0.0899917
305 0.111668
310 0.0910134
315 0.143605
320 0.112274
325 0.0824322
330 0.122945
335 0.108409
340 0.126799
345 0.15921
350 0.162273
355 0.123597
360 0.139241
365 0.141233
370 0.15326
375 0.134545
380 0.106369
385 0.144052
390 0.125696
395 0.134004
400 0.168862
405 0.155317
410 0.206309
415 0.269874
420 0.242769
425 0.284191
430 0.472755
435 0.734526
440 24.2226
445 369.867
450 528.947
455 132.092
460 18.4749
465 5.89236
470 4.53853
475 5.01686
480 5.63229
485 5.82934
490 6.00025
495 5.95085
500 5.81041
505 5.94142
510 6.19828
515 7.3942
520 7.07315
525 5.70696
530 5.0068
535 4.81801
540 4.1903
545 3.60159
550 3.26131
555 3.03021
560 2.65278
565 2.24163
570 2.07373
575 1.55515
580 1.15951
585 0.99192
590 0.806251
595 0.724421
600 0.294785
Ex : 458
200 0.102347
205 0.123737
210 0.158576
215 0.146212
220 0.168143
225 0.157715
230 0.0893744
235 0.158585
240 0.0878273
245 0.15264
250 0.13519
255 0.130523
260 0.134605
265 0.168805
270 0.117264
275 0.122495
280 0.11507
285 0.0945708
290 0.145303
295 0.100415
300 0.115975
305 0.120952
310 0.0939499
315 0.108665
320 0.126612
325 0.11636
330 0.146384
335 0.125767
340 0.129022
345 0.150257
350 0.158537
355 0.125455
360 0.134944
365 0.168571
370 0.177099
375 0.204776
380 0.186957
385 0.147194
390 0.135858
395 0.227692
400 0.229672
405 0.181745
410 0.188367
415 0.203122
420 0.210148
425 0.229907
430 0.373171
435 0.508232
440 0.855181
445 26.948
450 387.124
455 569.064
460 142.647
465 19.1843
470 5.2886
475 3.65123
480 3.89078
485 4.41743
490 4.33657
495 4.41496
500 3.89115
505 4.16274
510 4.10481
515 4.38514
520 5.00319
525 5.83394
530 4.68293
535 3.80815
540 3.68672
545 3.21963
550 2.5219
555 2.41664
560 2.07857
565 1.86259
570 1.66586
575 1.32298
580 1.11046
585 0.807729
590 0.614269
595 0.601736
600 0.266705
Ex : 463
200 0.103702
205 0.116498
210 0.135809
215 0.121576
220 0.0911411
225 0.100603
230 0.105113
235 0.131572
240 0.131744
245 0.16315
250 0.118059
255 0.145703
260 0.128019
265 0.0883746
270 0.127492
275 0.102901
280 0.120279
285 0.121068
290 0.150172
295 0.165953
300 0.100988
305 0.136354
310 0.101693
315 0.104523
320 0.127743
325 0.13635
330 0.14748
335 0.136882
340 0.144302
345 0.106037
350 0.104258
355 0.143584
360 0.150402
365 0.155699
370 0.131356
375 0.114386
380 0.107754
385 0.120149
390 0.148005
395 0.167477
400 0.167131
405 0.166938
410 0.188576
415 0.143347
420 0.22597
425 0.293548
430 0.315051
435 0.355955
440 0.478729
445 0.923185
450 26.4007
455 396.784
460 588.344
465 148.321
470 19.4397
475 4.59288
480 2.8093
485 2.94794
490 3.14352
495 3.34912
500 3.12904
505 3.01744
510 3.04968
515 2.88492
520 2.89317
525 3.42461
530 4.65358
535 4.04325
540 3.04071
545 2.79643
550 2.52059
555 2.11488
560 1.8719
565 1.64012
570 1.34513
575 1.0639
580 0.871367
585 0.682732
590 0.626607
595 0.46258
600 0.284416
Ex : 468
200 0.125311
205 0.14158
210 0.0796715
215 0.098801
220 0.119692
225 0.0771346
230 0.118458
235 0.0936398
240 0.0889019
245 0.0995307
250 0.0970196
255 0.0859557
260 0.140437
265 0.143708
270 0.119537
275 0.116175
280 0.197503
285 0.148196
290 0.132272
295 0.11644
300 0.0962222
305 0.143588
310 0.126822
315 0.104062
320 0.123072
325 0.141888
330 0.145167
335 0.132888
340 0.186024
345 0.138415
350 0.10696
355 0.121025
360 0.109971
365 0.108971
370 0.153537
375 0.144114
380 0.13341
385 0.156793
390 0.130589
395 0.153713
400 0.160178
405 0.153715
410 0.152458
415 0.158458
420 0.199729
425 0.18902
430 0.209886
435 0.275101
440 0.337372
445 0.533518
450 0.753581
455 28.5175
460 403.415
465 613.977
470 153.326
475 19.5254
480 4.20927
485 2.4791
490 2.37721
495 2.65609
500 2.69287
505 2.57184
510 2.2852
515 2.3884
520 2.39131
525 2.33179
530 2.93558
535 3.82095
540 3.89798
545 2.74441
550 2.32936
555 2.16067
560 1.80652
565 1.40119
570 1.22456
575 1.03278
580 0.876243
585 0.6755
590 0.507806
595 0.510605
600 0.285776
Ex : 473
200 0.11303
205 0.101845
210 0.138679
215 0.13606
220 0.122692
225 0.137533
230 0.11929
235 0.137963
240 0.148086
245 0.137797
250 0.134036
255 0.0953002
260 0.165998
265 0.162925
270 0.128538
275 0.124314
280 0.126161
285 0.109643
290 0.143215
295 0.108198
300 0.143116
305 0.126326
310 0.124442
315 0.143672
320 0.134124
325 0.158513
330 0.1907
335 0.125247
340 0.147208
345 0.123881
350 0.151874
355 0.165844
360 0.120663
365 0.13832
370 0.121263
375 0.127729
380 0.155368
385 0.123839
390 0.142484
395 0.170054
400 0.171997
405 0.127645
410 0.153257
415 0.133522
420 0.180662
425 0.222251
430 0.256318
435 0.241782
440 0.29865
445 0.463159
450 0.570949
455 0.843448
460 32.6072
465 430.994
470 587.458
475 140.58
480 18.0093
485 3.92548
490 2.21264
495 1.94425
500 2.26197
505 2.3293
510 2.15878
515 2.05863
520 1.90617
525 2.16525
530 2.00808
535 2.24165
540 3.06573
545 3.54298
550 2.63095
555 2.07373
560 1.82462
565 1.64555
570 1.26039
575 0.99106
580 0.847998
585 0.673158
590 0.577192
595 0.428539
600 0.235335
Ex : 478
200 0.135126
205 0.168473
210 0.133042
215 0.16669
220 0.17107
225 0.114844
230 0.182
235 0.15015
240 0.169424
245 0.165217
250 0.157424
255 0.163929
260 0.125863
265 0.103936
270 0.15394
275 0.154446
280 0.150676
285 0.191768
290 0.118999
295 0.0976672
300 0.129471
305 0.1335
310 0.206812
315 0.175264
320 0.0986172
325 0.16705
330 0.167318
335 0.209924
340 0.13745
345 0.223402
350 0.205913
355 0.173981
360 0.128845
365 0.155375
370 0.166852
375 0.177562
380 0.160525
385 0.169388
390 0.17059
395 0.168362
400 0.191235
405 0.207507
410 0.175433
415 0.210799
420 0.198997
425 0.190156
430 0.202825
435 0.207955
440 0.248537
445 0.35514
450 0.446086
455 0.588407
460 0.982801
465 35.5467
470 430.729
475 590.617
480 149.826
485 18.9437
490 3.82398
495 2.03305
500 1.78528
505 1.83821
510 2.02326
515 2.05633
520 1.86404
525 1.88729
530 1.82859
535 1.73238
540 1.8124
545 2.35489
550 3.15193
555 2.46339
560 1.80848
565 1.66482
570 1.36487
575 1.12338
580 0.707681
585 0.613979
590 0.538787
595 0.389951
600 0.485911
Ex : 483
200 0.118466
205 0.139335
210 0.133697
215 0.115324
220 0.102378
225 0.127576
230 0.166354
235 0.120726
240 0.125493
245 0.145308
250 0.151312
255 0.159469
260 0.138952
265 0.144692
270 0.1227
275 0.145761
280 0.137035
285 0.144039
290 0.156326
295 0.161953
300 0.1518
305 0.186279
310 0.142067
315 0.187087
320 0.132018
325 0.133787
330 0.128846
335 0.13456
340 0.123705
345 0.156428
350 0.183222
355 0.215448
360 0.157983
365 0.116354
370 0.150407
375 0.182664
380 0.167954
385 0.182994
390 0.17299
395 0.107933
400 0.148277
405 0.208473
410 0.16405
415 0.194045
420 0.161835
425 0.22112
430 0.236793
435 0.220592
440 0.226036
445 0.287808
450 0.367413
455 0.474281
460 0.624078
465 1.0122
470 26.6165
475 418.795
480 623.886
485 154.624
490 19.126
495 3.62012
500 1.78368
505 1.4883
510 1.71407
515 1.97133
520 1.71443
525 1.84391
530 1.68285
535 1.63094
540 1.60483
545 1.58981
550 1.69251
555 2.71704
560 2.70186
565 1.79544
570 1.32522
575 1.13221
580 0.826884
585 0.605086
590 0.484087
595 0.404076
600 0.253589
Ex : 488
200 0.144659
205 0.145017
210 0.183123
215 0.16334
220 0.128425
225 0.181697
230 0.172981
235 0.175218
240 0.15987
245 0.14924
250 0.145259
255 0.12143
260 0.155631
265 0.122192
270 0.200074
275 0.163284
280 0.126232
285 0.137453
290 0.204246
295 0.214236
300 0.194267
305 0.192673
310 0.14728
315 0.157582
320 0.1165
325 0.13772
330 0.133882
335 0.12061
340 0.165096
345 0.146783
350 0.184054
355 0.127427
360 0.111948
365 0.180754
370 0.167707
375 0.156666
380 0.122879
385 0.147737
390 0.181645
395 0.146754
400 0.129908
405 0.189014
410 0.178732
415 0.221131
420 0.178815
425 0.173302
430 0.191691
435 0.200896
440 0.277054
445 0.276753
450 0.280146
455 0.273571
460 0.41883
465 0.663368
470 0.995812
475 32.9738
480 480.562
485 647.274
490 153.652
495 19.0948
500 3.53248
505 1.63994
510 1.53803
515 1.74997
520 1.96143
525 1.89643
530 1.82355
535 1.61343
540 1.4417
545 1.4231
550 1.50688
555 1.49599
560 2.05268
565 2.3598
570 1.81873
575 1.17507
580 0.982272
585 0.836339
590 0.652855
595 0.42368
600 0.451966
Ex : 493
200 0.206317
205 0.154972
210 0.146727
215 0.140754
220 0.213438
225 0.159043
230 0.228982
235 0.127414
240 0.119911
245 0.185931
250 0.201555
255 0.121205
260 0.145649
265 0.161592
270 0.135001
275 0.185415
280 0.188667
285 0.0956449
290 0.133911
295 0.112962
300 0.116808
305 0.136894
310 0.154971
315 0.167954
320 0.130742
325 0.158084
330 0.160132
335 0.144255
340 0.198619
345 0.189772
350 0.150603
355 0.105693
360 0.11307
365 0.155383
370 0.162903
375 0.165168
380 0.134437
385 0.163026
390 0.17449
395 0.208502
400 0.206575
405 0.150166
410 0.215834
415 0.182562
420 0.202923
425 0.159968
430 0.199557
435 0.193443
440 0.234156
445 0.232463
450 0.288485
455 0.293266
460 0.350841
465 0.436927
470 0.645726
475 0.962041
480 28.7863
485 438.167
490 638.768
495 152.238
500 19.0013
505 3.53323
510 1.58003
515 1.38659
520 1.72114
525 1.73725
530 1.66994
535 1.55722
540 1.43218
545 1.52766
550 1.37846
555 1.33208
560 1.28509
565 1.57681
570 2.10277
575 1.74593
580 0.999078
585 0.840706
590 0.735533
595 0.544051
600 0.320955
Ex : 498
200 0.133924
205 0.15135
210 0.161478
215 0.186736
220 0.184791
225 0.172589
230 0.16087
235 0.192734
240 0.236797
245 0.185491
250 0.182717
255 0.190501
260 0.149203
265 0.164336
270 0.174671
275 0.134393
280 0.190048
285 0.198112
290 0.145499
295 0.162818
300 0.215882
305 0.124484
310 0.174787
315 0.20811
320 0.232264
325 0.133024
330 0.157918
335 0.199788
340 0.16702
345 0.151685
350 0.167937
355 0.167082
360 0.182027
365 0.191086
370 0.165604
375 0.204956
380 0.19878
385 0.211449
390 0.191023
395 0.152083
400 0.164438
405 0.223498
410 0.151363
415 0.165496
420 0.136408
425 0.16892
430 0.215743
435 0.223282
440 0.227314
445 0.272405
450 0.253516
455 0.279711
460 0.314156
465 0.414521
470 0.436297
475 0.606694
480 0.955333
485 34.4139
490 448.476
495 610.455
500 146.7
505 18.209
510 3.41126
515 1.68996
520 1.34507
525 1.48115
530 1.6006
535 1.6724
540 1.50485
545 1.32716
550 1.21763
555 1.22893
560 1.25344
565 1.0805
570 1.19575
575 1.53629
580 1.53169
585 0.915781
590 0.741419
595 0.573407
600 0.391945
Ex : 503
200 0.16697
205 0.187756
210 0.154168
215 0.194022
220 0.216064
225 0.216797
230 0.219802
235 0.165191
240 0.191881
245 0.246785
250 0.131183
255 0.157113
260 0.147161
265 0.247897
270 0.207273
275 0.137792
280 0.209246
285 0.139963
290 0.135865
295 0.17268
300 0.184572
305 0.145015
310 0.155586
315 0.153175
320 0.136525
325 0.171785
330 0.20481
335 0.184296
340 0.234246
345 0.174389
350 0.226226
355 0.229174
360 0.182351
365 0.201576
370 0.184518
375 0.1905
380 0.136709
385 0.140533
390 0.148049
395 0.17491
400 0.178042
405 0.156234
410 0.214512
415 0.213322
420 0.18379
425 0.252445
430 0.240129
435 0.242051
440 0.242445
445 0.228094
450 0.265021
455 0.268057
460 0.333799
465 0.40937
470 0.428211
475 0.580165
480 0.630184
485 0.897022
490 30.9426
495 447.357
500 619.29
505 147.974
510 18.3989
515 3.36666
520 1.76908
525 1.33136
530 1.37359
535 1.55286
540 1.65909
545 1.49915
550 1.32508
555 1.28391
560 1.1346
565 1.02705
570 0.928504
575 0.865726
580 0.951336
585 1.2271
590 0.771318
595 0.577334
600 0.0656984
Ex : 508
200 0.182262
205 0.148556
210 0.173125
215 0.158777
220 0.154886
225 0.157656
230 0.116839
235 0.212134
240 0.160502
245 0.214577
250 0.172398
255 0.238693
260 0.233999
265 0.164812
270 0.165763
275 0.200845
280 0.130804
285 0.178493
290 0.263713
295 0.16492
300 0.199243
305 0.147812
310 0.205898
315 0.155869
320 0.20787
325 0.207307
330 0.24007
335 0.147587
340 0.235495
345 0.24894
350 0.115788
355 0.179574
360 0.145003
365 0.191078
370 0.218897
375 0.215389
380 0.13742
385 0.202083
390 0.230865
395 0.326569
400 0.173471
405 0.179815
410 0.183178
415 0.186867
420 0.241955
425 0.197684
430 0.191106
435 0.232442
440 0.24154
445 0.269652
450 0.342858
455 0.262914
460 0.269969
465 0.297686
470 0.329605
475 0.405676
480 0.477162
485 0.699779
490 0.962204
495 35.5847
500 489.161
505 647.218
510 160.166
515 19.961
520 3.54778
525 1.86667
530 1.39648
535 1.29674
540 1.42896
545 1.53409
550 1.38132
555 1.21672
560 1.04464
565 0.97344
570 0.877359
575 0.801283
580 0.624248
585 0.75683
590 0.981122
595 0.893639
600 0.852504
Ex : 513
200 0.168041
205 0.142056
210 0.21354
215 0.236686
220 0.217917
225 0.175216
230 0.194411
235 0.161858
240 0.167066
245 0.134811
250 0.256498
255 0.178938
260 0.157783
265 0.223722
270 0.176772
275 0.18708
280 0.182981
285 0.147742
290 0.18374
295 0.131519
300 0.116588
305 0.169173
310 0.105802
315 0.154999
320 0.166251
325 0.210362
330 0.14584
335 0.155962
340 0.209302
345 0.256451
350 0.201737
355 0.2174
360 0.181027
365 0.196326
370 0.200718
375 0.265457
380 0.187902
385 0.180484
390 0.196945
395 0.169321
400 0.235807
405 0.206286
410 0.194324
415 0.164449
420 0.208252
425 0.208944
430 0.20413
435 0.198424
440 0.211313
445 0.254782
450 0.258565
455 0.242841
460 0.284988
465 0.315685
470 0.403742
475 0.317095
480 0.424653
485 0.552031
490 0.626517
495 0.939527
500 30.0157
505 430.416
510 617.868
515 167.966
520 20.809
525 3.61785
530 1.67935
535 1.46289
540 1.09645
545 1.3571
550 1.42931
555 1.2266
560 1.04139
565 0.945834
570 0.876062
575 0.697999
580 0.698549
585 0.503426
590 0.564475
595 0.769993
600 1.01814
Ex : 518
200 0.116129
205 0.147726
210 0.145603
215 0.141868
220 0.195797
225 0.198579
230 0.205587
235 0.153415
240 0.19658
245 0.14909
250 0.231502
255 0.180453
260 0.1459
265 0.122248
270 0.230767
275 0.18955
280 0.195623
285 0.194991
290 0.190039
295 0.181895
300 0.221481
305 0.197602
310 0.15184
315 0.155345
320 0.197448
325 0.13297
330 0.13293
335 0.183364
340 0.132594
345 0.229974
350 0.247983
355 0.172687
360 0.17711
365 0.17019
370 0.208513
375 0.183622
380 0.253854
385 0.223928
390 0.219581
395 0.188572
400 0.182967
405 0.212535
410 0.196785
415 0.207853
420 0.206011
425 0.198111
430 0.265994
435 0.276565
440 0.200074
445 0.262217
450 0.180947
455 0.327137
460 0.316382
465 0.332484
470 0.293664
475 0.299091
480 0.310039
485 0.369613
490 0.542645
495 0.601759
500 1.02642
505 30.1718
510 415.126
515 608.981
520 155.754
525 19.1393
530 3.29878
535 1.64292
540 1.2189
545 1.18888
550 1.03861
555 1.22769
560 1.15356
565 0.981252
570 0.759726
575 0.634377
580 0.615756
585 0.519927
590 0.43767
595 0.428188
600 0.318063
Ex : 523
200 0.163372
205 0.274063
210 0.172027
215 0.163657
220 0.156425
225 0.210853
230 0.225128
235 0.185984
240 0.215156
245 0.205799
250 0.141407
255 0.140268
260 0.197673
265 0.14579
270 0.215468
275 0.220506
280 0.19321
285 0.194352
290 0.139384
295 0.188559
300 0.172644
305 0.132381
310 0.165077
315 0.200518
320 0.241034
325 0.184431
330 0.27748
335 0.185123
340 0.210348
345 0.249324
350 0.201364
355 0.166395
360 0.182559
365 0.208945
370 0.196004
375 0.199221
380 0.190796
385 0.251589
390 0.229892
395 0.231887
400 0.198844
405 0.166886
410 0.237183
415 0.210555
420 0.265839
425 0.212753
430 0.238204
435 0.285646
440 0.265239
445 0.144696
450 0.185272
455 0.225925
460 0.261067
465 0.246221
470 0.308084
475 0.33913
480 0.284022
485 0.256109
490 0.31837
495 0.396202
500 0.650004
505 0.827904
510 27.5869
515 398.676
520 598.399
525 159.906
530 19.6414
535 3.4582
540 1.52787
545 1.16544
550 1.08766
555 1.04955
560 1.01896
565 0.962812
570 0.817749
575 0.70425
580 0.657922
585 0.497318
590 0.452467
595 0.467201
600 0.129254
Ex : 528
200 0.15828
205 0.165917
210 0.148894
215 0.185227
220 0.270121
225 0.162658
230 0.232526
235 0.278996
240 0.219843
245 0.307052
250 0.180025
255 0.13473
260 0.270565
265 0.247347
270 0.19484
275 0.198033
280 0.195257
285 0.200222
290 0.16368
295 0.192992
300 0.130292
305 0.189634
310 0.211912
315 0.192259
320 0.210073
325 0.192838
330 0.158292
335 0.254475
340 0.20363
345 0.26132
350 0.206508
355 0.195358
360 0.198111
365 0.215869
370 0.202208
375 0.237548
380 0.211054
385 0.206441
390 0.166965
395 0.208502
400 0.178493
405 0.302
410 0.20715
415 0.300623
420 0.230623
425 0.230564
430 0.1385
435 0.183505
440 0.206491
445 0.237532
450 0.240634
455 0.275307
460 0.215592
465 0.298051
470 0.189239
475 0.334358
480 0.272923
485 0.331284
490 0.322044
495 0.426939
500 0.360551
505 0.596788
510 0.980036
515 25.1608
520 400.347
525 634.43
530 164.684
535 20.1886
540 3.36683
545 1.61281
550 1.08725
555 0.907406
560 0.884281
565 0.976631
570 0.788953
575 0.613713
580 0.471637
585 0.553798
590 0.511908
595 0.527061
600 0.189892
Ex : 533
200 0.2244
205 0.142042
210 0.19108
215 0.221855
220 0.27587
225 0.279114
230 0.229838
235 0.151473
240 0.202436
245 0.160439
250 0.191291
255 0.208588
260 0.16292
265 0.152761
270 0.185308
275 0.154743
280 0.172457
285 0.273007
290 0.20934
295 0.143921
300 0.180331
305 0.175794
310 0.175191
315 0.17642
320 0.22787
325 0.147415
330 0.244963
335 0.185282
340 0.191464
345 0.195095
350 0.197623
355 0.180374
360 0.197216
365 0.246973
370 0.189139
375 0.232415
380 0.291333
385 0.241231
390 0.267384
395 0.238669
400 0.173583
405 0.199539
410 0.233834
415 0.22292
420 0.293159
425 0.247926
430 0.255927
435 0.26644
440 0.226449
445 0.194471
450 0.227588
455 0.269249
460 0.250006
465 0.209026
470 0.306972
475 0.26012
480 0.363219
485 0.337656
490 0.291411
495 0.438559
500 0.356294
505 0.43702
510 0.598054
515 0.979771
520 24.6469
525 403.504
530 697.061
535 183.778
540 22.7173
545 3.74605
550 1.39109
555 1.07645
560 0.931239
565 0.733983
570 0.853433
575 0.694747
580 0.482612
585 0.459548
590 0.459392
595 0.504434
600 0.196321
Ex : 538
200 0.243767
205 0.254534
210 0.242125
215 0.156656
220 0.159138
225 0.194996
230 0.211989
235 0.200489
240 0.293847
245 0.270194
250 0.173695
255 0.17113
260 0.222313
265 0.246259
270 0.225208
275 0.168656
280 0.165415
285 0.278183
290 0.204404
295 0.172813
300 0.159443
305 0.198753
310 0.134343
315 0.16267
320 0.133319
325 0.24562
330 0.148802
335 0.194364
340 0.253296
345 0.268172
350 0.286613
355 0.214811
360 0.209885
365 0.231432
370 0.203434
375 0.186664
380 0.260597
385 0.249091
390 0.209872
395 0.180867
400 0.239917
405 0.204827
410 0.249273
415 0.387887
420 0.234049
425 0.222788
430 0.220638
435 0.20965
440 0.218246
445 0.276529
450 0.308643
455 0.239466
460 0.276758
465 0.294519
470 0.235315
475 0.38568
480 0.304488
485 0.272642
490 0.316599
495 0.360565
500 0.374785
505 0.408907
510 0.553997
515 0.620653
520 0.927896
525 20.2854
530 369.76
535 614.115
540 168.819
545 20.6013
550 3.32967
555 1.25952
560 1.06678
565 0.633159
570 0.595138
575 0.602482
580 0.581482
585 0.540035
590 0.508119
595 0.395384
600 0.0449932
Ex : 543
200 0.307482
205 0.216191
210 0.2239
215 0.233158
220 0.22766
225 0.169319
230 0.225968
235 0.230073
240 0.174656
245 0.231068
250 0.153796
255 0.249354
260 0.219757
265 0.180364
270 0.257883
275 0.206029
280 0.204452
285 0.197786
290 0.177325
295 0.188212
300 0.189803
305 0.190238
310 0.215589
315 0.259273
320 0.26705
325 0.141642
330 0.167463
335 0.179175
340 0.290167
345 0.216045
350 0.2591
355 0.190083
360 0.194287
365 0.180541
370 0.241974
375 0.281781
380 0.281784
385 0.205451
390 0.209385
395 0.193764
400 0.193274
405 0.248331
410 0.215381
415 0.25401
420 0.202325
425 0.164468
430 0.222323
435 0.251932
440 0.294372
445 0.231929
450 0.258171
455 0.296309
460 0.31033
465 0.317607
470 0.370148
475 0.267893
480 0.313876
485 0.35782
490 0.344553
495 0.305397
500 0.395109
505 0.327977
510 0.267093
515 0.493643
520 0.513273
525 0.787481
530 18.93
535 362.399
540 674.529
545 205.48
550 25.0536
555 3.74171
560 1.16968
565 0.840537
570 0.657017
575 0.571064
580 0.592236
585 0.540044
590 0.48103
595 0.307836
600 1.46815
Ex : 548
200 0.216012
205 0.238061
210 0.245956
215 0.119639
220 0.151518
225 0.190565
230 0.199982
235 0.156566
240 0.209543
245 0.19809
250 0.136129
255 0.205347
260 0.148694
265 0.1569
270 0.230619
275 0.171619
280 0.257102
285 0.323908
290 0.233766
295 0.111609
300 0.169776
305 0.21418
310 0.240319
315 0.16678
320 0.139233
325 0.189362
330 0.191963
335 0.247053
340 0.341201
345 0.254451
350 0.249418
355 0.295716
360 0.319946
365 0.310227
370 0.237806
375 0.236355
380 0.197435
385 0.253781
390 0.290132
395 0.24494
400 0.21083
405 0.360948
410 0.231653
415 0.197431
420 0.214794
425 0.330464
430 0.237761
435 0.294761
440 0.218116
445 0.308952
450 0.222876
455 0.244054
460 0.367671
465 0.21818
470 0.370289
475 0.188199
480 0.266502
485 0.208766
490 0.226525
495 0.171571
500 0.249835
505 0.347314
510 0.413767
515 0.464152
520 0.412512
525 0.648233
530 0.848691
535 20.4241
540 336.108
545 559.102
550 158.752
555 19.3842
560 3.06756
565 0.998809
570 0.753058
575 0.614989
580 0.581891
585 0.438879
590 0.481409
595 0.315548
600 0.220321
Ex : 553
200 0.174519
205 0.285426
210 0.177806
215 0.197347
220 0.249906
225 0.189753
230 0.182368
235 0.196945
240 0.214887
245 0.207957
250 0.214597
255 0.202794
260 0.233846
265 0.18903
270 0.225308
275 0.27919
280 0.325973
285 0.197421
290 0.144988
295 0.185024
300 0.261567
305 0.179441
310 0.206415
315 0.203671
320 0.205453
325 0.199616
330 0.30952
335 0.227237
340 0.259672
345 0.191087
350 0.258469
355 0.299049
360 0.255453
365 0.275451
370 0.195713
375 0.276999
380 0.310942
385 0.218652
390 0.208094
395 0.203398
400 0.230094
405 0.228942
410 0.30345
415 0.338762
420 0.258427
425 0.208045
430 0.252125
435 0.263565
440 0.272816
445 0.267624
450 0.265391
455 0.297685
460 0.266251
465 0.344189
470 0.252067
475 0.223217
480 0.18385
485 0.27056
490 0.330403
495 0.348188
500 0.230576
505 0.305291
510 0.271199
515 0.372939
520 0.375183
525 0.620665
530 0.552849
535 0.867031
540 18.0921
545 376.18
550 606.349
555 188.861
560 22.9259
565 3.36147
570 1.07881
575 0.740717
580 0.482057
585 0.473331
590 0.323561
595 0.502885
600 0.408466
Ex : 558
200 0.195363
205 0.167121
210 0.249402
215 0.181408
220 0.220711
225 0.217114
230 0.144315
235 0.300624
240 0.3178
245 0.218393
250 0.21413
255 0.242475
260 0.305495
265 0.231152
270 0.187685
275 0.252593
280 0.209734
285 0.25354
290 0.172614
295 0.161197
300 0.211255
305 0.293754
310 0.291069
315 0.318205
320 0.229535
325 0.28662
330 0.20951
335 0.239937
340 0.191828
345 0.172492
350 0.193402
355 0.25134
360 0.204114
365 0.210405
370 0.241656
375 0.236398
380 0.273047
385 0.242269
390 0.189215
395 0.308419
400 0.248068
405 0.32773
410 0.399442
415 0.280143
420 0.272694
425 0.246245
430 0.270282
435 0.188946
440 0.327066
445 0.294124
450 0.216363
455 0.256322
460 0.308757
465 0.395492
470 0.287575
475 0.233883
480 0.397489
485 0.293581
490 0.197658
495 0.306794
500 0.321061
505 0.322335
510 0.32275
515 0.37414
520 0.320502
525 0.387741
530 0.323565
535 0.692203
540 0.762736
545 19.5069
550 351.082
555 597.536
560 177.925
565 21.4937
570 3.22456
575 0.932018
580 0.718548
585 0.438717
590 0.364332
595 0.427434
600 0.202763
Ex : 563
200 0.147212
205 0.136742
210 0.213392
215 0.18006
220 0.179601
225 0.253124
230 0.222045
235 0.211135
240 0.169989
245 0.177766
250 0.177525
255 0.304887
260 0.231857
265 0.230347
270 0.293606
275 0.247652
280 0.298765
285 0.155538
290 0.296017
295 0.302768
300 0.259845
305 0.184323
310 0.228955
315 0.274333
320 0.2417
325 0.238816
330 0.146354
335 0.264638
340 0.236504
345 0.281574
350 0.238664
355 0.18338
360 0.303521
365 0.250376
370 0.301233
375 0.214326
380 0.306896
385 0.228806
390 0.250089
395 0.271793
400 0.207241
405 0.179996
410 0.243874
415 0.179688
420 0.259025
425 0.24217
430 0.400646
435 0.283207
440 0.247107
445 0.267365
450 0.277611
455 0.288124
460 0.258179
465 0.304047
470 0.28784
475 0.251638
480 0.329729
485 0.218299
490 0.246975
495 0.369684
500 0.280762
505 0.382927
510 0.281098
515 0.360307
520 0.451941
525 0.42634
530 0.373894
535 0.37162
540 0.551466
545 0.851174
550 16.0916
555 297.602
560 502.14
565 152.728
570 18.5274
575 2.68122
580 0.760209
585 0.509237
590 0.369152
595 0.358822
600 0.59755
Ex : 568
200 0.175259
205 0.18674
210 0.233012
215 0.261845
220 0.249975
225 0.239654
230 0.255363
235 0.210639
240 0.169041
245 0.305531
250 0.299871
255 0.189902
260 0.256496
265 0.145073
270 0.302956
275 0.222987
280 0.258646
285 0.23364
290 0.28478
295 0.246464
300 0.195445
305 0.257608
310 0.199088
315 0.17576
320 0.232808
325 0.333153
330 0.193942
335 0.190937
340 0.183098
345 0.196244
350 0.228949
355 0.259656
360 0.194361
365 0.221035
370 0.166489
375 0.218511
380 0.296659
385 0.282924
390 0.266932
395 0.271851
400 0.296571
405 0.225456
410 0.230628
415 0.218312
420 0.242208
425 0.262864
430 0.319381
435 0.292859
440 0.221368
445 0.244633
450 0.360833
455 0.281755
460 0.32312
465 0.262216
470 0.283786
475 0.33097
480 0.276522
485 0.435117
490 0.301995
495 0.231269
500 0.249062
505 0.292503
510 0.32925
515 0.289525
520 0.37907
525 0.33736
530 0.319957
535 0.339215
540 0.413718
545 0.390313
550 0.741546
555 13.0065
560 265.39
565 483.439
570 154.163
575 18.7839
580 2.5702
585 0.665226
590 0.512753
595 0.372207
600 0.143466
Ex : 573
200 0.205273
205 0.257985
210 0.137607
215 0.207651
220 0.187844
225 0.169365
230 0.230288
235 0.303452
240 0.193739
245 0.210696
250 0.292261
255 0.204641
260 0.270172
265 0.363883
270 0.188579
275 0.222336
280 0.310328
285 0.257554
290 0.198668
295 0.22086
300 0.285476
305 0.283348
310 0.125079
315 0.208759
320 0.226914
325 0.270561
330 0.290077
335 0.187647
340 0.243992
345 0.182045
350 0.223986
355 0.288612
360 0.347023
365 0.179142
370 0.20503
375 0.304738
380 0.272603
385 0.364773
390 0.325611
395 0.274987
400 0.233222
405 0.223716
410 0.153657
415 0.28527
420 0.231595
425 0.224127
430 0.312823
435 0.316304
440 0.192179
445 0.33912
450 0.23927
455 0.161016
460 0.231174
465 0.233174
470 0.211215
475 0.177785
480 0.246561
485 0.275397
490 0.288312
495 0.280007
500 0.32402
505 0.305037
510 0.273155
515 0.294753
520 0.333903
525 0.347168
530 0.284022
535 0.313618
540 0.385756
545 0.401587
550 0.562422
555 0.70101
560 10.8611
565 228.104
570 440.588
575 145.659
580 17.8701
585 2.52406
590 0.646165
595 0.389929
600 0.189059
Ex : 578
200 0.24111
205 0.282131
210 0.185344
215 0.200237
220 0.19952
225 0.264545
230 0.215105
235 0.159556
240 0.162661
245 0.204736
250 0.321223
255 0.257919
260 0.208351
265 0.236434
270 0.17426
275 0.244016
280 0.134731
285 0.23666
290 0.283903
295 0.299658
300 0.279019
305 0.323625
310 0.280131
315 0.335621
320 0.202515
325 0.204067
330 0.276573
335 0.209634
340 0.259928
345 0.22218
350 0.315027
355 0.256099
360 0.275765
365 0.24385
370 0.288659
375 0.242253
380 0.358836
385 0.284231
390 0.382365
395 0.257511
400 0.26072
405 0.279063
410 0.26281
415 0.280767
420 0.262289
425 0.299632
430 0.229125
435 0.228511
440 0.325086
445 0.288582
450 0.25298
455 0.284221
460 0.295705
465 0.292722
470 0.327923
475 0.33867
480 0.295229
485 0.26507
490 0.27606
495 0.164575
500 0.254573
505 0.285302
510 0.355276
515 0.328587
520 0.24578
525 0.270831
530 0.384459
535 0.335172
540 0.332403
545 0.354051
550 0.493189
555 0.452957
560 0.664403
565 10.8084
570 211.536
575 404.585
580 129.929
585 15.6873
590 2.14277
595 0.546448
600 0.499131
Ex : 583
200 0.180387
205 0.291091
210 0.227557
215 0.199379
220 0.326651
225 0.210052
230 0.193408
235 0.203999
240 0.17936
245 0.243601
250 0.254851
255 0.325982
260 0.262253
265 0.266462
270 0.294959
275 0.257105
280 0.21742
285 0.265684
290 0.255643
295 0.191163
300 0.252539
305 0.244725
310 0.201173
315 0.250831
320 0.292895
325 0.238663
330 0.273455
335 0.235251
340 0.342493
345 0.270464
350 0.233908
355 0.276483
360 0.274489
365 0.246617
370 0.211836
375 0.306239
380 0.25262
385 0.315478
390 0.345843
395 0.21489
400 0.324076
405 0.35758
410 0.265992
415 0.200075
420 0.239177
425 0.22181
430 0.232565
435 0.236255
440 0.319131
445 0.312294
450 0.298015
455 0.344875
460 0.294019
465 0.259413
470 0.232261
475 0.27259
480 0.356517
485 0.272403
490 0.379934
495 0.279505
500 0.287838
505 0.318381
510 0.204695
515 0.294963
520 0.258633
525 0.268831
530 0.257796
535 0.294158
540 0.304742
545 0.34742
550 0.361209
555 0.508139
560 0.506276
565 0.640449
570 11.1343
575 212.421
580 334.037
585 104.533
590 12.885
595 1.82019
600 0.729927
Ex : 588
200 0.209791
205 0.199414
210 0.282505
215 0.294311
220 0.241862
225 0.279464
230 0.229441
235 0.190052
240 0.392316
245 0.257522
250 0.357424
255 0.254889
260 0.252652
265 0.24955
270 0.186722
275 0.248605
280 0.343679
285 0.217714
290 0.255615
295 0.282447
300 0.254912
305 0.276009
310 0.240058
315 0.241566
320 0.319219
325 0.255165
330 0.31595
335 0.35539
340 0.297212
345 0.315717
350 0.257872
355 0.346589
360 0.232265
365 0.362179
370 0.279304
375 0.331019
380 0.288749
385 0.208199
390 0.202263
395 0.369442
400 0.277856
405 0.241825
410 0.274369
415 0.281076
420 0.319394
425 0.238474
430 0.20089
435 0.203728
440 0.314098
445 0.318917
450 0.252986
455 0.302551
460 0.341897
465 0.359738
470 0.252111
475 0.331906
480 0.24223
485 0.205783
490 0.322616
495 0.30037
500 0.184173
505 0.205749
510 0.278124
515 0.363124
520 0.235893
525 0.246933
530 0.330819
535 0.291909
540 0.260271
545 0.257778
550 0.350067
555 0.322789
560 0.345687
565 0.375506
570 0.533139
575 6.77189
580 157.093
585 314.24
590 103.878
595 12.7674
600 1.54411
Ex : 593
200 0.273725
205 0.194319
210 0.206725
215 0.239591
220 0.240144
225 0.228123
230 0.22184
235 0.290726
240 0.194421
245 0.26564
250 0.259405
255 0.296761
260 0.180126
265 0.288359
270 0.287476
275 0.286433
280 0.222754
285 0.199392
290 0.259198
295 0.190308
300 0.251618
305 0.257849
310 0.22398
315 0.260251
320 0.287197
325 0.223041
330 0.3054
335 0.212192
340 0.188081
345 0.309904
350 0.321945
355 0.247692
360 0.242098
365 0.345712
370 0.271858
375 0.17861
380 0.230636
385 0.296038
390 0.222683
395 0.238622
400 0.22768
405 0.352649
410 0.2897
415 0.346103
420 0.289306
425 0.322485
430 0.295312
435 0.33435
440 0.311143
445 0.339993
450 0.346842
455 0.3679
460 0.336937
465 0.229458
470 0.23105
475 0.275635
480 0.253741
485 0.248991
490 0.281817
495 0.349831
500 0.294754
505 0.235393
510 0.295023
515 0.198923
520 0.370935
525 0.399525
530 0.422756
535 0.416261
540 0.479249
545 0.300099
550 0.314877
555 0.318483
560 0.475056
565 0.536874
570 0.375357
575 0.559776
580 6.30742
585 138.399
590 271.378
595 85.3985
600 13.0482
Ex : 598
200 0.265466
205 0.25254
210 0.265933
215 0.158567
220 0.325146
225 0.26201
230 0.306463
235 0.22512
240 0.386402
245 0.324738
250 0.353739
255 0.291901
260 0.200168
265 0.286725
270 0.204998
275 0.263015
280 0.276741
285 0.239859
290 0.28967
295 0.263801
300 0.231579
305 0.393807
310 0.269868
315 0.241843
320 0.344836
325 0.303913
330 0.282121
335 0.260369
340 0.261623
345 0.337821
350 0.243616
355 0.364556
360 0.344492
365 0.232865
370 0.322305
375 0.269306
380 0.238125
385 0.309718
390 0.28575
395 0.253895
400 0.326494
405 0.237774
410 0.236653
415 0.20944
420 0.196376
425 0.271055
430 0.176014
435 0.263601
440 0.208998
445 0.31381
450 0.280695
455 0.357801
460 0.350574
465 0.333214
470 0.295326
475 0.469887
480 0.437349
485 0.382614
490 0.39285
495 0.325049
500 0.238126
505 0.345863
510 0.382049
515 0.390062
520 0.175371
525 0.214711
530 0.269142
535 0.345009
540 0.354286
545 0.354558
550 0.239985
555 0.381964
560 0.421762
565 0.327212
570 0.563446
575 0.406687
580 0.380845
585 5.85705
590 116.004
595 212.206
600 137.177
Ex : 603
200 0.328586
205 0.215743
210 0.333847
215 0.260309
220 0.320896
225 0.198267
230 0.236885
235 0.221742
240 0.179191
245 0.284701
250 0.275726
255 0.349395
260 0.277024
265 0.284392
270 0.317753
275 0.247382
280 0.282686
285 0.329666
290 0.26185
295 0.236255
300 0.245256
305 0.294974
310 0.286794
315 0.279332
320 0.236434
325 0.26998
330 0.354163
335 0.287902
340 0.269572
345 0.369186
350 0.243692
355 0.287797
360 0.372056
365 0.308954
370 0.370293
375 0.324438
380 0.270471
385 0.282643
390 0.247023
395 0.184499
400 0.238076
405 0.292845
410 0.34153
415 0.192629
420 0.225294
425 0.359405
430 0.230579
435 0.342229
440 0.352596
445 0.284799
450 0.330706
455 0.350833
460 0.362832
465 0.298149
470 0.39207
475 0.346214
480 0.362813
485 0.323611
490 0.332046
495 0.322063
500 0.210489
505 0.283606
510 0.218985
515 0.400378
520 0.254335
525 0.254233
530 0.324998
535 0.333643
540 0.356885
545 0.322963
550 0.203061
555 0.298366
560 0.305881
565 0.320104
570 0.369545
575 0.372557
580 0.382344
585 0.629728
590 8.06486
595 108.717
600 212.728
