File format V 1.0
ven. 13. janv. 17:57:08 2017
Operator : 
Comments : 

=============================================
SpectroFluorometer parameters
Mode : 3D measurement
Data : Fluorescence
Phospho. : Ordinary
Spectrum : Fluorescence

Scan speed : 2400 nm/mn
Response : 100 ms
PM Voltage : 700 V
Shutter : On

Lambda Ex. Start : 203
Lambda Ex. End : 603
Lambda Ex. Step : 5
Ex. Slit : 5 nm

Lambda Em. Start : 200
Lambda Em. End : 600
Lambda Em. Step : 5
Em. Slit : 5 nm

Repetition : 1
Decal lambda em : 10
=============================================
DATA
Ex : 203
200 8.54854
205 5.96195
210 6.68163
215 8.10435
220 7.37594
225 3.71294
230 5.78616
235 8.47033
240 4.05959
245 6.95211
250 7.62932
255 5.28264
260 4.50888
265 6.13392
270 7.75373
275 8.21909
280 7.46213
285 7.36816
290 5.6983
295 6.42632
300 7.1307
305 5.07789
310 7.26504
315 7.35537
320 5.13532
325 5.61307
330 5.06552
335 4.5892
340 5.1666
345 4.93916
350 4.6046
355 5.83695
360 4.2051
365 6.81447
370 5.33881
375 5.24561
380 8.28984
385 5.95649
390 3.67575
395 5.31725
400 5.69769
405 4.97466
410 6.52893
415 6.79801
420 4.4108
425 7.08764
430 7.72143
435 6.22812
440 5.01679
445 5.83014
450 6.26787
455 5.1892
460 8.07546
465 5.06267
470 5.33678
475 3.29844
480 5.57662
485 4.90975
490 5.7442
495 6.51969
500 4.80301
505 4.09564
510 7.64174
515 7.80038
520 7.2408
525 7.51737
530 6.08827
535 5.76341
540 6.9074
545 5.67037
550 4.48408
555 8.57764
560 6.08882
565 7.96056
570 7.32132
575 4.7971
580 5.52551
585 7.25623
590 5.27301
595 6.19344
600 3.14185
Ex : 208
200 4.90991
205 5.26874
210 4.29689
215 5.94479
220 7.84372
225 6.29597
230 6.44142
235 5.15571
240 6.4832
245 4.66004
250 4.70927
255 4.74141
260 5.95616
265 4.54297
270 4.51945
275 3.31777
280 4.3489
285 6.77251
290 5.98416
295 4.16249
300 7.30413
305 5.92582
310 5.57092
315 6.7175
320 5.51499
325 5.29438
330 7.73966
335 5.59296
340 5.60174
345 6.59275
350 5.88685
355 4.32751
360 4.56345
365 7.05304
370 5.24566
375 4.65799
380 6.54359
385 8.1397
390 7.82509
395 5.70661
400 7.09256
405 6.6444
410 7.29134
415 8.26052
420 6.80162
425 8.2986
430 6.09132
435 5.26431
440 6.55048
445 5.2266
450 8.12968
455 7.17711
460 6.00558
465 5.92282
470 4.91802
475 5.50459
480 6.78406
485 5.95156
490 6.92871
495 5.9573
500 9.70895
505 7.41634
510 7.14929
515 6.72159
520 5.97298
525 8.07294
530 5.5682
535 4.86441
540 6.3741
545 5.53036
550 5.40713
555 6.98463
560 8.32325
565 7.79157
570 6.67818
575 5.51212
580 6.40596
585 5.37644
590 5.14637
595 6.49765
600 0.739408
Ex : 213
200 4.08225
205 7.67669
210 9.55509
215 6.01889
220 8.17922
225 4.22986
230 6.66866
235 4.35315
240 4.95538
245 5.68829
250 6.13144
255 5.59865
260 3.45412
265 6.60892
270 6.52643
275 10.3582
280 4.64298
285 3.81277
290 7.25272
295 9.04801
300 6.9482
305 6.45276
310 6.47725
315 4.51956
320 6.5208
325 5.49607
330 8.46875
335 6.33741
340 5.78964
345 5.76242
350 6.60881
355 6.27051
360 5.12387
365 6.84243
370 9.38807
375 6.32784
380 5.69612
385 5.19344
390 5.74528
395 8.02113
400 7.55726
405 5.12404
410 6.21623
415 5.0208
420 8.61163
425 6.13879
430 5.34903
435 9.78724
440 7.13823
445 9.29122
450 6.34093
455 4.75122
460 5.34863
465 7.05939
470 5.10183
475 5.33808
480 6.62277
485 7.03727
490 11.7555
495 6.68507
500 5.04405
505 8.02057
510 8.82812
515 6.56676
520 9.69226
525 5.33385
530 5.26696
535 7.31099
540 6.47787
545 5.7877
550 4.26818
555 5.21354
560 7.79046
565 5.74081
570 3.11677
575 4.42631
580 7.1196
585 6.13543
590 6.05854
595 5.67484
600 0.645775
Ex : 218
200 6.13761
205 6.82355
210 5.93454
215 7.86299
220 6.62556
225 6.978
230 5.11005
235 7.1503
240 4.78893
245 5.27819
250 5.65721
255 7.29234
260 6.6221
265 6.72067
270 7.24592
275 9.51535
280 7.22441
285 6.19497
290 6.03422
295 7.10856
300 6.74405
305 3.8025
310 5.05772
315 4.99486
320 3.52105
325 5.79516
330 6.13895
335 5.22142
340 7.38695
345 7.34962
350 4.70954
355 4.99037
360 6.2839
365 6.97581
370 7.96321
375 5.78843
380 6.85787
385 5.78848
390 5.90375
395 5.86007
400 6.44315
405 5.68118
410 5.86979
415 7.10036
420 8.22794
425 6.41042
430 7.52509
435 6.46236
440 7.73133
445 5.80187
450 6.25044
455 8.67875
460 5.91663
465 5.80674
470 7.18389
475 10.224
480 6.52189
485 6.48833
490 6.36977
495 3.66921
500 4.83642
505 7.83099
510 5.08011
515 6.9064
520 5.83484
525 6.49781
530 6.74366
535 6.80256
540 4.9743
545 8.18661
550 6.76936
555 6.14967
560 5.39239
565 3.75227
570 6.08294
575 7.09856
580 5.07484
585 6.31365
590 5.61889
595 4.83168
600 0.549827
Ex : 223
200 4.84545
205 7.9143
210 5.22346
215 4.39586
220 3.65636
225 6.47181
230 4.72838
235 6.95821
240 9.83884
245 4.90648
250 6.98632
255 5.4947
260 9.30163
265 8.37682
270 6.89837
275 4.16729
280 9.05831
285 7.05866
290 6.84592
295 7.56404
300 4.6371
305 4.80106
310 5.58538
315 6.91556
320 7.99236
325 5.89745
330 5.34748
335 4.60935
340 6.65577
345 7.08185
350 4.87902
355 8.8087
360 5.80233
365 8.08983
370 4.55092
375 6.78377
380 6.20249
385 4.10693
390 5.34733
395 5.82726
400 8.57537
405 6.06437
410 6.88139
415 6.44054
420 5.65216
425 8.40143
430 6.53245
435 6.02606
440 7.66617
445 5.19753
450 6.47616
455 7.08741
460 6.96873
465 6.79006
470 6.70674
475 5.39203
480 7.8281
485 7.21579
490 7.43173
495 4.90459
500 6.04637
505 6.40577
510 5.94771
515 6.55875
520 10.6009
525 5.22716
530 4.13163
535 6.49479
540 5.01325
545 8.65904
550 5.92966
555 5.29279
560 8.63273
565 4.51941
570 7.00918
575 5.94457
580 7.45751
585 5.63808
590 5.24832
595 4.39639
600 0.500293
Ex : 228
200 4.52917
205 6.34795
210 7.74383
215 7.77651
220 6.23353
225 4.5509
230 3.16898
235 8.97221
240 5.59096
245 4.86008
250 5.30597
255 5.20195
260 5.43736
265 4.86959
270 6.0339
275 6.16322
280 4.63388
285 4.27285
290 6.43365
295 6.09119
300 5.95825
305 3.3143
310 3.24496
315 4.60834
320 6.86798
325 4.24
330 9.93938
335 8.04662
340 6.12394
345 5.92859
350 5.0358
355 4.11787
360 6.40959
365 5.92695
370 6.63342
375 7.97549
380 8.22272
385 7.19262
390 6.60579
395 5.87818
400 4.72869
405 7.97519
410 5.62369
415 5.82891
420 5.33775
425 4.93681
430 6.74535
435 7.05398
440 5.56125
445 6.66206
450 4.9321
455 3.78482
460 4.60528
465 6.63361
470 6.96987
475 5.71939
480 5.43635
485 6.41783
490 6.19722
495 7.44414
500 4.34668
505 5.80813
510 5.93445
515 5.33084
520 5.77275
525 6.838
530 5.96646
535 5.48867
540 7.78333
545 7.89342
550 8.45996
555 8.13495
560 6.5036
565 6.64934
570 5.55524
575 5.0784
580 6.20607
585 5.59823
590 6.38127
595 5.73264
600 0.652353
Ex : 233
200 4.8008
205 6.38329
210 4.17773
215 5.14682
220 6.06404
225 5.37734
230 3.96852
235 3.94821
240 4.03898
245 4.38736
250 5.9568
255 4.51808
260 5.71418
265 5.85534
270 5.18851
275 5.55019
280 3.15799
285 4.57253
290 5.94138
295 5.61566
300 4.99652
305 4.45784
310 4.71486
315 4.83933
320 6.33666
325 4.28067
330 5.11047
335 5.57069
340 5.0826
345 5.16778
350 6.36846
355 9.4323
360 4.58575
365 4.52014
370 4.20447
375 6.65258
380 6.06003
385 3.43468
390 3.73954
395 7.64072
400 5.21697
405 6.19335
410 5.05106
415 5.15525
420 5.02826
425 4.89196
430 5.22282
435 5.57179
440 4.40849
445 5.979
450 5.37796
455 6.09034
460 4.94608
465 8.21446
470 5.2499
475 5.60608
480 5.08332
485 6.25838
490 6.46015
495 5.25771
500 5.40913
505 7.74985
510 5.67762
515 6.62617
520 7.51042
525 8.32621
530 7.01367
535 3.67737
540 5.05978
545 5.66325
550 5.65151
555 5.48818
560 4.80597
565 7.57794
570 4.28779
575 5.80134
580 4.34768
585 5.23308
590 5.12213
595 4.84361
600 1.79187
Ex : 238
200 3.99286
205 4.33522
210 4.54356
215 5.72519
220 4.03291
225 3.79483
230 4.71122
235 5.49824
240 4.57155
245 7.43866
250 4.24025
255 3.53355
260 5.03922
265 4.01002
270 3.11832
275 6.6614
280 4.12497
285 4.29264
290 3.74764
295 4.53254
300 4.05406
305 4.18276
310 4.09899
315 5.48936
320 4.47932
325 4.33003
330 6.64863
335 3.72977
340 5.29194
345 5.02619
350 3.95686
355 4.86153
360 6.57469
365 4.79249
370 4.47899
375 4.91815
380 5.37391
385 4.60109
390 6.42584
395 5.86079
400 6.05286
405 4.47866
410 3.84151
415 4.95611
420 5.3098
425 5.69057
430 10.2829
435 7.33448
440 6.05266
445 4.13875
450 5.85609
455 6.95878
460 4.71237
465 4.85855
470 4.65356
475 4.22648
480 4.25468
485 4.93172
490 5.98838
495 7.19571
500 3.69345
505 4.73967
510 4.28439
515 3.98295
520 7.10301
525 4.58224
530 4.94912
535 3.84347
540 6.18427
545 4.36883
550 5.84807
555 5.69373
560 4.49253
565 2.3799
570 5.01501
575 6.46659
580 4.8874
585 5.87339
590 3.51161
595 4.29762
600 17.2003
Ex : 243
200 3.46462
205 2.78671
210 4.48404
215 3.05846
220 5.36986
225 4.29426
230 4.91117
235 5.08348
240 3.16397
245 3.03383
250 5.60278
255 4.54411
260 5.55463
265 4.09789
270 5.76606
275 5.16152
280 3.45381
285 4.48659
290 3.84268
295 4.64892
300 4.55826
305 3.10347
310 5.73919
315 7.06909
320 5.91497
325 3.63709
330 2.83598
335 4.91862
340 6.86793
345 4.65577
350 5.30812
355 6.91938
360 5.25721
365 4.49048
370 4.68502
375 4.0041
380 4.18657
385 5.06169
390 5.94344
395 5.36939
400 4.96987
405 4.134
410 4.27208
415 4.84877
420 5.561
425 5.20688
430 4.43369
435 4.23457
440 4.64819
445 5.69796
450 3.69695
455 3.93132
460 5.81093
465 4.8937
470 4.1942
475 5.23706
480 4.43901
485 4.33667
490 3.70998
495 5.37938
500 3.25132
505 3.5354
510 3.18204
515 5.26673
520 4.70541
525 5.87071
530 6.26767
535 4.81451
540 2.93471
545 4.662
550 5.06164
555 5.11889
560 4.12151
565 4.69807
570 4.90319
575 4.39221
580 2.87632
585 2.48744
590 4.07648
595 4.7046
600 0.535366
Ex : 248
200 5.38166
205 5.13412
210 3.65835
215 3.6011
220 4.12789
225 4.87997
230 4.14124
235 2.6607
240 4.24378
245 3.93659
250 4.82164
255 4.82718
260 3.62677
265 5.72993
270 4.64627
275 3.7703
280 4.59122
285 4.93023
290 3.43449
295 3.26706
300 4.19102
305 2.94067
310 4.34038
315 4.04131
320 3.47298
325 4.00881
330 3.04544
335 4.6614
340 5.32835
345 3.69575
350 5.20859
355 3.17471
360 3.41002
365 5.44124
370 3.94435
375 3.82344
380 4.30308
385 4.05237
390 4.18519
395 4.61362
400 3.26606
405 3.13499
410 5.12901
415 3.82201
420 3.70454
425 3.1406
430 3.93859
435 6.48149
440 3.63877
445 3.8276
450 4.7511
455 4.23992
460 5.44369
465 4.66605
470 3.5894
475 4.64814
480 3.31303
485 4.44266
490 5.98862
495 3.5584
500 4.58801
505 3.66179
510 2.23215
515 3.89278
520 3.33467
525 4.40379
530 4.77681
535 5.57559
540 4.50133
545 5.18175
550 3.67112
555 6.03373
560 2.95706
565 2.29628
570 5.02864
575 3.39941
580 3.52185
585 5.32607
590 3.88609
595 4.41851
600 3.16142
Ex : 253
200 3.16788
205 3.08395
210 2.4917
215 5.21795
220 4.6235
225 3.09717
230 4.45619
235 3.41921
240 2.8087
245 2.78059
250 2.63948
255 4.70134
260 4.46793
265 4.04899
270 3.05638
275 2.59625
280 3.47208
285 2.1718
290 2.04227
295 2.67052
300 2.87083
305 2.34808
310 2.96283
315 4.00796
320 2.54241
325 2.99365
330 4.24212
335 4.62255
340 4.06876
345 3.62431
350 2.78771
355 3.05005
360 3.16083
365 2.64033
370 3.34679
375 3.42981
380 3.2578
385 2.42491
390 4.19212
395 3.40238
400 3.49954
405 3.51417
410 3.26522
415 3.50869
420 3.8945
425 2.88978
430 2.87367
435 4.14483
440 4.44988
445 3.30413
450 2.13803
455 2.53409
460 4.69508
465 3.94457
470 4.32759
475 5.37615
480 3.29822
485 3.53004
490 3.22009
495 4.2038
500 4.00163
505 3.59928
510 3.79653
515 3.497
520 3.5581
525 2.96804
530 3.48213
535 5.78769
540 3.70691
545 2.76816
550 3.15833
555 3.66512
560 3.15508
565 3.90168
570 3.92918
575 4.13313
580 3.19316
585 2.23496
590 2.25634
595 3.90683
600 0.444582
Ex : 258
200 2.92292
205 1.97867
210 2.00969
215 2.46957
220 2.03758
225 1.99917
230 3.10547
235 2.27925
240 3.04097
245 3.35808
250 2.76847
255 2.76422
260 1.91792
265 3.94476
270 3.68286
275 2.77712
280 2.37397
285 1.92912
290 3.78734
295 2.25096
300 2.94654
305 3.4069
310 2.77719
315 2.0816
320 2.95386
325 2.29439
330 1.91365
335 1.68251
340 2.26508
345 2.78852
350 3.01904
355 3.1185
360 3.05911
365 2.15673
370 2.64642
375 2.7634
380 2.97136
385 1.87905
390 1.87194
395 3.1268
400 3.07723
405 3.33232
410 2.65344
415 2.69558
420 3.49538
425 2.28031
430 2.13885
435 3.27414
440 2.96425
445 2.43214
450 2.34281
455 2.23367
460 2.9007
465 2.56678
470 2.4294
475 2.9969
480 2.46547
485 2.70469
490 3.71258
495 2.61835
500 2.55966
505 2.93571
510 3.41996
515 2.68847
520 3.30099
525 2.86894
530 2.80785
535 2.23414
540 2.62391
545 2.90427
550 1.57118
555 3.05301
560 2.90945
565 3.2613
570 1.78531
575 2.63802
580 3.08639
585 2.60701
590 1.67133
595 2.64919
600 0.81842
Ex : 263
200 1.38567
205 2.1599
210 1.43957
215 1.57156
220 2.10215
225 1.87644
230 2.36212
235 2.29024
240 1.75087
245 2.46936
250 1.96034
255 2.12169
260 2.40301
265 1.83181
270 1.9919
275 1.52103
280 1.65291
285 1.92124
290 1.85597
295 2.38102
300 3.18653
305 1.9843
310 1.90297
315 1.89281
320 1.42058
325 1.36925
330 2.0635
335 2.17775
340 2.29207
345 1.84076
350 2.07104
355 1.69296
360 1.6256
365 2.10836
370 2.52012
375 2.37932
380 1.77219
385 2.57824
390 3.33023
395 3.37368
400 2.5133
405 2.21163
410 1.97204
415 2.76149
420 2.62224
425 4.01348
430 3.48789
435 2.31199
440 2.30418
445 2.4557
450 2.88423
455 2.0579
460 1.85936
465 2.72181
470 1.73041
475 2.60409
480 2.25825
485 3.34436
490 3.0211
495 1.98251
500 2.88144
505 3.10126
510 2.54844
515 2.26585
520 2.69491
525 3.35308
530 1.73823
535 2.02283
540 2.58188
545 2.13176
550 1.93304
555 2.54946
560 2.61572
565 2.1454
570 1.87915
575 1.81561
580 2.76153
585 2.61106
590 2.29909
595 2.43698
600 0.927202
Ex : 268
200 1.13899
205 1.68735
210 1.59644
215 1.78887
220 1.93383
225 1.2996
230 1.58116
235 1.52049
240 1.12394
245 1.27443
250 1.31746
255 1.58293
260 1.02659
265 1.24531
270 1.10422
275 1.68136
280 1.2467
285 1.65692
290 1.55824
295 1.94422
300 1.32789
305 1.20042
310 1.15831
315 1.28199
320 1.49144
325 1.29651
330 2.11435
335 1.95702
340 1.62168
345 1.62163
350 1.31022
355 2.159
360 1.76755
365 2.00493
370 1.86911
375 3.08111
380 1.75544
385 2.21227
390 2.13893
395 1.97988
400 2.63652
405 2.07794
410 2.25376
415 2.1243
420 2.72596
425 2.60533
430 2.69726
435 1.55548
440 2.74667
445 3.5715
450 1.7964
455 2.0312
460 2.51372
465 1.48516
470 1.89506
475 1.48041
480 2.02114
485 2.06974
490 2.17159
495 1.78839
500 1.4568
505 2.76148
510 1.97601
515 1.45225
520 1.76346
525 2.38917
530 1.73389
535 2.10936
540 1.48424
545 1.39129
550 2.53496
555 2.35701
560 1.71521
565 1.53527
570 1.61918
575 1.88236
580 1.69449
585 1.10672
590 1.42821
595 1.40586
600 0.159981
Ex : 273
200 0.581256
205 1.50756
210 0.837766
215 1.42509
220 1.33402
225 1.87631
230 1.28653
235 0.937334
240 1.52531
245 1.15037
250 1.34741
255 1.18143
260 1.05968
265 1.68678
270 2.19836
275 1.78536
280 1.4134
285 0.834246
290 1.24629
295 1.67024
300 1.37406
305 1.08701
310 0.813164
315 0.895882
320 1.89088
325 1.58525
330 1.72271
335 1.12183
340 1.46636
345 2.23762
350 1.55203
355 1.53183
360 1.47568
365 1.60018
370 1.82992
375 1.56573
380 1.65989
385 1.33611
390 2.13177
395 1.98724
400 2.18807
405 1.90205
410 2.77869
415 2.42706
420 1.59212
425 1.71929
430 1.42499
435 1.45094
440 2.17437
445 1.81117
450 1.26242
455 1.40374
460 1.75654
465 1.07715
470 1.20453
475 1.68075
480 1.62071
485 1.61537
490 1.27975
495 1.13672
500 1.36128
505 1.44458
510 1.21124
515 1.11428
520 0.938489
525 1.36924
530 1.33712
535 1.2254
540 1.74386
545 1.19309
550 1.25471
555 0.963705
560 1.33266
565 1.83204
570 1.57847
575 1.98198
580 1.40504
585 1.67117
590 0.955126
595 1.23973
600 1.65501
Ex : 278
200 1.09393
205 1.05097
210 0.943443
215 0.907087
220 0.75179
225 0.910713
230 1.07741
235 1.70394
240 0.874198
245 1.01932
250 1.07401
255 1.25279
260 0.917258
265 1.04511
270 1.46782
275 1.16419
280 1.03049
285 0.748813
290 0.874978
295 0.961524
300 1.23165
305 1.60375
310 1.04688
315 1.77895
320 1.26971
325 1.16827
330 0.877209
335 1.23619
340 1.2412
345 1.84728
350 1.46634
355 1.33441
360 1.06527
365 1.56741
370 1.43732
375 1.44673
380 1.32146
385 1.27821
390 1.55106
395 1.60537
400 1.36186
405 1.8904
410 1.46657
415 1.20383
420 1.75804
425 0.986006
430 1.18017
435 2.32798
440 1.56404
445 1.3468
450 1.90604
455 1.2802
460 1.29425
465 1.56683
470 1.25725
475 1.41508
480 1.89415
485 1.45061
490 1.42426
495 1.44337
500 1.80106
505 1.63002
510 1.6744
515 0.956032
520 1.08398
525 1.35052
530 1.10913
535 0.884047
540 1.31654
545 1.27084
550 1.45497
555 1.52442
560 1.19999
565 0.928512
570 0.787412
575 0.773206
580 1.60951
585 1.36186
590 1.02951
595 0.916846
600 0.104334
Ex : 283
200 0.721356
205 0.948247
210 0.53503
215 0.962211
220 0.636854
225 1.1793
230 0.878312
235 0.848596
240 0.839737
245 1.05145
250 0.914431
255 0.875418
260 1.417
265 0.811747
270 0.849187
275 1.44447
280 1.37798
285 0.697088
290 1.02379
295 1.16279
300 0.792834
305 0.474869
310 0.752259
315 0.753939
320 0.759827
325 0.875284
330 1.41037
335 1.20302
340 0.912251
345 1.10346
350 1.30677
355 1.17361
360 1.07171
365 0.806255
370 1.17047
375 1.61142
380 1.03587
385 0.976767
390 1.46533
395 1.48878
400 1.54125
405 1.33408
410 1.17836
415 1.33145
420 1.35092
425 1.29959
430 1.1673
435 1.20992
440 1.77094
445 1.52131
450 1.44156
455 1.5799
460 1.37873
465 1.26727
470 1.16061
475 0.781219
480 1.24927
485 1.09041
490 1.29079
495 0.848338
500 1.10029
505 1.22461
510 0.802942
515 0.698619
520 0.966311
525 0.812687
530 0.898908
535 0.711747
540 0.93309
545 0.908449
550 0.945394
555 0.933858
560 1.08585
565 1.05439
570 1.15064
575 1.30395
580 0.828395
585 0.860698
590 1.01809
595 0.89136
600 0.101433
Ex : 288
200 0.771671
205 0.879523
210 0.815493
215 0.946219
220 0.925987
225 0.519756
230 0.987428
235 0.611686
240 0.795196
245 0.457879
250 0.821368
255 0.699603
260 0.427163
265 0.5581
270 0.682987
275 0.655058
280 0.735874
285 0.745575
290 0.668516
295 0.68499
300 0.833167
305 0.733429
310 0.619377
315 0.758169
320 0.856533
325 0.677735
330 0.710718
335 0.924026
340 1.63763
345 1.0341
350 0.657683
355 1.24103
360 0.766034
365 1.09684
370 0.929624
375 1.01615
380 0.879305
385 0.978093
390 1.34348
395 1.33585
400 1.17117
405 1.14681
410 1.4217
415 1.0186
420 1.08783
425 1.61233
430 1.09646
435 1.31523
440 1.62155
445 1.39495
450 1.34273
455 1.15219
460 1.13483
465 0.947095
470 1.11824
475 1.00784
480 0.916372
485 1.07239
490 0.931243
495 1.26838
500 1.02391
505 0.921043
510 0.799903
515 0.807823
520 1.00013
525 0.666476
530 0.702244
535 1.17555
540 0.847207
545 0.829574
550 0.784127
555 0.501597
560 0.648733
565 0.805683
570 0.987598
575 1.28848
580 0.794529
585 0.877924
590 0.873365
595 0.902809
600 0.461438
Ex : 293
200 0.819912
205 0.480908
210 0.633981
215 0.710176
220 0.913612
225 0.842324
230 0.812557
235 0.483026
240 0.549877
245 0.774826
250 0.583468
255 0.47073
260 0.497543
265 0.629483
270 0.827014
275 0.581785
280 0.949342
285 0.603083
290 0.587872
295 0.577256
300 0.606291
305 0.484566
310 0.55604
315 0.558105
320 0.494316
325 0.525624
330 0.642063
335 0.507896
340 0.394109
345 0.687976
350 1.0818
355 0.768488
360 0.899585
365 0.987703
370 1.03269
375 0.914186
380 0.995056
385 1.07173
390 1.10405
395 1.14453
400 0.973559
405 0.996555
410 1.28253
415 1.09175
420 1.16719
425 1.36088
430 1.04457
435 1.11857
440 1.4371
445 1.24992
450 0.988838
455 1.10497
460 1.37293
465 1.03763
470 0.858617
475 0.80868
480 0.835616
485 0.809279
490 1.21812
495 0.721005
500 0.54893
505 0.923626
510 1.10225
515 0.897329
520 0.605785
525 0.845515
530 0.917587
535 0.644435
540 0.67792
545 0.744641
550 0.633465
555 0.822891
560 0.589092
565 0.706633
570 0.757585
575 0.877448
580 0.756658
585 0.968795
590 0.677765
595 0.693465
600 0.0789137
Ex : 298
200 0.542286
205 0.65695
210 0.546816
215 0.723549
220 0.478638
225 0.387364
230 0.565287
235 0.587804
240 0.453076
245 0.4337
250 0.493211
255 0.748067
260 0.567687
265 0.511324
270 0.839885
275 0.48037
280 0.55103
285 0.570458
290 0.673252
295 0.974598
300 0.414747
305 0.747756
310 0.597138
315 0.470289
320 0.474302
325 0.337514
330 0.388095
335 0.734318
340 0.837593
345 0.452879
350 0.807561
355 0.78281
360 0.877156
365 1.08542
370 0.843392
375 0.880372
380 0.987142
385 1.1541
390 1.24081
395 0.912193
400 1.18568
405 0.862825
410 1.17863
415 1.22644
420 0.807153
425 0.901238
430 0.786525
435 0.856608
440 0.996543
445 1.00684
450 0.693827
455 0.794808
460 0.878436
465 0.89781
470 0.805929
475 1.06128
480 0.717377
485 0.81607
490 0.831056
495 0.632405
500 0.445725
505 0.554221
510 1.03721
515 0.801082
520 0.707551
525 0.607184
530 0.525107
535 0.454381
540 0.433776
545 0.601243
550 0.803764
555 0.793235
560 0.704263
565 0.78139
570 0.450666
575 0.432116
580 0.622019
585 0.719598
590 0.749492
595 0.810845
600 0.725274
Ex : 303
200 0.378031
205 0.640127
210 0.627928
215 0.485413
220 0.488989
225 0.467167
230 0.288914
235 0.252202
240 0.433802
245 0.400683
250 0.416702
255 0.380326
260 0.379437
265 0.552239
270 0.406961
275 0.410369
280 0.287579
285 0.397284
290 0.462655
295 0.663262
300 0.492767
305 0.477244
310 0.30661
315 0.497302
320 0.560101
325 0.741911
330 0.554827
335 0.556832
340 0.560641
345 0.542944
350 0.611877
355 0.394052
360 0.726562
365 0.650337
370 0.724662
375 0.894075
380 1.03804
385 0.820862
390 0.842464
395 0.924485
400 1.05568
405 1.18017
410 0.856317
415 0.950975
420 0.742953
425 1.00329
430 1.08465
435 1.06549
440 1.1239
445 1.0827
450 1.01601
455 0.787978
460 0.850785
465 0.874654
470 1.20523
475 0.837288
480 0.940735
485 0.825194
490 0.749402
495 0.590121
500 0.581217
505 0.878521
510 0.690664
515 0.550236
520 0.64007
525 0.606143
530 0.499665
535 0.347635
540 0.585777
545 0.406282
550 0.770649
555 0.358098
560 0.479257
565 0.575717
570 0.450634
575 0.430325
580 0.490752
585 0.597488
590 0.496972
595 0.626209
600 1.10173
Ex : 308
200 0.381647
205 0.279616
210 0.382765
215 0.373626
220 0.54646
225 0.387581
230 0.510146
235 0.529714
240 0.40535
245 0.366589
250 0.581779
255 0.520304
260 0.312244
265 0.438058
270 0.429651
275 0.196931
280 0.504238
285 0.461231
290 0.446097
295 0.692729
300 0.590504
305 0.625166
310 0.442016
315 0.41904
320 0.306609
325 0.468658
330 0.498349
335 0.628464
340 0.56093
345 0.617782
350 0.674741
355 0.887831
360 0.760491
365 0.988523
370 0.943433
375 0.970432
380 0.721637
385 1.17333
390 0.94421
395 1.19398
400 1.17658
405 1.00467
410 1.06422
415 0.992273
420 0.830858
425 0.852661
430 1.10261
435 0.716468
440 0.94376
445 1.12325
450 0.879054
455 0.728643
460 0.735618
465 0.790646
470 0.660522
475 0.733723
480 0.929759
485 0.784677
490 0.581466
495 0.7245
500 0.642626
505 0.547484
510 0.482283
515 0.801788
520 0.585481
525 0.627839
530 0.565817
535 0.610662
540 0.518964
545 0.426492
550 0.385969
555 0.390054
560 0.305718
565 0.50025
570 0.293053
575 0.512205
580 0.415954
585 0.656527
590 0.377161
595 0.572136
600 0.532825
Ex : 313
200 0.360689
205 0.484403
210 0.3044
215 0.410081
220 0.425079
225 0.486117
230 0.377574
235 0.532313
240 0.552911
245 0.400435
250 0.340969
255 0.362425
260 0.395724
265 0.423077
270 0.351688
275 0.235822
280 0.43739
285 0.373994
290 0.253427
295 0.290614
300 0.403646
305 0.492091
310 0.687179
315 0.502982
320 0.384044
325 0.463672
330 0.525679
335 0.345717
340 0.555803
345 0.832658
350 0.845756
355 0.853448
360 0.835281
365 0.683975
370 1.04959
375 1.13151
380 1.26867
385 1.3623
390 1.34972
395 1.4815
400 1.34731
405 1.58849
410 1.29524
415 1.562
420 1.55868
425 1.51049
430 1.67437
435 1.24378
440 1.42895
445 1.23851
450 1.35239
455 1.06445
460 1.17178
465 1.06321
470 1.12148
475 0.884564
480 0.973816
485 0.98016
490 0.84442
495 0.574064
500 0.787888
505 0.586748
510 0.644762
515 0.433256
520 0.729699
525 0.574551
530 0.463222
535 0.574594
540 0.413429
545 0.393244
550 0.311148
555 0.48383
560 0.414751
565 0.285194
570 0.334124
575 0.303756
580 0.380259
585 0.423989
590 0.314238
595 0.371613
600 0.277186
Ex : 318
200 0.579744
205 0.368139
210 0.384409
215 0.355823
220 0.35484
225 0.240874
230 0.584999
235 0.387811
240 0.288215
245 0.442784
250 0.502756
255 0.39598
260 0.307572
265 0.337953
270 0.336305
275 0.279441
280 0.548371
285 0.350036
290 0.181891
295 0.470914
300 0.26325
305 0.209337
310 0.36748
315 0.951102
320 0.698501
325 0.571644
330 0.763049
335 1.02296
340 1.26317
345 1.78023
350 2.59731
355 3.0951
360 3.86807
365 4.91458
370 5.4731
375 6.37031
380 6.96943
385 8.21457
390 8.42239
395 9.44599
400 9.98413
405 9.8739
410 10.4829
415 10.5416
420 9.40901
425 9.92704
430 9.69132
435 9.65926
440 9.50166
445 8.38081
450 8.40389
455 7.94962
460 7.35773
465 6.81322
470 5.82205
475 5.24474
480 4.88981
485 4.806
490 4.10902
495 3.83344
500 3.15407
505 2.65411
510 2.10987
515 2.24766
520 1.99842
525 1.81368
530 1.66823
535 1.2745
540 0.935757
545 0.897559
550 0.805916
555 0.756134
560 0.822907
565 0.64268
570 0.678247
575 0.513312
580 0.406083
585 0.616614
590 0.36709
595 0.44393
600 0.0505175
Ex : 323
200 0.344553
205 0.298606
210 0.236448
215 0.240203
220 0.265616
225 0.359364
230 0.401251
235 0.384659
240 0.304289
245 0.331523
250 0.493997
255 0.439592
260 0.394568
265 0.430189
270 0.237954
275 0.402889
280 0.308366
285 0.29843
290 0.236866
295 0.448318
300 0.31501
305 0.333904
310 0.384525
315 2.5565
320 11.7672
325 5.74757
330 2.17982
335 2.91686
340 4.39779
345 5.97337
350 8.97846
355 12.706
360 14.1161
365 18.0625
370 20.2721
375 23.9468
380 28.4731
385 31.3765
390 32.7076
395 35.3116
400 36.9488
405 38.9621
410 38.3101
415 38.9751
420 38.451
425 36.5628
430 36.5754
435 35.7852
440 33.8682
445 32.8273
450 31.1226
455 29.2052
460 26.9794
465 24.6684
470 22.5201
475 20.7894
480 19.435
485 17.6526
490 15.8916
495 13.2907
500 12.0075
505 10.9089
510 9.61634
515 8.64203
520 7.02151
525 5.67995
530 5.60943
535 4.34281
540 3.99024
545 3.35266
550 2.92918
555 2.77627
560 2.12302
565 1.95554
570 1.66609
575 1.35202
580 0.888944
585 0.668085
590 0.514004
595 0.736738
600 0.725281
Ex : 328
200 0.261816
205 0.338397
210 0.217404
215 0.201053
220 0.366313
225 0.225323
230 0.226576
235 0.24481
240 0.371736
245 0.300763
250 0.353734
255 0.386925
260 0.323034
265 0.201712
270 0.274992
275 0.193751
280 0.351541
285 0.308306
290 0.325988
295 0.270376
300 0.307372
305 0.297037
310 0.379215
315 0.940971
320 28.118
325 66.2808
330 22.7779
335 6.35345
340 5.76858
345 7.37969
350 9.76538
355 14.1568
360 18.9045
365 21.0608
370 23.1446
375 27.1512
380 30.2268
385 32.8651
390 35.9851
395 38.2475
400 40.3629
405 41.5026
410 41.3623
415 42.0879
420 41.3645
425 40.207
430 38.4162
435 37.1715
440 35.7696
445 34.0295
450 33.3349
455 31.0612
460 29.5221
465 27.0761
470 24.7685
475 22.9414
480 20.7362
485 18.9073
490 17.4936
495 15.7172
500 14.4449
505 12.6004
510 10.4667
515 9.56432
520 8.75164
525 7.51377
530 6.67237
535 6.51989
540 5.41465
545 4.63571
550 4.12833
555 3.27054
560 2.74737
565 2.57554
570 1.99238
575 1.92782
580 1.48671
585 1.13448
590 0.844937
595 0.734994
600 0.299411
Ex : 333
200 0.21457
205 0.29085
210 0.33322
215 0.207489
220 0.292629
225 0.198507
230 0.332092
235 0.294394
240 0.257075
245 0.247991
250 0.292902
255 0.310353
260 0.231266
265 0.479861
270 0.457639
275 0.283931
280 0.295058
285 0.244044
290 0.223247
295 0.216287
300 0.294596
305 0.268413
310 0.255287
315 0.283016
320 4.52805
325 83.2943
330 151.085
335 42.02
340 8.62624
345 5.85819
350 6.46943
355 7.55668
360 11.1572
365 15.8794
370 16.2644
375 17.1735
380 17.9327
385 18.9224
390 20.6817
395 21.1366
400 23.3082
405 23.952
410 23.945
415 23.6888
420 23.9325
425 22.7688
430 22.613
435 22.459
440 21.8666
445 21.2878
450 20.0965
455 19.4375
460 18.3805
465 17.4152
470 16.4257
475 16.287
480 14.6212
485 13.5637
490 13.1175
495 11.4582
500 10.2857
505 9.52662
510 9.02706
515 7.74643
520 6.73968
525 6.23129
530 5.57253
535 5.11126
540 4.497
545 4.11827
550 3.24524
555 3.20609
560 2.59224
565 2.22406
570 1.94274
575 1.68984
580 1.25699
585 1.18595
590 0.947198
595 0.680484
600 0.851992
Ex : 338
200 0.257207
205 0.265631
210 0.30345
215 0.32787
220 0.195946
225 0.248784
230 0.362768
235 0.364168
240 0.2024
245 0.170246
250 0.263276
255 0.205507
260 0.239379
265 0.263119
270 0.274407
275 0.32095
280 0.235274
285 0.272967
290 0.249374
295 0.197634
300 0.218691
305 0.321507
310 0.296909
315 0.278172
320 0.441413
325 8.76944
330 134.034
335 199.193
340 51.5457
345 8.74648
350 4.88036
355 4.51262
360 4.61494
365 6.80279
370 11.4779
375 11.7871
380 11.4005
385 10.0956
390 10.3242
395 11.0711
400 11.7861
405 12.2994
410 13.4688
415 13.7295
420 13.2481
425 13.7149
430 13.4772
435 13.634
440 13.754
445 13.6277
450 13.449
455 13.1607
460 13.1697
465 12.9377
470 12.1367
475 11.6493
480 11.0803
485 11.1109
490 10.6944
495 10.152
500 9.27531
505 8.76993
510 7.80697
515 7.1527
520 6.75406
525 5.96414
530 5.6706
535 5.06422
540 4.62744
545 4.26765
550 3.48163
555 2.9661
560 2.68266
565 2.46565
570 2.15256
575 1.71365
580 1.27729
585 1.1053
590 0.974666
595 0.797687
600 0.403176
Ex : 343
200 0.22182
205 0.163861
210 0.176902
215 0.245299
220 0.26884
225 0.247844
230 0.203347
235 0.217108
240 0.179483
245 0.22612
250 0.200902
255 0.208812
260 0.302054
265 0.28452
270 0.221201
275 0.356255
280 0.279753
285 0.170038
290 0.25817
295 0.217225
300 0.182563
305 0.240275
310 0.207095
315 0.262247
320 0.326599
325 0.435845
330 10.7821
335 153.416
340 222.711
345 55.0536
350 8.50291
355 3.51501
360 3.34266
365 2.9049
370 4.55934
375 8.66418
380 9.76426
385 8.13262
390 6.95159
395 7.06148
400 7.68104
405 8.6243
410 9.96125
415 10.6924
420 10.6782
425 11.0284
430 11.5137
435 11.7871
440 11.9219
445 12.5754
450 12.1143
455 12.072
460 12.0096
465 12.2414
470 12.4778
475 12.3531
480 12.6031
485 11.7096
490 11.5084
495 10.8992
500 10.0676
505 9.91633
510 8.78558
515 8.14636
520 7.82103
525 6.66964
530 6.3764
535 5.85957
540 5.10539
545 4.7762
550 4.40931
555 3.75169
560 3.30913
565 2.84494
570 2.18274
575 1.86534
580 1.3868
585 1.29621
590 0.968552
595 0.927991
600 0.401003
Ex : 348
200 0.256996
205 0.17381
210 0.184465
215 0.191169
220 0.216719
225 0.197264
230 0.282312
235 0.18948
240 0.26757
245 0.141948
250 0.135914
255 0.176784
260 0.193143
265 0.208898
270 0.338181
275 0.222537
280 0.224401
285 0.213747
290 0.269117
295 0.237345
300 0.245484
305 0.253287
310 0.167024
315 0.269269
320 0.337954
325 0.230868
330 0.468068
335 10.758
340 152.084
345 224.465
350 58.4781
355 8.842
360 3.24227
365 2.9112
370 2.60664
375 3.22933
380 6.94586
385 9.06156
390 7.68263
395 6.69533
400 6.67866
405 7.57564
410 9.08135
415 10.1149
420 10.1404
425 10.4246
430 10.7893
435 11.9124
440 12.3249
445 12.6398
450 12.7118
455 13.273
460 13.5506
465 14.0306
470 14.6331
475 13.9668
480 13.5881
485 13.5913
490 13.4768
495 12.947
500 12.0406
505 11.6141
510 10.7975
515 10.1983
520 9.14571
525 8.34292
530 7.50403
535 6.4142
540 6.2204
545 5.80057
550 4.80112
555 4.06848
560 3.68718
565 3.28714
570 3.13535
575 2.3346
580 1.5789
585 1.51138
590 1.082
595 0.957064
600 1.00052
Ex : 353
200 0.18722
205 0.181259
210 0.176653
215 0.192953
220 0.196963
225 0.205078
230 0.231906
235 0.179595
240 0.208868
245 0.244319
250 0.128516
255 0.318202
260 0.209504
265 0.19552
270 0.173555
275 0.162028
280 0.246018
285 0.21599
290 0.222091
295 0.165992
300 0.200531
305 0.290319
310 0.22498
315 0.194766
320 0.241306
325 0.270434
330 0.369796
335 0.40543
340 10.9746
345 153.877
350 221.753
355 56.3971
360 8.01922
365 3.08133
370 2.7778
375 2.65851
380 2.78124
385 5.53003
390 9.08627
395 8.00578
400 7.35603
405 7.76027
410 8.87156
415 9.54001
420 10.1164
425 10.0293
430 10.9138
435 11.7177
440 12.6892
445 13.3455
450 13.583
455 13.6261
460 14.5071
465 15.1398
470 15.5965
475 15.8691
480 15.6142
485 15.5466
490 15.0533
495 14.8228
500 14.0756
505 13.4663
510 12.5134
515 11.7813
520 10.8172
525 9.64354
530 8.79677
535 7.87184
540 7.39217
545 6.51317
550 5.69921
555 5.10347
560 4.62777
565 4.01164
570 3.36946
575 2.64947
580 2.16009
585 1.63943
590 1.3259
595 0.947027
600 1.55101
Ex : 358
200 0.107704
205 0.131743
210 0.191517
215 0.218252
220 0.224373
225 0.170893
230 0.21157
235 0.277804
240 0.197686
245 0.162796
250 0.201224
255 0.135913
260 0.183696
265 0.225671
270 0.190009
275 0.181567
280 0.131171
285 0.171634
290 0.201679
295 0.185408
300 0.193163
305 0.215479
310 0.259454
315 0.254862
320 0.284942
325 0.199532
330 0.291838
335 0.256484
340 0.571682
345 10.2853
350 148.11
355 221.868
360 57.4465
365 7.89134
370 3.02525
375 3.07841
380 2.86445
385 2.9619
390 4.81145
395 9.26011
400 9.46505
405 8.95261
410 9.54594
415 10.1992
420 10.8036
425 10.8313
430 11.258
435 12.7312
440 13.5996
445 14.4849
450 14.8066
455 14.9648
460 15.8894
465 16.5648
470 17.2586
475 17.5405
480 17.3713
485 17.0392
490 17.0352
495 16.4477
500 15.5807
505 15.0703
510 14.0929
515 12.829
520 11.5853
525 10.7226
530 10.0818
535 8.81599
540 7.89061
545 7.36128
550 6.27113
555 5.69481
560 4.82869
565 4.29557
570 3.52108
575 2.78364
580 2.17532
585 1.77678
590 1.45403
595 1.11683
600 1.14785
Ex : 363
200 0.196613
205 0.223593
210 0.234586
215 0.216656
220 0.200997
225 0.148814
230 0.222786
235 0.166784
240 0.197459
245 0.171444
250 0.164113
255 0.145456
260 0.119455
265 0.15166
270 0.2351
275 0.143994
280 0.155563
285 0.181713
290 0.118761
295 0.271029
300 0.167408
305 0.184394
310 0.182446
315 0.156697
320 0.230974
325 0.23463
330 0.269619
335 0.3313
340 0.308523
345 0.483468
350 9.19234
355 141.77
360 218.083
365 58.0001
370 8.26844
375 3.14271
380 3.2004
385 3.18005
390 2.9762
395 4.59987
400 8.60445
405 10.7247
410 11.7219
415 11.9354
420 11.5589
425 11.7917
430 12.8497
435 14.4675
440 15.595
445 15.9878
450 16.4284
455 16.8063
460 17.9852
465 19.6092
470 19.7716
475 20.1396
480 20.674
485 19.9815
490 19.5048
495 18.9719
500 18.0782
505 17.3832
510 16.4169
515 14.5933
520 13.478
525 12.4435
530 11.3754
535 9.88618
540 8.85192
545 8.14636
550 7.33397
555 6.47238
560 5.60366
565 4.98993
570 4.25859
575 3.35496
580 2.55998
585 1.86689
590 1.47799
595 1.27495
600 1.31952
Ex : 368
200 0.13515
205 0.118752
210 0.153956
215 0.173816
220 0.151717
225 0.111586
230 0.181352
235 0.158799
240 0.162759
245 0.112111
250 0.155577
255 0.154315
260 0.17661
265 0.137243
270 0.212377
275 0.143428
280 0.163696
285 0.19837
290 0.208384
295 0.112608
300 0.110767
305 0.207282
310 0.138902
315 0.295505
320 0.199944
325 0.135831
330 0.11765
335 0.221688
340 0.194324
345 0.215663
350 0.301431
355 7.42131
360 132.791
365 217.579
370 59.5876
375 8.57054
380 3.12258
385 3.03038
390 2.97458
395 2.95841
400 4.44573
405 8.71428
410 12.6319
415 12.417
420 11.9228
425 11.2115
430 11.9296
435 13.4276
440 14.8245
445 15.4169
450 15.976
455 17.5874
460 19.0277
465 20.9606
470 21.6616
475 22.6574
480 22.3919
485 21.9271
490 22.14
495 21.8891
500 20.9243
505 19.449
510 18.5215
515 17.3593
520 15.7293
525 14.0086
530 13.0339
535 11.6061
540 10.7603
545 9.763
550 8.55598
555 7.62095
560 6.65414
565 5.68531
570 4.93979
575 3.95908
580 3.04638
585 2.2363
590 2.00814
595 1.38235
600 1.63976
Ex : 373
200 0.149637
205 0.165332
210 0.200657
215 0.16713
220 0.162263
225 0.126543
230 0.155038
235 0.124206
240 0.154794
245 0.135886
250 0.131111
255 0.155744
260 0.146263
265 0.112405
270 0.182986
275 0.199348
280 0.115901
285 0.143502
290 0.159614
295 0.144964
300 0.116816
305 0.161025
310 0.159071
315 0.151491
320 0.134099
325 0.107113
330 0.106399
335 0.152892
340 0.212412
345 0.241532
350 0.395205
355 0.443547
360 8.4016
365 134.054
370 215.256
375 59.7826
380 8.81045
385 2.9569
390 3.01742
395 3.28675
400 3.77327
405 5.02736
410 9.2284
415 12.7009
420 11.7664
425 10.8255
430 10.8741
435 11.5426
440 13.165
445 14.3314
450 15.4364
455 16.8056
460 19.084
465 20.0275
470 21.3495
475 21.7868
480 23.7949
485 23.3676
490 22.7599
495 22.6112
500 21.7692
505 21.2835
510 19.5956
515 18.2543
520 16.738
525 15.7237
530 14.3398
535 12.9467
540 12.3037
545 10.6794
550 9.54341
555 8.39283
560 7.14458
565 6.40757
570 5.30562
575 4.25696
580 3.39189
585 2.59752
590 2.06047
595 1.60347
600 0.79004
Ex : 378
200 0.146629
205 0.133489
210 0.1549
215 0.15912
220 0.146827
225 0.118249
230 0.159112
235 0.14161
240 0.155056
245 0.129583
250 0.168248
255 0.179098
260 0.181869
265 0.205535
270 0.201653
275 0.161565
280 0.102614
285 0.20678
290 0.122554
295 0.160319
300 0.246228
305 0.195072
310 0.138407
315 0.146593
320 0.109676
325 0.207643
330 0.141825
335 0.204007
340 0.193919
345 0.206601
350 0.288262
355 0.27055
360 0.46399
365 8.44947
370 137.998
375 227.586
380 64.2959
385 9.53876
390 3.5221
395 3.71013
400 4.4425
405 5.72375
410 7.37779
415 10.5137
420 13.7297
425 12.8016
430 12.3037
435 12.9553
440 13.7185
445 15.2185
450 15.9859
455 17.3126
460 18.7296
465 20.2357
470 21.4496
475 22.3709
480 21.7642
485 22.716
490 22.2085
495 22.0022
500 21.1264
505 20.1962
510 19.0807
515 17.9248
520 16.4776
525 14.7391
530 14.1363
535 12.4951
540 10.9216
545 10.3289
550 9.29792
555 8.07781
560 6.99143
565 6.17451
570 5.09875
575 4.12883
580 3.28111
585 2.40784
590 1.92893
595 1.41373
600 0.809051
Ex : 383
200 0.211491
205 0.159285
210 0.131988
215 0.205831
220 0.137
225 0.127185
230 0.117352
235 0.0817957
240 0.135487
245 0.146955
250 0.131172
255 0.160477
260 0.127106
265 0.152805
270 0.118109
275 0.10437
280 0.169303
285 0.110273
290 0.162394
295 0.1673
300 0.176675
305 0.185865
310 0.172804
315 0.128064
320 0.122932
325 0.128623
330 0.194351
335 0.154497
340 0.188105
345 0.194246
350 0.262633
355 0.222646
360 0.248026
365 0.465055
370 7.98088
375 137.907
380 235.426
385 65.7736
390 9.74794
395 3.50023
400 4.30201
405 6.30848
410 8.22899
415 9.68654
420 10.8768
425 13.5534
430 15.0913
435 14.7425
440 15.8241
445 15.8088
450 16.9416
455 17.9302
460 19.3659
465 21.3219
470 22.1896
475 22.8428
480 23.1973
485 23.2296
490 23.634
495 22.4325
500 22.3563
505 21.1025
510 19.895
515 18.0089
520 16.6603
525 15.113
530 13.8195
535 12.9186
540 11.3533
545 10.483
550 9.26275
555 8.15507
560 7.18976
565 6.13355
570 5.03113
575 3.95187
580 3.19223
585 2.51281
590 1.94269
595 1.53579
600 2.08564
Ex : 388
200 0.166079
205 0.149057
210 0.0987793
215 0.170845
220 0.132835
225 0.140823
230 0.206172
235 0.193672
240 0.175687
245 0.128965
250 0.184771
255 0.158088
260 0.124982
265 0.187007
270 0.164348
275 0.144068
280 0.164326
285 0.0949104
290 0.12676
295 0.201072
300 0.157068
305 0.130209
310 0.187557
315 0.111169
320 0.138169
325 0.122288
330 0.120002
335 0.157808
340 0.207581
345 0.15791
350 0.232927
355 0.195346
360 0.242056
365 0.335769
370 0.383743
375 8.7293
380 141.996
385 232.911
390 64.4649
395 9.40725
400 3.82481
405 5.60941
410 7.61572
415 8.73594
420 9.11657
425 9.45998
430 12.7975
435 15.9332
440 15.9701
445 16.0504
450 16.5298
455 17.2664
460 19.6386
465 20.8366
470 22.3755
475 22.9195
480 23.457
485 23.8577
490 23.4875
495 23.2623
500 23.3264
505 21.3607
510 20.3904
515 18.6901
520 17.3123
525 16.0762
530 14.8726
535 13.345
540 11.937
545 10.5435
550 9.12829
555 8.85892
560 7.51333
565 6.22563
570 5.16466
575 4.34882
580 3.35881
585 2.63234
590 1.98882
595 1.74391
600 1.3767
Ex : 393
200 0.0936207
205 0.116313
210 0.117115
215 0.104827
220 0.11908
225 0.099531
230 0.189015
235 0.117174
240 0.140874
245 0.117941
250 0.13563
255 0.122061
260 0.116878
265 0.152041
270 0.134333
275 0.155404
280 0.0854002
285 0.141981
290 0.0791425
295 0.109643
300 0.150367
305 0.114688
310 0.113083
315 0.121711
320 0.172641
325 0.0978313
330 0.141404
335 0.133453
340 0.122945
345 0.215439
350 0.141284
355 0.179263
360 0.215429
365 0.222057
370 0.280252
375 0.420281
380 7.54422
385 142.07
390 238.512
395 66.5115
400 10.1925
405 4.82965
410 6.25564
415 7.45317
420 7.34628
425 7.17075
430 8.24157
435 11.3432
440 14.7404
445 15.3647
450 15.1806
455 16.2835
460 18.2657
465 20.1771
470 21.422
475 22.517
480 23.2867
485 23.7766
490 23.9096
495 24.031
500 23.2322
505 22.5177
510 21.3734
515 19.5295
520 17.732
525 16.6715
530 15.1585
535 13.9903
540 12.9366
545 11.3101
550 9.98405
555 9.17293
560 7.80519
565 6.62315
570 5.56202
575 4.43307
580 3.50292
585 2.65019
590 2.03637
595 1.60783
600 0.484788
Ex : 398
200 0.15165
205 0.100766
210 0.1632
215 0.157981
220 0.120403
225 0.144222
230 0.179685
235 0.13344
240 0.144981
245 0.115653
250 0.144288
255 0.141068
260 0.173358
265 0.118032
270 0.109677
275 0.123556
280 0.134699
285 0.121073
290 0.0895278
295 0.130961
300 0.143065
305 0.109515
310 0.141223
315 0.144298
320 0.0979489
325 0.0927549
330 0.122348
335 0.190279
340 0.143229
345 0.14363
350 0.124639
355 0.0971722
360 0.203493
365 0.15995
370 0.156605
375 0.207426
380 0.387987
385 7.72949
390 142.975
395 243.551
400 67.3982
405 11.1941
410 5.77726
415 6.73566
420 7.11657
425 6.93751
430 7.31067
435 8.87835
440 11.4721
445 15.256
450 16.2255
455 16.9811
460 18.5978
465 20.285
470 21.5577
475 22.8642
480 23.7451
485 24.204
490 24.3231
495 24.7516
500 24.1337
505 23.1803
510 21.8909
515 20.2744
520 18.4551
525 16.7707
530 15.6141
535 14.1263
540 12.8022
545 11.3754
550 10.0744
555 8.98637
560 7.87719
565 6.75511
570 5.84379
575 4.63687
580 3.60684
585 2.73374
590 2.14876
595 1.75256
600 1.88744
Ex : 403
200 0.128762
205 0.104084
210 0.128991
215 0.116279
220 0.135381
225 0.121499
230 0.1407
235 0.125207
240 0.151856
245 0.131218
250 0.170691
255 0.121085
260 0.12834
265 0.107256
270 0.163177
275 0.125617
280 0.0988312
285 0.168678
290 0.134149
295 0.151178
300 0.140279
305 0.158833
310 0.139675
315 0.208132
320 0.161177
325 0.1174
330 0.158314
335 0.124855
340 0.135686
345 0.121466
350 0.148944
355 0.132519
360 0.15999
365 0.192485
370 0.16501
375 0.233221
380 0.335573
385 0.350904
390 8.69264
395 147.846
400 244.403
405 69.5706
410 13.1593
415 7.41057
420 7.09611
425 7.31096
430 7.84736
435 9.1417
440 11.0029
445 13.0051
450 16.5315
455 19.0046
460 19.8127
465 21.1215
470 21.939
475 23.4491
480 24.6477
485 24.9809
490 24.7965
495 24.9531
500 24.2539
505 23.3453
510 21.6775
515 20.7059
520 19.0794
525 17.5181
530 16.2346
535 14.6478
540 13.1945
545 11.8588
550 10.6717
555 9.5638
560 8.20666
565 7.05715
570 5.85328
575 4.74282
580 3.7205
585 2.77084
590 2.06609
595 1.69375
600 1.41815
Ex : 408
200 0.127479
205 0.109506
210 0.133563
215 0.101844
220 0.109432
225 0.154447
230 0.125904
235 0.140773
240 0.120552
245 0.152427
250 0.190237
255 0.156721
260 0.161494
265 0.129944
270 0.112315
275 0.181356
280 0.115905
285 0.128645
290 0.110601
295 0.103477
300 0.101644
305 0.160651
310 0.0937324
315 0.124116
320 0.114481
325 0.146929
330 0.181473
335 0.136246
340 0.108498
345 0.129395
350 0.163165
355 0.190818
360 0.144223
365 0.144411
370 0.191872
375 0.209764
380 0.239682
385 0.29974
390 0.438236
395 8.49648
400 151.78
405 249.147
410 70.4457
415 13.6568
420 7.31715
425 6.6945
430 7.41127
435 8.43001
440 9.97315
445 11.6891
450 13.4367
455 17.519
460 20.5036
465 21.6346
470 22.6962
475 23.6542
480 24.348
485 24.6187
490 25.3525
495 24.776
500 23.9031
505 23.0513
510 21.9924
515 20.5255
520 19.0038
525 17.5848
530 15.8693
535 14.5661
540 13.2659
545 12.1594
550 10.8754
555 9.24088
560 8.30006
565 7.05418
570 5.67124
575 4.93031
580 3.87134
585 2.89319
590 2.16581
595 1.63493
600 1.05404
Ex : 413
200 0.121017
205 0.1097
210 0.124433
215 0.113367
220 0.0914278
225 0.140426
230 0.144287
235 0.12984
240 0.177988
245 0.175987
250 0.145663
255 0.118967
260 0.147683
265 0.13573
270 0.111041
275 0.104545
280 0.110988
285 0.130034
290 0.102204
295 0.149046
300 0.131537
305 0.153063
310 0.138121
315 0.102217
320 0.129406
325 0.126505
330 0.121498
335 0.140549
340 0.169451
345 0.0960565
350 0.141458
355 0.159712
360 0.169913
365 0.1593
370 0.183269
375 0.202334
380 0.194601
385 0.318138
390 0.335686
395 0.463612
400 9.65896
405 158.363
410 254.83
415 69.6338
420 11.8595
425 5.2542
430 5.22611
435 6.2017
440 7.55336
445 8.85664
450 10.4031
455 12.7375
460 16.3008
465 20.1518
470 21.8387
475 21.8609
480 22.4314
485 23.0094
490 23.361
495 23.598
500 23.7821
505 21.989
510 20.7358
515 19.5073
520 18.2378
525 16.9917
530 15.5575
535 13.9075
540 12.7649
545 11.6133
550 10.2734
555 9.18041
560 7.92586
565 6.83022
570 5.64326
575 4.52723
580 3.50859
585 2.89076
590 2.06564
595 1.63144
600 1.2711
Ex : 418
200 0.13883
205 0.110553
210 0.106769
215 0.109214
220 0.0992735
225 0.0985039
230 0.105482
235 0.118354
240 0.156581
245 0.114079
250 0.0998065
255 0.146979
260 0.116851
265 0.135023
270 0.139822
275 0.153668
280 0.115993
285 0.134362
290 0.15515
295 0.163587
300 0.136649
305 0.152382
310 0.129625
315 0.117
320 0.17083
325 0.129856
330 0.180588
335 0.131043
340 0.163317
345 0.131927
350 0.175263
355 0.155387
360 0.168377
365 0.166079
370 0.15255
375 0.212627
380 0.192806
385 0.183464
390 0.273416
395 0.303266
400 0.526329
405 9.36623
410 159.605
415 261.672
420 72.3878
425 10.7016
430 3.80488
435 3.62267
440 4.93634
445 6.22152
450 8.08368
455 10.2501
460 12.4942
465 15.4967
470 19.5421
475 21.217
480 21.3211
485 21.2918
490 21.8744
495 21.8613
500 21.5447
505 20.556
510 19.7905
515 18.673
520 17.1136
525 15.9472
530 14.6858
535 13.1902
540 11.9313
545 11.1088
550 9.8597
555 8.77759
560 7.74418
565 6.60136
570 5.58111
575 4.43727
580 3.47432
585 2.66542
590 2.03654
595 1.5753
600 0.635658
Ex : 423
200 0.157175
205 0.102747
210 0.105003
215 0.113084
220 0.103239
225 0.101558
230 0.0890832
235 0.162217
240 0.131461
245 0.0955994
250 0.0900302
255 0.134866
260 0.112057
265 0.108399
270 0.0995121
275 0.098429
280 0.11714
285 0.130962
290 0.1084
295 0.146852
300 0.132494
305 0.109175
310 0.132202
315 0.117637
320 0.12727
325 0.164132
330 0.171238
335 0.145547
340 0.166494
345 0.164728
350 0.136055
355 0.15429
360 0.11322
365 0.171716
370 0.203754
375 0.229956
380 0.21046
385 0.154695
390 0.192065
395 0.249495
400 0.294738
405 0.592568
410 9.47013
415 168.061
420 262.749
425 68.8903
430 9.66636
435 3.22522
440 3.36538
445 4.91201
450 6.71543
455 8.7087
460 10.7465
465 12.904
470 15.3894
475 18.9409
480 20.5405
485 20.4633
490 20.2482
495 20.3521
500 19.8319
505 19.0857
510 18.1477
515 17.1933
520 15.5564
525 14.7008
530 13.1884
535 12.3322
540 11.104
545 10.0447
550 8.8358
555 7.96299
560 6.67906
565 6.09793
570 5.0544
575 4.08193
580 3.08853
585 2.51727
590 1.78816
595 1.53825
600 2.05896
Ex : 428
200 0.134902
205 0.130122
210 0.160377
215 0.148843
220 0.111858
225 0.121681
230 0.109589
235 0.1601
240 0.107848
245 0.192133
250 0.0977715
255 0.101591
260 0.212728
265 0.131353
270 0.139843
275 0.147718
280 0.129543
285 0.122029
290 0.116846
295 0.112857
300 0.176751
305 0.133194
310 0.107263
315 0.115958
320 0.142255
325 0.119035
330 0.117958
335 0.129826
340 0.161563
345 0.124572
350 0.129538
355 0.155794
360 0.134823
365 0.132
370 0.108441
375 0.144225
380 0.194885
385 0.164261
390 0.194052
395 0.167948
400 0.259853
405 0.379418
410 0.507983
415 10.5099
420 170.914
425 269.592
430 73.2983
435 10.215
440 3.62038
445 4.00509
450 5.48073
455 7.59949
460 9.41531
465 11.2963
470 13.1655
475 14.8875
480 17.3656
485 19.4041
490 18.89
495 18.562
500 18.3575
505 17.1925
510 16.2371
515 15.0209
520 14.2786
525 12.9945
530 12.2225
535 11.1945
540 9.81768
545 9.22495
550 8.05116
555 7.4178
560 6.4557
565 5.4177
570 4.59918
575 3.86809
580 3.00453
585 2.2568
590 1.66619
595 1.30486
600 1.64525
Ex : 433
200 0.135159
205 0.131524
210 0.104321
215 0.0868953
220 0.134834
225 0.111466
230 0.12456
235 0.118565
240 0.12944
245 0.144338
250 0.113391
255 0.0970408
260 0.1137
265 0.158096
270 0.137018
275 0.112777
280 0.0980566
285 0.0924642
290 0.146762
295 0.136172
300 0.123358
305 0.162206
310 0.112335
315 0.187648
320 0.142946
325 0.150993
330 0.142681
335 0.17296
340 0.161851
345 0.176372
350 0.151012
355 0.199619
360 0.152755
365 0.152808
370 0.195374
375 0.161233
380 0.147794
385 0.170672
390 0.215877
395 0.239032
400 0.209899
405 0.268934
410 0.289417
415 0.508017
420 11.7621
425 185.405
430 282.346
435 72.6959
440 10.4789
445 4.37209
450 4.85689
455 6.76677
460 8.5727
465 9.95616
470 11.1535
475 12.3044
480 13.6982
485 15.7992
490 17.6175
495 17.5133
500 15.9361
505 15.5548
510 14.543
515 13.6145
520 12.535
525 11.5417
530 10.9639
535 9.67114
540 8.84992
545 8.14418
550 7.16906
555 6.33315
560 5.44143
565 4.87858
570 4.15239
575 3.40573
580 2.45785
585 1.94683
590 1.52295
595 1.25668
600 1.27855
Ex : 438
200 0.117666
205 0.153119
210 0.155736
215 0.0945269
220 0.153693
225 0.101839
230 0.163633
235 0.133376
240 0.100951
245 0.137075
250 0.0948879
255 0.115818
260 0.146503
265 0.131139
270 0.100591
275 0.116695
280 0.14774
285 0.135025
290 0.14335
295 0.138597
300 0.129825
305 0.214797
310 0.109354
315 0.153075
320 0.152128
325 0.129784
330 0.119686
335 0.1427
340 0.171193
345 0.106394
350 0.128366
355 0.13105
360 0.117412
365 0.136072
370 0.142951
375 0.128962
380 0.15248
385 0.152786
390 0.139982
395 0.19623
400 0.271028
405 0.25484
410 0.308246
415 0.305911
420 0.542858
425 11.1415
430 188.568
435 301.453
440 78.152
445 11.6252
450 5.17987
455 5.67585
460 7.1402
465 8.6291
470 9.75971
475 10.3812
480 11.5304
485 12.3271
490 12.874
495 15.2742
500 15.3157
505 13.6141
510 12.6668
515 12.2367
520 10.6375
525 10.1355
530 9.22512
535 8.24235
540 7.46653
545 6.9404
550 6.1326
555 5.55085
560 4.85104
565 4.02251
570 3.40848
575 2.95881
580 2.44951
585 1.65071
590 1.31474
595 1.1137
600 1.03673
Ex : 443
200 0.131437
205 0.125213
210 0.138875
215 0.139131
220 0.078108
225 0.0993247
230 0.127064
235 0.136391
240 0.176864
245 0.148529
250 0.0947186
255 0.0972724
260 0.11583
265 0.104664
270 0.126637
275 0.154857
280 0.143761
285 0.130983
290 0.120641
295 0.0736091
300 0.175596
305 0.149271
310 0.125076
315 0.113241
320 0.144282
325 0.113314
330 0.110917
335 0.125084
340 0.112393
345 0.0861968
350 0.103743
355 0.134758
360 0.110226
365 0.163927
370 0.126092
375 0.137354
380 0.180767
385 0.161343
390 0.171671
395 0.179176
400 0.196867
405 0.150891
410 0.291008
415 0.219621
420 0.35757
425 0.588627
430 12.8794
435 204.645
440 310.389
445 80.0833
450 12.3623
455 5.50045
460 5.62769
465 6.9201
470 7.95163
475 8.50222
480 9.2647
485 9.82703
490 10.0592
495 10.9221
500 11.9116
505 12.5654
510 11.2318
515 9.67767
520 8.95258
525 8.49482
530 7.39815
535 6.88131
540 6.16848
545 5.75977
550 5.05134
555 4.68099
560 4.13916
565 3.41775
570 2.89273
575 2.32395
580 1.88188
585 1.39578
590 1.23671
595 1.0124
600 1.11739
Ex : 448
200 0.083887
205 0.10665
210 0.142203
215 0.105925
220 0.158208
225 0.134455
230 0.145578
235 0.126965
240 0.0941505
245 0.136689
250 0.140571
255 0.138693
260 0.11417
265 0.0916621
270 0.0949922
275 0.0955409
280 0.145282
285 0.116488
290 0.112457
295 0.226966
300 0.217998
305 0.14054
310 0.175876
315 0.105203
320 0.116881
325 0.0990902
330 0.135475
335 0.186711
340 0.120331
345 0.155345
350 0.158352
355 0.16399
360 0.1666
365 0.171513
370 0.169669
375 0.112751
380 0.165711
385 0.124471
390 0.218645
395 0.177485
400 0.126843
405 0.200647
410 0.200361
415 0.226963
420 0.238201
425 0.336708
430 0.601281
435 13.4112
440 218.847
445 328.176
450 84.6561
455 12.8755
460 5.31105
465 5.26686
470 5.88834
475 6.84334
480 7.11526
485 8.02357
490 7.60299
495 7.44387
500 7.76554
505 8.62865
510 10.0172
515 8.78276
520 7.17568
525 6.82025
530 6.2494
535 5.5092
540 5.10654
545 4.50612
550 3.97932
555 3.44146
560 3.0671
565 2.69896
570 2.32639
575 1.91545
580 1.4256
585 1.19144
590 0.940432
595 0.789419
600 0.429992
Ex : 453
200 0.0706505
205 0.129998
210 0.149087
215 0.132738
220 0.15419
225 0.130891
230 0.12252
235 0.127161
240 0.113418
245 0.108714
250 0.128157
255 0.146886
260 0.128866
265 0.094824
270 0.110782
275 0.133459
280 0.103774
285 0.10047
290 0.147881
295 0.164057
300 0.119189
305 0.122773
310 0.0917154
315 0.120144
320 0.146596
325 0.131472
330 0.110316
335 0.102707
340 0.216529
345 0.139153
350 0.16392
355 0.137714
360 0.156737
365 0.163756
370 0.180352
375 0.145379
380 0.142757
385 0.118042
390 0.134091
395 0.128462
400 0.10984
405 0.207627
410 0.209585
415 0.167632
420 0.263289
425 0.249719
430 0.314833
435 0.59748
440 14.328
445 237.339
450 343.573
455 83.0071
460 12.4205
465 4.68805
470 4.21416
475 4.77028
480 5.53575
485 5.56073
490 5.75351
495 5.66207
500 5.60763
505 5.32607
510 5.94326
515 6.91719
520 6.96253
525 5.43706
530 5.20622
535 4.56202
540 4.11478
545 3.60639
550 3.00897
555 2.64605
560 2.33775
565 2.20966
570 1.83365
575 1.42621
580 1.0808
585 1.03631
590 0.776274
595 0.681985
600 0.410639
Ex : 458
200 0.0966525
205 0.103166
210 0.163723
215 0.118453
220 0.137647
225 0.111832
230 0.0940848
235 0.165487
240 0.14119
245 0.111603
250 0.132491
255 0.148787
260 0.099869
265 0.100566
270 0.110811
275 0.14554
280 0.1304
285 0.133422
290 0.174435
295 0.193204
300 0.13397
305 0.182436
310 0.164699
315 0.126575
320 0.147888
325 0.105154
330 0.12933
335 0.176277
340 0.127693
345 0.125367
350 0.119663
355 0.165245
360 0.161953
365 0.120431
370 0.142938
375 0.136104
380 0.119147
385 0.149278
390 0.148222
395 0.1775
400 0.137955
405 0.157401
410 0.216022
415 0.167845
420 0.184279
425 0.182105
430 0.287446
435 0.423738
440 0.742241
445 15.697
450 237.264
455 352.633
460 87.7413
465 12.636
470 4.16773
475 3.41215
480 3.64828
485 3.85213
490 4.03773
495 4.10906
500 3.8415
505 3.90821
510 3.58635
515 4.02269
520 4.85999
525 5.41625
530 4.36701
535 3.5152
540 3.30361
545 2.91727
550 2.51179
555 2.13981
560 1.99436
565 1.69419
570 1.47666
575 1.09467
580 0.986285
585 0.760355
590 0.665205
595 0.472339
600 0.0537504
Ex : 463
200 0.10911
205 0.114481
210 0.133571
215 0.122529
220 0.123345
225 0.12279
230 0.123665
235 0.114721
240 0.157728
245 0.113673
250 0.0843116
255 0.128756
260 0.11701
265 0.0962843
270 0.140815
275 0.105284
280 0.110956
285 0.183159
290 0.153947
295 0.102869
300 0.109954
305 0.122766
310 0.0844036
315 0.128778
320 0.205936
325 0.142015
330 0.116843
335 0.158492
340 0.114005
345 0.0937039
350 0.135488
355 0.172671
360 0.0950848
365 0.136548
370 0.138853
375 0.14757
380 0.133535
385 0.156512
390 0.1394
395 0.154214
400 0.202128
405 0.157139
410 0.164918
415 0.149478
420 0.18394
425 0.195715
430 0.303444
435 0.268577
440 0.389984
445 0.735208
450 15.4183
455 246.028
460 374.058
465 91.6275
470 12.4847
475 3.68829
480 2.73117
485 2.79674
490 3.16203
495 3.20908
500 2.94452
505 2.54059
510 2.67352
515 2.55128
520 2.72125
525 3.2284
530 4.38031
535 3.88981
540 2.8161
545 2.56498
550 2.17122
555 1.95302
560 1.54339
565 1.25641
570 1.28548
575 1.00083
580 0.812098
585 0.640082
590 0.499559
595 0.501364
600 0.243047
Ex : 468
200 0.161305
205 0.1216
210 0.0904427
215 0.140328
220 0.124716
225 0.125555
230 0.112428
235 0.150314
240 0.162483
245 0.116469
250 0.129943
255 0.11086
260 0.109464
265 0.139434
270 0.088197
275 0.157981
280 0.125491
285 0.145938
290 0.0997818
295 0.125187
300 0.141494
305 0.129619
310 0.174378
315 0.0935119
320 0.147315
325 0.0813237
330 0.13498
335 0.133497
340 0.102713
345 0.161668
350 0.125442
355 0.134881
360 0.106231
365 0.144063
370 0.165709
375 0.130146
380 0.144436
385 0.139226
390 0.174027
395 0.195238
400 0.135182
405 0.128252
410 0.116937
415 0.158293
420 0.190348
425 0.140029
430 0.209476
435 0.196129
440 0.25743
445 0.341848
450 0.610551
455 16.3294
460 242.923
465 379.202
470 92.688
475 12.3168
480 3.10335
485 2.0937
490 2.14987
495 2.38915
500 2.44397
505 2.3538
510 2.0164
515 2.10334
520 2.20842
525 2.04807
530 2.31764
535 3.3982
540 3.64093
545 2.50943
550 2.131
555 1.83893
560 1.58354
565 1.23053
570 1.01515
575 0.943449
580 0.772996
585 0.605186
590 0.481162
595 0.433345
600 0.225818
Ex : 473
200 0.0912964
205 0.136446
210 0.0948997
215 0.115454
220 0.093657
225 0.13764
230 0.165077
235 0.112883
240 0.139989
245 0.104824
250 0.108748
255 0.0963339
260 0.125971
265 0.0898719
270 0.101085
275 0.112833
280 0.147343
285 0.123697
290 0.125796
295 0.106996
300 0.12313
305 0.164989
310 0.13399
315 0.148502
320 0.157126
325 0.135145
330 0.115692
335 0.109603
340 0.120432
345 0.128251
350 0.109438
355 0.118724
360 0.103836
365 0.174573
370 0.144675
375 0.137462
380 0.167426
385 0.151047
390 0.156499
395 0.152194
400 0.164999
405 0.187862
410 0.110663
415 0.164022
420 0.185106
425 0.208102
430 0.194079
435 0.188354
440 0.21897
445 0.318844
450 0.379678
455 0.663418
460 18.6065
465 261.702
470 362.065
475 84.9818
480 11.2532
485 2.79414
490 1.78119
495 1.69577
500 2.03694
505 2.02614
510 1.90231
515 1.73438
520 1.6564
525 1.78516
530 1.71408
535 1.82946
540 2.62412
545 3.3945
550 2.42743
555 1.72136
560 1.70077
565 1.40896
570 1.07282
575 0.775173
580 0.657031
585 0.533927
590 0.459066
595 0.459983
600 0.14822
Ex : 478
200 0.155428
205 0.153835
210 0.19203
215 0.202068
220 0.151177
225 0.211673
230 0.203144
235 0.17433
240 0.0960593
245 0.183661
250 0.111548
255 0.133086
260 0.120277
265 0.0896669
270 0.149702
275 0.135301
280 0.0974666
285 0.110356
290 0.129721
295 0.120126
300 0.102358
305 0.206035
310 0.182978
315 0.115608
320 0.100306
325 0.154779
330 0.188409
335 0.189076
340 0.215918
345 0.142164
350 0.210474
355 0.110081
360 0.149627
365 0.173283
370 0.128852
375 0.1889
380 0.111548
385 0.181215
390 0.133165
395 0.139425
400 0.149256
405 0.196192
410 0.187618
415 0.187457
420 0.212658
425 0.135786
430 0.251994
435 0.285788
440 0.25985
445 0.220606
450 0.313913
455 0.410199
460 0.779496
465 19.9897
470 264.463
475 366.933
480 89.8811
485 11.6571
490 2.6791
495 1.59316
500 1.50653
505 1.73189
510 1.78723
515 1.65272
520 1.55002
525 1.52749
530 1.63186
535 1.60174
540 1.69112
545 2.14788
550 2.92814
555 2.38654
560 1.55421
565 1.48192
570 1.21376
575 0.794034
580 0.586108
585 0.532859
590 0.423984
595 0.454823
600 0.659261
Ex : 483
200 0.193348
205 0.134402
210 0.129689
215 0.134483
220 0.18156
225 0.142574
230 0.0885983
235 0.0976617
240 0.12862
245 0.162822
250 0.184966
255 0.182244
260 0.147617
265 0.180089
270 0.13695
275 0.129485
280 0.128519
285 0.1187
290 0.146034
295 0.210106
300 0.148748
305 0.187027
310 0.184736
315 0.133737
320 0.137637
325 0.110552
330 0.130922
335 0.149018
340 0.129122
345 0.152909
350 0.141815
355 0.126709
360 0.125194
365 0.169473
370 0.171533
375 0.144549
380 0.167465
385 0.220992
390 0.15829
395 0.121896
400 0.143375
405 0.132422
410 0.112534
415 0.132446
420 0.198213
425 0.154677
430 0.196522
435 0.183784
440 0.182674
445 0.246014
450 0.288964
455 0.331251
460 0.513281
465 0.722894
470 15.2857
475 254.603
480 385.844
485 94.2757
490 12.0987
495 2.58626
500 1.40892
505 1.39246
510 1.52164
515 1.63703
520 1.6577
525 1.57834
530 1.57747
535 1.47122
540 1.37695
545 1.39844
550 1.53005
555 2.40901
560 2.38455
565 1.60515
570 1.16512
575 1.05523
580 0.806095
585 0.552751
590 0.471729
595 0.383879
600 0.159548
Ex : 488
200 0.187408
205 0.132421
210 0.187019
215 0.149048
220 0.155569
225 0.144186
230 0.136592
235 0.16928
240 0.167184
245 0.138687
250 0.199983
255 0.141585
260 0.163237
265 0.175138
270 0.153956
275 0.152606
280 0.169576
285 0.107175
290 0.132563
295 0.180417
300 0.1495
305 0.160425
310 0.139432
315 0.150747
320 0.137445
325 0.182061
330 0.156942
335 0.159157
340 0.124334
345 0.151027
350 0.166643
355 0.200107
360 0.164013
365 0.161876
370 0.138209
375 0.185187
380 0.145485
385 0.152481
390 0.207188
395 0.172796
400 0.13817
405 0.165394
410 0.225141
415 0.200479
420 0.187289
425 0.223751
430 0.214429
435 0.144398
440 0.225303
445 0.236389
450 0.279842
455 0.299243
460 0.423794
465 0.565678
470 0.733491
475 18.0152
480 267.072
485 374.396
490 89.1427
495 11.3989
500 2.55059
505 1.32574
510 1.22454
515 1.30355
520 1.59163
525 1.57212
530 1.49111
535 1.33
540 1.39533
545 1.2778
550 1.13845
555 1.22262
560 1.8742
565 2.4352
570 1.63285
575 1.07745
580 0.812493
585 0.691678
590 0.497461
595 0.436647
600 0.788192
Ex : 493
200 0.196091
205 0.123958
210 0.175101
215 0.197265
220 0.148526
225 0.15115
230 0.20756
235 0.181806
240 0.155894
245 0.138608
250 0.138429
255 0.161288
260 0.163354
265 0.159287
270 0.157524
275 0.210593
280 0.228299
285 0.140507
290 0.131372
295 0.0981834
300 0.184948
305 0.135458
310 0.130475
315 0.150101
320 0.175572
325 0.178527
330 0.12546
335 0.150691
340 0.147254
345 0.220252
350 0.155705
355 0.14975
360 0.137735
365 0.163497
370 0.191444
375 0.245876
380 0.222538
385 0.198113
390 0.154904
395 0.17798
400 0.239571
405 0.155539
410 0.169278
415 0.173568
420 0.165221
425 0.14546
430 0.171546
435 0.206905
440 0.2292
445 0.202281
450 0.228871
455 0.227668
460 0.263415
465 0.371073
470 0.506232
475 0.647924
480 16.4694
485 265.009
490 391.461
495 90.4193
500 11.3793
505 2.31206
510 1.36012
515 1.19738
520 1.35478
525 1.5719
530 1.62159
535 1.3376
540 1.22191
545 1.28167
550 1.16967
555 1.12435
560 1.09681
565 1.35532
570 1.90461
575 1.54995
580 0.951908
585 0.690292
590 0.60512
595 0.465352
600 0.312705
Ex : 498
200 0.171968
205 0.218043
210 0.192196
215 0.15034
220 0.18787
225 0.124434
230 0.167235
235 0.16622
240 0.16103
245 0.178914
250 0.176352
255 0.13787
260 0.133789
265 0.188514
270 0.170857
275 0.198496
280 0.145275
285 0.165491
290 0.171701
295 0.141396
300 0.149061
305 0.168906
310 0.122613
315 0.114188
320 0.189911
325 0.179887
330 0.248962
335 0.184767
340 0.229528
345 0.171761
350 0.198802
355 0.241072
360 0.199417
365 0.199987
370 0.173052
375 0.165899
380 0.234422
385 0.233016
390 0.173694
395 0.164109
400 0.149076
405 0.133702
410 0.210555
415 0.270766
420 0.158426
425 0.256147
430 0.178264
435 0.236277
440 0.280937
445 0.195307
450 0.205881
455 0.298377
460 0.279593
465 0.315251
470 0.345109
475 0.510928
480 0.687576
485 19.0167
490 273.171
495 368.72
500 86.8118
505 10.9938
510 2.2764
515 1.31626
520 1.35859
525 1.31569
530 1.58779
535 1.48463
540 1.37799
545 1.13101
550 1.06066
555 1.10573
560 0.952706
565 0.977496
570 0.941726
575 1.47526
580 1.46626
585 0.889067
590 0.59813
595 0.540145
600 0.532851
Ex : 503
200 0.188754
205 0.17092
210 0.17111
215 0.144469
220 0.165669
225 0.172089
230 0.150389
235 0.135204
240 0.140328
245 0.229307
250 0.197664
255 0.140349
260 0.158497
265 0.161172
270 0.235968
275 0.193822
280 0.182864
285 0.167343
290 0.188961
295 0.155169
300 0.167807
305 0.196983
310 0.159557
315 0.162328
320 0.237078
325 0.208135
330 0.178285
335 0.178219
340 0.168694
345 0.191978
350 0.253775
355 0.199182
360 0.235722
365 0.201214
370 0.173975
375 0.133548
380 0.149967
385 0.188736
390 0.163944
395 0.295316
400 0.188573
405 0.197997
410 0.22353
415 0.170168
420 0.156681
425 0.155157
430 0.185272
435 0.187057
440 0.234812
445 0.209864
450 0.221122
455 0.261332
460 0.330466
465 0.297516
470 0.324797
475 0.358002
480 0.562859
485 0.731991
490 17.1723
495 267.897
500 375.914
505 87.5521
510 11.129
515 2.23029
520 1.35387
525 1.22354
530 1.08542
535 1.32897
540 1.35081
545 1.35656
550 1.21011
555 0.936907
560 0.897499
565 0.885625
570 0.829532
575 0.822878
580 1.01578
585 1.1928
590 0.856367
595 0.479077
600 0.418494
Ex : 508
200 0.19446
205 0.143609
210 0.158426
215 0.150731
220 0.154648
225 0.137951
230 0.172928
235 0.168904
240 0.202358
245 0.206942
250 0.176044
255 0.0958023
260 0.211852
265 0.206833
270 0.170266
275 0.229019
280 0.192763
285 0.154345
290 0.126949
295 0.213633
300 0.164611
305 0.16284
310 0.198957
315 0.20847
320 0.138916
325 0.17511
330 0.135635
335 0.207813
340 0.179292
345 0.146288
350 0.238322
355 0.225677
360 0.158066
365 0.21849
370 0.179273
375 0.180516
380 0.229183
385 0.262053
390 0.220024
395 0.209249
400 0.151271
405 0.279185
410 0.191801
415 0.152513
420 0.196074
425 0.182554
430 0.231435
435 0.206615
440 0.234714
445 0.189333
450 0.235297
455 0.273885
460 0.26903
465 0.289362
470 0.311337
475 0.34906
480 0.347084
485 0.424768
490 0.65894
495 17.4348
500 262.111
505 367.647
510 90.1184
515 11.5063
520 2.33584
525 1.41168
530 1.27504
535 1.11366
540 1.32675
545 1.31768
550 1.20145
555 1.05723
560 0.92678
565 0.735835
570 0.798304
575 0.703307
580 0.640962
585 0.648853
590 0.778185
595 0.830596
600 0.0945187
Ex : 513
200 0.233398
205 0.167385
210 0.152574
215 0.151029
220 0.201579
225 0.190314
230 0.187021
235 0.197853
240 0.206557
245 0.270923
250 0.220948
255 0.191983
260 0.240816
265 0.196118
270 0.224625
275 0.161345
280 0.153171
285 0.202675
290 0.179811
295 0.197092
300 0.152693
305 0.159213
310 0.184351
315 0.225206
320 0.264381
325 0.186486
330 0.189603
335 0.207316
340 0.236913
345 0.181824
350 0.152651
355 0.24993
360 0.195473
365 0.22564
370 0.231804
375 0.217905
380 0.256937
385 0.129569
390 0.260178
395 0.210366
400 0.232959
405 0.195621
410 0.237403
415 0.231821
420 0.305385
425 0.228767
430 0.217197
435 0.194652
440 0.215573
445 0.222367
450 0.246139
455 0.222131
460 0.251756
465 0.25154
470 0.262065
475 0.236177
480 0.300099
485 0.422404
490 0.497083
495 0.6711
500 16.3211
505 255.221
510 369.533
515 92.8301
520 11.7229
525 2.40363
530 1.22567
535 1.0712
540 1.05228
545 1.1504
550 1.18387
555 1.16815
560 1.02676
565 0.849019
570 0.704681
575 0.52674
580 0.550013
585 0.499556
590 0.459889
595 0.720542
600 0.850038
Ex : 518
200 0.152277
205 0.247384
210 0.137438
215 0.172221
220 0.271268
225 0.141005
230 0.23057
235 0.257135
240 0.265756
245 0.315754
250 0.23718
255 0.209521
260 0.17596
265 0.264838
270 0.165265
275 0.177995
280 0.143513
285 0.28829
290 0.149333
295 0.186336
300 0.180041
305 0.21792
310 0.177337
315 0.155727
320 0.13165
325 0.167682
330 0.26285
335 0.183311
340 0.179756
345 0.173831
350 0.210942
355 0.221778
360 0.183265
365 0.169771
370 0.177096
375 0.179952
380 0.187844
385 0.205149
390 0.15346
395 0.216449
400 0.231578
405 0.20395
410 0.11832
415 0.177781
420 0.266399
425 0.255536
430 0.20205
435 0.234606
440 0.31416
445 0.213724
450 0.24799
455 0.28206
460 0.27345
465 0.323599
470 0.250905
475 0.317495
480 0.235941
485 0.37322
490 0.424974
495 0.413427
500 0.667567
505 16.4636
510 248.612
515 366.155
520 92.8955
525 12.0138
530 2.40573
535 1.3152
540 1.07237
545 0.942529
550 1.13644
555 1.11308
560 0.991607
565 0.858303
570 0.750774
575 0.629988
580 0.52918
585 0.421172
590 0.384211
595 0.397473
600 0.110393
Ex : 523
200 0.183669
205 0.245286
210 0.241379
215 0.183624
220 0.151985
225 0.188234
230 0.172633
235 0.197665
240 0.177434
245 0.190347
250 0.175919
255 0.164633
260 0.233064
265 0.202368
270 0.188282
275 0.204939
280 0.181822
285 0.133411
290 0.264548
295 0.251522
300 0.213131
305 0.202362
310 0.251854
315 0.219649
320 0.203899
325 0.228479
330 0.225015
335 0.169076
340 0.231474
345 0.124928
350 0.221892
355 0.354359
360 0.232024
365 0.187873
370 0.21056
375 0.255276
380 0.196896
385 0.185526
390 0.207051
395 0.197891
400 0.295932
405 0.169659
410 0.254989
415 0.201385
420 0.211872
425 0.147469
430 0.199864
435 0.207913
440 0.184162
445 0.176072
450 0.255176
455 0.236413
460 0.29787
465 0.292722
470 0.273591
475 0.232074
480 0.277256
485 0.394933
490 0.316321
495 0.370105
500 0.480146
505 0.700031
510 14.5985
515 235.14
520 354.907
525 92.0329
530 11.5919
535 2.22086
540 1.15364
545 1.14357
550 0.953214
555 1.00887
560 0.886203
565 0.808884
570 0.855177
575 0.609271
580 0.465943
585 0.386918
590 0.411291
595 0.355854
600 0.0761212
Ex : 528
200 0.171368
205 0.270972
210 0.160004
215 0.175113
220 0.273558
225 0.177538
230 0.16531
235 0.201953
240 0.279072
245 0.19155
250 0.229937
255 0.167332
260 0.199725
265 0.159478
270 0.145605
275 0.205349
280 0.218931
285 0.21198
290 0.249291
295 0.195397
300 0.162227
305 0.137971
310 0.163624
315 0.282456
320 0.210471
325 0.177181
330 0.156381
335 0.16396
340 0.200048
345 0.176172
350 0.197821
355 0.189014
360 0.183091
365 0.19238
370 0.201018
375 0.203441
380 0.181662
385 0.232318
390 0.159806
395 0.285402
400 0.226926
405 0.207918
410 0.194524
415 0.221418
420 0.217168
425 0.181325
430 0.188019
435 0.273473
440 0.252059
445 0.210817
450 0.271896
455 0.22826
460 0.240177
465 0.274828
470 0.239753
475 0.303286
480 0.248466
485 0.33337
490 0.352596
495 0.33389
500 0.407913
505 0.458558
510 0.670994
515 13.9392
520 228.986
525 347.001
530 90.1435
535 11.3094
540 2.14144
545 1.04165
550 0.956939
555 0.720411
560 0.777789
565 0.829467
570 0.678254
575 0.675981
580 0.438128
585 0.521088
590 0.51048
595 0.411371
600 0.418743
Ex : 533
200 0.212028
205 0.21461
210 0.220527
215 0.158232
220 0.167739
225 0.203494
230 0.205298
235 0.184032
240 0.210253
245 0.259383
250 0.168592
255 0.26168
260 0.198848
265 0.193422
270 0.136933
275 0.196935
280 0.166454
285 0.209644
290 0.214981
295 0.246503
300 0.299244
305 0.286142
310 0.175838
315 0.39385
320 0.171681
325 0.197326
330 0.180491
335 0.191559
340 0.180144
345 0.178139
350 0.175174
355 0.227431
360 0.186883
365 0.249131
370 0.197205
375 0.213446
380 0.212995
385 0.275696
390 0.262004
395 0.248314
400 0.269336
405 0.217737
410 0.178376
415 0.251432
420 0.195729
425 0.211732
430 0.220157
435 0.202752
440 0.200749
445 0.341543
450 0.26838
455 0.271256
460 0.216219
465 0.206099
470 0.282518
475 0.381533
480 0.193452
485 0.299949
490 0.363859
495 0.38618
500 0.322441
505 0.417902
510 0.404758
515 0.689315
520 13.1456
525 216.115
530 344.925
535 92.0601
540 11.5449
545 2.04521
550 1.09419
555 0.873887
560 0.621817
565 0.560305
570 0.739673
575 0.616397
580 0.664639
585 0.482895
590 0.347325
595 0.248788
600 0.0283111
Ex : 538
200 0.188787
205 0.159618
210 0.158085
215 0.179182
220 0.196282
225 0.235172
230 0.285442
235 0.218908
240 0.225105
245 0.262196
250 0.244879
255 0.234397
260 0.22532
265 0.243705
270 0.192624
275 0.182908
280 0.237473
285 0.240857
290 0.146692
295 0.189229
300 0.177299
305 0.230232
310 0.16867
315 0.20585
320 0.280404
325 0.28469
330 0.169011
335 0.261011
340 0.255
345 0.171943
350 0.260925
355 0.216555
360 0.259055
365 0.197044
370 0.213662
375 0.335167
380 0.244397
385 0.232156
390 0.206812
395 0.22416
400 0.272852
405 0.202201
410 0.263045
415 0.198353
420 0.231729
425 0.27077
430 0.226128
435 0.276837
440 0.26533
445 0.262563
450 0.255723
455 0.273268
460 0.312195
465 0.181833
470 0.296384
475 0.328537
480 0.233914
485 0.197483
490 0.37428
495 0.370534
500 0.301261
505 0.340636
510 0.427673
515 0.455675
520 0.502012
525 11.7274
530 206.794
535 339.185
540 93.6319
545 11.6443
550 1.99074
555 1.03176
560 0.696883
565 0.649998
570 0.582769
575 0.606723
580 0.694201
585 0.471708
590 0.392274
595 0.381456
600 0.123067
Ex : 543
200 0.197439
205 0.198693
210 0.225403
215 0.181404
220 0.17988
225 0.181155
230 0.240676
235 0.2418
240 0.231875
245 0.252315
250 0.217659
255 0.254521
260 0.236867
265 0.270727
270 0.213394
275 0.188167
280 0.262596
285 0.167537
290 0.311195
295 0.221528
300 0.267465
305 0.279826
310 0.155716
315 0.169259
320 0.187056
325 0.345489
330 0.162507
335 0.221866
340 0.217969
345 0.206256
350 0.281811
355 0.145949
360 0.242501
365 0.207117
370 0.275923
375 0.215111
380 0.187622
385 0.271467
390 0.223682
395 0.232592
400 0.234915
405 0.207977
410 0.228539
415 0.215603
420 0.289099
425 0.354634
430 0.177824
435 0.261073
440 0.180681
445 0.20987
450 0.239076
455 0.193037
460 0.256359
465 0.273468
470 0.312823
475 0.180821
480 0.257212
485 0.264878
490 0.311615
495 0.280282
500 0.320045
505 0.312677
510 0.395841
515 0.379016
520 0.489374
525 0.462229
530 10.7401
535 198.857
540 336.123
545 95.1137
550 11.8555
555 2.04124
560 0.814551
565 0.631444
570 0.611713
575 0.574641
580 0.529865
585 0.506069
590 0.332986
595 0.319944
600 0.617025
Ex : 548
200 0.257039
205 0.190174
210 0.180332
215 0.148103
220 0.206924
225 0.233231
230 0.273596
235 0.18703
240 0.295174
245 0.195891
250 0.239872
255 0.187314
260 0.294397
265 0.307669
270 0.157703
275 0.200657
280 0.177519
285 0.140872
290 0.25099
295 0.140182
300 0.206226
305 0.273145
310 0.225649
315 0.173462
320 0.235896
325 0.220495
330 0.225003
335 0.252839
340 0.275571
345 0.251229
350 0.199402
355 0.335249
360 0.265859
365 0.246355
370 0.240254
375 0.300883
380 0.21629
385 0.271859
390 0.241366
395 0.205779
400 0.304512
405 0.320964
410 0.237867
415 0.247527
420 0.231306
425 0.257185
430 0.2369
435 0.277721
440 0.283932
445 0.258665
450 0.263927
455 0.259317
460 0.348373
465 0.324571
470 0.286874
475 0.24714
480 0.221522
485 0.29042
490 0.212014
495 0.320362
500 0.243435
505 0.227793
510 0.273709
515 0.364222
520 0.340806
525 0.481509
530 0.715085
535 11.2
540 197.936
545 326.362
550 93.8646
555 11.3809
560 1.82948
565 0.810173
570 0.683495
575 0.558718
580 0.465993
585 0.449893
590 0.421884
595 0.334119
600 0.315943
Ex : 553
200 0.316767
205 0.360963
210 0.250577
215 0.311343
220 0.287233
225 0.28552
230 0.195954
235 0.280238
240 0.208594
245 0.305078
250 0.227941
255 0.261323
260 0.190702
265 0.207186
270 0.208395
275 0.220706
280 0.21069
285 0.224066
290 0.31326
295 0.290004
300 0.182522
305 0.184625
310 0.160653
315 0.171486
320 0.227559
325 0.21552
330 0.213657
335 0.231704
340 0.236711
345 0.216077
350 0.268032
355 0.315695
360 0.221252
365 0.279886
370 0.296267
375 0.412857
380 0.252831
385 0.264793
390 0.22611
395 0.345284
400 0.275639
405 0.184006
410 0.364572
415 0.347914
420 0.258383
425 0.261673
430 0.269947
435 0.23664
440 0.227766
445 0.27989
450 0.296737
455 0.244554
460 0.297789
465 0.273388
470 0.300875
475 0.266904
480 0.302982
485 0.2309
490 0.295146
495 0.262699
500 0.252629
505 0.353796
510 0.341163
515 0.305805
520 0.348452
525 0.416507
530 0.429254
535 0.563963
540 9.87231
545 183.84
550 318.103
555 92.8184
560 11.5813
565 1.85595
570 0.717144
575 0.567579
580 0.442957
585 0.379086
590 0.393594
595 0.417497
600 0.0902182
Ex : 558
200 0.138391
205 0.17126
210 0.151699
215 0.159467
220 0.216185
225 0.215616
230 0.261744
235 0.269153
240 0.351886
245 0.344515
250 0.224185
255 0.249179
260 0.137032
265 0.186161
270 0.195931
275 0.204312
280 0.18085
285 0.204692
290 0.226769
295 0.330803
300 0.25047
305 0.15374
310 0.292464
315 0.207109
320 0.169547
325 0.204496
330 0.249323
335 0.290235
340 0.263372
345 0.204592
350 0.23383
355 0.248916
360 0.257503
365 0.181549
370 0.146846
375 0.194004
380 0.231332
385 0.228231
390 0.246494
395 0.197522
400 0.298053
405 0.237796
410 0.340614
415 0.317172
420 0.303706
425 0.293374
430 0.212726
435 0.289017
440 0.344494
445 0.236846
450 0.313111
455 0.202058
460 0.334448
465 0.35079
470 0.19602
475 0.233826
480 0.221939
485 0.264438
490 0.349866
495 0.227285
500 0.205597
505 0.378117
510 0.269923
515 0.253357
520 0.315775
525 0.393837
530 0.361099
535 0.450536
540 0.577883
545 9.15925
550 172.589
555 306.618
560 89.763
565 11.1026
570 1.82637
575 0.650139
580 0.476755
585 0.420962
590 0.445632
595 0.364774
600 1.27567
Ex : 563
200 0.286086
205 0.245294
210 0.204936
215 0.196561
220 0.269617
225 0.180229
230 0.206789
235 0.243008
240 0.288994
245 0.270532
250 0.272552
255 0.276934
260 0.276291
265 0.333534
270 0.247474
275 0.151526
280 0.276892
285 0.251758
290 0.193142
295 0.276933
300 0.226293
305 0.258144
310 0.240298
315 0.176759
320 0.24248
325 0.248258
330 0.270067
335 0.168459
340 0.195671
345 0.305519
350 0.246928
355 0.274154
360 0.261152
365 0.3462
370 0.237585
375 0.228514
380 0.240071
385 0.305015
390 0.290754
395 0.262053
400 0.223465
405 0.229528
410 0.311117
415 0.443634
420 0.252572
425 0.34063
430 0.270945
435 0.265271
440 0.333563
445 0.256126
450 0.329299
455 0.407303
460 0.287447
465 0.250466
470 0.275352
475 0.211223
480 0.214123
485 0.266034
490 0.3074
495 0.312192
500 0.296599
505 0.325641
510 0.314233
515 0.285405
520 0.21002
525 0.341611
530 0.295483
535 0.4137
540 0.470796
545 0.706855
550 9.12931
555 170.931
560 297.111
565 88.3944
570 10.8257
575 1.63899
580 0.666822
585 0.468616
590 0.376376
595 0.244346
600 0.243676
Ex : 568
200 0.288026
205 0.277902
210 0.344897
215 0.204444
220 0.294606
225 0.207669
230 0.233134
235 0.185449
240 0.27045
245 0.224594
250 0.292948
255 0.250969
260 0.196659
265 0.184671
270 0.261137
275 0.269929
280 0.253423
285 0.260839
290 0.251198
295 0.317803
300 0.221591
305 0.329792
310 0.183947
315 0.288171
320 0.177762
325 0.253691
330 0.255345
335 0.321374
340 0.289573
345 0.405626
350 0.219323
355 0.256802
360 0.262546
365 0.26807
370 0.277016
375 0.287224
380 0.221876
385 0.257905
390 0.309091
395 0.393402
400 0.285682
405 0.246169
410 0.378163
415 0.270939
420 0.190777
425 0.198076
430 0.203407
435 0.256631
440 0.300941
445 0.269782
450 0.255342
455 0.268321
460 0.231753
465 0.223885
470 0.233501
475 0.304037
480 0.245486
485 0.199798
490 0.237365
495 0.304134
500 0.311609
505 0.280673
510 0.316982
515 0.301637
520 0.330616
525 0.424211
530 0.322585
535 0.351544
540 0.424217
545 0.44984
550 0.46508
555 6.50749
560 153.161
565 288.593
570 89.4585
575 11.0197
580 1.58089
585 0.681889
590 0.535069
595 0.323983
600 0.036868
Ex : 573
200 0.207964
205 0.230615
210 0.2045
215 0.201237
220 0.219689
225 0.251743
230 0.204345
235 0.200204
240 0.275547
245 0.274285
250 0.237135
255 0.20899
260 0.268391
265 0.310846
270 0.182759
275 0.282177
280 0.235625
285 0.316414
290 0.226249
295 0.245707
300 0.217428
305 0.224273
310 0.201463
315 0.243319
320 0.269948
325 0.208651
330 0.424279
335 0.215563
340 0.195365
345 0.278163
350 0.182229
355 0.175073
360 0.240932
365 0.209769
370 0.307723
375 0.265735
380 0.232083
385 0.226651
390 0.250378
395 0.288594
400 0.229583
405 0.335404
410 0.217
415 0.227698
420 0.477048
425 0.298403
430 0.333182
435 0.247999
440 0.281609
445 0.267335
450 0.275597
455 0.251574
460 0.266903
465 0.323408
470 0.332204
475 0.330744
480 0.288627
485 0.298575
490 0.327252
495 0.263973
500 0.333309
505 0.246294
510 0.331852
515 0.285837
520 0.270092
525 0.218665
530 0.263787
535 0.35087
540 0.343152
545 0.356683
550 0.381047
555 0.538287
560 5.81488
565 131.597
570 262.125
575 83.8134
580 10.2987
585 1.58717
590 0.529965
595 0.374061
600 0.192263
Ex : 578
200 0.296776
205 0.22734
210 0.191002
215 0.134182
220 0.188024
225 0.237707
230 0.239565
235 0.235335
240 0.214398
245 0.242977
250 0.266437
255 0.251237
260 0.286327
265 0.218706
270 0.211028
275 0.185344
280 0.220135
285 0.26913
290 0.204731
295 0.243552
300 0.234417
305 0.254052
310 0.272788
315 0.410443
320 0.346052
325 0.265616
330 0.237177
335 0.248318
340 0.24015
345 0.39653
350 0.301062
355 0.284566
360 0.261071
365 0.332442
370 0.357114
375 0.297698
380 0.274853
385 0.282453
390 0.349801
395 0.257309
400 0.347356
405 0.292834
410 0.259253
415 0.230036
420 0.28352
425 0.252003
430 0.276664
435 0.310767
440 0.328488
445 0.219563
450 0.273651
455 0.26524
460 0.265268
465 0.265396
470 0.257646
475 0.206321
480 0.248659
485 0.289442
490 0.247784
495 0.245762
500 0.290854
505 0.171994
510 0.28258
515 0.329148
520 0.443404
525 0.316259
530 0.385755
535 0.326298
540 0.257008
545 0.477546
550 0.368644
555 0.424966
560 0.444187
565 4.80096
570 116.796
575 226.188
580 70.2755
585 8.66776
590 1.41227
595 0.395859
600 0.578009
Ex : 583
200 0.191086
205 0.25062
210 0.215675
215 0.265336
220 0.379582
225 0.217293
230 0.344243
235 0.18856
240 0.185873
245 0.240227
250 0.199136
255 0.338417
260 0.305672
265 0.233703
270 0.236521
275 0.31383
280 0.20727
285 0.200185
290 0.180606
295 0.400267
300 0.251171
305 0.209156
310 0.235027
315 0.234656
320 0.274146
325 0.343245
330 0.20478
335 0.283029
340 0.28458
345 0.250581
350 0.233059
355 0.216564
360 0.313462
365 0.217982
370 0.27417
375 0.277401
380 0.375703
385 0.344563
390 0.283853
395 0.271071
400 0.385359
405 0.224676
410 0.332107
415 0.330085
420 0.246333
425 0.313845
430 0.29657
435 0.303004
440 0.242325
445 0.357994
450 0.256219
455 0.297865
460 0.281545
465 0.294301
470 0.349077
475 0.242332
480 0.27366
485 0.295033
490 0.251911
495 0.24732
500 0.312897
505 0.308343
510 0.331258
515 0.318583
520 0.245113
525 0.213905
530 0.306427
535 0.178484
540 0.23118
545 0.410512
550 0.283015
555 0.280154
560 0.510695
565 0.571998
570 4.27376
575 103.727
580 200.893
585 60.1661
590 7.52849
595 1.11568
600 0.178335
Ex : 588
200 0.251447
205 0.234587
210 0.335416
215 0.318497
220 0.306156
225 0.318085
230 0.240302
235 0.240974
240 0.280239
245 0.234087
250 0.237714
255 0.390525
260 0.283459
265 0.325975
270 0.273279
275 0.235231
280 0.252842
285 0.262553
290 0.197972
295 0.384793
300 0.281898
305 0.278255
310 0.218866
315 0.301242
320 0.231162
325 0.276665
330 0.19566
335 0.239785
340 0.302348
345 0.253429
350 0.230027
355 0.257972
360 0.341612
365 0.275227
370 0.204395
375 0.370476
380 0.251504
385 0.226379
390 0.329061
395 0.271737
400 0.332501
405 0.313713
410 0.295
415 0.28909
420 0.260513
425 0.214469
430 0.356652
435 0.265708
440 0.39388
445 0.273738
450 0.234627
455 0.271348
460 0.413547
465 0.260819
470 0.24602
475 0.197496
480 0.27228
485 0.232366
490 0.190922
495 0.211268
500 0.265948
505 0.327929
510 0.437228
515 0.296219
520 0.188617
525 0.331233
530 0.314242
535 0.270495
540 0.276914
545 0.325545
550 0.349183
555 0.258524
560 0.359972
565 0.459041
570 0.553526
575 3.74637
580 83.8441
585 168.907
590 52.208
595 6.56157
600 0.865724
Ex : 593
200 0.214193
205 0.268912
210 0.304151
215 0.275508
220 0.253355
225 0.163304
230 0.173706
235 0.247408
240 0.204044
245 0.207421
250 0.275722
255 0.250993
260 0.463223
265 0.250487
270 0.25803
275 0.230884
280 0.388677
285 0.250489
290 0.276925
295 0.285726
300 0.424407
305 0.196298
310 0.174287
315 0.329741
320 0.337747
325 0.276393
330 0.301651
335 0.29185
340 0.18116
345 0.269798
350 0.290415
355 0.259288
360 0.259942
365 0.309521
370 0.310688
375 0.275654
380 0.308853
385 0.210154
390 0.295996
395 0.298423
400 0.246688
405 0.269346
410 0.317262
415 0.276853
420 0.309956
425 0.279492
430 0.292718
435 0.413794
440 0.354224
445 0.36222
450 0.358474
455 0.275845
460 0.25327
465 0.448749
470 0.219491
475 0.230583
480 0.195889
485 0.339582
490 0.339138
495 0.327139
500 0.302809
505 0.261686
510 0.285672
515 0.273439
520 0.335406
525 0.299145
530 0.269842
535 0.281836
540 0.362429
545 0.34357
550 0.26102
555 0.347157
560 0.28187
565 0.324895
570 0.511315
575 0.393028
580 3.16062
585 75.5622
590 145.093
595 44.3386
600 6.50915
Ex : 598
200 0.355185
205 0.373757
210 0.238754
215 0.261803
220 0.313611
225 0.446242
230 0.31449
235 0.250688
240 0.355314
245 0.246218
250 0.252615
255 0.300722
260 0.363999
265 0.368755
270 0.307893
275 0.232429
280 0.206905
285 0.35652
290 0.357996
295 0.354965
300 0.319186
305 0.262231
310 0.246127
315 0.202465
320 0.144553
325 0.173326
330 0.202908
335 0.326892
340 0.321287
345 0.269119
350 0.240388
355 0.23132
360 0.237407
365 0.291256
370 0.225991
375 0.255206
380 0.214386
385 0.274458
390 0.33531
395 0.340533
400 0.262843
405 0.25262
410 0.454657
415 0.349734
420 0.277803
425 0.248987
430 0.346132
435 0.216216
440 0.241881
445 0.251406
450 0.31827
455 0.327187
460 0.482485
465 0.384539
470 0.465622
475 0.361718
480 0.205881
485 0.310475
490 0.288557
495 0.351967
500 0.263966
505 0.339547
510 0.364282
515 0.309649
520 0.298912
525 0.422181
530 0.356129
535 0.297639
540 0.275326
545 0.310315
550 0.233458
555 0.336514
560 0.340002
565 0.352955
570 0.375145
575 0.431814
580 0.321657
585 3.09907
590 68.2595
595 125.2
600 84.9082
Ex : 603
200 0.231805
205 0.361477
210 0.181705
215 0.256974
220 0.31966
225 0.445656
230 0.361555
235 0.290338
240 0.348046
245 0.359893
250 0.314239
255 0.309323
260 0.25433
265 0.215814
270 0.312844
275 0.3474
280 0.288586
285 0.329204
290 0.347095
295 0.298941
300 0.327801
305 0.372394
310 0.29324
315 0.311937
320 0.354746
325 0.196779
330 0.211539
335 0.217077
340 0.3649
345 0.319182
350 0.355391
355 0.312775
360 0.286893
365 0.232428
370 0.232573
375 0.376354
380 0.327454
385 0.268008
390 0.329437
395 0.31138
400 0.347713
405 0.327175
410 0.339342
415 0.411149
420 0.406696
425 0.222053
430 0.334262
435 0.385555
440 0.24743
445 0.32792
450 0.257168
455 0.406779
460 0.290145
465 0.378411
470 0.339001
475 0.393992
480 0.256992
485 0.31658
490 0.33759
495 0.289519
500 0.162028
505 0.296284
510 0.286891
515 0.275919
520 0.285752
525 0.298487
530 0.353949
535 0.247101
540 0.277364
545 0.452577
550 0.382687
555 0.323488
560 0.25288
565 0.29874
570 0.404478
575 0.313504
580 0.325559
585 0.322564
590 2.61474
595 54.6536
600 118.287
