File format V 1.0
ven. 13. janv. 14:17:20 2017
Operator : 
Comments : 

=============================================
SpectroFluorometer parameters
Mode : 3D measurement
Data : Fluorescence
Phospho. : Ordinary
Spectrum : Fluorescence

Scan speed : 2400 nm/mn
Response : 100 ms
PM Voltage : 700 V
Shutter : On

Lambda Ex. Start : 203
Lambda Ex. End : 603
Lambda Ex. Step : 5
Ex. Slit : 5 nm

Lambda Em. Start : 200
Lambda Em. End : 600
Lambda Em. Step : 5
Em. Slit : 5 nm

Repetition : 1
Decal lambda em : 10
=============================================
DATA
Ex : 203
200 6.05479
205 8.79203
210 4.88232
215 4.91909
220 7.17926
225 4.96457
230 5.83662
235 7.88984
240 5.42642
245 5.47202
250 6.5898
255 7.317
260 5.03088
265 8.44898
270 7.92845
275 5.78265
280 5.66132
285 7.35969
290 5.02826
295 5.1992
300 7.48675
305 9.50856
310 4.64342
315 6.09424
320 6.58719
325 7.73402
330 5.50102
335 7.35613
340 7.3438
345 6.75182
350 4.46675
355 7.68233
360 6.01751
365 6.44091
370 7.34237
375 8.3837
380 5.43742
385 5.7503
390 4.51741
395 7.59115
400 6.03337
405 7.5396
410 6.74205
415 6.40065
420 5.15939
425 6.45218
430 7.72492
435 5.79539
440 5.2897
445 4.52185
450 5.33199
455 9.15078
460 7.69196
465 9.21065
470 7.88213
475 4.67004
480 5.71594
485 4.68942
490 4.57456
495 3.83547
500 6.19072
505 5.7263
510 4.96686
515 5.84463
520 6.07625
525 7.01475
530 6.33703
535 6.24054
540 4.80244
545 7.87389
550 5.78852
555 10.5285
560 8.32198
565 3.44449
570 7.4608
575 6.17794
580 4.44961
585 6.48822
590 7.38052
595 4.45782
600 0.507283
Ex : 208
200 6.25123
205 5.33975
210 5.28111
215 5.47297
220 5.45197
225 3.83763
230 5.78903
235 6.02674
240 6.59245
245 5.63502
250 4.58229
255 4.8605
260 5.80419
265 4.10596
270 7.04677
275 4.26055
280 6.38586
285 5.18656
290 7.31343
295 7.29839
300 5.66255
305 7.44003
310 7.1391
315 5.56754
320 4.82173
325 4.63694
330 6.07513
335 6.06115
340 6.446
345 9.35271
350 5.5675
355 7.46523
360 6.47975
365 6.561
370 5.56756
375 5.26692
380 5.76819
385 7.45063
390 4.41861
395 5.18335
400 7.38119
405 5.88674
410 6.57392
415 8.45806
420 7.52828
425 5.67796
430 7.71486
435 4.80019
440 5.24391
445 5.10093
450 5.8355
455 7.92427
460 6.92391
465 4.13403
470 6.5979
475 4.94052
480 9.35352
485 6.23195
490 5.52843
495 8.75536
500 7.03231
505 5.95672
510 6.58189
515 6.77685
520 4.75488
525 6.3451
530 6.54073
535 8.23376
540 5.76657
545 5.32538
550 5.16758
555 6.74846
560 5.41246
565 7.94686
570 6.96289
575 4.99505
580 5.4949
585 4.38963
590 4.97658
595 6.98926
600 4.78327
Ex : 213
200 6.05
205 7.01274
210 7.47992
215 6.62706
220 8.30313
225 5.16319
230 4.03011
235 3.99507
240 5.84393
245 6.95903
250 5.69359
255 5.80438
260 5.53886
265 6.67186
270 7.04025
275 7.52564
280 6.33709
285 6.37223
290 7.8973
295 7.47308
300 4.41141
305 6.3944
310 4.62447
315 6.93235
320 4.76301
325 5.60058
330 7.7948
335 5.3793
340 5.01305
345 7.96099
350 7.0314
355 9.94474
360 6.44476
365 8.63163
370 7.56547
375 6.04732
380 4.57351
385 5.22118
390 5.87321
395 7.51823
400 7.01405
405 7.1493
410 5.99786
415 5.75696
420 4.46058
425 8.56864
430 10.1518
435 5.5001
440 4.9132
445 9.0056
450 6.9823
455 7.6987
460 5.64641
465 5.89523
470 4.54327
475 7.30986
480 6.29186
485 5.76085
490 5.73705
495 6.66363
500 7.05565
505 6.26373
510 6.41898
515 7.9885
520 4.45002
525 5.01549
530 7.18414
535 6.72702
540 6.46854
545 8.69151
550 6.24776
555 5.96911
560 6.64329
565 6.74196
570 7.96865
575 6.52752
580 4.67275
585 6.11885
590 9.39297
595 3.8233
600 9.47436
Ex : 218
200 5.15351
205 5.23281
210 4.63825
215 5.3082
220 5.86002
225 6.00537
230 4.66512
235 5.96653
240 6.34059
245 5.71247
250 4.93737
255 5.46778
260 8.18872
265 5.70498
270 5.50262
275 6.71779
280 4.57351
285 4.49992
290 5.61961
295 6.4369
300 5.89262
305 6.62019
310 6.53951
315 7.51083
320 3.9997
325 7.26917
330 5.22147
335 6.65123
340 5.12599
345 5.47326
350 4.38225
355 6.26714
360 4.88379
365 7.31041
370 8.07889
375 8.19917
380 8.66467
385 5.34792
390 5.23744
395 6.01439
400 5.42963
405 4.92637
410 7.61296
415 6.68356
420 8.72029
425 5.69269
430 6.05365
435 5.40824
440 5.03426
445 5.96664
450 6.8408
455 9.05245
460 7.6056
465 7.34508
470 6.4087
475 5.256
480 5.02489
485 6.54353
490 5.84738
495 5.4066
500 4.83775
505 6.5447
510 6.37932
515 5.23114
520 3.46767
525 3.4516
530 5.18941
535 5.20855
540 6.97178
545 6.01751
550 4.62967
555 6.00045
560 6.56833
565 6.62057
570 4.93595
575 6.27059
580 8.28175
585 6.41357
590 6.68127
595 5.09376
600 1.90896
Ex : 223
200 5.02655
205 5.03071
210 7.16664
215 9.46103
220 7.63922
225 5.19415
230 6.16819
235 4.82933
240 7.96741
245 5.15963
250 7.26561
255 5.78719
260 4.24459
265 4.60545
270 7.38322
275 4.24574
280 5.66286
285 5.99009
290 6.13432
295 6.8327
300 5.15686
305 6.17151
310 6.71958
315 8.93211
320 5.30692
325 4.58016
330 7.05133
335 5.39115
340 3.84385
345 4.82683
350 5.83941
355 6.56164
360 7.71982
365 4.75323
370 4.79938
375 3.28639
380 4.82651
385 3.55427
390 4.7413
395 7.95811
400 6.0617
405 3.98359
410 5.47514
415 5.6954
420 6.48614
425 5.65143
430 5.77685
435 7.11285
440 7.01673
445 6.25749
450 5.99186
455 7.36003
460 7.24057
465 4.75089
470 6.41524
475 7.51898
480 7.40302
485 7.33328
490 6.8838
495 5.07423
500 6.22746
505 5.63068
510 4.97286
515 6.38787
520 7.27413
525 4.4604
530 4.17958
535 7.7868
540 7.06146
545 6.72187
550 5.99943
555 7.87169
560 5.323
565 5.03676
570 4.71012
575 6.35737
580 5.23743
585 4.97512
590 6.36639
595 4.67098
600 0.531539
Ex : 228
200 5.91739
205 6.29114
210 5.35917
215 9.52067
220 5.39884
225 4.61374
230 6.14402
235 6.01276
240 6.7857
245 4.36284
250 7.95015
255 6.73046
260 5.42725
265 4.26045
270 6.28147
275 6.12292
280 8.01383
285 5.51474
290 5.95576
295 5.69091
300 6.04504
305 4.60036
310 6.71522
315 6.88463
320 5.05161
325 5.64569
330 4.06858
335 5.23864
340 6.28461
345 7.05493
350 6.06123
355 5.9216
360 4.85113
365 7.31808
370 7.18942
375 4.38711
380 4.94644
385 4.4453
390 5.272
395 6.54583
400 6.8144
405 4.13451
410 5.93997
415 6.01756
420 5.33157
425 7.80013
430 7.48318
435 6.47933
440 7.29834
445 6.03198
450 6.0236
455 4.54564
460 7.23316
465 5.17422
470 5.15997
475 5.02976
480 4.67423
485 6.65794
490 7.60559
495 7.68244
500 5.66673
505 4.75607
510 7.74845
515 6.2755
520 7.01293
525 4.7938
530 4.92623
535 6.37533
540 5.59203
545 7.78817
550 5.86357
555 4.48445
560 5.24666
565 5.27081
570 8.91618
575 6.45515
580 5.74704
585 5.75638
590 6.33884
595 7.76109
600 0.883183
Ex : 233
200 7.45565
205 3.73408
210 7.00092
215 5.77085
220 5.87546
225 4.9385
230 5.90538
235 5.645
240 6.23228
245 5.09182
250 4.8886
255 5.35538
260 6.59493
265 4.94048
270 5.52642
275 5.66059
280 4.22262
285 5.49071
290 5.64416
295 4.68928
300 4.90365
305 5.91536
310 5.62751
315 5.15294
320 5.71179
325 7.48384
330 5.0327
335 4.11752
340 6.19395
345 4.63356
350 4.75433
355 5.49706
360 5.15626
365 7.56653
370 4.72341
375 4.97576
380 6.61456
385 4.99222
390 5.16982
395 6.57646
400 4.51826
405 5.73718
410 6.55967
415 5.19166
420 5.49397
425 5.93853
430 6.12278
435 4.22046
440 6.31076
445 5.72301
450 3.86419
455 4.13867
460 5.23288
465 5.47321
470 6.9793
475 7.89838
480 7.48409
485 7.37134
490 5.73861
495 6.14409
500 5.52327
505 7.30631
510 5.60443
515 4.41128
520 6.08431
525 6.06498
530 8.03828
535 5.76741
540 5.57804
545 6.83086
550 6.58159
555 4.75519
560 7.73045
565 5.36564
570 5.39459
575 4.89
580 8.56299
585 7.69301
590 6.86113
595 6.89594
600 0.784732
Ex : 238
200 6.15328
205 5.07626
210 5.65554
215 5.20404
220 5.7379
225 4.90481
230 3.9812
235 5.31374
240 4.61173
245 5.90916
250 4.98416
255 5.90171
260 5.94823
265 4.4286
270 8.00286
275 8.44681
280 5.29115
285 6.40398
290 5.47026
295 5.34892
300 4.22946
305 4.48613
310 3.29238
315 3.87078
320 6.07069
325 5.72173
330 4.62896
335 4.0582
340 5.78846
345 4.7574
350 5.28889
355 3.61974
360 3.37156
365 6.24885
370 6.30634
375 5.17798
380 6.39595
385 4.51826
390 4.09455
395 4.43291
400 7.07877
405 4.78669
410 4.70728
415 4.53358
420 5.49255
425 6.98114
430 6.84317
435 5.94212
440 4.99684
445 5.09238
450 5.81009
455 5.49558
460 4.42758
465 5.2822
470 4.00723
475 3.69733
480 4.058
485 4.18521
490 6.86205
495 7.65326
500 5.92953
505 5.65063
510 5.86786
515 4.97216
520 5.49615
525 6.53124
530 4.52282
535 4.20665
540 6.08681
545 7.35533
550 6.26458
555 5.86373
560 5.54485
565 4.22951
570 5.08688
575 5.58174
580 7.8151
585 4.63108
590 6.43048
595 5.39115
600 6.81692
Ex : 243
200 5.22837
205 4.53601
210 5.10119
215 6.29974
220 4.00175
225 4.62645
230 5.61791
235 5.56768
240 5.34818
245 4.52592
250 5.82357
255 4.79733
260 5.15834
265 3.47806
270 7.0494
275 5.20416
280 3.6123
285 3.72775
290 4.60651
295 4.66278
300 4.71777
305 4.97643
310 5.87472
315 5.00308
320 4.70211
325 3.96658
330 4.55963
335 4.78122
340 4.2822
345 4.44587
350 5.33018
355 2.90673
360 4.14431
365 5.71164
370 4.41989
375 4.28313
380 3.66491
385 4.1131
390 4.52763
395 4.97283
400 4.57165
405 6.06776
410 3.65018
415 5.8803
420 4.52606
425 3.45202
430 3.52448
435 4.22386
440 6.2829
445 5.08457
450 3.36927
455 4.16248
460 4.51965
465 4.68748
470 5.76027
475 4.21494
480 5.04833
485 5.06144
490 4.43055
495 5.8214
500 4.1488
505 4.85032
510 6.34283
515 4.4642
520 3.43072
525 6.00109
530 3.6677
535 5.01651
540 5.71385
545 6.12181
550 4.71044
555 5.02796
560 4.01721
565 3.52562
570 5.2884
575 5.65752
580 5.82794
585 6.11478
590 4.2492
595 4.01947
600 0.710601
Ex : 248
200 2.90341
205 3.81191
210 4.09527
215 3.2964
220 3.78162
225 2.9856
230 4.44427
235 3.19431
240 6.18206
245 4.25345
250 3.93363
255 3.36599
260 4.38931
265 3.81831
270 3.37998
275 6.19905
280 2.96874
285 2.85678
290 2.9126
295 3.81806
300 4.92769
305 5.33482
310 4.08952
315 2.95518
320 2.92594
325 3.55669
330 4.17362
335 4.85744
340 3.99092
345 4.00924
350 3.95959
355 4.34887
360 4.59955
365 3.74573
370 4.90233
375 5.13827
380 4.18105
385 5.51316
390 4.5788
395 3.91524
400 2.65068
405 3.45795
410 5.19945
415 3.83682
420 3.74822
425 7.27357
430 5.77748
435 3.72814
440 3.30505
445 3.80522
450 4.21364
455 4.34137
460 3.71356
465 4.72167
470 3.49896
475 5.61283
480 4.98187
485 5.14694
490 3.6008
495 4.4838
500 4.55741
505 3.48137
510 3.29484
515 4.16122
520 2.865
525 3.86316
530 5.16434
535 3.6475
540 3.20584
545 2.81134
550 4.26288
555 3.51296
560 2.34288
565 3.67607
570 3.89079
575 5.22618
580 3.22564
585 5.71206
590 5.39005
595 3.62132
600 0.412093
Ex : 253
200 3.91422
205 2.80363
210 4.2443
215 3.1629
220 3.62547
225 2.90966
230 3.35437
235 3.69123
240 4.21362
245 3.16614
250 2.56314
255 2.568
260 4.45477
265 4.37243
270 3.08537
275 3.14373
280 4.09709
285 2.78432
290 3.75302
295 4.77714
300 4.18519
305 2.85017
310 3.48811
315 2.99784
320 2.75012
325 2.81179
330 4.18859
335 3.06393
340 3.01565
345 2.35003
350 2.58369
355 3.06286
360 3.97194
365 2.86143
370 3.03714
375 3.46191
380 3.23869
385 3.60807
390 3.55553
395 4.61781
400 2.85475
405 3.47385
410 4.06797
415 4.35127
420 3.69311
425 2.84385
430 4.08617
435 4.91318
440 3.75819
445 3.48871
450 2.55987
455 3.69995
460 4.28672
465 3.40024
470 3.90017
475 3.9865
480 2.71983
485 3.10429
490 3.1973
495 2.51387
500 4.39935
505 6.26419
510 3.55257
515 2.73816
520 3.50625
525 4.52168
530 2.91965
535 3.80509
540 3.45089
545 3.13018
550 4.25374
555 2.27359
560 2.69107
565 3.43351
570 4.03929
575 3.91287
580 2.6691
585 3.09292
590 3.15422
595 3.73933
600 7.33791
Ex : 258
200 2.30452
205 2.13953
210 2.62981
215 2.64448
220 2.18065
225 2.74933
230 2.5661
235 2.14103
240 2.76039
245 2.15092
250 2.12276
255 3.40732
260 2.64353
265 2.05073
270 2.31938
275 2.395
280 2.62876
285 1.67225
290 2.08755
295 2.50115
300 2.36102
305 2.17541
310 2.30636
315 2.89453
320 2.33985
325 3.44068
330 2.14821
335 2.01687
340 2.44238
345 2.56686
350 2.57115
355 2.9904
360 4.06622
365 3.94522
370 2.76606
375 3.3751
380 2.12366
385 2.83211
390 2.83434
395 3.57784
400 3.20209
405 2.84505
410 4.11706
415 3.96817
420 2.36125
425 3.12462
430 3.2261
435 3.02748
440 2.99962
445 3.46383
450 3.6808
455 2.32196
460 2.37201
465 3.08452
470 3.24172
475 2.2523
480 3.3872
485 2.76514
490 3.04508
495 3.23102
500 3.73839
505 3.15127
510 3.39702
515 2.88789
520 2.29876
525 3.13447
530 2.44736
535 3.98602
540 3.48497
545 3.31374
550 1.66111
555 3.42419
560 3.43448
565 3.08072
570 1.51764
575 1.98714
580 3.01532
585 3.3114
590 3.15566
595 3.32366
600 0.37822
Ex : 263
200 1.46739
205 2.63924
210 2.22995
215 2.35832
220 1.56823
225 2.29225
230 1.65758
235 1.86568
240 2.60674
245 2.339
250 1.94456
255 2.53337
260 1.96864
265 2.14014
270 2.12185
275 2.58525
280 2.10993
285 1.25311
290 1.46227
295 1.45401
300 2.00931
305 2.50545
310 1.68092
315 2.72646
320 1.9024
325 1.40597
330 1.19899
335 1.67187
340 2.58986
345 1.61984
350 2.06698
355 2.94913
360 2.01538
365 2.15039
370 2.62472
375 2.48594
380 1.92692
385 2.27443
390 2.39452
395 2.7934
400 3.34305
405 2.76244
410 1.92311
415 1.76269
420 1.69031
425 1.55092
430 1.93498
435 1.93314
440 3.66726
445 3.17063
450 2.54724
455 2.55849
460 2.3108
465 1.94317
470 2.03363
475 2.47054
480 2.48355
485 2.22784
490 2.2328
495 2.32142
500 1.97399
505 1.99843
510 2.97395
515 2.51327
520 2.59265
525 2.98125
530 2.81637
535 2.93239
540 1.85841
545 2.41048
550 1.98642
555 1.85029
560 1.35808
565 2.34324
570 2.01799
575 2.33771
580 2.16222
585 1.93288
590 3.49368
595 2.13519
600 0.242977
Ex : 268
200 1.47368
205 1.93353
210 1.12411
215 1.27329
220 1.80473
225 1.78717
230 1.45748
235 1.35968
240 1.70393
245 1.5386
250 2.06318
255 1.65227
260 1.66392
265 1.56263
270 1.4894
275 1.47738
280 1.32776
285 1.72521
290 2.0166
295 1.34169
300 1.54796
305 2.09167
310 2.10464
315 1.69177
320 1.61873
325 1.45519
330 1.37692
335 2.07498
340 1.83418
345 1.44985
350 1.64163
355 1.97577
360 1.63421
365 1.58285
370 1.79634
375 2.16437
380 2.28202
385 2.08533
390 2.09633
395 1.73158
400 1.66669
405 1.65851
410 2.12578
415 2.1566
420 2.56123
425 2.42275
430 2.50844
435 2.00295
440 2.17736
445 2.34174
450 2.05988
455 2.76895
460 2.17111
465 2.1424
470 2.83995
475 1.64643
480 1.76357
485 1.91785
490 1.95936
495 2.09261
500 1.58646
505 2.47346
510 1.8846
515 1.76254
520 1.89987
525 1.72912
530 2.33926
535 2.39957
540 1.71384
545 1.49229
550 1.48856
555 2.33054
560 1.59898
565 1.94665
570 1.72708
575 1.89121
580 2.44989
585 2.09143
590 1.32101
595 2.46646
600 0.280674
Ex : 273
200 1.507
205 1.76452
210 0.865448
215 1.50938
220 1.39142
225 1.51904
230 1.3015
235 1.46883
240 2.18295
245 1.34698
250 0.852629
255 1.43616
260 1.07385
265 1.60641
270 1.22923
275 1.72014
280 1.03087
285 1.16871
290 1.22053
295 1.14764
300 1.09012
305 1.57477
310 1.40211
315 1.30169
320 0.732932
325 1.42172
330 1.44106
335 1.43295
340 1.37648
345 1.16178
350 1.585
355 1.56921
360 1.5918
365 2.37238
370 1.78036
375 1.13688
380 1.79768
385 1.62819
390 2.06576
395 1.74216
400 1.89562
405 1.5341
410 1.44135
415 1.32131
420 0.903724
425 2.08995
430 1.41333
435 2.15705
440 1.59108
445 1.27805
450 2.20755
455 1.70365
460 1.25768
465 1.66936
470 1.17797
475 1.33965
480 1.52187
485 1.14532
490 1.21685
495 1.87926
500 1.16036
505 1.13411
510 1.98587
515 1.35956
520 1.30114
525 1.85403
530 2.27879
535 2.22906
540 2.1777
545 2.0672
550 1.37066
555 1.44735
560 1.47919
565 1.38527
570 1.94081
575 1.24292
580 1.0009
585 1.13735
590 0.986574
595 0.694266
600 0.0790049
Ex : 278
200 1.67563
205 1.11616
210 1.20201
215 0.973796
220 0.885597
225 0.963191
230 0.99129
235 1.3483
240 0.737587
245 1.43625
250 1.20977
255 0.896845
260 1.30964
265 1.16426
270 1.26511
275 1.80065
280 0.971252
285 1.2231
290 1.38285
295 0.873569
300 1.46598
305 1.15108
310 0.872325
315 1.45787
320 1.30233
325 1.04108
330 1.01065
335 0.882458
340 1.00581
345 1.50569
350 1.2643
355 0.922969
360 1.59976
365 1.6415
370 0.794311
375 1.53374
380 0.996693
385 1.58014
390 1.26262
395 1.94132
400 1.55614
405 1.54167
410 1.3671
415 1.33327
420 1.07053
425 2.00872
430 1.31552
435 1.48489
440 1.63579
445 1.17961
450 1.40392
455 1.08625
460 1.47096
465 1.47345
470 1.87134
475 1.82559
480 1.43785
485 1.26435
490 1.54791
495 1.62393
500 2.07862
505 1.24669
510 1.35457
515 1.33156
520 1.29168
525 1.34488
530 1.29181
535 1.20471
540 0.958003
545 1.24512
550 1.16101
555 1.49597
560 0.989584
565 1.0824
570 1.6665
575 1.24896
580 1.29589
585 1.07619
590 1.42307
595 1.22685
600 1.62717
Ex : 283
200 0.92255
205 1.02496
210 1.01383
215 0.503512
220 0.964082
225 0.927554
230 0.939147
235 1.15348
240 1.38061
245 0.853942
250 1.11834
255 1.04369
260 1.19421
265 0.787499
270 0.927782
275 1.37525
280 1.01189
285 0.933559
290 0.761096
295 0.950122
300 0.81029
305 0.951296
310 0.844895
315 0.985406
320 0.885181
325 0.81056
330 0.985905
335 1.15132
340 1.02406
345 1.13555
350 1.28983
355 0.774222
360 0.90864
365 1.63619
370 1.59351
375 0.900262
380 1.02444
385 1.69439
390 1.37299
395 1.4258
400 1.14699
405 1.23008
410 1.19998
415 0.864881
420 1.61544
425 1.28439
430 1.59451
435 1.16742
440 1.67584
445 1.43691
450 1.24208
455 1.01573
460 1.26747
465 1.59494
470 1.30582
475 1.5159
480 1.28997
485 1.06862
490 1.0747
495 0.991768
500 1.16991
505 0.784005
510 1.0845
515 0.826817
520 0.831148
525 1.22678
530 0.954439
535 1.01448
540 1.38462
545 0.891059
550 1.2348
555 1.317
560 1.54934
565 1.52861
570 0.812264
575 1.22765
580 0.884236
585 0.527177
590 0.596507
595 0.827659
600 0.224509
Ex : 288
200 1.36781
205 1.00616
210 0.935857
215 0.903772
220 0.873078
225 0.796948
230 0.689138
235 0.576208
240 0.905105
245 0.588497
250 0.551056
255 0.659518
260 0.791742
265 0.706073
270 0.543557
275 0.954749
280 0.882719
285 1.12469
290 0.878962
295 0.624782
300 0.652019
305 0.654831
310 0.775429
315 0.738364
320 0.849474
325 0.835256
330 0.848219
335 0.730783
340 1.1156
345 0.777006
350 0.835158
355 1.30527
360 0.926489
365 1.03863
370 1.12039
375 0.910929
380 0.888394
385 0.981635
390 1.59372
395 0.972372
400 1.07324
405 1.21743
410 1.09932
415 1.03883
420 1.28474
425 1.03755
430 0.879748
435 1.15845
440 0.941105
445 0.989655
450 1.19145
455 0.962741
460 1.25144
465 1.08403
470 1.2646
475 1.20231
480 0.944362
485 0.924345
490 1.25658
495 0.909175
500 0.774936
505 1.08947
510 0.648181
515 0.731466
520 0.77457
525 1.07616
530 0.805944
535 0.772896
540 0.996612
545 0.711624
550 0.675046
555 0.756394
560 0.942203
565 1.09063
570 1.20425
575 0.986211
580 0.844106
585 0.865884
590 0.886961
595 0.815979
600 0.0928553
Ex : 293
200 0.685531
205 0.508706
210 0.834427
215 0.781674
220 0.631867
225 0.637905
230 0.731105
235 0.908253
240 0.756021
245 0.490056
250 0.655051
255 0.914267
260 0.860037
265 0.847049
270 0.676717
275 1.00052
280 0.889284
285 0.971969
290 1.00568
295 0.772614
300 0.599327
305 0.636086
310 0.663483
315 0.43984
320 0.763317
325 0.632835
330 0.644205
335 0.637741
340 0.670408
345 0.856972
350 0.779489
355 0.839313
360 0.793599
365 0.60579
370 0.876038
375 1.18736
380 0.871772
385 0.930845
390 0.993018
395 0.883018
400 1.14594
405 1.34711
410 1.25582
415 1.05226
420 0.778997
425 1.15288
430 0.989704
435 1.22382
440 0.936674
445 0.947643
450 1.10925
455 1.04329
460 0.981513
465 0.958578
470 0.826046
475 1.24753
480 0.631894
485 0.830441
490 0.607126
495 0.721804
500 0.967012
505 0.819182
510 0.708773
515 0.847019
520 0.983032
525 0.894723
530 1.04491
535 0.723216
540 0.530261
545 0.660172
550 0.626521
555 0.715365
560 0.60676
565 0.619272
570 0.648641
575 0.79086
580 1.03786
585 0.96755
590 0.887406
595 0.837369
600 1.25843
Ex : 298
200 0.500645
205 0.711322
210 0.413224
215 0.534702
220 0.759393
225 0.698661
230 0.569696
235 0.63593
240 0.481559
245 0.518669
250 0.523352
255 0.504975
260 0.585719
265 0.409032
270 0.681088
275 0.403861
280 0.59072
285 0.733808
290 0.855544
295 0.693385
300 0.576138
305 0.508858
310 0.721125
315 0.484742
320 0.668097
325 0.902538
330 0.66873
335 0.549529
340 0.867655
345 0.777821
350 0.59617
355 0.782164
360 0.928731
365 0.851497
370 0.839795
375 0.812914
380 0.877495
385 0.684611
390 0.7114
395 1.24216
400 0.917214
405 1.05807
410 0.959986
415 1.07418
420 0.784873
425 1.04777
430 1.15033
435 0.847719
440 0.947544
445 1.11517
450 0.886286
455 1.12626
460 0.995153
465 1.01357
470 0.827613
475 0.657002
480 0.742489
485 0.667681
490 0.683094
495 0.529037
500 0.774387
505 0.954794
510 1.07177
515 0.902966
520 0.716043
525 0.558374
530 0.557118
535 0.531979
540 0.735704
545 0.760863
550 0.91465
555 0.634428
560 0.685246
565 0.864183
570 0.596735
575 0.528977
580 0.737066
585 0.79253
590 1.33515
595 1.03544
600 0.117829
Ex : 303
200 0.421946
205 0.422961
210 0.432861
215 0.357122
220 0.545316
225 0.634346
230 0.56541
235 0.33702
240 0.452273
245 0.650253
250 0.554121
255 0.54314
260 0.50574
265 0.43283
270 0.570353
275 0.59208
280 0.626106
285 0.54012
290 0.475628
295 0.724467
300 0.599253
305 0.630078
310 0.48154
315 0.393739
320 0.484732
325 0.425389
330 0.523924
335 0.54258
340 0.567336
345 0.466893
350 0.456134
355 0.473876
360 0.79855
365 0.959504
370 0.720328
375 1.03516
380 0.827836
385 0.902824
390 0.786362
395 0.963445
400 0.942736
405 0.917465
410 0.86052
415 0.784189
420 1.11952
425 0.867013
430 0.88451
435 1.1345
440 0.978408
445 0.732551
450 0.688705
455 0.829886
460 0.623039
465 0.805898
470 1.08301
475 0.672675
480 0.646083
485 0.779413
490 0.55427
495 0.932057
500 0.943404
505 0.727934
510 0.579124
515 0.534619
520 0.449406
525 0.521769
530 0.602468
535 0.395562
540 0.362684
545 0.482874
550 0.596759
555 0.470396
560 0.517858
565 0.630172
570 0.518013
575 0.440886
580 0.683317
585 0.411337
590 0.533737
595 0.549895
600 0.062576
Ex : 308
200 0.355832
205 0.59831
210 0.410207
215 0.540214
220 0.553161
225 0.570782
230 0.322698
235 0.425428
240 0.309624
245 0.416956
250 0.371655
255 0.717565
260 0.424466
265 0.369366
270 0.556083
275 0.491377
280 0.467051
285 0.513647
290 0.428314
295 0.490665
300 0.592339
305 0.979057
310 0.530714
315 0.496025
320 0.290587
325 0.423174
330 0.483562
335 0.501801
340 0.659897
345 0.56514
350 0.484153
355 0.647067
360 0.65726
365 0.690352
370 0.74901
375 0.964978
380 0.832967
385 0.754241
390 0.762722
395 0.820549
400 0.991081
405 0.943175
410 0.8232
415 0.739176
420 0.865784
425 0.911412
430 0.872093
435 0.927169
440 0.825768
445 0.723277
450 0.798774
455 0.615385
460 0.930528
465 0.700123
470 0.684406
475 0.661281
480 0.622033
485 0.551551
490 0.782061
495 0.509964
500 0.502903
505 0.480503
510 0.527812
515 0.516812
520 0.635744
525 0.512503
530 0.666922
535 0.440228
540 0.599771
545 0.351614
550 0.374334
555 0.478513
560 0.422018
565 0.444119
570 0.58711
575 0.42987
580 0.462026
585 0.36714
590 0.534899
595 0.493386
600 0.0561455
Ex : 313
200 0.243986
205 0.394114
210 0.400001
215 0.318927
220 0.481826
225 0.257929
230 0.46855
235 0.259903
240 0.378335
245 0.441113
250 0.414848
255 0.586098
260 0.538048
265 0.466431
270 0.408023
275 0.510008
280 0.411644
285 0.368677
290 0.600912
295 0.232768
300 0.435741
305 0.510985
310 0.624047
315 0.437559
320 0.283437
325 0.428288
330 0.623816
335 0.711152
340 0.601754
345 0.514418
350 0.631526
355 0.689788
360 0.909568
365 0.725117
370 0.802233
375 0.961848
380 1.01731
385 1.05185
390 1.00203
395 1.21204
400 1.09907
405 0.996336
410 1.14346
415 1.22181
420 1.01854
425 0.973563
430 1.06126
435 1.17849
440 1.07792
445 1.15477
450 1.02146
455 0.845628
460 0.745629
465 0.867173
470 0.931121
475 0.583263
480 0.634117
485 0.843467
490 0.707505
495 0.67982
500 0.511008
505 0.525698
510 0.604014
515 0.753952
520 0.438267
525 0.549023
530 0.548342
535 0.511013
540 0.49724
545 0.362827
550 0.447981
555 0.56915
560 0.6548
565 0.463541
570 0.353259
575 0.414075
580 0.368138
585 0.453895
590 0.491132
595 0.656254
600 0.140324
Ex : 318
200 0.271191
205 0.325802
210 0.356723
215 0.300498
220 0.203392
225 0.352274
230 0.323747
235 0.307683
240 0.367483
245 0.316719
250 0.397668
255 0.360916
260 0.34511
265 0.283259
270 0.33599
275 0.533861
280 0.321521
285 0.362818
290 0.500243
295 0.381607
300 0.363149
305 0.281679
310 0.880835
315 0.973932
320 0.53629
325 0.420833
330 0.801592
335 0.814593
340 1.21764
345 1.24695
350 1.92518
355 2.44057
360 2.85193
365 3.72986
370 4.37229
375 5.29118
380 6.36821
385 6.76601
390 7.28851
395 7.74641
400 7.87201
405 8.20128
410 8.36694
415 8.25331
420 7.98379
425 7.70428
430 7.76983
435 8.13516
440 7.50624
445 7.35683
450 6.78089
455 6.48963
460 5.92146
465 5.53983
470 5.14987
475 4.87433
480 4.23163
485 3.6644
490 3.10295
495 2.88974
500 2.36545
505 2.15052
510 2.13214
515 1.93965
520 1.61379
525 1.37299
530 1.25869
535 1.10068
540 1.12986
545 0.663475
550 1.07268
555 0.624342
560 0.434942
565 0.693088
570 0.582511
575 0.493098
580 0.482598
585 0.721926
590 0.652975
595 0.418039
600 0.115
Ex : 323
200 0.459298
205 0.397207
210 0.354389
215 0.382507
220 0.315547
225 0.306254
230 0.258151
235 0.245499
240 0.261019
245 0.381841
250 0.445307
255 0.269876
260 0.337813
265 0.361795
270 0.285725
275 0.208319
280 0.481698
285 0.322813
290 0.244857
295 0.32716
300 0.349076
305 0.361268
310 0.335221
315 2.04832
320 7.86951
325 4.17608
330 2.0374
335 2.85336
340 4.01797
345 5.81588
350 7.81975
355 11.159
360 13.8129
365 16.038
370 20.0069
375 22.6003
380 25.5795
385 29.7869
390 31.298
395 32.6127
400 33.8635
405 35.212
410 35.0004
415 35.2598
420 34.968
425 34.4056
430 33.651
435 32.6787
440 31.1296
445 29.3068
450 28.6947
455 25.9421
460 24.2695
465 23.1208
470 21.2199
475 19.2269
480 17.2993
485 15.811
490 13.8861
495 12.7326
500 11.1865
505 9.55699
510 8.22434
515 7.74917
520 6.6785
525 5.85454
530 4.79433
535 3.82299
540 3.73859
545 3.34073
550 2.67436
555 2.46612
560 2.17112
565 1.72065
570 1.3005
575 1.29565
580 1.0314
585 0.72373
590 0.566094
595 0.637893
600 0.456043
Ex : 328
200 0.170813
205 0.22111
210 0.26801
215 0.287538
220 0.3545
225 0.283917
230 0.297138
235 0.29081
240 0.363819
245 0.303408
250 0.343167
255 0.240985
260 0.369076
265 0.263967
270 0.272354
275 0.415058
280 0.304733
285 0.494811
290 0.270876
295 0.306249
300 0.299733
305 0.514004
310 0.360485
315 0.749429
320 19.8075
325 49.4096
330 16.53
335 5.43679
340 5.74027
345 8.01583
350 9.92069
355 13.5279
360 18.2148
365 20.4506
370 23.4409
375 26.5943
380 28.7422
385 32.9824
390 36.4585
395 38.633
400 40.1496
405 41.5001
410 40.9596
415 40.8678
420 40.3327
425 39.0244
430 37.9943
435 36.8915
440 34.9009
445 33.7277
450 31.7148
455 29.3895
460 27.7994
465 25.4934
470 23.5681
475 22.2997
480 20.6871
485 18.4629
490 16.1296
495 14.8752
500 12.8764
505 12.2398
510 11.1144
515 9.38286
520 8.06627
525 7.24863
530 6.4342
535 5.37658
540 4.58571
545 4.37228
550 3.72358
555 3.2688
560 2.58832
565 2.57372
570 2.08155
575 1.79622
580 1.27543
585 1.14138
590 0.841376
595 0.871939
600 0.861048
Ex : 333
200 0.28912
205 0.229722
210 0.199844
215 0.307091
220 0.261433
225 0.265935
230 0.440817
235 0.213895
240 0.248426
245 0.23911
250 0.25821
255 0.335665
260 0.252933
265 0.336654
270 0.262152
275 0.308641
280 0.247
285 0.202368
290 0.294463
295 0.303437
300 0.200904
305 0.222501
310 0.294983
315 0.293537
320 3.12829
325 60.3758
330 106.431
335 29.6551
340 7.04108
345 5.83644
350 6.4365
355 7.61118
360 10.7632
365 15.7662
370 16.332
375 16.8603
380 18.0671
385 18.7552
390 20.1203
395 21.7102
400 22.5699
405 23.3404
410 23.7252
415 23.3975
420 23.4764
425 21.9115
430 20.818
435 20.5628
440 20.5099
445 19.1888
450 18.1284
455 18.2622
460 16.8187
465 15.4494
470 15.4586
475 14.0347
480 13.2655
485 12.4832
490 11.2904
495 11.0201
500 9.80872
505 9.0426
510 7.99713
515 7.15824
520 6.49717
525 5.64991
530 4.99568
535 4.2793
540 3.936
545 3.55892
550 3.29861
555 2.91077
560 2.47458
565 2.09933
570 1.9055
575 1.45544
580 1.282
585 0.95435
590 0.753283
595 0.713015
600 1.21157
Ex : 338
200 0.20968
205 0.391247
210 0.293566
215 0.394173
220 0.218415
225 0.201789
230 0.197476
235 0.120103
240 0.244764
245 0.436716
250 0.259801
255 0.250384
260 0.232221
265 0.334651
270 0.257246
275 0.234159
280 0.240336
285 0.226415
290 0.221504
295 0.279397
300 0.221387
305 0.182856
310 0.278073
315 0.287214
320 0.35424
325 6.53338
330 94.3006
335 140.336
340 35.6914
345 7.05338
350 4.29348
355 4.54623
360 4.70417
365 6.60683
370 11.247
375 11.7991
380 10.5544
385 9.88398
390 10.2454
395 10.8349
400 11.411
405 11.2114
410 11.6799
415 11.6589
420 11.9806
425 11.6826
430 11.5574
435 11.386
440 10.4593
445 11.154
450 10.8764
455 10.7094
460 10.5865
465 10.8116
470 10.5511
475 10.1883
480 10.0705
485 9.44824
490 8.64798
495 8.45635
500 8.00032
505 7.38901
510 6.99408
515 6.27393
520 5.76881
525 5.38258
530 4.60244
535 4.26807
540 3.70984
545 3.35982
550 3.06345
555 3.09147
560 2.37743
565 2.1941
570 1.78454
575 1.36411
580 1.27893
585 0.873096
590 0.867666
595 0.725406
600 0.442167
Ex : 343
200 0.348421
205 0.25958
210 0.207462
215 0.191173
220 0.256421
225 0.200821
230 0.158219
235 0.228475
240 0.244543
245 0.276543
250 0.239782
255 0.225732
260 0.278708
265 0.180918
270 0.231393
275 0.268638
280 0.38237
285 0.22098
290 0.194412
295 0.19214
300 0.205637
305 0.241712
310 0.273241
315 0.221773
320 0.204623
325 0.316659
330 7.16829
335 106.811
340 156.85
345 39.1552
350 6.65545
355 3.5976
360 3.17707
365 2.90758
370 4.05724
375 8.75179
380 9.27162
385 7.61575
390 6.8719
395 6.87488
400 7.33365
405 7.75386
410 7.82732
415 8.24504
420 7.66637
425 8.12362
430 8.03942
435 8.03378
440 8.0224
445 8.254
450 9.21093
455 9.31379
460 9.21314
465 9.37258
470 9.45842
475 9.2249
480 9.73512
485 9.6096
490 8.78062
495 8.47182
500 8.32527
505 7.63988
510 7.07366
515 6.30563
520 6.177
525 5.51426
530 4.9159
535 4.76178
540 4.08048
545 3.61984
550 3.04636
555 3.19269
560 2.59868
565 2.17193
570 1.87189
575 1.67618
580 1.26675
585 1.02443
590 0.861784
595 0.683374
600 0.253832
Ex : 348
200 0.216572
205 0.276972
210 0.251836
215 0.287917
220 0.19204
225 0.252163
230 0.14431
235 0.238299
240 0.278929
245 0.298295
250 0.218176
255 0.19959
260 0.208836
265 0.170128
270 0.161241
275 0.213015
280 0.168537
285 0.291352
290 0.201026
295 0.247917
300 0.289691
305 0.250201
310 0.283409
315 0.241212
320 0.268132
325 0.248119
330 0.33859
335 7.12297
340 106.959
345 162.837
350 41.8079
355 6.64208
360 2.82011
365 2.81463
370 2.56034
375 3.15208
380 6.49076
385 9.05294
390 7.19384
395 6.02575
400 6.10988
405 6.07023
410 6.79577
415 6.85212
420 7.05067
425 7.57019
430 7.25562
435 7.54456
440 7.87332
445 8.20169
450 8.36583
455 9.15402
460 9.7601
465 9.8177
470 10.0504
475 10.6912
480 10.7242
485 10.7933
490 10.8075
495 10.2509
500 9.52572
505 9.44743
510 8.68974
515 7.97242
520 7.49345
525 6.66195
530 6.12668
535 5.40062
540 5.13594
545 5.00537
550 4.29686
555 3.80071
560 3.1971
565 2.63136
570 2.26743
575 1.75716
580 1.4227
585 1.39704
590 1.15381
595 0.872218
600 1.33009
Ex : 353
200 0.265707
205 0.24841
210 0.143265
215 0.187399
220 0.235207
225 0.162328
230 0.265336
235 0.175249
240 0.187851
245 0.166058
250 0.190393
255 0.163064
260 0.223307
265 0.165965
270 0.176797
275 0.187375
280 0.260267
285 0.241312
290 0.183395
295 0.221641
300 0.153272
305 0.230587
310 0.270336
315 0.229435
320 0.184938
325 0.246323
330 0.177875
335 0.332025
340 7.72484
345 109.994
350 160.204
355 40.4373
360 6.13977
365 2.66596
370 2.45372
375 2.43736
380 2.79235
385 5.42864
390 8.66753
395 7.79802
400 6.70824
405 5.94111
410 5.93918
415 6.34399
420 6.62164
425 6.87602
430 6.64149
435 6.87242
440 7.63172
445 7.92636
450 9.0019
455 9.52102
460 10.1337
465 10.738
470 11.1801
475 11.8507
480 12.2812
485 12.4877
490 12.3846
495 12.3935
500 11.375
505 10.9317
510 9.86173
515 9.21383
520 8.35537
525 8.07173
530 7.34652
535 6.80908
540 6.13255
545 5.50445
550 4.97462
555 4.14685
560 3.80607
565 3.01908
570 2.68125
575 2.17727
580 1.57568
585 1.37205
590 1.23653
595 0.91013
600 1.97219
Ex : 358
200 0.157366
205 0.233257
210 0.241599
215 0.161556
220 0.157163
225 0.216357
230 0.15413
235 0.262762
240 0.227636
245 0.170533
250 0.191805
255 0.187722
260 0.202992
265 0.212904
270 0.176065
275 0.154905
280 0.175051
285 0.159681
290 0.185583
295 0.211092
300 0.154079
305 0.300573
310 0.227659
315 0.208618
320 0.145766
325 0.253962
330 0.255418
335 0.245723
340 0.332644
345 7.21193
350 105.711
355 162.009
360 40.7406
365 6.04576
370 2.71891
375 3.14429
380 2.78283
385 2.821
390 4.70478
395 8.42581
400 8.28233
405 6.97553
410 6.31384
415 6.05271
420 6.29797
425 6.9035
430 7.11591
435 7.01015
440 7.35408
445 8.18595
450 9.06989
455 9.77768
460 10.8628
465 11.6589
470 11.8723
475 12.7099
480 13.3186
485 13.018
490 12.5865
495 13.018
500 12.2781
505 11.6741
510 10.5089
515 10.2797
520 9.50527
525 8.858
530 7.9535
535 7.29238
540 6.46309
545 5.96345
550 5.34981
555 4.68133
560 4.32262
565 3.63829
570 2.94241
575 2.1734
580 1.97261
585 1.42628
590 1.28111
595 0.871105
600 0.315966
Ex : 363
200 0.150331
205 0.340864
210 0.196493
215 0.141402
220 0.145646
225 0.15702
230 0.170428
235 0.177562
240 0.199737
245 0.144653
250 0.168376
255 0.138467
260 0.130289
265 0.178506
270 0.156507
275 0.176258
280 0.210478
285 0.175563
290 0.252214
295 0.185656
300 0.128606
305 0.216753
310 0.242102
315 0.227466
320 0.167132
325 0.231737
330 0.213178
335 0.219222
340 0.271202
345 0.395849
350 6.33522
355 103.065
360 158.78
365 41.6817
370 6.28087
375 2.90454
380 3.20163
385 2.59374
390 2.72512
395 4.07179
400 7.86846
405 8.77822
410 7.47806
415 6.10827
420 5.79956
425 6.23102
430 6.45697
435 6.642
440 7.59793
445 8.50742
450 9.12672
455 10.268
460 11.6229
465 12.9657
470 13.6571
475 13.6552
480 14.1226
485 14.7907
490 14.746
495 14.8684
500 14.2654
505 13.6202
510 12.594
515 11.8107
520 11.0135
525 9.75668
530 8.93641
535 8.38694
540 7.22019
545 6.99073
550 6.22174
555 5.54193
560 4.59496
565 3.84914
570 3.27962
575 2.67669
580 2.07997
585 1.61647
590 1.31565
595 1.24505
600 1.13706
Ex : 368
200 0.155371
205 0.128922
210 0.171443
215 0.144219
220 0.227231
225 0.159673
230 0.140822
235 0.133922
240 0.188427
245 0.168118
250 0.238524
255 0.173207
260 0.1793
265 0.167373
270 0.234974
275 0.150847
280 0.166172
285 0.164376
290 0.10187
295 0.144147
300 0.17876
305 0.215199
310 0.208754
315 0.215915
320 0.153715
325 0.18138
330 0.175835
335 0.233832
340 0.236732
345 0.308652
350 0.318763
355 5.45425
360 97.343
365 159.814
370 43.7235
375 6.76626
380 2.69226
385 2.82606
390 2.74369
395 2.70159
400 3.60597
405 6.57988
410 8.83262
415 7.49404
420 6.33422
425 5.90166
430 5.82169
435 6.33694
440 6.90328
445 8.19839
450 9.68025
455 10.7682
460 12.3677
465 13.9976
470 15.0324
475 15.6616
480 16.4389
485 17.1837
490 16.7137
495 17.175
500 16.6766
505 15.5238
510 15.2082
515 13.8717
520 13.0287
525 12.0219
530 10.9583
535 9.98991
540 8.98658
545 8.32039
550 7.2568
555 6.11583
560 5.7406
565 4.67216
570 3.92967
575 3.07873
580 2.52141
585 2.05582
590 1.48779
595 1.31102
600 0.625421
Ex : 373
200 0.141909
205 0.148469
210 0.162491
215 0.143058
220 0.14807
225 0.22913
230 0.161922
235 0.136974
240 0.136151
245 0.1822
250 0.17788
255 0.16712
260 0.222893
265 0.124758
270 0.117533
275 0.188507
280 0.179612
285 0.136632
290 0.142188
295 0.189554
300 0.122602
305 0.163841
310 0.165973
315 0.147147
320 0.189939
325 0.233147
330 0.20964
335 0.165764
340 0.205418
345 0.273097
350 0.294949
355 0.332366
360 6.15105
365 98.2769
370 160.35
375 44.44
380 6.96189
385 2.67072
390 2.91482
395 3.0732
400 3.07014
405 3.44803
410 5.94199
415 8.39891
420 7.55037
425 6.313
430 5.70989
435 6.25641
440 6.77304
445 7.85124
450 9.47696
455 11.1757
460 12.8989
465 14.7254
470 15.4827
475 16.9903
480 17.7001
485 18.2783
490 18.1122
495 18.961
500 18.3422
505 17.2913
510 16.1327
515 15.4112
520 13.9483
525 12.629
530 11.6243
535 11.1584
540 9.88258
545 9.25118
550 7.91502
555 7.00614
560 6.29996
565 5.32928
570 4.34318
575 3.70718
580 2.83882
585 2.26131
590 1.61079
595 1.29562
600 0.690718
Ex : 378
200 0.161607
205 0.105024
210 0.167185
215 0.131791
220 0.155751
225 0.148391
230 0.10639
235 0.184689
240 0.175443
245 0.210216
250 0.17273
255 0.156999
260 0.182837
265 0.1302
270 0.203072
275 0.207408
280 0.168405
285 0.158357
290 0.126212
295 0.103923
300 0.090443
305 0.152353
310 0.163255
315 0.149563
320 0.143872
325 0.149519
330 0.157631
335 0.168811
340 0.197259
345 0.258804
350 0.216279
355 0.198925
360 0.279091
365 5.92674
370 103.738
375 170.379
380 47.1876
385 7.25409
390 3.13111
395 3.47371
400 3.52363
405 3.19025
410 3.45294
415 5.23376
420 8.00063
425 7.78342
430 6.59687
435 6.35479
440 6.74361
445 7.28681
450 9.12917
455 10.8007
460 12.3766
465 14.1762
470 15.4016
475 16.2016
480 17.1289
485 17.6576
490 17.8512
495 17.9204
500 17.4252
505 16.7544
510 15.4903
515 14.5988
520 13.4707
525 12.2174
530 11.4088
535 10.1651
540 9.34653
545 8.48444
550 7.61707
555 6.51553
560 5.87681
565 5.19867
570 4.30169
575 3.28667
580 2.70411
585 2.02828
590 1.64969
595 1.39677
600 1.01164
Ex : 383
200 0.11592
205 0.164006
210 0.127134
215 0.143825
220 0.0979565
225 0.106274
230 0.14705
235 0.170728
240 0.165331
245 0.143082
250 0.137471
255 0.1582
260 0.191611
265 0.116578
270 0.179853
275 0.150034
280 0.133672
285 0.164198
290 0.136795
295 0.149264
300 0.130209
305 0.18841
310 0.116183
315 0.138541
320 0.161224
325 0.0960353
330 0.155265
335 0.145392
340 0.140901
345 0.321198
350 0.224212
355 0.18451
360 0.255315
365 0.331621
370 5.72745
375 102.37
380 175.004
385 48.5601
390 7.56565
395 3.15327
400 3.09331
405 3.69443
410 3.44939
415 3.5671
420 4.45502
425 6.84203
430 8.02478
435 7.00851
440 6.91988
445 7.57786
450 9.01522
455 10.7804
460 12.5657
465 13.7136
470 15.335
475 16.7692
480 17.5538
485 17.6789
490 17.9343
495 18.1281
500 17.9247
505 16.5063
510 15.9001
515 14.7011
520 13.847
525 12.7937
530 11.3797
535 10.324
540 9.88153
545 8.57082
550 7.78537
555 6.62195
560 5.86762
565 5.24521
570 4.21281
575 3.41804
580 2.56078
585 2.20526
590 1.70003
595 1.25001
600 1.20709
Ex : 388
200 0.130336
205 0.14946
210 0.155909
215 0.121453
220 0.164275
225 0.212336
230 0.137259
235 0.118821
240 0.152184
245 0.136874
250 0.102993
255 0.134989
260 0.141927
265 0.154032
270 0.138097
275 0.146469
280 0.0962049
285 0.151092
290 0.165689
295 0.119154
300 0.157483
305 0.156587
310 0.215265
315 0.176355
320 0.151056
325 0.111138
330 0.172998
335 0.129439
340 0.174886
345 0.14995
350 0.14079
355 0.14711
360 0.286831
365 0.238849
370 0.27927
375 6.16944
380 104.644
385 175.835
390 48.6497
395 7.37256
400 2.8984
405 2.90843
410 3.38146
415 3.13569
420 3.10708
425 3.91636
430 6.41393
435 8.55004
440 7.76835
445 7.93086
450 9.0569
455 10.8862
460 12.7715
465 14.2471
470 15.3272
475 16.4929
480 17.9823
485 18.3869
490 18.5699
495 18.4797
500 18.4807
505 17.5253
510 16.5204
515 15.5216
520 14.1619
525 13.4947
530 12.042
535 11.0242
540 10.0828
545 8.72852
550 8.0344
555 7.08176
560 6.28378
565 5.69097
570 4.59243
575 3.86528
580 2.75872
585 2.23058
590 1.64349
595 1.38469
600 1.45123
Ex : 393
200 0.13904
205 0.120723
210 0.124398
215 0.12097
220 0.130228
225 0.175548
230 0.146168
235 0.135575
240 0.170304
245 0.173379
250 0.12882
255 0.0941705
260 0.160354
265 0.109592
270 0.121921
275 0.122085
280 0.14756
285 0.166655
290 0.121726
295 0.109362
300 0.152323
305 0.165137
310 0.146082
315 0.117039
320 0.124094
325 0.114994
330 0.165109
335 0.172472
340 0.143843
345 0.143354
350 0.242963
355 0.168837
360 0.175665
365 0.203784
370 0.204247
375 0.284747
380 5.58313
385 105.734
390 180.633
395 50.4959
400 7.36159
405 2.66081
410 2.75483
415 2.98449
420 2.68424
425 2.71187
430 3.29266
435 5.12321
440 8.40807
445 8.71282
450 9.53068
455 10.8869
460 12.4019
465 14.2922
470 16.2695
475 17.6148
480 18.2493
485 19.3924
490 19.6498
495 18.9755
500 19.1936
505 18.3481
510 17.2185
515 16.2539
520 15.1387
525 13.9279
530 12.7407
535 11.6999
540 10.879
545 9.41592
550 8.3704
555 7.65062
560 6.63518
565 5.6434
570 4.80262
575 3.89568
580 3.10523
585 2.25641
590 1.7893
595 1.39587
600 1.0805
Ex : 398
200 0.110859
205 0.0988015
210 0.148198
215 0.134957
220 0.122962
225 0.0894574
230 0.128003
235 0.11677
240 0.151568
245 0.135762
250 0.146415
255 0.106921
260 0.0877026
265 0.148488
270 0.180552
275 0.118335
280 0.125788
285 0.152054
290 0.120685
295 0.133113
300 0.120811
305 0.117467
310 0.151703
315 0.113561
320 0.0949774
325 0.10387
330 0.114655
335 0.125647
340 0.118139
345 0.107925
350 0.202551
355 0.155305
360 0.111382
365 0.181697
370 0.163845
375 0.197738
380 0.319159
385 5.4212
390 108.294
395 186.586
400 50.5749
405 7.35182
410 2.53168
415 2.33067
420 2.63873
425 2.66946
430 2.8057
435 3.36634
440 5.37447
445 9.10814
450 11.1642
455 11.9407
460 13.2415
465 14.5052
470 16.2541
475 17.5174
480 18.7724
485 19.612
490 20.1638
495 20.6302
500 19.9751
505 19.2195
510 18.1612
515 16.9865
520 15.5484
525 14.3125
530 13.3308
535 12.0927
540 10.8669
545 9.87495
550 9.28278
555 7.92975
560 6.80731
565 6.12815
570 4.85149
575 4.19017
580 3.17093
585 2.40137
590 2.04481
595 1.55571
600 1.25615
Ex : 403
200 0.126666
205 0.124335
210 0.14957
215 0.120181
220 0.171688
225 0.179473
230 0.154534
235 0.117212
240 0.119686
245 0.144774
250 0.119588
255 0.15757
260 0.124629
265 0.138891
270 0.137167
275 0.12293
280 0.15677
285 0.141293
290 0.0909886
295 0.163754
300 0.176193
305 0.109515
310 0.125107
315 0.11657
320 0.0965635
325 0.146333
330 0.191082
335 0.200912
340 0.0907337
345 0.105801
350 0.135261
355 0.152941
360 0.116948
365 0.166074
370 0.218188
375 0.222203
380 0.196571
385 0.315094
390 6.52055
395 112.971
400 186.014
405 52.3254
410 7.81894
415 2.55368
420 2.29448
425 2.8258
430 2.83492
435 3.05666
440 4.01153
445 6.10093
450 10.4114
455 12.8467
460 13.6002
465 15.155
470 16.5716
475 18.1882
480 19.2642
485 20.1842
490 20.3674
495 21.0575
500 20.4283
505 19.4028
510 18.4605
515 17.4405
520 16.1449
525 14.8024
530 13.7217
535 12.7329
540 11.293
545 10.0964
550 9.20917
555 8.24348
560 7.06049
565 6.08311
570 5.17842
575 4.02423
580 3.20049
585 2.44291
590 1.83523
595 1.53837
600 1.72592
Ex : 408
200 0.132728
205 0.136881
210 0.145569
215 0.0923723
220 0.144027
225 0.126846
230 0.0974138
235 0.139629
240 0.15774
245 0.153879
250 0.143249
255 0.175047
260 0.122692
265 0.117036
270 0.158083
275 0.137367
280 0.0876851
285 0.0913724
290 0.11384
295 0.122495
300 0.15091
305 0.124387
310 0.130073
315 0.17227
320 0.137277
325 0.136494
330 0.193077
335 0.133729
340 0.203523
345 0.154547
350 0.133605
355 0.17326
360 0.142021
365 0.129184
370 0.158769
375 0.197938
380 0.213328
385 0.327906
390 0.370673
395 6.31613
400 115.912
405 188.76
410 50.807
415 7.47216
420 2.56449
425 2.25482
430 2.7915
435 3.32917
440 3.90492
445 5.06749
450 7.39775
455 11.4756
460 14.9162
465 15.8974
470 17.2305
475 18.4049
480 19.5013
485 19.7484
490 20.5511
495 20.4031
500 20.3016
505 19.8814
510 18.2867
515 17.6592
520 16.1875
525 14.5371
530 13.5707
535 12.4508
540 11.4502
545 10.3067
550 8.80103
555 8.19901
560 7.40664
565 6.14706
570 5.16364
575 4.17565
580 3.10768
585 2.44614
590 1.94133
595 1.50076
600 1.3554
Ex : 413
200 0.133434
205 0.102991
210 0.112691
215 0.161801
220 0.165899
225 0.167007
230 0.150152
235 0.173032
240 0.118555
245 0.140715
250 0.14374
255 0.110179
260 0.115515
265 0.122323
270 0.0960821
275 0.132198
280 0.116881
285 0.101743
290 0.173108
295 0.142519
300 0.135253
305 0.137144
310 0.169476
315 0.105567
320 0.11681
325 0.157996
330 0.147295
335 0.18004
340 0.165853
345 0.131523
350 0.153827
355 0.169178
360 0.160289
365 0.128962
370 0.120655
375 0.216081
380 0.220371
385 0.24686
390 0.267304
395 0.383873
400 7.36322
405 119.149
410 190.484
415 49.947
420 7.02247
425 2.38858
430 2.2527
435 2.89714
440 3.59258
445 4.78024
450 6.51702
455 9.36779
460 12.9355
465 16.8118
470 17.7432
475 18.1269
480 19.1688
485 19.8625
490 20.4416
495 20.579
500 19.9567
505 19.4302
510 18.297
515 17.0591
520 16.2206
525 14.8713
530 13.6881
535 12.112
540 11.1422
545 10.1993
550 9.19351
555 8.02559
560 6.98099
565 5.74154
570 5.07561
575 4.15176
580 3.1754
585 2.35383
590 1.87281
595 1.48635
600 1.89724
Ex : 418
200 0.12033
205 0.143597
210 0.101753
215 0.120731
220 0.116126
225 0.124519
230 0.123926
235 0.104355
240 0.133302
245 0.131427
250 0.147354
255 0.120424
260 0.101861
265 0.0837397
270 0.0909046
275 0.1292
280 0.164747
285 0.124752
290 0.110423
295 0.17159
300 0.102384
305 0.140362
310 0.151347
315 0.101935
320 0.125021
325 0.161071
330 0.125493
335 0.132704
340 0.15131
345 0.115756
350 0.117634
355 0.0871953
360 0.0968535
365 0.191891
370 0.156612
375 0.159527
380 0.222825
385 0.160599
390 0.155705
395 0.268968
400 0.400503
405 6.94673
410 122.736
415 200.934
420 54.0242
425 7.62056
430 2.26512
435 2.41104
440 3.46472
445 4.67719
450 6.22427
455 8.22068
460 10.6208
465 13.3875
470 17.436
475 18.8814
480 18.8345
485 19.5066
490 19.2788
495 19.3264
500 19.5401
505 18.4739
510 17.7844
515 16.23
520 15.4232
525 14.3011
530 13.1563
535 11.8669
540 10.5948
545 9.78807
550 8.52621
555 7.59694
560 6.85105
565 6.01348
570 4.80643
575 3.86878
580 2.89611
585 2.38508
590 1.89708
595 1.44081
600 1.29747
Ex : 423
200 0.15525
205 0.115762
210 0.109274
215 0.0847582
220 0.144628
225 0.115617
230 0.13
235 0.106364
240 0.134771
245 0.116615
250 0.128035
255 0.117888
260 0.121314
265 0.10163
270 0.173251
275 0.138708
280 0.117409
285 0.116646
290 0.118032
295 0.131047
300 0.10888
305 0.0870882
310 0.105444
315 0.100809
320 0.100155
325 0.113112
330 0.126324
335 0.0820946
340 0.0920778
345 0.166359
350 0.161428
355 0.152351
360 0.13614
365 0.110868
370 0.177333
375 0.153881
380 0.132795
385 0.146738
390 0.195636
395 0.204878
400 0.29364
405 0.404218
410 7.13291
415 127.759
420 201.876
425 52.0619
430 7.39907
435 2.53573
440 2.85053
445 4.46041
450 5.7584
455 7.76485
460 9.41783
465 11.6748
470 13.2414
475 16.6542
480 18.7157
485 18.316
490 18.686
495 18.5881
500 17.6007
505 17.1212
510 16.1875
515 14.7265
520 14.0302
525 13.0602
530 12.0792
535 11.1761
540 10.1487
545 9.12753
550 8.26684
555 7.19961
560 6.36176
565 5.3223
570 4.42632
575 3.59497
580 2.63869
585 2.15415
590 1.71535
595 1.23728
600 1.10863
Ex : 428
200 0.158353
205 0.126283
210 0.0846279
215 0.0996686
220 0.118996
225 0.0939116
230 0.116304
235 0.0956046
240 0.137005
245 0.0729045
250 0.160732
255 0.157328
260 0.088518
265 0.110432
270 0.122674
275 0.151429
280 0.137878
285 0.156608
290 0.101498
295 0.145068
300 0.154786
305 0.129723
310 0.120645
315 0.117938
320 0.128608
325 0.144758
330 0.133173
335 0.128441
340 0.0998321
345 0.124136
350 0.160973
355 0.14331
360 0.19525
365 0.143756
370 0.16387
375 0.156061
380 0.151271
385 0.177921
390 0.144186
395 0.284625
400 0.218237
405 0.287922
410 0.477291
415 7.92186
420 130.267
425 211.548
430 56.3636
435 8.12161
440 3.01946
445 3.47713
450 5.17514
455 7.05527
460 8.70804
465 10.2889
470 11.8874
475 13.3674
480 15.8526
485 18.3139
490 17.6599
495 17.2696
500 16.0239
505 15.4267
510 14.6589
515 14.2782
520 12.6755
525 11.7338
530 10.7921
535 10.1221
540 9.20196
545 8.28331
550 7.10609
555 6.19055
560 5.60732
565 4.97573
570 4.05573
575 3.24341
580 2.6216
585 2.02109
590 1.45846
595 1.1818
600 1.29246
Ex : 433
200 0.17147
205 0.11766
210 0.191451
215 0.152613
220 0.151307
225 0.108645
230 0.170946
235 0.15452
240 0.158738
245 0.138269
250 0.192129
255 0.15502
260 0.127086
265 0.10258
270 0.106478
275 0.134912
280 0.168944
285 0.116363
290 0.148304
295 0.162977
300 0.120079
305 0.137826
310 0.136771
315 0.135465
320 0.176693
325 0.114247
330 0.122672
335 0.120571
340 0.10844
345 0.128041
350 0.204195
355 0.131759
360 0.132145
365 0.111536
370 0.119931
375 0.130295
380 0.143512
385 0.165313
390 0.192879
395 0.212137
400 0.172591
405 0.178139
410 0.231477
415 0.40653
420 8.98241
425 141.7
430 215.43
435 56.0271
440 8.41448
445 3.85575
450 4.44066
455 6.16849
460 8.09059
465 9.08642
470 10.3018
475 11.4347
480 12.3013
485 14.7396
490 16.3946
495 16.3015
500 14.8184
505 13.8802
510 13.2352
515 12.0401
520 11.3614
525 10.2112
530 9.72155
535 8.8191
540 7.95969
545 7.00384
550 6.49955
555 5.95778
560 5.0799
565 4.18975
570 3.4837
575 2.79184
580 2.41021
585 1.67334
590 1.39129
595 1.08316
600 0.51247
Ex : 438
200 0.082457
205 0.142434
210 0.129872
215 0.141705
220 0.18748
225 0.132645
230 0.118
235 0.152395
240 0.125221
245 0.16964
250 0.106557
255 0.109143
260 0.13026
265 0.147241
270 0.115642
275 0.167072
280 0.13935
285 0.115043
290 0.157339
295 0.138592
300 0.1311
305 0.144524
310 0.132816
315 0.148276
320 0.147332
325 0.125848
330 0.131913
335 0.10762
340 0.1172
345 0.155747
350 0.131487
355 0.105123
360 0.14578
365 0.112447
370 0.218379
375 0.155166
380 0.156408
385 0.158605
390 0.144721
395 0.163672
400 0.165625
405 0.216526
410 0.231978
415 0.26462
420 0.400239
425 8.79004
430 147.756
435 233.968
440 60.9925
445 9.52899
450 4.6156
455 5.00219
460 6.74055
465 7.8756
470 8.93993
475 9.74544
480 10.3935
485 11.5539
490 11.9835
495 14.0701
500 13.9452
505 12.5465
510 11.6083
515 10.9257
520 10.0292
525 8.83155
530 8.19262
535 7.65525
540 7.07881
545 6.16835
550 5.33445
555 5.02474
560 4.29098
565 3.71359
570 3.02465
575 2.34106
580 1.87264
585 1.48302
590 1.19338
595 0.961201
600 0.696232
Ex : 443
200 0.147226
205 0.150032
210 0.150193
215 0.107094
220 0.159828
225 0.11529
230 0.0993764
235 0.122549
240 0.104864
245 0.160076
250 0.151897
255 0.183736
260 0.202515
265 0.172722
270 0.143481
275 0.100206
280 0.123542
285 0.217447
290 0.17155
295 0.164762
300 0.138477
305 0.138625
310 0.127542
315 0.183195
320 0.17612
325 0.121999
330 0.11627
335 0.147422
340 0.160133
345 0.13605
350 0.113758
355 0.133408
360 0.142344
365 0.140344
370 0.114985
375 0.149756
380 0.13835
385 0.129986
390 0.221278
395 0.162199
400 0.170183
405 0.176429
410 0.285379
415 0.171398
420 0.337116
425 0.496837
430 9.72967
435 157.943
440 241.46
445 61.7657
450 10.0704
455 4.93042
460 5.23259
465 6.22737
470 7.11985
475 7.8771
480 8.62999
485 8.9388
490 9.37572
495 9.80357
500 10.9143
505 11.9079
510 10.0223
515 9.06729
520 8.33884
525 7.51599
530 6.94723
535 6.14089
540 5.73141
545 5.06994
550 4.32162
555 4.04018
560 3.63125
565 3.14708
570 2.59812
575 1.98891
580 1.75576
585 1.38228
590 1.05986
595 0.812624
600 0.722066
Ex : 448
200 0.0915713
205 0.118196
210 0.140297
215 0.160515
220 0.142908
225 0.120943
230 0.121674
235 0.132026
240 0.111063
245 0.143894
250 0.112054
255 0.150863
260 0.133845
265 0.169465
270 0.128953
275 0.0989451
280 0.146107
285 0.172809
290 0.1336
295 0.123023
300 0.17883
305 0.148518
310 0.195966
315 0.128255
320 0.106994
325 0.164691
330 0.181999
335 0.133366
340 0.16216
345 0.190838
350 0.14604
355 0.151013
360 0.131764
365 0.160137
370 0.142834
375 0.13039
380 0.185154
385 0.141425
390 0.192903
395 0.191736
400 0.155709
405 0.145374
410 0.195644
415 0.229199
420 0.19295
425 0.331277
430 0.463519
435 10.3774
440 168.955
445 255.022
450 66.2101
455 10.4206
460 4.74431
465 4.66712
470 5.24942
475 6.35865
480 6.89781
485 7.16481
490 7.24059
495 7.13817
500 7.3587
505 8.14076
510 9.13861
515 8.12271
520 6.74271
525 6.36799
530 5.72923
535 5.00524
540 4.41315
545 4.04694
550 3.55907
555 3.28927
560 2.90856
565 2.3335
570 2.01839
575 1.64523
580 1.20325
585 0.919354
590 0.817124
595 0.670736
600 0.413502
Ex : 453
200 0.114921
205 0.130745
210 0.102594
215 0.127114
220 0.0881237
225 0.143622
230 0.147285
235 0.152459
240 0.138035
245 0.125926
250 0.121859
255 0.120703
260 0.125809
265 0.104826
270 0.0633805
275 0.142366
280 0.119881
285 0.117059
290 0.127269
295 0.146442
300 0.128556
305 0.112984
310 0.114364
315 0.101783
320 0.110087
325 0.111234
330 0.111322
335 0.156077
340 0.139573
345 0.202473
350 0.158132
355 0.147535
360 0.154529
365 0.124399
370 0.153997
375 0.161343
380 0.191902
385 0.128443
390 0.131921
395 0.154522
400 0.137807
405 0.141271
410 0.151264
415 0.164444
420 0.223699
425 0.282247
430 0.340065
435 0.533017
440 10.7423
445 181.476
450 262.578
455 63.4199
460 9.92579
465 4.24555
470 3.91284
475 4.23379
480 5.14924
485 5.34612
490 5.29507
495 5.13676
500 5.07582
505 5.17843
510 5.55828
515 6.67784
520 6.46758
525 5.23067
530 4.3611
535 4.00482
540 3.3858
545 3.09744
550 2.74362
555 2.5375
560 2.09857
565 2.00023
570 1.66702
575 1.46416
580 1.11937
585 0.89204
590 0.684341
595 0.561204
600 0.373331
Ex : 458
200 0.11405
205 0.167327
210 0.0980795
215 0.143248
220 0.131597
225 0.173772
230 0.158279
235 0.165176
240 0.181736
245 0.16709
250 0.146236
255 0.135021
260 0.124548
265 0.110923
270 0.113739
275 0.125333
280 0.100185
285 0.128016
290 0.167157
295 0.131706
300 0.0970681
305 0.115487
310 0.117657
315 0.11026
320 0.132511
325 0.145868
330 0.12668
335 0.0989726
340 0.1651
345 0.19788
350 0.198037
355 0.146862
360 0.138738
365 0.176948
370 0.103827
375 0.123788
380 0.120793
385 0.164967
390 0.1036
395 0.158197
400 0.17045
405 0.154407
410 0.170915
415 0.136623
420 0.175139
425 0.176957
430 0.149949
435 0.280821
440 0.526522
445 11.9615
450 184.525
455 273.905
460 66.5752
465 10.0641
470 3.71606
475 3.03527
480 3.33818
485 3.63877
490 3.99153
495 3.83461
500 3.6848
505 3.65179
510 3.39473
515 3.38019
520 4.48111
525 5.05752
530 4.03409
535 3.33092
540 3.00462
545 2.67695
550 2.13818
555 1.99042
560 1.74415
565 1.47469
570 1.23583
575 1.05539
580 0.844722
585 0.671406
590 0.52223
595 0.488229
600 0.636676
Ex : 463
200 0.113543
205 0.145141
210 0.11045
215 0.12526
220 0.170067
225 0.130798
230 0.108995
235 0.133461
240 0.118759
245 0.120321
250 0.145035
255 0.142674
260 0.126362
265 0.0991764
270 0.151643
275 0.110586
280 0.14487
285 0.0997395
290 0.102805
295 0.136148
300 0.124649
305 0.0762653
310 0.146411
315 0.11952
320 0.201047
325 0.140628
330 0.18405
335 0.132736
340 0.164275
345 0.163218
350 0.132887
355 0.148814
360 0.108294
365 0.101609
370 0.145081
375 0.150214
380 0.136088
385 0.11922
390 0.124994
395 0.206962
400 0.162216
405 0.143054
410 0.160081
415 0.170599
420 0.196537
425 0.198144
430 0.131368
435 0.243982
440 0.297632
445 0.486531
450 11.7184
455 187.668
460 286.084
465 69.7869
470 9.87129
475 3.16088
480 2.51121
485 2.4698
490 3.00382
495 2.91249
500 2.74854
505 2.59316
510 2.43882
515 2.578
520 2.64179
525 3.11413
530 4.42506
535 3.71842
540 2.62455
545 2.44709
550 2.14795
555 1.68334
560 1.55404
565 1.33224
570 1.05978
575 0.861362
580 0.728148
585 0.578822
590 0.508447
595 0.431173
600 0.38446
Ex : 468
200 0.118959
205 0.0851985
210 0.134625
215 0.113153
220 0.120157
225 0.164505
230 0.121443
235 0.101736
240 0.131463
245 0.122193
250 0.125666
255 0.122049
260 0.117837
265 0.117693
270 0.0985757
275 0.0948062
280 0.099941
285 0.109749
290 0.105057
295 0.127183
300 0.124351
305 0.120929
310 0.0697822
315 0.109959
320 0.0996142
325 0.0944082
330 0.151242
335 0.144021
340 0.130157
345 0.144419
350 0.138007
355 0.124603
360 0.0616104
365 0.106436
370 0.106651
375 0.137091
380 0.115612
385 0.111741
390 0.154084
395 0.133835
400 0.139923
405 0.143351
410 0.160316
415 0.135608
420 0.144681
425 0.206315
430 0.172954
435 0.202872
440 0.275037
445 0.349332
450 0.480013
455 12.4948
460 189.492
465 295.004
470 71.8365
475 9.70298
480 2.94802
485 1.9317
490 2.02034
495 2.29713
500 2.28467
505 2.01387
510 1.98425
515 1.93065
520 1.91554
525 1.98383
530 2.25212
535 3.36114
540 3.4496
545 2.47314
550 1.92835
555 1.6552
560 1.36854
565 1.17482
570 0.989043
575 0.791629
580 0.654721
585 0.552818
590 0.473724
595 0.367436
600 0.342879
Ex : 473
200 0.138087
205 0.121279
210 0.15335
215 0.116374
220 0.115516
225 0.105787
230 0.149832
235 0.121598
240 0.127151
245 0.121801
250 0.121506
255 0.113906
260 0.165328
265 0.113437
270 0.136408
275 0.13523
280 0.128968
285 0.13999
290 0.120135
295 0.132562
300 0.149707
305 0.148865
310 0.112933
315 0.156129
320 0.0973012
325 0.131649
330 0.116826
335 0.122203
340 0.14944
345 0.121115
350 0.0954275
355 0.118287
360 0.125578
365 0.101746
370 0.122307
375 0.187276
380 0.164062
385 0.182177
390 0.164849
395 0.139078
400 0.139542
405 0.116111
410 0.122462
415 0.12914
420 0.12226
425 0.144679
430 0.12793
435 0.157436
440 0.169289
445 0.20988
450 0.324354
455 0.532583
460 14.5589
465 207.425
470 286.603
475 66.2787
480 8.967
485 2.45769
490 1.81159
495 1.73224
500 1.79632
505 1.93245
510 1.7703
515 1.72855
520 1.73497
525 1.736
530 1.60205
535 1.7083
540 2.77898
545 3.03754
550 2.19824
555 1.73097
560 1.45405
565 1.286
570 0.963534
575 0.769134
580 0.614443
585 0.546448
590 0.429244
595 0.329567
600 0.350129
Ex : 478
200 0.140029
205 0.121618
210 0.110882
215 0.150755
220 0.132957
225 0.175086
230 0.185378
235 0.160453
240 0.133824
245 0.152142
250 0.151473
255 0.131666
260 0.128613
265 0.14441
270 0.116855
275 0.152379
280 0.16606
285 0.147769
290 0.125816
295 0.113313
300 0.151554
305 0.139564
310 0.201721
315 0.192436
320 0.146023
325 0.149363
330 0.182947
335 0.107769
340 0.130947
345 0.166153
350 0.144565
355 0.189786
360 0.160423
365 0.136481
370 0.145571
375 0.117504
380 0.130177
385 0.197832
390 0.142043
395 0.172379
400 0.180201
405 0.226656
410 0.17984
415 0.153249
420 0.186509
425 0.196997
430 0.278892
435 0.318289
440 0.225743
445 0.227222
450 0.20486
455 0.402738
460 0.642953
465 14.9146
470 204.93
475 282.045
480 69.0808
485 9.15064
490 2.21778
495 1.4451
500 1.30615
505 1.62274
510 1.67086
515 1.6377
520 1.58176
525 1.46435
530 1.43588
535 1.45294
540 1.37939
545 2.10859
550 2.71292
555 2.35341
560 1.52542
565 1.40334
570 1.08432
575 0.838385
580 0.57299
585 0.51995
590 0.397577
595 0.358318
600 0.20477
Ex : 483
200 0.161398
205 0.173895
210 0.176869
215 0.163
220 0.137745
225 0.16754
230 0.126794
235 0.15822
240 0.171604
245 0.193219
250 0.148027
255 0.138663
260 0.119757
265 0.168389
270 0.168115
275 0.122251
280 0.124062
285 0.140921
290 0.11427
295 0.105707
300 0.147848
305 0.177107
310 0.140715
315 0.129186
320 0.128221
325 0.179622
330 0.121002
335 0.129374
340 0.147876
345 0.130079
350 0.155083
355 0.149408
360 0.161197
365 0.12924
370 0.123931
375 0.156401
380 0.162378
385 0.142207
390 0.26233
395 0.178909
400 0.123125
405 0.134864
410 0.126886
415 0.212005
420 0.143722
425 0.165779
430 0.140269
435 0.132523
440 0.155521
445 0.192012
450 0.237927
455 0.339849
460 0.378857
465 0.538031
470 11.8129
475 201.188
480 303.963
485 73.6851
490 9.55633
495 2.23407
500 1.31935
505 1.21786
510 1.51133
515 1.50696
520 1.4703
525 1.46405
530 1.31606
535 1.39254
540 1.32556
545 1.26137
550 1.48486
555 2.44842
560 2.3713
565 1.73685
570 1.20133
575 1.00293
580 0.833169
585 0.562974
590 0.426443
595 0.360368
600 0.381856
Ex : 488
200 0.181659
205 0.190581
210 0.165712
215 0.0985263
220 0.130744
225 0.124074
230 0.127055
235 0.168082
240 0.1032
245 0.152056
250 0.169549
255 0.139352
260 0.150949
265 0.139103
270 0.10997
275 0.199261
280 0.143924
285 0.14608
290 0.212496
295 0.205351
300 0.158861
305 0.119307
310 0.150996
315 0.18939
320 0.145258
325 0.149933
330 0.149311
335 0.130162
340 0.1047
345 0.16364
350 0.122086
355 0.1668
360 0.154835
365 0.219918
370 0.122902
375 0.175069
380 0.190986
385 0.198777
390 0.134836
395 0.154303
400 0.159848
405 0.135351
410 0.182865
415 0.182739
420 0.169922
425 0.177631
430 0.137883
435 0.168076
440 0.211565
445 0.183931
450 0.194001
455 0.286772
460 0.322175
465 0.381027
470 0.493299
475 13.7766
480 213.169
485 294.318
490 70.1174
495 8.98389
500 2.07625
505 1.18728
510 1.11807
515 1.35719
520 1.56714
525 1.49401
530 1.33937
535 1.19914
540 1.34773
545 1.12945
550 1.08156
555 1.34161
560 1.88246
565 2.18995
570 1.67163
575 0.965715
580 0.790573
585 0.701631
590 0.469938
595 0.338886
600 0.456004
Ex : 493
200 0.130961
205 0.183805
210 0.162345
215 0.183425
220 0.138805
225 0.172727
230 0.129774
235 0.124713
240 0.135907
245 0.154489
250 0.131665
255 0.122757
260 0.163296
265 0.215147
270 0.193838
275 0.133208
280 0.119734
285 0.168514
290 0.174294
295 0.214188
300 0.191898
305 0.189288
310 0.188862
315 0.174739
320 0.121687
325 0.121927
330 0.23006
335 0.174626
340 0.146147
345 0.148934
350 0.128211
355 0.160896
360 0.179548
365 0.169724
370 0.175616
375 0.170328
380 0.153457
385 0.139955
390 0.200761
395 0.213163
400 0.164436
405 0.130541
410 0.162786
415 0.16655
420 0.200467
425 0.194576
430 0.256378
435 0.200483
440 0.228715
445 0.196354
450 0.210945
455 0.268166
460 0.267895
465 0.250823
470 0.446467
475 0.562743
480 12.4282
485 206.976
490 305.908
495 70.9964
500 9.11157
505 2.0186
510 1.25687
515 1.03744
520 1.2012
525 1.44682
530 1.4652
535 1.4208
540 1.18869
545 1.1199
550 0.964884
555 1.14666
560 1.05333
565 1.23012
570 1.93067
575 1.51538
580 0.904775
585 0.67388
590 0.556311
595 0.512142
600 0.22002
Ex : 498
200 0.138197
205 0.167093
210 0.146268
215 0.134931
220 0.239835
225 0.251339
230 0.215708
235 0.124705
240 0.122722
245 0.212443
250 0.135912
255 0.128664
260 0.18294
265 0.174905
270 0.168901
275 0.236167
280 0.195633
285 0.127156
290 0.128848
295 0.20537
300 0.148651
305 0.178232
310 0.190461
315 0.175999
320 0.194051
325 0.168736
330 0.169424
335 0.159103
340 0.13951
345 0.236488
350 0.208699
355 0.230093
360 0.197947
365 0.153008
370 0.165739
375 0.179475
380 0.16092
385 0.197634
390 0.209611
395 0.167091
400 0.199448
405 0.19271
410 0.16532
415 0.203695
420 0.195847
425 0.234445
430 0.234757
435 0.25668
440 0.226411
445 0.178425
450 0.187918
455 0.208322
460 0.246309
465 0.278491
470 0.292229
475 0.363571
480 0.537063
485 15.0931
490 216.929
495 293.781
500 69.6643
505 8.84751
510 1.86727
515 1.26305
520 1.12056
525 1.21767
530 1.343
535 1.44541
540 1.28346
545 1.11258
550 1.0074
555 0.916982
560 0.952978
565 0.853886
570 0.967829
575 1.32042
580 1.43305
585 0.824768
590 0.570334
595 0.511683
600 0.337493
Ex : 503
200 0.174549
205 0.133632
210 0.189
215 0.201081
220 0.197976
225 0.194049
230 0.160709
235 0.160627
240 0.137657
245 0.242566
250 0.144219
255 0.198913
260 0.125303
265 0.229291
270 0.146895
275 0.141558
280 0.227128
285 0.204319
290 0.167067
295 0.169949
300 0.124797
305 0.171365
310 0.144172
315 0.123497
320 0.143962
325 0.181496
330 0.192393
335 0.143007
340 0.174696
345 0.166113
350 0.203089
355 0.170353
360 0.172019
365 0.123128
370 0.200326
375 0.207105
380 0.195514
385 0.146563
390 0.164552
395 0.163614
400 0.182674
405 0.202988
410 0.181846
415 0.210085
420 0.239626
425 0.192969
430 0.210609
435 0.164895
440 0.142774
445 0.215799
450 0.200093
455 0.234806
460 0.207926
465 0.225447
470 0.267355
475 0.271591
480 0.447564
485 0.559153
490 13.0989
495 227.416
500 326.096
505 74.8242
510 9.58916
515 2.03582
520 1.41457
525 1.20446
530 1.11512
535 1.34852
540 1.22505
545 1.16084
550 1.14635
555 0.978867
560 0.892335
565 0.944712
570 0.852758
575 0.616946
580 0.95101
585 1.13646
590 0.758625
595 0.536293
600 0.785025
Ex : 508
200 0.202585
205 0.207029
210 0.171309
215 0.171956
220 0.176009
225 0.119632
230 0.1622
235 0.138628
240 0.155019
245 0.207842
250 0.213699
255 0.23328
260 0.172841
265 0.193099
270 0.223571
275 0.190214
280 0.176959
285 0.149671
290 0.16542
295 0.121056
300 0.142969
305 0.183099
310 0.172751
315 0.181507
320 0.174649
325 0.202856
330 0.18812
335 0.197454
340 0.225941
345 0.241619
350 0.155527
355 0.133648
360 0.235144
365 0.219032
370 0.183032
375 0.147527
380 0.222634
385 0.175889
390 0.227629
395 0.239716
400 0.178257
405 0.227955
410 0.282771
415 0.265669
420 0.238094
425 0.270325
430 0.247429
435 0.234734
440 0.278341
445 0.158806
450 0.277293
455 0.170785
460 0.225718
465 0.183058
470 0.266934
475 0.250236
480 0.314475
485 0.418197
490 0.4992
495 15.0779
500 219.658
505 300.817
510 72.5293
515 9.28714
520 2.12768
525 1.29633
530 1.26644
535 1.13249
540 1.09883
545 1.31991
550 1.23267
555 1.01951
560 0.950628
565 0.829822
570 0.742127
575 0.590643
580 0.564824
585 0.65713
590 0.824136
595 0.801919
600 0.271778
Ex : 513
200 0.167516
205 0.183051
210 0.131228
215 0.16819
220 0.227134
225 0.185542
230 0.19799
235 0.23284
240 0.241042
245 0.198204
250 0.196491
255 0.151761
260 0.158206
265 0.172386
270 0.206432
275 0.209901
280 0.209747
285 0.14186
290 0.136437
295 0.148984
300 0.139343
305 0.231671
310 0.231199
315 0.198736
320 0.269832
325 0.223729
330 0.188205
335 0.136303
340 0.256194
345 0.249596
350 0.221806
355 0.251998
360 0.176191
365 0.243923
370 0.13339
375 0.148125
380 0.189604
385 0.174874
390 0.251982
395 0.224199
400 0.223042
405 0.174781
410 0.150095
415 0.089126
420 0.151295
425 0.137678
430 0.176703
435 0.172675
440 0.174478
445 0.247198
450 0.220924
455 0.206682
460 0.279584
465 0.232304
470 0.343254
475 0.270218
480 0.27319
485 0.355405
490 0.428069
495 0.54305
500 12.926
505 208.153
510 303.119
515 74.3969
520 9.64981
525 2.13296
530 1.33119
535 1.09065
540 0.972764
545 1.29548
550 1.25372
555 1.00987
560 0.937967
565 0.760123
570 0.705538
575 0.599608
580 0.54926
585 0.624714
590 0.463464
595 0.670616
600 1.27058
Ex : 518
200 0.241028
205 0.185845
210 0.255285
215 0.1938
220 0.217463
225 0.189169
230 0.18025
235 0.177941
240 0.219354
245 0.167124
250 0.224168
255 0.162743
260 0.229014
265 0.182786
270 0.219606
275 0.178278
280 0.244176
285 0.172445
290 0.211157
295 0.192318
300 0.202354
305 0.183223
310 0.247672
315 0.304276
320 0.170052
325 0.211011
330 0.231828
335 0.207671
340 0.245416
345 0.205314
350 0.215498
355 0.199001
360 0.30839
365 0.213061
370 0.157629
375 0.203006
380 0.217202
385 0.193066
390 0.162224
395 0.247004
400 0.176801
405 0.160357
410 0.160036
415 0.195849
420 0.162658
425 0.153951
430 0.179316
435 0.217444
440 0.234036
445 0.356981
450 0.24151
455 0.300561
460 0.215201
465 0.205109
470 0.356331
475 0.253534
480 0.36554
485 0.293136
490 0.3325
495 0.365075
500 0.645
505 13.7903
510 202.429
515 295.04
520 73.0673
525 9.47488
530 2.04624
535 1.14496
540 1.02846
545 0.908833
550 1.02309
555 1.07608
560 1.00111
565 0.837125
570 0.738202
575 0.641317
580 0.515719
585 0.49222
590 0.395036
595 0.369027
600 0.863353
Ex : 523
200 0.165152
205 0.261241
210 0.18429
215 0.223259
220 0.245246
225 0.212257
230 0.17316
235 0.184982
240 0.173803
245 0.171987
250 0.191029
255 0.20434
260 0.23984
265 0.252722
270 0.216219
275 0.213223
280 0.205591
285 0.19592
290 0.224274
295 0.16896
300 0.220539
305 0.164629
310 0.213548
315 0.201563
320 0.23493
325 0.23606
330 0.167167
335 0.182223
340 0.251957
345 0.206969
350 0.181281
355 0.222451
360 0.197972
365 0.224528
370 0.281891
375 0.180672
380 0.235013
385 0.179778
390 0.132576
395 0.219116
400 0.216349
405 0.195064
410 0.23572
415 0.195426
420 0.276022
425 0.232767
430 0.236676
435 0.208406
440 0.20317
445 0.209911
450 0.249173
455 0.216827
460 0.218228
465 0.317376
470 0.261566
475 0.289014
480 0.22393
485 0.311323
490 0.352266
495 0.30167
500 0.465312
505 0.595973
510 12.3243
515 195.818
520 292.7
525 75.4738
530 9.66643
535 2.05488
540 1.19043
545 1.067
550 0.966286
555 0.924303
560 1.09412
565 1.08732
570 0.86997
575 0.616157
580 0.497376
585 0.550452
590 0.522276
595 0.348797
600 0.209771
Ex : 528
200 0.286914
205 0.236008
210 0.221036
215 0.19844
220 0.221185
225 0.222153
230 0.214991
235 0.113596
240 0.162923
245 0.157382
250 0.20101
255 0.232018
260 0.214033
265 0.222148
270 0.155369
275 0.236875
280 0.215474
285 0.221528
290 0.228949
295 0.19063
300 0.160723
305 0.224472
310 0.241813
315 0.234655
320 0.177286
325 0.220374
330 0.20203
335 0.252829
340 0.262307
345 0.262159
350 0.223337
355 0.138257
360 0.262352
365 0.16504
370 0.254172
375 0.201831
380 0.179213
385 0.256656
390 0.218583
395 0.15955
400 0.205125
405 0.250568
410 0.175479
415 0.15589
420 0.298019
425 0.263087
430 0.209074
435 0.289664
440 0.283541
445 0.205994
450 0.24076
455 0.231932
460 0.245486
465 0.260751
470 0.261391
475 0.277174
480 0.220147
485 0.210421
490 0.242764
495 0.230792
500 0.218848
505 0.480391
510 0.600789
515 11.0117
520 184.868
525 285.731
530 73.3662
535 9.25787
540 1.91848
545 1.19137
550 0.930051
555 0.906817
560 0.944023
565 0.748454
570 0.768849
575 0.734567
580 0.622841
585 0.43616
590 0.388622
595 0.371012
600 0.0422198
Ex : 533
200 0.209169
205 0.197051
210 0.200122
215 0.144815
220 0.202219
225 0.191389
230 0.186233
235 0.256467
240 0.220667
245 0.248124
250 0.175594
255 0.137611
260 0.21112
265 0.127218
270 0.21197
275 0.201613
280 0.160256
285 0.184679
290 0.188849
295 0.225885
300 0.203906
305 0.204597
310 0.17606
315 0.280844
320 0.207552
325 0.168342
330 0.188446
335 0.173209
340 0.159625
345 0.192018
350 0.149499
355 0.206604
360 0.229496
365 0.160569
370 0.168635
375 0.169295
380 0.301125
385 0.201193
390 0.279586
395 0.269433
400 0.207649
405 0.319373
410 0.292586
415 0.222805
420 0.223332
425 0.220976
430 0.176589
435 0.292005
440 0.265852
445 0.259857
450 0.2992
455 0.318686
460 0.249337
465 0.16416
470 0.217869
475 0.263747
480 0.259293
485 0.250147
490 0.286489
495 0.315899
500 0.27733
505 0.307173
510 0.554253
515 0.485493
520 11.1554
525 182.456
530 280.763
535 73.2241
540 9.40116
545 1.94088
550 1.10331
555 0.841073
560 0.86123
565 0.751942
570 0.770486
575 0.690029
580 0.466237
585 0.49364
590 0.462708
595 0.326201
600 0.380167
Ex : 538
200 0.27991
205 0.23258
210 0.22499
215 0.216168
220 0.28128
225 0.174674
230 0.183322
235 0.215265
240 0.213616
245 0.173263
250 0.157618
255 0.159001
260 0.157108
265 0.238665
270 0.241156
275 0.212908
280 0.204599
285 0.213435
290 0.194337
295 0.192895
300 0.135106
305 0.156442
310 0.168611
315 0.239453
320 0.240856
325 0.168169
330 0.242057
335 0.23822
340 0.252867
345 0.2235
350 0.203309
355 0.317004
360 0.286353
365 0.250716
370 0.269129
375 0.220686
380 0.206063
385 0.250587
390 0.212204
395 0.179375
400 0.200823
405 0.165496
410 0.255721
415 0.251744
420 0.17729
425 0.245481
430 0.237944
435 0.196916
440 0.240233
445 0.209864
450 0.197257
455 0.208458
460 0.250197
465 0.227044
470 0.31018
475 0.25767
480 0.222786
485 0.278806
490 0.248614
495 0.224465
500 0.260438
505 0.278626
510 0.333042
515 0.323953
520 0.491219
525 10.0635
530 176.502
535 285.224
540 77.0311
545 9.80951
550 1.79912
555 0.941786
560 0.820498
565 0.698493
570 0.5927
575 0.676955
580 0.560622
585 0.544451
590 0.392349
595 0.327216
600 0.0372359
Ex : 543
200 0.31442
205 0.28984
210 0.185103
215 0.265513
220 0.226598
225 0.282732
230 0.240671
235 0.198422
240 0.329027
245 0.295948
250 0.174234
255 0.163043
260 0.164771
265 0.25429
270 0.256479
275 0.297125
280 0.296034
285 0.217385
290 0.316281
295 0.16057
300 0.243909
305 0.270921
310 0.215681
315 0.10603
320 0.292328
325 0.151281
330 0.176965
335 0.281502
340 0.246762
345 0.325095
350 0.261056
355 0.254452
360 0.272932
365 0.282798
370 0.23161
375 0.335553
380 0.242277
385 0.202916
390 0.224026
395 0.22102
400 0.294013
405 0.203479
410 0.287992
415 0.25369
420 0.253009
425 0.256209
430 0.18192
435 0.299003
440 0.248202
445 0.216665
450 0.272145
455 0.197684
460 0.249567
465 0.320017
470 0.229516
475 0.240458
480 0.26483
485 0.21978
490 0.251124
495 0.408241
500 0.194679
505 0.293717
510 0.236326
515 0.351319
520 0.420502
525 0.501864
530 8.47478
535 166.001
540 282.403
545 78.4926
550 9.85921
555 1.84956
560 0.954527
565 0.721906
570 0.594046
575 0.574209
580 0.544183
585 0.557742
590 0.490759
595 0.386081
600 0.337676
Ex : 548
200 0.23156
205 0.170274
210 0.241394
215 0.182062
220 0.164776
225 0.217162
230 0.29435
235 0.169203
240 0.235032
245 0.175703
250 0.133744
255 0.212816
260 0.256767
265 0.296422
270 0.221658
275 0.232173
280 0.241017
285 0.132181
290 0.171584
295 0.236026
300 0.13039
305 0.221379
310 0.218473
315 0.222731
320 0.277058
325 0.230728
330 0.195366
335 0.184547
340 0.217411
345 0.195767
350 0.154787
355 0.273932
360 0.201141
365 0.329738
370 0.29012
375 0.212463
380 0.229564
385 0.312437
390 0.242919
395 0.206125
400 0.268236
405 0.399569
410 0.330771
415 0.333826
420 0.27959
425 0.271106
430 0.20243
435 0.266834
440 0.269385
445 0.209009
450 0.302643
455 0.250811
460 0.241615
465 0.17944
470 0.220286
475 0.186083
480 0.277865
485 0.288039
490 0.258503
495 0.246822
500 0.261754
505 0.237899
510 0.309632
515 0.319724
520 0.340466
525 0.339148
530 0.651581
535 9.97731
540 167.254
545 269.822
550 75.5928
555 9.42591
560 1.80699
565 0.841168
570 0.817253
575 0.49173
580 0.416043
585 0.395226
590 0.368429
595 0.395515
600 0.164205
Ex : 553
200 0.268368
205 0.131754
210 0.230157
215 0.329805
220 0.178953
225 0.261894
230 0.231143
235 0.192411
240 0.202504
245 0.250459
250 0.270921
255 0.271059
260 0.264636
265 0.187074
270 0.1661
275 0.224871
280 0.223203
285 0.188946
290 0.221076
295 0.185718
300 0.176853
305 0.189601
310 0.198563
315 0.274712
320 0.223393
325 0.196477
330 0.174998
335 0.211104
340 0.216809
345 0.18409
350 0.20608
355 0.238088
360 0.203595
365 0.254385
370 0.2837
375 0.204329
380 0.232707
385 0.215497
390 0.224592
395 0.201195
400 0.21125
405 0.244888
410 0.302247
415 0.241936
420 0.26641
425 0.24014
430 0.223908
435 0.1967
440 0.255001
445 0.181398
450 0.197217
455 0.218839
460 0.297023
465 0.262408
470 0.315573
475 0.436545
480 0.299612
485 0.206712
490 0.277593
495 0.291171
500 0.254399
505 0.261906
510 0.261684
515 0.292808
520 0.369071
525 0.352894
530 0.474092
535 0.402727
540 8.43068
545 156.232
550 265.517
555 76.4848
560 9.65689
565 1.65546
570 0.838522
575 0.582203
580 0.450576
585 0.473063
590 0.455432
595 0.452822
600 0.0515294
Ex : 558
200 0.173498
205 0.312732
210 0.243998
215 0.214639
220 0.226982
225 0.371399
230 0.249984
235 0.346032
240 0.256436
245 0.306925
250 0.208736
255 0.138666
260 0.22965
265 0.382143
270 0.232531
275 0.191208
280 0.181299
285 0.292325
290 0.214513
295 0.302358
300 0.197225
305 0.16498
310 0.294526
315 0.280277
320 0.295884
325 0.232027
330 0.205544
335 0.222806
340 0.229357
345 0.228548
350 0.231562
355 0.197632
360 0.232991
365 0.288057
370 0.258636
375 0.193602
380 0.301871
385 0.288418
390 0.298933
395 0.26375
400 0.228616
405 0.27222
410 0.296483
415 0.30185
420 0.277595
425 0.250837
430 0.309404
435 0.270617
440 0.25557
445 0.341598
450 0.281335
455 0.203074
460 0.345568
465 0.280515
470 0.309412
475 0.228409
480 0.268728
485 0.283875
490 0.216061
495 0.291395
500 0.215401
505 0.295643
510 0.338909
515 0.248772
520 0.464827
525 0.382466
530 0.444316
535 0.383853
540 0.610751
545 8.16106
550 151.46
555 259.569
560 74.5436
565 9.38278
570 1.65988
575 0.690974
580 0.582723
585 0.440718
590 0.611721
595 0.406007
600 0.361538
Ex : 563
200 0.216902
205 0.254257
210 0.243252
215 0.36033
220 0.173806
225 0.223214
230 0.326808
235 0.167598
240 0.233839
245 0.224566
250 0.225035
255 0.251942
260 0.20393
265 0.220565
270 0.237794
275 0.337069
280 0.288036
285 0.212222
290 0.243031
295 0.262644
300 0.199899
305 0.279037
310 0.236607
315 0.255373
320 0.205977
325 0.232078
330 0.230971
335 0.244437
340 0.247065
345 0.226864
350 0.243087
355 0.269342
360 0.29359
365 0.298645
370 0.297451
375 0.266267
380 0.283287
385 0.262915
390 0.298457
395 0.270339
400 0.361357
405 0.217625
410 0.203444
415 0.253332
420 0.308047
425 0.262467
430 0.258534
435 0.184992
440 0.222196
445 0.283388
450 0.308941
455 0.373688
460 0.264959
465 0.321476
470 0.1911
475 0.275277
480 0.263267
485 0.28012
490 0.368224
495 0.329485
500 0.255758
505 0.305068
510 0.381296
515 0.329048
520 0.341456
525 0.298891
530 0.377204
535 0.382226
540 0.467202
545 0.418249
550 8.0704
555 145.668
560 251.261
565 72.1884
570 8.89599
575 1.56142
580 0.713906
585 0.545783
590 0.432897
595 0.331667
600 0.169244
Ex : 568
200 0.247379
205 0.285877
210 0.298463
215 0.257787
220 0.268379
225 0.256076
230 0.221351
235 0.318215
240 0.208141
245 0.268761
250 0.179192
255 0.211251
260 0.232189
265 0.290537
270 0.250269
275 0.22435
280 0.223191
285 0.214287
290 0.237408
295 0.359605
300 0.261737
305 0.30582
310 0.264718
315 0.243155
320 0.205414
325 0.235008
330 0.297653
335 0.296844
340 0.248532
345 0.258492
350 0.243076
355 0.226636
360 0.217247
365 0.172213
370 0.397482
375 0.315409
380 0.263507
385 0.25464
390 0.197031
395 0.263628
400 0.317054
405 0.230619
410 0.288146
415 0.328797
420 0.194044
425 0.258384
430 0.283831
435 0.230482
440 0.243292
445 0.261361
450 0.252791
455 0.368604
460 0.276867
465 0.328396
470 0.26709
475 0.234055
480 0.211027
485 0.205213
490 0.294121
495 0.240003
500 0.231252
505 0.355134
510 0.287218
515 0.203103
520 0.272004
525 0.395959
530 0.324831
535 0.328859
540 0.434062
545 0.499217
550 0.525704
555 6.12625
560 129.014
565 245.367
570 73.479
575 9.05377
580 1.40583
585 0.603918
590 0.396781
595 0.418195
600 0.305821
Ex : 573
200 0.267279
205 0.230637
210 0.280375
215 0.293919
220 0.226162
225 0.204275
230 0.154831
235 0.272606
240 0.224834
245 0.262597
250 0.32701
255 0.180493
260 0.294491
265 0.212524
270 0.240533
275 0.167321
280 0.258419
285 0.317808
290 0.295935
295 0.250568
300 0.231178
305 0.450194
310 0.231407
315 0.248496
320 0.288884
325 0.275325
330 0.202107
335 0.324389
340 0.194735
345 0.226602
350 0.216663
355 0.243647
360 0.267989
365 0.214961
370 0.222374
375 0.287558
380 0.285555
385 0.367998
390 0.283176
395 0.443846
400 0.243714
405 0.267867
410 0.254055
415 0.253631
420 0.370294
425 0.262785
430 0.293073
435 0.325312
440 0.294729
445 0.203458
450 0.237986
455 0.255896
460 0.344507
465 0.370145
470 0.266817
475 0.364676
480 0.268427
485 0.282694
490 0.347206
495 0.178944
500 0.197145
505 0.357598
510 0.267836
515 0.267988
520 0.346824
525 0.403027
530 0.287213
535 0.369903
540 0.316319
545 0.215076
550 0.556341
555 0.512112
560 5.08424
565 113.648
570 220.473
575 68.9483
580 8.55367
585 1.32651
590 0.514799
595 0.346505
600 0.428642
Ex : 578
200 0.425476
205 0.233056
210 0.246073
215 0.317759
220 0.283033
225 0.263676
230 0.25137
235 0.258552
240 0.223044
245 0.241341
250 0.237749
255 0.265825
260 0.368105
265 0.319545
270 0.380417
275 0.23467
280 0.394155
285 0.233429
290 0.234778
295 0.23842
300 0.230084
305 0.275841
310 0.329309
315 0.341256
320 0.230593
325 0.156115
330 0.365906
335 0.238871
340 0.260495
345 0.290829
350 0.312972
355 0.289938
360 0.325875
365 0.258857
370 0.2569
375 0.308544
380 0.255069
385 0.273797
390 0.334111
395 0.309229
400 0.309536
405 0.272087
410 0.31105
415 0.399999
420 0.340525
425 0.344867
430 0.215061
435 0.330654
440 0.181945
445 0.256435
450 0.248035
455 0.274164
460 0.378712
465 0.424588
470 0.256583
475 0.21299
480 0.321751
485 0.333938
490 0.234214
495 0.324275
500 0.249904
505 0.244181
510 0.410201
515 0.259505
520 0.250638
525 0.366489
530 0.22259
535 0.377535
540 0.4499
545 0.286352
550 0.366843
555 0.348582
560 0.462772
565 4.77418
570 102.477
575 202.614
580 61.66
585 7.57667
590 1.2119
595 0.456848
600 0.126354
Ex : 583
200 0.250128
205 0.335525
210 0.224894
215 0.293729
220 0.215593
225 0.217042
230 0.273804
235 0.280213
240 0.271939
245 0.226593
250 0.222416
255 0.235914
260 0.298273
265 0.182123
270 0.333467
275 0.244733
280 0.328196
285 0.280807
290 0.297302
295 0.213804
300 0.259448
305 0.207792
310 0.200857
315 0.144809
320 0.305237
325 0.228725
330 0.19597
335 0.229671
340 0.185801
345 0.230091
350 0.360463
355 0.311092
360 0.304435
365 0.233729
370 0.32347
375 0.2305
380 0.27492
385 0.275196
390 0.248644
395 0.288693
400 0.277872
405 0.290141
410 0.274102
415 0.302386
420 0.277831
425 0.275102
430 0.360323
435 0.269932
440 0.26945
445 0.297952
450 0.250008
455 0.19171
460 0.308319
465 0.349881
470 0.264775
475 0.242874
480 0.315822
485 0.373642
490 0.376793
495 0.291203
500 0.234775
505 0.33567
510 0.326733
515 0.409171
520 0.289262
525 0.342868
530 0.429791
535 0.317354
540 0.329594
545 0.252725
550 0.24894
555 0.330028
560 0.45704
565 0.483107
570 3.74727
575 91.5853
580 170.99
585 49.25
590 6.31812
595 0.988587
600 0.269626
Ex : 588
200 0.218695
205 0.216087
210 0.230041
215 0.288228
220 0.353542
225 0.226074
230 0.191061
235 0.171635
240 0.255476
245 0.296357
250 0.190789
255 0.233018
260 0.185506
265 0.263144
270 0.216101
275 0.266483
280 0.224677
285 0.265958
290 0.271571
295 0.23955
300 0.169571
305 0.257496
310 0.29677
315 0.341022
320 0.318076
325 0.470834
330 0.28437
335 0.213872
340 0.264547
345 0.183169
350 0.276907
355 0.308742
360 0.251622
365 0.266884
370 0.276996
375 0.266114
380 0.236219
385 0.307731
390 0.310335
395 0.210701
400 0.285326
405 0.236387
410 0.481432
415 0.353223
420 0.379261
425 0.28063
430 0.306866
435 0.295872
440 0.258112
445 0.237844
450 0.190904
455 0.214833
460 0.395361
465 0.339551
470 0.263247
475 0.254332
480 0.334643
485 0.309754
490 0.253849
495 0.258447
500 0.386021
505 0.312036
510 0.230606
515 0.229085
520 0.284826
525 0.261343
530 0.310727
535 0.240513
540 0.257937
545 0.331909
550 0.260533
555 0.394629
560 0.393276
565 0.373762
570 0.638173
575 3.17316
580 73.4908
585 144.224
590 43.7488
595 5.47417
600 0.994363
Ex : 593
200 0.224075
205 0.190987
210 0.246262
215 0.294571
220 0.247263
225 0.407309
230 0.345938
235 0.207027
240 0.151989
245 0.235252
250 0.37426
255 0.220256
260 0.201027
265 0.156633
270 0.224671
275 0.337028
280 0.366259
285 0.352441
290 0.247339
295 0.312326
300 0.337552
305 0.318439
310 0.222875
315 0.284847
320 0.248316
325 0.386003
330 0.211916
335 0.241098
340 0.277219
345 0.214741
350 0.162207
355 0.220331
360 0.291717
365 0.266486
370 0.244684
375 0.275335
380 0.250508
385 0.305965
390 0.319914
395 0.261491
400 0.239453
405 0.24457
410 0.335436
415 0.272992
420 0.196309
425 0.300598
430 0.314182
435 0.430333
440 0.223478
445 0.240563
450 0.26819
455 0.245322
460 0.288815
465 0.289637
470 0.300212
475 0.251259
480 0.241046
485 0.363391
490 0.383158
495 0.290778
500 0.213003
505 0.27058
510 0.306075
515 0.292623
520 0.280918
525 0.43128
530 0.405318
535 0.490131
540 0.33689
545 0.280416
550 0.357203
555 0.325423
560 0.312209
565 0.347465
570 0.328235
575 0.388179
580 2.90853
585 65.2409
590 125.485
595 38.1769
600 5.6906
Ex : 598
200 0.362781
205 0.341784
210 0.289406
215 0.294594
220 0.203617
225 0.153987
230 0.247524
235 0.200322
240 0.197646
245 0.340963
250 0.257135
255 0.338522
260 0.328303
265 0.255357
270 0.304064
275 0.240284
280 0.408839
285 0.368983
290 0.311503
295 0.387195
300 0.255856
305 0.308987
310 0.307049
315 0.293202
320 0.246581
325 0.304848
330 0.318961
335 0.299476
340 0.344473
345 0.386912
350 0.37614
355 0.282369
360 0.290687
365 0.226248
370 0.181356
375 0.322005
380 0.27594
385 0.233735
390 0.245996
395 0.325904
400 0.263897
405 0.287476
410 0.433073
415 0.295697
420 0.247252
425 0.390643
430 0.339104
435 0.36318
440 0.213304
445 0.305018
450 0.325741
455 0.23142
460 0.368095
465 0.360383
470 0.250298
475 0.238437
480 0.207729
485 0.271893
490 0.26813
495 0.384822
500 0.251854
505 0.289056
510 0.300472
515 0.235868
520 0.327822
525 0.327595
530 0.35257
535 0.25735
540 0.360103
545 0.453646
550 0.366364
555 0.510908
560 0.333901
565 0.378288
570 0.313818
575 0.424998
580 0.417558
585 2.95884
590 58.1033
595 108.294
600 70.6073
Ex : 603
200 0.461813
205 0.320812
210 0.23472
215 0.277647
220 0.315373
225 0.19501
230 0.280556
235 0.331138
240 0.387136
245 0.278291
250 0.27153
255 0.284995
260 0.418986
265 0.367054
270 0.191654
275 0.272189
280 0.320117
285 0.367034
290 0.291914
295 0.438172
300 0.298213
305 0.302331
310 0.270821
315 0.413219
320 0.383341
325 0.273077
330 0.280961
335 0.210829
340 0.265343
345 0.333136
350 0.24392
355 0.371788
360 0.329658
365 0.270281
370 0.245308
375 0.193989
380 0.305267
385 0.406389
390 0.392134
395 0.326113
400 0.339821
405 0.291795
410 0.307989
415 0.245638
420 0.287631
425 0.165394
430 0.268772
435 0.332024
440 0.42319
445 0.300796
450 0.35105
455 0.442947
460 0.316821
465 0.284618
470 0.336976
475 0.33177
480 0.378822
485 0.299632
490 0.261342
495 0.269649
500 0.257472
505 0.388159
510 0.399761
515 0.266097
520 0.30427
525 0.277327
530 0.339975
535 0.409707
540 0.337873
545 0.372432
550 0.390776
555 0.270574
560 0.325182
565 0.403316
570 0.283157
575 0.422538
580 0.294609
585 0.295358
590 2.50984
595 50.0387
600 109.136
