File format V 1.0
ven. 13. janv. 13:30:00 2017
Operator : 
Comments : 

=============================================
SpectroFluorometer parameters
Mode : 3D measurement
Data : Fluorescence
Phospho. : Ordinary
Spectrum : Fluorescence

Scan speed : 2400 nm/mn
Response : 100 ms
PM Voltage : 700 V
Shutter : On

Lambda Ex. Start : 203
Lambda Ex. End : 603
Lambda Ex. Step : 5
Ex. Slit : 5 nm

Lambda Em. Start : 200
Lambda Em. End : 600
Lambda Em. Step : 5
Em. Slit : 5 nm

Repetition : 1
Decal lambda em : 10
=============================================
DATA
Ex : 203
200 4.76786
205 4.6796
210 6.34976
215 4.62187
220 6.09148
225 4.34226
230 7.00562
235 4.70645
240 5.29514
245 5.01671
250 5.57253
255 5.81209
260 4.01061
265 6.19115
270 6.59937
275 4.78139
280 4.61818
285 5.38863
290 5.51289
295 6.48566
300 5.36553
305 4.15121
310 8.02056
315 5.47381
320 4.07487
325 4.79392
330 5.54655
335 3.73913
340 4.39032
345 6.1027
350 8.5999
355 6.87435
360 6.03336
365 6.8001
370 7.48484
375 4.99165
380 6.36461
385 6.88658
390 4.75304
395 4.7302
400 4.46174
405 4.38696
410 5.26667
415 6.60056
420 7.54945
425 6.92326
430 6.43684
435 4.864
440 5.02633
445 4.60137
450 4.96754
455 7.19739
460 5.66166
465 7.66216
470 7.35086
475 6.41461
480 6.26654
485 9.14688
490 6.09893
495 6.04942
500 7.01566
505 6.44847
510 3.43673
515 5.53636
520 6.59297
525 5.66236
530 5.31746
535 7.57878
540 8.19336
545 4.8177
550 6.44041
555 8.25927
560 7.50119
565 8.67234
570 3.56419
575 6.52084
580 5.44698
585 4.95758
590 5.09274
595 6.41199
600 0.72966
Ex : 208
200 4.55399
205 6.37946
210 6.98531
215 4.59714
220 7.14334
225 5.82481
230 4.89509
235 3.39702
240 6.63849
245 5.03251
250 6.0165
255 7.16585
260 7.68998
265 6.1005
270 4.73916
275 6.4487
280 5.28062
285 6.13863
290 5.027
295 4.4918
300 6.31254
305 6.04417
310 4.54387
315 4.35061
320 3.83539
325 5.58613
330 6.17234
335 4.41809
340 4.5074
345 4.59281
350 5.93097
355 5.19156
360 6.86238
365 5.87862
370 5.95166
375 6.01213
380 5.48478
385 5.72834
390 6.47855
395 7.60016
400 5.58422
405 6.91633
410 9.4986
415 7.3544
420 9.10674
425 5.69509
430 6.58523
435 8.23801
440 4.74934
445 5.48547
450 4.4068
455 5.3819
460 5.05186
465 9.68949
470 8.9392
475 7.1525
480 5.81587
485 5.83478
490 7.46653
495 6.28123
500 4.95808
505 6.89308
510 7.31863
515 6.45776
520 6.04777
525 6.58471
530 6.22121
535 6.84195
540 5.19289
545 4.90149
550 5.16256
555 7.57485
560 7.44287
565 5.65244
570 5.10987
575 5.07744
580 4.06179
585 3.34335
590 4.6617
595 4.26679
600 0.485544
Ex : 213
200 5.30476
205 6.93615
210 4.33815
215 4.72115
220 5.39192
225 6.77368
230 9.17546
235 6.13777
240 4.67832
245 6.9164
250 5.89079
255 5.24771
260 4.63842
265 5.63992
270 5.07282
275 5.45139
280 3.96646
285 4.27836
290 5.16309
295 7.31702
300 7.05389
305 3.31432
310 6.55608
315 3.972
320 7.49772
325 5.51335
330 7.91115
335 7.0528
340 3.67469
345 6.75288
350 5.86313
355 5.21638
360 4.04041
365 8.43562
370 5.83207
375 7.51783
380 5.25276
385 9.77686
390 5.30366
395 7.12377
400 7.23771
405 6.31237
410 5.76476
415 4.58177
420 5.55224
425 5.65941
430 5.02884
435 6.51234
440 5.00543
445 7.72334
450 6.52023
455 6.77416
460 6.5419
465 6.82607
470 6.67532
475 8.54432
480 6.86458
485 7.11357
490 6.25332
495 5.13858
500 7.2333
505 4.94738
510 7.08233
515 9.62695
520 6.35759
525 7.78269
530 7.54257
535 7.44687
540 6.20123
545 4.66405
550 7.07789
555 5.64547
560 6.18121
565 6.25694
570 4.72266
575 6.9959
580 5.74636
585 7.42246
590 7.07627
595 8.31266
600 0.94595
Ex : 218
200 5.75799
205 6.44028
210 6.2191
215 7.34529
220 6.20974
225 3.79593
230 5.3979
235 6.19263
240 6.88807
245 6.3286
250 5.89945
255 5.54139
260 6.86196
265 5.40928
270 5.07202
275 4.36259
280 4.57633
285 6.34882
290 6.75768
295 6.11442
300 3.85513
305 6.80325
310 5.47665
315 5.09604
320 4.52718
325 6.59477
330 5.68326
335 7.21974
340 7.51263
345 6.83993
350 5.50617
355 5.12696
360 5.59048
365 6.03114
370 6.40902
375 4.49173
380 3.92879
385 4.16108
390 5.89674
395 5.92917
400 4.66053
405 5.25406
410 5.97499
415 6.51938
420 10.9313
425 6.55707
430 6.82182
435 7.9931
440 4.59603
445 4.9864
450 7.63333
455 5.21188
460 5.94254
465 8.39167
470 7.20639
475 6.40646
480 8.14129
485 5.28899
490 7.42047
495 5.5502
500 8.07487
505 6.96593
510 4.27364
515 4.30736
520 6.43175
525 5.76205
530 6.66593
535 5.94672
540 5.52021
545 4.63221
550 6.02798
555 4.7996
560 4.87827
565 6.34007
570 4.39578
575 6.14416
580 7.60648
585 7.20696
590 5.00317
595 6.23369
600 3.0135
Ex : 223
200 4.38696
205 4.27287
210 5.37647
215 3.64003
220 8.27464
225 7.17757
230 6.09496
235 7.07911
240 6.62805
245 5.64228
250 6.43482
255 4.93175
260 4.87434
265 3.6703
270 7.36758
275 6.74381
280 8.1967
285 5.61466
290 6.14354
295 7.48086
300 4.59392
305 6.26104
310 3.86933
315 5.23869
320 7.51607
325 6.73079
330 5.65916
335 5.53202
340 5.77853
345 8.56589
350 6.13052
355 5.45346
360 6.58302
365 10.3121
370 5.25704
375 4.27877
380 6.34637
385 6.98028
390 5.18648
395 7.56959
400 6.19541
405 5.27831
410 6.37109
415 5.7495
420 6.78953
425 6.79395
430 3.60659
435 7.6652
440 5.33508
445 4.30277
450 9.58883
455 10.3586
460 6.36059
465 7.39239
470 4.85062
475 6.0046
480 6.63941
485 8.20894
490 7.41885
495 4.40554
500 5.36004
505 4.10792
510 7.04214
515 5.68965
520 5.82597
525 5.75552
530 6.97627
535 5.21313
540 5.01623
545 6.10761
550 4.25581
555 5.90484
560 7.53348
565 4.17277
570 9.49187
575 4.36106
580 3.71394
585 5.5508
590 4.74922
595 5.55669
600 18.6518
Ex : 228
200 5.49356
205 9.18279
210 4.69381
215 6.19797
220 5.27705
225 4.55463
230 5.27052
235 3.23952
240 3.03109
245 3.66013
250 5.07672
255 4.8278
260 5.31694
265 5.70823
270 5.50123
275 4.7427
280 5.94554
285 4.38355
290 6.03202
295 5.79125
300 5.89985
305 5.25739
310 6.05941
315 6.62866
320 5.13344
325 4.70444
330 7.41213
335 8.7714
340 4.89745
345 3.66483
350 4.80474
355 4.80132
360 7.16937
365 7.72824
370 6.38081
375 5.44515
380 4.55874
385 4.72917
390 6.18965
395 7.43472
400 5.2387
405 5.97066
410 6.43391
415 4.83988
420 6.42339
425 6.2916
430 4.44909
435 6.75616
440 6.12475
445 4.92289
450 5.42706
455 4.43276
460 5.27396
465 4.87388
470 4.42695
475 4.19023
480 4.39439
485 6.31415
490 5.87395
495 7.29003
500 5.9688
505 5.73844
510 4.04422
515 4.13443
520 7.72305
525 6.32268
530 5.95251
535 6.67802
540 6.22547
545 6.21672
550 9.0207
555 4.44963
560 5.18661
565 4.73113
570 5.292
575 4.75652
580 5.78144
585 4.49186
590 5.90931
595 5.34622
600 2.97159
Ex : 233
200 9.27692
205 3.84947
210 5.16206
215 8.45054
220 8.5943
225 3.79057
230 4.60237
235 9.38577
240 5.65462
245 4.11813
250 5.66027
255 3.47118
260 4.52574
265 4.50868
270 6.60973
275 4.42515
280 4.31531
285 5.9084
290 4.93064
295 5.79357
300 3.52067
305 3.36686
310 3.72025
315 4.63282
320 5.84055
325 3.63247
330 2.60083
335 4.52573
340 4.88411
345 5.31648
350 4.89086
355 5.12616
360 6.3741
365 6.97689
370 5.49961
375 5.72151
380 6.10106
385 7.15244
390 5.51417
395 5.82437
400 4.63129
405 4.14349
410 5.81865
415 6.93345
420 4.247
425 5.44603
430 7.77162
435 4.98635
440 4.56821
445 4.32299
450 4.68616
455 4.80477
460 5.20474
465 3.66836
470 5.21646
475 5.69899
480 6.29318
485 8.52082
490 6.23601
495 7.05889
500 5.10769
505 4.12974
510 5.8947
515 6.69483
520 5.31339
525 5.64377
530 3.54384
535 4.33831
540 6.10873
545 8.66347
550 6.04011
555 6.10426
560 4.50272
565 3.93833
570 4.88307
575 5.11853
580 6.26088
585 5.98698
590 4.30473
595 5.93419
600 4.3678
Ex : 238
200 4.37849
205 4.20668
210 4.19584
215 4.30051
220 3.25205
225 4.98868
230 4.99207
235 4.29485
240 4.75437
245 3.44042
250 5.32471
255 7.71274
260 4.72341
265 4.36522
270 4.035
275 6.09264
280 5.55
285 4.00178
290 3.80859
295 5.17579
300 6.36206
305 5.48076
310 5.0122
315 4.42449
320 3.15225
325 5.45857
330 3.04169
335 3.69328
340 5.00284
345 5.06573
350 4.8963
355 5.62668
360 6.20406
365 4.74734
370 2.80425
375 3.77236
380 3.87707
385 5.57722
390 5.88697
395 4.41999
400 4.00218
405 4.46052
410 4.84497
415 5.19165
420 8.41085
425 8.2233
430 5.86898
435 6.68402
440 4.71945
445 5.74305
450 3.42703
455 4.27885
460 4.52296
465 5.98355
470 5.57031
475 5.47889
480 3.63789
485 5.86483
490 5.01785
495 6.82197
500 7.06997
505 4.9903
510 4.25605
515 6.50855
520 5.60016
525 4.08139
530 3.99573
535 6.7064
540 4.46537
545 2.59434
550 2.75394
555 3.61682
560 5.69904
565 4.51984
570 5.62862
575 5.9282
580 4.8961
585 5.41815
590 3.86934
595 3.8926
600 0.442963
Ex : 243
200 4.80442
205 3.79515
210 2.77228
215 4.67215
220 3.90629
225 4.1478
230 4.09791
235 3.35256
240 5.1318
245 5.90723
250 3.26981
255 2.84227
260 3.8432
265 3.65937
270 6.59882
275 6.05965
280 4.07696
285 4.86628
290 4.00405
295 4.91611
300 4.60582
305 4.33064
310 4.18769
315 4.04849
320 4.65159
325 5.28314
330 3.04938
335 5.63867
340 5.39493
345 4.79693
350 4.65832
355 3.63623
360 3.35084
365 3.93226
370 4.89302
375 4.56681
380 3.35313
385 4.10305
390 4.52648
395 4.12053
400 4.92898
405 3.80632
410 3.51677
415 3.51357
420 5.60963
425 4.57127
430 3.03532
435 4.134
440 4.67841
445 4.97571
450 5.35594
455 4.26846
460 6.18718
465 6.11743
470 5.04852
475 4.61024
480 4.14305
485 3.8609
490 5.60483
495 6.1104
500 4.10523
505 5.02084
510 4.11328
515 4.69527
520 4.88903
525 5.1872
530 4.07699
535 4.57987
540 3.41791
545 3.6955
550 3.76129
555 4.98989
560 5.98103
565 5.07435
570 4.22135
575 4.00365
580 5.0512
585 4.93172
590 2.92244
595 4.83544
600 0.550254
Ex : 248
200 3.4928
205 4.22607
210 2.84671
215 5.17982
220 3.87993
225 4.05889
230 3.55699
235 3.17025
240 3.5882
245 3.84813
250 4.18644
255 3.30357
260 3.04431
265 3.03346
270 2.98912
275 4.15687
280 4.28571
285 4.98055
290 4.41212
295 3.59091
300 1.86039
305 3.54116
310 3.73575
315 3.21908
320 3.93645
325 3.95381
330 2.74438
335 5.49041
340 4.62313
345 3.93925
350 3.02372
355 3.25917
360 4.77381
365 3.19175
370 2.57999
375 3.18215
380 3.40828
385 3.34014
390 4.38605
395 3.48232
400 4.94131
405 4.75325
410 4.26035
415 3.18574
420 5.4536
425 3.39158
430 4.48992
435 3.54389
440 3.79747
445 5.48299
450 3.10374
455 4.59699
460 4.30259
465 3.96822
470 5.47007
475 4.22823
480 4.53129
485 4.09591
490 2.82931
495 5.58081
500 3.06894
505 3.58127
510 6.312
515 4.18839
520 4.98916
525 3.26819
530 4.08225
535 3.16157
540 4.79331
545 4.94416
550 3.35074
555 4.19936
560 3.62525
565 3.01828
570 3.12112
575 3.57403
580 3.86853
585 2.94493
590 4.58429
595 4.63789
600 3.18639
Ex : 253
200 2.95283
205 4.19686
210 4.00057
215 4.28416
220 3.48731
225 2.90199
230 2.91445
235 3.97947
240 3.09177
245 4.40701
250 5.08903
255 3.52596
260 3.17146
265 3.35269
270 2.83495
275 3.19726
280 2.77163
285 4.19282
290 3.7036
295 2.9011
300 3.7672
305 3.73142
310 2.87659
315 2.53951
320 2.53432
325 3.59428
330 2.53812
335 3.22864
340 2.19492
345 4.15962
350 3.81784
355 3.54047
360 3.03347
365 4.06639
370 2.8451
375 4.17416
380 5.03773
385 4.21265
390 4.9349
395 2.90446
400 3.14038
405 3.44783
410 2.127
415 3.59757
420 2.96413
425 3.61364
430 4.43823
435 3.23097
440 2.81725
445 5.14524
450 3.68288
455 3.7831
460 3.66306
465 3.74228
470 4.29057
475 3.92043
480 4.17602
485 3.31854
490 4.09011
495 4.05204
500 3.91621
505 2.81181
510 2.68609
515 2.89443
520 3.1497
525 4.0168
530 4.54676
535 3.00932
540 1.9324
545 3.1661
550 2.84339
555 2.75739
560 3.55742
565 2.40841
570 2.45383
575 2.40569
580 3.72288
585 3.37332
590 3.41335
595 2.60504
600 3.15956
Ex : 258
200 4.42218
205 4.24658
210 2.92031
215 2.46201
220 2.21675
225 2.84365
230 2.13531
235 3.01303
240 2.81819
245 2.6731
250 2.09556
255 2.78187
260 2.84251
265 1.48302
270 1.99943
275 1.84807
280 3.73778
285 2.77625
290 2.93491
295 1.93054
300 3.70263
305 3.93814
310 2.5212
315 2.59138
320 2.787
325 2.38612
330 1.90558
335 2.50893
340 3.29302
345 3.21737
350 2.97763
355 3.16089
360 3.25521
365 2.60274
370 3.48508
375 1.97959
380 2.08771
385 2.85904
390 2.67211
395 2.99088
400 2.37969
405 2.38891
410 2.26363
415 2.6091
420 2.60749
425 2.59272
430 2.7889
435 2.79317
440 2.65847
445 3.36555
450 3.31577
455 2.37831
460 2.4007
465 2.51789
470 3.15648
475 2.86338
480 2.67552
485 2.7367
490 2.68056
495 3.54738
500 1.97403
505 2.47354
510 3.57032
515 3.02909
520 2.47159
525 2.06424
530 2.85901
535 3.45183
540 2.09733
545 2.51144
550 2.26516
555 2.79181
560 2.13564
565 2.39247
570 2.14665
575 2.86961
580 2.1784
585 2.12093
590 1.52974
595 2.08185
600 0.236907
Ex : 263
200 1.15591
205 1.85957
210 1.48875
215 1.84869
220 1.80189
225 2.01952
230 1.83491
235 2.64587
240 2.41913
245 1.42778
250 1.78296
255 1.8227
260 1.32254
265 1.91583
270 1.8584
275 1.2362
280 1.32463
285 1.99523
290 1.77475
295 1.78824
300 2.89193
305 1.64056
310 1.80039
315 1.37593
320 1.69061
325 1.91407
330 1.88371
335 1.48156
340 1.86198
345 2.8395
350 2.46779
355 2.57264
360 2.13398
365 2.15191
370 2.38467
375 2.28597
380 2.31432
385 2.33164
390 2.16615
395 2.57244
400 2.40513
405 1.93479
410 2.56248
415 2.11835
420 1.98086
425 2.76207
430 2.16741
435 1.99365
440 2.4853
445 1.92617
450 2.37361
455 3.0911
460 2.84103
465 2.73652
470 1.83934
475 2.29751
480 2.52572
485 2.05842
490 2.02982
495 2.45486
500 2.47714
505 1.95408
510 1.78384
515 1.80844
520 4.4539
525 2.92894
530 2.99331
535 2.22503
540 1.87118
545 2.07242
550 2.83245
555 2.18335
560 1.94146
565 2.89656
570 2.00122
575 1.93058
580 2.43874
585 2.53446
590 2.49476
595 1.70855
600 4.1528
Ex : 268
200 1.66913
205 1.60077
210 1.87905
215 2.10718
220 0.758649
225 1.65022
230 1.60261
235 1.21756
240 1.53607
245 1.51629
250 1.47512
255 1.69929
260 1.84412
265 1.73659
270 1.28288
275 1.62893
280 1.36365
285 1.19185
290 1.20356
295 1.44053
300 1.36885
305 1.17017
310 1.475
315 1.36533
320 0.999998
325 1.17702
330 2.2836
335 1.77875
340 1.87807
345 1.39083
350 1.89612
355 1.61847
360 1.51625
365 2.15791
370 1.35108
375 1.59715
380 2.57561
385 2.58469
390 1.76778
395 1.87946
400 1.81239
405 1.55129
410 2.38329
415 2.3492
420 1.9519
425 1.56157
430 1.9957
435 1.98617
440 1.52894
445 1.77027
450 1.94841
455 2.37678
460 2.03281
465 2.83761
470 1.96077
475 1.6792
480 2.55656
485 1.27596
490 2.50433
495 1.48848
500 2.17512
505 2.17454
510 2.05939
515 1.92873
520 2.11817
525 2.36417
530 2.00203
535 2.1561
540 1.46869
545 1.60749
550 1.68518
555 2.09767
560 1.77767
565 3.05278
570 2.91086
575 1.58327
580 2.05776
585 1.63441
590 1.40145
595 1.10232
600 0.12544
Ex : 273
200 1.68875
205 1.23179
210 1.03546
215 1.14217
220 1.33794
225 1.11283
230 1.20371
235 0.824295
240 1.08167
245 1.04205
250 1.53686
255 2.07584
260 1.44346
265 1.21668
270 1.74842
275 1.25576
280 1.32748
285 1.21397
290 0.854901
295 1.32083
300 1.03381
305 1.00029
310 1.15728
315 1.06971
320 1.20008
325 0.989069
330 1.40124
335 1.58308
340 1.31182
345 1.34298
350 1.58432
355 1.31131
360 1.3673
365 1.30287
370 1.14671
375 1.07349
380 1.28391
385 1.69383
390 1.76543
395 1.85658
400 2.01086
405 1.52287
410 2.17783
415 1.64301
420 1.30038
425 1.91677
430 1.86053
435 1.80436
440 2.08579
445 1.96208
450 1.83265
455 1.76229
460 1.74484
465 1.42904
470 2.36232
475 1.7097
480 1.24148
485 2.12022
490 1.75207
495 1.40287
500 1.22742
505 1.24287
510 1.18105
515 1.52033
520 1.22509
525 1.43066
530 1.01565
535 1.32813
540 1.72111
545 1.39353
550 2.0474
555 1.32245
560 1.34718
565 1.10294
570 1.54252
575 1.09555
580 1.49483
585 1.89888
590 1.2653
595 1.42615
600 0.790018
Ex : 278
200 0.761194
205 1.6246
210 1.36972
215 1.23593
220 1.17718
225 1.05681
230 0.89439
235 1.00428
240 1.27231
245 1.46059
250 1.07106
255 1.40941
260 0.874354
265 0.984965
270 1.19581
275 1.0833
280 1.20535
285 1.32548
290 0.897345
295 0.897234
300 1.39187
305 1.08701
310 0.941163
315 1.039
320 1.21806
325 0.800133
330 1.20447
335 0.914081
340 1.61729
345 1.01807
350 1.13004
355 1.09779
360 1.46534
365 1.15134
370 1.8372
375 1.56338
380 1.39017
385 1.774
390 1.07477
395 1.19441
400 1.17847
405 1.11497
410 1.36817
415 1.61956
420 1.71882
425 1.49551
430 1.15082
435 1.19068
440 1.10192
445 1.27999
450 1.35508
455 1.12658
460 1.74756
465 1.61828
470 1.2455
475 1.39731
480 1.11516
485 1.44839
490 1.00765
495 1.93364
500 1.3176
505 1.23283
510 1.5115
515 1.64628
520 1.32949
525 1.51353
530 0.761518
535 1.02168
540 1.32634
545 0.994088
550 1.75074
555 1.76844
560 1.15636
565 1.2483
570 1.68191
575 1.16771
580 0.709474
585 1.23153
590 1.15906
595 0.888738
600 1.66903
Ex : 283
200 0.709413
205 0.617164
210 0.937869
215 0.87985
220 0.737818
225 0.991324
230 1.01643
235 0.759446
240 1.12587
245 0.815957
250 0.823787
255 0.954966
260 0.92532
265 0.830881
270 0.849302
275 0.794756
280 1.07621
285 0.591708
290 0.627009
295 1.02855
300 0.979879
305 0.841614
310 1.07184
315 0.970557
320 0.787657
325 0.658576
330 0.683196
335 0.753799
340 1.08454
345 1.24273
350 1.02134
355 1.22786
360 1.6692
365 1.06928
370 0.857185
375 0.917513
380 1.21668
385 1.16336
390 1.22736
395 1.71926
400 1.3935
405 1.32749
410 0.951246
415 1.39838
420 1.23403
425 1.05496
430 1.73522
435 1.088
440 0.997045
445 1.19237
450 1.17486
455 1.38987
460 1.41476
465 1.13911
470 1.42808
475 1.39331
480 1.04047
485 1.23147
490 1.18735
495 1.24702
500 1.30203
505 1.0903
510 1.1648
515 1.06664
520 0.85213
525 0.917414
530 0.971035
535 1.19638
540 1.33951
545 1.28962
550 1.12556
555 1.37581
560 1.19919
565 1.49023
570 1.0564
575 0.684897
580 0.985358
585 0.917093
590 0.871329
595 0.680899
600 1.98022
Ex : 288
200 0.736264
205 0.621064
210 0.757871
215 0.829762
220 0.723258
225 0.607003
230 0.505664
235 0.611874
240 0.688386
245 0.628606
250 0.774062
255 0.490858
260 0.644754
265 0.935818
270 0.665767
275 0.665354
280 1.0381
285 0.711711
290 0.46973
295 0.937084
300 0.695188
305 0.800762
310 0.692348
315 0.668732
320 0.888107
325 0.534955
330 0.73675
335 0.622422
340 0.735741
345 0.950258
350 1.03883
355 0.671771
360 0.921969
365 0.690677
370 1.20339
375 1.27524
380 1.1041
385 1.1772
390 1.09955
395 0.827565
400 0.997977
405 0.974121
410 1.28074
415 1.27486
420 1.81159
425 0.941691
430 1.0451
435 1.09679
440 1.08534
445 1.16647
450 0.980548
455 1.02129
460 0.820544
465 0.957488
470 1.27641
475 1.0841
480 0.914157
485 1.36282
490 0.814893
495 1.064
500 0.942022
505 0.749181
510 0.965239
515 0.876638
520 0.680108
525 0.812446
530 0.646068
535 0.501343
540 0.57109
545 0.984128
550 0.791413
555 0.625952
560 1.21552
565 1.11572
570 1.36569
575 1.11286
580 1.39669
585 1.24242
590 1.14392
595 0.777804
600 0.0885112
Ex : 293
200 0.782286
205 0.567571
210 0.441574
215 0.568928
220 0.593726
225 0.795501
230 0.978073
235 0.63893
240 0.52592
245 0.569028
250 0.464163
255 0.513611
260 0.406057
265 0.625938
270 0.460488
275 0.812953
280 0.806666
285 0.71076
290 0.872072
295 0.458774
300 0.548958
305 0.61103
310 0.435247
315 0.897358
320 0.626405
325 1.15006
330 0.68375
335 0.748841
340 0.719103
345 0.730707
350 1.31833
355 0.792102
360 0.99978
365 1.01463
370 1.18398
375 0.943376
380 0.867901
385 0.890333
390 0.890426
395 1.26745
400 1.10859
405 0.815718
410 1.04926
415 0.941575
420 0.862013
425 0.966982
430 0.873183
435 1.06714
440 1.10699
445 1.16595
450 1.00463
455 0.842734
460 0.862323
465 0.821884
470 0.742996
475 0.94478
480 0.804477
485 0.984836
490 0.846582
495 0.716148
500 0.75674
505 0.770588
510 0.788843
515 0.556845
520 0.449615
525 0.706108
530 0.781299
535 0.691368
540 0.631177
545 0.544705
550 0.676639
555 0.793203
560 0.669467
565 0.691442
570 0.745666
575 0.690228
580 1.16395
585 1.05289
590 0.833273
595 0.990751
600 0.112744
Ex : 298
200 0.678126
205 0.538379
210 0.553812
215 0.415201
220 0.458453
225 0.426489
230 0.468416
235 0.416578
240 0.287913
245 0.552131
250 0.433487
255 0.398416
260 0.609637
265 0.723624
270 0.504785
275 0.630757
280 0.606649
285 0.729867
290 0.76216
295 0.840734
300 0.456077
305 0.583009
310 0.653176
315 0.564244
320 0.71712
325 0.483418
330 0.622275
335 0.843638
340 0.715619
345 0.604615
350 0.899283
355 0.606973
360 0.988055
365 1.01127
370 0.684564
375 0.888177
380 0.801091
385 0.926208
390 0.906546
395 0.837456
400 0.779413
405 0.997562
410 0.76948
415 1.19953
420 0.930673
425 1.2246
430 1.26376
435 1.01544
440 0.836025
445 0.834468
450 0.673517
455 1.00745
460 0.78321
465 0.798858
470 0.771687
475 0.761055
480 0.96513
485 1.0103
490 0.810339
495 0.493571
500 0.845263
505 0.812717
510 1.0704
515 0.688749
520 0.912451
525 0.673727
530 0.838418
535 0.710357
540 0.466559
545 0.541783
550 0.527384
555 0.71209
560 0.776462
565 0.766654
570 0.692699
575 0.439616
580 0.560416
585 1.15913
590 1.34565
595 0.915986
600 0.104236
Ex : 303
200 0.410856
205 0.401303
210 0.350792
215 0.29906
220 0.355652
225 0.372251
230 0.491831
235 0.379354
240 0.447396
245 0.557696
250 0.39301
255 0.491512
260 0.382693
265 0.31677
270 0.430808
275 0.64005
280 0.563376
285 0.489112
290 0.390708
295 0.642732
300 0.68251
305 0.584642
310 0.404322
315 0.49411
320 0.373181
325 0.552319
330 0.398836
335 0.449209
340 0.608161
345 0.701207
350 0.473998
355 0.68551
360 0.539923
365 0.820182
370 0.667209
375 0.813261
380 1.07276
385 0.869497
390 0.889119
395 1.05384
400 1.04853
405 0.922127
410 1.03144
415 0.905147
420 0.925267
425 1.04809
430 0.959923
435 0.968048
440 0.971523
445 0.986066
450 0.946856
455 0.749862
460 0.759085
465 0.77439
470 0.778243
475 1.14545
480 0.869853
485 0.510676
490 0.557646
495 0.572328
500 0.562218
505 0.716864
510 0.998975
515 0.558792
520 0.498343
525 0.440598
530 0.681592
535 0.566016
540 0.46021
545 0.471211
550 0.663702
555 0.435006
560 0.393763
565 0.618057
570 0.556402
575 0.670002
580 0.606313
585 0.327416
590 0.569048
595 0.879141
600 1.39526
Ex : 308
200 0.421997
205 0.41558
210 0.393658
215 0.498987
220 0.369474
225 0.414984
230 0.458887
235 0.742408
240 0.378117
245 0.299992
250 0.4329
255 0.341716
260 0.468552
265 0.61298
270 0.328718
275 0.435891
280 0.379856
285 0.512652
290 0.516739
295 0.38222
300 0.571622
305 0.551315
310 0.626739
315 0.414747
320 0.409788
325 0.57552
330 0.505353
335 0.416279
340 0.533977
345 0.474287
350 0.37377
355 0.522462
360 0.88263
365 0.686567
370 0.734609
375 0.989257
380 0.932643
385 0.989094
390 0.822337
395 0.90625
400 0.879722
405 1.15574
410 0.913568
415 0.72669
420 0.760998
425 0.780188
430 0.789419
435 0.788661
440 1.07011
445 0.953686
450 0.987332
455 1.11534
460 0.817231
465 0.735678
470 0.75488
475 0.742
480 0.670048
485 0.870122
490 0.77843
495 0.693945
500 0.538547
505 0.6513
510 0.518385
515 0.462699
520 0.488952
525 0.452431
530 0.405789
535 0.55024
540 0.30973
545 0.257092
550 0.452078
555 0.596397
560 0.497976
565 0.456075
570 0.559856
575 0.297845
580 0.39787
585 0.56181
590 0.615945
595 0.553556
600 0.48837
Ex : 313
200 0.232282
205 0.332581
210 0.358263
215 0.547355
220 0.536112
225 0.473285
230 0.454297
235 0.505092
240 0.350897
245 0.543467
250 0.317539
255 0.324672
260 0.404492
265 0.310857
270 0.32992
275 0.298403
280 0.281866
285 0.387127
290 0.211616
295 0.451454
300 0.334398
305 0.538129
310 1.0195
315 0.522268
320 0.412784
325 0.639239
330 0.632079
335 0.687131
340 0.541166
345 0.564141
350 0.654484
355 0.562524
360 0.801218
365 0.993934
370 1.01474
375 1.06212
380 1.08561
385 1.75428
390 1.3333
395 1.4751
400 1.65066
405 1.45336
410 1.47826
415 1.68225
420 1.81
425 1.7567
430 1.52021
435 1.46518
440 1.64228
445 1.42024
450 1.44484
455 1.30504
460 1.28777
465 1.094
470 1.40307
475 1.10063
480 0.925614
485 1.13453
490 0.971191
495 0.866724
500 0.888423
505 0.893229
510 0.86269
515 0.651951
520 0.546952
525 0.490603
530 0.522538
535 0.441625
540 0.433437
545 0.689273
550 0.508864
555 0.334139
560 0.438295
565 0.832535
570 0.563891
575 0.342594
580 0.591351
585 0.438489
590 0.26235
595 0.341356
600 0.038845
Ex : 318
200 0.506691
205 0.403125
210 0.404097
215 0.268052
220 0.308018
225 0.273493
230 0.268233
235 0.39991
240 0.293959
245 0.209866
250 0.281287
255 0.304474
260 0.324666
265 0.264873
270 0.338046
275 0.328852
280 0.345487
285 0.402832
290 0.28176
295 0.349612
300 0.242233
305 0.249464
310 0.712952
315 1.23359
320 0.757168
325 0.614885
330 0.897204
335 1.19705
340 1.57303
345 2.23733
350 3.2028
355 3.71678
360 4.49465
365 5.10642
370 6.32363
375 8.04032
380 8.62295
385 10.4429
390 10.7985
395 11.1958
400 12.2018
405 12.5744
410 12.4964
415 12.9545
420 12.4124
425 12.1543
430 11.6829
435 11.4577
440 10.7636
445 10.5567
450 9.92099
455 9.57902
460 9.00169
465 8.10484
470 6.88437
475 7.0232
480 6.35197
485 5.82137
490 4.54903
495 4.54232
500 3.78751
505 3.38334
510 3.2159
515 2.6923
520 2.33829
525 2.35758
530 1.83941
535 1.22071
540 1.38263
545 1.11349
550 1.05184
555 0.904147
560 0.81398
565 0.861163
570 0.777267
575 0.569479
580 0.429264
585 0.624892
590 0.416783
595 0.651271
600 0.60774
Ex : 323
200 0.365538
205 0.239854
210 0.464055
215 0.262981
220 0.216218
225 0.252351
230 0.256311
235 0.276976
240 0.243361
245 0.309316
250 0.234334
255 0.387254
260 0.301518
265 0.266853
270 0.433727
275 0.355693
280 0.288343
285 0.348654
290 0.268743
295 0.542241
300 0.36846
305 0.383915
310 0.488647
315 4.44663
320 18.9674
325 8.51941
330 3.00979
335 3.35955
340 4.61734
345 6.21322
350 9.35259
355 13.2474
360 15.6646
365 18.1269
370 21.552
375 25.8467
380 28.3015
385 31.4132
390 35.0941
395 36.7765
400 37.5836
405 39.7428
410 40.0192
415 40.9008
420 39.6722
425 39.2889
430 36.6999
435 36.7075
440 34.902
445 33.1693
450 31.1285
455 29.1508
460 28.2664
465 25.9479
470 23.3075
475 21.2717
480 19.7494
485 18.4924
490 15.9225
495 14.7753
500 13.0065
505 11.0701
510 10.0695
515 8.97494
520 7.31198
525 6.73315
530 5.71374
535 4.60808
540 4.196
545 3.49648
550 2.8278
555 2.52794
560 2.51679
565 1.80646
570 1.58265
575 1.38141
580 1.10581
585 0.888814
590 0.634503
595 0.598246
600 1.95608
Ex : 328
200 0.417774
205 0.511814
210 0.337969
215 0.298113
220 0.204512
225 0.335723
230 0.448806
235 0.246331
240 0.241251
245 0.49155
250 0.255812
255 0.286198
260 0.281004
265 0.214338
270 0.270743
275 0.286005
280 0.228401
285 0.397294
290 0.309563
295 0.235867
300 0.364944
305 0.362563
310 0.33635
315 1.47982
320 41.284
325 94.9045
330 31.1815
335 7.38559
340 5.87942
345 6.83431
350 9.25346
355 13.5813
360 18.3957
365 19.7013
370 22.2359
375 25.318
380 28.6016
385 30.8406
390 33.2864
395 35.3913
400 37.0827
405 37.3312
410 38.9756
415 39.3537
420 38.3304
425 37.7974
430 36.2378
435 35.628
440 34.9878
445 33.3141
450 31.628
455 29.6852
460 28.0428
465 25.4595
470 24.1845
475 22.0494
480 20.0605
485 19.0639
490 16.7214
495 14.809
500 14.0716
505 12.5008
510 10.4506
515 9.99309
520 8.48293
525 7.3116
530 6.847
535 5.82029
540 4.96836
545 4.02755
550 3.90339
555 3.58047
560 2.90765
565 2.58676
570 1.99328
575 1.71737
580 1.22354
585 1.00337
590 0.80252
595 0.677952
600 0.0771484
Ex : 333
200 0.204167
205 0.299729
210 0.286708
215 0.258733
220 0.314282
225 0.265446
230 0.397258
235 0.279705
240 0.254977
245 0.299546
250 0.29582
255 0.342341
260 0.324078
265 0.318608
270 0.475982
275 0.306592
280 0.262996
285 0.278973
290 0.25435
295 0.394318
300 0.326954
305 0.454671
310 0.283078
315 0.491071
320 6.83141
325 132.485
330 231.795
335 59.012
340 10.4281
345 6.00713
350 6.38594
355 6.89261
360 9.56808
365 14.7258
370 15.5456
375 15.2308
380 15.7852
385 17.5299
390 18.2667
395 19.4761
400 20.0849
405 21.3104
410 23.1729
415 22.6471
420 22.0842
425 21.741
430 21.1531
435 20.8255
440 20.7992
445 19.9631
450 19.3358
455 18.8728
460 17.6854
465 17.3307
470 15.8497
475 14.7729
480 14.1611
485 13.0561
490 12.4321
495 11.8966
500 11.0568
505 9.57885
510 8.96176
515 8.07566
520 7.32608
525 6.07845
530 5.57982
535 5.08729
540 4.45326
545 4.31852
550 3.88405
555 3.11787
560 2.80164
565 2.2644
570 2.01009
575 1.58122
580 1.15981
585 0.967764
590 0.944481
595 0.912522
600 0.420343
Ex : 338
200 0.247977
205 0.255901
210 0.17898
215 0.310577
220 0.311108
225 0.21292
230 0.246822
235 0.227518
240 0.128554
245 0.207712
250 0.160415
255 0.222043
260 0.280499
265 0.349136
270 0.277833
275 0.3153
280 0.292024
285 0.248512
290 0.404142
295 0.288437
300 0.287149
305 0.262981
310 0.191889
315 0.361619
320 0.513422
325 12.5071
330 187.008
335 269.735
340 66.9592
345 10.5698
350 4.64794
355 4.59488
360 4.21299
365 5.93218
370 10.4825
375 11.2622
380 10.7265
385 9.61093
390 9.47553
395 10.3396
400 10.8666
405 11.515
410 12.4376
415 13.2016
420 13.8131
425 13.547
430 13.7298
435 13.6982
440 13.5918
445 13.8168
450 13.6701
455 14.0727
460 13.2439
465 13.3617
470 12.9647
475 12.4448
480 11.8207
485 11.9713
490 11.3937
495 10.9715
500 10.3194
505 9.13847
510 8.61776
515 7.79704
520 7.25071
525 7.00693
530 6.0714
535 5.17717
540 4.70467
545 4.3582
550 3.86741
555 3.41502
560 3.04337
565 2.71329
570 2.36414
575 1.7483
580 1.59087
585 1.27353
590 0.967332
595 0.843302
600 0.128308
Ex : 343
200 0.217917
205 0.275244
210 0.214908
215 0.16988
220 0.167504
225 0.151076
230 0.317607
235 0.203639
240 0.331509
245 0.221072
250 0.294804
255 0.220293
260 0.260771
265 0.283299
270 0.21267
275 0.183367
280 0.2208
285 0.271239
290 0.250057
295 0.278277
300 0.188799
305 0.231675
310 0.376727
315 0.41858
320 0.312663
325 0.459065
330 14.5171
335 206.382
340 302.931
345 74.7195
350 10.7411
355 4.01443
360 3.12875
365 2.63598
370 3.89386
375 8.26944
380 9.51673
385 7.8272
390 7.02774
395 6.84617
400 7.566
405 8.31466
410 10.6812
415 11.0929
420 11.7592
425 11.5941
430 12.1198
435 12.5593
440 13.1136
445 13.4649
450 13.1437
455 13.2659
460 13.4064
465 13.9501
470 14.0821
475 13.5604
480 13.1116
485 13.133
490 12.91
495 11.9147
500 11.4981
505 10.8947
510 10.1751
515 8.80708
520 8.08165
525 7.52002
530 7.28137
535 5.93631
540 5.56878
545 5.1235
550 4.37561
555 4.15558
560 3.72914
565 3.27789
570 2.66336
575 2.23039
580 1.70957
585 1.44162
590 1.08746
595 0.858742
600 0.42638
Ex : 348
200 0.186436
205 0.238736
210 0.32421
215 0.235954
220 0.220233
225 0.17865
230 0.176087
235 0.155093
240 0.219628
245 0.241404
250 0.262607
255 0.214694
260 0.191405
265 0.209823
270 0.216604
275 0.199159
280 0.244084
285 0.195764
290 0.252082
295 0.261555
300 0.259208
305 0.247382
310 0.263069
315 0.279908
320 0.262974
325 0.352122
330 0.493051
335 15.034
340 218.549
345 323.63
350 83.4493
355 11.65
360 3.70061
365 2.92033
370 2.42059
375 3.21644
380 6.3994
385 8.75025
390 7.41388
395 6.54293
400 6.64225
405 8.21872
410 9.53702
415 10.6928
420 11.48
425 11.5863
430 12.3707
435 13.2085
440 14.3028
445 14.7438
450 14.8654
455 15.1437
460 15.3188
465 16.0335
470 15.7027
475 15.7708
480 15.8481
485 15.6445
490 14.808
495 15.1171
500 13.8947
505 12.9357
510 12.1306
515 11.4658
520 10.3685
525 9.24455
530 8.50969
535 7.6609
540 6.87504
545 6.33467
550 5.69041
555 5.11955
560 4.41782
565 3.79285
570 3.07193
575 2.53223
580 2.06057
585 1.64921
590 1.12305
595 0.965944
600 0.455756
Ex : 353
200 0.147647
205 0.20935
210 0.162636
215 0.125639
220 0.281162
225 0.21985
230 0.216351
235 0.20743
240 0.211668
245 0.243883
250 0.201758
255 0.238522
260 0.214289
265 0.174323
270 0.251042
275 0.236199
280 0.28889
285 0.144807
290 0.214996
295 0.25797
300 0.254034
305 0.227862
310 0.295147
315 0.272245
320 0.29385
325 0.265295
330 0.295649
335 0.465558
340 15.2083
345 214.583
350 310.522
355 79.3792
360 10.758
365 3.21444
370 2.77137
375 2.57097
380 2.66624
385 5.32025
390 8.12517
395 7.71045
400 7.45365
405 7.79444
410 9.40776
415 10.8032
420 11.2731
425 11.6349
430 11.9395
435 13.0184
440 14.24
445 14.8751
450 15.4453
455 16.2606
460 16.5675
465 17.3835
470 17.8602
475 18.1838
480 18.2233
485 17.3434
490 17.6613
495 17.1629
500 16.7372
505 15.036
510 14.7579
515 13.0971
520 12.1285
525 11.3742
530 9.86242
535 9.08542
540 8.18322
545 7.41578
550 6.30577
555 6.11168
560 5.39804
565 4.56084
570 3.88778
575 3.08563
580 2.40304
585 1.90263
590 1.57888
595 1.23216
600 0.935785
Ex : 358
200 0.19415
205 0.194233
210 0.236246
215 0.180913
220 0.223373
225 0.228786
230 0.175711
235 0.195935
240 0.260964
245 0.228212
250 0.139859
255 0.15566
260 0.200822
265 0.245757
270 0.226079
275 0.145989
280 0.162143
285 0.188935
290 0.20756
295 0.217153
300 0.170821
305 0.210796
310 0.21709
315 0.255765
320 0.244541
325 0.233095
330 0.331604
335 0.440177
340 0.506994
345 14.5044
350 209.313
355 319.145
360 82.8369
365 11.4154
370 3.29711
375 3.46392
380 2.8096
385 3.07789
390 4.88615
395 8.54926
400 9.37834
405 9.11343
410 10.6116
415 11.4475
420 12.5654
425 12.2069
430 12.4516
435 14.1962
440 15.6317
445 16.1783
450 16.6824
455 17.3296
460 18.5876
465 19.5253
470 20.1453
475 20.2941
480 19.7959
485 20.1775
490 18.7987
495 18.7204
500 17.6733
505 17.4012
510 16.3356
515 14.9117
520 13.2823
525 12.3878
530 11.2559
535 10.2316
540 9.26506
545 8.38039
550 7.37252
555 6.50637
560 6.12482
565 4.9955
570 3.85455
575 3.36612
580 2.55592
585 2.00482
590 1.65513
595 1.42377
600 2.06572
Ex : 363
200 0.14661
205 0.181652
210 0.167322
215 0.191697
220 0.17914
225 0.176324
230 0.227141
235 0.133534
240 0.145374
245 0.194943
250 0.151816
255 0.159566
260 0.237921
265 0.206146
270 0.24535
275 0.196991
280 0.234837
285 0.169771
290 0.200732
295 0.236523
300 0.203166
305 0.195731
310 0.187655
315 0.19329
320 0.235929
325 0.263015
330 0.333753
335 0.330097
340 0.409751
345 0.559749
350 14.2237
355 206.326
360 311.49
365 82.6199
370 11.1328
375 3.41726
380 3.34932
385 3.159
390 3.23813
395 4.33962
400 8.51858
405 11.7338
410 13.1012
415 14.0805
420 14.0097
425 13.7116
430 14.29
435 16.3942
440 17.8054
445 18.809
450 19.3695
455 20.0019
460 21.0712
465 22.2471
470 23.4961
475 23.2136
480 23.0264
485 22.747
490 22.9661
495 21.7599
500 21.5642
505 19.4281
510 18.4479
515 17.4296
520 15.7862
525 14.498
530 13.4009
535 12.1348
540 10.3144
545 9.37473
550 8.81131
555 7.69833
560 6.70264
565 5.60516
570 4.82062
575 3.82707
580 2.99625
585 2.37385
590 1.86977
595 1.64508
600 0.994439
Ex : 368
200 0.147884
205 0.186999
210 0.231903
215 0.18275
220 0.187162
225 0.239115
230 0.195612
235 0.179175
240 0.202356
245 0.191716
250 0.249373
255 0.240496
260 0.210875
265 0.209381
270 0.159395
275 0.213971
280 0.140289
285 0.277639
290 0.163055
295 0.153476
300 0.138342
305 0.190195
310 0.227931
315 0.169159
320 0.128304
325 0.1823
330 0.225185
335 0.254383
340 0.274016
345 0.366053
350 0.494935
355 10.8724
360 196.309
365 316.855
370 88.1482
375 11.9189
380 3.32185
385 3.24631
390 3.20005
395 3.14799
400 4.40586
405 9.40639
410 13.8446
415 14.5949
420 13.7753
425 13.1181
430 13.7608
435 15.5942
440 17.6507
445 18.0386
450 19.6114
455 20.6661
460 22.1757
465 23.834
470 24.905
475 25.2395
480 25.947
485 25.7919
490 25.4292
495 24.8587
500 24.4111
505 22.9311
510 21.3992
515 19.5276
520 18.1172
525 17.1121
530 15.5307
535 13.6585
540 12.5896
545 11.1047
550 10.1526
555 9.22503
560 7.9383
565 6.55747
570 5.63905
575 4.41644
580 3.70144
585 2.71451
590 2.29061
595 1.64027
600 1.73341
Ex : 373
200 0.193461
205 0.234138
210 0.174252
215 0.118142
220 0.153094
225 0.140955
230 0.182012
235 0.204261
240 0.124165
245 0.159067
250 0.140081
255 0.146428
260 0.108591
265 0.129314
270 0.200929
275 0.183976
280 0.204741
285 0.192799
290 0.167778
295 0.123761
300 0.251653
305 0.164151
310 0.188455
315 0.221709
320 0.150295
325 0.211676
330 0.27979
335 0.282045
340 0.243286
345 0.338132
350 0.340448
355 0.562446
360 14.543
365 203.798
370 385.809
375 120.734
380 16.1284
385 4.10919
390 3.55497
395 3.3575
400 3.85984
405 5.78189
410 10.1705
415 14.229
420 13.7594
425 12.8847
430 12.2858
435 14.2434
440 15.727
445 17.2923
450 17.9552
455 20.0772
460 21.1847
465 23.5077
470 25.2875
475 25.9273
480 26.0838
485 26.6269
490 26.5376
495 26.6221
500 26.0053
505 23.9585
510 23.0893
515 21.5306
520 20.1025
525 18.5097
530 16.8022
535 15.5206
540 13.8135
545 12.6607
550 10.8726
555 9.6065
560 8.51583
565 7.2784
570 6.26855
575 4.71373
580 3.7154
585 3.06194
590 2.29705
595 1.815
600 1.53585
Ex : 378
200 0.144517
205 0.123771
210 0.213701
215 0.205571
220 0.194679
225 0.147893
230 0.120667
235 0.118758
240 0.116756
245 0.156967
250 0.178673
255 0.216495
260 0.146415
265 0.139607
270 0.168291
275 0.145889
280 0.156102
285 0.130906
290 0.115594
295 0.234683
300 0.193845
305 0.15268
310 0.156032
315 0.126265
320 0.198936
325 0.169234
330 0.28728
335 0.216162
340 0.251828
345 0.297959
350 0.400846
355 0.345867
360 0.570677
365 13.5658
370 227.895
375 356.632
380 97.7557
385 13.6127
390 4.24988
395 3.89402
400 4.68647
405 6.09288
410 8.89154
415 11.8078
420 15.0184
425 14.5619
430 14.505
435 15.5368
440 17.0174
445 18.0115
450 18.6419
455 19.9938
460 21.7064
465 23.3395
470 24.7977
475 25.4096
480 26.1511
485 26.157
490 25.704
495 25.3051
500 24.5909
505 23.8438
510 22.3168
515 20.4242
520 19.0838
525 17.3338
530 16.1477
535 14.7313
540 13.2109
545 11.8256
550 10.7385
555 9.36003
560 8.32142
565 7.05301
570 5.96865
575 4.60852
580 3.69457
585 2.7147
590 2.23729
595 1.72834
600 2.43407
Ex : 383
200 0.13824
205 0.18698
210 0.140677
215 0.194177
220 0.227174
225 0.179759
230 0.119336
235 0.23025
240 0.163377
245 0.147054
250 0.179845
255 0.170599
260 0.161119
265 0.158372
270 0.152377
275 0.18402
280 0.117255
285 0.120749
290 0.136336
295 0.136791
300 0.126498
305 0.13571
310 0.178485
315 0.168389
320 0.12714
325 0.187054
330 0.16726
335 0.159711
340 0.198908
345 0.246035
350 0.216427
355 0.21656
360 0.36553
365 0.547227
370 11.7082
375 212.089
380 367.2
385 105.339
390 14.6079
395 4.32572
400 4.58133
405 6.94304
410 10.1145
415 11.7975
420 13.1179
425 15.2615
430 17.0723
435 18.0065
440 19.3059
445 19.4843
450 20.0365
455 21.1707
460 22.5392
465 24.2679
470 25.4756
475 26.7187
480 26.7141
485 26.5797
490 26.3295
495 25.6265
500 25.4799
505 24.3951
510 22.3579
515 21.1166
520 18.799
525 18.0534
530 16.522
535 14.8235
540 13.2899
545 12.1606
550 10.785
555 9.28509
560 8.29536
565 7.1974
570 5.86969
575 4.80725
580 3.73011
585 2.86284
590 2.2738
595 1.62451
600 1.91874
Ex : 388
200 0.200145
205 0.121504
210 0.202527
215 0.197874
220 0.135454
225 0.128943
230 0.149353
235 0.13312
240 0.12036
245 0.099547
250 0.12765
255 0.130896
260 0.111967
265 0.144593
270 0.124484
275 0.120924
280 0.136102
285 0.157727
290 0.191938
295 0.11738
300 0.190647
305 0.139006
310 0.163358
315 0.159164
320 0.126511
325 0.154934
330 0.174982
335 0.182057
340 0.194203
345 0.210244
350 0.23591
355 0.202454
360 0.34082
365 0.408441
370 0.635502
375 13.49
380 225.31
385 373.437
390 102.351
395 14.2114
400 4.77328
405 6.29722
410 9.32408
415 10.927
420 11.1125
425 11.5153
430 14.8154
435 18.3893
440 18.8317
445 19.5344
450 19.5187
455 20.2027
460 22.5226
465 24.0711
470 26.1351
475 26.6362
480 26.8301
485 27.843
490 27.8889
495 27.2371
500 26.5383
505 25.0119
510 23.7276
515 21.7001
520 20.0345
525 18.4529
530 16.6518
535 15.3401
540 13.5442
545 12.5152
550 11.2281
555 10.0354
560 8.69878
565 7.42399
570 6.08571
575 5.00593
580 3.832
585 3.03073
590 2.4561
595 1.84186
600 1.56889
Ex : 393
200 0.136567
205 0.169503
210 0.187441
215 0.150334
220 0.16206
225 0.138447
230 0.125869
235 0.128898
240 0.241261
245 0.121026
250 0.110647
255 0.181117
260 0.143274
265 0.173894
270 0.149323
275 0.147404
280 0.181365
285 0.184836
290 0.151412
295 0.211181
300 0.171809
305 0.194899
310 0.143404
315 0.197808
320 0.152759
325 0.181318
330 0.17122
335 0.19922
340 0.16958
345 0.197535
350 0.358039
355 0.198004
360 0.264035
365 0.329033
370 0.490555
375 0.841902
380 22.5175
385 326.76
390 451.326
395 116.386
400 16.0405
405 5.939
410 7.16967
415 8.84667
420 9.11955
425 8.94956
430 10.123
435 13.1802
440 17.203
445 17.9098
450 17.9952
455 19.1664
460 21.0484
465 22.8587
470 24.898
475 26.1589
480 26.7382
485 27.6895
490 27.5603
495 27.7883
500 26.9598
505 25.5406
510 23.9827
515 22.4727
520 20.7522
525 19.4164
530 17.5704
535 16.1154
540 14.6809
545 13.3116
550 12.1843
555 10.5339
560 8.89945
565 7.94378
570 6.40174
575 5.3085
580 4.07408
585 3.37545
590 2.52199
595 1.88965
600 2.60269
Ex : 398
200 0.14404
205 0.142153
210 0.120269
215 0.147628
220 0.126518
225 0.139466
230 0.152154
235 0.137863
240 0.144375
245 0.104055
250 0.158984
255 0.168802
260 0.166279
265 0.160379
270 0.125899
275 0.121165
280 0.147046
285 0.149638
290 0.195346
295 0.175675
300 0.130794
305 0.138095
310 0.130753
315 0.202139
320 0.124743
325 0.20462
330 0.1388
335 0.157914
340 0.162412
345 0.209954
350 0.248628
355 0.174352
360 0.246297
365 0.280583
370 0.292333
375 0.450914
380 0.587655
385 12.1788
390 225.6
395 387.28
400 107.517
405 16.1145
410 7.6594
415 8.23658
420 8.48176
425 8.24993
430 8.9903
435 10.5225
440 13.3386
445 17.1866
450 18.7307
455 18.9484
460 20.9779
465 22.935
470 25.0889
475 26.3477
480 27.0621
485 27.942
490 28.5271
495 28.4117
500 27.356
505 25.8704
510 24.9402
515 23.1581
520 21.4747
525 19.5718
530 17.9235
535 16.4318
540 15.0948
545 13.4154
550 11.8047
555 10.3153
560 9.58222
565 8.37015
570 6.71765
575 5.25787
580 4.31213
585 3.31461
590 2.55838
595 2.04527
600 1.87509
Ex : 403
200 0.153
205 0.179628
210 0.140953
215 0.168861
220 0.139082
225 0.148571
230 0.158632
235 0.112895
240 0.177238
245 0.151956
250 0.139752
255 0.160992
260 0.128793
265 0.109892
270 0.120396
275 0.180516
280 0.142524
285 0.114759
290 0.0988799
295 0.147879
300 0.185563
305 0.155036
310 0.154432
315 0.15371
320 0.123418
325 0.11877
330 0.178864
335 0.185297
340 0.159286
345 0.151126
350 0.158455
355 0.194147
360 0.180695
365 0.181471
370 0.179391
375 0.212895
380 0.4369
385 0.710141
390 15.8184
395 269.485
400 464.137
405 127.187
410 20.9608
415 9.85669
420 9.1414
425 9.25974
430 9.68312
435 11.1427
440 13.1944
445 15.2421
450 18.4741
455 21.2693
460 22.3693
465 24.7909
470 26.1161
475 27.1405
480 27.9399
485 28.1152
490 28.3969
495 28.5631
500 27.638
505 27.0332
510 25.6033
515 23.7942
520 22.1322
525 20.3897
530 18.3957
535 17.15
540 15.4791
545 14.0806
550 11.7577
555 11.0671
560 9.8413
565 8.33662
570 6.93008
575 5.51664
580 4.24453
585 3.38069
590 2.61918
595 2.20942
600 1.71213
Ex : 408
200 0.154744
205 0.139075
210 0.117994
215 0.123448
220 0.132947
225 0.163871
230 0.1211
235 0.131917
240 0.127151
245 0.100311
250 0.11867
255 0.182074
260 0.197698
265 0.0940979
270 0.17753
275 0.162439
280 0.185939
285 0.13584
290 0.115312
295 0.115891
300 0.10522
305 0.160835
310 0.131933
315 0.105636
320 0.167301
325 0.147409
330 0.147681
335 0.160955
340 0.148963
345 0.162201
350 0.153258
355 0.186927
360 0.202017
365 0.199416
370 0.262949
375 0.238083
380 0.323144
385 0.393684
390 0.62813
395 13.9024
400 270.462
405 466.146
410 126.325
415 21.5917
420 9.51479
425 8.13509
430 9.27081
435 10.5253
440 12.1839
445 14.1863
450 15.239
455 19.2109
460 22.8567
465 24.5088
470 26.0725
475 27.1787
480 27.7499
485 28.6557
490 28.7565
495 28.3421
500 28.0666
505 27.0364
510 25.4417
515 24.0586
520 22.3077
525 20.5484
530 19.1067
535 17.2007
540 15.2687
545 14.1269
550 12.4586
555 11.2711
560 9.77959
565 8.37154
570 7.0452
575 5.62472
580 4.21153
585 3.32717
590 2.56318
595 2.1051
600 2.48961
Ex : 413
200 0.156422
205 0.195112
210 0.15881
215 0.129557
220 0.151088
225 0.151506
230 0.140402
235 0.151444
240 0.144772
245 0.14898
250 0.182504
255 0.160916
260 0.172576
265 0.186715
270 0.173677
275 0.165783
280 0.124068
285 0.148109
290 0.122908
295 0.163161
300 0.15523
305 0.139391
310 0.136844
315 0.148305
320 0.127341
325 0.155072
330 0.149047
335 0.143733
340 0.163586
345 0.203244
350 0.200198
355 0.171641
360 0.160055
365 0.178416
370 0.198642
375 0.264212
380 0.186864
385 0.27255
390 0.418596
395 0.750892
400 16.1127
405 259.546
410 422.724
415 115.875
420 18.2645
425 7.00519
430 6.38658
435 7.77829
440 8.88967
445 10.2035
450 12.0347
455 14.4828
460 18.409
465 23.2299
470 24.9161
475 25.4857
480 26.2232
485 26.6734
490 26.9724
495 26.6662
500 26.6581
505 25.9364
510 24.6264
515 23.1091
520 21.3157
525 20.0877
530 18.334
535 16.8018
540 15.175
545 13.6842
550 12.2713
555 10.8223
560 9.49893
565 8.09276
570 6.87326
575 5.33926
580 4.24507
585 3.40347
590 2.56939
595 2.01076
600 2.30558
Ex : 418
200 0.157533
205 0.127294
210 0.132187
215 0.163047
220 0.177079
225 0.170274
230 0.135085
235 0.149722
240 0.173125
245 0.181445
250 0.122769
255 0.145545
260 0.129482
265 0.166707
270 0.121225
275 0.151375
280 0.174892
285 0.212014
290 0.125485
295 0.148628
300 0.140295
305 0.147083
310 0.17062
315 0.145293
320 0.127889
325 0.148739
330 0.213185
335 0.186299
340 0.163321
345 0.139202
350 0.184405
355 0.171744
360 0.184182
365 0.200317
370 0.166813
375 0.237815
380 0.284007
385 0.315043
390 0.378636
395 0.491103
400 0.914965
405 16.396
410 277.641
415 473.653
420 127.229
425 17.7128
430 5.14886
435 4.48778
440 5.62032
445 6.89886
450 8.5864
455 11.3122
460 14.1225
465 17.0513
470 21.1052
475 23.5966
480 23.7979
485 24.9972
490 25.0603
495 24.6067
500 24.7384
505 24.3174
510 23.0956
515 21.2619
520 20.0615
525 18.3875
530 17.3899
535 15.576
540 14.4583
545 12.9987
550 11.7242
555 10.4089
560 9.18909
565 8.23387
570 6.4958
575 5.03457
580 4.00296
585 3.20564
590 2.4344
595 1.90222
600 1.38835
Ex : 423
200 0.172019
205 0.155368
210 0.119245
215 0.129409
220 0.15305
225 0.0922844
230 0.150369
235 0.136202
240 0.146205
245 0.150848
250 0.154573
255 0.177507
260 0.105378
265 0.123167
270 0.153323
275 0.139909
280 0.115559
285 0.142407
290 0.142816
295 0.132744
300 0.170432
305 0.188063
310 0.155573
315 0.132689
320 0.155037
325 0.152807
330 0.132537
335 0.135191
340 0.23901
345 0.157178
350 0.148845
355 0.184451
360 0.205389
365 0.206627
370 0.26424
375 0.231903
380 0.212113
385 0.197249
390 0.235374
395 0.272716
400 0.456437
405 0.805197
410 16.2148
415 280.95
420 437.094
425 114.928
430 15.3416
435 4.37651
440 3.87947
445 5.36556
450 7.13908
455 9.29946
460 11.8858
465 14.5118
470 16.9293
475 20.3985
480 23.0927
485 23.0725
490 23.4085
495 22.8471
500 22.4812
505 22.0903
510 20.4841
515 19.9131
520 18.4485
525 17.3111
530 16.0278
535 14.3387
540 13.0949
545 11.8192
550 10.7456
555 9.47282
560 8.55311
565 7.41154
570 6.09259
575 4.91901
580 3.79167
585 3.04176
590 2.31759
595 1.74369
600 1.44954
Ex : 428
200 0.106714
205 0.150743
210 0.121342
215 0.159558
220 0.180403
225 0.197812
230 0.220682
235 0.147676
240 0.127775
245 0.12552
250 0.112593
255 0.145573
260 0.158641
265 0.132612
270 0.131756
275 0.165654
280 0.165745
285 0.159745
290 0.15543
295 0.147564
300 0.150767
305 0.14612
310 0.172315
315 0.173279
320 0.145505
325 0.126553
330 0.161397
335 0.198651
340 0.194451
345 0.157926
350 0.150898
355 0.147852
360 0.181521
365 0.157175
370 0.164261
375 0.175306
380 0.194924
385 0.200176
390 0.218466
395 0.341301
400 0.349514
405 0.462033
410 0.671582
415 17.6753
420 298.974
425 509.028
430 143.017
435 18.627
440 4.69119
445 4.22284
450 6.11287
455 8.39196
460 10.436
465 12.4594
470 14.4443
475 16.2482
480 18.8278
485 21.9159
490 21.6798
495 21.1232
500 21.2023
505 19.9751
510 18.8617
515 17.5807
520 16.5071
525 15.5062
530 14.1819
535 12.8939
540 12.0895
545 10.7047
550 9.37977
555 8.32446
560 7.60957
565 6.73511
570 5.49974
575 4.37685
580 3.4368
585 2.77905
590 2.0929
595 1.64277
600 1.8319
Ex : 433
200 0.131736
205 0.157088
210 0.145204
215 0.129149
220 0.140674
225 0.146313
230 0.160505
235 0.157265
240 0.13022
245 0.168533
250 0.148064
255 0.130511
260 0.18003
265 0.175148
270 0.140738
275 0.16818
280 0.142612
285 0.203583
290 0.169984
295 0.143081
300 0.114797
305 0.141549
310 0.1234
315 0.09937
320 0.160578
325 0.161689
330 0.186077
335 0.172665
340 0.190406
345 0.179635
350 0.151417
355 0.185673
360 0.184568
365 0.233643
370 0.157893
375 0.195983
380 0.241426
385 0.232667
390 0.250476
395 0.343242
400 0.363314
405 0.358405
410 0.503351
415 0.772736
420 21.4273
425 328.928
430 493.286
435 127.566
440 17.2393
445 5.35764
450 5.26512
455 7.41865
460 9.44549
465 11.0039
470 12.7159
475 14.3505
480 15.7425
485 17.4212
490 19.6052
495 19.3322
500 18.9338
505 18.1018
510 16.6756
515 15.5453
520 14.6592
525 13.4502
530 12.5579
535 11.4457
540 10.6787
545 9.87444
550 8.5665
555 7.53453
560 6.95654
565 5.86674
570 4.79836
575 4.06958
580 2.99691
585 2.40777
590 1.96117
595 1.44839
600 1.39533
Ex : 438
200 0.167647
205 0.126451
210 0.151227
215 0.146258
220 0.173813
225 0.151383
230 0.171812
235 0.167939
240 0.134764
245 0.217465
250 0.245122
255 0.20478
260 0.137297
265 0.160981
270 0.140206
275 0.11874
280 0.132024
285 0.133606
290 0.17723
295 0.122559
300 0.129613
305 0.167484
310 0.126637
315 0.131827
320 0.156706
325 0.188149
330 0.196691
335 0.147358
340 0.169197
345 0.188805
350 0.28773
355 0.15998
360 0.176162
365 0.166133
370 0.140745
375 0.165447
380 0.211533
385 0.198683
390 0.255967
395 0.196489
400 0.295305
405 0.365523
410 0.39334
415 0.484709
420 0.730588
425 19.1617
430 322.298
435 542.249
440 142.297
445 19.3316
450 6.42821
455 6.2652
460 8.12351
465 9.74559
470 11.1859
475 11.7173
480 12.7058
485 13.9481
490 15.0433
495 16.8528
500 17.1482
505 15.5722
510 14.6633
515 13.8038
520 12.3306
525 11.4289
530 10.6653
535 9.72516
540 8.9664
545 8.33617
550 7.29645
555 6.70715
560 5.84097
565 4.97697
570 4.06343
575 3.32257
580 2.75337
585 2.12004
590 1.60866
595 1.33165
600 1.37043
Ex : 443
200 0.156866
205 0.156877
210 0.12769
215 0.153288
220 0.132452
225 0.170292
230 0.159047
235 0.13042
240 0.187721
245 0.183584
250 0.146961
255 0.178823
260 0.16642
265 0.171096
270 0.1728
275 0.186499
280 0.157324
285 0.177193
290 0.182048
295 0.15758
300 0.147451
305 0.1605
310 0.193241
315 0.164483
320 0.145318
325 0.176954
330 0.186854
335 0.21163
340 0.172763
345 0.150358
350 0.148424
355 0.18256
360 0.148548
365 0.211776
370 0.203913
375 0.173927
380 0.264633
385 0.191275
390 0.227802
395 0.24751
400 0.234362
405 0.22401
410 0.261353
415 0.347317
420 0.519125
425 0.746573
430 22.2247
435 364.352
440 587.035
445 163.796
450 22.4917
455 7.29106
460 6.6222
465 8.08218
470 9.02235
475 9.82829
480 10.356
485 10.8197
490 11.7711
495 12.0966
500 13.0919
505 14.0843
510 12.4486
515 11.667
520 10.8714
525 9.56718
530 8.86174
535 7.99923
540 7.30243
545 6.60213
550 5.97783
555 5.57043
560 4.91356
565 4.20607
570 3.55616
575 2.85981
580 2.31381
585 1.70432
590 1.40772
595 1.22248
600 1.11514
Ex : 448
200 0.133307
205 0.164839
210 0.181857
215 0.13734
220 0.174206
225 0.144499
230 0.116194
235 0.185631
240 0.18242
245 0.14698
250 0.187056
255 0.171269
260 0.169026
265 0.197899
270 0.174576
275 0.133928
280 0.226494
285 0.227779
290 0.159147
295 0.143652
300 0.171606
305 0.161968
310 0.182891
315 0.199776
320 0.148439
325 0.113081
330 0.223146
335 0.194163
340 0.222465
345 0.211403
350 0.139318
355 0.209867
360 0.192881
365 0.174084
370 0.256653
375 0.19369
380 0.216095
385 0.205318
390 0.184243
395 0.174005
400 0.314555
405 0.247228
410 0.256843
415 0.395102
420 0.356264
425 0.518356
430 0.849832
435 23.2424
440 379.449
445 589.378
450 149.104
455 20.9477
460 6.90127
465 5.8191
470 6.72971
475 7.87739
480 8.28221
485 8.28791
490 9.21605
495 9.0369
500 9.32129
505 9.74745
510 10.9219
515 9.86763
520 8.45744
525 8.05462
530 7.15157
535 6.39335
540 6.05357
545 5.19358
550 4.80653
555 4.28148
560 3.76106
565 3.31042
570 2.73639
575 2.28062
580 1.78967
585 1.35206
590 1.07903
595 0.92198
600 0.503111
Ex : 453
200 0.179336
205 0.146874
210 0.148261
215 0.180706
220 0.139622
225 0.158459
230 0.196564
235 0.167482
240 0.19036
245 0.20261
250 0.171823
255 0.158602
260 0.170082
265 0.115642
270 0.153409
275 0.178524
280 0.176625
285 0.206963
290 0.188761
295 0.173264
300 0.145495
305 0.192721
310 0.204137
315 0.178058
320 0.152858
325 0.153027
330 0.181772
335 0.152641
340 0.193868
345 0.146633
350 0.131441
355 0.18961
360 0.179124
365 0.144754
370 0.184512
375 0.188393
380 0.192206
385 0.19937
390 0.164564
395 0.296159
400 0.210848
405 0.283024
410 0.318447
415 0.290644
420 0.263649
425 0.330021
430 0.501821
435 0.89621
440 34.1739
445 482.794
450 655.013
455 154.251
460 21.1166
465 6.28375
470 4.92168
475 5.36851
480 6.07832
485 6.35702
490 6.16024
495 6.61133
500 6.32494
505 6.43073
510 6.93957
515 8.17176
520 7.71141
525 6.18007
530 5.65735
535 5.17764
540 4.47226
545 3.91206
550 3.55502
555 3.25016
560 2.94382
565 2.52931
570 2.0419
575 1.74055
580 1.39336
585 1.0932
590 0.933117
595 0.652711
600 0.971662
Ex : 458
200 0.163098
205 0.212073
210 0.179276
215 0.136467
220 0.15911
225 0.160367
230 0.19587
235 0.24398
240 0.233667
245 0.196678
250 0.198868
255 0.156365
260 0.166665
265 0.164196
270 0.188425
275 0.167287
280 0.166587
285 0.231178
290 0.218362
295 0.167085
300 0.194443
305 0.133739
310 0.108489
315 0.235735
320 0.225992
325 0.185702
330 0.171802
335 0.128793
340 0.247217
345 0.243941
350 0.187018
355 0.171093
360 0.229747
365 0.226394
370 0.19239
375 0.201906
380 0.216001
385 0.210337
390 0.213521
395 0.267993
400 0.249903
405 0.258949
410 0.282698
415 0.233329
420 0.30363
425 0.364447
430 0.488064
435 0.627714
440 0.969891
445 28.3256
450 421.635
455 630.254
460 157.34
465 21.2098
470 5.6454
475 3.85604
480 4.14398
485 4.51137
490 4.66983
495 4.68221
500 4.26826
505 4.44668
510 4.22305
515 4.29716
520 5.1939
525 5.9315
530 4.91293
535 4.11639
540 3.82508
545 3.20488
550 2.75474
555 2.41985
560 2.15964
565 1.84382
570 1.81728
575 1.37683
580 1.09847
585 0.907028
590 0.702758
595 0.661577
600 0.395951
Ex : 463
200 0.110647
205 0.150151
210 0.113562
215 0.136192
220 0.183363
225 0.186596
230 0.160003
235 0.134669
240 0.18292
245 0.194086
250 0.145994
255 0.180589
260 0.136353
265 0.223136
270 0.17942
275 0.170101
280 0.174632
285 0.176123
290 0.185952
295 0.170291
300 0.190678
305 0.181535
310 0.207668
315 0.135097
320 0.176484
325 0.17991
330 0.159208
335 0.152173
340 0.177868
345 0.183641
350 0.220047
355 0.203012
360 0.224803
365 0.231499
370 0.146308
375 0.217352
380 0.156938
385 0.2381
390 0.195403
395 0.214651
400 0.22152
405 0.231137
410 0.255013
415 0.249375
420 0.213531
425 0.352856
430 0.35728
435 0.407071
440 0.685075
445 1.08174
450 28.5531
455 465.456
460 670.815
465 168.054
470 21.9012
475 4.90747
480 3.05109
485 2.94574
490 3.48803
495 3.39541
500 3.25308
505 3.02037
510 2.96283
515 3.05419
520 2.98582
525 3.63856
530 4.51272
535 4.17085
540 2.99404
545 2.76639
550 2.48173
555 2.15956
560 1.68718
565 1.62636
570 1.45206
575 1.06006
580 1.03916
585 0.751348
590 0.675038
595 0.549075
600 0.370493
Ex : 468
200 0.154351
205 0.125895
210 0.135952
215 0.131042
220 0.135175
225 0.133855
230 0.134512
235 0.169297
240 0.196646
245 0.160825
250 0.204562
255 0.176058
260 0.177871
265 0.137765
270 0.178374
275 0.157906
280 0.145978
285 0.167057
290 0.161002
295 0.122612
300 0.173016
305 0.163984
310 0.173293
315 0.178394
320 0.17936
325 0.13385
330 0.134227
335 0.137978
340 0.139035
345 0.178422
350 0.136778
355 0.153185
360 0.137869
365 0.216644
370 0.151362
375 0.223988
380 0.181164
385 0.18878
390 0.238271
395 0.184339
400 0.197773
405 0.209818
410 0.262234
415 0.216885
420 0.235304
425 0.22597
430 0.299349
435 0.409067
440 0.449461
445 0.665685
450 1.17491
455 30.9857
460 476.055
465 736.499
470 174.224
475 21.9736
480 4.47579
485 2.55407
490 2.34373
495 2.62519
500 2.68882
505 2.5179
510 2.35521
515 2.26242
520 2.22019
525 2.29917
530 2.73423
535 3.5207
540 3.82765
545 2.71776
550 2.30077
555 2.10715
560 1.74315
565 1.30659
570 1.15765
575 1.05017
580 0.879807
585 0.666827
590 0.611579
595 0.478505
600 0.616199
Ex : 473
200 0.183087
205 0.153122
210 0.123787
215 0.183171
220 0.200341
225 0.183628
230 0.189431
235 0.172347
240 0.170046
245 0.164957
250 0.178304
255 0.176913
260 0.155261
265 0.16663
270 0.167655
275 0.171966
280 0.16791
285 0.164241
290 0.198258
295 0.184559
300 0.183134
305 0.120742
310 0.11307
315 0.151612
320 0.144809
325 0.18953
330 0.233171
335 0.224627
340 0.206103
345 0.152787
350 0.159246
355 0.158468
360 0.202888
365 0.188743
370 0.163315
375 0.272077
380 0.194749
385 0.201393
390 0.184535
395 0.17135
400 0.194421
405 0.21453
410 0.204396
415 0.177214
420 0.215136
425 0.23493
430 0.284519
435 0.28977
440 0.326154
445 0.533702
450 0.744526
455 0.963436
460 33.179
465 473.03
470 675.082
475 157.594
480 19.8547
485 4.1494
490 2.15762
495 1.93649
500 2.27285
505 2.14134
510 2.13412
515 1.86877
520 1.90657
525 1.90389
530 1.93312
535 2.03623
540 2.9569
545 3.34322
550 2.5793
555 2.09947
560 1.80959
565 1.53201
570 1.17435
575 0.872759
580 0.70551
585 0.644896
590 0.652897
595 0.505583
600 0.382131
Ex : 478
200 0.206882
205 0.199733
210 0.180159
215 0.261134
220 0.205706
225 0.21727
230 0.138838
235 0.159492
240 0.159999
245 0.193855
250 0.224262
255 0.227632
260 0.211684
265 0.18819
270 0.140805
275 0.191567
280 0.175421
285 0.137172
290 0.21432
295 0.195716
300 0.195894
305 0.149097
310 0.150221
315 0.234153
320 0.214248
325 0.210049
330 0.179526
335 0.185058
340 0.242704
345 0.212358
350 0.204304
355 0.216324
360 0.215423
365 0.261256
370 0.194732
375 0.217273
380 0.236731
385 0.188108
390 0.199879
395 0.262863
400 0.29962
405 0.287147
410 0.344774
415 0.333781
420 0.403456
425 0.339125
430 0.410023
435 0.416276
440 0.337164
445 0.449337
450 0.514435
455 0.720688
460 1.14406
465 35
470 470.51
475 669.283
480 164.154
485 20.4109
490 3.98006
495 1.8776
500 1.71785
505 1.90115
510 2.00585
515 2.00986
520 1.65555
525 1.65875
530 1.7078
535 1.62236
540 1.58403
545 2.19119
550 2.96169
555 2.63323
560 1.84169
565 1.45349
570 1.3525
575 1.01168
580 0.907712
585 0.747148
590 0.5748
595 0.481044
600 0.580827
Ex : 483
200 0.177899
205 0.14864
210 0.218571
215 0.198801
220 0.158487
225 0.199119
230 0.215412
235 0.17835
240 0.213798
245 0.168407
250 0.208075
255 0.153455
260 0.207363
265 0.1843
270 0.237799
275 0.204183
280 0.210526
285 0.208103
290 0.139112
295 0.234931
300 0.205649
305 0.152631
310 0.18129
315 0.229832
320 0.133436
325 0.279824
330 0.197397
335 0.232704
340 0.206172
345 0.167072
350 0.189895
355 0.276136
360 0.180256
365 0.232064
370 0.191233
375 0.186426
380 0.229393
385 0.210219
390 0.229801
395 0.239251
400 0.253294
405 0.24295
410 0.217211
415 0.294985
420 0.256605
425 0.25191
430 0.289402
435 0.303299
440 0.287534
445 0.307956
450 0.377166
455 0.576832
460 0.780307
465 1.36052
470 28.6655
475 505.717
480 789.182
485 188.277
490 23.1782
495 4.24911
500 1.87512
505 1.58102
510 1.71151
515 1.8128
520 1.68211
525 1.81094
530 1.67235
535 1.51356
540 1.47873
545 1.5101
550 1.74372
555 2.5935
560 2.67357
565 1.60417
570 1.3797
575 1.22379
580 0.885869
585 0.739751
590 0.455805
595 0.388854
600 0.707743
Ex : 488
200 0.265409
205 0.172799
210 0.207733
215 0.224421
220 0.244896
225 0.205781
230 0.203327
235 0.21119
240 0.224138
245 0.155048
250 0.181054
255 0.206122
260 0.20411
265 0.224388
270 0.20923
275 0.200292
280 0.169686
285 0.219901
290 0.220175
295 0.231269
300 0.174769
305 0.26747
310 0.23749
315 0.193005
320 0.185328
325 0.226773
330 0.148397
335 0.180767
340 0.15853
345 0.184899
350 0.214148
355 0.192197
360 0.18954
365 0.2539
370 0.2203
375 0.237446
380 0.231927
385 0.197201
390 0.284557
395 0.239787
400 0.248715
405 0.240311
410 0.291983
415 0.25846
420 0.215217
425 0.334086
430 0.374312
435 0.259434
440 0.241965
445 0.328221
450 0.359926
455 0.447327
460 0.623739
465 0.973856
470 1.25322
475 33.8417
480 498.645
485 689.582
490 164.547
495 20.3905
500 3.79971
505 1.88715
510 1.496
515 1.5221
520 1.79404
525 1.79393
530 1.75061
535 1.44876
540 1.44919
545 1.49262
550 1.34142
555 1.24212
560 1.87221
565 2.33716
570 1.8147
575 1.1918
580 0.980217
585 0.810406
590 0.605338
595 0.474878
600 0.433348
Ex : 493
200 0.237923
205 0.209734
210 0.131996
215 0.237661
220 0.172976
225 0.19246
230 0.155757
235 0.202458
240 0.217045
245 0.15377
250 0.182362
255 0.199015
260 0.235888
265 0.295868
270 0.184583
275 0.175166
280 0.241545
285 0.156081
290 0.2011
295 0.210349
300 0.233646
305 0.232616
310 0.163731
315 0.189435
320 0.197452
325 0.239142
330 0.241274
335 0.21266
340 0.199115
345 0.212495
350 0.192124
355 0.227185
360 0.235573
365 0.219348
370 0.192709
375 0.193979
380 0.254525
385 0.263457
390 0.245212
395 0.189039
400 0.222239
405 0.278143
410 0.238381
415 0.242256
420 0.216684
425 0.233129
430 0.263569
435 0.300051
440 0.273626
445 0.314279
450 0.349476
455 0.412783
460 0.542737
465 0.53847
470 0.801684
475 1.13494
480 29.8741
485 498.588
490 733.604
495 169.463
500 20.8206
505 3.75832
510 1.80939
515 1.30591
520 1.43142
525 1.7451
530 1.60912
535 1.47585
540 1.32749
545 1.43953
550 1.34339
555 1.2489
560 1.19994
565 1.35173
570 1.98268
575 1.8311
580 1.08671
585 0.982044
590 0.807627
595 0.745499
600 0.561761
Ex : 498
200 0.301991
205 0.274366
210 0.244057
215 0.198431
220 0.245029
225 0.206647
230 0.239256
235 0.202175
240 0.212761
245 0.213657
250 0.28455
255 0.237938
260 0.235474
265 0.25701
270 0.209113
275 0.249751
280 0.282246
285 0.231582
290 0.22631
295 0.266615
300 0.234635
305 0.243591
310 0.240901
315 0.225305
320 0.238153
325 0.23716
330 0.246685
335 0.240134
340 0.234457
345 0.285015
350 0.281784
355 0.284526
360 0.174959
365 0.197561
370 0.220195
375 0.320848
380 0.283296
385 0.257588
390 0.192326
395 0.217856
400 0.25571
405 0.232578
410 0.26992
415 0.353442
420 0.29134
425 0.273475
430 0.26506
435 0.264921
440 0.271458
445 0.252911
450 0.354856
455 0.321947
460 0.424927
465 0.529017
470 0.625571
475 0.89628
480 1.20749
485 44.7816
490 589.344
495 753.497
500 169.375
505 20.9323
510 3.7162
515 1.7501
520 1.49267
525 1.61157
530 1.63141
535 1.53956
540 1.48193
545 1.29527
550 1.27671
555 1.24459
560 1.10316
565 1.05006
570 1.09268
575 1.46135
580 1.33714
585 0.927411
590 0.717185
595 0.778844
600 0.98979
Ex : 503
200 0.2063
205 0.24995
210 0.257998
215 0.280637
220 0.314663
225 0.254973
230 0.223457
235 0.197646
240 0.201334
245 0.190191
250 0.235283
255 0.226035
260 0.217837
265 0.246082
270 0.190291
275 0.217958
280 0.256501
285 0.257679
290 0.224409
295 0.227644
300 0.24909
305 0.210291
310 0.190585
315 0.202207
320 0.27722
325 0.240043
330 0.285657
335 0.269864
340 0.247722
345 0.23521
350 0.235057
355 0.209481
360 0.297677
365 0.163097
370 0.305019
375 0.299152
380 0.23802
385 0.27271
390 0.234055
395 0.256576
400 0.2832
405 0.279363
410 0.231534
415 0.269871
420 0.204849
425 0.334532
430 0.287807
435 0.30736
440 0.300496
445 0.315904
450 0.397385
455 0.368109
460 0.463473
465 0.443741
470 0.530772
475 0.611923
480 0.759773
485 1.11654
490 34.0923
495 533.702
500 738.049
505 172.429
510 21.2711
515 3.78218
520 1.7649
525 1.35398
530 1.37515
535 1.37269
540 1.53845
545 1.46546
550 1.27873
555 1.17752
560 1.11737
565 0.985919
570 0.917988
575 0.965812
580 0.943974
585 1.26734
590 1.00372
595 0.671118
600 0.663235
Ex : 508
200 0.196374
205 0.203104
210 0.199727
215 0.190019
220 0.22862
225 0.193087
230 0.201107
235 0.276072
240 0.193534
245 0.238951
250 0.20094
255 0.271101
260 0.242005
265 0.221461
270 0.278838
275 0.22572
280 0.208578
285 0.20041
290 0.193845
295 0.271571
300 0.218937
305 0.217063
310 0.241124
315 0.325327
320 0.216135
325 0.223161
330 0.28766
335 0.269978
340 0.227384
345 0.202998
350 0.2063
355 0.315391
360 0.236894
365 0.376101
370 0.271754
375 0.324859
380 0.272918
385 0.190185
390 0.276265
395 0.374481
400 0.230297
405 0.329503
410 0.211005
415 0.283752
420 0.295485
425 0.303262
430 0.284665
435 0.327762
440 0.338828
445 0.35672
450 0.423402
455 0.340946
460 0.339553
465 0.351915
470 0.408323
475 0.493779
480 0.562284
485 0.716531
490 1.11489
495 33.8691
500 482.088
505 679.602
510 167.731
515 20.7341
520 3.83833
525 1.87144
530 1.32109
535 1.36483
540 1.5501
545 1.44106
550 1.52866
555 1.26866
560 1.17292
565 1.0402
570 1.00682
575 0.876281
580 0.81775
585 0.811781
590 0.977498
595 0.853995
600 0.760823
Ex : 513
200 0.236715
205 0.174435
210 0.210633
215 0.285527
220 0.234579
225 0.223483
230 0.200856
235 0.289301
240 0.243653
245 0.256073
250 0.213126
255 0.191507
260 0.215938
265 0.272746
270 0.240938
275 0.305841
280 0.20748
285 0.269947
290 0.233294
295 0.255135
300 0.309995
305 0.256575
310 0.239528
315 0.272436
320 0.204143
325 0.226894
330 0.275058
335 0.242114
340 0.267555
345 0.283417
350 0.223067
355 0.240255
360 0.268986
365 0.23456
370 0.239778
375 0.247573
380 0.253587
385 0.145975
390 0.228563
395 0.257447
400 0.241969
405 0.283433
410 0.315145
415 0.277868
420 0.300915
425 0.323859
430 0.329431
435 0.263971
440 0.354752
445 0.35827
450 0.359723
455 0.311016
460 0.37593
465 0.380386
470 0.347457
475 0.412969
480 0.507079
485 0.582693
490 0.77402
495 1.07841
500 34.1696
505 511.356
510 709.096
515 173.252
520 21.3053
525 3.81927
530 1.63061
535 1.3169
540 1.06102
545 1.35025
550 1.32268
555 1.20811
560 0.99662
565 0.917491
570 0.917719
575 0.818902
580 0.704798
585 0.587296
590 0.532137
595 0.893086
600 1.25809
Ex : 518
200 0.178484
205 0.225145
210 0.165624
215 0.267566
220 0.202728
225 0.244725
230 0.216876
235 0.251107
240 0.228769
245 0.304717
250 0.281681
255 0.181685
260 0.1763
265 0.248553
270 0.18613
275 0.221134
280 0.272944
285 0.248269
290 0.215905
295 0.192902
300 0.173629
305 0.360126
310 0.206214
315 0.185605
320 0.146847
325 0.218849
330 0.253061
335 0.209604
340 0.196702
345 0.228864
350 0.206576
355 0.223875
360 0.28352
365 0.198971
370 0.246814
375 0.25264
380 0.22667
385 0.237571
390 0.297455
395 0.223625
400 0.290926
405 0.23654
410 0.348285
415 0.340094
420 0.292737
425 0.255847
430 0.301229
435 0.256245
440 0.285733
445 0.294594
450 0.306714
455 0.327184
460 0.390969
465 0.336082
470 0.42086
475 0.369987
480 0.385567
485 0.505332
490 0.559877
495 0.736597
500 0.989924
505 34.0906
510 535.042
515 746.117
520 180.91
525 22.4734
530 3.83196
535 1.97267
540 1.37857
545 1.07584
550 1.19414
555 1.38619
560 1.2139
565 1.06148
570 0.857572
575 0.765217
580 0.588292
585 0.556274
590 0.531179
595 0.550294
600 0.118277
Ex : 523
200 0.212049
205 0.240801
210 0.268306
215 0.339559
220 0.312214
225 0.217831
230 0.223433
235 0.253606
240 0.35096
245 0.211275
250 0.243648
255 0.245463
260 0.175151
265 0.252301
270 0.338866
275 0.282449
280 0.251856
285 0.210416
290 0.237393
295 0.188094
300 0.245796
305 0.21085
310 0.269692
315 0.262268
320 0.293732
325 0.295032
330 0.202935
335 0.26462
340 0.218431
345 0.269904
350 0.354966
355 0.328742
360 0.309236
365 0.25599
370 0.240233
375 0.258326
380 0.27076
385 0.299555
390 0.262159
395 0.262662
400 0.337259
405 0.221414
410 0.26141
415 0.403839
420 0.368269
425 0.291704
430 0.331976
435 0.334531
440 0.283007
445 0.287787
450 0.294502
455 0.274431
460 0.322067
465 0.308564
470 0.424409
475 0.307722
480 0.422169
485 0.490983
490 0.495346
495 0.554865
500 0.77688
505 0.996065
510 34.0882
515 482.678
520 706.542
525 181.988
530 22.3606
535 3.64579
540 1.54504
545 1.16974
550 0.973033
555 1.12491
560 0.933407
565 0.932757
570 0.956623
575 0.75311
580 0.583067
585 0.49119
590 0.425949
595 0.475775
600 0.877999
Ex : 528
200 0.191442
205 0.279518
210 0.282214
215 0.245791
220 0.25913
225 0.199975
230 0.215119
235 0.268492
240 0.246832
245 0.33428
250 0.343558
255 0.225885
260 0.385445
265 0.305418
270 0.216761
275 0.222841
280 0.34197
285 0.227657
290 0.300814
295 0.270611
300 0.262227
305 0.244143
310 0.227203
315 0.218369
320 0.282954
325 0.263937
330 0.247923
335 0.278365
340 0.281637
345 0.244615
350 0.271364
355 0.185271
360 0.260131
365 0.303477
370 0.238137
375 0.293093
380 0.263676
385 0.350533
390 0.232147
395 0.302705
400 0.242978
405 0.293688
410 0.283927
415 0.326531
420 0.339489
425 0.362835
430 0.262784
435 0.299252
440 0.234631
445 0.233507
450 0.311337
455 0.352419
460 0.277809
465 0.363568
470 0.331254
475 0.346439
480 0.336068
485 0.384557
490 0.390321
495 0.449621
500 0.520767
505 0.722404
510 1.14067
515 31.3008
520 535.356
525 770.383
530 187.071
535 22.8557
540 3.75819
545 1.54097
550 1.22484
555 1.02945
560 0.962033
565 0.91338
570 1.00482
575 0.783874
580 0.553677
585 0.529104
590 0.529635
595 0.485852
600 0.42454
Ex : 533
200 0.321082
205 0.241922
210 0.267541
215 0.311197
220 0.302695
225 0.237494
230 0.242564
235 0.234338
240 0.266423
245 0.27032
250 0.274091
255 0.223441
260 0.248749
265 0.27976
270 0.242809
275 0.238675
280 0.262292
285 0.207089
290 0.366778
295 0.243049
300 0.252962
305 0.249911
310 0.294083
315 0.242692
320 0.268958
325 0.271574
330 0.291989
335 0.355224
340 0.316828
345 0.260068
350 0.252624
355 0.27489
360 0.272901
365 0.278597
370 0.341408
375 0.281855
380 0.296495
385 0.28574
390 0.332901
395 0.262512
400 0.334587
405 0.264543
410 0.261737
415 0.350809
420 0.398562
425 0.320674
430 0.312923
435 0.355116
440 0.382644
445 0.324281
450 0.231229
455 0.238715
460 0.333078
465 0.424057
470 0.428759
475 0.386833
480 0.350564
485 0.337157
490 0.414645
495 0.343649
500 0.560369
505 0.510236
510 0.592853
515 0.937839
520 26.5353
525 411.493
530 650.908
535 169.399
540 20.8083
545 3.52526
550 1.3982
555 1.06516
560 0.940986
565 0.770565
570 0.923407
575 0.805172
580 0.619664
585 0.532476
590 0.445934
595 0.502068
600 0.91034
Ex : 538
200 0.208723
205 0.21187
210 0.209516
215 0.200965
220 0.261865
225 0.310567
230 0.320197
235 0.233841
240 0.187738
245 0.296562
250 0.307811
255 0.246946
260 0.22351
265 0.336342
270 0.244061
275 0.220952
280 0.27212
285 0.231856
290 0.218129
295 0.249786
300 0.259593
305 0.306
310 0.282672
315 0.313949
320 0.241477
325 0.28202
330 0.264177
335 0.339023
340 0.252272
345 0.298883
350 0.340232
355 0.31991
360 0.374726
365 0.3106
370 0.310151
375 0.351535
380 0.3389
385 0.311235
390 0.319716
395 0.3001
400 0.281785
405 0.292446
410 0.309279
415 0.298981
420 0.262197
425 0.366957
430 0.3993
435 0.351038
440 0.307054
445 0.393282
450 0.315263
455 0.359281
460 0.372697
465 0.384434
470 0.354865
475 0.444905
480 0.444825
485 0.33443
490 0.531471
495 0.36462
500 0.478132
505 0.506929
510 0.506442
515 0.748596
520 0.982712
525 23.3473
530 416.137
535 690.985
540 185.448
545 22.7505
550 3.74473
555 1.4677
560 1.14302
565 0.852132
570 0.690782
575 0.781842
580 0.61602
585 0.673988
590 0.516085
595 0.362209
600 0.274942
Ex : 543
200 0.286604
205 0.305756
210 0.205687
215 0.22925
220 0.236539
225 0.224868
230 0.288493
235 0.21161
240 0.230266
245 0.268497
250 0.305836
255 0.27621
260 0.237175
265 0.271451
270 0.250815
275 0.267047
280 0.181393
285 0.304467
290 0.234614
295 0.25965
300 0.319339
305 0.258041
310 0.335485
315 0.342952
320 0.287737
325 0.229156
330 0.26344
335 0.350708
340 0.257045
345 0.30192
350 0.279001
355 0.418293
360 0.324516
365 0.338543
370 0.323027
375 0.296274
380 0.315399
385 0.347065
390 0.227208
395 0.314216
400 0.38166
405 0.336981
410 0.377701
415 0.311833
420 0.269343
425 0.224164
430 0.314018
435 0.281608
440 0.247622
445 0.457908
450 0.347389
455 0.268326
460 0.288271
465 0.377372
470 0.325115
475 0.345315
480 0.366563
485 0.496131
490 0.324425
495 0.315343
500 0.443354
505 0.44017
510 0.432341
515 0.608501
520 0.623978
525 0.939336
530 20.1085
535 404.889
540 713.273
545 197.042
550 24.1643
555 3.74223
560 1.31591
565 0.917596
570 0.695101
575 0.563362
580 0.602307
585 0.644356
590 0.544743
595 0.463703
600 0.0527677
Ex : 548
200 0.306182
205 0.314553
210 0.327778
215 0.265504
220 0.273289
225 0.175015
230 0.284181
235 0.29314
240 0.230886
245 0.233968
250 0.257055
255 0.289871
260 0.28191
265 0.344734
270 0.231861
275 0.243301
280 0.256752
285 0.255249
290 0.237565
295 0.367126
300 0.306101
305 0.384569
310 0.308622
315 0.313783
320 0.222891
325 0.357257
330 0.364961
335 0.244987
340 0.213046
345 0.268346
350 0.240519
355 0.237221
360 0.294082
365 0.253273
370 0.28856
375 0.273628
380 0.288054
385 0.364252
390 0.388113
395 0.356232
400 0.291019
405 0.29111
410 0.279521
415 0.297893
420 0.286253
425 0.326411
430 0.368427
435 0.358992
440 0.39379
445 0.360988
450 0.289529
455 0.212443
460 0.384928
465 0.461573
470 0.366792
475 0.297022
480 0.332721
485 0.341267
490 0.327513
495 0.484905
500 0.350044
505 0.353685
510 0.399049
515 0.519167
520 0.632702
525 0.757602
530 0.934882
535 22.8681
540 397.579
545 661.605
550 191.06
555 23.26
560 3.63255
565 1.21027
570 0.896779
575 0.691082
580 0.574902
585 0.559243
590 0.532494
595 0.475391
600 0.373543
Ex : 553
200 0.340598
205 0.208479
210 0.314229
215 0.313783
220 0.212974
225 0.24728
230 0.287038
235 0.270392
240 0.333111
245 0.264277
250 0.254135
255 0.321523
260 0.304793
265 0.300074
270 0.414569
275 0.213395
280 0.223235
285 0.251603
290 0.212386
295 0.314327
300 0.353792
305 0.239367
310 0.18216
315 0.322191
320 0.262883
325 0.351547
330 0.272561
335 0.287482
340 0.315082
345 0.215267
350 0.219517
355 0.250098
360 0.34008
365 0.371186
370 0.435244
375 0.344083
380 0.312227
385 0.434971
390 0.391967
395 0.337296
400 0.336248
405 0.313569
410 0.288866
415 0.286493
420 0.281588
425 0.348499
430 0.318943
435 0.285013
440 0.264371
445 0.406362
450 0.26183
455 0.347995
460 0.325547
465 0.324712
470 0.332141
475 0.246045
480 0.299252
485 0.375077
490 0.319454
495 0.35139
500 0.420446
505 0.298809
510 0.315989
515 0.516054
520 0.587183
525 0.575408
530 0.645472
535 0.86674
540 22.6794
545 411.821
550 676.13
555 185.231
560 22.5653
565 3.51018
570 1.05177
575 0.692463
580 0.615022
585 0.425082
590 0.490009
595 0.500002
600 0.0568984
Ex : 558
200 0.238731
205 0.344231
210 0.323733
215 0.230582
220 0.268122
225 0.254159
230 0.319051
235 0.382626
240 0.441455
245 0.342889
250 0.267913
255 0.332972
260 0.310135
265 0.269468
270 0.259151
275 0.254627
280 0.243641
285 0.274627
290 0.261615
295 0.283423
300 0.248825
305 0.269147
310 0.375496
315 0.314213
320 0.366887
325 0.18067
330 0.279118
335 0.283127
340 0.22988
345 0.310922
350 0.391071
355 0.405431
360 0.380405
365 0.34293
370 0.363746
375 0.314364
380 0.368544
385 0.317647
390 0.337661
395 0.366473
400 0.344736
405 0.290762
410 0.382933
415 0.335955
420 0.512763
425 0.274806
430 0.442172
435 0.292835
440 0.32816
445 0.314331
450 0.339645
455 0.335277
460 0.385042
465 0.236732
470 0.307007
475 0.304496
480 0.375923
485 0.316558
490 0.373537
495 0.38778
500 0.293201
505 0.350927
510 0.321144
515 0.335532
520 0.43943
525 0.448059
530 0.449786
535 0.596317
540 0.89578
545 17.1966
550 338.619
555 642.432
560 188.774
565 22.9865
570 3.39209
575 1.02122
580 0.698706
585 0.631645
590 0.509656
595 0.528633
600 0.0601565
Ex : 563
200 0.262419
205 0.296704
210 0.2922
215 0.27364
220 0.300119
225 0.3514
230 0.355823
235 0.329331
240 0.346548
245 0.324326
250 0.357889
255 0.255045
260 0.427306
265 0.29771
270 0.310299
275 0.271297
280 0.339809
285 0.346825
290 0.321386
295 0.270233
300 0.361642
305 0.356327
310 0.405552
315 0.276452
320 0.366765
325 0.316761
330 0.334192
335 0.337996
340 0.359856
345 0.306175
350 0.333589
355 0.255127
360 0.318836
365 0.304312
370 0.362828
375 0.279156
380 0.304705
385 0.294468
390 0.394555
395 0.363096
400 0.374607
405 0.33465
410 0.434624
415 0.332223
420 0.306624
425 0.339824
430 0.448902
435 0.344591
440 0.315856
445 0.294769
450 0.381344
455 0.393977
460 0.337024
465 0.392942
470 0.448174
475 0.392797
480 0.362603
485 0.321492
490 0.329143
495 0.422973
500 0.342719
505 0.334401
510 0.327932
515 0.404831
520 0.475051
525 0.439088
530 0.424747
535 0.511672
540 0.646005
545 0.739082
550 16.3432
555 326.532
560 610.89
565 178.879
570 21.8202
575 3.09138
580 0.961789
585 0.653323
590 0.576032
595 0.536138
600 0.0778371
Ex : 568
200 0.219375
205 0.273694
210 0.29041
215 0.371126
220 0.303895
225 0.270494
230 0.330171
235 0.289517
240 0.241619
245 0.321279
250 0.323392
255 0.410852
260 0.395729
265 0.332909
270 0.293978
275 0.248986
280 0.228435
285 0.350497
290 0.283928
295 0.385
300 0.311698
305 0.380105
310 0.257721
315 0.24392
320 0.350393
325 0.347044
330 0.285074
335 0.266823
340 0.317548
345 0.250076
350 0.280006
355 0.33955
360 0.274273
365 0.319536
370 0.243907
375 0.304902
380 0.397723
385 0.393162
390 0.390864
395 0.322964
400 0.315341
405 0.272744
410 0.388251
415 0.345794
420 0.368674
425 0.295373
430 0.355715
435 0.319244
440 0.389446
445 0.379495
450 0.403705
455 0.364929
460 0.410117
465 0.520984
470 0.358077
475 0.283924
480 0.295281
485 0.380808
490 0.364
495 0.590804
500 0.466758
505 0.407233
510 0.371715
515 0.380955
520 0.416211
525 0.41515
530 0.492864
535 0.547988
540 0.507199
545 0.550996
550 0.76312
555 12.5896
560 303.855
565 657.002
570 218.733
575 26.4856
580 3.60173
585 0.942673
590 0.634566
595 0.392148
600 0.195222
Ex : 573
200 0.26249
205 0.416968
210 0.255261
215 0.258199
220 0.257033
225 0.27902
230 0.312536
235 0.279763
240 0.257731
245 0.432084
250 0.417908
255 0.370996
260 0.220118
265 0.276089
270 0.286071
275 0.244774
280 0.341416
285 0.267214
290 0.269946
295 0.349511
300 0.277399
305 0.373772
310 0.285631
315 0.261059
320 0.279883
325 0.360868
330 0.322954
335 0.213219
340 0.336737
345 0.228282
350 0.339824
355 0.34478
360 0.365345
365 0.313569
370 0.336062
375 0.344675
380 0.248469
385 0.297719
390 0.297087
395 0.328873
400 0.31625
405 0.319636
410 0.240871
415 0.234277
420 0.323782
425 0.308267
430 0.347602
435 0.392487
440 0.297392
445 0.463122
450 0.374724
455 0.395513
460 0.318803
465 0.3528
470 0.417139
475 0.361371
480 0.332038
485 0.360499
490 0.457588
495 0.37985
500 0.397736
505 0.417553
510 0.304496
515 0.322935
520 0.440209
525 0.449374
530 0.410255
535 0.47196
540 0.606332
545 0.475407
550 0.706828
555 0.872444
560 12.4424
565 291.061
570 546.04
575 170.204
580 20.7376
585 3.00726
590 0.794351
595 0.530846
600 0.437644
Ex : 578
200 0.262125
205 0.310838
210 0.372581
215 0.274179
220 0.252383
225 0.342952
230 0.263114
235 0.318367
240 0.426617
245 0.291108
250 0.303046
255 0.276942
260 0.336262
265 0.301755
270 0.255337
275 0.321757
280 0.304428
285 0.299725
290 0.298437
295 0.312684
300 0.296248
305 0.36521
310 0.341474
315 0.284764
320 0.242027
325 0.281859
330 0.369067
335 0.286762
340 0.271339
345 0.242927
350 0.327922
355 0.256509
360 0.338101
365 0.34949
370 0.269626
375 0.319784
380 0.382201
385 0.2233
390 0.407307
395 0.389226
400 0.429765
405 0.392009
410 0.261256
415 0.32518
420 0.416365
425 0.292222
430 0.344302
435 0.298676
440 0.260103
445 0.324703
450 0.342114
455 0.356582
460 0.33297
465 0.425356
470 0.359464
475 0.371503
480 0.38618
485 0.355805
490 0.312306
495 0.368088
500 0.322131
505 0.302977
510 0.386003
515 0.297506
520 0.37114
525 0.314218
530 0.404562
535 0.2952
540 0.423858
545 0.492512
550 0.545701
555 0.546098
560 0.724216
565 11.2103
570 248.74
575 477.229
580 157.439
585 18.9503
590 2.76118
595 0.713312
600 0.857364
Ex : 583
200 0.352483
205 0.364528
210 0.304279
215 0.369737
220 0.280236
225 0.334281
230 0.359395
235 0.318848
240 0.258633
245 0.260786
250 0.249983
255 0.224928
260 0.302923
265 0.239272
270 0.303835
275 0.276776
280 0.347825
285 0.471088
290 0.231121
295 0.240945
300 0.302264
305 0.318833
310 0.377036
315 0.253373
320 0.315492
325 0.311833
330 0.349515
335 0.251307
340 0.24789
345 0.240692
350 0.273616
355 0.319717
360 0.371974
365 0.343784
370 0.25204
375 0.311381
380 0.537641
385 0.451014
390 0.304309
395 0.354189
400 0.210204
405 0.335433
410 0.384136
415 0.30793
420 0.275168
425 0.322142
430 0.304186
435 0.33847
440 0.396025
445 0.42504
450 0.395896
455 0.234854
460 0.318906
465 0.326354
470 0.351852
475 0.214884
480 0.354922
485 0.325933
490 0.347972
495 0.274066
500 0.329215
505 0.463552
510 0.339967
515 0.482697
520 0.4079
525 0.387497
530 0.353588
535 0.311452
540 0.379376
545 0.381872
550 0.48119
555 0.437443
560 0.753855
565 0.695825
570 9.84827
575 198.171
580 378.377
585 115.346
590 13.9697
595 2.15946
600 0.840761
Ex : 588
200 0.359811
205 0.233612
210 0.277426
215 0.308001
220 0.1866
225 0.215247
230 0.342881
235 0.296605
240 0.239901
245 0.189679
250 0.374568
255 0.40732
260 0.364604
265 0.304225
270 0.234568
275 0.33363
280 0.377433
285 0.306819
290 0.339099
295 0.25858
300 0.205539
305 0.285215
310 0.264305
315 0.27731
320 0.309203
325 0.236945
330 0.281264
335 0.209716
340 0.268875
345 0.389444
350 0.331344
355 0.339053
360 0.288318
365 0.228229
370 0.379951
375 0.351366
380 0.378909
385 0.321555
390 0.372743
395 0.22141
400 0.379771
405 0.28196
410 0.368603
415 0.341719
420 0.285818
425 0.277772
430 0.399542
435 0.343316
440 0.371181
445 0.328864
450 0.448617
455 0.297897
460 0.301865
465 0.347858
470 0.630283
475 0.359353
480 0.323024
485 0.318442
490 0.25377
495 0.327308
500 0.47329
505 0.423215
510 0.319653
515 0.343421
520 0.46731
525 0.387223
530 0.436414
535 0.425117
540 0.43124
545 0.536298
550 0.587339
555 0.721721
560 0.909481
565 1.26413
570 1.51068
575 13.8331
580 171.423
585 331.644
590 106.025
595 12.9193
600 1.86114
Ex : 593
200 0.369348
205 0.269883
210 0.273507
215 0.289973
220 0.253736
225 0.303925
230 0.431894
235 0.43215
240 0.324845
245 0.286272
250 0.229781
255 0.307587
260 0.300537
265 0.215931
270 0.281445
275 0.271546
280 0.311046
285 0.243482
290 0.283929
295 0.39839
300 0.260652
305 0.311325
310 0.351894
315 0.301115
320 0.291303
325 0.258458
330 0.307315
335 0.269165
340 0.383144
345 0.37343
350 0.267751
355 0.329563
360 0.311239
365 0.32744
370 0.410125
375 0.261498
380 0.246243
385 0.305502
390 0.344658
395 0.297073
400 0.46633
405 0.346242
410 0.332897
415 0.379471
420 0.300541
425 0.322229
430 0.224997
435 0.390157
440 0.409104
445 0.301352
450 0.402852
455 0.299764
460 0.267978
465 0.328068
470 0.27972
475 0.385011
480 0.539211
485 0.423278
490 0.362874
495 0.323149
500 0.293082
505 0.300617
510 0.309412
515 0.38261
520 0.362573
525 0.341142
530 0.427993
535 0.352894
540 0.318787
545 0.371043
550 0.543256
555 0.441669
560 0.489274
565 0.512894
570 0.547661
575 0.745758
580 6.81526
585 157.468
590 296.884
595 90.1862
600 14.5643
Ex : 598
200 0.252816
205 0.331716
210 0.297221
215 0.277336
220 0.220288
225 0.248793
230 0.348192
235 0.341842
240 0.317998
245 0.368406
250 0.303779
255 0.298956
260 0.29547
265 0.328232
270 0.248556
275 0.221672
280 0.274465
285 0.246569
290 0.314832
295 0.269976
300 0.294179
305 0.265586
310 0.319053
315 0.415474
320 0.35769
325 0.269418
330 0.263816
335 0.235845
340 0.393478
345 0.376568
350 0.341501
355 0.312248
360 0.32842
365 0.276203
370 0.330235
375 0.266316
380 0.304578
385 0.406596
390 0.441826
395 0.373373
400 0.357583
405 0.247741
410 0.30703
415 0.304483
420 0.361889
425 0.269627
430 0.361213
435 0.215013
440 0.321577
445 0.343324
450 0.299727
455 0.403174
460 0.415699
465 0.344071
470 0.376041
475 0.322988
480 0.341387
485 0.379081
490 0.399961
495 0.339484
500 0.381601
505 0.275656
510 0.297418
515 0.319115
520 0.321275
525 0.312672
530 0.366218
535 0.34384
540 0.399062
545 0.370291
550 0.427645
555 0.376591
560 0.369351
565 0.301203
570 0.510806
575 0.532021
580 0.660305
585 6.12744
590 151.679
595 289.752
600 197.166
Ex : 603
200 0.265274
205 0.455072
210 0.463653
215 0.308043
220 0.268696
225 0.330217
230 0.302721
235 0.325385
240 0.354791
245 0.256192
250 0.322828
255 0.37797
260 0.424576
265 0.331275
270 0.336787
275 0.268917
280 0.324869
285 0.358414
290 0.290353
295 0.337473
300 0.419528
305 0.380737
310 0.234002
315 0.337777
320 0.27582
325 0.217356
330 0.220749
335 0.348491
340 0.358747
345 0.366398
350 0.342511
355 0.330409
360 0.385148
365 0.464744
370 0.479828
375 0.36213
380 0.272624
385 0.271859
390 0.430733
395 0.271724
400 0.30334
405 0.37646
410 0.346085
415 0.395255
420 0.403159
425 0.29474
430 0.37338
435 0.323109
440 0.280235
445 0.38691
450 0.263843
455 0.294587
460 0.440519
465 0.342571
470 0.443307
475 0.344065
480 0.303803
485 0.482742
490 0.425784
495 0.443918
500 0.381617
505 0.240578
510 0.331976
515 0.416664
520 0.390284
525 0.436463
530 0.327323
535 0.292365
540 0.311416
545 0.372483
550 0.312974
555 0.361924
560 0.335225
565 0.340068
570 0.41285
575 0.431852
580 0.472181
585 0.442915
590 5.80102
595 115.625
600 253.422
