File format V 1.0
ven. 13. janv. 17:41:54 2017
Operator : 
Comments : 

=============================================
SpectroFluorometer parameters
Mode : 3D measurement
Data : Fluorescence
Phospho. : Ordinary
Spectrum : Fluorescence

Scan speed : 2400 nm/mn
Response : 100 ms
PM Voltage : 700 V
Shutter : On

Lambda Ex. Start : 203
Lambda Ex. End : 603
Lambda Ex. Step : 5
Ex. Slit : 5 nm

Lambda Em. Start : 200
Lambda Em. End : 600
Lambda Em. Step : 5
Em. Slit : 5 nm

Repetition : 1
Decal lambda em : 10
=============================================
DATA
Ex : 203
200 7.24766
205 5.60378
210 4.17422
215 6.72024
220 4.088
225 8.69364
230 8.67642
235 5.23488
240 4.03176
245 6.61085
250 5.56025
255 7.10639
260 4.95321
265 7.07867
270 6.7874
275 6.4514
280 8.62013
285 8.78292
290 7.84958
295 5.47967
300 5.94497
305 4.28617
310 6.52706
315 4.89734
320 7.32839
325 4.53761
330 6.46474
335 5.10152
340 7.02968
345 8.74137
350 9.31888
355 7.76663
360 5.54721
365 5.57042
370 6.53103
375 10.0383
380 6.57226
385 5.18284
390 6.97889
395 5.92804
400 5.23343
405 6.43183
410 5.05676
415 6.99137
420 4.88788
425 6.96291
430 6.63441
435 5.59037
440 6.13819
445 5.32091
450 4.41898
455 5.58514
460 5.15521
465 7.68841
470 8.54198
475 11.9833
480 7.63848
485 5.72225
490 5.03788
495 5.22691
500 6.44287
505 7.51931
510 7.52621
515 6.22802
520 6.53541
525 5.16301
530 7.29855
535 6.98014
540 7.85002
545 6.89795
550 5.07171
555 6.03633
560 5.59479
565 4.5995
570 5.85784
575 6.46037
580 8.8587
585 7.34876
590 9.82253
595 5.35382
600 3.48941
Ex : 208
200 6.42424
205 5.19675
210 7.04048
215 4.87999
220 5.60965
225 6.28896
230 8.39609
235 6.96332
240 5.34626
245 5.0394
250 5.22396
255 3.78883
260 6.12042
265 5.96747
270 5.72262
275 7.09291
280 5.36648
285 5.85307
290 7.52793
295 5.54523
300 5.75362
305 7.11504
310 7.44783
315 7.20563
320 6.93995
325 6.66135
330 8.6236
335 10.1909
340 6.48121
345 6.42269
350 6.17074
355 6.26076
360 7.82308
365 5.70106
370 7.65744
375 5.90274
380 4.78201
385 6.2478
390 5.2883
395 4.30179
400 4.49653
405 7.23995
410 6.99845
415 4.87128
420 5.47769
425 6.34301
430 6.2637
435 5.49591
440 5.8602
445 5.66258
450 6.14907
455 4.8482
460 6.57207
465 7.24148
470 6.14127
475 6.28999
480 8.20356
485 5.04864
490 5.96491
495 6.13699
500 6.35432
505 8.52082
510 7.06528
515 5.68788
520 7.93478
525 8.04471
530 6.10353
535 6.02874
540 5.67505
545 9.94258
550 5.82388
555 4.74321
560 5.08211
565 4.90771
570 6.21942
575 6.43642
580 8.47971
585 5.72161
590 4.6043
595 4.27854
600 6.46876
Ex : 213
200 4.84513
205 8.03486
210 5.78641
215 7.18612
220 5.80559
225 7.38137
230 5.11059
235 6.18237
240 5.87441
245 7.51152
250 5.36304
255 3.73596
260 7.27691
265 8.15678
270 7.84144
275 6.21361
280 5.22119
285 3.42364
290 5.99812
295 4.68645
300 5.26617
305 6.07338
310 5.26723
315 5.01793
320 3.94605
325 6.21147
330 8.06818
335 7.155
340 5.61379
345 6.46604
350 9.28507
355 6.32741
360 4.73041
365 5.54862
370 6.36712
375 7.33958
380 8.90729
385 6.44713
390 5.68742
395 10.5687
400 8.08498
405 4.57772
410 6.22204
415 5.93002
420 6.40907
425 6.56862
430 9.27511
435 8.216
440 8.58814
445 6.77683
450 6.56469
455 6.70362
460 8.01321
465 6.78348
470 5.56084
475 5.52364
480 6.98577
485 4.36784
490 6.99447
495 7.05228
500 5.92281
505 5.47963
510 6.52459
515 6.23291
520 7.49215
525 5.40841
530 6.49809
535 6.41037
540 5.61196
545 6.76927
550 5.74955
555 4.56256
560 6.6667
565 4.75052
570 8.57854
575 5.94132
580 5.74315
585 5.56908
590 7.7958
595 7.96028
600 18.9253
Ex : 218
200 5.76126
205 6.02253
210 6.77117
215 5.43067
220 4.1124
225 6.90856
230 5.71045
235 7.35687
240 7.92681
245 6.74056
250 9.0185
255 6.21159
260 8.73382
265 4.94487
270 5.08069
275 5.88768
280 8.65886
285 7.19705
290 6.7062
295 5.6988
300 6.48959
305 5.24475
310 6.42273
315 6.84012
320 4.88938
325 5.67989
330 4.7672
335 6.90207
340 4.95481
345 4.06837
350 6.35435
355 5.40853
360 7.25975
365 5.79154
370 6.28416
375 5.11868
380 5.98873
385 6.72379
390 8.27844
395 5.72914
400 6.57067
405 4.83178
410 5.4182
415 5.82779
420 7.30582
425 7.15732
430 4.21856
435 7.16947
440 10.5236
445 8.06945
450 4.48492
455 9.65936
460 7.50746
465 5.35541
470 7.10558
475 6.71528
480 7.16025
485 4.71669
490 4.99118
495 8.12891
500 6.14898
505 4.69585
510 5.66227
515 4.21333
520 6.34702
525 6.04797
530 5.79426
535 7.45638
540 5.59254
545 5.64012
550 6.88609
555 7.06947
560 5.94446
565 6.50864
570 3.80676
575 5.78635
580 5.97963
585 8.71727
590 4.26221
595 5.34077
600 7.03274
Ex : 223
200 4.48018
205 5.37782
210 7.04818
215 6.53129
220 5.98529
225 6.90043
230 10.0943
235 5.12668
240 6.73629
245 4.78242
250 6.82086
255 6.81492
260 5.23486
265 4.85775
270 5.48506
275 4.30849
280 4.31744
285 7.69937
290 6.53485
295 5.52437
300 4.94227
305 5.07186
310 5.97494
315 3.9905
320 7.66811
325 8.28158
330 6.63487
335 6.77635
340 4.49793
345 8.47554
350 10.3833
355 6.39671
360 5.31053
365 5.77592
370 8.20013
375 8.94381
380 6.331
385 5.3484
390 5.74627
395 5.92279
400 4.85297
405 7.97889
410 6.01667
415 6.24431
420 4.61478
425 5.4832
430 4.34909
435 7.00555
440 5.50848
445 6.56799
450 5.03008
455 4.97191
460 6.24985
465 7.26912
470 5.92188
475 6.48085
480 4.47604
485 5.15604
490 8.79752
495 6.74519
500 6.85665
505 7.48953
510 4.57048
515 7.21073
520 4.76013
525 4.23218
530 7.76909
535 6.34124
540 5.29157
545 7.53516
550 5.42241
555 5.29119
560 4.32872
565 5.58431
570 6.07138
575 5.30413
580 6.43105
585 6.67924
590 6.88445
595 8.40152
600 0.956061
Ex : 228
200 4.35616
205 6.32436
210 6.17526
215 5.99274
220 5.06752
225 4.15887
230 6.04094
235 5.39633
240 4.89927
245 7.56509
250 6.83397
255 5.6136
260 4.00253
265 4.76885
270 4.62221
275 7.23294
280 5.51074
285 6.3935
290 4.64593
295 4.35336
300 5.75653
305 5.11318
310 6.35573
315 5.69693
320 5.22972
325 6.87577
330 5.41946
335 5.20169
340 8.13272
345 6.95862
350 5.1278
355 7.22254
360 6.09746
365 6.81531
370 4.84668
375 6.08421
380 6.2951
385 7.42197
390 4.86281
395 5.18918
400 8.87729
405 5.63221
410 6.9888
415 6.36945
420 5.28189
425 7.48217
430 4.20431
435 5.79976
440 6.48525
445 5.5747
450 5.09202
455 7.16034
460 5.73088
465 7.86892
470 5.00835
475 3.95877
480 5.22091
485 6.11275
490 5.18417
495 6.02887
500 4.48408
505 6.11901
510 6.32654
515 6.36185
520 3.68673
525 5.84102
530 5.02815
535 4.80463
540 6.76579
545 7.40651
550 4.81318
555 4.96784
560 4.44341
565 3.81665
570 6.0886
575 5.64495
580 6.64717
585 4.89461
590 7.28724
595 4.40906
600 0.501734
Ex : 233
200 3.72764
205 6.73658
210 6.93023
215 6.12402
220 6.3708
225 5.75282
230 6.73401
235 8.88742
240 5.76141
245 5.70596
250 4.94595
255 6.25415
260 4.39421
265 3.51675
270 4.89994
275 4.38043
280 5.82701
285 7.26477
290 4.89343
295 5.33789
300 7.41662
305 5.43028
310 6.64059
315 4.08472
320 5.80106
325 6.08162
330 5.5239
335 5.75886
340 5.21244
345 5.93156
350 3.84594
355 4.7871
360 4.95055
365 5.12821
370 4.177
375 3.81809
380 5.76635
385 5.57676
390 3.91645
395 7.25085
400 4.12955
405 3.91469
410 5.25201
415 4.72851
420 6.19994
425 5.64139
430 5.09732
435 4.96347
440 5.70973
445 5.28007
450 6.32565
455 6.29964
460 4.25454
465 6.92008
470 8.64416
475 6.77148
480 6.91705
485 4.57265
490 3.9999
495 4.1917
500 5.37259
505 5.61287
510 5.2599
515 5.77284
520 4.30413
525 5.01563
530 6.73488
535 8.32939
540 6.05166
545 6.70651
550 6.98737
555 6.56267
560 3.83948
565 7.22736
570 7.04766
575 5.32276
580 5.10276
585 5.61446
590 5.20486
595 5.01611
600 4.82459
Ex : 238
200 6.17472
205 3.86217
210 4.02069
215 6.51614
220 3.3128
225 4.90012
230 4.74631
235 6.75018
240 6.55606
245 5.43753
250 4.27312
255 5.40719
260 4.25971
265 3.833
270 5.39958
275 3.76064
280 3.97596
285 3.56222
290 3.827
295 5.38426
300 6.28701
305 5.74497
310 4.67956
315 4.51708
320 4.313
325 6.3602
330 3.5907
335 4.23119
340 3.87525
345 4.28121
350 4.13834
355 6.19337
360 3.93876
365 3.66602
370 5.91958
375 4.73115
380 3.18382
385 5.5558
390 6.06358
395 6.69049
400 6.4154
405 5.40421
410 5.72848
415 4.71224
420 6.29656
425 4.56566
430 5.12513
435 5.77384
440 4.76759
445 6.06642
450 5.88096
455 5.09002
460 5.48352
465 6.53659
470 5.46411
475 4.70872
480 4.59069
485 5.11516
490 5.23304
495 5.36839
500 5.03536
505 4.5928
510 4.99004
515 4.88134
520 5.04188
525 3.82842
530 5.72902
535 4.70497
540 4.51376
545 5.52562
550 6.59438
555 6.36837
560 3.77123
565 3.21011
570 4.21536
575 5.0925
580 6.42461
585 4.73297
590 3.66819
595 4.8584
600 4.09768
Ex : 243
200 4.06493
205 3.84196
210 4.80619
215 4.12951
220 3.33655
225 4.17051
230 3.60763
235 7.17552
240 4.41028
245 3.89469
250 5.09503
255 3.19103
260 3.5723
265 5.44901
270 5.60929
275 4.00647
280 3.88602
285 5.09907
290 5.36004
295 4.08017
300 3.96732
305 4.13912
310 3.31911
315 3.40483
320 2.50115
325 5.22119
330 3.48613
335 4.16809
340 6.20721
345 3.79641
350 3.6212
355 3.46551
360 4.81961
365 3.83079
370 4.8781
375 5.60792
380 4.28368
385 3.74375
390 6.66934
395 5.7934
400 4.91876
405 5.19282
410 4.47636
415 6.82324
420 6.13133
425 6.2738
430 4.571
435 4.52876
440 5.07842
445 4.03555
450 5.42367
455 4.11699
460 3.84423
465 6.24983
470 7.16146
475 3.76702
480 4.13836
485 4.35659
490 4.11903
495 4.60435
500 5.16166
505 5.57917
510 3.8332
515 5.33046
520 4.31039
525 3.65471
530 7.12991
535 3.88651
540 5.4432
545 5.32474
550 3.01689
555 4.42223
560 3.97785
565 2.41477
570 4.91032
575 4.5244
580 4.25183
585 3.29954
590 3.80013
595 3.43652
600 4.64484
Ex : 248
200 4.44857
205 4.69532
210 2.93091
215 2.97023
220 3.2834
225 3.68564
230 3.91926
235 3.23226
240 3.01656
245 3.56977
250 3.55263
255 3.71011
260 5.16644
265 3.78994
270 4.4192
275 3.26794
280 4.8433
285 3.75588
290 3.4366
295 3.27749
300 2.69303
305 3.65043
310 2.35784
315 3.05923
320 3.2555
325 4.34934
330 4.08942
335 4.51028
340 3.99389
345 3.26292
350 3.81141
355 3.96285
360 5.29235
365 6.07894
370 4.03655
375 4.52279
380 3.66145
385 5.42258
390 3.40549
395 3.21231
400 4.53199
405 5.68741
410 3.94755
415 3.14464
420 2.91799
425 4.13449
430 2.80901
435 3.69376
440 2.94981
445 4.11681
450 3.18634
455 3.11708
460 5.47018
465 5.13316
470 4.08427
475 3.99176
480 5.31852
485 3.45992
490 3.98962
495 4.20275
500 3.40877
505 4.24595
510 5.07696
515 4.62334
520 3.81701
525 6.27927
530 3.7215
535 5.09574
540 4.26488
545 4.74466
550 4.19957
555 4.13952
560 3.43997
565 2.95105
570 3.4979
575 4.41618
580 3.05314
585 3.4467
590 4.07863
595 4.30866
600 9.68467
Ex : 253
200 3.7129
205 3.25415
210 4.19509
215 2.9954
220 2.86827
225 3.27417
230 4.0108
235 2.44353
240 3.78846
245 2.58818
250 2.44884
255 3.86769
260 3.21662
265 2.5006
270 2.98326
275 2.13088
280 2.31375
285 2.90487
290 4.30863
295 3.3449
300 2.82825
305 2.88672
310 2.77091
315 3.28152
320 3.01891
325 3.0319
330 3.7543
335 2.70118
340 4.00063
345 3.75227
350 4.05621
355 2.86699
360 3.62919
365 3.54912
370 2.99185
375 3.17759
380 2.95858
385 2.85814
390 3.07612
395 3.69913
400 3.972
405 3.18085
410 4.78663
415 4.49918
420 3.32961
425 3.97623
430 3.58115
435 3.03402
440 2.01012
445 3.21755
450 3.80607
455 2.80926
460 2.82065
465 2.71177
470 2.98992
475 3.6855
480 4.38994
485 3.36948
490 3.90498
495 2.99959
500 2.33321
505 2.4486
510 4.09099
515 4.26506
520 2.42594
525 2.89669
530 2.50661
535 1.94225
540 4.07849
545 2.34362
550 3.60387
555 3.67931
560 3.71904
565 3.47141
570 3.58075
575 4.47606
580 2.66935
585 3.57657
590 2.92433
595 2.67458
600 3.33222
Ex : 258
200 2.5428
205 2.67253
210 1.95418
215 3.23965
220 3.25883
225 2.33529
230 2.39752
235 2.09437
240 3.23739
245 3.08339
250 3.98258
255 2.70042
260 2.84846
265 2.31249
270 2.39004
275 2.50834
280 2.63273
285 2.53191
290 2.28972
295 1.95983
300 2.13626
305 2.96476
310 3.03061
315 1.85142
320 3.24054
325 2.32118
330 2.25421
335 2.51293
340 2.63502
345 2.02998
350 2.77884
355 2.62393
360 3.10403
365 3.57146
370 3.34834
375 2.79481
380 2.48296
385 2.81406
390 2.37699
395 2.19605
400 2.95291
405 4.31178
410 2.69301
415 2.75374
420 2.12393
425 3.83436
430 3.53536
435 2.76727
440 3.06019
445 2.2276
450 2.70561
455 3.05007
460 3.61475
465 3.63856
470 2.69035
475 2.30095
480 3.05027
485 4.08578
490 2.67697
495 2.10275
500 2.01344
505 2.39012
510 2.27816
515 2.88144
520 2.87792
525 1.81158
530 2.99682
535 2.21668
540 2.41322
545 3.36767
550 3.80931
555 2.5415
560 3.3335
565 3.05737
570 1.40678
575 2.6023
580 2.59122
585 3.34238
590 2.47439
595 2.73011
600 5.55973
Ex : 263
200 2.31895
205 2.23944
210 1.82833
215 2.30595
220 1.72687
225 1.98401
230 2.6155
235 2.13184
240 2.13965
245 2.29059
250 2.43551
255 1.59137
260 1.81811
265 2.81945
270 2.06028
275 1.73249
280 1.63496
285 1.91619
290 2.03018
295 2.79444
300 2.35928
305 2.22476
310 1.82448
315 3.09084
320 2.53967
325 2.03919
330 1.5862
335 1.63836
340 1.83107
345 2.51025
350 2.65612
355 1.78242
360 1.96416
365 2.76259
370 2.45348
375 2.51475
380 2.92142
385 2.37127
390 1.42935
395 1.61817
400 2.25929
405 2.65236
410 1.99875
415 2.22247
420 2.22641
425 2.51551
430 2.69941
435 2.84959
440 2.54047
445 3.06192
450 2.76649
455 3.31259
460 2.15213
465 2.57257
470 2.70052
475 2.52693
480 3.00848
485 1.91565
490 2.36057
495 2.00641
500 1.94464
505 1.43806
510 1.41282
515 2.51895
520 2.65443
525 2.17619
530 1.99629
535 1.96803
540 2.0788
545 1.71037
550 1.99452
555 1.92437
560 3.01191
565 1.26314
570 2.86556
575 1.99613
580 1.79388
585 2.45743
590 1.12181
595 1.63353
600 2.01368
Ex : 268
200 2.01224
205 2.157
210 1.33684
215 1.34667
220 1.56172
225 1.04646
230 2.06435
235 1.65241
240 1.4545
245 1.10523
250 1.91357
255 1.74041
260 2.1422
265 1.83459
270 1.53752
275 2.0451
280 1.30591
285 1.80407
290 1.28195
295 1.23213
300 1.98492
305 1.67603
310 1.2026
315 2.06424
320 1.84777
325 2.20674
330 1.92035
335 1.95406
340 0.952752
345 2.38533
350 1.4701
355 1.61212
360 1.40399
365 1.27285
370 2.13101
375 1.99835
380 2.12136
385 1.52028
390 1.44547
395 2.41383
400 2.50669
405 2.4415
410 2.41628
415 1.54949
420 1.42201
425 1.92327
430 1.53152
435 1.99159
440 1.85407
445 2.23533
450 2.75074
455 1.84624
460 1.81587
465 1.9724
470 1.62454
475 2.27132
480 2.14911
485 1.62114
490 1.82291
495 1.47529
500 1.72756
505 1.32854
510 1.87967
515 1.54039
520 1.81372
525 2.79516
530 2.11486
535 2.06655
540 1.48819
545 2.10847
550 2.3268
555 1.65754
560 1.85351
565 2.21442
570 1.99166
575 2.14367
580 1.3305
585 2.28338
590 1.24072
595 1.68113
600 0.191306
Ex : 273
200 1.58333
205 1.70901
210 1.10117
215 0.648934
220 1.57385
225 1.74185
230 1.50655
235 1.20992
240 1.93776
245 1.9152
250 1.34366
255 1.00211
260 1.26126
265 1.34013
270 1.60437
275 1.349
280 1.3627
285 1.04396
290 1.62318
295 2.30591
300 1.69091
305 1.50188
310 1.76246
315 0.853743
320 1.24726
325 1.69999
330 1.12845
335 1.97991
340 1.27166
345 2.3919
350 1.27062
355 1.46052
360 1.29642
365 1.66838
370 3.13234
375 1.57941
380 1.37099
385 1.32435
390 2.23899
395 1.78398
400 2.18846
405 1.2576
410 1.69419
415 1.50167
420 1.34178
425 1.44894
430 1.8066
435 1.70078
440 1.08955
445 1.70417
450 1.64336
455 1.65086
460 1.76561
465 1.41305
470 1.74311
475 1.80515
480 1.22437
485 1.68464
490 1.4752
495 1.17877
500 1.1385
505 1.31882
510 1.09572
515 1.1608
520 1.49672
525 1.51881
530 1.4271
535 1.43738
540 1.49736
545 1.98072
550 1.56505
555 2.03009
560 1.18907
565 1.18951
570 1.2567
575 1.36792
580 0.876314
585 0.934319
590 1.36193
595 1.11377
600 0.126742
Ex : 278
200 1.07465
205 0.895067
210 0.820339
215 0.815848
220 1.19235
225 1.21931
230 1.17561
235 0.99025
240 1.70726
245 1.27154
250 0.626629
255 1.21816
260 0.754731
265 1.03675
270 0.962812
275 1.10508
280 0.923847
285 1.06135
290 1.28534
295 0.989294
300 1.10287
305 0.853324
310 1.08186
315 1.7079
320 1.16099
325 0.982
330 1.06664
335 0.80584
340 1.25421
345 1.10266
350 1.42316
355 1.36276
360 1.64112
365 1.24018
370 1.37905
375 1.33
380 1.60084
385 1.25885
390 1.38409
395 1.79357
400 1.34581
405 1.27092
410 1.39085
415 1.59599
420 1.59377
425 1.54436
430 1.33796
435 1.38233
440 1.94899
445 1.9038
450 1.18718
455 1.53305
460 1.50004
465 1.5795
470 1.47513
475 1.30036
480 1.34201
485 1.52184
490 1.47417
495 1.35303
500 1.28187
505 1.4901
510 1.25728
515 1.4647
520 1.63487
525 0.922967
530 1.33766
535 1.2954
540 0.940137
545 1.49876
550 1.22992
555 1.79877
560 1.24883
565 0.825167
570 1.40242
575 0.948537
580 0.859826
585 1.01845
590 1.11963
595 1.30067
600 0.148012
Ex : 283
200 1.16815
205 0.815894
210 0.972326
215 1.15964
220 0.898869
225 0.705595
230 0.837955
235 1.03983
240 0.932597
245 0.84715
250 1.23762
255 0.692877
260 0.973537
265 0.659852
270 1.12298
275 1.75097
280 1.2172
285 0.945418
290 0.901463
295 0.782679
300 0.87856
305 1.20577
310 1.51568
315 1.08486
320 1.16021
325 1.51714
330 0.902026
335 0.743459
340 1.18661
345 1.06949
350 0.789084
355 1.47071
360 0.868207
365 0.818992
370 0.98246
375 1.11976
380 0.973785
385 1.18359
390 1.23002
395 1.49273
400 1.24103
405 1.29469
410 1.70525
415 1.94514
420 1.18161
425 1.37048
430 1.14664
435 1.1322
440 0.996188
445 1.74545
450 1.68337
455 1.08933
460 1.20045
465 1.12556
470 1.02224
475 1.09835
480 1.28406
485 0.910426
490 1.33929
495 1.37597
500 1.66859
505 1.05841
510 1.42171
515 0.899985
520 0.929253
525 1.1901
530 0.827853
535 1.05954
540 0.95279
545 0.550005
550 0.954278
555 1.0727
560 1.53987
565 1.18856
570 1.02628
575 0.992651
580 1.1487
585 0.688128
590 0.767034
595 0.660999
600 0.0752191
Ex : 288
200 0.610353
205 1.0984
210 0.643511
215 0.60983
220 0.715169
225 0.682372
230 1.21152
235 0.747738
240 0.670444
245 0.650168
250 0.54006
255 0.554935
260 1.00014
265 0.779486
270 0.826446
275 0.619942
280 0.650654
285 0.809229
290 1.0061
295 0.824981
300 0.732949
305 0.696035
310 0.792343
315 0.599175
320 0.533963
325 0.633199
330 0.585722
335 0.887875
340 1.09526
345 1.05703
350 0.944898
355 1.59088
360 1.12076
365 1.17187
370 1.40945
375 1.15269
380 0.964974
385 0.866065
390 0.922954
395 1.15651
400 1.49687
405 1.1426
410 1.23599
415 1.53769
420 0.994633
425 0.951348
430 1.69983
435 1.64493
440 1.1705
445 1.57576
450 1.40014
455 1.13599
460 1.08235
465 0.971456
470 1.26982
475 1.17526
480 1.21324
485 0.867727
490 0.754494
495 0.757039
500 1.06348
505 1.10403
510 1.02603
515 0.671397
520 0.595268
525 0.620205
530 0.666797
535 0.953384
540 0.895139
545 0.954655
550 0.724197
555 0.854711
560 1.04567
565 1.0671
570 1.35221
575 1.23063
580 0.744643
585 0.904898
590 0.911208
595 0.397576
600 0.614945
Ex : 293
200 0.669612
205 0.611496
210 0.59257
215 0.586388
220 0.800596
225 0.723237
230 0.686871
235 0.794493
240 0.563921
245 0.649739
250 0.764225
255 0.854166
260 0.463831
265 0.595472
270 0.766617
275 0.676728
280 0.541667
285 0.808608
290 0.750452
295 0.691428
300 0.806918
305 1.01905
310 0.766756
315 0.479086
320 0.490399
325 0.618712
330 0.69075
335 0.733682
340 0.731134
345 0.838293
350 0.720024
355 0.758031
360 0.864146
365 0.670794
370 1.13629
375 0.83618
380 0.995341
385 0.846494
390 1.21851
395 1.19138
400 1.23843
405 1.48713
410 1.49679
415 0.969495
420 1.05312
425 1.30028
430 1.2773
435 1.33704
440 1.19904
445 1.15987
450 1.07623
455 0.973664
460 0.916919
465 1.15132
470 0.903659
475 0.986856
480 0.852989
485 0.915742
490 1.30201
495 0.764728
500 0.720896
505 0.857788
510 0.696411
515 0.949752
520 1.09549
525 0.881167
530 0.662418
535 0.813088
540 0.717647
545 0.735372
550 0.665595
555 0.596731
560 0.691709
565 0.539732
570 0.932773
575 0.8771
580 0.974981
585 0.763686
590 0.822956
595 0.572104
600 0.933583
Ex : 298
200 0.95068
205 0.58037
210 0.507058
215 0.538502
220 0.361835
225 0.787472
230 0.733104
235 0.80553
240 0.657737
245 0.629435
250 0.406187
255 0.623464
260 0.770265
265 0.65749
270 0.668923
275 0.410437
280 0.544458
285 0.328576
290 0.849933
295 0.632492
300 0.790519
305 0.528519
310 0.368915
315 0.607233
320 0.422589
325 0.6896
330 0.657445
335 0.721812
340 0.464052
345 0.803608
350 0.689873
355 0.817638
360 0.657096
365 0.923463
370 0.600196
375 0.961712
380 1.1619
385 1.54992
390 1.16901
395 1.06864
400 1.25522
405 1.00821
410 0.995242
415 1.30544
420 1.04008
425 1.06626
430 0.793628
435 0.952585
440 1.03098
445 1.02436
450 1.28915
455 0.898204
460 0.805325
465 0.915385
470 1.19981
475 0.775088
480 0.748792
485 0.919351
490 0.640955
495 0.662849
500 0.582268
505 0.592372
510 0.576449
515 0.737342
520 0.834502
525 0.640524
530 0.833589
535 0.654247
540 0.328894
545 0.496185
550 0.592432
555 0.640058
560 0.530098
565 0.420832
570 0.607797
575 0.584382
580 0.548917
585 0.907662
590 0.829747
595 0.749738
600 0.240792
Ex : 303
200 0.509232
205 0.656377
210 0.468341
215 0.420376
220 0.484178
225 0.628249
230 0.748472
235 0.420911
240 0.520959
245 0.816083
250 0.430343
255 0.692673
260 0.602923
265 0.746821
270 0.600174
275 0.602135
280 0.797845
285 0.624824
290 0.562054
295 0.56937
300 0.760764
305 0.44258
310 0.413052
315 0.514796
320 0.303765
325 0.663624
330 0.74605
335 0.479793
340 0.602124
345 0.717034
350 0.492484
355 0.645856
360 0.624963
365 0.844973
370 0.94055
375 0.917152
380 0.790184
385 0.868414
390 1.09909
395 1.04316
400 1.03464
405 0.932283
410 0.987654
415 0.984696
420 1.05268
425 0.904272
430 0.750668
435 1.00833
440 0.858587
445 0.902135
450 0.848175
455 0.690626
460 0.806141
465 0.913289
470 0.752451
475 0.881266
480 0.989457
485 0.734698
490 0.681132
495 0.585135
500 0.745557
505 0.715569
510 0.627501
515 0.540886
520 0.608147
525 0.820934
530 0.603044
535 0.571729
540 0.83191
545 0.77249
550 0.596014
555 0.537886
560 0.807713
565 0.764834
570 0.455044
575 0.31208
580 0.335888
585 0.43246
590 0.45618
595 0.551432
600 1.27121
Ex : 308
200 0.566253
205 0.584348
210 0.523345
215 0.444721
220 0.451025
225 0.230253
230 0.430518
235 0.544027
240 0.483813
245 0.473808
250 0.385666
255 0.379026
260 0.383734
265 0.440366
270 0.412623
275 0.33697
280 0.400353
285 0.294522
290 0.588819
295 0.758462
300 0.537783
305 0.427573
310 0.468696
315 0.357905
320 0.530671
325 0.424034
330 0.547527
335 0.673562
340 0.44554
345 0.395529
350 0.583728
355 0.650031
360 0.692819
365 0.746776
370 0.745996
375 0.890718
380 0.955217
385 0.685885
390 0.91147
395 1.00963
400 0.916516
405 0.768294
410 0.978844
415 1.07096
420 1.09652
425 1.0885
430 1.23984
435 1.29503
440 1.04057
445 1.06873
450 0.880521
455 0.845926
460 1.0216
465 0.757338
470 0.861465
475 0.685746
480 0.632167
485 0.681911
490 0.732732
495 0.515092
500 0.80537
505 0.900538
510 0.600264
515 0.49691
520 0.561487
525 0.555875
530 0.486658
535 0.488912
540 0.507415
545 0.639988
550 0.584883
555 0.680485
560 0.539212
565 0.35444
570 0.706576
575 0.431505
580 0.474353
585 0.412709
590 0.445525
595 0.426385
600 0.048521
Ex : 313
200 0.292048
205 0.258822
210 0.251893
215 0.542387
220 0.338197
225 0.365979
230 0.290956
235 0.448021
240 0.386662
245 0.394657
250 0.379954
255 0.436117
260 0.349989
265 0.432271
270 0.434463
275 0.337418
280 0.370915
285 0.330704
290 0.44795
295 0.395638
300 0.351105
305 0.533967
310 0.733372
315 0.382348
320 0.521071
325 0.396422
330 0.746593
335 0.500876
340 0.719028
345 0.599269
350 0.641801
355 0.863398
360 0.69793
365 0.875108
370 0.876291
375 1.0171
380 1.23827
385 1.25671
390 1.33754
395 1.26296
400 1.40517
405 1.32639
410 1.38641
415 1.4063
420 1.23817
425 1.71386
430 1.60612
435 1.49922
440 1.2833
445 1.36841
450 1.28496
455 1.14439
460 1.12871
465 1.02413
470 1.11795
475 0.959922
480 0.901298
485 0.862058
490 0.812929
495 0.876852
500 0.60761
505 0.769153
510 0.622415
515 0.637079
520 0.610985
525 0.449912
530 0.448507
535 0.605522
540 0.714302
545 0.489849
550 0.394548
555 0.43752
560 0.525953
565 0.349616
570 0.356214
575 0.317888
580 0.536628
585 0.481676
590 0.535983
595 0.469714
600 0.431709
Ex : 318
200 0.214929
205 0.362299
210 0.219836
215 0.305579
220 0.275096
225 0.371712
230 0.343009
235 0.267657
240 0.465934
245 0.32959
250 0.368973
255 0.419352
260 0.358721
265 0.546765
270 0.402628
275 0.388422
280 0.309262
285 0.264419
290 0.328166
295 0.447345
300 0.484445
305 0.337552
310 0.540305
315 0.752806
320 0.57613
325 0.633734
330 0.749046
335 0.958386
340 1.28601
345 1.99209
350 2.10464
355 2.9061
360 3.76411
365 4.52755
370 5.63677
375 6.57713
380 6.79104
385 8.42689
390 8.89103
395 9.43935
400 10.1242
405 10.3891
410 10.0031
415 10.2819
420 10.0515
425 9.72926
430 10.4556
435 9.71958
440 9.5251
445 8.91041
450 8.30112
455 8.14365
460 6.84711
465 6.38769
470 6.09044
475 5.69945
480 5.22787
485 4.6801
490 4.3355
495 3.64246
500 2.99776
505 2.71064
510 2.56751
515 2.40488
520 1.85644
525 1.54546
530 1.4624
535 1.50191
540 1.18785
545 1.07318
550 0.914803
555 0.794849
560 0.667111
565 0.617597
570 0.623445
575 0.738909
580 0.751945
585 0.508649
590 0.507956
595 0.392319
600 0.0446444
Ex : 323
200 0.249373
205 0.375969
210 0.341185
215 0.269336
220 0.255907
225 0.236579
230 0.243164
235 0.239311
240 0.365233
245 0.318311
250 0.277172
255 0.445116
260 0.383334
265 0.329599
270 0.315135
275 0.214849
280 0.291859
285 0.425057
290 0.296203
295 0.24084
300 0.370887
305 0.371057
310 0.383135
315 2.92075
320 12.1136
325 5.42418
330 2.35425
335 3.33701
340 4.30009
345 6.43698
350 9.17008
355 11.7882
360 14.8319
365 17.8218
370 20.5078
375 23.97
380 27.2271
385 31.7405
390 34.2724
395 36.542
400 36.6949
405 39.2474
410 39.0371
415 38.6905
420 38.7275
425 36.6363
430 35.8886
435 35.0371
440 33.7565
445 32.2103
450 31.3711
455 28.9294
460 26.765
465 24.9075
470 22.2826
475 21.2753
480 19.4175
485 17.3341
490 15.4122
495 13.5076
500 11.8275
505 10.6892
510 9.87401
515 8.30526
520 6.78062
525 6.1604
530 5.42848
535 4.50813
540 3.75483
545 3.37302
550 2.9162
555 2.62028
560 2.25864
565 1.90858
570 1.45032
575 1.12895
580 1.16673
585 0.783126
590 0.742386
595 0.614135
600 2.51949
Ex : 328
200 0.462798
205 0.364604
210 0.365437
215 0.316272
220 0.318559
225 0.351067
230 0.310148
235 0.391333
240 0.383261
245 0.243386
250 0.511381
255 0.355006
260 0.320651
265 0.356122
270 0.325978
275 0.410815
280 0.293603
285 0.316089
290 0.290152
295 0.264571
300 0.347408
305 0.292867
310 0.382309
315 1.08617
320 28.7413
325 67.881
330 22.1542
335 5.96741
340 6.15334
345 8.10209
350 9.99985
355 14.2426
360 18.6085
365 20.7422
370 23.3533
375 26.4496
380 30.9294
385 33.1774
390 36.2528
395 38.1145
400 40.1063
405 41.5894
410 40.7555
415 41.3942
420 41.5935
425 39.7043
430 39.1085
435 38.2702
440 37.2291
445 34.9876
450 33.507
455 32.6233
460 29.7904
465 27.3579
470 24.9951
475 23.3884
480 21.2628
485 19.0746
490 17.1197
495 16.2853
500 14.1532
505 12.3906
510 11.0409
515 9.67489
520 8.79702
525 7.59512
530 6.4409
535 5.52545
540 5.33267
545 4.48199
550 4.03395
555 3.29663
560 2.91177
565 2.52811
570 2.09602
575 1.93749
580 1.31614
585 1.24722
590 0.789007
595 0.684144
600 0.65083
Ex : 333
200 0.352753
205 0.305451
210 0.238457
215 0.345597
220 0.185214
225 0.237842
230 0.177333
235 0.24633
240 0.242593
245 0.224932
250 0.255701
255 0.22846
260 0.266945
265 0.257237
270 0.27467
275 0.25787
280 0.353905
285 0.244314
290 0.320293
295 0.255385
300 0.270693
305 0.272496
310 0.250538
315 0.343571
320 4.35217
325 86.0166
330 151.917
335 42.1101
340 8.80911
345 5.95217
350 6.09351
355 7.23587
360 10.9258
365 15.9304
370 16.7065
375 16.909
380 17.7317
385 18.7759
390 21.0771
395 21.7524
400 22.4466
405 23.4999
410 23.7027
415 23.9842
420 23.7913
425 22.7768
430 23.0054
435 22.1838
440 21.8457
445 21.4502
450 20.0826
455 19.1717
460 19.0115
465 17.3999
470 16.1869
475 15.1979
480 14.3931
485 14.0168
490 12.5604
495 11.3001
500 10.605
505 9.84291
510 8.60131
515 7.45868
520 7.03765
525 6.68711
530 5.58628
535 4.80237
540 4.4434
545 4.1835
550 3.61268
555 3.32696
560 2.84558
565 2.41089
570 2.13506
575 1.76056
580 1.29094
585 1.16161
590 0.913963
595 0.674619
600 0.744939
Ex : 338
200 0.245358
205 0.247484
210 0.194518
215 0.212146
220 0.288724
225 0.255554
230 0.250516
235 0.243946
240 0.140617
245 0.275738
250 0.291474
255 0.239156
260 0.194235
265 0.255071
270 0.174577
275 0.195395
280 0.211211
285 0.219806
290 0.29355
295 0.292789
300 0.216001
305 0.274676
310 0.274855
315 0.279187
320 0.44655
325 8.61968
330 134.294
335 200.711
340 50.8931
345 8.71511
350 4.64178
355 4.44803
360 4.48125
365 6.55211
370 11.4955
375 12.0015
380 10.4429
385 9.89405
390 10.5754
395 10.8402
400 11.3908
405 12.0534
410 13.1609
415 14.1236
420 13.715
425 13.6995
430 13.551
435 14.1261
440 13.7444
445 13.4901
450 13.326
455 13.332
460 13.3527
465 12.6256
470 12.3262
475 11.8484
480 11.2869
485 10.7553
490 10.3736
495 10.2912
500 9.2605
505 8.54627
510 7.68676
515 6.89322
520 6.9313
525 6.03368
530 5.50735
535 5.00709
540 4.43338
545 4.18987
550 3.51394
555 3.3997
560 2.75654
565 2.47028
570 1.9668
575 1.74531
580 1.6469
585 1.18495
590 0.951486
595 0.76442
600 0.858432
Ex : 343
200 0.273945
205 0.218783
210 0.167647
215 0.311291
220 0.223679
225 0.265479
230 0.343454
235 0.215176
240 0.236745
245 0.252891
250 0.198429
255 0.160559
260 0.210863
265 0.185608
270 0.20402
275 0.285879
280 0.252358
285 0.241008
290 0.245218
295 0.194534
300 0.363804
305 0.281151
310 0.300549
315 0.360232
320 0.287511
325 0.333597
330 11.3381
335 155.992
340 223.649
345 54.5399
350 8.38539
355 3.76122
360 3.11891
365 2.91478
370 4.69723
375 8.31064
380 10.0504
385 7.81688
390 7.19685
395 7.24156
400 7.70637
405 8.67952
410 10.1491
415 10.62
420 10.9158
425 10.8367
430 11.4046
435 11.9006
440 11.8084
445 12.3202
450 12.4795
455 12.2984
460 12.461
465 12.6127
470 12.7392
475 12.0523
480 11.6934
485 11.5898
490 11.6674
495 11.0779
500 10.0557
505 9.72554
510 9.07427
515 8.43606
520 7.69377
525 6.8244
530 6.26345
535 5.6587
540 5.11169
545 4.46831
550 4.28371
555 3.82806
560 3.14072
565 3.0626
570 2.41255
575 1.94006
580 1.39121
585 1.13362
590 1.26109
595 0.780308
600 0.308899
Ex : 348
200 0.186792
205 0.185257
210 0.215912
215 0.264461
220 0.199752
225 0.238252
230 0.143866
235 0.290291
240 0.205809
245 0.196836
250 0.278422
255 0.251934
260 0.302317
265 0.277602
270 0.245339
275 0.225876
280 0.234612
285 0.216729
290 0.209083
295 0.211993
300 0.217742
305 0.184766
310 0.194842
315 0.364418
320 0.291544
325 0.278222
330 0.504653
335 10.7205
340 151.46
345 228.449
350 59.9216
355 8.9717
360 3.35758
365 2.97247
370 2.49316
375 3.34244
380 6.79027
385 8.79509
390 7.48898
395 6.63861
400 6.53865
405 7.59265
410 8.96247
415 9.79853
420 10.2297
425 10.4566
430 11.2109
435 11.5419
440 12.7368
445 13.118
450 12.262
455 13.0276
460 13.4056
465 13.6592
470 14.3949
475 13.9744
480 13.6946
485 13.582
490 13.4225
495 13.1012
500 12.8002
505 11.3038
510 10.8933
515 10.0246
520 8.83469
525 8.40769
530 7.30715
535 6.8409
540 6.0629
545 5.62362
550 4.99928
555 4.39874
560 3.58805
565 3.26023
570 2.88235
575 2.41961
580 1.79414
585 1.40102
590 1.07304
595 0.886894
600 0.448882
Ex : 353
200 0.284906
205 0.224555
210 0.149952
215 0.226707
220 0.148906
225 0.187225
230 0.217863
235 0.188605
240 0.199257
245 0.224101
250 0.229787
255 0.224648
260 0.277994
265 0.200038
270 0.19697
275 0.208547
280 0.207451
285 0.224234
290 0.215625
295 0.213264
300 0.237362
305 0.21339
310 0.209541
315 0.239405
320 0.26474
325 0.198108
330 0.305963
335 0.480031
340 10.9575
345 156.191
350 225.151
355 56.9545
360 8.3019
365 2.87485
370 2.83808
375 2.57518
380 2.86315
385 5.79832
390 8.77434
395 8.07632
400 7.10774
405 7.26276
410 8.46302
415 9.47151
420 10.1978
425 10.2822
430 10.3392
435 11.8343
440 12.7977
445 13.2376
450 13.4865
455 13.9
460 14.676
465 15.2862
470 15.5527
475 16.4905
480 15.3615
485 15.6405
490 15.3075
495 14.7667
500 14.2601
505 13.8589
510 12.8321
515 11.2896
520 10.7393
525 9.83472
530 8.76059
535 7.73799
540 7.29465
545 6.38874
550 5.89972
555 5.08623
560 4.62106
565 3.98346
570 3.30398
575 2.61663
580 2.24501
585 1.8267
590 1.48761
595 1.10709
600 1.03736
Ex : 358
200 0.157656
205 0.207018
210 0.189848
215 0.232637
220 0.183728
225 0.197474
230 0.21629
235 0.202754
240 0.129785
245 0.222904
250 0.222375
255 0.224082
260 0.217205
265 0.174823
270 0.144923
275 0.277543
280 0.163998
285 0.142444
290 0.177511
295 0.13603
300 0.180073
305 0.262184
310 0.13766
315 0.195289
320 0.238791
325 0.187965
330 0.250262
335 0.232348
340 0.504257
345 10.1322
350 149.469
355 223.113
360 57.8577
365 8.15594
370 3.03794
375 3.17739
380 2.79137
385 2.80894
390 4.5307
395 8.45184
400 9.13397
405 9.12761
410 9.29409
415 9.83735
420 10.3782
425 10.832
430 11.0072
435 12.882
440 13.9071
445 14.4163
450 14.8449
455 14.8948
460 16.209
465 17.0023
470 17.1485
475 17.4393
480 17.7073
485 17.5481
490 17.4113
495 16.606
500 15.917
505 14.9387
510 14.0138
515 12.9479
520 11.5384
525 10.4291
530 9.66732
535 8.92729
540 8.19948
545 7.36023
550 6.57413
555 5.70695
560 4.92444
565 4.34324
570 3.77042
575 2.93694
580 2.36861
585 1.73308
590 1.44291
595 1.11576
600 1.16087
Ex : 363
200 0.197561
205 0.23834
210 0.19869
215 0.160247
220 0.176591
225 0.126234
230 0.146764
235 0.155118
240 0.176768
245 0.152193
250 0.155537
255 0.146744
260 0.208217
265 0.13728
270 0.188258
275 0.153233
280 0.179983
285 0.154866
290 0.220994
295 0.205521
300 0.238324
305 0.215496
310 0.186345
315 0.176135
320 0.1714
325 0.219829
330 0.204753
335 0.228719
340 0.275367
345 0.437966
350 9.85143
355 141.644
360 221.003
365 58.8438
370 8.34298
375 3.0895
380 3.21303
385 3.00985
390 2.9168
395 4.44874
400 8.60432
405 10.9765
410 11.4825
415 11.8815
420 11.487
425 11.8719
430 12.7202
435 14.1796
440 16.0375
445 16.0603
450 16.5285
455 16.8496
460 18.1779
465 19.18
470 19.3433
475 20.2692
480 20.3086
485 19.8081
490 19.3637
495 18.9168
500 18.3324
505 17.1878
510 16.0182
515 15.0139
520 13.5684
525 12.2036
530 11.3939
535 10.3279
540 9.37738
545 8.66102
550 7.30468
555 6.50509
560 5.86259
565 4.99682
570 4.12235
575 3.35943
580 2.51521
585 2.03842
590 1.5541
595 1.28563
600 1.05883
Ex : 368
200 0.136209
205 0.162222
210 0.156395
215 0.136337
220 0.153547
225 0.174826
230 0.146537
235 0.190485
240 0.129544
245 0.105438
250 0.131856
255 0.131507
260 0.121148
265 0.166549
270 0.136023
275 0.199598
280 0.144854
285 0.15192
290 0.140287
295 0.163174
300 0.180659
305 0.195763
310 0.202307
315 0.187776
320 0.188994
325 0.228096
330 0.230956
335 0.270521
340 0.245279
345 0.32758
350 0.449545
355 7.50345
360 133.922
365 216.068
370 60.2365
375 8.64956
380 2.85256
385 2.79256
390 2.86523
395 3.03609
400 4.46324
405 8.66076
410 12.7362
415 12.55
420 12.085
425 11.1214
430 11.6742
435 13.565
440 14.6212
445 15.3951
450 16.4123
455 18.1598
460 19.0955
465 20.708
470 21.1479
475 22.3398
480 21.7085
485 21.8836
490 22.3625
495 21.6694
500 21.027
505 20.1276
510 18.5486
515 17.4096
520 15.6594
525 14.5541
530 13.2827
535 11.7775
540 11.2505
545 9.96537
550 8.56214
555 7.59762
560 7.02698
565 5.72855
570 4.58769
575 3.84239
580 2.9557
585 2.27291
590 1.89843
595 1.40744
600 1.31999
Ex : 373
200 0.18539
205 0.201551
210 0.204512
215 0.153773
220 0.204572
225 0.20146
230 0.141777
235 0.154667
240 0.194363
245 0.141585
250 0.153144
255 0.179591
260 0.117348
265 0.13563
270 0.184424
275 0.113727
280 0.188824
285 0.109866
290 0.145595
295 0.112168
300 0.140734
305 0.137831
310 0.128626
315 0.133959
320 0.210704
325 0.157695
330 0.242133
335 0.225373
340 0.161616
345 0.234744
350 0.263947
355 0.400004
360 8.55931
365 136.687
370 217.995
375 61.1655
380 8.91497
385 3.12583
390 3.09126
395 3.10188
400 3.70384
405 5.51877
410 9.14762
415 12.6907
420 11.6454
425 10.641
430 10.8385
435 11.8398
440 13.302
445 14.7434
450 15.508
455 16.9397
460 18.5043
465 19.8825
470 21.5238
475 22.4265
480 23.2671
485 22.5483
490 23.3361
495 23.043
500 22.3801
505 21.2354
510 19.8437
515 18.5618
520 17.1528
525 16.1508
530 14.4514
535 13.0257
540 11.616
545 10.4681
550 9.26967
555 8.32221
560 7.29617
565 6.28254
570 5.31366
575 3.96022
580 3.30906
585 2.45664
590 2.00887
595 1.60243
600 0.712907
Ex : 378
200 0.162596
205 0.188468
210 0.118642
215 0.123034
220 0.151172
225 0.15941
230 0.170361
235 0.141162
240 0.13707
245 0.124517
250 0.198898
255 0.135916
260 0.17318
265 0.178704
270 0.137253
275 0.138401
280 0.16245
285 0.125772
290 0.156763
295 0.129849
300 0.120245
305 0.123304
310 0.165485
315 0.153729
320 0.134237
325 0.191423
330 0.128341
335 0.130356
340 0.174745
345 0.229023
350 0.242179
355 0.250069
360 0.397181
365 8.0436
370 138.763
375 226.57
380 62.6512
385 9.18294
390 3.1885
395 3.66984
400 4.62891
405 5.61969
410 7.48842
415 10.2591
420 13.4328
425 13.045
430 12.2615
435 13.115
440 13.968
445 14.8216
450 15.7676
455 17.1012
460 18.6183
465 19.8905
470 21.4565
475 21.9142
480 22.6928
485 23.0349
490 22.0919
495 22.1893
500 21.5694
505 20.8803
510 19.2826
515 18.079
520 16.467
525 15.0317
530 13.2375
535 12.4495
540 11.2321
545 10.0926
550 8.98768
555 7.97494
560 7.03732
565 6.09115
570 5.05876
575 4.0366
580 3.0653
585 2.45485
590 1.88555
595 1.53105
600 1.6782
Ex : 383
200 0.124179
205 0.206413
210 0.138546
215 0.106994
220 0.145186
225 0.132542
230 0.159517
235 0.11438
240 0.163983
245 0.114514
250 0.106378
255 0.109418
260 0.141017
265 0.114168
270 0.161268
275 0.189471
280 0.153688
285 0.0941919
290 0.147258
295 0.12458
300 0.10822
305 0.136943
310 0.119591
315 0.147655
320 0.177236
325 0.160352
330 0.191455
335 0.163337
340 0.224823
345 0.209358
350 0.199233
355 0.316224
360 0.315487
365 0.370111
370 8.13621
375 138.709
380 236.19
385 65.8609
390 9.87974
395 3.57239
400 4.2064
405 6.02118
410 8.14445
415 9.73701
420 10.6688
425 13.3594
430 14.5754
435 15.5226
440 16.0464
445 16.4854
450 16.867
455 17.9804
460 19.5018
465 21.0193
470 22.2029
475 23.5444
480 23.6669
485 23.612
490 23.0857
495 22.9408
500 21.7477
505 20.8104
510 19.6761
515 18.3438
520 16.7531
525 15.2708
530 13.5816
535 13.0709
540 11.7802
545 10.4432
550 8.74812
555 8.08872
560 7.25334
565 5.91329
570 5.19993
575 4.10008
580 3.2134
585 2.45189
590 1.95902
595 1.49505
600 0.732801
Ex : 388
200 0.201071
205 0.129229
210 0.152254
215 0.145402
220 0.138486
225 0.142511
230 0.190648
235 0.158855
240 0.143355
245 0.149904
250 0.150163
255 0.14896
260 0.0884375
265 0.116207
270 0.171676
275 0.14871
280 0.134168
285 0.112064
290 0.132602
295 0.106534
300 0.175237
305 0.121865
310 0.167257
315 0.118476
320 0.143995
325 0.155551
330 0.166761
335 0.187273
340 0.154929
345 0.197721
350 0.231337
355 0.23059
360 0.222444
365 0.290908
370 0.482059
375 8.68161
380 145.22
385 237.352
390 66.4547
395 9.82935
400 3.93031
405 5.47546
410 7.91833
415 9.07463
420 8.85369
425 9.83695
430 12.773
435 15.4198
440 16.2545
445 16.293
450 16.4519
455 17.6659
460 19.2244
465 20.5919
470 22.5475
475 23.8438
480 23.5818
485 24.7889
490 24.0035
495 23.5317
500 22.7591
505 21.9832
510 20.7815
515 19.1177
520 17.178
525 15.651
530 14.5986
535 13.5585
540 11.8433
545 10.8608
550 9.6738
555 8.6584
560 7.77481
565 6.40881
570 5.10303
575 3.95081
580 3.20212
585 2.7221
590 2.15325
595 1.54632
600 2.03293
Ex : 393
200 0.175906
205 0.112183
210 0.101348
215 0.122979
220 0.151251
225 0.168404
230 0.113934
235 0.149079
240 0.13264
245 0.166446
250 0.12154
255 0.126922
260 0.108875
265 0.137335
270 0.156338
275 0.166718
280 0.132914
285 0.104124
290 0.139668
295 0.145012
300 0.125239
305 0.169145
310 0.142067
315 0.161242
320 0.168496
325 0.145213
330 0.158488
335 0.211928
340 0.144899
345 0.138955
350 0.161367
355 0.180424
360 0.135709
365 0.168941
370 0.299793
375 0.442807
380 7.15956
385 141.196
390 241.157
395 67.2447
400 10.0379
405 4.59067
410 6.05247
415 7.29118
420 7.14127
425 7.29172
430 8.2529
435 10.9336
440 15.0173
445 15.2414
450 15.2871
455 16.5946
460 18.1047
465 19.6894
470 21.2021
475 23.0201
480 23.3651
485 23.5058
490 23.8953
495 23.7544
500 22.8222
505 22.2842
510 21.0545
515 18.9405
520 17.516
525 16.6211
530 15.5764
535 13.9543
540 12.6434
545 11.3189
550 10.0656
555 9.00643
560 7.93601
565 6.88386
570 5.41568
575 4.66985
580 3.64864
585 2.71327
590 2.18603
595 1.59478
600 0.764763
Ex : 398
200 0.12731
205 0.0984905
210 0.124246
215 0.113599
220 0.146713
225 0.130934
230 0.168907
235 0.116822
240 0.109774
245 0.127706
250 0.112691
255 0.14296
260 0.121186
265 0.101754
270 0.0960835
275 0.0954803
280 0.216465
285 0.163184
290 0.150053
295 0.102549
300 0.166754
305 0.114046
310 0.171169
315 0.133411
320 0.121188
325 0.12201
330 0.13528
335 0.132797
340 0.108312
345 0.166029
350 0.188439
355 0.158791
360 0.140693
365 0.13372
370 0.239233
375 0.33685
380 0.535631
385 7.66807
390 143.934
395 245.378
400 68.2941
405 11.1828
410 5.78603
415 6.64041
420 6.98296
425 7.06301
430 7.56043
435 9.03254
440 11.848
445 15.205
450 16.1066
455 16.8494
460 18.4897
465 19.821
470 21.6013
475 22.8303
480 23.9574
485 24.0746
490 24.284
495 24.2319
500 23.9202
505 22.4461
510 21.4548
515 20.1418
520 18.5826
525 16.9823
530 15.2557
535 14.0795
540 12.8572
545 11.4067
550 10.3462
555 9.1346
560 7.90901
565 7.05818
570 5.82564
575 4.73169
580 3.53272
585 2.81381
590 2.11351
595 1.62351
600 1.59296
Ex : 403
200 0.117989
205 0.121961
210 0.134488
215 0.124077
220 0.125671
225 0.114988
230 0.14197
235 0.13139
240 0.155905
245 0.187015
250 0.170546
255 0.126919
260 0.131103
265 0.130642
270 0.14605
275 0.107809
280 0.111012
285 0.114775
290 0.0926238
295 0.14715
300 0.149126
305 0.117328
310 0.116188
315 0.139593
320 0.1049
325 0.128866
330 0.136856
335 0.150071
340 0.181469
345 0.20077
350 0.22427
355 0.149644
360 0.195935
365 0.237136
370 0.184062
375 0.203277
380 0.335056
385 0.433573
390 8.34392
395 148.454
400 245.447
405 69.9436
410 12.959
415 7.30749
420 7.22134
425 7.80147
430 8.10961
435 9.128
440 10.7521
445 12.9764
450 16.3524
455 18.9381
460 19.6899
465 20.9697
470 22.3979
475 23.601
480 24.205
485 24.5417
490 25.5812
495 24.6325
500 24.7609
505 23.2283
510 21.5639
515 20.2729
520 18.3582
525 17.4112
530 15.8314
535 14.2443
540 13.1393
545 11.654
550 10.61
555 9.45696
560 8.29956
565 7.12746
570 5.78637
575 4.8172
580 3.81019
585 2.69622
590 2.29837
595 1.73021
600 2.68496
Ex : 408
200 0.125163
205 0.135285
210 0.11178
215 0.121131
220 0.110453
225 0.0821381
230 0.0952492
235 0.127231
240 0.149158
245 0.0977763
250 0.120971
255 0.0921254
260 0.133324
265 0.133984
270 0.10357
275 0.11484
280 0.177416
285 0.0994225
290 0.147943
295 0.141339
300 0.12879
305 0.174473
310 0.187536
315 0.128337
320 0.103378
325 0.155292
330 0.105945
335 0.11305
340 0.0917568
345 0.13995
350 0.146959
355 0.136638
360 0.186976
365 0.138546
370 0.242966
375 0.16842
380 0.238742
385 0.329744
390 0.470436
395 8.65151
400 152.67
405 250.766
410 70.834
415 13.7565
420 7.14181
425 6.78659
430 7.51507
435 8.80511
440 10.0143
445 11.5279
450 13.0625
455 17.1913
460 20.3891
465 21.68
470 22.9859
475 23.44
480 24.5512
485 24.6888
490 25.4219
495 24.8691
500 24.1798
505 23.5274
510 21.9925
515 20.6065
520 19.1281
525 17.38
530 16.1412
535 14.408
540 13.3616
545 11.9329
550 10.3521
555 9.50625
560 8.17206
565 7.12202
570 5.95888
575 4.84531
580 3.85589
585 2.92977
590 2.22107
595 1.58921
600 1.55871
Ex : 413
200 0.12978
205 0.146738
210 0.166919
215 0.108252
220 0.145075
225 0.124715
230 0.0872669
235 0.101826
240 0.1578
245 0.144527
250 0.117236
255 0.113741
260 0.115967
265 0.157653
270 0.127305
275 0.130731
280 0.0984311
285 0.187899
290 0.138083
295 0.14155
300 0.102897
305 0.139106
310 0.100383
315 0.190443
320 0.200326
325 0.138413
330 0.116315
335 0.111561
340 0.152008
345 0.18892
350 0.127484
355 0.135626
360 0.118423
365 0.123923
370 0.130218
375 0.162519
380 0.15791
385 0.248042
390 0.321445
395 0.452593
400 9.65167
405 160.21
410 257.675
415 70.2553
420 12.1267
425 5.20473
430 5.07144
435 6.59569
440 7.58292
445 8.71468
450 10.4413
455 12.8708
460 16.0157
465 20.0833
470 21.6035
475 21.9715
480 23.1016
485 23.1455
490 23.3158
495 23.5806
500 23.3749
505 22.5887
510 21.2247
515 19.4399
520 18.4461
525 17.0757
530 15.6559
535 14.424
540 13.1659
545 11.4803
550 10.2697
555 8.99393
560 7.8758
565 6.95915
570 5.64247
575 4.6133
580 3.61273
585 2.7701
590 2.12806
595 1.71767
600 1.54261
Ex : 418
200 0.126059
205 0.105941
210 0.123192
215 0.125015
220 0.137008
225 0.135286
230 0.0861379
235 0.121607
240 0.141203
245 0.134894
250 0.0890305
255 0.133758
260 0.105415
265 0.0987904
270 0.118149
275 0.107928
280 0.124507
285 0.163687
290 0.17237
295 0.146548
300 0.100628
305 0.081196
310 0.148603
315 0.107679
320 0.0727565
325 0.135001
330 0.108718
335 0.107596
340 0.16917
345 0.157464
350 0.123366
355 0.204247
360 0.123035
365 0.168538
370 0.158421
375 0.199862
380 0.111582
385 0.179359
390 0.235761
395 0.260355
400 0.499779
405 9.45904
410 160.567
415 260.028
420 72.3668
425 10.7023
430 3.77786
435 3.57924
440 5.07672
445 6.4469
450 8.06341
455 10.0398
460 12.7099
465 15.599
470 19.6467
475 21.4661
480 21.1425
485 21.4994
490 21.512
495 21.6547
500 21.4245
505 20.138
510 19.4373
515 18.1195
520 17.2494
525 16.0015
530 14.7816
535 13.3731
540 11.9249
545 10.6694
550 9.71278
555 8.76322
560 7.79941
565 6.67464
570 5.37923
575 4.35124
580 3.30415
585 2.64036
590 2.02095
595 1.65723
600 1.30972
Ex : 423
200 0.0919396
205 0.151018
210 0.15731
215 0.0933229
220 0.0868358
225 0.0849506
230 0.110771
235 0.110322
240 0.105108
245 0.11028
250 0.169643
255 0.169307
260 0.111802
265 0.220282
270 0.123333
275 0.124793
280 0.0966353
285 0.142389
290 0.0767475
295 0.206455
300 0.199466
305 0.132236
310 0.117763
315 0.08805
320 0.110445
325 0.1319
330 0.117942
335 0.120337
340 0.103039
345 0.125971
350 0.123791
355 0.168364
360 0.144941
365 0.115736
370 0.1402
375 0.16006
380 0.204769
385 0.169409
390 0.208227
395 0.235505
400 0.314674
405 0.562801
410 9.48296
415 168.957
420 265.72
425 69.4769
430 9.78136
435 3.43045
440 3.35571
445 5.18813
450 6.77317
455 8.55394
460 10.7085
465 12.9377
470 14.8377
475 18.3065
480 20.8313
485 20.1328
490 20.3878
495 20.3169
500 19.9519
505 19.1272
510 18.0334
515 16.9878
520 15.7957
525 14.4345
530 13.5311
535 12.4678
540 11.2388
545 9.98598
550 8.80575
555 8.06244
560 7.17144
565 5.95251
570 5.10313
575 3.98732
580 3.38293
585 2.54194
590 1.89434
595 1.43849
600 1.13126
Ex : 428
200 0.0830557
205 0.0906505
210 0.0824269
215 0.125426
220 0.105623
225 0.0928167
230 0.109101
235 0.0884429
240 0.161606
245 0.177332
250 0.120995
255 0.126442
260 0.0947261
265 0.110538
270 0.102261
275 0.0930845
280 0.152956
285 0.15689
290 0.119697
295 0.152378
300 0.120287
305 0.104665
310 0.147726
315 0.138196
320 0.110755
325 0.120371
330 0.156823
335 0.121577
340 0.126771
345 0.0824149
350 0.157209
355 0.144936
360 0.164004
365 0.188991
370 0.114937
375 0.162054
380 0.162941
385 0.179229
390 0.149595
395 0.212674
400 0.272639
405 0.310477
410 0.480497
415 10.384
420 171.083
425 270.977
430 73.0371
435 10.1702
440 3.63832
445 3.85483
450 5.86458
455 7.57064
460 9.631
465 11.0807
470 12.843
475 14.4454
480 17.128
485 19.6513
490 19.2396
495 18.8323
500 18.1605
505 17.5354
510 16.2302
515 15.2423
520 14.2079
525 13.3583
530 12.0031
535 11.3284
540 10.1701
545 8.89136
550 8.42474
555 7.35519
560 6.47655
565 5.61116
570 4.41339
575 3.80637
580 2.7956
585 2.14309
590 1.8329
595 1.27521
600 0.876157
Ex : 433
200 0.109202
205 0.157416
210 0.0984253
215 0.161313
220 0.119918
225 0.177739
230 0.121907
235 0.138982
240 0.149893
245 0.155592
250 0.128247
255 0.150346
260 0.127578
265 0.157696
270 0.13939
275 0.107523
280 0.129296
285 0.101141
290 0.126626
295 0.0797805
300 0.128428
305 0.128627
310 0.139529
315 0.143239
320 0.168335
325 0.130229
330 0.133699
335 0.157824
340 0.144509
345 0.203961
350 0.128707
355 0.113904
360 0.0952558
365 0.110141
370 0.129373
375 0.163711
380 0.188376
385 0.157056
390 0.11232
395 0.18946
400 0.217278
405 0.327605
410 0.37022
415 0.485412
420 11.9135
425 187.754
430 285.278
435 73.5146
440 10.7106
445 4.08721
450 4.82216
455 6.70519
460 8.69335
465 9.91416
470 11.1714
475 12.5469
480 13.7044
485 15.4475
490 17.6518
495 17.4493
500 16.0528
505 15.9061
510 14.8614
515 13.6375
520 12.0541
525 11.5844
530 10.7843
535 9.7168
540 8.74302
545 8.20282
550 7.27166
555 6.22912
560 5.43596
565 4.58131
570 3.93369
575 3.44886
580 2.66378
585 2.01426
590 1.57334
595 1.30833
600 0.995901
Ex : 438
200 0.16802
205 0.10437
210 0.10054
215 0.0993926
220 0.155676
225 0.145506
230 0.154334
235 0.115318
240 0.159515
245 0.144417
250 0.137696
255 0.106812
260 0.106105
265 0.123981
270 0.135211
275 0.120629
280 0.136578
285 0.116739
290 0.153245
295 0.170107
300 0.102955
305 0.10638
310 0.134833
315 0.119874
320 0.12332
325 0.0960142
330 0.129901
335 0.189581
340 0.20741
345 0.153193
350 0.13575
355 0.116981
360 0.13801
365 0.148
370 0.173235
375 0.171776
380 0.158815
385 0.166697
390 0.116068
395 0.155225
400 0.117919
405 0.245728
410 0.26696
415 0.342027
420 0.544927
425 11.798
430 189.821
435 306.273
440 79.7469
445 11.9953
450 5.06915
455 5.68645
460 7.01772
465 8.71191
470 9.54073
475 10.475
480 11.5952
485 12.2385
490 13.5212
495 14.9359
500 15.3489
505 13.5604
510 12.7382
515 11.6463
520 10.7521
525 9.6773
530 8.99953
535 8.49206
540 7.73716
545 6.92395
550 6.29764
555 5.27498
560 4.58071
565 4.33705
570 3.58522
575 2.94952
580 2.20363
585 1.74004
590 1.30276
595 1.02748
600 1.24024
Ex : 443
200 0.223099
205 0.113786
210 0.121052
215 0.16664
220 0.154438
225 0.12268
230 0.135059
235 0.102702
240 0.0901065
245 0.104383
250 0.133927
255 0.0951428
260 0.0852294
265 0.178688
270 0.111828
275 0.14697
280 0.144831
285 0.132824
290 0.137829
295 0.107979
300 0.153467
305 0.128888
310 0.165988
315 0.123034
320 0.124445
325 0.127404
330 0.166764
335 0.151761
340 0.169252
345 0.166564
350 0.131689
355 0.152199
360 0.204956
365 0.148384
370 0.169331
375 0.174594
380 0.123558
385 0.154188
390 0.182343
395 0.14789
400 0.167599
405 0.166233
410 0.227077
415 0.341335
420 0.329149
425 0.520392
430 13.123
435 204.366
440 313.848
445 81.0468
450 12.3822
455 5.53066
460 5.66719
465 6.98206
470 7.96944
475 8.74121
480 9.14462
485 9.90495
490 10.3735
495 11.0046
500 12.2703
505 12.6969
510 11.1702
515 10.1747
520 9.37221
525 8.36719
530 7.53232
535 6.99203
540 6.5431
545 5.63987
550 5.06092
555 4.72912
560 4.06015
565 3.49243
570 3.08621
575 2.4406
580 1.73408
585 1.31198
590 1.01924
595 0.941941
600 0.544303
Ex : 448
200 0.132623
205 0.159816
210 0.144409
215 0.116754
220 0.14075
225 0.121878
230 0.183454
235 0.127181
240 0.171546
245 0.126251
250 0.165705
255 0.125204
260 0.141306
265 0.165166
270 0.143555
275 0.132655
280 0.12553
285 0.13086
290 0.108633
295 0.190423
300 0.128914
305 0.161247
310 0.128099
315 0.14052
320 0.156069
325 0.17133
330 0.159989
335 0.105477
340 0.14377
345 0.1481
350 0.124713
355 0.139355
360 0.168249
365 0.145101
370 0.196757
375 0.159078
380 0.203767
385 0.176194
390 0.133614
395 0.139673
400 0.209614
405 0.18888
410 0.189816
415 0.246614
420 0.287809
425 0.343483
430 0.63249
435 13.6538
440 218.278
445 328.027
450 85.1302
455 13.0582
460 5.47553
465 5.02696
470 5.9971
475 7.00232
480 7.38223
485 7.37706
490 7.85805
495 8.02371
500 7.8536
505 8.49139
510 9.81921
515 8.68856
520 7.32789
525 6.62922
530 6.14425
535 5.5421
540 4.97043
545 4.36266
550 3.91502
555 3.53208
560 3.17345
565 2.80494
570 2.41933
575 1.9427
580 1.49394
585 1.249
590 0.892107
595 0.782293
600 0.710554
Ex : 453
200 0.128362
205 0.141759
210 0.135093
215 0.0899458
220 0.140347
225 0.190789
230 0.140222
235 0.139385
240 0.129272
245 0.152432
250 0.144323
255 0.14507
260 0.119821
265 0.114958
270 0.119665
275 0.142501
280 0.104803
285 0.126419
290 0.112891
295 0.104488
300 0.107256
305 0.113015
310 0.150312
315 0.156639
320 0.147614
325 0.124001
330 0.203929
335 0.120032
340 0.128707
345 0.167015
350 0.151135
355 0.108001
360 0.167265
365 0.163234
370 0.184246
375 0.119464
380 0.158277
385 0.1137
390 0.150064
395 0.14671
400 0.162099
405 0.193874
410 0.201981
415 0.235071
420 0.23199
425 0.261938
430 0.352248
435 0.602959
440 14.591
445 235.909
450 341.326
455 82.8977
460 12.5164
465 4.77689
470 4.23117
475 4.75615
480 5.4596
485 5.79092
490 5.5185
495 5.73399
500 5.36275
505 5.42047
510 5.75456
515 7.01946
520 6.88306
525 5.70978
530 4.99889
535 4.40146
540 3.72787
545 3.3959
550 2.9182
555 2.70718
560 2.40094
565 2.05694
570 1.96397
575 1.53583
580 1.16836
585 0.972955
590 0.801795
595 0.603402
600 0.480918
Ex : 458
200 0.129977
205 0.102398
210 0.161312
215 0.112045
220 0.134912
225 0.122463
230 0.123644
235 0.121235
240 0.131534
245 0.146723
250 0.152708
255 0.154904
260 0.148349
265 0.191046
270 0.153411
275 0.173555
280 0.203462
285 0.15647
290 0.140425
295 0.196755
300 0.133858
305 0.137673
310 0.115265
315 0.144248
320 0.136195
325 0.165789
330 0.135496
335 0.120046
340 0.126288
345 0.0954126
350 0.132372
355 0.128733
360 0.186657
365 0.18767
370 0.164712
375 0.143823
380 0.122065
385 0.1845
390 0.140991
395 0.171894
400 0.158425
405 0.152823
410 0.129645
415 0.169083
420 0.192551
425 0.280212
430 0.28626
435 0.537689
440 0.732788
445 16.2348
450 240.234
455 353.644
460 87.4048
465 12.512
470 4.22766
475 3.37147
480 3.68737
485 4.0198
490 4.1629
495 3.97249
500 3.89726
505 3.78249
510 3.98012
515 3.89084
520 4.81119
525 5.38649
530 4.30771
535 3.57862
540 3.45454
545 2.90659
550 2.4026
555 2.13063
560 1.94896
565 1.63063
570 1.40457
575 1.23649
580 0.986413
585 0.759882
590 0.640594
595 0.479564
600 0.45819
Ex : 463
200 0.125739
205 0.138991
210 0.110032
215 0.140018
220 0.135375
225 0.0997147
230 0.120635
235 0.181604
240 0.173918
245 0.144535
250 0.122101
255 0.161345
260 0.116237
265 0.13039
270 0.120587
275 0.118331
280 0.155323
285 0.145412
290 0.172188
295 0.15328
300 0.0995218
305 0.127423
310 0.149062
315 0.129556
320 0.177612
325 0.131267
330 0.188739
335 0.154179
340 0.157881
345 0.113006
350 0.178155
355 0.135723
360 0.144009
365 0.138421
370 0.126306
375 0.157101
380 0.164459
385 0.165344
390 0.133325
395 0.181995
400 0.160026
405 0.157042
410 0.164443
415 0.179513
420 0.215142
425 0.227434
430 0.214537
435 0.263242
440 0.418981
445 0.601165
450 15.1643
455 244.163
460 368.668
465 90.9343
470 12.3957
475 3.5779
480 2.56724
485 2.66514
490 3.17751
495 3.10035
500 3.0519
505 2.84948
510 2.63518
515 2.64656
520 2.62098
525 3.46003
530 4.27307
535 3.66212
540 2.70204
545 2.50411
550 2.26691
555 1.84009
560 1.50275
565 1.3906
570 1.173
575 0.976444
580 0.763618
585 0.570364
590 0.570729
595 0.461107
600 0.142456
Ex : 468
200 0.102227
205 0.10958
210 0.117683
215 0.11004
220 0.105383
225 0.141392
230 0.0792019
235 0.0915334
240 0.0926202
245 0.111377
250 0.114423
255 0.0953698
260 0.15074
265 0.17399
270 0.162524
275 0.146728
280 0.130265
285 0.180991
290 0.103864
295 0.153206
300 0.150609
305 0.11087
310 0.106557
315 0.122294
320 0.137896
325 0.136209
330 0.105638
335 0.142834
340 0.201455
345 0.116044
350 0.157493
355 0.131907
360 0.135504
365 0.108123
370 0.12236
375 0.134541
380 0.179672
385 0.171905
390 0.159474
395 0.156655
400 0.112687
405 0.138865
410 0.147222
415 0.18133
420 0.148761
425 0.163835
430 0.179189
435 0.182125
440 0.262594
445 0.383299
450 0.607145
455 16.4508
460 245.017
465 382.288
470 93.4934
475 12.3968
480 3.13429
485 2.09991
490 2.18673
495 2.32202
500 2.46539
505 2.32423
510 2.15627
515 2.07723
520 2.0432
525 2.18928
530 2.36328
535 3.45155
540 3.72827
545 2.55917
550 2.19751
555 1.84711
560 1.53938
565 1.32898
570 1.03679
575 0.825602
580 0.723484
585 0.555344
590 0.45933
595 0.402349
600 0.129251
Ex : 473
200 0.145774
205 0.134292
210 0.137536
215 0.135237
220 0.143533
225 0.124144
230 0.101756
235 0.129603
240 0.0945696
245 0.149939
250 0.122934
255 0.173015
260 0.133394
265 0.114516
270 0.0971052
275 0.0995705
280 0.117306
285 0.162672
290 0.109422
295 0.127704
300 0.169108
305 0.128334
310 0.161348
315 0.170315
320 0.0975243
325 0.146808
330 0.115637
335 0.087575
340 0.115053
345 0.123767
350 0.146903
355 0.164304
360 0.112647
365 0.152474
370 0.136754
375 0.124332
380 0.151255
385 0.137482
390 0.138639
395 0.141673
400 0.124777
405 0.121528
410 0.136585
415 0.159421
420 0.191482
425 0.247564
430 0.199517
435 0.211389
440 0.265674
445 0.280424
450 0.466564
455 0.661868
460 19.2236
465 267.674
470 368.59
475 85.9762
480 11.4153
485 2.78231
490 1.88123
495 1.78409
500 1.898
505 2.10273
510 1.91624
515 1.7494
520 1.69639
525 1.83507
530 1.7508
535 1.9643
540 2.93221
545 3.40431
550 2.44711
555 1.92778
560 1.63706
565 1.31337
570 1.0444
575 0.82142
580 0.718594
585 0.604191
590 0.468354
595 0.441069
600 0.323471
Ex : 478
200 0.201068
205 0.159342
210 0.18391
215 0.159981
220 0.1383
225 0.167773
230 0.10938
235 0.154536
240 0.177078
245 0.160923
250 0.161302
255 0.133424
260 0.145991
265 0.186615
270 0.148977
275 0.156332
280 0.200281
285 0.170893
290 0.209612
295 0.152183
300 0.184217
305 0.12036
310 0.131123
315 0.177732
320 0.147323
325 0.124962
330 0.127926
335 0.135393
340 0.17382
345 0.176992
350 0.147613
355 0.122983
360 0.204606
365 0.12871
370 0.22798
375 0.151344
380 0.168112
385 0.195529
390 0.108763
395 0.164289
400 0.182871
405 0.201857
410 0.193128
415 0.147186
420 0.146199
425 0.175325
430 0.173447
435 0.200571
440 0.255892
445 0.290591
450 0.326133
455 0.429114
460 0.617473
465 19.6235
470 267.53
475 369.606
480 90.6238
485 11.8657
490 2.80531
495 1.53919
500 1.61262
505 1.75185
510 1.84289
515 1.69539
520 1.8208
525 1.62237
530 1.61463
535 1.61494
540 1.61871
545 2.23899
550 2.8668
555 2.42704
560 1.69996
565 1.32892
570 1.22552
575 0.927222
580 0.701012
585 0.537302
590 0.518353
595 0.42409
600 0.725573
Ex : 483
200 0.179663
205 0.149756
210 0.177965
215 0.115052
220 0.170313
225 0.114061
230 0.16748
235 0.172638
240 0.162725
245 0.15469
250 0.112519
255 0.168115
260 0.145465
265 0.19517
270 0.139509
275 0.215991
280 0.139976
285 0.121892
290 0.0791818
295 0.130131
300 0.177899
305 0.153097
310 0.194588
315 0.140971
320 0.118151
325 0.160547
330 0.147056
335 0.131956
340 0.176986
345 0.131366
350 0.132455
355 0.136096
360 0.158246
365 0.164761
370 0.161475
375 0.115909
380 0.132959
385 0.127331
390 0.26933
395 0.197119
400 0.157735
405 0.214692
410 0.195715
415 0.176189
420 0.210369
425 0.19274
430 0.16845
435 0.208776
440 0.23919
445 0.273605
450 0.303888
455 0.336354
460 0.493412
465 0.728656
470 15.1172
475 254.003
480 384.151
485 94.2686
490 12.0519
495 2.68116
500 1.58246
505 1.33617
510 1.49608
515 1.73278
520 1.62357
525 1.56967
530 1.4426
535 1.46003
540 1.40791
545 1.25975
550 1.59811
555 2.42084
560 2.53813
565 1.78891
570 1.22321
575 1.07448
580 0.811358
585 0.604477
590 0.481178
595 0.442526
600 0.401147
Ex : 488
200 0.194496
205 0.145116
210 0.175725
215 0.223521
220 0.143629
225 0.143444
230 0.135468
235 0.241204
240 0.162158
245 0.189187
250 0.181255
255 0.160119
260 0.106627
265 0.20819
270 0.201096
275 0.168603
280 0.138378
285 0.153608
290 0.226973
295 0.196316
300 0.135839
305 0.209215
310 0.170134
315 0.105372
320 0.218083
325 0.209626
330 0.205808
335 0.201039
340 0.219766
345 0.178106
350 0.240079
355 0.184961
360 0.152137
365 0.14267
370 0.197371
375 0.158545
380 0.167176
385 0.156483
390 0.147439
395 0.158907
400 0.173583
405 0.186696
410 0.140459
415 0.221361
420 0.173715
425 0.183324
430 0.197488
435 0.252316
440 0.227241
445 0.268074
450 0.261593
455 0.287984
460 0.321519
465 0.525267
470 0.754079
475 17.9081
480 271.649
485 375.82
490 90.188
495 11.4747
500 2.41582
505 1.44853
510 1.22288
515 1.4425
520 1.60236
525 1.6618
530 1.5375
535 1.31747
540 1.34892
545 1.35116
550 1.28759
555 1.37212
560 1.95752
565 2.23126
570 1.56807
575 1.01968
580 0.856054
585 0.741056
590 0.553491
595 0.420337
600 0.227143
Ex : 493
200 0.136434
205 0.150808
210 0.159409
215 0.135544
220 0.202049
225 0.163702
230 0.261256
235 0.145969
240 0.164974
245 0.190488
250 0.175676
255 0.154185
260 0.138462
265 0.145093
270 0.187066
275 0.123728
280 0.128394
285 0.166447
290 0.160987
295 0.161582
300 0.186092
305 0.171954
310 0.144002
315 0.116132
320 0.180178
325 0.176988
330 0.196562
335 0.202644
340 0.189568
345 0.193394
350 0.164849
355 0.177656
360 0.146328
365 0.183171
370 0.164614
375 0.158694
380 0.14064
385 0.14501
390 0.119965
395 0.142898
400 0.234027
405 0.196005
410 0.202191
415 0.150442
420 0.192877
425 0.177599
430 0.182439
435 0.170621
440 0.258576
445 0.298442
450 0.199522
455 0.291308
460 0.282379
465 0.408966
470 0.413012
475 0.652538
480 16.548
485 263.006
490 389.616
495 90.5422
500 11.363
505 2.42111
510 1.39807
515 1.18866
520 1.23357
525 1.66392
530 1.46861
535 1.41927
540 1.27924
545 1.16339
550 1.19674
555 1.19714
560 1.10533
565 1.29767
570 1.86162
575 1.63186
580 0.891792
585 0.657499
590 0.540744
595 0.394402
600 0.56438
Ex : 498
200 0.147453
205 0.170104
210 0.142955
215 0.148426
220 0.136361
225 0.113036
230 0.133203
235 0.143237
240 0.188699
245 0.195916
250 0.153984
255 0.184585
260 0.164446
265 0.193583
270 0.142099
275 0.164771
280 0.16072
285 0.158088
290 0.165035
295 0.176752
300 0.184266
305 0.138799
310 0.194256
315 0.188929
320 0.136528
325 0.230478
330 0.173141
335 0.169535
340 0.193199
345 0.150785
350 0.14028
355 0.159322
360 0.200769
365 0.185505
370 0.197378
375 0.187495
380 0.192804
385 0.17591
390 0.18372
395 0.177422
400 0.206357
405 0.13824
410 0.161798
415 0.181714
420 0.136892
425 0.234235
430 0.279753
435 0.221368
440 0.191348
445 0.170402
450 0.239035
455 0.368885
460 0.301014
465 0.363354
470 0.394448
475 0.483263
480 0.706905
485 19.185
490 277.642
495 376.065
500 87.8117
505 11.07
510 2.30081
515 1.22872
520 1.29952
525 1.29959
530 1.41073
535 1.46951
540 1.31056
545 1.31674
550 1.15047
555 1.16808
560 0.960953
565 0.96637
570 0.982592
575 1.39205
580 1.44623
585 0.877951
590 0.48811
595 0.462802
600 0.621032
Ex : 503
200 0.222824
205 0.22038
210 0.167132
215 0.229409
220 0.197669
225 0.208379
230 0.17135
235 0.190175
240 0.20172
245 0.184437
250 0.146075
255 0.144844
260 0.143597
265 0.145601
270 0.154342
275 0.180371
280 0.168337
285 0.187279
290 0.20123
295 0.220307
300 0.179934
305 0.176315
310 0.131898
315 0.179125
320 0.217709
325 0.281065
330 0.234453
335 0.159016
340 0.211306
345 0.152624
350 0.17168
355 0.172249
360 0.165707
365 0.146488
370 0.155017
375 0.235363
380 0.147071
385 0.20152
390 0.167399
395 0.199812
400 0.211219
405 0.180737
410 0.214472
415 0.206436
420 0.249344
425 0.309721
430 0.271585
435 0.231231
440 0.199076
445 0.224809
450 0.239993
455 0.273388
460 0.21937
465 0.247366
470 0.295134
475 0.376138
480 0.577202
485 0.671296
490 17.348
495 266.55
500 383.825
505 89.0257
510 11.2995
515 2.4131
520 1.50314
525 1.17063
530 1.25669
535 1.44048
540 1.41099
545 1.14653
550 1.09679
555 0.951535
560 0.911919
565 0.906776
570 0.887232
575 0.846767
580 1.00457
585 1.22159
590 0.974959
595 0.473796
600 0.443127
Ex : 508
200 0.133968
205 0.20055
210 0.166626
215 0.176474
220 0.195298
225 0.125583
230 0.136347
235 0.192302
240 0.165862
245 0.19974
250 0.155388
255 0.214802
260 0.158368
265 0.167251
270 0.205451
275 0.166532
280 0.152899
285 0.141737
290 0.20591
295 0.229555
300 0.173412
305 0.180673
310 0.244973
315 0.167269
320 0.170986
325 0.197171
330 0.204052
335 0.195938
340 0.289148
345 0.188712
350 0.156665
355 0.212411
360 0.204123
365 0.262786
370 0.217226
375 0.221643
380 0.20506
385 0.149808
390 0.207512
395 0.187984
400 0.18718
405 0.18432
410 0.242032
415 0.234534
420 0.210642
425 0.225099
430 0.23364
435 0.187291
440 0.199832
445 0.163129
450 0.231233
455 0.310044
460 0.22101
465 0.324523
470 0.285692
475 0.366515
480 0.547475
485 0.485676
490 0.642793
495 17.7562
500 265.409
505 369.343
510 90.2904
515 11.4773
520 2.38851
525 1.49713
530 1.18551
535 1.28769
540 1.30946
545 1.35356
550 1.34598
555 1.04725
560 0.830002
565 0.964714
570 0.74888
575 0.657632
580 0.563469
585 0.594899
590 0.929385
595 0.835029
600 0.540186
Ex : 513
200 0.119923
205 0.193017
210 0.144822
215 0.158346
220 0.224099
225 0.193293
230 0.177233
235 0.145
240 0.19429
245 0.12845
250 0.179785
255 0.305136
260 0.166485
265 0.25375
270 0.172144
275 0.134671
280 0.130899
285 0.170621
290 0.233607
295 0.196925
300 0.13793
305 0.228116
310 0.211942
315 0.152539
320 0.212909
325 0.160083
330 0.184904
335 0.234639
340 0.244798
345 0.322347
350 0.247296
355 0.207274
360 0.22033
365 0.183722
370 0.163356
375 0.17921
380 0.187881
385 0.19746
390 0.212487
395 0.194159
400 0.148275
405 0.213931
410 0.211615
415 0.204623
420 0.295221
425 0.210388
430 0.232917
435 0.202221
440 0.160672
445 0.189579
450 0.225137
455 0.282241
460 0.241544
465 0.261536
470 0.245369
475 0.216235
480 0.410796
485 0.46825
490 0.441196
495 0.792931
500 16.6247
505 260.441
510 370.75
515 91.5368
520 11.791
525 2.49026
530 1.34728
535 1.24803
540 1.08062
545 1.15047
550 1.05631
555 0.954885
560 0.815436
565 0.779915
570 0.666684
575 0.658399
580 0.599397
585 0.479005
590 0.451888
595 0.585834
600 1.18586
Ex : 518
200 0.148589
205 0.13683
210 0.202145
215 0.211719
220 0.151556
225 0.15938
230 0.20367
235 0.211004
240 0.198165
245 0.217894
250 0.17512
255 0.164873
260 0.184462
265 0.173763
270 0.168274
275 0.150024
280 0.21425
285 0.251227
290 0.195754
295 0.162769
300 0.234695
305 0.229787
310 0.153347
315 0.154213
320 0.166084
325 0.295727
330 0.198827
335 0.245066
340 0.184455
345 0.240948
350 0.124657
355 0.180212
360 0.206883
365 0.197501
370 0.203976
375 0.235067
380 0.214511
385 0.285922
390 0.220693
395 0.275363
400 0.181249
405 0.17568
410 0.214282
415 0.220842
420 0.177442
425 0.220868
430 0.262077
435 0.252549
440 0.295229
445 0.172131
450 0.218466
455 0.218529
460 0.255488
465 0.245397
470 0.315824
475 0.251401
480 0.275094
485 0.358404
490 0.330956
495 0.433634
500 0.659087
505 18.2304
510 260.078
515 371.197
520 88.3327
525 11.202
530 2.35027
535 1.29723
540 1.11644
545 0.940801
550 0.947916
555 1.05514
560 0.94651
565 0.906398
570 0.75583
575 0.615627
580 0.484371
585 0.438553
590 0.43075
595 0.376593
600 0.24171
Ex : 523
200 0.303308
205 0.312184
210 0.221891
215 0.24365
220 0.195366
225 0.208378
230 0.268897
235 0.217952
240 0.235216
245 0.162374
250 0.175252
255 0.213387
260 0.199758
265 0.237033
270 0.259548
275 0.183166
280 0.140861
285 0.239545
290 0.201179
295 0.218963
300 0.189975
305 0.198192
310 0.272185
315 0.179575
320 0.232555
325 0.173716
330 0.226317
335 0.162242
340 0.322835
345 0.264837
350 0.226964
355 0.236099
360 0.234807
365 0.312321
370 0.211296
375 0.182084
380 0.278249
385 0.215079
390 0.194507
395 0.290051
400 0.211326
405 0.18192
410 0.253418
415 0.214068
420 0.248562
425 0.276974
430 0.293021
435 0.27288
440 0.294361
445 0.170861
450 0.250098
455 0.201504
460 0.249556
465 0.250409
470 0.345166
475 0.316736
480 0.248689
485 0.288504
490 0.329168
495 0.388167
500 0.460622
505 0.616169
510 16.3666
515 246.658
520 353.019
525 88.4883
530 11.147
535 2.19653
540 1.20016
545 1.1007
550 0.983084
555 0.903619
560 0.875681
565 0.739387
570 0.725214
575 0.505446
580 0.521458
585 0.439807
590 0.444899
595 0.456536
600 0.209399
Ex : 528
200 0.165071
205 0.218021
210 0.242696
215 0.210248
220 0.15519
225 0.179715
230 0.172592
235 0.263611
240 0.208933
245 0.148198
250 0.212446
255 0.21122
260 0.188206
265 0.186152
270 0.136138
275 0.155244
280 0.205709
285 0.22454
290 0.144859
295 0.152994
300 0.22
305 0.16608
310 0.216984
315 0.159605
320 0.166952
325 0.187175
330 0.227256
335 0.222548
340 0.219641
345 0.288197
350 0.176794
355 0.279281
360 0.185007
365 0.206291
370 0.275847
375 0.250998
380 0.264267
385 0.243247
390 0.244172
395 0.22304
400 0.273678
405 0.210761
410 0.188877
415 0.237391
420 0.20168
425 0.251096
430 0.243918
435 0.244137
440 0.190647
445 0.225501
450 0.238301
455 0.218984
460 0.333339
465 0.257123
470 0.25106
475 0.21508
480 0.25781
485 0.280906
490 0.302849
495 0.2653
500 0.329783
505 0.460615
510 0.658837
515 16.0136
520 240.975
525 346.704
530 85.2865
535 10.7795
540 2.03887
545 1.11634
550 0.870091
555 0.779412
560 0.69938
565 0.88887
570 0.712888
575 0.605112
580 0.559508
585 0.486888
590 0.391003
595 0.307181
600 0.570371
Ex : 533
200 0.235059
205 0.192653
210 0.227363
215 0.156467
220 0.17708
225 0.188393
230 0.203434
235 0.191162
240 0.231562
245 0.148503
250 0.266079
255 0.307096
260 0.211935
265 0.274387
270 0.220014
275 0.204159
280 0.13635
285 0.189318
290 0.220518
295 0.14621
300 0.293188
305 0.207684
310 0.26354
315 0.234181
320 0.141064
325 0.283063
330 0.258184
335 0.244179
340 0.264299
345 0.239912
350 0.268046
355 0.216403
360 0.209897
365 0.300309
370 0.205007
375 0.173187
380 0.208633
385 0.24472
390 0.183066
395 0.177697
400 0.243092
405 0.196431
410 0.177327
415 0.249166
420 0.35546
425 0.256022
430 0.301688
435 0.217217
440 0.206692
445 0.209939
450 0.15208
455 0.299986
460 0.263851
465 0.363832
470 0.222896
475 0.235294
480 0.19478
485 0.288542
490 0.323915
495 0.298104
500 0.371688
505 0.438346
510 0.522868
515 0.682844
520 15.3445
525 230.013
530 338.887
535 85.7406
540 10.68
545 2.06662
550 1.06398
555 0.941822
560 0.788164
565 0.819857
570 0.787668
575 0.693359
580 0.622833
585 0.432805
590 0.352496
595 0.351094
600 0.208524
Ex : 538
200 0.16795
205 0.217842
210 0.177302
215 0.177511
220 0.191819
225 0.176425
230 0.238404
235 0.232528
240 0.273895
245 0.236747
250 0.287638
255 0.210376
260 0.158961
265 0.197081
270 0.184351
275 0.217164
280 0.166106
285 0.206759
290 0.244901
295 0.173952
300 0.184585
305 0.25239
310 0.227284
315 0.180549
320 0.187443
325 0.218867
330 0.213074
335 0.28067
340 0.320816
345 0.267274
350 0.222611
355 0.229078
360 0.196465
365 0.213684
370 0.152101
375 0.222236
380 0.221131
385 0.174068
390 0.278772
395 0.276466
400 0.223489
405 0.224359
410 0.265266
415 0.16529
420 0.207313
425 0.180434
430 0.203795
435 0.270589
440 0.308159
445 0.2528
450 0.259461
455 0.311116
460 0.191015
465 0.246571
470 0.299637
475 0.285727
480 0.238008
485 0.302927
490 0.253857
495 0.221428
500 0.279895
505 0.284087
510 0.29852
515 0.595627
520 0.725229
525 13.1455
530 217.337
535 336.881
540 90.4704
545 11.4144
550 2.05225
555 1.04952
560 0.792903
565 0.655652
570 0.580996
575 0.488804
580 0.526438
585 0.507627
590 0.429369
595 0.385248
600 0.0438398
Ex : 543
200 0.163265
205 0.297885
210 0.206172
215 0.217788
220 0.23247
225 0.241736
230 0.225001
235 0.211823
240 0.277013
245 0.229551
250 0.184446
255 0.249382
260 0.186855
265 0.253483
270 0.282616
275 0.235593
280 0.237208
285 0.23785
290 0.180245
295 0.155355
300 0.261825
305 0.189297
310 0.296503
315 0.165788
320 0.236973
325 0.183084
330 0.208865
335 0.305528
340 0.241364
345 0.192886
350 0.1798
355 0.189516
360 0.276256
365 0.317368
370 0.263422
375 0.220823
380 0.273713
385 0.204714
390 0.203364
395 0.243358
400 0.251153
405 0.241454
410 0.20513
415 0.21802
420 0.231264
425 0.250486
430 0.289821
435 0.234672
440 0.260127
445 0.314392
450 0.314107
455 0.27401
460 0.340657
465 0.237439
470 0.32788
475 0.299401
480 0.241034
485 0.212922
490 0.407332
495 0.383445
500 0.245541
505 0.307188
510 0.313685
515 0.413408
520 0.513161
525 0.674521
530 11.9789
535 207.494
540 330.839
545 90.7902
550 11.2844
555 1.97936
560 0.886896
565 0.712092
570 0.559743
575 0.400755
580 0.535409
585 0.429411
590 0.432754
595 0.307541
600 0.0349969
Ex : 548
200 0.17661
205 0.207593
210 0.181958
215 0.224918
220 0.204525
225 0.21111
230 0.220064
235 0.231436
240 0.184784
245 0.185434
250 0.233009
255 0.212867
260 0.317378
265 0.260635
270 0.235421
275 0.222547
280 0.26671
285 0.177281
290 0.267124
295 0.284114
300 0.306088
305 0.316658
310 0.174149
315 0.187683
320 0.258682
325 0.326414
330 0.197059
335 0.353146
340 0.236457
345 0.197461
350 0.252273
355 0.310834
360 0.283474
365 0.291324
370 0.218057
375 0.213358
380 0.224922
385 0.310673
390 0.299461
395 0.249667
400 0.24633
405 0.234213
410 0.340673
415 0.226255
420 0.264551
425 0.214565
430 0.220223
435 0.204671
440 0.282539
445 0.213172
450 0.265452
455 0.286531
460 0.195289
465 0.248695
470 0.270934
475 0.245608
480 0.23241
485 0.263118
490 0.28672
495 0.275012
500 0.211673
505 0.259284
510 0.273046
515 0.279134
520 0.383381
525 0.440719
530 0.696363
535 12.3886
540 205.083
545 321.749
550 89.7489
555 11.0799
560 1.89918
565 0.63434
570 0.550111
575 0.434343
580 0.3899
585 0.407682
590 0.424699
595 0.438915
600 0.175798
Ex : 553
200 0.226108
205 0.248243
210 0.18748
215 0.194162
220 0.171849
225 0.208996
230 0.23929
235 0.311226
240 0.320574
245 0.231552
250 0.203539
255 0.213237
260 0.218235
265 0.218711
270 0.261355
275 0.348394
280 0.250322
285 0.176036
290 0.254371
295 0.217894
300 0.205747
305 0.243298
310 0.2646
315 0.260649
320 0.230414
325 0.262097
330 0.205137
335 0.251137
340 0.317227
345 0.284139
350 0.23055
355 0.199978
360 0.188389
365 0.243279
370 0.270865
375 0.251058
380 0.276425
385 0.359179
390 0.258614
395 0.236918
400 0.230341
405 0.222833
410 0.301344
415 0.230471
420 0.219529
425 0.20805
430 0.227785
435 0.25939
440 0.314332
445 0.266548
450 0.310037
455 0.228085
460 0.373988
465 0.289838
470 0.348407
475 0.314618
480 0.279596
485 0.338107
490 0.305528
495 0.316268
500 0.351594
505 0.275562
510 0.388148
515 0.306355
520 0.307926
525 0.403322
530 0.434255
535 0.715584
540 10.0328
545 185.724
550 315.47
555 91.8312
560 11.4001
565 1.85042
570 0.715418
575 0.606697
580 0.393451
585 0.408022
590 0.385236
595 0.392813
600 0.204858
Ex : 558
200 0.240625
205 0.220616
210 0.280506
215 0.251265
220 0.19174
225 0.311898
230 0.256844
235 0.205438
240 0.184687
245 0.249038
250 0.280559
255 0.278851
260 0.233118
265 0.250654
270 0.232023
275 0.199199
280 0.255706
285 0.30141
290 0.259074
295 0.217788
300 0.185203
305 0.258682
310 0.242371
315 0.212185
320 0.260856
325 0.240131
330 0.298466
335 0.330427
340 0.252065
345 0.305656
350 0.286964
355 0.303859
360 0.224299
365 0.253137
370 0.207658
375 0.244983
380 0.296674
385 0.299661
390 0.334134
395 0.366135
400 0.201364
405 0.216412
410 0.208394
415 0.222777
420 0.248354
425 0.299764
430 0.266359
435 0.235064
440 0.285737
445 0.277999
450 0.256295
455 0.26577
460 0.327188
465 0.390056
470 0.29808
475 0.239897
480 0.370672
485 0.254131
490 0.251593
495 0.221398
500 0.302563
505 0.310717
510 0.270989
515 0.285416
520 0.319943
525 0.325767
530 0.311732
535 0.40154
540 0.661981
545 9.5884
550 180.754
555 317.117
560 92.8674
565 11.4272
570 1.73619
575 0.635647
580 0.509085
585 0.381257
590 0.385591
595 0.40371
600 0.0908117
Ex : 563
200 0.345127
205 0.423164
210 0.173914
215 0.33852
220 0.212849
225 0.244471
230 0.174261
235 0.251621
240 0.236742
245 0.224223
250 0.237265
255 0.239126
260 0.2844
265 0.34062
270 0.221416
275 0.343275
280 0.247808
285 0.213722
290 0.196684
295 0.186245
300 0.262935
305 0.228296
310 0.336267
315 0.276896
320 0.197784
325 0.239715
330 0.298888
335 0.299313
340 0.36234
345 0.259954
350 0.287648
355 0.257258
360 0.312379
365 0.325997
370 0.312929
375 0.292528
380 0.404105
385 0.330301
390 0.277035
395 0.276745
400 0.309372
405 0.249603
410 0.305538
415 0.306755
420 0.225923
425 0.207512
430 0.239856
435 0.17577
440 0.345039
445 0.261157
450 0.353679
455 0.248693
460 0.283566
465 0.272676
470 0.248434
475 0.293722
480 0.279493
485 0.221178
490 0.247468
495 0.297929
500 0.31434
505 0.295691
510 0.309317
515 0.315443
520 0.332754
525 0.333814
530 0.374076
535 0.342382
540 0.504745
545 0.649151
550 9.34236
555 169.958
560 297.474
565 87.8804
570 10.9009
575 1.63094
580 0.592011
585 0.408469
590 0.476815
595 0.422605
600 0.0480909
Ex : 568
200 0.244316
205 0.224143
210 0.247232
215 0.132856
220 0.215638
225 0.257647
230 0.240671
235 0.154649
240 0.23247
245 0.260405
250 0.226271
255 0.25064
260 0.264074
265 0.274801
270 0.228627
275 0.261364
280 0.16731
285 0.2469
290 0.287606
295 0.241659
300 0.223622
305 0.319489
310 0.246723
315 0.294147
320 0.253128
325 0.209328
330 0.252862
335 0.426068
340 0.354154
345 0.310871
350 0.263241
355 0.371893
360 0.309447
365 0.297777
370 0.232313
375 0.208334
380 0.335442
385 0.30385
390 0.282131
395 0.280035
400 0.286011
405 0.252868
410 0.238185
415 0.333146
420 0.311406
425 0.222687
430 0.165171
435 0.227339
440 0.339998
445 0.282732
450 0.316914
455 0.239278
460 0.391914
465 0.243941
470 0.327373
475 0.266273
480 0.276821
485 0.354293
490 0.286376
495 0.326627
500 0.349518
505 0.305103
510 0.297679
515 0.30612
520 0.222878
525 0.296914
530 0.317735
535 0.37681
540 0.371805
545 0.367078
550 0.624098
555 6.82267
560 151.375
565 281.608
570 86.452
575 10.5826
580 1.57405
585 0.69206
590 0.452018
595 0.296723
600 0.0337659
Ex : 573
200 0.366047
205 0.273618
210 0.325861
215 0.242001
220 0.253976
225 0.274336
230 0.216639
235 0.230787
240 0.155162
245 0.256434
250 0.37792
255 0.253544
260 0.394594
265 0.184368
270 0.191832
275 0.200947
280 0.19016
285 0.295311
290 0.236558
295 0.3535
300 0.335339
305 0.282427
310 0.199244
315 0.247663
320 0.172846
325 0.221112
330 0.361323
335 0.361557
340 0.271019
345 0.245411
350 0.277334
355 0.234479
360 0.26793
365 0.352235
370 0.302833
375 0.323979
380 0.329192
385 0.241538
390 0.25023
395 0.260441
400 0.348439
405 0.327812
410 0.332223
415 0.287272
420 0.257276
425 0.235205
430 0.263855
435 0.291678
440 0.244007
445 0.34575
450 0.312012
455 0.387073
460 0.300191
465 0.386266
470 0.227909
475 0.289686
480 0.308599
485 0.239314
490 0.329095
495 0.192018
500 0.181902
505 0.180576
510 0.345418
515 0.287762
520 0.309387
525 0.302054
530 0.353534
535 0.354365
540 0.264126
545 0.274761
550 0.525075
555 0.56841
560 5.57065
565 132.117
570 268.261
575 84.7027
580 10.4347
585 1.53848
590 0.50693
595 0.415507
600 0.288427
Ex : 578
200 0.258882
205 0.272288
210 0.279402
215 0.251118
220 0.23369
225 0.235216
230 0.237139
235 0.22936
240 0.179905
245 0.276388
250 0.200323
255 0.256282
260 0.22785
265 0.236965
270 0.291071
275 0.334601
280 0.399716
285 0.199712
290 0.157991
295 0.23741
300 0.260181
305 0.34668
310 0.233526
315 0.389139
320 0.341462
325 0.279576
330 0.293689
335 0.390823
340 0.245276
345 0.26753
350 0.291206
355 0.272548
360 0.230288
365 0.264386
370 0.261817
375 0.239931
380 0.289833
385 0.360431
390 0.312394
395 0.321148
400 0.238326
405 0.23243
410 0.294095
415 0.234278
420 0.316544
425 0.269638
430 0.359356
435 0.361861
440 0.296118
445 0.283923
450 0.383595
455 0.26628
460 0.262651
465 0.228896
470 0.277888
475 0.266786
480 0.345249
485 0.295958
490 0.247369
495 0.434824
500 0.37684
505 0.276757
510 0.300194
515 0.287405
520 0.311333
525 0.27249
530 0.222919
535 0.320769
540 0.332945
545 0.324575
550 0.372332
555 0.426555
560 0.491419
565 4.97937
570 116.082
575 230.006
580 72.1045
585 8.84594
590 1.41494
595 0.455378
600 0.683938
Ex : 583
200 0.246909
205 0.280951
210 0.218589
215 0.209366
220 0.148178
225 0.300061
230 0.259143
235 0.330796
240 0.288251
245 0.270381
250 0.303013
255 0.236169
260 0.299977
265 0.217794
270 0.298483
275 0.289678
280 0.215119
285 0.332007
290 0.203571
295 0.320652
300 0.308897
305 0.268331
310 0.240743
315 0.202593
320 0.237707
325 0.233485
330 0.223893
335 0.297
340 0.265614
345 0.217539
350 0.259361
355 0.288316
360 0.281032
365 0.24049
370 0.327252
375 0.287484
380 0.210781
385 0.275615
390 0.291797
395 0.456045
400 0.343276
405 0.263784
410 0.407512
415 0.263231
420 0.236736
425 0.19832
430 0.21676
435 0.295672
440 0.259024
445 0.271615
450 0.229197
455 0.231927
460 0.272083
465 0.229778
470 0.318706
475 0.310299
480 0.312164
485 0.286324
490 0.374661
495 0.308207
500 0.298873
505 0.347292
510 0.363096
515 0.31354
520 0.312191
525 0.27134
530 0.312163
535 0.332048
540 0.331309
545 0.342502
550 0.336514
555 0.307249
560 0.414765
565 0.400433
570 3.94137
575 103.187
580 198.497
585 59.5343
590 7.4366
595 1.29516
600 0.511922
Ex : 588
200 0.20837
205 0.341158
210 0.241601
215 0.283829
220 0.498896
225 0.271375
230 0.221693
235 0.233413
240 0.273965
245 0.230072
250 0.304147
255 0.225821
260 0.207217
265 0.236445
270 0.262064
275 0.26357
280 0.243834
285 0.200214
290 0.222419
295 0.245363
300 0.261524
305 0.253476
310 0.248315
315 0.246973
320 0.289638
325 0.206213
330 0.303113
335 0.254272
340 0.271071
345 0.31497
350 0.348843
355 0.216021
360 0.335752
365 0.42146
370 0.311166
375 0.225513
380 0.329757
385 0.277994
390 0.399174
395 0.228457
400 0.319041
405 0.309275
410 0.358899
415 0.344021
420 0.252368
425 0.241313
430 0.305365
435 0.250474
440 0.254835
445 0.250669
450 0.354217
455 0.196142
460 0.323173
465 0.302148
470 0.289436
475 0.36134
480 0.310142
485 0.379981
490 0.267512
495 0.314071
500 0.258861
505 0.419513
510 0.312542
515 0.257475
520 0.363687
525 0.283421
530 0.349183
535 0.268012
540 0.263536
545 0.3903
550 0.247142
555 0.391011
560 0.385161
565 0.348507
570 0.330078
575 3.44992
580 87.6962
585 170.438
590 51.4419
595 6.42037
600 0.730613
Ex : 593
200 0.216614
205 0.196173
210 0.215177
215 0.272505
220 0.387733
225 0.216892
230 0.321241
235 0.248091
240 0.172543
245 0.255759
250 0.291799
255 0.25644
260 0.22959
265 0.214944
270 0.27483
275 0.272563
280 0.423507
285 0.24013
290 0.19887
295 0.251716
300 0.231941
305 0.236124
310 0.267524
315 0.24721
320 0.314936
325 0.298984
330 0.231691
335 0.321213
340 0.225903
345 0.246887
350 0.280754
355 0.516999
360 0.292218
365 0.242609
370 0.290466
375 0.307799
380 0.21164
385 0.342952
390 0.298673
395 0.286838
400 0.278974
405 0.279301
410 0.329052
415 0.32671
420 0.304342
425 0.331848
430 0.362507
435 0.333262
440 0.26318
445 0.265524
450 0.227974
455 0.209125
460 0.344049
465 0.338068
470 0.323522
475 0.308949
480 0.384551
485 0.36696
490 0.2793
495 0.235077
500 0.24781
505 0.279763
510 0.373061
515 0.286015
520 0.320263
525 0.312591
530 0.240194
535 0.225348
540 0.417555
545 0.299191
550 0.312625
555 0.277567
560 0.243057
565 0.298132
570 0.363163
575 0.480719
580 3.40674
585 76.4168
590 145.94
595 44.6545
600 5.71847
Ex : 598
200 0.25
205 0.320161
210 0.254928
215 0.23109
220 0.387535
225 0.303891
230 0.313834
235 0.206177
240 0.363698
245 0.239882
250 0.257445
255 0.300239
260 0.309535
265 0.258715
270 0.296424
275 0.238931
280 0.307496
285 0.326946
290 0.336677
295 0.299942
300 0.3319
305 0.295165
310 0.268096
315 0.48101
320 0.48379
325 0.347063
330 0.462447
335 0.301644
340 0.24718
345 0.276438
350 0.23014
355 0.252929
360 0.272907
365 0.259659
370 0.336933
375 0.325314
380 0.257276
385 0.266115
390 0.242085
395 0.243797
400 0.244657
405 0.357776
410 0.382572
415 0.328683
420 0.232179
425 0.262248
430 0.285201
435 0.266084
440 0.385697
445 0.292166
450 0.282658
455 0.424236
460 0.412656
465 0.483233
470 0.34523
475 0.323449
480 0.17046
485 0.243889
490 0.255262
495 0.315015
500 0.335669
505 0.369508
510 0.334862
515 0.23991
520 0.301602
525 0.348909
530 0.289579
535 0.276556
540 0.335185
545 0.275095
550 0.326937
555 0.218883
560 0.404024
565 0.290613
570 0.302297
575 0.364023
580 0.391636
585 3.31714
590 67.0667
595 128.377
600 71.9639
Ex : 603
200 0.265672
205 0.271892
210 0.336318
215 0.3962
220 0.240007
225 0.294343
230 0.338263
235 0.370413
240 0.34589
245 0.308715
250 0.336238
255 0.311564
260 0.217722
265 0.175943
270 0.242516
275 0.202057
280 0.405685
285 0.353532
290 0.392737
295 0.400038
300 0.266488
305 0.411176
310 0.295021
315 0.31172
320 0.234626
325 0.158236
330 0.309954
335 0.330673
340 0.500901
345 0.381498
350 0.350003
355 0.243587
360 0.38596
365 0.250383
370 0.220109
375 0.283878
380 0.427651
385 0.309663
390 0.224406
395 0.304114
400 0.394818
405 0.438737
410 0.243274
415 0.375045
420 0.340048
425 0.319959
430 0.28669
435 0.26004
440 0.27975
445 0.281023
450 0.242377
455 0.429762
460 0.409218
465 0.373206
470 0.296542
475 0.384217
480 0.338944
485 0.312636
490 0.23309
495 0.268674
500 0.305621
505 0.371489
510 0.260538
515 0.299128
520 0.233763
525 0.211347
530 0.235432
535 0.305195
540 0.398921
545 0.377835
550 0.389552
555 0.288787
560 0.324434
565 0.363283
570 0.280086
575 0.427599
580 0.266487
585 0.368515
590 2.9341
595 57.9885
600 129.61
