File format V 1.0
ven. 13. janv. 15:52:00 2017
Operator : 
Comments : 

=============================================
SpectroFluorometer parameters
Mode : 3D measurement
Data : Fluorescence
Phospho. : Ordinary
Spectrum : Fluorescence

Scan speed : 2400 nm/mn
Response : 100 ms
PM Voltage : 700 V
Shutter : On

Lambda Ex. Start : 203
Lambda Ex. End : 603
Lambda Ex. Step : 5
Ex. Slit : 5 nm

Lambda Em. Start : 200
Lambda Em. End : 600
Lambda Em. Step : 5
Em. Slit : 5 nm

Repetition : 1
Decal lambda em : 10
=============================================
DATA
Ex : 203
200 4.83182
205 10.0898
210 7.56706
215 6.21704
220 5.96752
225 7.79465
230 6.2892
235 5.12619
240 5.41984
245 8.67924
250 7.26634
255 5.87697
260 5.42314
265 5.79256
270 7.10391
275 9.67044
280 6.94622
285 6.94054
290 5.58876
295 4.04194
300 6.34747
305 6.82907
310 6.21686
315 5.34869
320 4.83864
325 8.2697
330 6.73201
335 7.57902
340 5.56705
345 5.55333
350 7.50823
355 7.00066
360 6.38217
365 5.89647
370 6.3427
375 6.98732
380 6.28467
385 3.9782
390 5.71803
395 4.88477
400 3.65961
405 6.12427
410 6.27409
415 5.64786
420 7.38464
425 7.74861
430 6.14662
435 5.10149
440 5.90201
445 6.93647
450 4.69631
455 8.66742
460 8.66148
465 6.30691
470 9.46359
475 8.47609
480 7.32191
485 4.8686
490 5.81486
495 7.06348
500 7.80922
505 6.7805
510 5.35453
515 4.87247
520 5.94893
525 7.08398
530 7.56291
535 7.56739
540 6.52882
545 6.00404
550 5.70364
555 6.97012
560 7.59023
565 6.82691
570 5.37785
575 4.63788
580 5.81306
585 4.82745
590 5.11451
595 5.20089
600 1.33034
Ex : 208
200 5.22907
205 5.49783
210 5.28731
215 6.49282
220 10.4383
225 9.46336
230 6.21932
235 7.3397
240 6.1118
245 4.85417
250 7.3021
255 7.19174
260 5.88418
265 6.0478
270 7.60299
275 5.37345
280 5.0632
285 4.67091
290 4.40142
295 5.65576
300 4.98644
305 6.05232
310 8.55074
315 12.4637
320 4.68797
325 6.00162
330 5.71156
335 5.45453
340 4.80685
345 6.3799
350 7.49413
355 6.87274
360 6.34729
365 6.49283
370 6.13969
375 4.66371
380 5.11222
385 6.39824
390 5.45452
395 6.60461
400 8.76101
405 7.2708
410 7.88882
415 6.59828
420 5.14562
425 5.15108
430 5.03345
435 6.41474
440 6.64682
445 6.56551
450 6.6579
455 6.12277
460 6.85117
465 5.34086
470 7.58409
475 7.57623
480 6.43018
485 8.88396
490 7.09623
495 7.96651
500 6.45354
505 9.30679
510 4.42012
515 7.57574
520 4.89879
525 6.25449
530 5.01335
535 6.61894
540 4.66407
545 5.26538
550 4.58119
555 8.14602
560 6.19087
565 5.35097
570 4.62036
575 6.1302
580 7.02762
585 5.58768
590 6.536
595 6.07748
600 23.9544
Ex : 213
200 5.72727
205 6.61056
210 6.57291
215 6.08116
220 5.53269
225 6.53228
230 3.77359
235 4.53373
240 4.82903
245 6.45886
250 4.62641
255 6.2022
260 6.48268
265 6.03867
270 5.32578
275 4.95651
280 4.50541
285 5.27806
290 4.46769
295 5.55133
300 6.9549
305 5.25528
310 6.81721
315 4.48319
320 5.43053
325 7.19032
330 5.59411
335 9.11712
340 5.75067
345 8.20268
350 6.93489
355 5.57628
360 6.90857
365 6.41498
370 6.92145
375 6.05652
380 5.81123
385 5.856
390 4.85676
395 5.43471
400 8.33125
405 6.38912
410 5.24989
415 9.74956
420 10.0958
425 8.79446
430 8.07045
435 6.61829
440 7.22801
445 7.13164
450 6.09301
455 7.85178
460 6.78905
465 5.87559
470 5.6673
475 7.26939
480 5.69717
485 5.44689
490 4.5671
495 6.49214
500 3.63344
505 4.84449
510 5.81566
515 7.35756
520 8.68312
525 7.7865
530 7.95086
535 5.38327
540 10.0958
545 6.41045
550 6.16755
555 5.41185
560 6.78615
565 8.54757
570 7.52895
575 4.62739
580 7.41107
585 5.27437
590 6.11702
595 4.16673
600 19.6162
Ex : 218
200 5.05957
205 5.70921
210 6.38648
215 6.13538
220 7.47387
225 8.66192
230 7.46149
235 6.73026
240 4.02999
245 4.62216
250 5.21857
255 6.3686
260 5.63005
265 7.03429
270 7.45103
275 5.13521
280 4.29726
285 5.33135
290 4.97946
295 5.09073
300 6.76752
305 6.08734
310 6.5218
315 5.87281
320 4.23326
325 6.41426
330 5.25037
335 4.52094
340 5.97871
345 5.32012
350 9.26785
355 5.97012
360 6.77203
365 6.18238
370 5.162
375 5.92433
380 7.83863
385 6.19266
390 5.75606
395 7.04307
400 3.9764
405 8.34628
410 4.81472
415 6.34016
420 6.69389
425 8.81299
430 5.75691
435 5.09371
440 6.40157
445 5.28447
450 5.72434
455 6.63125
460 7.68156
465 8.54936
470 4.11169
475 4.94363
480 7.12294
485 6.64274
490 7.06818
495 4.93995
500 6.34141
505 7.58971
510 5.85596
515 5.76774
520 6.80043
525 6.72754
530 8.11732
535 6.22052
540 7.84825
545 5.63134
550 7.84555
555 7.93076
560 6.32902
565 7.95822
570 4.72188
575 6.07118
580 6.60711
585 4.62298
590 4.9778
595 7.16418
600 0.815257
Ex : 223
200 5.88
205 5.28812
210 3.54003
215 5.41924
220 4.50592
225 8.0534
230 5.5146
235 6.8391
240 8.56144
245 6.46422
250 7.7747
255 8.33997
260 6.08904
265 4.59936
270 5.04106
275 4.58267
280 5.33342
285 7.20012
290 6.30996
295 6.27159
300 4.57054
305 5.70256
310 4.75769
315 7.22929
320 7.42854
325 5.79197
330 6.31074
335 5.47141
340 4.47976
345 5.17026
350 5.85831
355 6.40386
360 6.05387
365 5.73492
370 6.04815
375 5.18935
380 4.28911
385 7.24049
390 5.93264
395 6.32318
400 7.77876
405 4.26888
410 4.89648
415 7.21499
420 4.28394
425 4.99671
430 7.77692
435 7.63793
440 5.28471
445 5.40365
450 6.70709
455 7.97947
460 6.58422
465 5.77896
470 6.42961
475 5.98502
480 7.11085
485 8.6119
490 7.69412
495 7.14201
500 6.04052
505 7.03463
510 4.71069
515 5.09139
520 7.77064
525 7.48841
530 7.45028
535 6.04016
540 5.84728
545 4.86559
550 6.0474
555 7.66547
560 8.06084
565 4.56016
570 7.54868
575 5.5867
580 5.18253
585 5.23748
590 5.60777
595 7.2267
600 1.70857
Ex : 228
200 8.29914
205 5.83641
210 6.87951
215 4.66545
220 4.86765
225 6.69143
230 6.14142
235 5.89694
240 8.96338
245 5.48481
250 7.44792
255 7.45055
260 5.38191
265 5.69136
270 5.17802
275 6.17703
280 5.93788
285 7.62427
290 6.63374
295 6.21982
300 6.20587
305 5.45777
310 4.8132
315 7.7289
320 6.79824
325 6.77002
330 6.91375
335 5.722
340 5.0325
345 4.44655
350 4.66603
355 6.80346
360 8.88815
365 4.70828
370 4.51606
375 4.71956
380 7.1454
385 4.58726
390 5.21167
395 7.09545
400 8.24785
405 8.56666
410 5.84519
415 5.41346
420 5.42302
425 5.05177
430 6.60415
435 6.12246
440 5.60289
445 7.27865
450 5.07685
455 5.64898
460 6.53818
465 4.39735
470 7.34669
475 6.61436
480 6.7422
485 4.79927
490 7.73817
495 5.26515
500 8.46791
505 6.54149
510 6.39958
515 6.67439
520 5.3413
525 5.05819
530 6.29795
535 6.16628
540 5.43934
545 5.35855
550 5.92305
555 8.00812
560 7.39635
565 4.591
570 7.85109
575 7.07831
580 5.17742
585 4.27033
590 5.3746
595 6.25692
600 0.712013
Ex : 233
200 4.12648
205 5.32554
210 4.99836
215 6.46115
220 6.43794
225 6.16465
230 5.82759
235 6.54647
240 5.01518
245 5.80703
250 5.42543
255 5.53474
260 7.87359
265 6.63873
270 4.59801
275 5.41325
280 4.6021
285 4.14745
290 6.07641
295 5.57574
300 3.77489
305 6.17
310 5.67376
315 5.75308
320 7.4043
325 4.2497
330 4.38575
335 4.48874
340 6.17813
345 5.97292
350 4.18439
355 4.60222
360 6.69735
365 4.01515
370 4.87729
375 5.77954
380 7.50135
385 7.71041
390 5.89212
395 4.83566
400 7.83957
405 4.2869
410 6.30833
415 3.97079
420 5.08395
425 5.28902
430 5.31004
435 8.49656
440 6.35795
445 7.21998
450 5.80516
455 5.4294
460 6.28201
465 5.77836
470 5.28137
475 5.62282
480 5.62475
485 6.62287
490 7.47755
495 5.01285
500 4.91827
505 5.33471
510 8.26289
515 7.39102
520 4.80456
525 5.26956
530 5.18082
535 2.96777
540 5.89396
545 5.15577
550 5.38221
555 6.67675
560 7.24694
565 5.44612
570 7.39364
575 5.96046
580 4.40742
585 5.70318
590 8.03637
595 6.64019
600 7.97186
Ex : 238
200 7.03226
205 6.98501
210 4.55404
215 3.34001
220 5.7133
225 5.95434
230 5.60422
235 4.57918
240 6.27324
245 7.62223
250 3.72115
255 3.53687
260 6.0216
265 6.36656
270 5.8275
275 4.66918
280 4.34573
285 4.11456
290 3.48454
295 3.01647
300 3.66988
305 5.46348
310 3.6763
315 3.87454
320 6.88242
325 5.49073
330 4.97192
335 6.16888
340 7.46095
345 6.86232
350 5.28137
355 5.76354
360 4.96075
365 5.50927
370 6.0897
375 6.80651
380 4.73117
385 5.9324
390 6.26622
395 3.98729
400 4.22168
405 5.09379
410 6.10187
415 4.96303
420 4.78923
425 5.43383
430 5.11192
435 5.57084
440 6.34282
445 7.01043
450 6.73359
455 5.45533
460 5.29584
465 5.37865
470 6.33783
475 4.57502
480 4.88476
485 5.35586
490 4.50208
495 7.53773
500 6.89855
505 5.64486
510 4.56521
515 5.84327
520 2.56996
525 8.7961
530 5.61257
535 5.17146
540 4.98775
545 5.40325
550 3.63952
555 4.90801
560 4.57464
565 5.64049
570 5.5511
575 5.12454
580 6.24197
585 5.31138
590 4.53656
595 7.05927
600 3.60963
Ex : 243
200 3.5786
205 4.969
210 6.62776
215 7.13661
220 4.88575
225 4.26748
230 4.62322
235 4.06515
240 4.5172
245 3.66564
250 8.07417
255 3.63333
260 5.41947
265 4.07436
270 2.9067
275 3.00741
280 3.15285
285 6.06792
290 5.51066
295 5.7491
300 4.58818
305 4.04711
310 4.19255
315 2.92667
320 4.657
325 3.97118
330 4.8602
335 4.47282
340 4.72957
345 3.34162
350 5.56356
355 4.74949
360 3.75115
365 3.12993
370 4.88123
375 4.63652
380 3.67087
385 4.73868
390 5.85086
395 5.68572
400 3.80829
405 5.37
410 5.232
415 4.3299
420 6.10242
425 3.94192
430 3.76374
435 5.14336
440 4.0672
445 4.08326
450 7.79572
455 4.46669
460 6.06642
465 3.59542
470 3.89416
475 4.35645
480 4.37573
485 5.05221
490 6.03207
495 6.30484
500 4.77565
505 4.86332
510 2.93652
515 4.4381
520 3.45807
525 3.49956
530 5.56681
535 3.8954
540 4.65275
545 4.05401
550 3.67311
555 3.2036
560 3.14285
565 6.94452
570 4.41538
575 3.33323
580 4.19658
585 5.8679
590 5.22495
595 4.23659
600 1.36831
Ex : 248
200 6.38398
205 4.36773
210 2.8594
215 3.51222
220 3.07077
225 3.21294
230 3.9184
235 3.79208
240 2.43591
245 3.62508
250 2.91207
255 2.81377
260 2.55099
265 3.36297
270 4.96425
275 3.25038
280 5.06899
285 3.51984
290 4.63597
295 3.83045
300 3.15835
305 3.82343
310 4.92904
315 4.54156
320 3.07751
325 2.74321
330 2.89756
335 3.04608
340 4.27161
345 4.40458
350 3.1976
355 3.59076
360 3.63637
365 3.98768
370 3.71604
375 5.23072
380 3.70696
385 5.08448
390 4.94302
395 4.38872
400 3.96298
405 4.07895
410 5.40934
415 3.4268
420 4.18978
425 4.57324
430 2.53247
435 3.91704
440 4.12952
445 4.20642
450 5.79341
455 4.43008
460 3.71002
465 4.64184
470 3.10955
475 4.20251
480 3.69668
485 3.11694
490 6.51807
495 4.09367
500 3.81015
505 4.94377
510 4.67822
515 3.17365
520 3.4778
525 4.19843
530 4.97908
535 4.27589
540 4.10989
545 2.56304
550 4.64212
555 3.22442
560 3.35881
565 5.0292
570 3.19781
575 4.37622
580 4.56308
585 4.13148
590 4.51723
595 4.47411
600 2.67541
Ex : 253
200 3.21635
205 2.51557
210 3.22897
215 3.45631
220 3.50677
225 2.32456
230 2.81629
235 4.99767
240 3.32029
245 2.58166
250 2.33372
255 3.13831
260 3.16846
265 2.68339
270 3.75585
275 2.68722
280 3.34183
285 3.2257
290 2.99738
295 3.95654
300 3.01591
305 3.01216
310 3.37376
315 4.04424
320 3.52589
325 3.19386
330 2.6333
335 3.50412
340 3.38598
345 3.00585
350 4.03035
355 3.17647
360 2.99631
365 3.68225
370 3.06696
375 3.57488
380 3.53273
385 4.7111
390 3.84135
395 2.55478
400 3.30035
405 3.25255
410 3.71363
415 4.58539
420 4.66251
425 3.62712
430 3.83853
435 4.406
440 3.66978
445 4.26699
450 3.38549
455 3.92155
460 3.2095
465 3.34229
470 2.63672
475 3.87557
480 3.02331
485 4.06484
490 2.85425
495 3.34731
500 3.92785
505 2.96844
510 6.112
515 4.43865
520 2.21241
525 3.13248
530 4.20292
535 2.82324
540 3.04426
545 2.87221
550 3.92138
555 3.13274
560 4.06774
565 4.24728
570 2.70095
575 3.07345
580 4.26814
585 4.5836
590 3.9976
595 3.47757
600 1.19332
Ex : 258
200 3.18441
205 2.78513
210 2.40263
215 3.38115
220 3.07889
225 2.70386
230 2.77603
235 2.99199
240 3.73481
245 2.65074
250 2.98293
255 2.80327
260 2.82904
265 2.57956
270 2.27233
275 2.68821
280 2.72017
285 2.80266
290 2.64565
295 2.40834
300 2.64478
305 2.15958
310 2.87186
315 3.6068
320 2.55051
325 2.76948
330 2.71073
335 2.93001
340 2.92812
345 2.49409
350 2.57431
355 3.92418
360 2.72366
365 2.43578
370 3.01068
375 3.34206
380 3.55602
385 2.74564
390 2.49374
395 2.28038
400 3.30658
405 2.78071
410 1.91652
415 2.77552
420 2.89181
425 3.48554
430 4.22649
435 3.38392
440 3.89114
445 3.90086
450 4.2137
455 3.45486
460 2.31614
465 2.93067
470 3.49528
475 3.51347
480 2.00889
485 3.3841
490 2.65137
495 2.58774
500 2.72024
505 2.91419
510 3.71751
515 4.03039
520 3.50879
525 2.36593
530 2.44575
535 1.93176
540 2.70631
545 2.92723
550 1.73211
555 2.73675
560 2.5356
565 2.31099
570 3.55806
575 2.1634
580 2.29088
585 3.0464
590 3.15813
595 2.56528
600 2.21203
Ex : 263
200 2.50386
205 2.55732
210 2.70832
215 2.49837
220 2.6273
225 2.57324
230 1.93923
235 2.56836
240 2.33999
245 2.40035
250 2.85381
255 2.00718
260 2.63721
265 2.40187
270 2.29129
275 3.57256
280 2.45917
285 2.86531
290 2.73067
295 2.5088
300 2.37303
305 2.46677
310 1.86958
315 2.05477
320 2.5906
325 2.56648
330 1.75366
335 1.92613
340 2.41123
345 1.82249
350 2.19965
355 3.17917
360 2.26139
365 2.44823
370 2.09154
375 1.5791
380 2.18305
385 2.14604
390 2.63151
395 2.49062
400 3.3121
405 2.83615
410 2.21638
415 2.21315
420 1.79126
425 2.9727
430 3.52294
435 2.81832
440 3.21146
445 2.30855
450 2.2219
455 3.08373
460 2.68115
465 3.50962
470 2.39334
475 2.27819
480 2.52815
485 1.97176
490 3.14763
495 2.32861
500 2.45841
505 2.86324
510 2.3079
515 3.08766
520 3.07562
525 3.27124
530 2.58917
535 2.20784
540 2.12618
545 1.97589
550 1.74526
555 2.15269
560 2.77224
565 3.22453
570 1.82129
575 1.59012
580 2.26839
585 2.26668
590 2.56645
595 1.91516
600 0.217938
Ex : 268
200 1.6299
205 1.46458
210 1.49433
215 1.25076
220 2.10339
225 2.37196
230 2.6931
235 2.28122
240 3.40993
245 2.07968
250 1.45272
255 1.51759
260 2.4427
265 2.07463
270 1.63786
275 1.47641
280 1.64538
285 1.88497
290 1.92718
295 1.70678
300 1.49157
305 2.03864
310 1.68782
315 1.66051
320 1.27186
325 1.772
330 2.03202
335 2.01124
340 2.94521
345 2.4671
350 2.32292
355 1.95912
360 1.88071
365 1.99081
370 2.08382
375 1.85982
380 2.1723
385 1.59572
390 2.06741
395 1.91311
400 2.11749
405 1.70999
410 1.78643
415 2.04497
420 1.72549
425 1.94672
430 2.06194
435 1.85953
440 2.52988
445 3.15946
450 2.02529
455 1.60561
460 2.07502
465 2.07104
470 1.5528
475 2.19968
480 2.08784
485 2.32226
490 1.86892
495 1.87063
500 1.74606
505 1.38322
510 2.09904
515 1.48946
520 1.6624
525 1.78586
530 2.09678
535 2.57286
540 2.82464
545 1.95105
550 1.8329
555 1.26427
560 1.89092
565 1.31936
570 1.72537
575 1.22572
580 1.40205
585 2.04024
590 1.8627
595 1.53426
600 0.7343
Ex : 273
200 1.50688
205 1.06831
210 1.01582
215 1.27097
220 1.53583
225 1.7426
230 1.48217
235 1.75174
240 1.61942
245 1.1828
250 2.0906
255 1.4345
260 1.5161
265 1.38838
270 1.80456
275 1.35215
280 1.07144
285 1.16853
290 1.33949
295 1.67996
300 1.7972
305 1.54355
310 2.12655
315 1.19311
320 1.24617
325 1.09965
330 1.84796
335 1.42406
340 1.6666
345 1.61262
350 1.58017
355 1.36588
360 1.79357
365 1.88256
370 2.06486
375 1.94043
380 2.04414
385 1.6771
390 1.60035
395 1.44015
400 1.28438
405 1.54363
410 1.96407
415 1.5582
420 1.72263
425 1.65123
430 2.47418
435 1.89057
440 1.41063
445 1.98496
450 1.67775
455 1.61559
460 1.79804
465 1.54673
470 2.18022
475 1.66204
480 2.10806
485 1.72611
490 1.8149
495 2.15529
500 1.91179
505 1.61561
510 1.64379
515 1.52216
520 1.62638
525 1.88747
530 1.68514
535 2.04393
540 1.99165
545 2.56511
550 1.6395
555 1.46429
560 1.78034
565 1.8331
570 1.82451
575 1.44813
580 1.47762
585 1.24292
590 1.12872
595 1.23642
600 0.566078
Ex : 278
200 0.879705
205 1.16194
210 1.04248
215 1.11789
220 1.31784
225 1.39517
230 0.975549
235 1.20229
240 1.32947
245 0.976904
250 1.25068
255 1.28669
260 1.11412
265 1.51231
270 1.95559
275 2.06035
280 1.50622
285 1.29028
290 1.13888
295 1.59479
300 0.775473
305 1.13706
310 1.02363
315 0.840828
320 1.13435
325 1.04407
330 1.67667
335 1.48916
340 1.4497
345 1.54465
350 1.04873
355 1.36705
360 1.58932
365 1.37202
370 0.90521
375 2.1213
380 1.88814
385 1.79304
390 1.67809
395 1.89396
400 1.31759
405 1.58234
410 1.49833
415 1.76713
420 1.91908
425 1.32072
430 1.4249
435 1.68875
440 1.5882
445 1.80654
450 1.78511
455 1.99371
460 1.61791
465 1.48979
470 1.81746
475 1.18816
480 1.6363
485 1.16096
490 1.44358
495 1.39674
500 1.27058
505 2.01331
510 1.22545
515 1.33059
520 0.981211
525 1.26085
530 1.26898
535 1.17697
540 1.25278
545 1.97637
550 3.09866
555 1.99551
560 1.6093
565 0.859446
570 1.38575
575 0.898301
580 1.39251
585 0.999518
590 0.936174
595 1.46351
600 1.57224
Ex : 283
200 1.27614
205 1.08838
210 0.826495
215 0.518286
220 0.862371
225 1.01976
230 1.05684
235 1.3459
240 0.89572
245 1.40364
250 0.960053
255 1.03876
260 1.14094
265 0.823679
270 0.755169
275 1.03535
280 1.58424
285 0.846449
290 1.15057
295 0.699183
300 0.945613
305 0.792816
310 1.03008
315 1.00158
320 0.832487
325 1.15254
330 0.919772
335 0.929753
340 1.30605
345 1.10095
350 1.21921
355 1.20416
360 1.43412
365 1.26037
370 1.15711
375 1.7905
380 1.50986
385 1.10531
390 1.33656
395 1.62275
400 1.00454
405 1.51118
410 1.11325
415 1.15304
420 1.39774
425 1.38183
430 1.31476
435 1.3635
440 1.12913
445 1.08036
450 1.32879
455 1.60645
460 1.01685
465 1.27328
470 1.13614
475 0.900194
480 1.17867
485 1.41311
490 1.09853
495 1.00192
500 0.848795
505 0.952866
510 0.886221
515 0.891927
520 1.27762
525 1.0565
530 1.144
535 1.15564
540 0.976564
545 0.866111
550 0.880505
555 1.41089
560 1.84349
565 1.8246
570 1.53694
575 1.43573
580 1.25009
585 0.942165
590 0.796553
595 0.785072
600 1.57503
Ex : 288
200 0.674774
205 0.799051
210 0.849438
215 0.653558
220 1.07668
225 0.627613
230 0.554434
235 0.752989
240 1.09227
245 0.730619
250 0.893151
255 0.699441
260 0.737975
265 0.64988
270 0.693061
275 0.944522
280 1.0971
285 1.13061
290 0.880185
295 0.678613
300 0.46614
305 0.692316
310 0.942146
315 0.559347
320 1.04371
325 1.20446
330 0.665951
335 1.09276
340 1.39827
345 0.719232
350 0.983994
355 1.13802
360 0.877014
365 1.32405
370 1.19661
375 1.23471
380 1.48541
385 1.31522
390 0.954417
395 1.46804
400 1.48629
405 1.08719
410 1.07373
415 1.09861
420 0.944512
425 0.954573
430 1.35576
435 1.28232
440 1.01011
445 0.871312
450 0.991492
455 1.3981
460 1.02515
465 1.06543
470 1.02187
475 1.04555
480 1.04835
485 1.03906
490 0.902541
495 0.889757
500 0.955529
505 0.876096
510 0.88749
515 0.847515
520 1.04765
525 0.891321
530 1.33668
535 0.760218
540 0.839962
545 0.789735
550 0.714216
555 0.959292
560 1.1498
565 1.22207
570 1.93396
575 1.61305
580 1.15315
585 0.7048
590 0.787123
595 0.751779
600 0.0855495
Ex : 293
200 0.762586
205 0.565548
210 0.618893
215 0.493997
220 0.618017
225 1.00018
230 0.603094
235 0.51283
240 0.777187
245 0.704912
250 0.807887
255 0.865549
260 0.772029
265 0.680252
270 0.771955
275 1.23136
280 0.678067
285 1.11801
290 1.30766
295 0.84511
300 0.821007
305 0.687145
310 0.655849
315 0.726538
320 0.663599
325 0.654251
330 0.667622
335 0.74977
340 0.957985
345 1.01249
350 0.710677
355 1.03908
360 0.909545
365 1.09977
370 0.920146
375 0.952114
380 0.814554
385 0.683202
390 1.22893
395 0.951364
400 0.972508
405 1.16323
410 1.21293
415 1.05024
420 0.979897
425 1.20861
430 1.05525
435 0.721918
440 1.16216
445 0.999541
450 0.98595
455 1.15396
460 0.999639
465 1.25465
470 1.28924
475 0.943638
480 0.76137
485 1.01162
490 0.839079
495 0.874243
500 0.774
505 1.08588
510 0.727361
515 0.840565
520 0.768324
525 0.975376
530 0.616641
535 0.751495
540 0.684469
545 0.701385
550 0.664788
555 0.551623
560 0.688148
565 0.866288
570 0.717739
575 1.17272
580 1.89491
585 1.61348
590 0.871951
595 0.773928
600 1.10351
Ex : 298
200 0.75201
205 0.573064
210 0.815401
215 0.432342
220 0.596426
225 0.516275
230 0.51839
235 0.751016
240 0.553982
245 0.448215
250 0.588855
255 0.293969
260 0.783818
265 0.782962
270 0.446067
275 0.874342
280 0.74008
285 0.688936
290 0.797603
295 1.13617
300 0.744711
305 0.488952
310 0.539612
315 0.498202
320 0.453786
325 0.549329
330 0.637336
335 0.605773
340 0.484331
345 0.728234
350 0.695405
355 0.929559
360 0.803065
365 0.842303
370 0.833091
375 0.96165
380 0.839849
385 0.840364
390 0.960644
395 0.765085
400 1.16628
405 0.920625
410 1.08469
415 0.923206
420 0.974913
425 0.920283
430 1.10538
435 0.906119
440 0.910989
445 0.881565
450 1.1964
455 0.964363
460 0.940866
465 1.08033
470 0.826822
475 0.992043
480 1.0932
485 0.698498
490 0.842184
495 0.694198
500 0.946699
505 0.602515
510 1.07594
515 0.911394
520 0.722505
525 0.80846
530 0.776846
535 0.622889
540 0.46277
545 0.903554
550 0.911154
555 0.844228
560 0.827576
565 0.521119
570 0.494616
575 0.731651
580 0.932061
585 1.15256
590 1.36478
595 1.3646
600 1.34217
Ex : 303
200 0.318857
205 0.888212
210 0.863615
215 0.369495
220 0.511508
225 0.391111
230 0.539543
235 0.672334
240 0.759859
245 0.752788
250 0.511214
255 0.552097
260 0.633714
265 0.660041
270 0.288235
275 0.496496
280 0.534094
285 0.452912
290 0.495964
295 0.906666
300 1.20407
305 0.770868
310 0.564959
315 0.548066
320 0.563522
325 0.594317
330 0.426413
335 0.434462
340 0.538185
345 0.609704
350 0.679723
355 0.673354
360 0.673483
365 0.648938
370 0.594068
375 0.705882
380 0.805342
385 0.835856
390 1.02294
395 0.92812
400 0.972347
405 0.738861
410 0.868955
415 1.10071
420 0.767457
425 1.05256
430 0.95838
435 0.741254
440 0.745435
445 0.958737
450 1.04909
455 0.828479
460 0.969462
465 0.79575
470 0.912083
475 0.723508
480 0.647005
485 0.805607
490 0.805276
495 0.638224
500 1.06041
505 0.694835
510 0.495407
515 0.607732
520 0.617917
525 0.573378
530 0.565356
535 0.428796
540 0.439135
545 0.624555
550 0.648034
555 0.780836
560 0.769352
565 0.580252
570 0.555653
575 0.519931
580 0.603781
585 0.516945
590 0.561316
595 1.1635
600 2.08205
Ex : 308
200 0.448847
205 0.291409
210 0.475537
215 0.37893
220 0.346671
225 0.437456
230 0.444992
235 0.609395
240 0.726375
245 0.500558
250 0.708522
255 0.570163
260 0.469447
265 0.663436
270 0.611559
275 0.629578
280 0.496113
285 0.526877
290 0.451358
295 0.432882
300 0.741818
305 1.07555
310 0.710004
315 0.56661
320 0.446038
325 0.511327
330 0.523364
335 0.607003
340 0.617015
345 0.522056
350 0.508684
355 0.56967
360 0.624259
365 0.754032
370 0.567273
375 0.652434
380 0.668361
385 0.977335
390 0.872327
395 0.958036
400 0.752153
405 1.03865
410 0.783429
415 0.753804
420 0.852783
425 0.801898
430 0.937055
435 0.775516
440 1.01305
445 0.899919
450 0.742379
455 0.849258
460 0.84229
465 0.900019
470 0.652034
475 0.688356
480 1.08262
485 0.660567
490 0.577313
495 0.567287
500 0.625107
505 0.539395
510 0.647912
515 0.696595
520 0.453607
525 0.52791
530 0.623676
535 0.408782
540 0.322472
545 0.333168
550 0.586197
555 0.539135
560 0.506055
565 0.574515
570 0.698506
575 0.502883
580 0.546206
585 0.576434
590 0.46802
595 0.560292
600 0.0637591
Ex : 313
200 0.375
205 0.417714
210 0.368748
215 0.418091
220 0.406266
225 0.551212
230 0.355372
235 0.346703
240 0.374815
245 0.437686
250 0.351754
255 0.466776
260 0.454451
265 0.517533
270 0.466047
275 0.358842
280 0.420855
285 0.360458
290 0.392064
295 0.311965
300 0.365584
305 0.978869
310 1.05529
315 0.636465
320 0.447577
325 0.547872
330 0.62524
335 0.669625
340 0.609207
345 0.699204
350 0.706481
355 0.506877
360 0.504733
365 0.640331
370 0.822948
375 0.860615
380 1.21722
385 1.23522
390 0.880558
395 0.966669
400 1.09143
405 1.23904
410 1.23818
415 1.21471
420 1.194
425 1.15938
430 1.08517
435 1.34515
440 1.11538
445 1.28549
450 1.01568
455 0.862651
460 0.807645
465 0.845592
470 0.796862
475 0.844721
480 0.666158
485 0.800742
490 0.621349
495 0.682695
500 0.476633
505 0.583794
510 0.785468
515 0.761738
520 0.61116
525 0.5595
530 0.689316
535 0.488664
540 0.564341
545 0.456244
550 0.500267
555 0.5769
560 0.511578
565 0.310248
570 0.352556
575 0.49317
580 0.375656
585 0.431253
590 0.485502
595 0.294735
600 0.497742
Ex : 318
200 0.358186
205 0.313068
210 0.318973
215 0.456744
220 0.208324
225 0.352482
230 0.359937
235 0.203373
240 0.299091
245 0.26494
250 0.314902
255 0.263787
260 0.382467
265 0.454024
270 0.415126
275 0.337128
280 0.300092
285 0.27143
290 0.502185
295 0.343745
300 0.404092
305 0.404637
310 1.20235
315 1.81342
320 0.962031
325 0.735341
330 0.751941
335 0.973608
340 1.19867
345 1.41788
350 1.9404
355 1.95923
360 3.07179
365 3.76287
370 4.12992
375 4.80923
380 5.87365
385 6.24835
390 6.98925
395 7.1125
400 7.49331
405 7.70547
410 7.772
415 8.04686
420 7.76994
425 7.21887
430 7.15626
435 7.2178
440 7.32855
445 6.59896
450 6.05646
455 5.61844
460 5.40376
465 5.39827
470 5.16886
475 4.2806
480 3.79311
485 3.47515
490 3.26197
495 3.05692
500 2.74288
505 2.24186
510 1.93251
515 1.50247
520 1.59859
525 1.28153
530 1.28379
535 1.1918
540 1.05427
545 0.925654
550 0.717689
555 0.669185
560 0.821607
565 0.51237
570 0.503125
575 0.61116
580 0.623654
585 0.4747
590 0.393198
595 0.346746
600 0.0394583
Ex : 323
200 0.374
205 0.27174
210 0.333979
215 0.383756
220 0.338525
225 0.456826
230 0.396734
235 0.305396
240 0.430581
245 0.335514
250 0.374602
255 0.392456
260 0.326196
265 0.311134
270 0.424959
275 0.251328
280 0.345658
285 0.31146
290 0.362079
295 0.375937
300 0.527056
305 0.446234
310 0.555504
315 5.16461
320 18.8177
325 7.54776
330 2.41405
335 3.09491
340 3.97208
345 5.29379
350 8.20641
355 10.5083
360 12.8678
365 14.9099
370 18.7439
375 20.7493
380 24.9483
385 26.1343
390 29.4935
395 31.6023
400 33.0781
405 33.6933
410 33.7313
415 34.0836
420 34.0459
425 32.1916
430 31.2081
435 30.7376
440 30.2337
445 28.7216
450 27.4264
455 25.1235
460 23.8163
465 21.8285
470 20.3337
475 18.6306
480 16.2211
485 15.8373
490 13.8381
495 12.0855
500 10.8551
505 9.54504
510 8.34687
515 7.30752
520 5.75781
525 5.66942
530 4.90239
535 3.97336
540 3.62077
545 3.10624
550 2.80317
555 2.22956
560 2.24388
565 1.69377
570 1.36896
575 1.12077
580 0.823653
585 0.606998
590 0.762571
595 0.733384
600 1.07191
Ex : 328
200 0.22636
205 0.220761
210 0.218864
215 0.319568
220 0.212315
225 0.31703
230 0.267277
235 0.281546
240 0.271688
245 0.246825
250 0.353925
255 0.222174
260 0.295965
265 0.420785
270 0.295628
275 0.212184
280 0.276244
285 0.322896
290 0.459726
295 0.422354
300 0.373443
305 0.56612
310 0.413633
315 1.44317
320 38.0323
325 84.4883
330 28.508
335 6.97151
340 5.74982
345 7.26207
350 9.48075
355 12.807
360 18.1404
365 20.2871
370 22.0404
375 25.9277
380 28.737
385 31.2479
390 33.7049
395 37.5357
400 38.2743
405 38.1422
410 39.5356
415 38.5618
420 38.4012
425 38.169
430 35.6398
435 35.4192
440 34.5025
445 32.5371
450 32.0011
455 29.8556
460 27.5197
465 25.2842
470 23.8482
475 21.5377
480 18.7733
485 17.8197
490 16.3789
495 14.6446
500 12.9257
505 11.4553
510 10.4637
515 9.14789
520 7.91028
525 7.06229
530 6.398
535 5.43312
540 4.8208
545 4.22463
550 3.61158
555 2.99076
560 2.73644
565 2.46184
570 1.91052
575 1.5729
580 1.28772
585 1.11482
590 0.751074
595 0.773676
600 0.966539
Ex : 333
200 0.388438
205 0.277042
210 0.264506
215 0.296748
220 0.322426
225 0.252249
230 0.35305
235 0.268803
240 0.328898
245 0.263299
250 0.359037
255 0.398792
260 0.313108
265 0.338699
270 0.31331
275 0.274395
280 0.214618
285 0.284108
290 0.273148
295 0.296187
300 0.313585
305 0.466271
310 0.37622
315 0.356117
320 6.39338
325 111.708
330 189.227
335 50.802
340 9.44219
345 5.56678
350 6.1481
355 7.33665
360 10.5132
365 15.0186
370 14.7313
375 16.0079
380 16.6605
385 18.8262
390 19.4247
395 20.7945
400 21.278
405 22.1819
410 22.5213
415 22.7133
420 21.4633
425 21.5103
430 20.6735
435 19.6859
440 19.6314
445 18.6506
450 17.7556
455 16.9012
460 15.5701
465 15.5375
470 14.1538
475 14.1079
480 13.0324
485 11.9823
490 10.8338
495 9.96986
500 9.19301
505 8.4178
510 7.74665
515 6.74693
520 5.76348
525 5.49534
530 4.7029
535 4.40958
540 3.79331
545 3.4873
550 3.20878
555 2.63553
560 2.52063
565 2.25397
570 1.58681
575 1.43871
580 1.10856
585 1.07321
590 0.973575
595 0.89046
600 2.17859
Ex : 338
200 0.289505
205 0.217532
210 0.209901
215 0.214105
220 0.187681
225 0.310617
230 0.315713
235 0.285392
240 0.206525
245 0.284654
250 0.24701
255 0.371607
260 0.296144
265 0.171683
270 0.316727
275 0.234587
280 0.202767
285 0.267206
290 0.267886
295 0.260338
300 0.252632
305 0.265293
310 0.43196
315 0.538625
320 0.653371
325 12.0555
330 167.192
335 245.293
340 62.0494
345 10.0782
350 4.80326
355 4.48733
360 4.09405
365 6.31358
370 10.5489
375 11.4425
380 10.0754
385 9.50794
390 9.62627
395 10.5737
400 11.1422
405 11.0846
410 10.5993
415 11.3605
420 11.48
425 11.0124
430 10.9516
435 10.6099
440 10.0066
445 10.5403
450 10.2918
455 10.2952
460 10.0255
465 9.81466
470 10.0423
475 9.89004
480 8.7908
485 9.01004
490 8.55428
495 7.76134
500 7.18447
505 6.94873
510 6.32829
515 6.07914
520 5.48467
525 4.67227
530 4.43383
535 3.99383
540 3.77668
545 3.46619
550 3.04338
555 2.59877
560 2.30311
565 2.19847
570 1.86569
575 1.63583
580 1.1104
585 0.911638
590 0.879957
595 0.783999
600 0.853406
Ex : 343
200 0.2854
205 0.23243
210 0.267353
215 0.195437
220 0.197544
225 0.308289
230 0.273626
235 0.224473
240 0.322025
245 0.191727
250 0.230998
255 0.247133
260 0.220868
265 0.252711
270 0.181755
275 0.275399
280 0.309599
285 0.261977
290 0.252064
295 0.222969
300 0.286112
305 0.227298
310 0.374223
315 0.295705
320 0.447334
325 0.534096
330 13.8079
335 194.383
340 272.606
345 67.7496
350 9.95196
355 3.75351
360 3.24297
365 2.7089
370 3.87829
375 7.72843
380 9.04112
385 7.78459
390 6.13761
395 6.45736
400 6.88312
405 6.84005
410 7.12212
415 7.44126
420 7.70824
425 7.79358
430 7.74291
435 7.71668
440 8.12009
445 7.92881
450 7.9358
455 8.24936
460 8.98054
465 9.34582
470 8.91771
475 8.73575
480 8.85528
485 8.64081
490 8.6211
495 8.26851
500 7.30715
505 7.33059
510 6.86063
515 6.43107
520 5.88104
525 5.45
530 4.91258
535 4.32326
540 3.82755
545 3.89107
550 3.19229
555 2.76083
560 2.5393
565 2.17866
570 1.84269
575 1.45923
580 1.30835
585 1.10124
590 1.05097
595 0.737202
600 0.847254
Ex : 348
200 0.22935
205 0.235931
210 0.1703
215 0.198441
220 0.200212
225 0.220438
230 0.158002
235 0.150787
240 0.17882
245 0.193832
250 0.223195
255 0.251335
260 0.249796
265 0.188086
270 0.250357
275 0.255545
280 0.231868
285 0.257766
290 0.210106
295 0.230325
300 0.314191
305 0.3012
310 0.258765
315 0.36433
320 0.317543
325 0.298508
330 0.505498
335 13.8624
340 194.397
345 282.424
350 74.3026
355 10.3372
360 3.48423
365 2.73958
370 2.50923
375 3.02084
380 5.97467
385 8.70956
390 7.33274
395 5.89671
400 5.48186
405 5.59821
410 5.83127
415 6.10435
420 6.44999
425 6.56287
430 6.86154
435 6.67381
440 7.10452
445 7.92569
450 8.11336
455 8.35444
460 9.25129
465 9.40245
470 9.55433
475 9.93833
480 9.25836
485 9.76736
490 9.89942
495 9.86229
500 8.99652
505 8.38847
510 8.23894
515 7.74027
520 6.76472
525 6.45381
530 5.75771
535 5.37141
540 4.97533
545 4.57555
550 4.05965
555 3.69321
560 2.96112
565 2.7138
570 2.31069
575 1.82442
580 1.59362
585 1.15469
590 0.949662
595 0.936724
600 0.400217
Ex : 353
200 0.14072
205 0.30526
210 0.272708
215 0.183421
220 0.170676
225 0.255959
230 0.151149
235 0.267074
240 0.232436
245 0.228402
250 0.218974
255 0.175654
260 0.160932
265 0.224044
270 0.224912
275 0.298569
280 0.229614
285 0.223158
290 0.233169
295 0.26202
300 0.14323
305 0.267892
310 0.257309
315 0.24742
320 0.364632
325 0.429479
330 0.342286
335 0.451946
340 13.8451
345 198.074
350 278.125
355 70.5986
360 9.88317
365 3.18537
370 2.64232
375 2.60215
380 2.74244
385 5.11051
390 7.9448
395 7.35765
400 6.18895
405 5.28146
410 5.45802
415 5.49287
420 5.92474
425 5.93776
430 6.22626
435 6.60694
440 6.76728
445 7.23402
450 8.04193
455 8.76315
460 9.45391
465 10.1744
470 10.6058
475 11.0292
480 11.5717
485 11.236
490 11.1807
495 10.8426
500 10.8327
505 10.1691
510 9.44781
515 8.7974
520 8.21942
525 7.3963
530 6.69569
535 6.13817
540 5.43293
545 4.95376
550 4.65352
555 4.10794
560 3.5879
565 3.19293
570 2.64358
575 2.37035
580 1.70953
585 1.30205
590 1.01308
595 0.791554
600 0.210239
Ex : 358
200 0.186556
205 0.177281
210 0.227948
215 0.206554
220 0.128157
225 0.202566
230 0.207536
235 0.163882
240 0.220801
245 0.278697
250 0.231427
255 0.202147
260 0.214609
265 0.285169
270 0.162366
275 0.285809
280 0.174862
285 0.176048
290 0.217643
295 0.211166
300 0.155294
305 0.216572
310 0.287453
315 0.204242
320 0.266883
325 0.26609
330 0.3214
335 0.363568
340 0.521847
345 13.2104
350 188.265
355 282.396
360 72.5922
365 9.94362
370 3.01643
375 3.16978
380 2.61026
385 2.56536
390 4.44524
395 8.53523
400 8.23587
405 6.48091
410 5.71188
415 5.49584
420 5.72611
425 5.95831
430 6.07896
435 6.54236
440 7.08128
445 7.56334
450 8.20353
455 9.32015
460 10.3539
465 10.8913
470 11.4408
475 11.785
480 12.0063
485 12.5015
490 11.8511
495 12.2462
500 12.0324
505 11.3334
510 10.4543
515 9.69401
520 8.77196
525 8.02218
530 7.61974
535 7.1588
540 6.48666
545 5.4587
550 5.13873
555 4.45953
560 3.89124
565 3.5434
570 2.91587
575 2.25645
580 1.9856
585 1.55436
590 1.29705
595 0.981126
600 0.735273
Ex : 363
200 0.172826
205 0.151069
210 0.215821
215 0.20901
220 0.22528
225 0.173983
230 0.200938
235 0.280212
240 0.205316
245 0.159598
250 0.153087
255 0.190094
260 0.238576
265 0.16916
270 0.16319
275 0.223629
280 0.253756
285 0.184012
290 0.116757
295 0.193261
300 0.212506
305 0.207412
310 0.195539
315 0.228265
320 0.202605
325 0.214339
330 0.261076
335 0.274208
340 0.405449
345 0.624981
350 12.2398
355 184.46
360 279.183
365 75.1273
370 10.2785
375 3.4736
380 2.9186
385 2.78894
390 2.71164
395 3.70704
400 7.25348
405 8.2966
410 6.52786
415 6.04008
420 5.62684
425 5.83436
430 6.19466
435 6.6436
440 6.98355
445 8.0568
450 8.8691
455 9.98766
460 10.909
465 11.9365
470 13.0173
475 13.3165
480 13.7822
485 14.0898
490 14.0884
495 13.8045
500 12.9642
505 12.5438
510 11.8773
515 11.1738
520 10.3588
525 9.45996
530 8.66885
535 7.9362
540 7.11615
545 6.39112
550 5.67609
555 5.15329
560 4.53918
565 3.72091
570 3.18356
575 2.515
580 1.9604
585 1.56868
590 1.34746
595 1.10635
600 0.579914
Ex : 368
200 0.215484
205 0.167381
210 0.166896
215 0.258885
220 0.141327
225 0.212219
230 0.183814
235 0.191609
240 0.227056
245 0.165956
250 0.151693
255 0.196678
260 0.171393
265 0.229317
270 0.148102
275 0.253142
280 0.182741
285 0.241882
290 0.202795
295 0.155393
300 0.217261
305 0.130395
310 0.235777
315 0.219564
320 0.257021
325 0.153214
330 0.274762
335 0.276616
340 0.274228
345 0.318589
350 0.534584
355 10.3047
360 176.771
365 282.211
370 77.3398
375 10.7545
380 3.25896
385 2.73675
390 2.35954
395 2.53345
400 3.24625
405 5.99313
410 8.06906
415 6.82743
420 5.9197
425 5.33243
430 5.31899
435 5.70393
440 6.63172
445 7.79292
450 8.75944
455 10.4095
460 12.017
465 13.4218
470 14.6335
475 14.8539
480 15.2578
485 15.7906
490 16.4802
495 15.9403
500 15.6137
505 14.503
510 14.1029
515 13.1191
520 12.405
525 11.278
530 9.99664
535 9.50254
540 8.08636
545 7.65623
550 6.98013
555 6.14829
560 5.36838
565 4.70375
570 3.85465
575 2.97819
580 2.61612
585 1.99822
590 1.4516
595 1.18961
600 1.01345
Ex : 373
200 0.171551
205 0.164762
210 0.193362
215 0.153372
220 0.181606
225 0.137039
230 0.274335
235 0.137392
240 0.16573
245 0.208681
250 0.149618
255 0.196634
260 0.159376
265 0.132372
270 0.136863
275 0.120738
280 0.1255
285 0.207453
290 0.208287
295 0.156066
300 0.194521
305 0.199024
310 0.150699
315 0.173397
320 0.19457
325 0.14997
330 0.21511
335 0.214479
340 0.221506
345 0.327015
350 0.400053
355 0.470969
360 11.4901
365 177.858
370 284.494
375 78.2525
380 10.7041
385 3.30646
390 2.90439
395 2.84729
400 2.79302
405 3.25101
410 5.38231
415 8.15951
420 6.77593
425 5.7016
430 5.51593
435 5.61501
440 6.22431
445 7.40688
450 8.88767
455 10.8046
460 11.9544
465 13.9666
470 14.5967
475 15.7101
480 16.378
485 16.7503
490 17.6684
495 17.6928
500 16.7687
505 16.3423
510 15.2595
515 14.1026
520 13.1416
525 12.138
530 11.0969
535 10.2446
540 9.19756
545 8.51185
550 7.41638
555 6.76789
560 5.87678
565 5.01955
570 4.14776
575 3.40536
580 2.66597
585 2.04163
590 1.47053
595 1.34463
600 1.50175
Ex : 378
200 0.230475
205 0.238783
210 0.173019
215 0.13296
220 0.141417
225 0.200221
230 0.177511
235 0.165544
240 0.221017
245 0.11256
250 0.130629
255 0.151327
260 0.224643
265 0.196173
270 0.166829
275 0.175456
280 0.150992
285 0.164413
290 0.215429
295 0.221546
300 0.151296
305 0.13136
310 0.197526
315 0.180376
320 0.216627
325 0.207643
330 0.198215
335 0.193399
340 0.270929
345 0.260014
350 0.257502
355 0.258316
360 0.425563
365 11.2301
370 186.092
375 295.049
380 81.8334
385 11.4125
390 3.39428
395 3.36263
400 3.45253
405 3.09963
410 3.39208
415 4.70735
420 7.92677
425 7.44852
430 6.34544
435 6.15082
440 6.25354
445 7.33638
450 8.33212
455 10.1775
460 11.4542
465 13.2096
470 14.6294
475 15.326
480 15.6809
485 16.0814
490 16.7141
495 16.5859
500 16.481
505 15.4102
510 14.2749
515 14.0938
520 12.6062
525 11.6349
530 10.8892
535 10.0599
540 8.91482
545 7.89285
550 6.6375
555 6.01408
560 5.45772
565 4.64928
570 3.91647
575 3.22537
580 2.60844
585 1.98857
590 1.58094
595 1.2861
600 1.22298
Ex : 383
200 0.121204
205 0.173334
210 0.169734
215 0.153622
220 0.135002
225 0.156165
230 0.177619
235 0.127077
240 0.123118
245 0.202602
250 0.110784
255 0.13812
260 0.144296
265 0.126868
270 0.156223
275 0.214246
280 0.206417
285 0.129104
290 0.130126
295 0.111999
300 0.176723
305 0.15335
310 0.15941
315 0.175105
320 0.163247
325 0.183666
330 0.17659
335 0.167044
340 0.181463
345 0.271292
350 0.248425
355 0.309445
360 0.329724
365 0.455718
370 10.8578
375 184.204
380 307.332
385 85.79
390 11.9444
395 3.48608
400 3.10888
405 3.50718
410 3.40016
415 3.32745
420 4.20811
425 7.08835
430 8.02114
435 6.86406
440 6.9873
445 7.62388
450 8.31106
455 10.1888
460 11.5379
465 13.429
470 13.8279
475 14.9632
480 15.694
485 16.0657
490 16.5778
495 16.3878
500 16.1379
505 15.8847
510 14.6422
515 13.832
520 12.8288
525 11.6895
530 10.4781
535 9.91027
540 9.18257
545 7.81523
550 7.02234
555 6.39596
560 5.52366
565 4.8021
570 3.8358
575 3.2051
580 2.58347
585 1.86294
590 1.65714
595 1.16611
600 0.805232
Ex : 388
200 0.186721
205 0.135271
210 0.128338
215 0.13917
220 0.15157
225 0.11666
230 0.0872957
235 0.135842
240 0.167254
245 0.150972
250 0.115782
255 0.151976
260 0.169406
265 0.127932
270 0.183719
275 0.171868
280 0.16044
285 0.215147
290 0.162133
295 0.189795
300 0.1262
305 0.141354
310 0.138701
315 0.176167
320 0.190925
325 0.173935
330 0.224746
335 0.228421
340 0.182296
345 0.215224
350 0.249424
355 0.246295
360 0.281913
365 0.312075
370 0.486679
375 11.7794
380 191.278
385 307.627
390 84.2464
395 11.4692
400 3.1711
405 2.94842
410 3.28025
415 2.92925
420 3.01045
425 3.72034
430 6.19913
435 7.95359
440 7.41291
445 7.62063
450 8.41194
455 9.69509
460 11.5193
465 13.1932
470 14.1315
475 15.8419
480 16.7168
485 17.3034
490 17.4408
495 17.313
500 17.1547
505 16.0526
510 15.1443
515 14.0866
520 13.3115
525 12.3366
530 11.0551
535 10.4054
540 9.18295
545 8.4047
550 7.58618
555 6.66707
560 5.79487
565 5.04588
570 4.29759
575 3.50396
580 2.55342
585 2.10913
590 1.59562
595 1.3078
600 1.052
Ex : 393
200 0.153245
205 0.154562
210 0.135549
215 0.128834
220 0.155334
225 0.150549
230 0.116816
235 0.133213
240 0.134049
245 0.0978744
250 0.121348
255 0.112735
260 0.138572
265 0.169084
270 0.145787
275 0.128703
280 0.178906
285 0.152769
290 0.161066
295 0.151098
300 0.12639
305 0.133879
310 0.167815
315 0.158627
320 0.15748
325 0.116148
330 0.14443
335 0.179784
340 0.204584
345 0.172398
350 0.20137
355 0.201076
360 0.280878
365 0.219161
370 0.337176
375 0.50419
380 9.89324
385 187.15
390 315.595
395 87.4434
400 11.7707
405 3.2041
410 2.68763
415 2.82536
420 2.6532
425 2.49576
430 3.24793
435 5.36355
440 8.46371
445 8.42816
450 9.2108
455 10.5019
460 11.6569
465 13.5469
470 14.9491
475 15.8143
480 16.6482
485 17.6054
490 17.9381
495 18.3041
500 17.8044
505 16.9563
510 16.2995
515 15.0601
520 14.0483
525 12.8443
530 11.8755
535 11.0716
540 9.61588
545 8.8203
550 7.86374
555 7.14898
560 6.4049
565 5.28547
570 4.29561
575 3.535
580 2.82346
585 2.07356
590 1.73725
595 1.38749
600 0.892082
Ex : 398
200 0.145725
205 0.135774
210 0.11908
215 0.119426
220 0.146944
225 0.178049
230 0.110369
235 0.113518
240 0.138872
245 0.122116
250 0.162191
255 0.132622
260 0.114875
265 0.157059
270 0.129432
275 0.111727
280 0.116291
285 0.171171
290 0.149261
295 0.142636
300 0.111211
305 0.169534
310 0.199023
315 0.145615
320 0.138687
325 0.125521
330 0.157358
335 0.154084
340 0.215715
345 0.138044
350 0.11125
355 0.22291
360 0.19502
365 0.207168
370 0.240788
375 0.311586
380 0.439257
385 10.8231
390 194.034
395 326.859
400 90.2805
405 12.1223
410 3.19564
415 2.63861
420 2.87701
425 2.56412
430 2.75935
435 3.33083
440 5.3897
445 8.70809
450 10.2918
455 10.894
460 12.5443
465 13.7261
470 15.2361
475 16.2266
480 17.5685
485 18.081
490 18.7757
495 18.5081
500 17.9271
505 17.6272
510 16.5015
515 15.4841
520 14.6016
525 13.3854
530 12.4034
535 11.1611
540 10.3867
545 9.1385
550 8.41066
555 7.27504
560 6.32703
565 5.5912
570 4.68717
575 3.61033
580 2.84101
585 2.15804
590 1.77837
595 1.40987
600 1.19358
Ex : 403
200 0.118795
205 0.125075
210 0.137398
215 0.143035
220 0.200146
225 0.170379
230 0.104003
235 0.158791
240 0.135459
245 0.126566
250 0.206153
255 0.147203
260 0.169026
265 0.122494
270 0.170575
275 0.122377
280 0.135543
285 0.133765
290 0.149967
295 0.129605
300 0.120905
305 0.153191
310 0.143793
315 0.142891
320 0.169687
325 0.130333
330 0.132202
335 0.135056
340 0.121734
345 0.144828
350 0.190113
355 0.158507
360 0.151476
365 0.222929
370 0.272213
375 0.267826
380 0.419131
385 0.513699
390 11.7609
395 197.233
400 322.679
405 89.3518
410 12.24
415 3.1748
420 2.56599
425 2.80717
430 3.03494
435 3.1093
440 4.10669
445 5.83876
450 9.77799
455 12.4857
460 13.2555
465 14.111
470 15.5499
475 16.5177
480 17.9728
485 18.4365
490 19.1414
495 19.1745
500 18.5404
505 17.9317
510 17.1714
515 15.7761
520 14.6463
525 13.7369
530 12.8449
535 11.5584
540 10.5213
545 9.51316
550 8.45974
555 7.54158
560 6.59869
565 5.71045
570 4.50579
575 3.72553
580 3.02681
585 2.31429
590 1.74493
595 1.43868
600 2.07364
Ex : 408
200 0.150812
205 0.16508
210 0.193827
215 0.160604
220 0.155448
225 0.135244
230 0.144465
235 0.203672
240 0.116756
245 0.130851
250 0.124455
255 0.155838
260 0.134605
265 0.130146
270 0.171311
275 0.141629
280 0.169212
285 0.180675
290 0.124759
295 0.13699
300 0.151743
305 0.141316
310 0.169583
315 0.136881
320 0.158826
325 0.151194
330 0.187754
335 0.148718
340 0.175855
345 0.179789
350 0.135972
355 0.156884
360 0.197495
365 0.177543
370 0.178883
375 0.25729
380 0.301923
385 0.460881
390 0.585016
395 11.4822
400 203.817
405 332.74
410 87.9425
415 11.8701
420 3.16009
425 2.40622
430 2.80404
435 3.09804
440 3.8451
445 5.18977
450 7.28254
455 11.2636
460 14.3124
465 14.9727
470 15.5097
475 16.8179
480 17.9437
485 18.5878
490 18.8166
495 18.7732
500 18.3231
505 18.0152
510 17.1791
515 15.6352
520 14.5433
525 13.6041
530 12.4713
535 11.4277
540 10.5337
545 9.14982
550 8.26956
555 7.37221
560 6.34055
565 5.4559
570 4.52404
575 3.683
580 3.07473
585 2.26375
590 1.64174
595 1.34942
600 1.35452
Ex : 413
200 0.0952877
205 0.107822
210 0.133725
215 0.181305
220 0.14189
225 0.126984
230 0.167591
235 0.104819
240 0.149761
245 0.137862
250 0.129768
255 0.17124
260 0.145149
265 0.136476
270 0.122376
275 0.142068
280 0.135518
285 0.160096
290 0.194132
295 0.165352
300 0.20224
305 0.150367
310 0.151408
315 0.148071
320 0.156608
325 0.166741
330 0.167141
335 0.143942
340 0.171174
345 0.125812
350 0.194515
355 0.183626
360 0.14719
365 0.159844
370 0.157305
375 0.195613
380 0.222302
385 0.269747
390 0.323913
395 0.516059
400 12.8794
405 211.454
410 334.676
415 87.2424
420 11.7965
425 2.96811
430 2.27344
435 3.09659
440 3.82436
445 4.51246
450 6.40331
455 8.70337
460 12.0114
465 15.5427
470 16.4396
475 16.9671
480 17.6235
485 17.5436
490 18.4078
495 18.4857
500 17.867
505 17.5334
510 16.401
515 15.2125
520 14.4807
525 13.3652
530 12.4968
535 11.3566
540 10.0894
545 9.58947
550 8.59175
555 7.44228
560 6.31773
565 5.34342
570 4.5435
575 3.63315
580 2.79339
585 2.12695
590 1.76891
595 1.3787
600 0.801403
Ex : 418
200 0.132116
205 0.132902
210 0.135277
215 0.146143
220 0.113382
225 0.190002
230 0.127469
235 0.168483
240 0.126015
245 0.125882
250 0.107202
255 0.141321
260 0.1806
265 0.150089
270 0.150151
275 0.200172
280 0.149399
285 0.194058
290 0.12977
295 0.119532
300 0.145929
305 0.12503
310 0.113738
315 0.157302
320 0.192055
325 0.118543
330 0.118919
335 0.146484
340 0.249106
345 0.125342
350 0.132649
355 0.144914
360 0.205224
365 0.127328
370 0.151901
375 0.239929
380 0.255285
385 0.248868
390 0.305435
395 0.327722
400 0.527448
405 12.114
410 211.676
415 344.63
420 92.9714
425 12.1013
430 3.02655
435 2.33197
440 3.22622
445 4.5933
450 5.85103
455 7.83761
460 10.1589
465 12.7655
470 16.1968
475 17.4131
480 17.0575
485 17.2375
490 17.6136
495 17.6758
500 17.0289
505 16.7508
510 15.488
515 14.8263
520 13.8828
525 12.7309
530 11.4653
535 10.7043
540 9.60397
545 9.08572
550 7.81251
555 7.01065
560 6.00482
565 5.16803
570 4.31307
575 3.51581
580 2.86469
585 2.20772
590 1.60663
595 1.26688
600 1.32185
Ex : 423
200 0.0965571
205 0.144366
210 0.157093
215 0.110796
220 0.119617
225 0.113294
230 0.158622
235 0.154733
240 0.120059
245 0.137
250 0.205262
255 0.122533
260 0.120207
265 0.113282
270 0.1495
275 0.18732
280 0.114678
285 0.101983
290 0.189948
295 0.152463
300 0.152564
305 0.144121
310 0.16954
315 0.122514
320 0.163619
325 0.13585
330 0.122358
335 0.148746
340 0.14583
345 0.17291
350 0.171637
355 0.180291
360 0.15444
365 0.189563
370 0.156576
375 0.188274
380 0.140937
385 0.184406
390 0.235679
395 0.271727
400 0.391746
405 0.561145
410 12.6804
415 224.976
420 350.187
425 90.5369
430 11.9481
435 3.18805
440 2.7914
445 4.07986
450 5.60607
455 7.07811
460 8.69875
465 10.7299
470 12.4635
475 15.8274
480 17.3827
485 16.5817
490 16.9352
495 16.7848
500 16.1817
505 15.1491
510 14.9302
515 13.6791
520 12.6746
525 11.7908
530 10.9134
535 9.88503
540 9.31118
545 8.13468
550 7.2176
555 6.6669
560 5.74412
565 5.08726
570 4.16273
575 3.34949
580 2.68739
585 2.05339
590 1.53099
595 1.32233
600 1.452
Ex : 428
200 0.156081
205 0.17529
210 0.136902
215 0.144992
220 0.131914
225 0.113392
230 0.195219
235 0.128656
240 0.153493
245 0.162026
250 0.164494
255 0.142512
260 0.136293
265 0.159118
270 0.13974
275 0.152104
280 0.127535
285 0.169005
290 0.108758
295 0.178963
300 0.106705
305 0.1691
310 0.226878
315 0.102148
320 0.124367
325 0.130432
330 0.154912
335 0.190863
340 0.167697
345 0.182074
350 0.147969
355 0.176685
360 0.234363
365 0.185803
370 0.211732
375 0.158564
380 0.180815
385 0.181904
390 0.250643
395 0.231847
400 0.234881
405 0.371841
410 0.60509
415 14.0726
420 227.92
425 361.665
430 96.5371
435 12.8333
440 3.81439
445 3.52513
450 5.00471
455 6.70221
460 7.98157
465 9.63386
470 10.7604
475 11.8662
480 14.4477
485 16.3412
490 15.7518
495 15.157
500 14.7881
505 14.0397
510 13.1832
515 12.4973
520 11.3631
525 10.7006
530 9.75477
535 9.05746
540 8.33454
545 7.41361
550 6.65137
555 5.874
560 5.10286
565 4.37351
570 3.61639
575 2.88896
580 2.4518
585 1.82141
590 1.45732
595 1.03894
600 1.29983
Ex : 433
200 0.134807
205 0.141592
210 0.121601
215 0.197156
220 0.145639
225 0.194158
230 0.125862
235 0.13132
240 0.178719
245 0.180183
250 0.145639
255 0.109895
260 0.22406
265 0.164423
270 0.163688
275 0.1344
280 0.107577
285 0.166038
290 0.142338
295 0.0992454
300 0.098071
305 0.134351
310 0.139696
315 0.18021
320 0.146954
325 0.190431
330 0.154358
335 0.197479
340 0.159682
345 0.191475
350 0.194882
355 0.18386
360 0.144012
365 0.135871
370 0.146804
375 0.192642
380 0.182341
385 0.205888
390 0.23944
395 0.191173
400 0.199869
405 0.248909
410 0.365409
415 0.573519
420 16.0742
425 251.104
430 377.062
435 96.6387
440 13.2653
445 4.43277
450 4.24528
455 5.81811
460 7.45702
465 8.23193
470 9.43493
475 10.381
480 11.1491
485 12.9906
490 15.0475
495 14.3142
500 13.479
505 12.7595
510 11.9202
515 11.0158
520 10.1054
525 9.6113
530 8.71856
535 8.03661
540 7.26082
545 6.68231
550 5.82509
555 5.33421
560 4.55919
565 4.15177
570 3.4613
575 2.61766
580 1.99009
585 1.53243
590 1.35979
595 0.961013
600 0.932691
Ex : 438
200 0.151652
205 0.125634
210 0.150214
215 0.140545
220 0.185437
225 0.129116
230 0.168335
235 0.15237
240 0.168887
245 0.142019
250 0.157885
255 0.134944
260 0.136902
265 0.144537
270 0.151149
275 0.136174
280 0.141281
285 0.136376
290 0.12175
295 0.172632
300 0.152415
305 0.139856
310 0.131547
315 0.0958894
320 0.100243
325 0.117763
330 0.173155
335 0.130169
340 0.169009
345 0.211178
350 0.178462
355 0.134178
360 0.154975
365 0.128981
370 0.152844
375 0.175395
380 0.16886
385 0.211543
390 0.206527
395 0.218206
400 0.244134
405 0.28079
410 0.291732
415 0.438271
420 0.637143
425 15.7157
430 253.081
435 399.845
440 102.339
445 14.401
450 5.08162
455 5.12648
460 6.01116
465 7.43735
470 8.04587
475 8.47941
480 9.31421
485 10.032
490 10.9509
495 12.4717
500 12.8714
505 11.0346
510 10.2531
515 9.70601
520 8.86636
525 8.04727
530 7.45599
535 6.61624
540 6.31985
545 5.55445
550 4.98097
555 4.46217
560 3.93703
565 3.53381
570 2.77011
575 2.34287
580 1.77263
585 1.42549
590 1.05998
595 0.920812
600 0.80784
Ex : 443
200 0.208223
205 0.174736
210 0.135086
215 0.104071
220 0.129149
225 0.196362
230 0.113227
235 0.131188
240 0.105637
245 0.135337
250 0.143476
255 0.145215
260 0.20725
265 0.156071
270 0.201376
275 0.164056
280 0.127049
285 0.14031
290 0.169199
295 0.150079
300 0.149485
305 0.123743
310 0.170175
315 0.195619
320 0.122149
325 0.154753
330 0.133994
335 0.143213
340 0.146349
345 0.160473
350 0.137774
355 0.162387
360 0.151872
365 0.201073
370 0.175623
375 0.217935
380 0.169046
385 0.197467
390 0.234458
395 0.243543
400 0.215675
405 0.200432
410 0.2123
415 0.289798
420 0.390062
425 0.694285
430 17.8725
435 271.674
440 407.14
445 103.088
450 14.9205
455 5.38218
460 4.86108
465 5.80989
470 6.7226
475 7.08609
480 7.6314
485 7.91754
490 8.1505
495 8.5899
500 9.83527
505 10.8013
510 9.18655
515 8.21013
520 7.4214
525 6.78869
530 6.03063
535 5.40056
540 5.19395
545 4.53232
550 4.05791
555 3.72887
560 3.34356
565 2.8352
570 2.39491
575 1.89828
580 1.49521
585 1.14795
590 0.863355
595 0.790152
600 0.530044
Ex : 448
200 0.115425
205 0.158985
210 0.15103
215 0.150612
220 0.153627
225 0.132566
230 0.168851
235 0.150746
240 0.148727
245 0.13672
250 0.135567
255 0.132243
260 0.151781
265 0.130543
270 0.146274
275 0.155191
280 0.123086
285 0.101791
290 0.164814
295 0.152411
300 0.167878
305 0.130526
310 0.133765
315 0.126813
320 0.140868
325 0.156242
330 0.193104
335 0.175981
340 0.195972
345 0.149475
350 0.130089
355 0.206895
360 0.185304
365 0.169253
370 0.164127
375 0.159496
380 0.156855
385 0.19746
390 0.233164
395 0.19103
400 0.237985
405 0.227703
410 0.220474
415 0.231353
420 0.333802
425 0.463595
430 0.711369
435 18.5424
440 289.976
445 428.229
450 108.908
455 15.395
460 5.38179
465 4.60217
470 5.42989
475 5.80361
480 5.92934
485 6.03064
490 6.39576
495 6.45079
500 6.5716
505 7.19316
510 8.55186
515 7.23557
520 6.28791
525 5.62068
530 5.24899
535 4.58651
540 4.10742
545 3.59964
550 3.31231
555 3.05008
560 2.61742
565 2.22025
570 1.92793
575 1.52826
580 1.27728
585 0.989282
590 0.846239
595 0.689955
600 0.426453
Ex : 453
200 0.143092
205 0.136834
210 0.141414
215 0.125422
220 0.155054
225 0.201249
230 0.155345
235 0.0884443
240 0.1037
245 0.141913
250 0.115745
255 0.104659
260 0.138829
265 0.128496
270 0.130387
275 0.118937
280 0.0855298
285 0.110537
290 0.163675
295 0.226557
300 0.151743
305 0.107215
310 0.143866
315 0.151276
320 0.11784
325 0.212916
330 0.157781
335 0.156237
340 0.12663
345 0.141745
350 0.119208
355 0.135115
360 0.193693
365 0.162541
370 0.219738
375 0.172174
380 0.183822
385 0.175771
390 0.12151
395 0.189014
400 0.179422
405 0.161303
410 0.189717
415 0.202535
420 0.27904
425 0.330267
430 0.456789
435 0.74258
440 19.4503
445 313.245
450 448.172
455 106.944
460 15.085
465 4.95302
470 3.84106
475 4.02313
480 4.53921
485 4.83277
490 4.73695
495 4.55346
500 4.73191
505 4.51343
510 4.84549
515 6.0533
520 5.86257
525 4.64122
530 4.01102
535 3.81567
540 3.33231
545 2.79015
550 2.45183
555 2.19705
560 2.01356
565 1.86127
570 1.43824
575 1.09735
580 1.00595
585 0.809972
590 0.70468
595 0.507763
600 0.194121
Ex : 458
200 0.106177
205 0.138932
210 0.173675
215 0.134758
220 0.17262
225 0.145302
230 0.183892
235 0.119789
240 0.132556
245 0.173721
250 0.147577
255 0.127726
260 0.150185
265 0.140017
270 0.148243
275 0.164792
280 0.196496
285 0.163238
290 0.204277
295 0.141769
300 0.169983
305 0.175423
310 0.160907
315 0.193828
320 0.103296
325 0.137057
330 0.167254
335 0.154569
340 0.171779
345 0.173945
350 0.157636
355 0.15893
360 0.144316
365 0.172621
370 0.14992
375 0.145856
380 0.133818
385 0.26449
390 0.313798
395 0.21615
400 0.223196
405 0.183742
410 0.211679
415 0.203642
420 0.243181
425 0.284856
430 0.339336
435 0.451257
440 0.780057
445 21.4343
450 317.202
455 465.115
460 113.312
465 15.3461
470 4.20712
475 2.80241
480 3.07949
485 3.7488
490 3.65583
495 3.56779
500 3.11387
505 3.09188
510 3.07096
515 3.34058
520 4.35116
525 4.91712
530 3.84749
535 3.07501
540 2.80608
545 2.59534
550 2.20366
555 1.8342
560 1.59039
565 1.42701
570 1.26477
575 0.926126
580 0.822461
585 0.693709
590 0.539304
595 0.578399
600 0.775956
Ex : 463
200 0.168562
205 0.135937
210 0.11666
215 0.134893
220 0.0737749
225 0.143988
230 0.125799
235 0.173309
240 0.15298
245 0.135608
250 0.158916
255 0.167141
260 0.170515
265 0.154081
270 0.178626
275 0.177995
280 0.138542
285 0.14506
290 0.135863
295 0.115857
300 0.105273
305 0.154023
310 0.11344
315 0.126463
320 0.143622
325 0.156805
330 0.153955
335 0.156577
340 0.180472
345 0.152924
350 0.202615
355 0.227808
360 0.135893
365 0.1202
370 0.139524
375 0.151885
380 0.124518
385 0.175649
390 0.141211
395 0.205975
400 0.214658
405 0.206864
410 0.156655
415 0.196619
420 0.231681
425 0.201363
430 0.256644
435 0.296493
440 0.439862
445 0.80656
450 20.3964
455 326.216
460 485.969
465 117.945
470 15.6074
475 3.72165
480 2.36109
485 2.32083
490 2.6581
495 2.80208
500 2.43173
505 2.16499
510 2.30485
515 2.23964
520 2.32673
525 3.1274
530 4.16304
535 3.5157
540 2.59388
545 2.13802
550 1.99488
555 1.51678
560 1.4099
565 1.22302
570 0.966251
575 0.888861
580 0.668531
585 0.660391
590 0.465939
595 0.413669
600 0.578246
Ex : 468
200 0.110632
205 0.130886
210 0.125537
215 0.16392
220 0.130498
225 0.0964251
230 0.101307
235 0.142373
240 0.12815
245 0.12364
250 0.133241
255 0.143969
260 0.122489
265 0.148102
270 0.124612
275 0.141786
280 0.112865
285 0.120506
290 0.159218
295 0.152051
300 0.169017
305 0.133003
310 0.154433
315 0.104108
320 0.134843
325 0.126574
330 0.112145
335 0.163522
340 0.17774
345 0.196692
350 0.173697
355 0.150609
360 0.156141
365 0.199806
370 0.173738
375 0.170019
380 0.175265
385 0.156518
390 0.147331
395 0.178631
400 0.150451
405 0.191873
410 0.178917
415 0.164378
420 0.21227
425 0.204777
430 0.233451
435 0.282473
440 0.365517
445 0.483
450 0.913603
455 22.1722
460 325.111
465 498.677
470 120.002
475 15.2631
480 3.55708
485 2.12122
490 1.83084
495 2.21349
500 2.16731
505 2.11375
510 1.81484
515 1.72659
520 1.67064
525 1.89933
530 2.21534
535 3.27941
540 3.42071
545 2.28267
550 1.99085
555 1.77757
560 1.37139
565 1.16525
570 0.882353
575 0.787309
580 0.671051
585 0.509699
590 0.476666
595 0.44161
600 0.197138
Ex : 473
200 0.0911187
205 0.169848
210 0.144628
215 0.102591
220 0.145761
225 0.143491
230 0.186791
235 0.113149
240 0.143485
245 0.142271
250 0.167776
255 0.128948
260 0.157446
265 0.184492
270 0.126933
275 0.111916
280 0.112869
285 0.139836
290 0.129962
295 0.139106
300 0.180332
305 0.158971
310 0.166578
315 0.179197
320 0.193239
325 0.13225
330 0.191536
335 0.134769
340 0.15035
345 0.111859
350 0.180293
355 0.15928
360 0.165784
365 0.135038
370 0.170639
375 0.122387
380 0.152396
385 0.160676
390 0.185934
395 0.192844
400 0.177087
405 0.20079
410 0.20789
415 0.176564
420 0.188145
425 0.195545
430 0.230039
435 0.20773
440 0.224696
445 0.326567
450 0.469787
455 0.727752
460 25.5617
465 354.523
470 486.295
475 113.407
480 14.5991
485 3.19235
490 1.85807
495 1.55548
500 1.80443
505 1.86114
510 1.76575
515 1.6191
520 1.6039
525 1.53758
530 1.56321
535 1.77601
540 2.69853
545 3.35532
550 2.38907
555 1.77603
560 1.53631
565 1.23968
570 0.982949
575 0.824727
580 0.691404
585 0.582145
590 0.484138
595 0.320249
600 0.104013
Ex : 478
200 0.1875
205 0.131812
210 0.149692
215 0.181509
220 0.180506
225 0.178845
230 0.20402
235 0.121701
240 0.132357
245 0.164508
250 0.149036
255 0.136061
260 0.131082
265 0.177884
270 0.146241
275 0.170548
280 0.14529
285 0.185101
290 0.211115
295 0.19261
300 0.146287
305 0.148628
310 0.195901
315 0.190234
320 0.152921
325 0.164613
330 0.1293
335 0.197875
340 0.152952
345 0.215389
350 0.168302
355 0.146798
360 0.156608
365 0.161961
370 0.201573
375 0.144209
380 0.250932
385 0.239413
390 0.214898
395 0.184553
400 0.16908
405 0.241094
410 0.206744
415 0.218702
420 0.177383
425 0.193728
430 0.268395
435 0.288541
440 0.270579
445 0.344511
450 0.397315
455 0.501758
460 0.849296
465 26.5302
470 357.174
475 483.732
480 117.338
485 14.8576
490 3.25766
495 1.62038
500 1.48915
505 1.55414
510 1.66625
515 1.45585
520 1.51223
525 1.48205
530 1.45174
535 1.3388
540 1.39907
545 2.10683
550 2.70425
555 2.36293
560 1.60482
565 1.27639
570 1.13692
575 0.904635
580 0.598355
585 0.565885
590 0.484826
595 0.435675
600 0.233149
Ex : 483
200 0.121543
205 0.165287
210 0.162614
215 0.153321
220 0.17846
225 0.128994
230 0.121264
235 0.130215
240 0.119454
245 0.134087
250 0.125662
255 0.183132
260 0.175214
265 0.182855
270 0.136513
275 0.22099
280 0.164815
285 0.157633
290 0.16968
295 0.1646
300 0.164019
305 0.198616
310 0.139109
315 0.168431
320 0.205373
325 0.143144
330 0.140601
335 0.151095
340 0.171436
345 0.104844
350 0.156723
355 0.213265
360 0.13193
365 0.168349
370 0.233499
375 0.163244
380 0.159727
385 0.189234
390 0.199911
395 0.149179
400 0.175952
405 0.236907
410 0.197337
415 0.201268
420 0.231808
425 0.22011
430 0.279848
435 0.231195
440 0.213487
445 0.221902
450 0.372998
455 0.380189
460 0.580799
465 0.874985
470 20.3091
475 345.966
480 516.96
485 123.822
490 15.6237
495 3.04243
500 1.56041
505 1.30353
510 1.46892
515 1.60352
520 1.60298
525 1.47544
530 1.33152
535 1.43985
540 1.378
545 1.40907
550 1.62673
555 2.45156
560 2.46199
565 1.6213
570 1.12967
575 0.916597
580 0.798807
585 0.565881
590 0.472632
595 0.413949
600 0.396595
Ex : 488
200 0.185408
205 0.157609
210 0.142356
215 0.122475
220 0.133608
225 0.183098
230 0.162995
235 0.168601
240 0.162866
245 0.170433
250 0.174202
255 0.214085
260 0.164836
265 0.164839
270 0.156665
275 0.183498
280 0.1716
285 0.146222
290 0.12693
295 0.2031
300 0.208571
305 0.204996
310 0.202753
315 0.170087
320 0.184242
325 0.191999
330 0.167056
335 0.189947
340 0.194583
345 0.157124
350 0.213847
355 0.164887
360 0.211509
365 0.212565
370 0.122354
375 0.185381
380 0.12207
385 0.148237
390 0.262301
395 0.280459
400 0.145624
405 0.192673
410 0.285062
415 0.219043
420 0.249062
425 0.1843
430 0.224368
435 0.189988
440 0.287939
445 0.295595
450 0.344073
455 0.295743
460 0.450662
465 0.672739
470 0.819347
475 24.8431
480 363.904
485 497.86
490 117.353
495 14.6283
500 2.92652
505 1.40162
510 1.12004
515 1.2562
520 1.57152
525 1.63462
530 1.52303
535 1.41307
540 1.30335
545 1.24652
550 1.1536
555 1.27041
560 1.98149
565 2.26153
570 1.4786
575 0.987987
580 0.814762
585 0.682832
590 0.58507
595 0.416906
600 0.12988
Ex : 493
200 0.102781
205 0.173704
210 0.172446
215 0.206752
220 0.174819
225 0.180106
230 0.143688
235 0.263757
240 0.187711
245 0.231337
250 0.133897
255 0.245286
260 0.228756
265 0.174113
270 0.205393
275 0.218577
280 0.195007
285 0.217405
290 0.185371
295 0.170169
300 0.210787
305 0.148194
310 0.157586
315 0.120009
320 0.169983
325 0.183108
330 0.185974
335 0.187902
340 0.214813
345 0.21478
350 0.210634
355 0.18568
360 0.14382
365 0.227759
370 0.224631
375 0.18612
380 0.201864
385 0.163808
390 0.175767
395 0.205926
400 0.205651
405 0.144496
410 0.193131
415 0.153264
420 0.189111
425 0.19475
430 0.208316
435 0.187289
440 0.196286
445 0.345689
450 0.27366
455 0.260648
460 0.371593
465 0.472186
470 0.583315
475 0.775668
480 21.7468
485 351.414
490 517.83
495 119.54
500 14.9248
505 2.8765
510 1.36929
515 1.26127
520 1.32697
525 1.62682
530 1.5774
535 1.41633
540 1.28022
545 1.23469
550 1.2304
555 1.11485
560 1.15433
565 1.41902
570 1.85864
575 1.48609
580 0.925084
585 0.627669
590 0.523027
595 0.468068
600 0.76088
Ex : 498
200 0.224331
205 0.169975
210 0.23593
215 0.296839
220 0.250231
225 0.163321
230 0.194561
235 0.238786
240 0.266247
245 0.217845
250 0.19924
255 0.216527
260 0.18116
265 0.16675
270 0.214778
275 0.181322
280 0.225998
285 0.225652
290 0.148259
295 0.207181
300 0.231989
305 0.250192
310 0.176187
315 0.173593
320 0.217334
325 0.168845
330 0.191755
335 0.19777
340 0.170191
345 0.136733
350 0.221739
355 0.163798
360 0.174309
365 0.223096
370 0.23598
375 0.217899
380 0.183482
385 0.184623
390 0.208239
395 0.314783
400 0.245294
405 0.217265
410 0.235575
415 0.233667
420 0.202361
425 0.210951
430 0.243856
435 0.271476
440 0.33498
445 0.276699
450 0.278235
455 0.361437
460 0.355816
465 0.392788
470 0.48789
475 0.647998
480 0.848057
485 26.2967
490 368.78
495 493.974
500 114.483
505 14.1683
510 2.7251
515 1.49651
520 1.17642
525 1.25685
530 1.52767
535 1.46075
540 1.37975
545 1.14883
550 1.16322
555 1.04582
560 1.10127
565 0.917049
570 0.948965
575 1.30513
580 1.24236
585 0.845173
590 0.574805
595 0.502534
600 0.705812
Ex : 503
200 0.145891
205 0.138811
210 0.174299
215 0.258854
220 0.191424
225 0.170038
230 0.21567
235 0.185765
240 0.141404
245 0.180537
250 0.248782
255 0.208913
260 0.163011
265 0.23138
270 0.202206
275 0.204277
280 0.300411
285 0.182013
290 0.146714
295 0.198363
300 0.213652
305 0.205812
310 0.18014
315 0.155243
320 0.242127
325 0.264478
330 0.168932
335 0.221306
340 0.212788
345 0.19338
350 0.214642
355 0.188383
360 0.212036
365 0.174932
370 0.236342
375 0.17247
380 0.185547
385 0.185195
390 0.226431
395 0.20601
400 0.233423
405 0.193468
410 0.302099
415 0.28334
420 0.22717
425 0.288121
430 0.192675
435 0.194941
440 0.203837
445 0.22511
450 0.236218
455 0.230038
460 0.407254
465 0.389326
470 0.419664
475 0.497426
480 0.542919
485 0.86071
490 22.8207
495 362.228
500 498.886
505 115.078
510 14.4006
515 2.72544
520 1.64738
525 1.27346
530 1.34159
535 1.48017
540 1.61452
545 1.45266
550 1.2395
555 1.01862
560 1.051
565 0.86663
570 0.786763
575 0.698968
580 0.969645
585 1.20486
590 0.829239
595 0.521912
600 0.440339
Ex : 508
200 0.171946
205 0.166742
210 0.153746
215 0.219401
220 0.208035
225 0.267237
230 0.1863
235 0.158085
240 0.162814
245 0.241948
250 0.207191
255 0.178324
260 0.160375
265 0.200197
270 0.211811
275 0.175866
280 0.178007
285 0.241092
290 0.206239
295 0.22543
300 0.195122
305 0.202177
310 0.178194
315 0.1925
320 0.229492
325 0.23403
330 0.1887
335 0.320991
340 0.233692
345 0.306737
350 0.232552
355 0.228256
360 0.191369
365 0.279974
370 0.211991
375 0.23484
380 0.186407
385 0.171155
390 0.192472
395 0.227169
400 0.218482
405 0.233329
410 0.178374
415 0.222623
420 0.265162
425 0.257038
430 0.212752
435 0.261272
440 0.300375
445 0.274977
450 0.255035
455 0.329609
460 0.353132
465 0.384073
470 0.387586
475 0.428431
480 0.46419
485 0.591917
490 0.910246
495 24.8724
500 351.044
505 494.523
510 119.194
515 14.848
520 2.8723
525 1.4973
530 1.18763
535 1.20725
540 1.43239
545 1.43886
550 1.25611
555 1.03367
560 0.958489
565 0.7877
570 0.679159
575 0.567705
580 0.628577
585 0.732513
590 0.890554
595 0.870642
600 0.757574
Ex : 513
200 0.255785
205 0.15144
210 0.215599
215 0.20774
220 0.269621
225 0.194151
230 0.176234
235 0.181053
240 0.140973
245 0.222678
250 0.189579
255 0.18423
260 0.212254
265 0.182001
270 0.311806
275 0.222941
280 0.174237
285 0.211423
290 0.184809
295 0.182955
300 0.196159
305 0.213269
310 0.166135
315 0.230727
320 0.296908
325 0.220308
330 0.182932
335 0.200347
340 0.190856
345 0.182051
350 0.210452
355 0.216408
360 0.181343
365 0.209988
370 0.285881
375 0.202862
380 0.184305
385 0.208139
390 0.240614
395 0.287791
400 0.234455
405 0.250435
410 0.198686
415 0.27111
420 0.223363
425 0.198353
430 0.245485
435 0.177913
440 0.254736
445 0.275979
450 0.313831
455 0.316803
460 0.279848
465 0.33925
470 0.402567
475 0.403223
480 0.450503
485 0.477063
490 0.575186
495 0.696964
500 21.9712
505 347.647
510 505.223
515 124.624
520 15.6022
525 2.94421
530 1.61564
535 1.2463
540 1.19422
545 1.26566
550 1.40187
555 1.15517
560 1.04651
565 0.940431
570 0.778128
575 0.736116
580 0.573183
585 0.475342
590 0.528233
595 0.755974
600 1.55037
Ex : 518
200 0.178409
205 0.174839
210 0.145194
215 0.233281
220 0.198464
225 0.18822
230 0.248389
235 0.13523
240 0.178392
245 0.189225
250 0.231242
255 0.223912
260 0.239837
265 0.246545
270 0.244185
275 0.170992
280 0.232193
285 0.215584
290 0.195547
295 0.191118
300 0.181415
305 0.206187
310 0.177531
315 0.252844
320 0.23688
325 0.265377
330 0.22004
335 0.256155
340 0.195456
345 0.260271
350 0.258154
355 0.226415
360 0.22916
365 0.231456
370 0.296279
375 0.29361
380 0.243132
385 0.25097
390 0.20015
395 0.224815
400 0.238489
405 0.207308
410 0.273444
415 0.251939
420 0.265393
425 0.236418
430 0.214701
435 0.236842
440 0.202121
445 0.214956
450 0.267008
455 0.257528
460 0.265849
465 0.317325
470 0.31282
475 0.309248
480 0.348342
485 0.393054
490 0.466105
495 0.64256
500 0.795669
505 22.0096
510 331.324
515 486.603
520 119.787
525 14.8805
530 2.85591
535 1.46508
540 1.44972
545 1.15163
550 1.28872
555 1.29665
560 1.38722
565 1.0693
570 0.835963
575 0.678381
580 0.530793
585 0.545523
590 0.455982
595 0.422863
600 0.161068
Ex : 523
200 0.133156
205 0.191792
210 0.25774
215 0.264682
220 0.2315
225 0.269698
230 0.189719
235 0.176699
240 0.207101
245 0.14818
250 0.271495
255 0.233401
260 0.223996
265 0.152583
270 0.190917
275 0.221081
280 0.260026
285 0.298977
290 0.205354
295 0.176222
300 0.189427
305 0.226941
310 0.213308
315 0.266112
320 0.180997
325 0.254622
330 0.162944
335 0.206476
340 0.265403
345 0.261768
350 0.206189
355 0.30208
360 0.243603
365 0.261159
370 0.276059
375 0.186627
380 0.283021
385 0.215526
390 0.237611
395 0.254442
400 0.266248
405 0.17757
410 0.190013
415 0.247901
420 0.30851
425 0.233331
430 0.223885
435 0.294477
440 0.30734
445 0.336849
450 0.306009
455 0.241367
460 0.337234
465 0.316659
470 0.273563
475 0.335898
480 0.414715
485 0.470369
490 0.326818
495 0.439746
500 0.553115
505 0.818958
510 19.2742
515 314.592
520 471.288
525 119.845
530 14.9473
535 2.90932
540 1.64132
545 1.62262
550 1.38166
555 1.34805
560 1.40865
565 0.982973
570 0.79573
575 0.687662
580 0.62206
585 0.543086
590 0.448338
595 0.401424
600 0.260518
Ex : 528
200 0.27505
205 0.343783
210 0.183147
215 0.261929
220 0.315149
225 0.209
230 0.36674
235 0.246421
240 0.300924
245 0.16026
250 0.361778
255 0.277763
260 0.213251
265 0.301268
270 0.223253
275 0.223511
280 0.187209
285 0.17796
290 0.180018
295 0.205766
300 0.24872
305 0.173732
310 0.220489
315 0.226966
320 0.237708
325 0.226688
330 0.188605
335 0.246677
340 0.218416
345 0.186135
350 0.223314
355 0.321625
360 0.259066
365 0.322139
370 0.289604
375 0.259871
380 0.181692
385 0.243285
390 0.258053
395 0.273258
400 0.207669
405 0.294962
410 0.272382
415 0.253383
420 0.315939
425 0.263789
430 0.277803
435 0.281888
440 0.22682
445 0.275035
450 0.230799
455 0.295636
460 0.327339
465 0.279561
470 0.347855
475 0.218515
480 0.318936
485 0.359709
490 0.381781
495 0.461692
500 0.637462
505 0.579686
510 0.703749
515 18.743
520 309.188
525 466.2
530 118.568
535 15.0231
540 3.04589
545 1.55754
550 1.5285
555 1.25615
560 1.26192
565 1.11598
570 0.93484
575 0.742636
580 0.686273
585 0.572744
590 0.424936
595 0.423066
600 0.397961
Ex : 533
200 0.212886
205 0.193409
210 0.181015
215 0.204938
220 0.252142
225 0.233775
230 0.246284
235 0.220814
240 0.368459
245 0.290995
250 0.218238
255 0.232212
260 0.245978
265 0.259614
270 0.278437
275 0.260133
280 0.225646
285 0.200949
290 0.196213
295 0.219708
300 0.181042
305 0.184688
310 0.253244
315 0.171577
320 0.171932
325 0.202369
330 0.163252
335 0.229965
340 0.179799
345 0.168313
350 0.221652
355 0.20631
360 0.240173
365 0.175794
370 0.201336
375 0.218359
380 0.215068
385 0.305034
390 0.240456
395 0.205128
400 0.233826
405 0.314436
410 0.253157
415 0.223658
420 0.273648
425 0.274777
430 0.218552
435 0.273072
440 0.234817
445 0.239685
450 0.232162
455 0.280373
460 0.238832
465 0.266584
470 0.292442
475 0.236926
480 0.366952
485 0.33953
490 0.322392
495 0.377764
500 0.341017
505 0.471031
510 0.586559
515 0.753473
520 18.169
525 294.857
530 449.537
535 117.713
540 15.0079
545 2.96138
550 1.58409
555 1.3759
560 1.12927
565 0.943736
570 1.02949
575 0.792252
580 0.596574
585 0.598806
590 0.425747
595 0.400323
600 1.02705
Ex : 538
200 0.233995
205 0.264202
210 0.204775
215 0.182883
220 0.232088
225 0.341717
230 0.218126
235 0.287506
240 0.34571
245 0.248123
250 0.21892
255 0.144161
260 0.27377
265 0.268272
270 0.210649
275 0.197276
280 0.228813
285 0.213609
290 0.304492
295 0.249648
300 0.25934
305 0.299647
310 0.29227
315 0.165544
320 0.249611
325 0.207043
330 0.236683
335 0.178188
340 0.279706
345 0.282526
350 0.255115
355 0.201722
360 0.26612
365 0.212786
370 0.244258
375 0.2299
380 0.193379
385 0.35945
390 0.211482
395 0.241339
400 0.222606
405 0.154813
410 0.187474
415 0.274704
420 0.261621
425 0.233064
430 0.280946
435 0.246159
440 0.200126
445 0.213197
450 0.324878
455 0.361998
460 0.389088
465 0.311843
470 0.330809
475 0.371107
480 0.362278
485 0.268851
490 0.290713
495 0.297438
500 0.267388
505 0.344071
510 0.424984
515 0.617802
520 0.889317
525 15.176
530 277.013
535 440.722
540 119.556
545 15.1601
550 2.82074
555 1.37679
560 1.18206
565 0.900162
570 0.745731
575 0.767075
580 0.580921
585 0.569707
590 0.411678
595 0.356463
600 0.26455
Ex : 543
200 0.243572
205 0.214191
210 0.217185
215 0.279526
220 0.345491
225 0.193637
230 0.235117
235 0.212688
240 0.272355
245 0.228411
250 0.335598
255 0.299582
260 0.180034
265 0.211105
270 0.182187
275 0.266042
280 0.293466
285 0.221723
290 0.212621
295 0.246592
300 0.304561
305 0.214042
310 0.192389
315 0.354583
320 0.174723
325 0.227925
330 0.220743
335 0.199394
340 0.210391
345 0.280612
350 0.210509
355 0.351068
360 0.224903
365 0.291707
370 0.260569
375 0.252688
380 0.222767
385 0.248956
390 0.231668
395 0.279495
400 0.250096
405 0.292843
410 0.340148
415 0.252514
420 0.229481
425 0.274675
430 0.285033
435 0.248459
440 0.222059
445 0.199729
450 0.300022
455 0.319347
460 0.335988
465 0.247038
470 0.198888
475 0.203402
480 0.252414
485 0.351212
490 0.305913
495 0.306582
500 0.28316
505 0.388932
510 0.351925
515 0.404128
520 0.596986
525 0.846044
530 13.6087
535 262.181
540 434.664
545 121.178
550 15.238
555 2.6543
560 1.10217
565 0.940924
570 0.58761
575 0.546622
580 0.533581
585 0.519519
590 0.468136
595 0.392824
600 0.163206
Ex : 548
200 0.294159
205 0.240664
210 0.274238
215 0.263978
220 0.228163
225 0.244373
230 0.182584
235 0.205382
240 0.260175
245 0.348088
250 0.18091
255 0.221234
260 0.216352
265 0.269415
270 0.267476
275 0.276078
280 0.246936
285 0.24993
290 0.345085
295 0.200375
300 0.297279
305 0.204866
310 0.256682
315 0.285005
320 0.280026
325 0.246436
330 0.305271
335 0.308221
340 0.238373
345 0.184231
350 0.325508
355 0.26509
360 0.293072
365 0.274025
370 0.22518
375 0.212004
380 0.284693
385 0.334816
390 0.217049
395 0.367263
400 0.287167
405 0.223843
410 0.293842
415 0.255362
420 0.251796
425 0.30653
430 0.3109
435 0.258144
440 0.24605
445 0.215394
450 0.365349
455 0.276511
460 0.23762
465 0.197512
470 0.341629
475 0.459346
480 0.310743
485 0.405474
490 0.284013
495 0.252509
500 0.381043
505 0.263268
510 0.50323
515 0.440172
520 0.501992
525 0.635359
530 0.871973
535 15.5083
540 268.639
545 428.229
550 119.363
555 14.7124
560 2.57935
565 0.957149
570 0.734042
575 0.533444
580 0.50628
585 0.527975
590 0.48296
595 0.417207
600 0.304423
Ex : 553
200 0.227449
205 0.242615
210 0.221992
215 0.285857
220 0.244135
225 0.216227
230 0.249575
235 0.183971
240 0.167099
245 0.294363
250 0.273706
255 0.335172
260 0.301549
265 0.291463
270 0.266311
275 0.315326
280 0.375762
285 0.21238
290 0.304944
295 0.182081
300 0.326826
305 0.237405
310 0.1813
315 0.23014
320 0.261929
325 0.219175
330 0.279511
335 0.265315
340 0.282296
345 0.303859
350 0.304453
355 0.282146
360 0.210935
365 0.2132
370 0.329298
375 0.288773
380 0.28205
385 0.291928
390 0.25144
395 0.300624
400 0.320742
405 0.254748
410 0.296145
415 0.396563
420 0.329788
425 0.306919
430 0.340785
435 0.258566
440 0.359002
445 0.277284
450 0.250987
455 0.213155
460 0.239326
465 0.217199
470 0.295763
475 0.296919
480 0.298775
485 0.254166
490 0.241592
495 0.332149
500 0.317502
505 0.248289
510 0.347447
515 0.302924
520 0.353592
525 0.408226
530 0.557781
535 0.72117
540 12.8625
545 244.482
550 410.305
555 116.33
560 14.3727
565 2.33594
570 0.887301
575 0.613358
580 0.446192
585 0.36917
590 0.357632
595 0.389967
600 0.549244
Ex : 558
200 0.308867
205 0.222423
210 0.258335
215 0.269083
220 0.243209
225 0.309321
230 0.198829
235 0.258261
240 0.267825
245 0.313957
250 0.328881
255 0.246822
260 0.307886
265 0.238714
270 0.23091
275 0.276633
280 0.386147
285 0.307721
290 0.362239
295 0.347064
300 0.211992
305 0.320585
310 0.256124
315 0.328969
320 0.213725
325 0.280239
330 0.267918
335 0.286018
340 0.222326
345 0.244339
350 0.253865
355 0.153978
360 0.301684
365 0.29686
370 0.228005
375 0.277037
380 0.308802
385 0.27762
390 0.208226
395 0.318129
400 0.330902
405 0.342234
410 0.242662
415 0.33681
420 0.287675
425 0.346751
430 0.297346
435 0.319577
440 0.31356
445 0.359401
450 0.306536
455 0.339993
460 0.291245
465 0.297417
470 0.312396
475 0.254596
480 0.464555
485 0.333604
490 0.396117
495 0.346791
500 0.325442
505 0.281172
510 0.372203
515 0.324839
520 0.347898
525 0.350083
530 0.365821
535 0.523546
540 0.656465
545 12.3385
550 229.342
555 398.909
560 113.626
565 13.739
570 2.15904
575 0.789707
580 0.603278
585 0.385418
590 0.51374
595 0.37782
600 0.95672
Ex : 563
200 0.189527
205 0.274144
210 0.314837
215 0.294178
220 0.289319
225 0.319037
230 0.264026
235 0.23407
240 0.227533
245 0.311457
250 0.27359
255 0.35793
260 0.223933
265 0.287859
270 0.366717
275 0.328223
280 0.322324
285 0.260409
290 0.29612
295 0.257599
300 0.323944
305 0.216566
310 0.226135
315 0.233558
320 0.329839
325 0.264476
330 0.270095
335 0.25644
340 0.253796
345 0.23292
350 0.226038
355 0.231039
360 0.332077
365 0.269672
370 0.380365
375 0.213503
380 0.241929
385 0.287259
390 0.371764
395 0.318406
400 0.309928
405 0.366966
410 0.350739
415 0.292997
420 0.283577
425 0.297626
430 0.310532
435 0.267668
440 0.270136
445 0.271338
450 0.267834
455 0.326781
460 0.301455
465 0.438701
470 0.279291
475 0.346101
480 0.373912
485 0.350475
490 0.351082
495 0.289652
500 0.338037
505 0.327462
510 0.289591
515 0.376141
520 0.299534
525 0.440263
530 0.435382
535 0.481212
540 0.540143
545 0.793111
550 11.4899
555 220.403
560 375.5
565 111.993
570 13.7128
575 2.10806
580 0.663386
585 0.592272
590 0.398195
595 0.348912
600 0.359882
Ex : 568
200 0.264937
205 0.306851
210 0.354602
215 0.236243
220 0.235657
225 0.304743
230 0.228927
235 0.248476
240 0.293004
245 0.270589
250 0.299305
255 0.313672
260 0.300106
265 0.296067
270 0.31564
275 0.342924
280 0.265626
285 0.308373
290 0.281578
295 0.304785
300 0.274996
305 0.351955
310 0.260342
315 0.254163
320 0.237507
325 0.275853
330 0.324482
335 0.39457
340 0.283602
345 0.361862
350 0.243703
355 0.248864
360 0.28503
365 0.354259
370 0.325285
375 0.263863
380 0.275111
385 0.32204
390 0.22315
395 0.294377
400 0.282937
405 0.384168
410 0.328252
415 0.382239
420 0.299434
425 0.280562
430 0.290403
435 0.418085
440 0.320901
445 0.356322
450 0.304491
455 0.291293
460 0.245078
465 0.274618
470 0.324184
475 0.291031
480 0.344381
485 0.254268
490 0.421368
495 0.324451
500 0.34144
505 0.322237
510 0.369715
515 0.287525
520 0.397808
525 0.336487
530 0.280253
535 0.434175
540 0.418134
545 0.606906
550 0.865377
555 8.59663
560 196.811
565 368.51
570 112.542
575 13.8932
580 2.0421
585 0.637573
590 0.546117
595 0.454471
600 0.665688
Ex : 573
200 0.217932
205 0.269359
210 0.26476
215 0.270458
220 0.174131
225 0.254688
230 0.325405
235 0.333542
240 0.250074
245 0.227606
250 0.203835
255 0.196652
260 0.235807
265 0.203006
270 0.245879
275 0.257876
280 0.236832
285 0.32264
290 0.260674
295 0.263285
300 0.232278
305 0.334024
310 0.239625
315 0.260434
320 0.311623
325 0.255893
330 0.284739
335 0.307037
340 0.244838
345 0.284345
350 0.358664
355 0.186575
360 0.302328
365 0.278364
370 0.272069
375 0.30154
380 0.348352
385 0.307597
390 0.282781
395 0.264208
400 0.247157
405 0.338789
410 0.295581
415 0.321818
420 0.254162
425 0.285984
430 0.331212
435 0.288724
440 0.306971
445 0.344568
450 0.332882
455 0.410667
460 0.260478
465 0.300843
470 0.343521
475 0.270086
480 0.380666
485 0.303916
490 0.40945
495 0.419671
500 0.310786
505 0.329518
510 0.295232
515 0.301716
520 0.386324
525 0.289095
530 0.39529
535 0.367946
540 0.417744
545 0.45529
550 0.393266
555 0.55855
560 7.41282
565 171.175
570 336.342
575 106.004
580 13.0112
585 1.91701
590 0.558996
595 0.389956
600 1.19405
Ex : 578
200 0.307795
205 0.241595
210 0.333955
215 0.390578
220 0.245367
225 0.248993
230 0.223638
235 0.274494
240 0.233572
245 0.255253
250 0.42194
255 0.284849
260 0.365334
265 0.166433
270 0.281332
275 0.30328
280 0.327248
285 0.294501
290 0.280847
295 0.319244
300 0.280319
305 0.206259
310 0.273317
315 0.362559
320 0.284326
325 0.330035
330 0.303911
335 0.325254
340 0.28751
345 0.255013
350 0.311068
355 0.307815
360 0.31143
365 0.275293
370 0.374398
375 0.353161
380 0.295215
385 0.334043
390 0.402494
395 0.286818
400 0.291667
405 0.294511
410 0.308052
415 0.324555
420 0.312381
425 0.340705
430 0.388017
435 0.27447
440 0.258044
445 0.320357
450 0.29112
455 0.245224
460 0.261924
465 0.197302
470 0.312027
475 0.336165
480 0.283708
485 0.270217
490 0.325062
495 0.280318
500 0.329629
505 0.3151
510 0.246005
515 0.405153
520 0.371091
525 0.371203
530 0.21753
535 0.339046
540 0.336598
545 0.390687
550 0.532633
555 0.47052
560 0.602863
565 6.4971
570 154.84
575 298.111
580 90.6805
585 11.1281
590 1.69487
595 0.502176
600 0.512729
Ex : 583
200 0.242053
205 0.299111
210 0.251195
215 0.276234
220 0.248318
225 0.253113
230 0.288947
235 0.228154
240 0.279121
245 0.299165
250 0.271928
255 0.268345
260 0.296932
265 0.224049
270 0.2581
275 0.203035
280 0.220124
285 0.343044
290 0.303773
295 0.246437
300 0.323648
305 0.287209
310 0.206661
315 0.280596
320 0.305432
325 0.303341
330 0.267174
335 0.190081
340 0.242726
345 0.318702
350 0.260379
355 0.284938
360 0.230017
365 0.235344
370 0.321162
375 0.273
380 0.243209
385 0.298342
390 0.238047
395 0.255222
400 0.305142
405 0.415504
410 0.459371
415 0.297699
420 0.27996
425 0.467579
430 0.311344
435 0.417636
440 0.3179
445 0.259931
450 0.329853
455 0.306822
460 0.501314
465 0.371267
470 0.288966
475 0.302317
480 0.315723
485 0.376319
490 0.294275
495 0.403032
500 0.400742
505 0.385391
510 0.25055
515 0.395106
520 0.276813
525 0.293178
530 0.289497
535 0.333336
540 0.374147
545 0.392426
550 0.290519
555 0.406134
560 0.57312
565 0.635986
570 5.79203
575 134.172
580 250.619
585 74.2206
590 9.13662
595 1.34134
600 0.510892
Ex : 588
200 0.427442
205 0.333123
210 0.288685
215 0.236755
220 0.297617
225 0.30765
230 0.307394
235 0.373292
240 0.244417
245 0.231125
250 0.24143
255 0.236966
260 0.276901
265 0.214553
270 0.254649
275 0.268952
280 0.322908
285 0.37729
290 0.248947
295 0.367948
300 0.249656
305 0.264491
310 0.335864
315 0.296775
320 0.382945
325 0.492969
330 0.291064
335 0.287066
340 0.232991
345 0.220154
350 0.249307
355 0.275237
360 0.257451
365 0.368879
370 0.402248
375 0.25493
380 0.308266
385 0.282121
390 0.262681
395 0.26857
400 0.291917
405 0.244967
410 0.229542
415 0.294405
420 0.269475
425 0.244996
430 0.266765
435 0.284723
440 0.288506
445 0.274008
450 0.326321
455 0.392436
460 0.29204
465 0.349286
470 0.337575
475 0.437616
480 0.345305
485 0.389632
490 0.283772
495 0.295485
500 0.345144
505 0.284007
510 0.313726
515 0.475258
520 0.299831
525 0.288042
530 0.368706
535 0.237964
540 0.405126
545 0.311994
550 0.324504
555 0.326955
560 0.476918
565 0.480693
570 0.489963
575 5.08522
580 112.803
585 216.693
590 65.9633
595 8.12347
600 1.05571
Ex : 593
200 0.306812
205 0.235728
210 0.295927
215 0.218547
220 0.303348
225 0.208305
230 0.303055
235 0.336009
240 0.247691
245 0.364378
250 0.278673
255 0.398638
260 0.250339
265 0.295361
270 0.277178
275 0.254576
280 0.251013
285 0.35728
290 0.321002
295 0.260124
300 0.317121
305 0.27496
310 0.338928
315 0.303202
320 0.265708
325 0.250268
330 0.275468
335 0.249573
340 0.283334
345 0.282873
350 0.476273
355 0.342691
360 0.371878
365 0.316009
370 0.329342
375 0.289909
380 0.184157
385 0.312791
390 0.417866
395 0.286333
400 0.401794
405 0.322465
410 0.33955
415 0.314761
420 0.320869
425 0.31009
430 0.327655
435 0.313679
440 0.480189
445 0.25793
450 0.284228
455 0.36315
460 0.299822
465 0.322475
470 0.419778
475 0.358565
480 0.365301
485 0.366871
490 0.413727
495 0.296829
500 0.363604
505 0.375538
510 0.31157
515 0.36184
520 0.392636
525 0.400677
530 0.294288
535 0.319271
540 0.271253
545 0.323385
550 0.298741
555 0.35736
560 0.351387
565 0.562938
570 0.452175
575 0.615433
580 4.22998
585 98.732
590 185.856
595 55.7219
600 8.6995
Ex : 598
200 0.228478
205 0.228757
210 0.220346
215 0.262085
220 0.228764
225 0.314351
230 0.327419
235 0.239825
240 0.257265
245 0.231915
250 0.28117
255 0.300877
260 0.30022
265 0.291576
270 0.289248
275 0.228148
280 0.298363
285 0.353711
290 0.217423
295 0.332165
300 0.281561
305 0.209144
310 0.211523
315 0.230771
320 0.303759
325 0.331171
330 0.300672
335 0.285581
340 0.215945
345 0.359778
350 0.316071
355 0.394033
360 0.281401
365 0.365852
370 0.434436
375 0.295396
380 0.35924
385 0.3333
390 0.368447
395 0.368379
400 0.246573
405 0.353474
410 0.4335
415 0.270276
420 0.315247
425 0.437973
430 0.354847
435 0.271384
440 0.313202
445 0.306911
450 0.323345
455 0.312003
460 0.2801
465 0.360372
470 0.404151
475 0.274855
480 0.35502
485 0.438139
490 0.48512
495 0.259713
500 0.323862
505 0.328977
510 0.364086
515 0.253853
520 0.37819
525 0.356088
530 0.294466
535 0.26303
540 0.309976
545 0.304816
550 0.351041
555 0.277738
560 0.504604
565 0.301296
570 0.45628
575 0.541608
580 0.419305
585 3.85049
590 84.897
595 162.573
600 104.088
Ex : 603
200 0.327965
205 0.260976
210 0.282796
215 0.31573
220 0.435965
225 0.353463
230 0.228868
235 0.236072
240 0.268605
245 0.310401
250 0.357757
255 0.279194
260 0.352715
265 0.343029
270 0.305703
275 0.348745
280 0.221846
285 0.334971
290 0.234315
295 0.364548
300 0.317216
305 0.389011
310 0.332966
315 0.381681
320 0.42657
325 0.299875
330 0.392796
335 0.344928
340 0.26754
345 0.241968
350 0.277918
355 0.307294
360 0.403049
365 0.387953
370 0.347421
375 0.213815
380 0.263749
385 0.311223
390 0.257952
395 0.337482
400 0.3142
405 0.389735
410 0.460818
415 0.345872
420 0.355283
425 0.372199
430 0.413578
435 0.384083
440 0.325795
445 0.2506
450 0.399386
455 0.408353
460 0.467016
465 0.440167
470 0.262928
475 0.30723
480 0.388547
485 0.423812
490 0.544545
495 0.381579
500 0.328792
505 0.29878
510 0.405478
515 0.263979
520 0.309145
525 0.366541
530 0.363474
535 0.290942
540 0.689568
545 0.427326
550 0.341196
555 0.416606
560 0.492033
565 0.311942
570 0.360642
575 0.501039
580 0.349258
585 0.587274
590 3.77684
595 73.0302
600 147.312
