File format V 1.0
ven. 13. janv. 18:13:58 2017
Operator : 
Comments : 

=============================================
SpectroFluorometer parameters
Mode : 3D measurement
Data : Fluorescence
Phospho. : Ordinary
Spectrum : Fluorescence

Scan speed : 2400 nm/mn
Response : 100 ms
PM Voltage : 700 V
Shutter : On

Lambda Ex. Start : 203
Lambda Ex. End : 603
Lambda Ex. Step : 5
Ex. Slit : 5 nm

Lambda Em. Start : 200
Lambda Em. End : 600
Lambda Em. Step : 5
Em. Slit : 5 nm

Repetition : 1
Decal lambda em : 10
=============================================
DATA
Ex : 203
200 10.0654
205 11.4814
210 6.60277
215 7.0392
220 3.43559
225 4.15231
230 7.04815
235 4.71106
240 6.23973
245 6.41687
250 7.2597
255 6.22094
260 5.19132
265 4.50746
270 6.78293
275 7.0551
280 7.05429
285 6.95908
290 3.77787
295 5.40225
300 6.42524
305 6.84337
310 6.8298
315 6.31383
320 6.57063
325 5.51055
330 7.15588
335 5.79819
340 5.1967
345 7.19339
350 6.82323
355 6.27601
360 5.50508
365 9.20885
370 6.58337
375 4.6293
380 6.46642
385 6.152
390 6.1391
395 7.98984
400 5.86286
405 4.48207
410 7.98123
415 7.68314
420 8.01854
425 6.67719
430 6.10632
435 4.34086
440 3.24964
445 6.71144
450 6.00003
455 6.06595
460 5.13414
465 6.48546
470 5.8378
475 5.25102
480 5.02062
485 7.80726
490 5.5389
495 6.25612
500 6.98852
505 8.90255
510 7.48948
515 7.18494
520 5.2316
525 5.57515
530 5.04522
535 6.82679
540 6.42482
545 4.7714
550 6.54861
555 4.60354
560 5.27674
565 9.19979
570 4.2228
575 6.20647
580 8.78468
585 5.96815
590 4.25453
595 4.38972
600 0.499533
Ex : 208
200 4.99547
205 4.40722
210 4.63575
215 5.8534
220 4.07395
225 4.97404
230 6.58789
235 7.21699
240 4.30134
245 8.12988
250 7.91679
255 6.28377
260 8.6282
265 5.38955
270 5.68437
275 5.6701
280 4.88476
285 6.72454
290 5.61784
295 4.79952
300 5.25521
305 5.84351
310 5.68114
315 4.43491
320 6.58857
325 6.43462
330 5.60838
335 6.87009
340 6.60937
345 5.7365
350 5.52691
355 5.2001
360 7.57962
365 8.51315
370 6.8227
375 7.11952
380 4.77563
385 4.31787
390 4.49716
395 4.86043
400 9.50076
405 6.82928
410 5.14992
415 5.93338
420 9.13403
425 5.77815
430 5.61862
435 5.08356
440 6.80322
445 6.15829
450 7.39184
455 7.6043
460 5.28399
465 4.8311
470 3.94688
475 6.55116
480 6.59866
485 8.31375
490 6.97308
495 6.75077
500 5.35188
505 7.26595
510 5.80035
515 7.08002
520 7.421
525 8.51339
530 7.06195
535 9.91583
540 8.91976
545 7.34221
550 4.95573
555 8.9042
560 9.04818
565 9.64575
570 7.82947
575 5.41224
580 6.71316
585 6.03644
590 4.45002
595 7.17602
600 10.1217
Ex : 213
200 8.8878
205 6.73514
210 3.99123
215 5.44012
220 5.00516
225 5.19797
230 4.28141
235 6.95893
240 6.77276
245 9.54795
250 6.37077
255 5.8938
260 6.76184
265 7.5848
270 6.68377
275 9.16131
280 6.58564
285 7.1953
290 6.56872
295 5.63112
300 4.00415
305 5.281
310 7.05218
315 9.89733
320 4.82794
325 7.09398
330 6.66121
335 6.2375
340 7.72038
345 6.14537
350 4.21487
355 7.24104
360 6.76632
365 8.28829
370 5.75877
375 4.46079
380 7.0371
385 4.96193
390 5.29951
395 4.58131
400 5.7149
405 7.19175
410 3.97932
415 9.59386
420 7.5341
425 7.70169
430 6.97915
435 5.5846
440 5.85156
445 7.51974
450 5.79314
455 5.75901
460 4.68162
465 6.4907
470 6.56285
475 7.55072
480 5.65541
485 9.91278
490 6.79327
495 5.48456
500 5.71783
505 8.23625
510 5.75754
515 6.47221
520 3.96575
525 5.79371
530 5.75807
535 5.89379
540 8.04324
545 7.25165
550 8.28114
555 7.85887
560 5.09557
565 5.72315
570 4.51796
575 5.98749
580 6.32159
585 6.13992
590 5.60181
595 5.69657
600 17.7815
Ex : 218
200 4.15556
205 6.36095
210 7.09893
215 5.01625
220 5.41987
225 5.42472
230 6.41944
235 3.40944
240 6.16185
245 4.97367
250 6.66961
255 7.14835
260 5.91433
265 6.68713
270 8.21257
275 5.14403
280 4.17617
285 5.47091
290 5.91965
295 4.94804
300 7.2789
305 6.06605
310 5.60251
315 4.84406
320 5.7449
325 6.01107
330 5.29812
335 7.20615
340 4.71422
345 5.57291
350 7.84983
355 4.28699
360 4.21814
365 6.17529
370 7.08095
375 5.65063
380 8.42104
385 6.21076
390 5.94603
395 4.42596
400 8.65088
405 5.75306
410 6.2742
415 7.59319
420 7.18816
425 4.9292
430 6.6255
435 3.96495
440 4.24399
445 6.90445
450 5.9298
455 5.4483
460 6.86214
465 6.52107
470 8.47472
475 3.79237
480 4.57787
485 6.73608
490 10.6702
495 8.36374
500 8.15115
505 5.78497
510 6.18285
515 4.57305
520 6.58473
525 3.74078
530 6.29379
535 8.36683
540 6.24632
545 3.56589
550 7.09937
555 5.43493
560 5.99189
565 7.21761
570 4.81717
575 3.90366
580 4.49902
585 5.65666
590 5.57816
595 6.25675
600 8.39243
Ex : 223
200 4.38028
205 6.20735
210 5.03313
215 4.37913
220 5.64302
225 6.55578
230 8.57416
235 6.54671
240 4.68457
245 4.1689
250 7.29665
255 5.39408
260 4.87868
265 4.54933
270 6.30219
275 5.07853
280 5.78993
285 4.90526
290 3.16468
295 5.07185
300 3.94552
305 4.55192
310 6.7019
315 5.64853
320 5.9518
325 5.76505
330 5.01455
335 9.19925
340 7.38874
345 4.99412
350 6.16296
355 5.41259
360 5.91807
365 8.70944
370 6.44048
375 10.5746
380 5.9167
385 6.03503
390 4.94287
395 5.23879
400 5.57373
405 6.85042
410 7.04517
415 8.90763
420 6.71228
425 6.80971
430 7.03048
435 9.47998
440 5.69595
445 4.33606
450 8.98276
455 4.65161
460 5.04129
465 5.29739
470 7.86241
475 9.25951
480 8.96136
485 6.63902
490 5.03559
495 6.57558
500 6.87653
505 7.43501
510 5.70126
515 4.86128
520 4.87292
525 4.87727
530 6.628
535 4.91537
540 5.42563
545 6.7145
550 4.44701
555 6.49285
560 4.37478
565 5.8352
570 5.07922
575 5.519
580 5.02741
585 4.22869
590 5.1986
595 6.70361
600 7.85248
Ex : 228
200 4.34177
205 6.02322
210 7.65456
215 5.52266
220 3.99296
225 4.98262
230 4.23147
235 5.01984
240 7.20631
245 5.00293
250 6.70637
255 5.35897
260 4.98643
265 4.95942
270 6.23688
275 5.80446
280 5.52309
285 8.28314
290 5.58236
295 5.64675
300 4.84503
305 6.77759
310 5.84544
315 4.69599
320 5.06558
325 5.24949
330 7.21586
335 8.0183
340 4.97901
345 5.30452
350 7.31239
355 8.59966
360 4.12956
365 4.92965
370 5.64006
375 5.87643
380 6.78033
385 7.86121
390 6.70244
395 3.61586
400 5.90517
405 5.72926
410 4.92152
415 5.35598
420 5.54911
425 5.285
430 5.69898
435 5.31356
440 6.07328
445 5.55753
450 8.78069
455 5.99518
460 5.90058
465 5.97307
470 6.24036
475 6.42285
480 4.86908
485 4.84204
490 8.94166
495 6.8517
500 8.96931
505 5.19958
510 7.43516
515 7.17557
520 7.01613
525 8.00445
530 3.94282
535 6.38273
540 4.18289
545 5.46136
550 5.69801
555 5.81134
560 4.08237
565 5.47751
570 4.19707
575 4.57879
580 5.03955
585 3.62415
590 4.73071
595 5.07915
600 6.78141
Ex : 233
200 5.13934
205 4.57827
210 2.90288
215 4.79077
220 9.33457
225 6.70913
230 4.47144
235 4.25098
240 6.29455
245 4.55316
250 5.2615
255 4.98091
260 3.93871
265 4.38689
270 5.19824
275 6.94848
280 6.59625
285 5.55685
290 6.92685
295 6.08739
300 4.86116
305 3.94969
310 5.19118
315 6.80863
320 7.95809
325 3.5998
330 4.64248
335 3.9038
340 5.15771
345 5.72191
350 6.65678
355 5.69121
360 5.07157
365 5.32224
370 6.02964
375 5.66522
380 5.948
385 5.34858
390 6.60398
395 4.24709
400 5.03533
405 4.82104
410 6.14717
415 6.1148
420 6.37776
425 6.69559
430 4.57518
435 4.25795
440 7.85562
445 4.28431
450 5.52604
455 7.42542
460 5.5714
465 5.99535
470 5.34723
475 6.61943
480 4.6976
485 5.86681
490 4.55302
495 5.1742
500 5.48189
505 4.45484
510 5.27487
515 4.28539
520 3.68169
525 4.50143
530 5.31736
535 5.0822
540 4.95171
545 5.08838
550 6.32649
555 5.79281
560 4.85966
565 5.79609
570 8.12792
575 5.02317
580 7.95175
585 6.34974
590 6.62812
595 4.11814
600 8.08998
Ex : 238
200 6.1223
205 5.36515
210 6.65431
215 4.70698
220 3.7507
225 3.39206
230 3.01296
235 3.91755
240 2.79527
245 3.77757
250 7.06677
255 5.03409
260 4.99736
265 4.1631
270 5.18062
275 3.60685
280 6.37733
285 3.60509
290 2.89766
295 3.36624
300 4.5733
305 4.96129
310 2.64324
315 4.12743
320 4.85073
325 6.26346
330 6.14882
335 5.22472
340 5.50601
345 6.83976
350 4.81477
355 5.61054
360 4.54031
365 3.37518
370 4.39939
375 6.74389
380 5.74456
385 8.50765
390 5.0784
395 7.25375
400 5.93062
405 4.05204
410 4.57173
415 3.74974
420 4.89831
425 5.51886
430 3.22381
435 5.31622
440 3.57672
445 5.26771
450 4.40684
455 5.14045
460 7.3037
465 5.12138
470 4.98147
475 5.01112
480 6.70989
485 5.04526
490 6.1056
495 4.70198
500 6.52267
505 4.19178
510 4.25392
515 4.69198
520 3.16244
525 4.72
530 6.32271
535 5.35193
540 5.064
545 7.26189
550 5.65198
555 8.44584
560 4.17278
565 3.63296
570 3.8893
575 4.63409
580 4.07216
585 5.10697
590 4.89268
595 7.16332
600 11.2724
Ex : 243
200 3.64686
205 4.23249
210 5.61641
215 3.35102
220 3.75008
225 4.95991
230 5.06929
235 3.13243
240 4.64712
245 3.04952
250 4.22238
255 3.20963
260 3.68127
265 4.00775
270 4.41163
275 4.49436
280 4.6783
285 6.15096
290 5.17233
295 5.39259
300 3.95864
305 3.72973
310 4.86649
315 4.89999
320 5.4552
325 4.93736
330 5.12066
335 3.99403
340 3.85775
345 2.91516
350 4.64677
355 3.55179
360 3.41173
365 4.38959
370 5.45266
375 5.79151
380 4.19275
385 4.46504
390 5.16355
395 5.20894
400 3.68589
405 5.21247
410 4.99503
415 4.75749
420 3.62635
425 2.72437
430 5.11834
435 3.48433
440 5.55285
445 4.13052
450 3.50149
455 4.552
460 3.31592
465 3.3601
470 5.06319
475 4.68024
480 5.91291
485 5.08931
490 4.72448
495 7.75264
500 4.74131
505 6.18133
510 5.11141
515 3.35765
520 4.60576
525 4.23165
530 2.87144
535 5.06706
540 3.51799
545 5.84662
550 3.70027
555 3.98937
560 4.83896
565 4.41589
570 4.2906
575 4.45409
580 3.23018
585 2.70204
590 4.72393
595 2.9377
600 11.2219
Ex : 248
200 3.68103
205 3.9637
210 3.18955
215 2.68361
220 4.04296
225 3.76137
230 5.2881
235 3.55578
240 3.00624
245 3.38051
250 3.78996
255 3.99348
260 3.38068
265 3.19233
270 2.42357
275 6.2439
280 3.75796
285 3.44674
290 2.71727
295 2.3804
300 3.3148
305 3.15954
310 4.63278
315 4.30111
320 4.54979
325 4.9962
330 3.13699
335 3.60125
340 4.3249
345 5.32764
350 3.55527
355 3.30936
360 3.06594
365 5.00271
370 3.06609
375 3.44803
380 2.97649
385 3.00678
390 4.51163
395 3.78554
400 3.56405
405 2.93138
410 4.53679
415 4.06359
420 5.21196
425 3.14832
430 4.38691
435 3.24466
440 3.84106
445 2.57918
450 4.11334
455 3.5863
460 4.18009
465 3.7062
470 5.76691
475 4.43111
480 3.72283
485 2.94109
490 3.78278
495 5.62596
500 4.45474
505 4.08466
510 2.80856
515 5.11751
520 3.40808
525 3.83475
530 4.08846
535 2.43152
540 3.73238
545 3.89695
550 4.49219
555 3.85302
560 5.77949
565 3.61257
570 2.88301
575 2.79493
580 3.44242
585 2.40274
590 5.2424
595 4.78499
600 0.544514
Ex : 253
200 2.79714
205 3.48574
210 2.94288
215 3.04297
220 2.19094
225 2.46371
230 3.3059
235 3.35147
240 4.61828
245 2.73457
250 2.14181
255 2.40546
260 2.82459
265 4.62339
270 4.19139
275 2.19775
280 2.67911
285 2.90638
290 3.26072
295 3.18202
300 2.4961
305 2.76542
310 1.80422
315 2.88538
320 2.34773
325 2.17757
330 2.45218
335 4.8687
340 3.06674
345 2.14624
350 5.099
355 3.47631
360 2.55835
365 2.18526
370 3.14258
375 4.15441
380 4.17112
385 3.4959
390 5.20292
395 3.76131
400 2.9485
405 3.27631
410 3.99998
415 3.76567
420 4.05332
425 3.47136
430 3.4881
435 2.79962
440 4.51977
445 3.46623
450 3.14915
455 2.62334
460 4.42491
465 2.56579
470 3.04906
475 3.43808
480 3.72556
485 3.25086
490 3.32114
495 5.729
500 3.28156
505 4.22516
510 2.29572
515 3.85819
520 3.85571
525 2.83685
530 2.51037
535 4.03913
540 3.21768
545 2.9381
550 2.41509
555 2.4936
560 2.92316
565 4.57299
570 4.14104
575 3.57615
580 3.78216
585 4.19291
590 2.30131
595 3.13669
600 0.356944
Ex : 258
200 3.34706
205 2.76298
210 2.41314
215 1.87265
220 2.64588
225 2.67957
230 3.09847
235 2.68911
240 1.66578
245 2.60134
250 2.93909
255 2.602
260 2.03503
265 3.3464
270 3.2712
275 3.007
280 2.85572
285 3.15421
290 1.57856
295 1.93838
300 3.13115
305 2.03562
310 2.02178
315 2.25248
320 2.17819
325 3.05448
330 3.22907
335 2.51641
340 3.26046
345 2.45919
350 2.64189
355 2.24226
360 4.95672
365 3.02126
370 2.21506
375 3.36566
380 2.69093
385 2.46288
390 2.69876
395 2.63711
400 4.1907
405 3.08347
410 2.99523
415 3.50933
420 3.18278
425 4.38325
430 3.01351
435 2.61328
440 3.79509
445 4.42506
450 2.77129
455 2.58936
460 2.05838
465 2.31952
470 2.53689
475 2.36657
480 2.52102
485 2.79011
490 2.64314
495 1.88948
500 2.80196
505 2.69065
510 2.67289
515 2.54731
520 2.514
525 2.82594
530 2.46088
535 3.0783
540 2.50527
545 3.12621
550 3.27034
555 2.53009
560 4.97778
565 2.98667
570 3.82757
575 2.03073
580 2.96122
585 2.32788
590 2.84638
595 2.6639
600 0.619643
Ex : 263
200 2.70904
205 2.26091
210 2.81442
215 1.3405
220 1.77634
225 2.01022
230 2.17756
235 1.80894
240 3.16032
245 2.23096
250 1.79408
255 1.8291
260 2.1243
265 1.91005
270 1.97053
275 1.79941
280 2.12192
285 3.08348
290 2.5015
295 1.55928
300 1.97462
305 2.45569
310 2.41439
315 1.98258
320 1.82817
325 4.01802
330 1.87871
335 1.39996
340 1.87008
345 2.36285
350 2.81114
355 1.51572
360 2.05085
365 2.73593
370 2.77073
375 1.88737
380 3.17653
385 2.46895
390 2.59893
395 2.48852
400 2.10143
405 2.93479
410 2.67045
415 3.42487
420 2.76355
425 2.51881
430 3.21138
435 2.87131
440 2.86052
445 2.86523
450 2.21405
455 1.64997
460 2.6545
465 2.2303
470 1.91001
475 2.92704
480 1.87491
485 2.30442
490 2.94431
495 2.44578
500 2.50709
505 2.12524
510 2.15555
515 2.22444
520 3.11793
525 2.44499
530 2.15316
535 2.80283
540 1.6469
545 2.25194
550 2.69022
555 2.02916
560 2.77979
565 2.00066
570 1.48528
575 2.62238
580 2.04435
585 1.78281
590 1.25382
595 1.80919
600 0.205879
Ex : 268
200 1.80906
205 2.02411
210 1.57333
215 2.19524
220 1.77012
225 1.59642
230 1.73553
235 1.87047
240 1.55538
245 1.92113
250 1.23467
255 2.217
260 1.54508
265 1.45808
270 1.49469
275 1.42172
280 1.57993
285 1.48014
290 1.75283
295 1.49067
300 1.57855
305 1.52758
310 1.40022
315 1.06767
320 1.56336
325 1.92037
330 1.42022
335 1.33415
340 2.07484
345 2.43302
350 1.61387
355 1.54069
360 1.73883
365 1.7095
370 1.77268
375 1.79006
380 1.54917
385 1.86528
390 1.97284
395 1.87236
400 1.6857
405 2.19015
410 1.81988
415 1.74885
420 2.22008
425 1.56011
430 2.14016
435 2.25106
440 1.49009
445 2.44216
450 1.90334
455 1.81286
460 2.24622
465 2.00524
470 1.80742
475 1.78008
480 1.41339
485 2.08612
490 1.33231
495 1.9986
500 1.58229
505 1.9995
510 2.15397
515 1.66914
520 1.61716
525 1.85474
530 1.88075
535 2.05602
540 3.29798
545 0.994216
550 1.42988
555 1.23405
560 0.725742
565 1.14277
570 1.64878
575 1.76102
580 1.33553
585 1.77868
590 1.57445
595 1.61938
600 2.96949
Ex : 273
200 1.30297
205 1.31917
210 1.54976
215 1.69861
220 1.16714
225 1.59594
230 0.807744
235 1.2495
240 1.55073
245 1.21702
250 0.999758
255 1.40729
260 1.27707
265 1.45766
270 1.34571
275 1.32762
280 1.08706
285 1.30142
290 1.17859
295 1.30986
300 1.15935
305 1.44093
310 1.51824
315 1.39309
320 1.33273
325 1.28646
330 1.43672
335 1.40364
340 1.62704
345 2.00748
350 1.4195
355 1.15315
360 1.48413
365 1.29344
370 1.58883
375 1.64793
380 2.30736
385 1.56676
390 1.50849
395 1.78212
400 2.40009
405 1.71724
410 2.11165
415 2.17848
420 1.54868
425 1.37195
430 1.71974
435 2.20801
440 2.11766
445 1.67795
450 1.77725
455 2.22297
460 1.63022
465 1.52415
470 1.77868
475 1.57256
480 1.28018
485 1.4216
490 1.31761
495 1.5249
500 1.17818
505 1.48121
510 1.01107
515 1.5873
520 1.25279
525 1.516
530 1.35264
535 1.58957
540 1.77766
545 1.93989
550 1.42825
555 1.39586
560 1.97177
565 1.26064
570 1.99571
575 1.9799
580 1.73194
585 0.805407
590 1.18585
595 1.13513
600 0.904602
Ex : 278
200 1.34842
205 1.01708
210 1.00121
215 0.943339
220 0.88447
225 1.05632
230 1.07594
235 1.31148
240 0.861408
245 1.02421
250 0.860787
255 1.14614
260 0.819125
265 1.33434
270 0.949856
275 0.814284
280 1.10171
285 0.914237
290 0.64844
295 1.02209
300 1.00036
305 1.06815
310 0.889693
315 1.26238
320 0.884697
325 0.707025
330 0.833656
335 0.978897
340 1.25559
345 1.33176
350 1.00914
355 0.882248
360 1.54608
365 0.877729
370 1.34129
375 1.72276
380 1.0728
385 1.41226
390 1.38079
395 1.71902
400 1.43818
405 1.32142
410 1.60205
415 1.33861
420 1.62324
425 2.14614
430 1.73658
435 1.39482
440 2.22193
445 1.61562
450 1.8275
455 1.24905
460 2.1135
465 1.29911
470 1.48702
475 1.31071
480 1.44916
485 1.08491
490 0.997129
495 1.20509
500 0.979029
505 1.26224
510 1.49243
515 1.18357
520 1.17728
525 1.45273
530 1.39442
535 1.04341
540 1.46022
545 1.23208
550 1.83429
555 1.4901
560 0.787798
565 0.505057
570 0.898042
575 1.07585
580 1.19942
585 1.45772
590 1.68716
595 1.27684
600 0.774218
Ex : 283
200 1.00884
205 1.16158
210 0.749896
215 1.0337
220 0.889955
225 0.545888
230 0.829354
235 0.903046
240 0.812092
245 0.933944
250 0.811489
255 1.06892
260 0.978526
265 0.854245
270 0.608669
275 0.981749
280 0.798604
285 0.626002
290 0.912492
295 0.671638
300 0.89535
305 0.89868
310 1.06197
315 1.04714
320 0.949674
325 1.0838
330 1.18262
335 0.955997
340 1.17381
345 1.12732
350 1.0446
355 0.907611
360 1.10376
365 1.36423
370 1.34623
375 1.10062
380 1.09964
385 1.30937
390 1.21474
395 1.73878
400 1.33155
405 1.3618
410 1.64416
415 1.26622
420 1.15925
425 1.14916
430 1.41846
435 1.27814
440 1.19766
445 1.8604
450 0.95273
455 1.13918
460 1.01091
465 1.02294
470 1.51669
475 1.56876
480 1.33684
485 1.22933
490 0.836239
495 1.31392
500 0.91679
505 0.99782
510 0.718999
515 1.1198
520 1.18917
525 0.914108
530 0.829265
535 0.878945
540 0.796193
545 0.929169
550 0.941317
555 1.32007
560 1.18991
565 1.36246
570 1.24482
575 1.57547
580 0.835935
585 1.14063
590 0.847516
595 0.604591
600 0.0688002
Ex : 288
200 0.984772
205 0.898277
210 1.05413
215 0.954
220 1.01176
225 0.731624
230 0.490097
235 0.50396
240 0.948134
245 1.12361
250 0.869401
255 0.527596
260 0.60313
265 0.556251
270 0.874168
275 0.875413
280 1.23939
285 1.00988
290 0.80131
295 0.886013
300 0.631019
305 0.667186
310 0.753005
315 0.819275
320 0.863731
325 1.00324
330 0.738036
335 0.823167
340 0.981403
345 0.617646
350 0.875879
355 0.95256
360 0.786232
365 0.988909
370 1.12387
375 0.848284
380 1.10069
385 1.02895
390 1.35045
395 1.31941
400 1.33329
405 1.4658
410 1.19774
415 1.1221
420 1.26391
425 1.06302
430 1.12879
435 1.12849
440 1.20785
445 1.57264
450 1.10188
455 1.12796
460 1.11687
465 1.06866
470 1.00629
475 0.849808
480 0.892501
485 1.07583
490 1.03779
495 0.801043
500 0.741613
505 0.910697
510 1.02996
515 0.693443
520 1.1044
525 0.717497
530 0.847845
535 0.822064
540 1.00069
545 0.736364
550 0.71738
555 0.749462
560 0.774386
565 1.21296
570 1.32696
575 0.996368
580 1.1472
585 0.861205
590 0.774006
595 0.540814
600 0.0615425
Ex : 293
200 0.601266
205 0.475218
210 0.620781
215 0.475964
220 0.322177
225 0.456879
230 0.63592
235 0.665494
240 0.651565
245 0.587142
250 0.723213
255 0.55972
260 0.692824
265 0.706677
270 1.22533
275 0.675018
280 0.660497
285 0.673339
290 0.972883
295 0.725133
300 0.62263
305 0.627683
310 0.725355
315 0.613038
320 0.512863
325 0.614764
330 0.580117
335 0.728821
340 0.734123
345 0.780658
350 0.71702
355 0.98479
360 0.83281
365 1.20645
370 1.18886
375 0.839515
380 1.3485
385 1.04009
390 0.997134
395 0.982453
400 1.07499
405 0.891389
410 1.25228
415 0.902543
420 1.10191
425 1.2034
430 1.17335
435 1.04411
440 0.918873
445 1.36436
450 1.33802
455 1.02484
460 1.1874
465 1.50407
470 1.17028
475 0.903082
480 0.754863
485 0.877855
490 0.948306
495 0.963168
500 0.723771
505 0.859488
510 0.888827
515 0.652087
520 0.775747
525 0.680678
530 0.92336
535 0.754107
540 0.77426
545 0.741672
550 0.871844
555 0.824647
560 0.72137
565 0.530409
570 0.733978
575 1.02898
580 1.19395
585 0.946557
590 0.695597
595 0.691049
600 2.41171
Ex : 298
200 0.73837
205 0.581899
210 0.697377
215 0.53075
220 0.428985
225 0.497624
230 0.506207
235 0.678175
240 0.605575
245 0.582077
250 0.583952
255 0.488744
260 0.463678
265 0.385326
270 0.574815
275 0.688334
280 0.666106
285 0.630288
290 0.547607
295 0.787597
300 0.663743
305 0.630402
310 0.558716
315 0.763134
320 0.76183
325 0.731686
330 0.777127
335 0.568288
340 0.594584
345 0.913789
350 0.804079
355 0.66651
360 0.857105
365 0.723358
370 0.760424
375 1.00114
380 1.1873
385 1.21816
390 1.08523
395 1.17945
400 0.739852
405 0.856974
410 1.18902
415 0.893515
420 1.1453
425 1.46607
430 1.01231
435 1.02387
440 1.156
445 1.25032
450 1.19085
455 1.10073
460 1.07934
465 1.06876
470 1.03781
475 0.900982
480 0.972132
485 1.13016
490 0.73875
495 0.522819
500 0.738603
505 0.555959
510 0.579048
515 0.525951
520 0.567977
525 0.43584
530 0.670897
535 0.881916
540 0.714466
545 0.913902
550 1.07981
555 0.507065
560 0.460522
565 0.568261
570 0.825776
575 0.58125
580 0.716808
585 0.76108
590 0.916757
595 0.657778
600 0.0748526
Ex : 303
200 0.553789
205 0.568622
210 0.336088
215 0.51663
220 0.351
225 0.345564
230 0.4459
235 0.607141
240 0.361736
245 0.736712
250 0.390032
255 0.494556
260 0.521161
265 0.472122
270 0.592593
275 0.439926
280 0.468575
285 0.592923
290 0.314263
295 0.53138
300 0.586476
305 0.501623
310 0.534648
315 0.404059
320 0.440397
325 0.558307
330 0.675261
335 0.598952
340 0.83629
345 0.754206
350 0.553335
355 0.572906
360 0.508131
365 0.679424
370 0.757711
375 0.783187
380 1.42484
385 1.04273
390 0.872114
395 1.01259
400 0.874927
405 1.24985
410 0.973477
415 1.11541
420 1.23477
425 0.974158
430 1.02859
435 1.18616
440 0.995675
445 0.901041
450 0.966295
455 1.09518
460 0.809976
465 0.841833
470 0.767164
475 0.843073
480 0.687399
485 0.618182
490 0.425957
495 0.578405
500 0.544574
505 0.535756
510 0.532646
515 0.634078
520 0.671265
525 0.701321
530 0.63385
535 0.629106
540 0.581058
545 0.668078
550 0.499054
555 0.826128
560 0.420437
565 0.349489
570 0.492251
575 0.493968
580 0.582159
585 0.347415
590 0.774677
595 0.874947
600 1.55839
Ex : 308
200 0.40404
205 0.361529
210 0.332085
215 0.347046
220 0.377425
225 0.387938
230 0.560222
235 0.369831
240 0.471558
245 0.497494
250 0.425767
255 0.358651
260 0.397158
265 0.486703
270 0.366871
275 0.300431
280 0.283766
285 0.487495
290 0.612609
295 0.318584
300 0.613012
305 0.801903
310 0.737323
315 0.498885
320 0.450446
325 0.554877
330 0.567529
335 0.442328
340 0.451502
345 0.661171
350 0.632563
355 0.677735
360 0.656975
365 0.84758
370 0.761322
375 0.833096
380 0.896356
385 0.872439
390 0.870649
395 0.911769
400 1.17245
405 1.04867
410 0.864848
415 1.06245
420 1.07691
425 1.34403
430 1.26348
435 0.92755
440 0.794372
445 0.95593
450 0.897555
455 0.96834
460 0.969027
465 1.03446
470 0.791023
475 0.736831
480 0.935811
485 1.11305
490 0.700138
495 0.734033
500 0.660072
505 0.66842
510 0.480136
515 0.528017
520 0.453212
525 0.603816
530 0.404285
535 0.47768
540 0.391863
545 0.535993
550 0.568062
555 0.573986
560 0.406788
565 0.424226
570 0.589909
575 0.31186
580 0.301176
585 0.354193
590 0.264912
595 0.407007
600 0.968447
Ex : 313
200 0.423845
205 0.395883
210 0.343174
215 0.335646
220 0.3319
225 0.345969
230 0.381002
235 0.332693
240 0.298297
245 0.362843
250 0.28386
255 0.358437
260 0.285092
265 0.517659
270 0.36812
275 0.379128
280 0.420181
285 0.439594
290 0.398057
295 0.346098
300 0.429212
305 0.734731
310 0.779335
315 0.414292
320 0.487563
325 0.443276
330 0.542552
335 0.577299
340 0.455226
345 0.642086
350 0.711236
355 0.732489
360 0.888738
365 0.916707
370 1.06593
375 1.28913
380 1.39898
385 1.75176
390 1.32403
395 1.60424
400 1.78791
405 1.58472
410 1.41616
415 1.78845
420 1.65871
425 1.73503
430 1.31225
435 1.6265
440 1.59644
445 1.67704
450 1.40794
455 1.2681
460 1.36251
465 1.36541
470 1.08891
475 1.05108
480 1.0448
485 1.00151
490 0.950524
495 0.683676
500 0.805227
505 0.748932
510 0.652049
515 0.603475
520 0.676334
525 0.567592
530 0.52728
535 0.557328
540 0.533548
545 0.470681
550 0.474272
555 0.565588
560 0.375132
565 0.44751
570 0.404187
575 0.477898
580 0.547284
585 0.333452
590 0.38471
595 0.412306
600 0.474005
Ex : 318
200 0.381786
205 0.311792
210 0.338081
215 0.362727
220 0.242635
225 0.232506
230 0.278747
235 0.34039
240 0.415819
245 0.362352
250 0.261133
255 0.237252
260 0.539488
265 0.297121
270 0.312742
275 0.298016
280 0.210328
285 0.529817
290 0.310264
295 0.285273
300 0.297734
305 0.27926
310 0.761607
315 1.05189
320 0.673408
325 0.566034
330 0.764119
335 0.88271
340 1.51451
345 1.94634
350 2.71721
355 3.22446
360 3.98618
365 5.307
370 6.11073
375 7.21793
380 8.96906
385 9.39462
390 9.85952
395 10.6853
400 11.9716
405 11.9663
410 11.9355
415 12.0994
420 11.7327
425 11.5209
430 11.2383
435 11.1242
440 10.7699
445 9.64599
450 9.37816
455 8.88186
460 8.46739
465 7.49866
470 7.05903
475 6.03333
480 5.98907
485 5.52231
490 4.84104
495 4.15635
500 3.73345
505 3.38923
510 2.80349
515 2.42228
520 2.36826
525 2.06917
530 1.7609
535 1.67579
540 1.16171
545 1.13717
550 1.17585
555 0.857928
560 0.687437
565 0.733377
570 0.717925
575 0.63758
580 0.504271
585 0.47931
590 0.651505
595 0.509143
600 0.0579385
Ex : 323
200 0.290984
205 0.303179
210 0.542243
215 0.28597
220 0.254906
225 0.355792
230 0.290206
235 0.317847
240 0.288698
245 0.219401
250 0.304296
255 0.289054
260 0.29114
265 0.318622
270 0.241424
275 0.252373
280 0.244376
285 0.218875
290 0.359501
295 0.2247
300 0.281449
305 0.338587
310 0.321461
315 4.06712
320 15.2001
325 7.15954
330 2.47536
335 3.12393
340 5.23768
345 6.43426
350 9.54474
355 12.6959
360 15.3162
365 18.6775
370 21.6723
375 25.9338
380 28.7291
385 31.7562
390 34.7128
395 37.7407
400 39.566
405 39.7905
410 40.9384
415 40.869
420 40.1622
425 39.472
430 37.6556
435 37.75
440 36.7328
445 33.7557
450 31.8153
455 29.6888
460 28.1262
465 25.977
470 24.3818
475 21.8832
480 20.4005
485 18.6008
490 15.7946
495 14.3372
500 12.3568
505 11.4992
510 10.1233
515 8.56759
520 7.37426
525 6.48851
530 6.19059
535 4.72364
540 4.2103
545 3.62846
550 3.10003
555 2.9225
560 2.46152
565 2.05919
570 1.79763
575 1.58852
580 1.34725
585 0.960855
590 0.765059
595 0.449701
600 1.44378
Ex : 328
200 0.349412
205 0.238251
210 0.215788
215 0.321733
220 0.25986
225 0.244671
230 0.202087
235 0.160838
240 0.287536
245 0.254869
250 0.337136
255 0.293724
260 0.416758
265 0.276426
270 0.251581
275 0.27755
280 0.269655
285 0.208
290 0.206443
295 0.302649
300 0.316977
305 0.25333
310 0.269014
315 1.2023
320 34.3377
325 78.9321
330 25.6335
335 6.65346
340 5.94123
345 7.56446
350 9.64121
355 14.021
360 19.0352
365 21.0453
370 23.9293
375 26.9249
380 29.4934
385 33.7518
390 36.2979
395 38.2157
400 40.431
405 42.0453
410 42.1058
415 42.5257
420 41.0284
425 40.5863
430 40.3841
435 38.5161
440 37.7099
445 36.7649
450 33.5543
455 32.0613
460 30.6842
465 28.1218
470 26.3227
475 23.7986
480 22.9038
485 20.3227
490 17.6575
495 16.5344
500 14.7816
505 12.9182
510 11.1853
515 10.287
520 9.24456
525 7.90641
530 7.1454
535 6.15833
540 5.46863
545 4.76459
550 4.11525
555 3.6523
560 2.9523
565 2.77865
570 2.11261
575 1.75035
580 1.3963
585 1.2774
590 0.899559
595 0.782712
600 1.32205
Ex : 333
200 0.275529
205 0.3352
210 0.218435
215 0.25948
220 0.352073
225 0.299802
230 0.172442
235 0.308334
240 0.371426
245 0.295348
250 0.215275
255 0.247776
260 0.25029
265 0.222813
270 0.28343
275 0.239505
280 0.331987
285 0.255481
290 0.28858
295 0.410411
300 0.288472
305 0.258553
310 0.312981
315 0.371664
320 5.4812
325 101.691
330 173.504
335 47.2324
340 9.1472
345 5.8278
350 6.00035
355 6.87127
360 10.5445
365 15.3933
370 15.6121
375 16.3362
380 17.7849
385 18.9923
390 20.0225
395 21.8436
400 22.2332
405 23.2375
410 24.3712
415 23.8652
420 25.0656
425 24.2119
430 23.4811
435 23.9461
440 23.6533
445 22.3378
450 21.694
455 20.4229
460 19.7882
465 18.855
470 17.9397
475 16.5267
480 15.4773
485 14.4274
490 13.3808
495 12.7005
500 11.2268
505 10.4125
510 9.57291
515 8.32878
520 7.1973
525 6.52034
530 5.88026
535 5.4793
540 4.74996
545 4.4155
550 4.01601
555 3.52274
560 2.89443
565 2.71223
570 2.11829
575 1.81281
580 1.50819
585 1.26394
590 0.9711
595 0.840589
600 0.94697
Ex : 338
200 0.24361
205 0.187527
210 0.163604
215 0.293097
220 0.265628
225 0.212546
230 0.309924
235 0.23005
240 0.263382
245 0.297328
250 0.298868
255 0.282349
260 0.187121
265 0.255796
270 0.33662
275 0.360422
280 0.193044
285 0.372218
290 0.277764
295 0.185998
300 0.229359
305 0.213428
310 0.245189
315 0.25045
320 0.42107
325 10.6946
330 155.368
335 227.815
340 57.5804
345 9.35272
350 5.0825
355 4.30749
360 4.32671
365 6.6392
370 11.2953
375 11.9241
380 10.4373
385 9.72675
390 10.9322
395 11.5241
400 12.3963
405 13.2701
410 14.9646
415 15.2351
420 16.0014
425 15.1518
430 15.5598
435 15.2864
440 15.3025
445 16.0434
450 15.9354
455 15.1535
460 15.4512
465 15.0808
470 14.393
475 13.9324
480 13.6219
485 12.8687
490 12.1399
495 11.1684
500 10.78
505 9.69089
510 9.37633
515 8.42236
520 7.25564
525 6.8217
530 6.21538
535 5.55138
540 4.90252
545 4.54924
550 3.85431
555 3.61796
560 3.32698
565 2.57414
570 2.32742
575 1.91252
580 1.50423
585 1.35166
590 1.11632
595 0.829678
600 1.67059
Ex : 343
200 0.194383
205 0.196748
210 0.207971
215 0.230738
220 0.153358
225 0.268388
230 0.142358
235 0.284539
240 0.240213
245 0.276966
250 0.392112
255 0.302105
260 0.245393
265 0.347222
270 0.281742
275 0.221512
280 0.183593
285 0.222609
290 0.219793
295 0.197329
300 0.299315
305 0.169774
310 0.253691
315 0.261426
320 0.309447
325 0.336146
330 12.4653
335 179.908
340 250.218
345 60.4701
350 9.4741
355 3.95951
360 3.40295
365 3.02714
370 4.09255
375 8.91035
380 10.2663
385 8.43891
390 7.796
395 7.70531
400 8.68276
405 10.3289
410 11.9331
415 12.9896
420 13.0912
425 13.3069
430 13.7716
435 15.0528
440 15.8215
445 15.9293
450 15.3724
455 14.9366
460 15.2747
465 15.0801
470 15.1953
475 14.889
480 14.2982
485 14.1474
490 13.3633
495 12.4992
500 12.1754
505 11.0641
510 9.88588
515 9.48914
520 8.46902
525 7.83615
530 6.96371
535 6.14377
540 5.71965
545 4.88759
550 4.37501
555 3.95762
560 3.48521
565 3.01571
570 2.61497
575 2.09715
580 1.55794
585 1.45001
590 1.21359
595 0.990546
600 0.377431
Ex : 348
200 0.174854
205 0.191257
210 0.19703
215 0.171469
220 0.193553
225 0.17545
230 0.310807
235 0.260191
240 0.227547
245 0.200233
250 0.270335
255 0.192826
260 0.20474
265 0.158432
270 0.157812
275 0.185352
280 0.26263
285 0.279745
290 0.205528
295 0.249237
300 0.21327
305 0.199589
310 0.198704
315 0.271909
320 0.325174
325 0.326245
330 0.4973
335 13.4656
340 180.261
345 259.309
350 66.9559
355 9.5951
360 3.54995
365 2.86044
370 2.72877
375 3.57425
380 6.93218
385 9.38803
390 8.23397
395 7.27839
400 7.78662
405 9.2583
410 11.659
415 12.9559
420 13.8793
425 13.4616
430 14.1636
435 15.8784
440 16.7122
445 16.824
450 17.0309
455 16.8477
460 17.2687
465 18.3189
470 17.9131
475 17.6698
480 17.1002
485 15.9274
490 15.8607
495 14.6304
500 14.5248
505 13.52
510 12.2847
515 11.3635
520 10.388
525 9.36851
530 8.49539
535 7.57552
540 6.73127
545 6.04654
550 5.69034
555 5.00769
560 4.28223
565 3.68737
570 2.95675
575 2.4102
580 1.9159
585 1.54901
590 1.21793
595 0.907621
600 0.772014
Ex : 353
200 0.215339
205 0.281688
210 0.251743
215 0.172304
220 0.165593
225 0.253868
230 0.166481
235 0.2305
240 0.222841
245 0.228633
250 0.119024
255 0.215978
260 0.154824
265 0.25479
270 0.149824
275 0.301922
280 0.274556
285 0.234984
290 0.176887
295 0.209393
300 0.212763
305 0.251604
310 0.191933
315 0.24762
320 0.21221
325 0.280583
330 0.369861
335 0.516738
340 13.6736
345 185.872
350 257.152
355 63.5114
360 8.94825
365 2.91567
370 2.84754
375 2.56906
380 3.40222
385 6.33059
390 9.63957
395 8.87006
400 8.63566
405 8.82059
410 11.1764
415 12.9015
420 13.6044
425 13.4679
430 14.6084
435 15.6964
440 16.9637
445 18.2814
450 17.8004
455 18.3131
460 18.385
465 19.3104
470 19.4575
475 19.397
480 19.1144
485 18.2592
490 17.914
495 17.1429
500 16.3746
505 15.9314
510 14.5683
515 13.0425
520 12.3827
525 10.9311
530 9.6965
535 9.02518
540 8.06644
545 7.0554
550 6.26382
555 5.87055
560 5.19858
565 4.23961
570 3.5823
575 2.83817
580 2.25718
585 1.91444
590 1.52887
595 1.11663
600 1.69692
Ex : 358
200 0.230905
205 0.187322
210 0.13564
215 0.171318
220 0.191109
225 0.21461
230 0.230411
235 0.181748
240 0.166682
245 0.184858
250 0.190751
255 0.161363
260 0.209617
265 0.19949
270 0.120756
275 0.192191
280 0.168844
285 0.184373
290 0.171422
295 0.103173
300 0.216542
305 0.234161
310 0.242892
315 0.173389
320 0.235254
325 0.210643
330 0.16612
335 0.429208
340 0.569027
345 13.4368
350 181.484
355 261.435
360 64.6187
365 9.01258
370 3.2129
375 3.52977
380 3.19228
385 3.46807
390 5.37631
395 9.89836
400 10.3718
405 10.7932
410 12.4787
415 13.8632
420 14.3004
425 14.9768
430 15.9581
435 17.6563
440 18.8169
445 19.5296
450 19.4733
455 20.2377
460 20.215
465 21.0025
470 21.23
475 21.7497
480 20.9774
485 20.9313
490 20.2614
495 18.2873
500 17.9914
505 16.8023
510 16.2108
515 14.8751
520 13.5392
525 12.1896
530 10.3473
535 9.72473
540 9.20738
545 8.2255
550 7.31991
555 6.31489
560 5.25599
565 4.80646
570 3.84345
575 3.04468
580 2.49846
585 1.95584
590 1.53839
595 1.13741
600 1.3033
Ex : 363
200 0.274607
205 0.170647
210 0.1704
215 0.164996
220 0.194967
225 0.115194
230 0.172533
235 0.206495
240 0.193991
245 0.164311
250 0.175161
255 0.19019
260 0.170063
265 0.1582
270 0.138025
275 0.163233
280 0.151696
285 0.139912
290 0.150376
295 0.229626
300 0.171999
305 0.142677
310 0.195759
315 0.249632
320 0.222965
325 0.177494
330 0.23216
335 0.210895
340 0.340928
345 0.570812
350 12.7421
355 176.759
360 254.279
365 64.1785
370 9.07096
375 3.41203
380 3.65524
385 3.36306
390 3.6124
395 5.06257
400 9.84568
405 13.6883
410 15.3756
415 16.9614
420 16.7905
425 17.1769
430 18.5041
435 19.7667
440 21.9449
445 22.898
450 22.8458
455 23.1809
460 24.3504
465 24.8815
470 24.7894
475 25.0435
480 24.4035
485 24.2513
490 23.4587
495 22.27
500 20.8616
505 19.882
510 18.6474
515 16.593
520 15.4338
525 13.984
530 12.7859
535 11.306
540 10.3638
545 9.17722
550 8.35313
555 7.05809
560 6.21956
565 5.31566
570 4.58423
575 3.55487
580 2.72897
585 2.2252
590 1.7152
595 1.38789
600 0.63378
Ex : 368
200 0.150339
205 0.186926
210 0.188838
215 0.181219
220 0.101649
225 0.204165
230 0.169924
235 0.160397
240 0.144783
245 0.197563
250 0.175154
255 0.187369
260 0.131061
265 0.170022
270 0.221188
275 0.189021
280 0.224777
285 0.173609
290 0.144098
295 0.172965
300 0.140943
305 0.146354
310 0.16699
315 0.21349
320 0.135363
325 0.187926
330 0.170176
335 0.203821
340 0.311426
345 0.416487
350 0.501913
355 10.3054
360 165.666
365 252.684
370 66.7098
375 9.59147
380 3.37046
385 3.65651
390 3.60804
395 3.72285
400 5.64037
405 11.0825
410 16.4348
415 17.7822
420 16.6949
425 16.0914
430 16.6986
435 19.7235
440 21.4401
445 23.0572
450 22.8926
455 23.5146
460 24.249
465 26.1061
470 27.0354
475 26.7048
480 26.9601
485 26.2717
490 25.888
495 24.8763
500 23.8672
505 21.7274
510 20.6251
515 19.1546
520 17.3777
525 16.058
530 14.6718
535 13.3052
540 11.7211
545 10.4699
550 9.45407
555 8.44987
560 7.27382
565 6.35208
570 5.12578
575 4.34946
580 3.2758
585 2.61084
590 2.06971
595 1.65066
600 2.18801
Ex : 373
200 0.118369
205 0.184838
210 0.139207
215 0.122782
220 0.102593
225 0.140506
230 0.150084
235 0.16941
240 0.123013
245 0.150818
250 0.113992
255 0.154947
260 0.224943
265 0.200802
270 0.162071
275 0.230622
280 0.175758
285 0.121723
290 0.106639
295 0.138564
300 0.155622
305 0.0966367
310 0.1787
315 0.15764
320 0.159717
325 0.221108
330 0.196426
335 0.247369
340 0.234246
345 0.271276
350 0.325099
355 0.393123
360 11.5094
365 167.663
370 254.041
375 67.8804
380 9.99538
385 3.50965
390 3.69788
395 3.8594
400 5.00414
405 7.48147
410 12.7318
415 16.8126
420 16.5874
425 15.4594
430 15.2376
435 16.8378
440 18.917
445 20.3344
450 21.4803
455 21.8207
460 23.3183
465 25.1842
470 26.3433
475 27.4374
480 26.4691
485 26.8713
490 26.5669
495 26.5025
500 25.0868
505 23.5679
510 22.362
515 20.7798
520 18.552
525 16.9789
530 16.0624
535 14.18
540 12.3778
545 11.352
550 10.3448
555 9.01403
560 8.02132
565 6.63995
570 5.55168
575 4.45244
580 3.57254
585 2.70415
590 2.13398
595 1.71356
600 1.13445
Ex : 378
200 0.135306
205 0.147057
210 0.103742
215 0.142495
220 0.155121
225 0.187624
230 0.156656
235 0.146424
240 0.202519
245 0.113183
250 0.158642
255 0.157897
260 0.108043
265 0.15792
270 0.147672
275 0.153696
280 0.137514
285 0.125086
290 0.107223
295 0.103295
300 0.148277
305 0.143751
310 0.138063
315 0.146069
320 0.260595
325 0.156519
330 0.175108
335 0.129232
340 0.217519
345 0.273436
350 0.250598
355 0.339625
360 0.444387
365 11.5786
370 175.145
375 266.83
380 71.3229
385 10.5913
390 4.08335
395 4.37602
400 5.42588
405 7.31833
410 10.958
415 15.0614
420 17.7628
425 17.7429
430 17.3181
435 18.495
440 20.2135
445 20.8945
450 21.5618
455 22.5067
460 23.695
465 25.3491
470 26.1393
475 27.0809
480 26.8391
485 26.5012
490 26.1551
495 25.736
500 24.4027
505 22.8018
510 21.0101
515 19.8003
520 18.1679
525 16.6767
530 15.0785
535 13.4402
540 12.159
545 11.0191
550 9.85006
555 8.69345
560 7.89288
565 6.54923
570 5.54611
575 4.36281
580 3.37481
585 2.62362
590 1.97931
595 1.5442
600 1.93719
Ex : 383
200 0.17828
205 0.154701
210 0.204258
215 0.144623
220 0.0965939
225 0.138527
230 0.201158
235 0.136227
240 0.151661
245 0.137177
250 0.136707
255 0.155836
260 0.174187
265 0.107378
270 0.0948569
275 0.110126
280 0.122098
285 0.164579
290 0.133183
295 0.101007
300 0.133313
305 0.104814
310 0.111063
315 0.178116
320 0.172903
325 0.119026
330 0.169301
335 0.131256
340 0.17202
345 0.251552
350 0.21984
355 0.256065
360 0.357557
365 0.514078
370 10.6464
375 178.234
380 277.898
385 74.785
390 11.4267
395 4.37193
400 5.3145
405 8.47122
410 12.0867
415 14.6384
420 15.7273
425 18.395
430 20.1721
435 21.2045
440 22.7059
445 22.9516
450 22.9899
455 23.8802
460 25.144
465 26.6957
470 27.5069
475 28.2379
480 28.024
485 27.52
490 26.4871
495 25.8547
500 25.3393
505 23.7624
510 21.9104
515 19.9303
520 18.672
525 17.1576
530 15.3079
535 13.9249
540 12.5564
545 11.0196
550 10.2484
555 9.08138
560 7.73414
565 6.85097
570 5.5929
575 4.65504
580 3.48712
585 2.60559
590 2.04717
595 1.56541
600 1.3901
Ex : 388
200 0.190299
205 0.129163
210 0.156124
215 0.137497
220 0.153143
225 0.184751
230 0.151789
235 0.12543
240 0.163598
245 0.149308
250 0.133218
255 0.135611
260 0.101354
265 0.161076
270 0.151447
275 0.132637
280 0.124285
285 0.15935
290 0.13356
295 0.101026
300 0.158063
305 0.145892
310 0.151048
315 0.183987
320 0.192053
325 0.192748
330 0.140034
335 0.15807
340 0.199288
345 0.203026
350 0.265689
355 0.247458
360 0.281687
365 0.328321
370 0.413627
375 11.815
380 180.469
385 279.836
390 74.5361
395 11.4535
400 5.20107
405 7.72054
410 11.818
415 13.8795
420 14.3221
425 14.5935
430 17.5696
435 22.1467
440 22.4135
445 23.0018
450 22.7041
455 22.9847
460 24.7786
465 26.4858
470 27.332
475 27.3728
480 27.9242
485 28.0482
490 27.3879
495 26.6444
500 25.5743
505 24.3355
510 22.7221
515 20.7757
520 19.3255
525 17.7804
530 15.6801
535 14.7589
540 13.3881
545 11.4474
550 10.2258
555 9.25012
560 7.9163
565 6.97736
570 5.90539
575 4.53906
580 3.48487
585 2.87033
590 2.13336
595 1.67714
600 2.60685
Ex : 393
200 0.113965
205 0.120767
210 0.108052
215 0.135015
220 0.117095
225 0.120312
230 0.13805
235 0.163796
240 0.143461
245 0.133891
250 0.211881
255 0.149287
260 0.157415
265 0.119413
270 0.138895
275 0.183234
280 0.162659
285 0.116232
290 0.109305
295 0.127163
300 0.132847
305 0.156334
310 0.124347
315 0.19551
320 0.188667
325 0.154949
330 0.125973
335 0.20889
340 0.17982
345 0.159151
350 0.128492
355 0.170142
360 0.191243
365 0.242757
370 0.347237
375 0.499701
380 10.2032
385 177.949
390 287.766
395 77.7519
400 12.1989
405 6.87032
410 9.42829
415 11.4441
420 11.0954
425 11.2181
430 12.376
435 16.2303
440 20.2986
445 20.4666
450 20.3885
455 21.256
460 22.3442
465 24.5399
470 26.372
475 26.5834
480 27.0443
485 27.5807
490 27.0765
495 26.1866
500 26.1079
505 24.735
510 22.7959
515 21.2724
520 19.3147
525 18.3334
530 16.468
535 14.9843
540 13.5178
545 11.733
550 10.6919
555 9.58373
560 8.33643
565 7.44459
570 6.11087
575 4.96516
580 3.68926
585 2.94809
590 2.2403
595 1.84029
600 1.83359
Ex : 398
200 0.0617616
205 0.118921
210 0.130314
215 0.118878
220 0.131906
225 0.139051
230 0.10811
235 0.153705
240 0.141666
245 0.150498
250 0.127455
255 0.0993866
260 0.0968373
265 0.0982255
270 0.174407
275 0.0961473
280 0.137052
285 0.176744
290 0.123824
295 0.115658
300 0.118108
305 0.118531
310 0.113299
315 0.141141
320 0.103065
325 0.179601
330 0.144618
335 0.168236
340 0.169957
345 0.214808
350 0.169101
355 0.158154
360 0.163333
365 0.17091
370 0.23602
375 0.290791
380 0.428899
385 10.1508
390 181.553
395 295.817
400 80.3027
405 13.9602
410 9.09925
415 10.1267
420 10.6269
425 10.2524
430 10.9992
435 12.831
440 16.2203
445 19.976
450 20.4358
455 20.9192
460 22.3764
465 23.9718
470 25.1763
475 26.0782
480 26.788
485 26.9652
490 27.3129
495 26.6431
500 26.3196
505 24.7125
510 23.73
515 21.7139
520 20.1384
525 18.5669
530 16.7192
535 15.4125
540 13.8293
545 12.3134
550 10.813
555 10.1537
560 8.46244
565 7.47478
570 6.22963
575 5.07591
580 3.93187
585 2.89484
590 2.22797
595 1.84578
600 1.18065
Ex : 403
200 0.186121
205 0.105894
210 0.123046
215 0.114558
220 0.178718
225 0.178779
230 0.142824
235 0.122179
240 0.112387
245 0.0892976
250 0.138285
255 0.0794841
260 0.160082
265 0.118196
270 0.150369
275 0.116334
280 0.0840382
285 0.118142
290 0.164765
295 0.13602
300 0.165673
305 0.124127
310 0.128929
315 0.13942
320 0.131937
325 0.121238
330 0.105633
335 0.129741
340 0.1095
345 0.187437
350 0.19445
355 0.198622
360 0.14848
365 0.170188
370 0.196972
375 0.229548
380 0.420201
385 0.499557
390 11.8836
395 188.681
400 294.507
405 82.864
410 17.2043
415 11.135
420 11.0796
425 11.0717
430 11.9342
435 13.2562
440 16.0521
445 17.9564
450 21.4471
455 23.1638
460 23.9655
465 25.2922
470 26.3787
475 27.0955
480 28.0887
485 28.0719
490 28.044
495 27.3391
500 26.7802
505 25.3137
510 24.0644
515 22.4571
520 20.5442
525 18.9482
530 17.2705
535 16.0207
540 14.0904
545 12.5431
550 11.426
555 9.87021
560 8.91412
565 7.52199
570 6.40836
575 4.99524
580 3.82835
585 2.9822
590 2.31037
595 1.77502
600 1.27029
Ex : 408
200 0.106038
205 0.13797
210 0.156159
215 0.167614
220 0.120379
225 0.149762
230 0.122319
235 0.110276
240 0.132013
245 0.13719
250 0.100161
255 0.138766
260 0.105357
265 0.114576
270 0.083856
275 0.146817
280 0.110795
285 0.123556
290 0.129302
295 0.114988
300 0.116968
305 0.1111
310 0.123427
315 0.099559
320 0.108393
325 0.114783
330 0.0895734
335 0.12574
340 0.127213
345 0.127561
350 0.129844
355 0.138165
360 0.152207
365 0.167517
370 0.163777
375 0.234932
380 0.2563
385 0.232819
390 0.509125
395 11.3482
400 191.75
405 304.66
410 84.3087
415 18.2434
420 10.7246
425 9.7943
430 10.6923
435 12.7238
440 14.2608
445 16.0566
450 17.3674
455 20.7303
460 24.2185
465 25.1565
470 26.1375
475 27.2565
480 27.4653
485 27.4783
490 27.8599
495 26.9594
500 26.2963
505 25.5647
510 23.8913
515 22.4303
520 20.5738
525 19.1409
530 17.2833
535 15.5915
540 14.29
545 12.8185
550 11.4319
555 10.0649
560 8.84441
565 7.70039
570 6.29012
575 5.07359
580 4.10194
585 3.09823
590 2.29602
595 1.8444
600 1.18683
Ex : 413
200 0.0874564
205 0.10119
210 0.0991874
215 0.11768
220 0.113562
225 0.111928
230 0.0921575
235 0.123154
240 0.158769
245 0.118211
250 0.0970453
255 0.101918
260 0.125749
265 0.125814
270 0.10315
275 0.129433
280 0.192598
285 0.120257
290 0.115964
295 0.0928957
300 0.11976
305 0.149147
310 0.154337
315 0.141218
320 0.116269
325 0.165983
330 0.159642
335 0.172825
340 0.157006
345 0.16846
350 0.155454
355 0.134212
360 0.209729
365 0.133199
370 0.183523
375 0.192691
380 0.160858
385 0.304748
390 0.388293
395 0.766579
400 13.4962
405 203.755
410 314.15
415 83.536
420 15.489
425 7.44814
430 7.33566
435 8.85898
440 10.5005
445 11.5334
450 13.0083
455 15.4597
460 18.7263
465 23.1841
470 24.1288
475 24.6051
480 25.6551
485 25.6207
490 25.8186
495 25.7259
500 25.0484
505 23.8882
510 22.6662
515 21.5248
520 19.4207
525 17.6658
530 16.7215
535 15.1044
540 13.7675
545 12.4815
550 11.1849
555 9.97899
560 9.02754
565 7.17965
570 6.03444
575 5.00406
580 3.87012
585 2.92991
590 2.27941
595 1.866
600 1.63798
Ex : 418
200 0.179718
205 0.137789
210 0.126359
215 0.164219
220 0.139069
225 0.108259
230 0.104876
235 0.175173
240 0.147644
245 0.161834
250 0.111055
255 0.112753
260 0.182242
265 0.162695
270 0.115755
275 0.110256
280 0.159369
285 0.154155
290 0.116715
295 0.103443
300 0.116307
305 0.110043
310 0.129615
315 0.0885941
320 0.127928
325 0.164409
330 0.109644
335 0.170282
340 0.134816
345 0.151108
350 0.169452
355 0.138492
360 0.128218
365 0.160919
370 0.173087
375 0.185429
380 0.167761
385 0.17622
390 0.265173
395 0.347817
400 0.830763
405 13.477
410 205.916
415 316.304
420 84.2116
425 12.7604
430 4.88421
435 4.8904
440 6.22239
445 7.52201
450 9.02659
455 11.2596
460 14.229
465 16.8004
470 21.2433
475 22.4052
480 22.675
485 22.8462
490 22.9983
495 22.7199
500 22.853
505 21.9426
510 20.8413
515 19.4832
520 18.3741
525 16.9619
530 15.7238
535 14.2958
540 12.6356
545 11.8129
550 10.3617
555 9.1703
560 8.0442
565 7.28014
570 5.90869
575 4.66602
580 3.65956
585 2.87956
590 2.17448
595 1.75314
600 1.44838
Ex : 423
200 0.166977
205 0.106448
210 0.125112
215 0.111957
220 0.157312
225 0.0933112
230 0.135911
235 0.111053
240 0.12024
245 0.119112
250 0.115178
255 0.108095
260 0.117704
265 0.11776
270 0.129677
275 0.125679
280 0.127233
285 0.147614
290 0.143818
295 0.146156
300 0.131394
305 0.148903
310 0.128718
315 0.12919
320 0.147482
325 0.165073
330 0.212583
335 0.153466
340 0.188251
345 0.195211
350 0.130883
355 0.122251
360 0.124286
365 0.158654
370 0.151695
375 0.212335
380 0.169739
385 0.187493
390 0.214216
395 0.254343
400 0.348208
405 0.646246
410 13.333
415 217.541
420 324.376
425 81.33
430 11.5342
435 3.84441
440 3.97592
445 5.2558
450 7.22675
455 9.57045
460 11.4067
465 13.615
470 15.9562
475 18.9704
480 21.4457
485 21.5401
490 21.3661
495 20.9987
500 20.624
505 20.2782
510 19.0547
515 17.8021
520 16.9683
525 15.8254
530 14.3066
535 12.9104
540 11.4387
545 10.55
550 9.59311
555 8.82074
560 7.47801
565 6.65181
570 5.38546
575 4.14812
580 3.35423
585 2.69137
590 2.06773
595 1.6168
600 1.50893
Ex : 428
200 0.0700728
205 0.14379
210 0.100804
215 0.0976932
220 0.0954467
225 0.153825
230 0.128574
235 0.129562
240 0.137871
245 0.131642
250 0.137761
255 0.114468
260 0.114879
265 0.0848789
270 0.0989409
275 0.147357
280 0.124347
285 0.120904
290 0.112241
295 0.153828
300 0.104276
305 0.138263
310 0.123073
315 0.139008
320 0.145368
325 0.149604
330 0.123076
335 0.128707
340 0.1535
345 0.170247
350 0.142839
355 0.195513
360 0.168753
365 0.12804
370 0.114783
375 0.164214
380 0.181298
385 0.189659
390 0.204232
395 0.201779
400 0.256643
405 0.383318
410 0.631367
415 14.6711
420 224.248
425 339.611
430 87.819
435 11.9065
440 4.03394
445 4.19515
450 5.98652
455 8.24888
460 10.1573
465 11.7772
470 13.5166
475 15.4276
480 18.2741
485 20.3624
490 20.1665
495 19.3954
500 18.6594
505 17.7409
510 17.5634
515 15.5597
520 15.012
525 14.1894
530 13.1525
535 12.0698
540 10.9963
545 9.50297
550 8.78308
555 7.6981
560 6.93257
565 5.93816
570 4.88515
575 3.88842
580 3.13669
585 2.54818
590 2.01043
595 1.45517
600 1.57646
Ex : 433
200 0.103756
205 0.122689
210 0.125032
215 0.121131
220 0.140498
225 0.099427
230 0.147753
235 0.12171
240 0.113947
245 0.132212
250 0.105604
255 0.117021
260 0.10866
265 0.145929
270 0.112122
275 0.108188
280 0.0954444
285 0.127802
290 0.111706
295 0.106619
300 0.106407
305 0.1147
310 0.157758
315 0.123947
320 0.133065
325 0.129978
330 0.148659
335 0.182401
340 0.130274
345 0.099458
350 0.0964841
355 0.220962
360 0.180225
365 0.169597
370 0.117017
375 0.10601
380 0.161724
385 0.174589
390 0.181146
395 0.182063
400 0.249785
405 0.332546
410 0.412221
415 0.738526
420 17.5818
425 248.086
430 348.868
435 85.6363
440 12.2122
445 4.6302
450 5.03958
455 6.95013
460 9.26315
465 10.456
470 11.6879
475 13.0739
480 14.5691
485 16.2281
490 18.7728
495 18.1305
500 17.144
505 16.1511
510 15.3945
515 13.7246
520 13.2789
525 12.6937
530 11.2211
535 10.5116
540 9.70277
545 8.50603
550 7.84309
555 6.89878
560 6.13187
565 5.3124
570 4.38385
575 3.58667
580 2.68396
585 2.11104
590 1.63485
595 1.28004
600 1.51958
Ex : 438
200 0.12497
205 0.134355
210 0.129542
215 0.137991
220 0.0958591
225 0.124759
230 0.10975
235 0.117946
240 0.140714
245 0.158811
250 0.121861
255 0.137728
260 0.0940655
265 0.162165
270 0.150874
275 0.125526
280 0.112387
285 0.127584
290 0.135611
295 0.179891
300 0.132691
305 0.12805
310 0.110385
315 0.136597
320 0.139583
325 0.139906
330 0.132244
335 0.131986
340 0.192076
345 0.177264
350 0.159761
355 0.141197
360 0.129142
365 0.154247
370 0.165313
375 0.130972
380 0.130061
385 0.139301
390 0.204729
395 0.170025
400 0.163024
405 0.28268
410 0.326474
415 0.428541
420 0.53891
425 16.6682
430 252.642
435 375.261
440 91.735
445 13.3442
450 5.55997
455 5.7673
460 7.39295
465 9.09271
470 10.3245
475 10.8467
480 12.1234
485 12.7307
490 13.8074
495 15.5781
500 15.8086
505 14.499
510 13.5882
515 12.7198
520 11.6352
525 10.7189
530 9.68476
535 8.91504
540 8.23381
545 7.58032
550 6.78275
555 6.2202
560 5.36794
565 4.52289
570 3.73326
575 3.1681
580 2.2344
585 1.85734
590 1.58088
595 1.16458
600 1.21835
Ex : 443
200 0.116105
205 0.101883
210 0.153421
215 0.0908171
220 0.130061
225 0.118504
230 0.10884
235 0.177907
240 0.13175
245 0.1323
250 0.181326
255 0.15725
260 0.151681
265 0.110708
270 0.0989886
275 0.113439
280 0.159022
285 0.107998
290 0.0810265
295 0.128506
300 0.1418
305 0.131288
310 0.194683
315 0.138592
320 0.121898
325 0.156093
330 0.145037
335 0.123394
340 0.13595
345 0.156477
350 0.139749
355 0.137352
360 0.116122
365 0.129544
370 0.157089
375 0.161263
380 0.161481
385 0.113976
390 0.210192
395 0.187525
400 0.203741
405 0.213859
410 0.230429
415 0.274759
420 0.413118
425 0.672915
430 18.2558
435 268.627
440 389.957
445 98.3367
450 14.6343
455 6.04427
460 6.05604
465 7.49841
470 8.38985
475 9.33504
480 9.85722
485 10.4033
490 11.1284
495 11.2071
500 12.5514
505 13.3569
510 11.6914
515 10.9704
520 10.1735
525 8.95288
530 8.11182
535 7.25741
540 6.82853
545 6.14843
550 5.60443
555 5.14372
560 4.12491
565 3.81423
570 3.33301
575 2.71826
580 2.17369
585 1.65772
590 1.22717
595 0.971113
600 0.538641
Ex : 448
200 0.175797
205 0.1454
210 0.15861
215 0.111921
220 0.143908
225 0.0922564
230 0.122915
235 0.15243
240 0.185522
245 0.141318
250 0.187365
255 0.162993
260 0.120371
265 0.110183
270 0.133063
275 0.163082
280 0.121705
285 0.0934753
290 0.094949
295 0.187945
300 0.128548
305 0.117985
310 0.126045
315 0.145473
320 0.118654
325 0.134215
330 0.181861
335 0.116385
340 0.123349
345 0.122461
350 0.117086
355 0.154159
360 0.158953
365 0.130135
370 0.0999668
375 0.135472
380 0.153879
385 0.175523
390 0.211787
395 0.158109
400 0.173374
405 0.20024
410 0.235789
415 0.231252
420 0.31773
425 0.40106
430 0.6789
435 18.3825
440 285.717
445 412.308
450 103.633
455 15.2651
460 6.03879
465 5.42423
470 6.10281
475 7.13876
480 7.52748
485 7.64056
490 8.00025
495 8.20111
500 8.64251
505 9.17193
510 10.1524
515 9.37803
520 7.90692
525 7.35526
530 6.86969
535 5.99211
540 5.46714
545 4.90452
550 4.5778
555 3.88369
560 3.38159
565 3.09678
570 2.62854
575 2.06722
580 1.59244
585 1.39348
590 1.08778
595 0.901725
600 0.294225
Ex : 453
200 0.102917
205 0.10695
210 0.144817
215 0.145176
220 0.147547
225 0.119571
230 0.106945
235 0.10579
240 0.108942
245 0.14715
250 0.1784
255 0.108206
260 0.0933559
265 0.152397
270 0.155384
275 0.143008
280 0.0947742
285 0.136797
290 0.178613
295 0.12697
300 0.111823
305 0.15645
310 0.140555
315 0.151106
320 0.126221
325 0.119623
330 0.170522
335 0.134882
340 0.164579
345 0.191485
350 0.178048
355 0.167578
360 0.155611
365 0.16542
370 0.157122
375 0.155385
380 0.137981
385 0.158885
390 0.145965
395 0.14002
400 0.156724
405 0.234276
410 0.20904
415 0.20619
420 0.264045
425 0.327947
430 0.394696
435 0.758137
440 19.517
445 308.027
450 430.921
455 100.719
460 14.5328
465 5.4193
470 4.45625
475 5.13245
480 5.66586
485 6.03627
490 6.10985
495 5.91724
500 6.10473
505 6.10715
510 6.58836
515 7.54517
520 7.27136
525 6.30324
530 5.59032
535 4.86219
540 4.38392
545 3.96846
550 3.62225
555 3.07378
560 2.68138
565 2.52681
570 2.08569
575 1.65526
580 1.26725
585 1.09277
590 0.906416
595 0.777959
600 0.932398
Ex : 458
200 0.0964148
205 0.155997
210 0.103062
215 0.125643
220 0.130023
225 0.138107
230 0.0977798
235 0.133478
240 0.145522
245 0.122047
250 0.110715
255 0.152648
260 0.138525
265 0.136396
270 0.148284
275 0.16807
280 0.158695
285 0.120335
290 0.145226
295 0.132258
300 0.139944
305 0.116136
310 0.149946
315 0.105439
320 0.172581
325 0.158786
330 0.150406
335 0.146975
340 0.164344
345 0.136072
350 0.0999482
355 0.153122
360 0.150065
365 0.140108
370 0.20594
375 0.15661
380 0.164566
385 0.150861
390 0.187034
395 0.178468
400 0.153443
405 0.157428
410 0.23222
415 0.235291
420 0.250487
425 0.300848
430 0.328122
435 0.455489
440 0.797192
445 22.635
450 318.794
455 449.709
460 108.791
465 15.198
470 4.7528
475 3.79549
480 3.91432
485 4.3552
490 4.53319
495 4.33549
500 4.12389
505 4.24649
510 4.16697
515 4.26542
520 5.30502
525 5.94772
530 4.74467
535 3.99422
540 3.53304
545 3.2326
550 2.80657
555 2.49275
560 2.066
565 1.91226
570 1.55453
575 1.33658
580 1.15632
585 0.960572
590 0.726359
595 0.646516
600 0.425743
Ex : 463
200 0.119154
205 0.119762
210 0.139213
215 0.138857
220 0.104999
225 0.151569
230 0.172207
235 0.102232
240 0.119263
245 0.122624
250 0.116052
255 0.151148
260 0.147926
265 0.121328
270 0.154495
275 0.111598
280 0.139403
285 0.169704
290 0.158799
295 0.119475
300 0.14772
305 0.151763
310 0.134999
315 0.139767
320 0.106528
325 0.123869
330 0.0787424
335 0.113794
340 0.161704
345 0.129284
350 0.155417
355 0.147786
360 0.138858
365 0.119945
370 0.150474
375 0.112296
380 0.177341
385 0.131013
390 0.142154
395 0.136537
400 0.181019
405 0.161015
410 0.13153
415 0.144632
420 0.166351
425 0.178295
430 0.230206
435 0.287735
440 0.469666
445 0.821963
450 21.6201
455 327.201
460 475.834
465 113.461
470 15.2816
475 4.00411
480 2.85165
485 2.90843
490 3.336
495 3.40332
500 3.30463
505 3.04186
510 2.99822
515 3.16798
520 3.15635
525 3.89242
530 4.8785
535 4.18327
540 3.34373
545 2.88706
550 2.67354
555 2.22445
560 1.89718
565 1.7379
570 1.42503
575 1.34875
580 0.954869
585 0.778076
590 0.640139
595 0.509542
600 0.113028
Ex : 468
200 0.135539
205 0.11007
210 0.0919169
215 0.116938
220 0.109882
225 0.10123
230 0.113265
235 0.112511
240 0.142669
245 0.115729
250 0.133388
255 0.175774
260 0.160967
265 0.118543
270 0.141687
275 0.0842839
280 0.132087
285 0.115903
290 0.166916
295 0.132968
300 0.151633
305 0.120966
310 0.104558
315 0.110014
320 0.0929178
325 0.163665
330 0.125177
335 0.0835105
340 0.161809
345 0.143023
350 0.122386
355 0.140427
360 0.113789
365 0.136023
370 0.140431
375 0.113381
380 0.143006
385 0.153603
390 0.113481
395 0.124403
400 0.13203
405 0.145495
410 0.177328
415 0.181483
420 0.201083
425 0.21036
430 0.217644
435 0.25308
440 0.315095
445 0.443324
450 0.737109
455 23.9338
460 334.451
465 494.204
470 116.148
475 15.0899
480 3.58219
485 2.4969
490 2.36649
495 2.67885
500 2.71858
505 2.48311
510 2.3599
515 2.37967
520 2.4283
525 2.46592
530 2.78502
535 3.78583
540 4.03442
545 2.87162
550 2.42289
555 2.33586
560 1.92005
565 1.55465
570 1.25478
575 0.992297
580 0.933771
585 0.765609
590 0.675685
595 0.524661
600 0.519943
Ex : 473
200 0.100446
205 0.129695
210 0.0966013
215 0.0865467
220 0.122321
225 0.125908
230 0.117398
235 0.134149
240 0.107998
245 0.10186
250 0.153005
255 0.159586
260 0.174084
265 0.15012
270 0.10526
275 0.119221
280 0.0897454
285 0.0947492
290 0.150565
295 0.142022
300 0.124167
305 0.116853
310 0.109266
315 0.138688
320 0.0944907
325 0.129296
330 0.168059
335 0.129528
340 0.131677
345 0.11334
350 0.128984
355 0.133175
360 0.149099
365 0.153934
370 0.134869
375 0.135162
380 0.148913
385 0.13462
390 0.135071
395 0.146966
400 0.161957
405 0.143883
410 0.170569
415 0.188426
420 0.193293
425 0.234845
430 0.185647
435 0.22459
440 0.268827
445 0.350599
450 0.492602
455 0.796703
460 26.0791
465 353.327
470 473.969
475 108.401
480 14.1783
485 3.32302
490 2.10355
495 2.00006
500 2.24659
505 2.28343
510 2.26719
515 2.09721
520 2.08548
525 2.05255
530 2.03737
535 2.27437
540 3.12377
545 3.59356
550 2.7218
555 2.19311
560 1.81882
565 1.56974
570 1.20505
575 1.09996
580 0.748636
585 0.709152
590 0.540106
595 0.511494
600 0.207624
Ex : 478
200 0.125624
205 0.164612
210 0.12456
215 0.113211
220 0.175006
225 0.160367
230 0.174178
235 0.109198
240 0.126007
245 0.170007
250 0.153391
255 0.143713
260 0.168667
265 0.121003
270 0.125489
275 0.173564
280 0.11496
285 0.125836
290 0.173093
295 0.164928
300 0.178387
305 0.155902
310 0.195568
315 0.136816
320 0.12883
325 0.172522
330 0.212643
335 0.178651
340 0.119351
345 0.149654
350 0.117732
355 0.163795
360 0.148622
365 0.102068
370 0.156258
375 0.156333
380 0.203723
385 0.205697
390 0.17107
395 0.231259
400 0.177251
405 0.166978
410 0.234185
415 0.243279
420 0.165767
425 0.216167
430 0.2182
435 0.208146
440 0.227603
445 0.290954
450 0.473378
455 0.597612
460 0.940632
465 28.1543
470 357.351
475 471.808
480 111.969
485 14.4945
490 3.24676
495 1.90213
500 1.77774
505 1.97773
510 2.14317
515 2.08959
520 1.86773
525 1.96956
530 1.86503
535 1.69373
540 1.90226
545 2.31315
550 3.0847
555 2.56601
560 1.88012
565 1.7076
570 1.66846
575 1.19518
580 0.828756
585 0.695621
590 0.600602
595 0.50461
600 0.546254
Ex : 483
200 0.0854821
205 0.0940569
210 0.15893
215 0.154809
220 0.133492
225 0.185032
230 0.116838
235 0.131964
240 0.119285
245 0.129366
250 0.115676
255 0.163156
260 0.104831
265 0.152051
270 0.134085
275 0.12286
280 0.168181
285 0.18117
290 0.14631
295 0.17306
300 0.157325
305 0.147396
310 0.146089
315 0.167236
320 0.157942
325 0.16667
330 0.159521
335 0.16954
340 0.141898
345 0.169355
350 0.162633
355 0.17233
360 0.140744
365 0.15511
370 0.148316
375 0.177504
380 0.151263
385 0.186263
390 0.176089
395 0.172321
400 0.195144
405 0.142727
410 0.190356
415 0.191256
420 0.184855
425 0.222178
430 0.239682
435 0.23191
440 0.227222
445 0.242827
450 0.271884
455 0.395829
460 0.586014
465 0.91869
470 21.5846
475 345.003
480 499.213
485 118.792
490 15.0878
495 3.15896
500 1.64567
505 1.51132
510 1.77376
515 1.98347
520 1.93481
525 1.88128
530 1.62426
535 1.83053
540 1.71147
545 1.58065
550 1.80967
555 2.50667
560 2.68323
565 1.93854
570 1.45008
575 1.11953
580 0.980932
585 0.800838
590 0.590389
595 0.455327
600 0.331668
Ex : 488
200 0.151903
205 0.218287
210 0.175416
215 0.140423
220 0.149046
225 0.152245
230 0.143314
235 0.181758
240 0.136458
245 0.120263
250 0.141762
255 0.210519
260 0.129194
265 0.14312
270 0.179702
275 0.170415
280 0.159328
285 0.171403
290 0.193146
295 0.144066
300 0.151596
305 0.168918
310 0.209657
315 0.1357
320 0.129326
325 0.190165
330 0.231066
335 0.218485
340 0.179688
345 0.139315
350 0.225253
355 0.153712
360 0.205255
365 0.163075
370 0.172776
375 0.149642
380 0.163419
385 0.166858
390 0.201497
395 0.212453
400 0.211728
405 0.182714
410 0.18047
415 0.176199
420 0.161135
425 0.217309
430 0.24836
435 0.215042
440 0.237374
445 0.199156
450 0.297221
455 0.453939
460 0.397432
465 0.675941
470 0.797253
475 25.2167
480 362.87
485 485.656
490 113.819
495 14.3346
500 3.04431
505 1.70377
510 1.4793
515 1.60939
520 1.83158
525 1.90583
530 1.66645
535 1.80867
540 1.6418
545 1.49423
550 1.65116
555 1.55855
560 2.01514
565 2.54966
570 1.88033
575 1.22117
580 0.958983
585 0.867376
590 0.619369
595 0.514118
600 0.640183
Ex : 493
200 0.141563
205 0.150055
210 0.178174
215 0.169752
220 0.181363
225 0.141433
230 0.126277
235 0.131789
240 0.160683
245 0.159167
250 0.193532
255 0.143546
260 0.154607
265 0.137305
270 0.152598
275 0.198615
280 0.216945
285 0.148963
290 0.21933
295 0.210864
300 0.17837
305 0.146274
310 0.181487
315 0.183274
320 0.176332
325 0.267599
330 0.220681
335 0.190757
340 0.156825
345 0.135282
350 0.157691
355 0.177699
360 0.172855
365 0.195387
370 0.209333
375 0.150934
380 0.174192
385 0.179075
390 0.209872
395 0.188931
400 0.181645
405 0.177571
410 0.233136
415 0.167316
420 0.212501
425 0.176305
430 0.161013
435 0.156729
440 0.222362
445 0.232475
450 0.279296
455 0.259917
460 0.341562
465 0.448366
470 0.576129
475 0.815051
480 22.7738
485 352.982
490 502.566
495 114.787
500 14.4599
505 2.90156
510 1.49284
515 1.3447
520 1.49702
525 1.77755
530 1.60199
535 1.61538
540 1.50846
545 1.47458
550 1.3985
555 1.35729
560 1.33527
565 1.6439
570 2.22216
575 1.78618
580 1.17672
585 0.876314
590 0.691339
595 0.591511
600 0.672772
Ex : 498
200 0.18254
205 0.153549
210 0.155847
215 0.21441
220 0.244803
225 0.194195
230 0.193736
235 0.191491
240 0.256235
245 0.122344
250 0.193473
255 0.151505
260 0.14438
265 0.135847
270 0.169988
275 0.218711
280 0.215752
285 0.179388
290 0.142479
295 0.217742
300 0.182435
305 0.164649
310 0.160511
315 0.151349
320 0.136592
325 0.208931
330 0.191281
335 0.159527
340 0.166786
345 0.198407
350 0.183551
355 0.166786
360 0.164836
365 0.15708
370 0.201664
375 0.160269
380 0.227208
385 0.160999
390 0.208401
395 0.181359
400 0.1659
405 0.244672
410 0.237539
415 0.177956
420 0.210918
425 0.180079
430 0.296475
435 0.232916
440 0.224368
445 0.216086
450 0.225743
455 0.330006
460 0.307794
465 0.396181
470 0.384798
475 0.636666
480 0.959104
485 27.723
490 367.022
495 479.058
500 109.41
505 13.9239
510 2.79647
515 1.59046
520 1.35717
525 1.51631
530 1.66047
535 1.68213
540 1.62614
545 1.48777
550 1.47831
555 1.37206
560 1.26038
565 1.28383
570 1.23771
575 1.61162
580 1.55758
585 1.02582
590 0.695946
595 0.65125
600 0.606577
Ex : 503
200 0.250106
205 0.186329
210 0.200366
215 0.220072
220 0.176967
225 0.147266
230 0.187447
235 0.144994
240 0.21301
245 0.133395
250 0.221663
255 0.149706
260 0.155574
265 0.180125
270 0.16755
275 0.147465
280 0.177823
285 0.154785
290 0.183498
295 0.167014
300 0.193994
305 0.232669
310 0.207152
315 0.183141
320 0.158026
325 0.151642
330 0.186157
335 0.262376
340 0.145557
345 0.104301
350 0.193162
355 0.183574
360 0.243769
365 0.140618
370 0.211422
375 0.213497
380 0.251325
385 0.229119
390 0.16825
395 0.173785
400 0.199377
405 0.160095
410 0.204418
415 0.175382
420 0.194248
425 0.178164
430 0.224709
435 0.295679
440 0.197175
445 0.29505
450 0.233143
455 0.300963
460 0.249448
465 0.31966
470 0.36638
475 0.495556
480 0.528637
485 0.813683
490 24.6202
495 361.532
500 489.948
505 111.573
510 14.0243
515 2.85656
520 1.68187
525 1.31756
530 1.5175
535 1.54614
540 1.65184
545 1.4761
550 1.3049
555 1.29649
560 1.0699
565 1.21202
570 1.03949
575 0.871164
580 1.1039
585 1.36893
590 0.908638
595 0.656862
600 1.0476
Ex : 508
200 0.133275
205 0.169972
210 0.216857
215 0.187907
220 0.202338
225 0.190957
230 0.167173
235 0.188012
240 0.17041
245 0.231149
250 0.266116
255 0.184723
260 0.145314
265 0.154089
270 0.21755
275 0.123136
280 0.182573
285 0.14514
290 0.17907
295 0.171734
300 0.134984
305 0.184853
310 0.18361
315 0.220205
320 0.202949
325 0.198893
330 0.199182
335 0.189576
340 0.288073
345 0.130942
350 0.235639
355 0.174335
360 0.160467
365 0.221203
370 0.18621
375 0.216345
380 0.175723
385 0.150408
390 0.206588
395 0.196832
400 0.197174
405 0.191794
410 0.180227
415 0.232508
420 0.212565
425 0.138633
430 0.258862
435 0.25794
440 0.207892
445 0.208979
450 0.277179
455 0.226156
460 0.273185
465 0.271377
470 0.28914
475 0.432417
480 0.351895
485 0.701966
490 0.915701
495 25.8081
500 358.558
505 481.37
510 114.207
515 14.3185
520 2.81512
525 1.58593
530 1.35373
535 1.37156
540 1.3892
545 1.37568
550 1.35623
555 1.14615
560 1.14925
565 1.0331
570 0.979015
575 0.822358
580 0.662351
585 0.787243
590 1.05309
595 1.04838
600 0.587021
Ex : 513
200 0.250852
205 0.176602
210 0.125076
215 0.211763
220 0.213079
225 0.162498
230 0.208422
235 0.203377
240 0.170068
245 0.202754
250 0.171705
255 0.221203
260 0.144782
265 0.157557
270 0.138794
275 0.225663
280 0.168084
285 0.154323
290 0.213149
295 0.185439
300 0.252558
305 0.182412
310 0.174149
315 0.160287
320 0.154595
325 0.133776
330 0.260255
335 0.233856
340 0.160793
345 0.158459
350 0.189183
355 0.218732
360 0.211332
365 0.181457
370 0.23544
375 0.300677
380 0.26022
385 0.197308
390 0.235178
395 0.163539
400 0.206777
405 0.198329
410 0.240443
415 0.181819
420 0.165644
425 0.193063
430 0.292735
435 0.245503
440 0.190842
445 0.289161
450 0.253644
455 0.370378
460 0.288484
465 0.315181
470 0.342277
475 0.430991
480 0.380913
485 0.452894
490 0.54579
495 0.770666
500 23.2454
505 345.306
510 484.347
515 117.729
520 14.8078
525 2.89413
530 1.62014
535 1.42485
540 1.24629
545 1.36414
550 1.30516
555 1.40616
560 1.10742
565 1.01243
570 0.760303
575 0.772288
580 0.740283
585 0.55414
590 0.545943
595 0.83985
600 0.775975
Ex : 518
200 0.152729
205 0.148832
210 0.164411
215 0.174939
220 0.160477
225 0.20477
230 0.171494
235 0.261226
240 0.205092
245 0.212157
250 0.155734
255 0.214354
260 0.174616
265 0.19957
270 0.149206
275 0.225971
280 0.167649
285 0.271847
290 0.187952
295 0.243879
300 0.206981
305 0.264448
310 0.191505
315 0.247398
320 0.186307
325 0.14467
330 0.159521
335 0.17209
340 0.307144
345 0.185706
350 0.206795
355 0.24717
360 0.282687
365 0.189277
370 0.181601
375 0.220584
380 0.265774
385 0.209637
390 0.161266
395 0.205455
400 0.150829
405 0.207474
410 0.234381
415 0.256239
420 0.176599
425 0.186344
430 0.192708
435 0.195208
440 0.213919
445 0.192099
450 0.303407
455 0.348267
460 0.326835
465 0.312052
470 0.37027
475 0.289294
480 0.311322
485 0.404383
490 0.44839
495 0.546352
500 0.979227
505 23.3043
510 337.864
515 471.08
520 114.151
525 14.372
530 2.82461
535 1.51326
540 1.2941
545 1.3086
550 1.17757
555 1.28866
560 1.20485
565 1.01829
570 0.867428
575 0.673646
580 0.680931
585 0.675006
590 0.454328
595 0.511175
600 1.90077
Ex : 523
200 0.166426
205 0.21525
210 0.209826
215 0.135221
220 0.203197
225 0.191122
230 0.175772
235 0.194293
240 0.211118
245 0.281709
250 0.255501
255 0.217358
260 0.22535
265 0.224724
270 0.191344
275 0.22366
280 0.205598
285 0.207721
290 0.167814
295 0.300528
300 0.193151
305 0.127925
310 0.206411
315 0.170652
320 0.177406
325 0.188206
330 0.241587
335 0.265322
340 0.229966
345 0.171403
350 0.216127
355 0.17817
360 0.188389
365 0.178176
370 0.233979
375 0.183866
380 0.161493
385 0.211443
390 0.174833
395 0.210287
400 0.176898
405 0.197027
410 0.210485
415 0.242075
420 0.198713
425 0.276583
430 0.233618
435 0.222504
440 0.218197
445 0.313753
450 0.220186
455 0.320063
460 0.234626
465 0.2974
470 0.277229
475 0.335953
480 0.320499
485 0.329356
490 0.384245
495 0.395729
500 0.547914
505 0.761266
510 21.4108
515 321.668
520 473.381
525 120.458
530 15.1007
535 2.82769
540 1.49929
545 1.20721
550 1.04772
555 1.13707
560 1.09558
565 1.01551
570 0.832175
575 0.77909
580 0.638994
585 0.558388
590 0.532589
595 0.459819
600 0.380716
Ex : 528
200 0.27061
205 0.21819
210 0.230871
215 0.157987
220 0.224052
225 0.160793
230 0.150238
235 0.209754
240 0.206828
245 0.160867
250 0.249523
255 0.165257
260 0.194974
265 0.181292
270 0.149082
275 0.209647
280 0.293455
285 0.195161
290 0.278095
295 0.155331
300 0.218066
305 0.21089
310 0.242652
315 0.191441
320 0.163956
325 0.163908
330 0.2828
335 0.25057
340 0.205799
345 0.196066
350 0.24183
355 0.211788
360 0.16249
365 0.179324
370 0.340984
375 0.29479
380 0.224872
385 0.236315
390 0.20162
395 0.253057
400 0.341516
405 0.297534
410 0.286725
415 0.188382
420 0.285086
425 0.301929
430 0.209929
435 0.233404
440 0.227652
445 0.18942
450 0.212815
455 0.180305
460 0.228448
465 0.447653
470 0.319878
475 0.378316
480 0.326922
485 0.29026
490 0.346208
495 0.387493
500 0.418551
505 0.620931
510 0.785775
515 19.8883
520 315.109
525 450.238
530 111.794
535 14.0189
540 2.55786
545 1.45803
550 1.07695
555 0.748857
560 0.911961
565 1.11476
570 1.00619
575 0.837476
580 0.644412
585 0.482537
590 0.549678
595 0.473979
600 0.543195
Ex : 533
200 0.245923
205 0.21397
210 0.219861
215 0.212939
220 0.12358
225 0.165974
230 0.13506
235 0.266869
240 0.107726
245 0.202783
250 0.178225
255 0.142591
260 0.172501
265 0.227338
270 0.270407
275 0.318779
280 0.154981
285 0.192975
290 0.261388
295 0.208277
300 0.172687
305 0.221541
310 0.277374
315 0.240083
320 0.230177
325 0.276237
330 0.208928
335 0.180454
340 0.218324
345 0.148533
350 0.223036
355 0.234061
360 0.199351
365 0.206975
370 0.293402
375 0.238134
380 0.233136
385 0.252513
390 0.28669
395 0.201277
400 0.261171
405 0.267754
410 0.222849
415 0.233932
420 0.187008
425 0.313968
430 0.23719
435 0.243715
440 0.318645
445 0.177334
450 0.195838
455 0.18477
460 0.227678
465 0.221209
470 0.19292
475 0.314187
480 0.308944
485 0.349921
490 0.348811
495 0.333214
500 0.461411
505 0.52652
510 0.605069
515 0.76926
520 18.8624
525 296.161
530 448.293
535 113.846
540 14.1485
545 2.52961
550 1.26598
555 1.13902
560 0.817187
565 0.70555
570 0.844376
575 0.912445
580 0.62742
585 0.547715
590 0.377364
595 0.498129
600 0.149594
Ex : 538
200 0.29845
205 0.248922
210 0.20514
215 0.229548
220 0.203811
225 0.242374
230 0.239471
235 0.286564
240 0.199405
245 0.177209
250 0.136267
255 0.148622
260 0.204629
265 0.181954
270 0.14003
275 0.248112
280 0.213837
285 0.165559
290 0.254112
295 0.236807
300 0.208026
305 0.250005
310 0.233914
315 0.21182
320 0.245418
325 0.246952
330 0.153547
335 0.165728
340 0.204928
345 0.248737
350 0.229769
355 0.338436
360 0.218178
365 0.241669
370 0.132187
375 0.173336
380 0.223139
385 0.156095
390 0.203025
395 0.321189
400 0.237777
405 0.278244
410 0.225262
415 0.205185
420 0.304514
425 0.197941
430 0.258798
435 0.283277
440 0.241601
445 0.243713
450 0.290558
455 0.231488
460 0.297661
465 0.223536
470 0.332947
475 0.239988
480 0.2822
485 0.277153
490 0.360166
495 0.278996
500 0.299404
505 0.317274
510 0.45162
515 0.652665
520 0.759097
525 15.7034
530 282.422
535 441.115
540 118.306
545 14.651
550 2.60301
555 1.13521
560 0.87295
565 0.729181
570 0.583747
575 0.584799
580 0.538258
585 0.531058
590 0.452733
595 0.483159
600 0.248065
Ex : 543
200 0.18767
205 0.311723
210 0.190022
215 0.335832
220 0.167207
225 0.151479
230 0.255563
235 0.318067
240 0.334339
245 0.221964
250 0.226835
255 0.173311
260 0.204841
265 0.237017
270 0.276595
275 0.194386
280 0.19069
285 0.228335
290 0.188287
295 0.169915
300 0.169612
305 0.125757
310 0.270538
315 0.305202
320 0.232691
325 0.228445
330 0.214985
335 0.254392
340 0.231116
345 0.249035
350 0.195816
355 0.221136
360 0.324172
365 0.196681
370 0.192332
375 0.275279
380 0.300391
385 0.234705
390 0.227633
395 0.29267
400 0.230562
405 0.175135
410 0.207035
415 0.206387
420 0.210125
425 0.262416
430 0.248206
435 0.214674
440 0.295396
445 0.261555
450 0.213375
455 0.220919
460 0.297697
465 0.324581
470 0.236199
475 0.237181
480 0.343082
485 0.249018
490 0.243773
495 0.323386
500 0.287019
505 0.432258
510 0.384526
515 0.434683
520 0.52025
525 0.669222
530 14.3173
535 265.149
540 434.913
545 119.015
550 14.7646
555 2.46272
560 1.00345
565 0.78706
570 0.627816
575 0.57852
580 0.562581
585 0.528788
590 0.477706
595 0.391223
600 0.274833
Ex : 548
200 0.282345
205 0.177091
210 0.184407
215 0.202081
220 0.168427
225 0.19096
230 0.173285
235 0.170125
240 0.250895
245 0.141116
250 0.337986
255 0.216527
260 0.258277
265 0.213836
270 0.21499
275 0.218931
280 0.212722
285 0.356316
290 0.283481
295 0.227025
300 0.198807
305 0.204495
310 0.224014
315 0.257033
320 0.263712
325 0.208048
330 0.205428
335 0.199247
340 0.174253
345 0.257363
350 0.232406
355 0.260007
360 0.173084
365 0.151742
370 0.186953
375 0.246942
380 0.336123
385 0.266077
390 0.177772
395 0.257149
400 0.327998
405 0.258907
410 0.399785
415 0.202265
420 0.335583
425 0.302357
430 0.210362
435 0.28819
440 0.240837
445 0.19749
450 0.303784
455 0.367238
460 0.300272
465 0.30197
470 0.273574
475 0.401903
480 0.225755
485 0.233203
490 0.347702
495 0.370987
500 0.303648
505 0.430372
510 0.384615
515 0.43926
520 0.339726
525 0.506862
530 0.756068
535 15.7508
540 267.884
545 421.743
550 115.389
555 14.2578
560 2.27745
565 0.962783
570 0.704073
575 0.53424
580 0.525205
585 0.449836
590 0.508858
595 0.376755
600 0.331283
Ex : 553
200 0.217241
205 0.228123
210 0.181272
215 0.186511
220 0.293932
225 0.256023
230 0.269288
235 0.198699
240 0.22184
245 0.202434
250 0.305777
255 0.174939
260 0.306733
265 0.192727
270 0.223085
275 0.244531
280 0.231596
285 0.314077
290 0.190926
295 0.223172
300 0.287851
305 0.217954
310 0.187713
315 0.190565
320 0.200853
325 0.246115
330 0.219839
335 0.226707
340 0.287094
345 0.27692
350 0.210168
355 0.415609
360 0.291938
365 0.24954
370 0.25449
375 0.27282
380 0.317253
385 0.300042
390 0.192655
395 0.281378
400 0.249393
405 0.192239
410 0.257803
415 0.28008
420 0.257714
425 0.221466
430 0.209596
435 0.224256
440 0.34007
445 0.253703
450 0.268884
455 0.281346
460 0.219011
465 0.309177
470 0.201993
475 0.246868
480 0.322294
485 0.240006
490 0.37489
495 0.302979
500 0.274457
505 0.263647
510 0.391514
515 0.285719
520 0.415463
525 0.476575
530 0.545228
535 0.819374
540 13.8181
545 252.125
550 412.65
555 116.134
560 14.2931
565 2.27012
570 0.695863
575 0.571536
580 0.483791
585 0.493408
590 0.363237
595 0.499659
600 0.233032
Ex : 558
200 0.237156
205 0.242037
210 0.219308
215 0.192004
220 0.24903
225 0.186028
230 0.179212
235 0.254849
240 0.225891
245 0.201829
250 0.186072
255 0.218505
260 0.208387
265 0.31351
270 0.245861
275 0.19055
280 0.192041
285 0.239886
290 0.260314
295 0.210573
300 0.182185
305 0.26045
310 0.185809
315 0.325009
320 0.255667
325 0.203806
330 0.244943
335 0.275873
340 0.187549
345 0.204065
350 0.264696
355 0.250109
360 0.170291
365 0.190966
370 0.19158
375 0.184684
380 0.323022
385 0.230015
390 0.192904
395 0.210924
400 0.242697
405 0.227238
410 0.267563
415 0.243408
420 0.272384
425 0.327812
430 0.316748
435 0.241591
440 0.216392
445 0.237203
450 0.255201
455 0.205461
460 0.2187
465 0.271849
470 0.26569
475 0.296783
480 0.297513
485 0.237314
490 0.246525
495 0.270517
500 0.272873
505 0.294404
510 0.313509
515 0.293186
520 0.331636
525 0.407101
530 0.426166
535 0.492391
540 0.632224
545 12.5416
550 232.701
555 399.103
560 112.251
565 13.7631
570 2.20498
575 0.819885
580 0.562116
585 0.428423
590 0.435892
595 0.357582
600 0.517235
Ex : 563
200 0.212994
205 0.236593
210 0.323785
215 0.163115
220 0.223134
225 0.218743
230 0.237586
235 0.300709
240 0.33976
245 0.332011
250 0.285205
255 0.32071
260 0.276908
265 0.226574
270 0.295075
275 0.197381
280 0.29128
285 0.219147
290 0.255661
295 0.285676
300 0.191283
305 0.15716
310 0.15871
315 0.220321
320 0.210521
325 0.157071
330 0.281106
335 0.191317
340 0.207808
345 0.244688
350 0.255788
355 0.204059
360 0.152386
365 0.177068
370 0.255296
375 0.25629
380 0.233979
385 0.239271
390 0.298593
395 0.265133
400 0.277259
405 0.362479
410 0.376055
415 0.262536
420 0.29918
425 0.27373
430 0.234565
435 0.346393
440 0.299288
445 0.257781
450 0.403491
455 0.357617
460 0.294072
465 0.376184
470 0.401227
475 0.265569
480 0.345791
485 0.251608
490 0.347775
495 0.273499
500 0.284382
505 0.290542
510 0.315229
515 0.40493
520 0.324061
525 0.430274
530 0.45339
535 0.451006
540 0.406707
545 0.655837
550 12.1221
555 223.982
560 378.447
565 109.535
570 13.2643
575 2.09167
580 0.569718
585 0.530492
590 0.543616
595 0.350136
600 0.056778
Ex : 568
200 0.168629
205 0.248028
210 0.168396
215 0.21533
220 0.191441
225 0.249935
230 0.265661
235 0.311893
240 0.270745
245 0.187455
250 0.326179
255 0.215427
260 0.281941
265 0.238623
270 0.35368
275 0.16962
280 0.244787
285 0.22479
290 0.236106
295 0.230524
300 0.27304
305 0.19091
310 0.242149
315 0.193798
320 0.223081
325 0.210263
330 0.301572
335 0.255834
340 0.248406
345 0.219494
350 0.165827
355 0.344803
360 0.312908
365 0.212764
370 0.331536
375 0.288445
380 0.320268
385 0.291325
390 0.24446
395 0.241759
400 0.297323
405 0.268924
410 0.210101
415 0.298816
420 0.227072
425 0.263534
430 0.237744
435 0.298104
440 0.319432
445 0.321945
450 0.322499
455 0.185821
460 0.255112
465 0.27926
470 0.32615
475 0.278013
480 0.378443
485 0.253612
490 0.395895
495 0.356976
500 0.297163
505 0.272961
510 0.258678
515 0.30708
520 0.281942
525 0.265037
530 0.408136
535 0.408009
540 0.460732
545 0.478467
550 0.648929
555 9.64271
560 204.994
565 366.053
570 111.365
575 13.7048
580 2.08138
585 0.727723
590 0.494004
595 0.442477
600 0.240253
Ex : 573
200 0.216124
205 0.222428
210 0.234325
215 0.322598
220 0.249266
225 0.503257
230 0.210639
235 0.279914
240 0.20837
245 0.204082
250 0.184352
255 0.222572
260 0.341767
265 0.323159
270 0.209329
275 0.224441
280 0.268994
285 0.29511
290 0.187975
295 0.227585
300 0.297218
305 0.218798
310 0.171803
315 0.269757
320 0.248465
325 0.297844
330 0.329197
335 0.207412
340 0.247722
345 0.212015
350 0.188463
355 0.292066
360 0.279114
365 0.198959
370 0.230139
375 0.297677
380 0.323108
385 0.434937
390 0.310007
395 0.282047
400 0.41113
405 0.253513
410 0.251016
415 0.272216
420 0.2118
425 0.263393
430 0.26179
435 0.313064
440 0.233376
445 0.386888
450 0.322647
455 0.308871
460 0.237656
465 0.290787
470 0.225906
475 0.278784
480 0.303789
485 0.267249
490 0.275403
495 0.377464
500 0.400076
505 0.28718
510 0.273951
515 0.252834
520 0.214642
525 0.410423
530 0.344647
535 0.312809
540 0.313194
545 0.352369
550 0.537413
555 0.640273
560 8.36272
565 175.513
570 337.278
575 105.703
580 13.008
585 1.99663
590 0.668646
595 0.41472
600 0.0893937
Ex : 578
200 0.253736
205 0.189395
210 0.191552
215 0.25893
220 0.220013
225 0.332893
230 0.338077
235 0.306874
240 0.220513
245 0.195643
250 0.243032
255 0.185167
260 0.257521
265 0.239887
270 0.142198
275 0.175657
280 0.269814
285 0.188716
290 0.288514
295 0.244343
300 0.280709
305 0.24455
310 0.250271
315 0.258572
320 0.273741
325 0.281167
330 0.277831
335 0.208173
340 0.270954
345 0.186235
350 0.344981
355 0.284276
360 0.249337
365 0.247881
370 0.255291
375 0.239896
380 0.374795
385 0.274131
390 0.276429
395 0.200222
400 0.371886
405 0.210387
410 0.250285
415 0.227098
420 0.258976
425 0.238331
430 0.252227
435 0.304755
440 0.342983
445 0.332647
450 0.223726
455 0.329343
460 0.303757
465 0.367042
470 0.267651
475 0.329931
480 0.207133
485 0.265833
490 0.244719
495 0.273933
500 0.420132
505 0.268322
510 0.380014
515 0.306867
520 0.299326
525 0.245922
530 0.412251
535 0.288985
540 0.295514
545 0.340586
550 0.400443
555 0.44328
560 0.639509
565 6.82263
570 156.649
575 291.635
580 88.6881
585 10.9644
590 1.60749
595 0.544297
600 0.280369
Ex : 583
200 0.190878
205 0.218232
210 0.257091
215 0.245642
220 0.265835
225 0.244019
230 0.275672
235 0.259711
240 0.377423
245 0.289854
250 0.22946
255 0.258681
260 0.287964
265 0.31928
270 0.301219
275 0.276165
280 0.263698
285 0.173618
290 0.219138
295 0.283515
300 0.164452
305 0.200031
310 0.262672
315 0.250945
320 0.323856
325 0.236684
330 0.305204
335 0.21942
340 0.246787
345 0.242295
350 0.369688
355 0.249573
360 0.284506
365 0.330206
370 0.274224
375 0.252068
380 0.191201
385 0.337184
390 0.247701
395 0.291308
400 0.312106
405 0.346783
410 0.313314
415 0.253553
420 0.43874
425 0.299913
430 0.394987
435 0.291835
440 0.259556
445 0.281654
450 0.325723
455 0.241009
460 0.23976
465 0.263503
470 0.18062
475 0.312856
480 0.248803
485 0.249333
490 0.24621
495 0.258422
500 0.256847
505 0.301284
510 0.355239
515 0.23001
520 0.215923
525 0.249552
530 0.279947
535 0.348239
540 0.349639
545 0.412161
550 0.341694
555 0.428905
560 0.431182
565 0.423577
570 6.14628
575 140.79
580 256.945
585 72.6718
590 9.11276
595 1.32351
600 0.15061
Ex : 588
200 0.180823
205 0.32216
210 0.292472
215 0.194597
220 0.27365
225 0.225657
230 0.233524
235 0.2716
240 0.204044
245 0.310903
250 0.176324
255 0.164992
260 0.238437
265 0.203774
270 0.207368
275 0.272531
280 0.303002
285 0.261337
290 0.245234
295 0.178679
300 0.311035
305 0.223768
310 0.20479
315 0.227667
320 0.229296
325 0.178718
330 0.217767
335 0.18849
340 0.219314
345 0.216646
350 0.300138
355 0.365931
360 0.350761
365 0.258673
370 0.287616
375 0.299334
380 0.280082
385 0.322132
390 0.34128
395 0.250403
400 0.197596
405 0.373451
410 0.370267
415 0.231273
420 0.280624
425 0.376079
430 0.260934
435 0.265868
440 0.341107
445 0.264482
450 0.331918
455 0.306623
460 0.26357
465 0.256478
470 0.371655
475 0.255152
480 0.264756
485 0.25661
490 0.333913
495 0.402636
500 0.246626
505 0.287866
510 0.329626
515 0.227681
520 0.283433
525 0.325924
530 0.432897
535 0.329571
540 0.257481
545 0.332421
550 0.331815
555 0.612973
560 0.469452
565 0.457226
570 0.509324
575 5.39623
580 116.644
585 220.029
590 64.4009
595 8.0197
600 1.73317
Ex : 593
200 0.322907
205 0.227658
210 0.292048
215 0.315625
220 0.215745
225 0.143873
230 0.330965
235 0.37549
240 0.287046
245 0.281833
250 0.270753
255 0.241906
260 0.281202
265 0.284707
270 0.26091
275 0.264452
280 0.30445
285 0.184936
290 0.218363
295 0.228113
300 0.279254
305 0.229793
310 0.233577
315 0.296947
320 0.245713
325 0.270132
330 0.228433
335 0.257537
340 0.250445
345 0.30152
350 0.237537
355 0.273828
360 0.423552
365 0.228575
370 0.291477
375 0.348731
380 0.380974
385 0.299335
390 0.27279
395 0.208613
400 0.287174
405 0.265406
410 0.258342
415 0.324854
420 0.292748
425 0.423039
430 0.286235
435 0.2396
440 0.308736
445 0.292248
450 0.286411
455 0.281574
460 0.463998
465 0.214334
470 0.292612
475 0.253986
480 0.232423
485 0.31635
490 0.387428
495 0.4321
500 0.413183
505 0.333384
510 0.505794
515 0.353287
520 0.369468
525 0.338656
530 0.319258
535 0.378302
540 0.270704
545 0.274317
550 0.349158
555 0.35358
560 0.367315
565 0.390696
570 0.374853
575 0.544927
580 5.03743
585 100.286
590 184.5
595 54.2781
600 8.1263
Ex : 598
200 0.250097
205 0.230712
210 0.24445
215 0.186031
220 0.243625
225 0.275944
230 0.303691
235 0.298832
240 0.301924
245 0.266898
250 0.200516
255 0.246821
260 0.256017
265 0.271029
270 0.270413
275 0.185075
280 0.239426
285 0.220417
290 0.232953
295 0.289401
300 0.303294
305 0.32461
310 0.34463
315 0.302197
320 0.278438
325 0.29544
330 0.322414
335 0.320687
340 0.254508
345 0.2393
350 0.155453
355 0.364398
360 0.253805
365 0.289672
370 0.383151
375 0.260916
380 0.351303
385 0.294161
390 0.298596
395 0.273433
400 0.275478
405 0.201106
410 0.323273
415 0.340648
420 0.250552
425 0.348008
430 0.337447
435 0.256025
440 0.342378
445 0.291818
450 0.3143
455 0.341014
460 0.273211
465 0.409661
470 0.321587
475 0.25037
480 0.298033
485 0.331562
490 0.381033
495 0.416562
500 0.433181
505 0.364711
510 0.29577
515 0.242328
520 0.254936
525 0.358369
530 0.266028
535 0.277774
540 0.251956
545 0.271616
550 0.35182
555 0.320702
560 0.47977
565 0.424623
570 0.341256
575 0.282553
580 0.429917
585 4.21837
590 89.7994
595 161.757
600 101.682
Ex : 603
200 0.212749
205 0.234841
210 0.472439
215 0.238313
220 0.197915
225 0.323477
230 0.242073
235 0.276489
240 0.296876
245 0.369948
250 0.231936
255 0.238975
260 0.363477
265 0.34581
270 0.365839
275 0.40164
280 0.26051
285 0.232154
290 0.213035
295 0.228037
300 0.238969
305 0.460537
310 0.220354
315 0.225128
320 0.328657
325 0.394535
330 0.341566
335 0.279089
340 0.281308
345 0.378476
350 0.386127
355 0.380924
360 0.37838
365 0.186041
370 0.225363
375 0.219192
380 0.290337
385 0.278075
390 0.155565
395 0.28804
400 0.23422
405 0.234251
410 0.302301
415 0.341315
420 0.257519
425 0.237357
430 0.260784
435 0.244492
440 0.2315
445 0.271594
450 0.255545
455 0.298007
460 0.294655
465 0.286732
470 0.257199
475 0.317887
480 0.331755
485 0.23345
490 0.300402
495 0.288082
500 0.218765
505 0.312933
510 0.361655
515 0.305477
520 0.419433
525 0.257275
530 0.297439
535 0.357436
540 0.246107
545 0.358848
550 0.324765
555 0.406239
560 0.421757
565 0.384332
570 0.378007
575 0.389861
580 0.299858
585 0.441669
590 4.09997
595 77.4557
600 155.308
