File format V 1.0
ven. 13. janv. 19:01:18 2017
Operator : 
Comments : 

=============================================
SpectroFluorometer parameters
Mode : 3D measurement
Data : Fluorescence
Phospho. : Ordinary
Spectrum : Fluorescence

Scan speed : 2400 nm/mn
Response : 100 ms
PM Voltage : 700 V
Shutter : On

Lambda Ex. Start : 203
Lambda Ex. End : 603
Lambda Ex. Step : 5
Ex. Slit : 5 nm

Lambda Em. Start : 200
Lambda Em. End : 600
Lambda Em. Step : 5
Em. Slit : 5 nm

Repetition : 1
Decal lambda em : 10
=============================================
DATA
Ex : 203
200 3.51327
205 5.85587
210 7.77373
215 7.16624
220 3.90342
225 4.21252
230 7.8462
235 6.48861
240 4.83855
245 5.80513
250 8.96773
255 9.33749
260 5.58643
265 5.10383
270 4.02491
275 7.45221
280 11.5166
285 7.54154
290 6.7633
295 4.86992
300 4.40401
305 6.10337
310 5.88094
315 5.20065
320 4.29849
325 5.93853
330 5.66221
335 5.89694
340 5.38367
345 7.51921
350 7.93281
355 5.21779
360 5.66135
365 5.93248
370 7.25773
375 4.53636
380 6.23892
385 6.01894
390 5.49984
395 10.9041
400 5.57768
405 4.36289
410 5.0032
415 4.45157
420 4.76823
425 5.1992
430 5.92567
435 5.27673
440 6.05062
445 6.84034
450 4.64124
455 5.12068
460 8.15955
465 7.45185
470 5.96071
475 8.47939
480 7.92141
485 3.87924
490 5.99166
495 5.88774
500 8.31249
505 8.65549
510 10.5433
515 8.39759
520 5.89563
525 4.09216
530 5.78289
535 6.90219
540 7.3851
545 5.69909
550 6.53776
555 6.40491
560 4.49722
565 7.4443
570 5.56914
575 5.71664
580 5.07315
585 4.47058
590 4.75529
595 4.11535
600 17.897
Ex : 208
200 5.21053
205 3.75245
210 6.20204
215 8.6396
220 4.66049
225 5.38318
230 5.40388
235 8.41685
240 5.46166
245 5.7615
250 7.5324
255 5.99798
260 5.41029
265 7.93667
270 5.47052
275 4.32588
280 4.6022
285 4.64667
290 3.82098
295 8.63646
300 4.7449
305 6.59568
310 4.36072
315 7.61445
320 5.61728
325 5.5113
330 6.84356
335 4.16548
340 8.01097
345 11.6952
350 6.95692
355 6.97327
360 6.7672
365 6.53041
370 6.07863
375 6.41025
380 6.2758
385 9.5553
390 7.83166
395 5.30551
400 5.97814
405 6.36811
410 7.0113
415 5.27722
420 5.256
425 5.67439
430 5.81595
435 6.33354
440 3.81596
445 4.16743
450 7.005
455 7.0046
460 6.22358
465 4.05656
470 6.2597
475 8.94427
480 5.96687
485 3.58355
490 6.15999
495 5.55884
500 5.61424
505 6.06586
510 7.20728
515 8.67254
520 8.02944
525 7.54696
530 6.3361
535 5.26799
540 4.46168
545 6.9745
550 6.81053
555 6.07133
560 6.0736
565 5.84953
570 6.96755
575 5.13839
580 4.43484
585 4.41221
590 6.42955
595 7.90633
600 0.89971
Ex : 213
200 4.83856
205 5.23994
210 7.217
215 6.95774
220 6.55001
225 3.66733
230 4.34616
235 5.61182
240 5.60461
245 5.08961
250 5.43346
255 4.93619
260 4.7361
265 6.86653
270 7.32731
275 5.66802
280 6.69127
285 6.42238
290 4.53054
295 5.74689
300 3.98879
305 5.5872
310 7.07584
315 4.7062
320 4.24149
325 3.95931
330 8.23374
335 4.51386
340 5.70824
345 4.61482
350 5.34959
355 5.37838
360 4.5662
365 5.40628
370 5.44582
375 6.40683
380 6.1974
385 5.95491
390 7.8037
395 5.13248
400 7.32691
405 5.58102
410 7.7547
415 6.84637
420 4.92982
425 4.09425
430 5.80845
435 7.52906
440 5.12353
445 7.70125
450 5.93871
455 5.28406
460 6.27385
465 7.63591
470 6.44303
475 6.26704
480 5.88826
485 5.49306
490 5.83681
495 6.9065
500 5.65805
505 5.65267
510 5.98893
515 5.92656
520 7.63684
525 6.42872
530 5.40312
535 5.18434
540 6.47302
545 7.40346
550 7.48117
555 4.7431
560 9.11054
565 5.12756
570 9.92773
575 9.27916
580 6.42618
585 4.81269
590 6.48786
595 8.07183
600 8.30358
Ex : 218
200 6.41485
205 6.18735
210 5.86645
215 7.97567
220 6.43504
225 3.96529
230 5.43404
235 3.71203
240 6.82231
245 5.84406
250 5.63496
255 4.35447
260 4.72295
265 3.76823
270 5.67576
275 5.38366
280 4.57376
285 5.54508
290 7.38622
295 4.22943
300 5.7905
305 5.54076
310 6.8466
315 6.0842
320 5.92714
325 5.17303
330 7.10656
335 6.06088
340 8.39065
345 5.57832
350 7.24176
355 4.3053
360 3.88354
365 6.53901
370 5.97636
375 5.57511
380 8.21859
385 4.65559
390 6.22978
395 6.62392
400 6.00134
405 5.99159
410 7.6506
415 6.09881
420 6.05744
425 8.90569
430 5.70109
435 5.41851
440 5.03106
445 7.5384
450 4.92652
455 7.09182
460 7.03865
465 6.35586
470 6.96698
475 7.19318
480 7.02198
485 5.60146
490 5.52205
495 6.62257
500 5.4689
505 5.86372
510 4.84629
515 5.37864
520 5.17199
525 4.94917
530 5.37151
535 5.68231
540 4.15291
545 5.36685
550 6.72316
555 5.4432
560 5.31084
565 8.76805
570 6.58379
575 3.88286
580 5.3327
585 6.69633
590 6.39662
595 7.40426
600 0.842577
Ex : 223
200 5.60944
205 5.56784
210 4.42413
215 4.88635
220 4.79058
225 5.65727
230 5.38538
235 4.38417
240 4.56266
245 5.817
250 4.82671
255 5.49655
260 4.17433
265 5.2794
270 5.12347
275 5.54337
280 5.06971
285 5.76646
290 6.20303
295 4.97293
300 5.91145
305 3.35118
310 6.01421
315 6.82329
320 5.58392
325 6.30949
330 5.53344
335 4.33527
340 8.71378
345 4.90227
350 7.27536
355 5.00907
360 7.46358
365 5.69032
370 5.24677
375 5.32486
380 3.94385
385 5.87729
390 4.90648
395 5.19057
400 9.36023
405 6.3948
410 6.57984
415 5.20362
420 6.11616
425 5.33452
430 7.0877
435 4.91384
440 7.45805
445 6.14988
450 5.31763
455 5.61606
460 6.52101
465 5.22692
470 4.97434
475 4.93204
480 8.74491
485 7.48763
490 5.73214
495 5.32465
500 7.28439
505 5.96892
510 5.03936
515 4.44374
520 5.49993
525 7.97823
530 7.68358
535 6.91263
540 8.97122
545 6.67426
550 6.16455
555 4.6663
560 6.77151
565 4.72655
570 5.91925
575 5.36136
580 5.45523
585 5.32669
590 6.80958
595 5.02709
600 3.82148
Ex : 228
200 2.92405
205 6.19653
210 4.52
215 4.37866
220 4.7482
225 4.59375
230 4.09866
235 4.74082
240 5.86847
245 3.7107
250 6.49637
255 5.3889
260 3.98002
265 5.55216
270 4.92291
275 5.18904
280 7.44846
285 5.96238
290 6.54228
295 5.91789
300 5.57865
305 4.68444
310 2.97196
315 5.57852
320 4.89098
325 5.81447
330 7.30819
335 4.53657
340 7.50229
345 5.74117
350 4.60806
355 5.83783
360 6.93501
365 5.66684
370 7.08486
375 4.99213
380 5.70966
385 3.98649
390 4.07732
395 4.75924
400 5.46408
405 6.68423
410 6.73956
415 5.64298
420 7.49498
425 4.87744
430 5.15291
435 7.03748
440 5.80618
445 5.53296
450 3.65095
455 7.82596
460 5.33629
465 5.05409
470 5.20883
475 7.43193
480 6.97973
485 6.08039
490 7.17479
495 7.17516
500 7.29105
505 5.08422
510 6.24734
515 5.65264
520 5.87063
525 4.20548
530 2.92271
535 5.60417
540 5.47264
545 5.24449
550 7.01507
555 6.10348
560 7.48755
565 5.90753
570 4.31846
575 6.69867
580 3.9053
585 2.98793
590 4.42927
595 6.86752
600 0.781498
Ex : 233
200 5.03543
205 6.08194
210 4.83137
215 5.82325
220 4.9784
225 4.1567
230 3.22318
235 4.96766
240 4.99272
245 3.8411
250 5.37401
255 3.48024
260 4.95203
265 5.38507
270 2.9198
275 6.51399
280 6.13648
285 4.24312
290 5.8146
295 6.17503
300 3.43853
305 5.91725
310 6.08699
315 6.12437
320 4.03472
325 3.96464
330 4.90328
335 5.95147
340 5.46724
345 5.90933
350 6.18169
355 5.95583
360 5.80123
365 4.72163
370 7.46947
375 6.59756
380 5.29949
385 4.92056
390 4.91006
395 3.52624
400 5.11662
405 3.73818
410 6.45158
415 5.16518
420 6.16393
425 6.2164
430 7.81199
435 6.42234
440 6.0985
445 7.20722
450 6.78678
455 5.2748
460 6.0861
465 6.48532
470 4.80745
475 3.38968
480 6.71526
485 4.89045
490 4.78274
495 4.65579
500 3.95214
505 5.26428
510 3.39602
515 8.37664
520 6.70992
525 5.66698
530 4.6385
535 3.72187
540 5.86736
545 5.2428
550 7.34297
555 5.44316
560 5.30906
565 4.81077
570 3.26489
575 5.06387
580 3.30105
585 5.59882
590 3.19252
595 5.46535
600 0.621936
Ex : 238
200 5.16236
205 5.86393
210 3.54053
215 3.59131
220 3.92733
225 6.92253
230 5.51203
235 5.06822
240 4.3816
245 3.34103
250 4.88252
255 3.21754
260 5.4351
265 5.0827
270 3.81004
275 4.27895
280 4.50395
285 5.51372
290 4.09169
295 6.31595
300 4.2218
305 3.77296
310 4.77175
315 4.25902
320 4.13415
325 3.994
330 4.82174
335 5.16237
340 4.10775
345 4.87221
350 5.2841
355 5.00165
360 4.92689
365 4.00663
370 5.41109
375 6.03744
380 4.50921
385 6.10792
390 5.27378
395 5.16823
400 4.70435
405 6.53692
410 3.33764
415 7.20428
420 5.60792
425 3.5684
430 7.23287
435 4.15641
440 3.70924
445 4.84643
450 5.42563
455 5.19721
460 4.833
465 5.06571
470 3.75256
475 4.13297
480 7.01199
485 4.67854
490 6.15963
495 5.01958
500 4.39116
505 6.12355
510 4.4273
515 6.90262
520 6.8816
525 7.0738
530 5.02436
535 4.70737
540 3.27092
545 6.59871
550 5.58919
555 4.4862
560 4.80572
565 5.52968
570 4.08706
575 4.51298
580 4.77941
585 6.10192
590 4.27933
595 4.89551
600 0.557091
Ex : 243
200 3.23547
205 3.9011
210 4.81845
215 4.00217
220 5.642
225 4.02757
230 4.77671
235 3.46382
240 4.68044
245 5.30732
250 5.06736
255 5.30404
260 5.1087
265 3.66367
270 3.1327
275 3.90727
280 5.84931
285 3.64199
290 4.91002
295 4.3147
300 3.60986
305 4.59795
310 2.95066
315 4.25176
320 2.68917
325 5.02528
330 4.06356
335 5.65948
340 4.92389
345 3.97262
350 5.49165
355 4.95324
360 3.86401
365 5.90982
370 5.35923
375 4.43089
380 5.1026
385 6.57336
390 3.47272
395 5.01355
400 3.81701
405 2.71952
410 2.79832
415 6.34227
420 5.11582
425 4.72262
430 3.95225
435 3.36032
440 5.04154
445 3.74878
450 4.27255
455 6.59311
460 3.79495
465 6.10873
470 4.87767
475 6.1842
480 3.76492
485 4.00511
490 3.58955
495 4.04163
500 5.29772
505 3.85901
510 4.48498
515 3.56734
520 5.00368
525 3.88086
530 5.26128
535 5.51805
540 4.5076
545 6.64252
550 6.48932
555 4.29824
560 4.44549
565 3.81362
570 3.28589
575 3.59756
580 4.25352
585 4.2504
590 2.59693
595 3.87219
600 9.80908
Ex : 248
200 2.76454
205 4.05129
210 4.30894
215 4.66852
220 3.72566
225 3.19237
230 3.7091
235 2.75379
240 3.22155
245 3.24305
250 2.83776
255 3.13749
260 3.8803
265 2.43303
270 3.4019
275 3.12584
280 3.32878
285 5.54145
290 4.29442
295 3.47002
300 2.84151
305 2.98681
310 4.15228
315 3.32694
320 2.19632
325 3.16031
330 2.94987
335 4.27802
340 2.95846
345 6.29701
350 4.67966
355 4.32762
360 3.98635
365 4.85383
370 5.22322
375 4.15963
380 7.08503
385 4.91947
390 3.77613
395 6.06827
400 3.92986
405 4.0194
410 6.69103
415 5.32916
420 4.24585
425 4.12247
430 2.81871
435 3.3117
440 4.33313
445 5.78759
450 4.42758
455 4.23051
460 5.01062
465 4.03467
470 4.7877
475 4.78631
480 4.1203
485 4.16605
490 4.61381
495 3.93705
500 5.57841
505 4.00393
510 3.35736
515 3.23703
520 3.05872
525 5.26341
530 4.40309
535 2.38708
540 3.89883
545 5.14777
550 3.86813
555 4.43946
560 4.65009
565 3.11138
570 3.45453
575 2.89683
580 3.06488
585 3.84733
590 4.12391
595 3.08868
600 0.35148
Ex : 253
200 2.78795
205 3.23179
210 3.064
215 2.65586
220 3.57223
225 2.56174
230 3.71598
235 2.46285
240 1.69131
245 3.23146
250 1.87449
255 3.0214
260 3.07125
265 3.45757
270 2.92734
275 4.36503
280 2.61736
285 2.68693
290 3.32189
295 2.72447
300 1.52161
305 2.81245
310 2.95556
315 2.64624
320 2.15079
325 2.56087
330 3.60403
335 3.17535
340 3.89725
345 3.46996
350 2.31816
355 3.07153
360 3.02164
365 2.71423
370 2.63707
375 4.66278
380 2.98882
385 2.92289
390 3.12149
395 2.58024
400 3.21489
405 4.18268
410 3.99678
415 4.10004
420 2.89669
425 3.88497
430 4.42247
435 3.58233
440 2.41964
445 2.25307
450 2.78207
455 4.09829
460 5.08866
465 4.62066
470 2.17415
475 2.9165
480 2.52711
485 3.46937
490 2.53237
495 4.47979
500 4.3528
505 3.79961
510 3.96855
515 4.05059
520 2.00367
525 4.17584
530 3.22777
535 3.4605
540 3.0524
545 3.08321
550 3.84749
555 2.59215
560 3.4395
565 2.73549
570 2.93646
575 2.56576
580 2.88775
585 2.722
590 2.48536
595 2.33217
600 6.46882
Ex : 258
200 2.29672
205 2.31092
210 2.06973
215 1.75575
220 1.85881
225 2.46217
230 2.93011
235 2.06849
240 2.0229
245 1.99742
250 2.27867
255 3.42104
260 1.58428
265 2.75691
270 2.77502
275 3.07905
280 2.79915
285 2.5045
290 2.61346
295 1.21605
300 2.05072
305 2.59251
310 2.06916
315 2.59926
320 2.09376
325 2.1896
330 3.25319
335 2.82151
340 3.05668
345 2.87985
350 3.12319
355 2.6167
360 3.13531
365 4.40606
370 3.03048
375 2.47888
380 3.83552
385 2.38292
390 2.95875
395 2.82319
400 2.91184
405 3.1779
410 2.33598
415 3.77949
420 4.52812
425 2.9666
430 3.90477
435 3.72228
440 3.25943
445 2.92226
450 2.89483
455 2.55527
460 4.11221
465 2.69361
470 3.26634
475 3.49646
480 1.97671
485 2.12395
490 1.50211
495 3.90151
500 2.46959
505 3.02652
510 2.72735
515 2.9207
520 3.09002
525 2.11006
530 2.08349
535 3.10341
540 2.35545
545 2.42481
550 2.48345
555 2.53233
560 3.58423
565 2.39734
570 2.34687
575 1.3978
580 2.65402
585 1.94562
590 3.31162
595 3.44679
600 6.81721
Ex : 263
200 1.94745
205 1.91458
210 1.57599
215 1.99414
220 2.52616
225 1.84312
230 2.18104
235 1.9413
240 2.90654
245 2.0906
250 2.74353
255 2.75098
260 1.38699
265 1.62757
270 1.68755
275 1.22708
280 1.74141
285 1.17313
290 2.22656
295 1.66031
300 2.96571
305 1.50441
310 2.35579
315 2.59558
320 1.98897
325 1.89077
330 1.43251
335 1.46871
340 2.62251
345 2.49717
350 2.19593
355 2.15298
360 2.04528
365 2.23486
370 2.22987
375 1.82281
380 1.8148
385 2.7399
390 1.69871
395 2.49607
400 3.33911
405 1.94971
410 3.46518
415 3.17091
420 2.78757
425 1.72268
430 2.31789
435 3.24563
440 2.22675
445 2.11967
450 1.91732
455 2.49118
460 2.39498
465 2.76889
470 2.27634
475 2.86896
480 2.13196
485 2.0852
490 2.53557
495 2.35954
500 1.59645
505 3.0208
510 2.03826
515 2.53147
520 2.06876
525 1.92776
530 2.07618
535 1.62156
540 1.87485
545 1.86275
550 1.7417
555 1.6153
560 1.68563
565 2.147
570 2.19644
575 3.20079
580 2.36297
585 2.1647
590 2.60954
595 1.55117
600 3.48501
Ex : 268
200 1.80148
205 1.39574
210 1.55921
215 1.5805
220 1.73614
225 1.58343
230 1.69485
235 2.69975
240 1.59162
245 1.1223
250 1.70015
255 1.30286
260 1.53902
265 1.34802
270 1.69714
275 1.1475
280 1.14214
285 1.11059
290 1.00155
295 1.64358
300 0.794624
305 1.15518
310 1.3614
315 1.93499
320 1.71992
325 1.79349
330 0.900317
335 1.59972
340 2.32532
345 1.45283
350 1.43911
355 1.48369
360 1.41787
365 1.4096
370 2.08684
375 1.94314
380 1.44158
385 1.97584
390 1.6252
395 1.67846
400 1.82429
405 1.75407
410 2.17836
415 2.06182
420 1.50095
425 2.10434
430 2.07074
435 2.14163
440 2.00531
445 1.79817
450 1.94367
455 1.71206
460 1.97493
465 1.97437
470 2.33391
475 1.83534
480 1.67148
485 2.49017
490 1.94896
495 2.65746
500 1.7368
505 1.83346
510 1.38259
515 1.61606
520 1.64929
525 1.80703
530 2.11251
535 2.17109
540 2.09653
545 2.32306
550 1.93042
555 1.33336
560 1.16077
565 1.94298
570 2.2503
575 1.56645
580 1.31195
585 2.2135
590 1.43349
595 1.89476
600 0.961894
Ex : 273
200 1.64173
205 0.939783
210 1.21602
215 1.31585
220 1.72335
225 1.23325
230 1.54961
235 1.02621
240 1.01022
245 1.20127
250 1.86042
255 1.25006
260 1.02395
265 1.14776
270 1.45587
275 1.19943
280 1.05
285 0.827734
290 1.48947
295 0.712596
300 1.41842
305 1.89912
310 1.20599
315 1.88908
320 1.18149
325 0.879929
330 1.22907
335 0.838483
340 1.48662
345 1.68429
350 1.50585
355 1.38723
360 2.39801
365 1.16261
370 1.56788
375 2.24832
380 1.45053
385 1.64029
390 1.48073
395 1.40777
400 1.84922
405 1.68833
410 1.28102
415 1.6001
420 1.61187
425 1.56256
430 1.98168
435 0.903924
440 1.36286
445 2.0042
450 1.91662
455 1.69187
460 1.50615
465 1.60221
470 2.07301
475 1.72658
480 1.04345
485 2.09914
490 1.43561
495 1.18344
500 1.06523
505 1.20543
510 0.958448
515 1.22519
520 1.56621
525 1.40813
530 1.52655
535 1.61302
540 1.56102
545 1.55165
550 1.75026
555 1.14778
560 1.34793
565 2.26807
570 1.31408
575 1.15188
580 1.07548
585 1.2633
590 1.50954
595 0.921302
600 0.104841
Ex : 278
200 0.971074
205 0.904
210 1.17803
215 0.760083
220 1.10497
225 0.968805
230 0.960051
235 1.07978
240 0.852003
245 0.909369
250 1.27383
255 0.967912
260 1.20742
265 1.28645
270 1.08024
275 1.38492
280 1.32508
285 1.45163
290 1.39703
295 0.998919
300 0.875896
305 0.838908
310 0.626016
315 1.28704
320 0.974995
325 1.67364
330 1.44308
335 1.02049
340 0.962319
345 1.52272
350 1.26961
355 1.05271
360 1.15505
365 1.02575
370 1.48123
375 1.26812
380 1.33831
385 1.19294
390 1.73472
395 1.29174
400 1.0469
405 1.5306
410 1.19525
415 1.48949
420 1.11576
425 1.30152
430 1.24697
435 1.21161
440 1.03733
445 1.19706
450 1.20113
455 1.14075
460 1.22126
465 1.34552
470 1.45093
475 1.27924
480 1.45406
485 1.0306
490 1.24823
495 1.50677
500 1.44935
505 1.32599
510 0.8528
515 1.27401
520 1.02971
525 0.961215
530 1.28368
535 1.09432
540 1.15637
545 1.00419
550 1.6841
555 1.68294
560 0.636069
565 1.00127
570 0.832186
575 1.2296
580 1.26915
585 0.811777
590 0.801919
595 1.31135
600 0.237847
Ex : 283
200 0.950168
205 1.01063
210 0.632568
215 0.617812
220 0.582698
225 0.697228
230 0.71753
235 1.01488
240 0.938825
245 0.968908
250 0.812165
255 0.792847
260 0.855664
265 0.734731
270 0.647949
275 1.21507
280 1.32089
285 0.935727
290 0.820572
295 0.861822
300 0.80873
305 1.01924
310 0.880374
315 0.676735
320 0.565152
325 0.807115
330 0.841851
335 0.928904
340 0.73552
345 1.20449
350 0.931134
355 0.918313
360 0.848279
365 1.15412
370 1.18541
375 1.24676
380 1.27121
385 1.0134
390 1.22827
395 1.11772
400 1.4687
405 1.09245
410 1.42042
415 1.07714
420 1.39065
425 1.12197
430 1.60955
435 1.48075
440 1.03646
445 1.31696
450 1.40263
455 1.40822
460 1.51188
465 1.29335
470 1.13711
475 1.04358
480 1.2819
485 0.818126
490 1.0128
495 1.11586
500 0.837651
505 0.840858
510 0.814246
515 0.776842
520 1.28113
525 0.836881
530 1.01929
535 1.00708
540 0.650347
545 0.677328
550 0.917087
555 1.70268
560 1.34443
565 1.25725
570 0.955875
575 0.954227
580 1.0876
585 0.873396
590 0.780194
595 0.780977
600 0.204464
Ex : 288
200 0.623221
205 1.02064
210 0.71016
215 0.6449
220 0.638768
225 0.746897
230 0.553497
235 0.776943
240 1.08082
245 0.927472
250 0.651951
255 0.889456
260 0.775238
265 0.539184
270 0.823226
275 0.922939
280 0.806668
285 0.806888
290 0.673487
295 0.598959
300 0.602735
305 0.676372
310 0.679015
315 0.623804
320 0.550349
325 0.800102
330 0.919961
335 0.652348
340 1.03938
345 0.927997
350 0.782221
355 0.828195
360 0.953518
365 0.871367
370 0.917582
375 1.0734
380 0.975037
385 1.26333
390 1.50853
395 1.07056
400 1.13166
405 1.71147
410 1.25098
415 1.15835
420 1.82816
425 1.07849
430 1.45684
435 1.34893
440 1.02793
445 1.05809
450 1.2884
455 0.997676
460 1.04466
465 1.34037
470 0.968327
475 1.10426
480 0.943774
485 1.24745
490 1.03272
495 0.806564
500 1.00644
505 1.0406
510 0.771972
515 1.42833
520 0.856269
525 0.80671
530 0.911908
535 0.652838
540 0.775805
545 0.597152
550 1.07915
555 0.657975
560 0.53961
565 0.855775
570 1.37616
575 1.56952
580 0.805952
585 0.632354
590 0.592655
595 0.650417
600 0.074015
Ex : 293
200 0.925962
205 0.62018
210 0.571075
215 0.71635
220 0.473056
225 0.546554
230 0.497137
235 0.812759
240 0.594122
245 0.497191
250 0.40922
255 0.823894
260 0.67748
265 0.926355
270 0.612745
275 0.969106
280 0.563473
285 0.669025
290 0.869513
295 0.781145
300 0.513203
305 0.445979
310 0.675666
315 0.632636
320 0.580313
325 0.57182
330 0.862829
335 0.837487
340 0.719555
345 0.83405
350 0.99698
355 1.01489
360 0.999102
365 0.80354
370 0.857466
375 1.09785
380 1.18126
385 0.875333
390 1.0933
395 1.12797
400 1.15518
405 0.913477
410 1.23149
415 1.40602
420 1.33652
425 1.44906
430 1.09412
435 1.1034
440 1.30978
445 1.12838
450 0.922387
455 0.768104
460 1.20303
465 0.861778
470 0.926969
475 0.661337
480 0.987463
485 0.784092
490 0.842784
495 0.806975
500 0.904842
505 0.864945
510 0.78921
515 0.691444
520 0.761013
525 0.73127
530 0.48398
535 0.780906
540 0.695883
545 0.526819
550 0.837223
555 0.816784
560 1.08515
565 0.699715
570 0.848692
575 0.856181
580 1.53486
585 1.66822
590 0.735429
595 0.419187
600 0.189494
Ex : 298
200 0.733703
205 0.546513
210 0.474954
215 0.345408
220 0.739535
225 0.510875
230 0.601268
235 0.342777
240 0.3426
245 0.387421
250 0.388701
255 0.496786
260 0.592368
265 0.460398
270 0.611364
275 0.798941
280 0.505455
285 0.527889
290 0.598124
295 0.608368
300 0.601556
305 0.399556
310 0.697943
315 0.492478
320 0.631618
325 0.515166
330 0.556402
335 0.457476
340 0.699129
345 0.616375
350 0.576598
355 0.769264
360 1.00652
365 1.09648
370 0.72942
375 0.812179
380 0.842433
385 0.763636
390 0.672488
395 0.798856
400 1.11468
405 1.13205
410 1.00367
415 0.953875
420 0.920175
425 1.14784
430 0.908425
435 1.1004
440 1.2308
445 1.12749
450 1.00808
455 1.13318
460 0.862454
465 1.1161
470 1.10266
475 0.789752
480 1.00237
485 0.851872
490 0.743547
495 0.736611
500 0.64715
505 0.633791
510 0.584471
515 0.728595
520 0.656938
525 0.631832
530 0.490343
535 0.392917
540 0.711343
545 0.515489
550 0.792965
555 0.660909
560 0.761143
565 0.354758
570 0.552197
575 0.708382
580 0.546084
585 0.808162
590 0.814353
595 0.894275
600 0.101765
Ex : 303
200 0.601996
205 0.559496
210 0.453651
215 0.471316
220 0.335623
225 0.402829
230 0.339809
235 0.530124
240 0.453677
245 0.510437
250 0.553385
255 0.342179
260 0.454737
265 0.456737
270 0.367392
275 0.396749
280 0.448599
285 0.37178
290 0.232611
295 0.46362
300 0.561456
305 0.509165
310 0.357531
315 0.312832
320 0.406351
325 0.554578
330 0.666573
335 0.4918
340 0.510898
345 0.749444
350 0.715327
355 0.736222
360 0.788714
365 0.818769
370 0.752781
375 0.952963
380 1.02297
385 0.950676
390 0.900807
395 0.854399
400 0.955553
405 0.877573
410 1.39501
415 0.999294
420 0.937469
425 1.33721
430 1.09563
435 0.996764
440 1.26117
445 0.930326
450 1.02398
455 0.739967
460 0.742933
465 0.725675
470 0.817996
475 1.10612
480 0.748094
485 0.694313
490 0.696528
495 0.661917
500 0.750448
505 0.500252
510 0.567676
515 0.543149
520 0.66448
525 0.414351
530 0.595137
535 0.497895
540 0.858322
545 0.692099
550 0.51788
555 0.467311
560 0.421228
565 0.673471
570 0.559692
575 0.609529
580 0.51477
585 0.344494
590 0.695722
595 0.862535
600 0.703022
Ex : 308
200 0.261305
205 0.360283
210 0.321969
215 0.382808
220 0.411513
225 0.362955
230 0.323119
235 0.456353
240 0.455897
245 0.315432
250 0.429314
255 0.346281
260 0.42592
265 0.440107
270 0.298918
275 0.391856
280 0.313499
285 0.449989
290 0.39827
295 0.56867
300 0.592658
305 0.508074
310 0.386338
315 0.285523
320 0.293225
325 0.602367
330 0.439732
335 0.511905
340 0.448299
345 0.478675
350 0.635952
355 0.477375
360 0.707073
365 0.808021
370 0.649443
375 0.97197
380 1.17653
385 0.82473
390 1.00299
395 0.964045
400 0.819655
405 0.812503
410 1.00797
415 1.07024
420 1.03712
425 1.0016
430 0.843112
435 0.861235
440 0.803316
445 0.776819
450 1.03736
455 0.914964
460 0.762714
465 0.850181
470 0.694338
475 0.731398
480 1.03676
485 0.567724
490 0.663181
495 0.790802
500 0.781965
505 0.636286
510 0.397987
515 0.611105
520 0.668477
525 0.458235
530 0.635311
535 0.448314
540 0.511223
545 0.566667
550 0.469623
555 0.516188
560 0.465328
565 0.442649
570 0.436323
575 0.525856
580 0.270732
585 0.289631
590 0.296119
595 0.344102
600 0.528902
Ex : 313
200 0.327058
205 0.336099
210 0.354949
215 0.260267
220 0.27452
225 0.325962
230 0.390101
235 0.317188
240 0.290651
245 0.35175
250 0.186925
255 0.375652
260 0.474664
265 0.279273
270 0.310675
275 0.371076
280 0.308341
285 0.476027
290 0.253547
295 0.575785
300 0.184981
305 0.559584
310 0.594742
315 0.330486
320 0.33318
325 0.384224
330 0.396981
335 0.613952
340 0.517658
345 0.629049
350 0.634159
355 0.597823
360 0.78383
365 0.870137
370 0.960754
375 1.05682
380 1.1872
385 1.57909
390 1.38973
395 1.44132
400 1.48827
405 1.85363
410 1.99332
415 1.69098
420 1.82218
425 1.78565
430 1.48367
435 1.57646
440 1.3918
445 1.434
450 1.48031
455 1.43753
460 1.25754
465 0.915457
470 0.962765
475 1.22024
480 1.17977
485 0.945226
490 0.985863
495 1.00857
500 1.05448
505 0.895647
510 0.662654
515 0.541101
520 0.543823
525 0.530947
530 0.482046
535 0.457326
540 0.429347
545 0.566706
550 0.552514
555 0.382667
560 0.448828
565 0.454665
570 0.595917
575 0.429888
580 0.350774
585 0.538166
590 0.49705
595 0.265936
600 0.172688
Ex : 318
200 0.266343
205 0.438312
210 0.416779
215 0.414133
220 0.331049
225 0.480091
230 0.279336
235 0.236384
240 0.317227
245 0.313309
250 0.450662
255 0.237913
260 0.374511
265 0.27168
270 0.358768
275 0.29117
280 0.35651
285 0.312848
290 0.241503
295 0.364563
300 0.33742
305 0.332198
310 0.705591
315 0.95399
320 0.666141
325 0.494194
330 0.679965
335 1.27335
340 1.22548
345 1.97715
350 2.89388
355 3.7589
360 4.087
365 4.99989
370 6.22072
375 7.59484
380 8.46957
385 9.41189
390 9.68706
395 10.6118
400 11.2306
405 12.0053
410 12.0912
415 11.913
420 11.3716
425 11.3748
430 11.3625
435 10.7943
440 10.3702
445 10.369
450 9.50332
455 9.10467
460 8.1817
465 7.64864
470 7.10577
475 6.75276
480 5.72669
485 5.07973
490 4.69406
495 4.25654
500 3.70685
505 3.10734
510 2.932
515 2.33028
520 1.96891
525 1.91261
530 1.72265
535 1.42979
540 1.35934
545 1.13343
550 0.975119
555 0.80097
560 1.01206
565 0.750805
570 0.662098
575 0.645389
580 0.502939
585 0.567911
590 0.320104
595 0.396646
600 0.0451368
Ex : 323
200 0.333029
205 0.455138
210 0.316824
215 0.342691
220 0.176937
225 0.253015
230 0.233222
235 0.397509
240 0.322719
245 0.442723
250 0.260597
255 0.227901
260 0.36611
265 0.243007
270 0.273562
275 0.326464
280 0.291224
285 0.206262
290 0.241667
295 0.325606
300 0.308041
305 0.381962
310 0.477887
315 3.78572
320 16.41
325 7.64118
330 2.66249
335 3.17583
340 4.78533
345 6.20245
350 9.70433
355 13.0032
360 16.728
365 18.8102
370 22.6105
375 25.9499
380 29.5663
385 32.3773
390 35.4044
395 37.5674
400 39.1936
405 41.5278
410 41.4576
415 41.1821
420 40.6838
425 39.376
430 38.6022
435 37.7188
440 35.7641
445 33.934
450 33.0296
455 31.1352
460 29.3211
465 26.4638
470 24.3305
475 22.1791
480 20.1868
485 18.0751
490 16.1701
495 14.5403
500 13.1838
505 11.617
510 10.0372
515 8.43071
520 7.71656
525 6.54658
530 5.75962
535 4.80168
540 4.69704
545 3.68437
550 3.22271
555 3.16917
560 2.57625
565 2.11353
570 1.56951
575 1.21288
580 1.00231
585 0.934625
590 0.879133
595 0.664931
600 0.619093
Ex : 328
200 0.195272
205 0.207061
210 0.227288
215 0.250306
220 0.263816
225 0.25596
230 0.366693
235 0.309075
240 0.376288
245 0.261377
250 0.285754
255 0.302048
260 0.330261
265 0.205472
270 0.195001
275 0.182617
280 0.392106
285 0.286615
290 0.310312
295 0.208379
300 0.260843
305 0.292806
310 0.379718
315 1.25482
320 36.1845
325 89.1346
330 29.9298
335 7.19712
340 6.41959
345 7.49653
350 9.67495
355 13.9895
360 18.8115
365 21.9547
370 24.4636
375 28.394
380 31.7042
385 34.3034
390 36.2174
395 39.7643
400 40.8895
405 41.6771
410 42.4763
415 42.1678
420 41.8683
425 41.5965
430 39.7681
435 40.5209
440 38.0498
445 35.9155
450 34.1548
455 32.2702
460 30.7956
465 28.7259
470 26.2775
475 24.0122
480 22.1179
485 20.254
490 18.3674
495 16.3647
500 14.7718
505 13.3158
510 11.5883
515 10.3134
520 9.37696
525 8.09114
530 7.17644
535 5.66001
540 5.24627
545 4.36264
550 4.24556
555 3.43105
560 2.99028
565 2.50142
570 2.26321
575 1.59102
580 1.33963
585 1.13874
590 1.09446
595 0.80689
600 1.30653
Ex : 333
200 0.29158
205 0.160144
210 0.208627
215 0.205548
220 0.282323
225 0.216985
230 0.271522
235 0.310672
240 0.272066
245 0.277511
250 0.24092
255 0.329328
260 0.193519
265 0.36637
270 0.232143
275 0.205372
280 0.225252
285 0.20615
290 0.255266
295 0.250012
300 0.288049
305 0.299649
310 0.295357
315 0.334135
320 6.55505
325 113.935
330 199.285
335 56.3329
340 10.1918
345 6.31916
350 6.39241
355 7.54943
360 10.7904
365 15.3713
370 17.3866
375 17.2196
380 17.4629
385 18.5224
390 21.0807
395 22.0742
400 23.8008
405 24.3109
410 25.2225
415 25.2357
420 25.0704
425 24.3975
430 24.8322
435 23.5133
440 24.3227
445 22.6641
450 21.534
455 21.1403
460 19.9215
465 18.8523
470 17.9544
475 16.9666
480 15.3545
485 14.1568
490 13.3865
495 13.0761
500 11.5215
505 10.0871
510 9.40015
515 8.06682
520 7.68608
525 6.55595
530 5.99042
535 5.39224
540 4.73963
545 4.09868
550 3.7681
555 3.25614
560 2.92242
565 2.53546
570 2.27834
575 1.78634
580 1.41078
585 1.22641
590 0.981951
595 0.912012
600 0.687716
Ex : 338
200 0.329329
205 0.161133
210 0.170744
215 0.260703
220 0.306748
225 0.213702
230 0.321882
235 0.280135
240 0.160471
245 0.233075
250 0.15738
255 0.226066
260 0.232491
265 0.26133
270 0.223237
275 0.244856
280 0.288702
285 0.176075
290 0.22935
295 0.28828
300 0.283722
305 0.323336
310 0.246745
315 0.32814
320 0.413413
325 13.0689
330 181.603
335 267.931
340 70.9216
345 11.196
350 5.20645
355 4.43355
360 4.27315
365 6.73949
370 11.6099
375 12.1403
380 11.1415
385 10.3522
390 10.9723
395 11.1
400 12.2172
405 13.1082
410 14.4558
415 15.4295
420 15.3083
425 15.465
430 16.061
435 16.2753
440 15.9963
445 15.6233
450 15.7441
455 15.19
460 14.6919
465 14.7747
470 13.9445
475 14.0842
480 13.1677
485 12.1298
490 11.8453
495 11.3678
500 10.4008
505 9.7612
510 8.79594
515 7.78125
520 7.07907
525 6.56925
530 5.75758
535 5.52839
540 4.89695
545 4.37127
550 3.91059
555 3.50834
560 3.0213
565 2.71517
570 1.97967
575 1.79934
580 1.44731
585 1.42366
590 1.07212
595 0.750833
600 0.391469
Ex : 343
200 0.218558
205 0.200961
210 0.247643
215 0.195667
220 0.214534
225 0.306496
230 0.281006
235 0.206352
240 0.181488
245 0.20284
250 0.19355
255 0.288986
260 0.297621
265 0.23719
270 0.232459
275 0.27436
280 0.281367
285 0.24071
290 0.286264
295 0.186369
300 0.204288
305 0.275722
310 0.298595
315 0.359781
320 0.337277
325 0.453011
330 15.37
335 210.903
340 301.174
345 77.3129
350 11.1832
355 4.28197
360 3.4655
365 2.81326
370 4.53024
375 8.76302
380 9.81752
385 8.63659
390 7.66194
395 7.63688
400 7.94658
405 9.80079
410 11.5866
415 12.1219
420 13.4257
425 13.1884
430 13.7057
435 14.7893
440 15.8386
445 15.5542
450 14.947
455 15.3751
460 15.0187
465 15.4764
470 14.7555
475 14.6245
480 13.8064
485 13.2204
490 12.6797
495 12.3959
500 11.482
505 10.9103
510 9.71804
515 9.18952
520 8.05536
525 7.55913
530 6.60031
535 5.84536
540 5.28634
545 4.87279
550 4.40261
555 3.53929
560 3.35425
565 2.85231
570 2.17708
575 2.0531
580 1.66838
585 1.30192
590 0.910734
595 0.85113
600 0.467555
Ex : 348
200 0.210221
205 0.289225
210 0.23223
215 0.240338
220 0.199301
225 0.189922
230 0.21959
235 0.221619
240 0.199918
245 0.223091
250 0.255004
255 0.242742
260 0.248426
265 0.21846
270 0.21158
275 0.252473
280 0.203015
285 0.196068
290 0.172474
295 0.191733
300 0.255235
305 0.209031
310 0.222482
315 0.251326
320 0.296359
325 0.334049
330 0.538088
335 16.4313
340 212.723
345 310.549
350 85.0898
355 11.7964
360 3.98072
365 2.95034
370 2.58897
375 3.33864
380 7.01964
385 9.85677
390 8.12072
395 7.13452
400 7.24132
405 9.36074
410 11.5802
415 12.9043
420 13.2329
425 13.7622
430 14.1126
435 15.0817
440 16.7685
445 16.8365
450 16.6495
455 16.7647
460 16.6784
465 17.2087
470 17.1326
475 17.056
480 16.896
485 16.0351
490 15.2014
495 14.3567
500 13.5388
505 13.0821
510 11.8276
515 10.8991
520 9.68939
525 8.89221
530 8.02304
535 7.4526
540 6.60944
545 5.76764
550 5.33234
555 4.92082
560 4.03489
565 3.56236
570 2.88992
575 2.32859
580 1.90174
585 1.45501
590 1.20345
595 1.0578
600 1.07682
Ex : 353
200 0.173989
205 0.188937
210 0.16878
215 0.243114
220 0.213595
225 0.205223
230 0.199284
235 0.213406
240 0.215379
245 0.208752
250 0.158513
255 0.182989
260 0.140382
265 0.121826
270 0.241055
275 0.232863
280 0.235715
285 0.219718
290 0.170243
295 0.270092
300 0.226252
305 0.211701
310 0.214361
315 0.280967
320 0.308043
325 0.240647
330 0.340783
335 0.477302
340 16.2723
345 219.771
350 307.097
355 79.2394
360 10.9875
365 3.47551
370 3.0212
375 2.89254
380 3.25122
385 5.44448
390 9.17431
395 8.86278
400 8.32798
405 8.84226
410 10.9643
415 12.9242
420 13.2779
425 13.3746
430 14.6071
435 15.6532
440 16.5782
445 17.2072
450 17.6003
455 17.7814
460 17.7864
465 18.2717
470 18.7758
475 19.1661
480 18.3829
485 18.2796
490 17.4507
495 16.605
500 15.6463
505 14.8204
510 13.794
515 12.4698
520 11.4334
525 10.6688
530 9.46749
535 8.92606
540 7.8151
545 6.97139
550 6.19504
555 5.06096
560 4.96336
565 4.27791
570 3.44255
575 2.80708
580 2.28591
585 1.82881
590 1.34807
595 1.04419
600 0.96958
Ex : 358
200 0.188234
205 0.116359
210 0.189094
215 0.140334
220 0.177812
225 0.125341
230 0.105429
235 0.144438
240 0.141963
245 0.179622
250 0.114603
255 0.204522
260 0.270058
265 0.140539
270 0.168443
275 0.168072
280 0.234747
285 0.144134
290 0.235391
295 0.163775
300 0.154149
305 0.164011
310 0.264887
315 0.180766
320 0.230277
325 0.224448
330 0.237001
335 0.336761
340 0.647909
345 15.0717
350 213.258
355 313.882
360 82.8897
365 11.0824
370 3.47239
375 3.42184
380 3.08978
385 3.50952
390 5.20439
395 9.67035
400 10.439
405 10.4586
410 12.5023
415 13.6433
420 14.1871
425 14.5508
430 15.2687
435 17.2109
440 17.8043
445 18.5636
450 18.7184
455 19.4691
460 19.8208
465 19.8351
470 20.8063
475 20.5557
480 20.1325
485 19.544
490 18.8025
495 18.3194
500 17.766
505 16.4683
510 15.5998
515 14.4371
520 12.981
525 11.8919
530 10.6241
535 9.03661
540 8.69702
545 7.67109
550 6.95595
555 6.06445
560 5.27217
565 4.37256
570 3.62
575 2.95916
580 2.14756
585 1.91669
590 1.44335
595 1.39785
600 1.60325
Ex : 363
200 0.225159
205 0.177748
210 0.217851
215 0.141597
220 0.154915
225 0.130529
230 0.161742
235 0.150499
240 0.146838
245 0.09735
250 0.129056
255 0.161218
260 0.132043
265 0.155543
270 0.125674
275 0.156591
280 0.150865
285 0.155323
290 0.179178
295 0.184533
300 0.147974
305 0.132015
310 0.234333
315 0.224702
320 0.145333
325 0.183003
330 0.202627
335 0.233053
340 0.396008
345 0.599666
350 14.8597
355 209.286
360 310.577
365 84.1902
370 11.5083
375 3.5598
380 3.47422
385 3.47721
390 3.62596
395 5.06729
400 9.86947
405 13.3774
410 15.5612
415 16.4774
420 16.0598
425 16.1919
430 17.7571
435 19.655
440 20.8509
445 22.3329
450 22.54
455 22.8062
460 23.43
465 23.8207
470 24.0031
475 23.9515
480 23.6454
485 23.0124
490 22.1221
495 21.0138
500 19.8219
505 18.7087
510 17.5266
515 16.165
520 14.6615
525 13.5357
530 11.9799
535 10.7399
540 9.6936
545 8.90321
550 8.20191
555 7.01754
560 5.97709
565 5.18946
570 4.25379
575 3.23274
580 2.57275
585 2.02799
590 1.65975
595 1.45069
600 0.691541
Ex : 368
200 0.158258
205 0.193505
210 0.213952
215 0.187731
220 0.111349
225 0.210999
230 0.116295
235 0.1046
240 0.137124
245 0.135779
250 0.152365
255 0.1668
260 0.17274
265 0.173029
270 0.192661
275 0.183043
280 0.149651
285 0.153935
290 0.159536
295 0.166737
300 0.284036
305 0.1764
310 0.188926
315 0.173869
320 0.193056
325 0.221893
330 0.22058
335 0.196063
340 0.263028
345 0.242962
350 0.443384
355 11.6101
360 192.061
365 308.524
370 87.7013
375 12.2196
380 3.61479
385 3.4374
390 3.44029
395 3.59678
400 5.47662
405 10.8638
410 16.4828
415 17.1379
420 16.1716
425 15.3682
430 16.346
435 18.7197
440 20.6033
445 21.3235
450 21.5523
455 22.6762
460 23.5234
465 25.1825
470 25.798
475 25.6322
480 25.5036
485 24.8099
490 24.0343
495 23.7667
500 22.8345
505 21.665
510 20.242
515 18.8566
520 16.8074
525 15.6757
530 13.9113
535 12.6936
540 11.4134
545 10.2781
550 8.88637
555 8.08792
560 7.12957
565 6.08371
570 5.11392
575 3.86781
580 3.36284
585 2.30502
590 1.78393
595 1.51239
600 0.736052
Ex : 373
200 0.127158
205 0.230269
210 0.131766
215 0.165792
220 0.164813
225 0.161575
230 0.146538
235 0.122819
240 0.231762
245 0.154675
250 0.106342
255 0.151448
260 0.143662
265 0.12954
270 0.111202
275 0.14731
280 0.140741
285 0.13417
290 0.163122
295 0.10855
300 0.143799
305 0.143811
310 0.209079
315 0.214953
320 0.211059
325 0.144574
330 0.192137
335 0.197863
340 0.222674
345 0.226492
350 0.299365
355 0.579536
360 13.1519
365 195.264
370 307.723
375 88.7941
380 12.3735
385 3.63675
390 3.46362
395 3.70218
400 4.35865
405 6.95278
410 11.8488
415 16.528
420 15.8581
425 14.7097
430 14.497
435 16.4139
440 18.6325
445 19.5299
450 19.98
455 21.4299
460 22.2261
465 24.1699
470 25.0072
475 26.3118
480 26.1305
485 25.6032
490 25.2355
495 24.7978
500 24.0182
505 22.1149
510 20.6845
515 19.5165
520 17.9992
525 16.1174
530 15.0017
535 13.698
540 12.073
545 11.2297
550 9.53325
555 8.49827
560 7.79395
565 6.35972
570 5.25563
575 4.31865
580 3.4106
585 2.70369
590 2.02819
595 1.55097
600 1.3825
Ex : 378
200 0.116716
205 0.183418
210 0.209858
215 0.118674
220 0.150522
225 0.140675
230 0.177241
235 0.179191
240 0.153484
245 0.216315
250 0.141986
255 0.0911609
260 0.122538
265 0.174089
270 0.124936
275 0.113299
280 0.187977
285 0.167811
290 0.133562
295 0.181577
300 0.183721
305 0.162343
310 0.128274
315 0.14251
320 0.120181
325 0.15444
330 0.210436
335 0.204027
340 0.207807
345 0.270803
350 0.302983
355 0.275635
360 0.535856
365 12.9447
370 206.916
375 330.25
380 94.4968
385 13.3757
390 4.24472
395 3.95207
400 5.29729
405 7.45069
410 10.6175
415 14.1824
420 17.3347
425 16.6484
430 16.928
435 18.285
440 19.8841
445 20.3227
450 20.9177
455 22.3058
460 23.0241
465 24.8212
470 25.6371
475 25.8693
480 25.9084
485 25.6442
490 24.9033
495 24.1708
500 23.2612
505 21.8902
510 20.8479
515 18.6273
520 16.9966
525 15.5982
530 14.273
535 13.11
540 11.7222
545 10.69
550 9.45541
555 8.61169
560 7.15119
565 6.13398
570 5.22176
575 4.38008
580 3.3709
585 2.48117
590 1.98611
595 1.61505
600 0.963792
Ex : 383
200 0.143513
205 0.161339
210 0.137779
215 0.117594
220 0.160901
225 0.157768
230 0.140549
235 0.126413
240 0.17771
245 0.180456
250 0.108955
255 0.175605
260 0.171083
265 0.186522
270 0.116083
275 0.127569
280 0.138099
285 0.132316
290 0.147548
295 0.144516
300 0.185838
305 0.204855
310 0.128198
315 0.175351
320 0.141783
325 0.22277
330 0.182956
335 0.16365
340 0.235702
345 0.218474
350 0.301905
355 0.344008
360 0.358342
365 0.521502
370 13.0068
375 205.682
380 344.517
385 98.8907
390 14.1415
395 4.63516
400 5.3199
405 8.46075
410 11.912
415 14.5611
420 15.5815
425 18.2894
430 19.9352
435 20.8068
440 22.1647
445 22.5444
450 22.5275
455 23.2008
460 24.9014
465 25.588
470 26.6601
475 27.5088
480 26.2089
485 25.9954
490 25.1648
495 24.8594
500 24.3974
505 22.531
510 21.5422
515 19.9713
520 17.9894
525 16.1902
530 14.9163
535 13.6659
540 12.0509
545 10.7407
550 9.65772
555 8.38165
560 7.38037
565 6.55495
570 5.41045
575 4.35668
580 3.32631
585 2.5357
590 2.06575
595 1.61913
600 1.2135
Ex : 388
200 0.0919644
205 0.131004
210 0.0912668
215 0.0995585
220 0.109923
225 0.196797
230 0.158406
235 0.14861
240 0.209582
245 0.124303
250 0.116452
255 0.143641
260 0.134128
265 0.159912
270 0.157961
275 0.12745
280 0.0996529
285 0.159488
290 0.170251
295 0.124539
300 0.088379
305 0.134931
310 0.0839071
315 0.142539
320 0.135477
325 0.14664
330 0.175326
335 0.152345
340 0.151903
345 0.147436
350 0.210222
355 0.243514
360 0.294728
365 0.309209
370 0.469847
375 13.7049
380 215.463
385 348.157
390 99.1858
395 13.8409
400 5.28902
405 7.46836
410 11.3894
415 13.3151
420 13.768
425 14.0308
430 17.3875
435 21.4524
440 22.0286
445 21.8456
450 21.7769
455 22.6276
460 23.8102
465 25.4599
470 26.5325
475 27.1973
480 27.2795
485 26.7325
490 26.5603
495 26.0651
500 24.5338
505 23.3665
510 21.7587
515 20.3076
520 18.5394
525 16.9802
530 15.2116
535 14.043
540 12.8414
545 11.5181
550 10.2228
555 9.15661
560 7.64468
565 6.3536
570 5.52562
575 4.58479
580 3.40934
585 2.67909
590 2.10496
595 1.48362
600 2.23778
Ex : 393
200 0.15376
205 0.104603
210 0.0726797
215 0.154546
220 0.16696
225 0.12445
230 0.148082
235 0.144307
240 0.129284
245 0.105106
250 0.130919
255 0.0934273
260 0.138625
265 0.121128
270 0.114346
275 0.1302
280 0.155325
285 0.105281
290 0.105935
295 0.0981196
300 0.168068
305 0.148594
310 0.0995846
315 0.164933
320 0.121286
325 0.114861
330 0.13447
335 0.139962
340 0.165003
345 0.16635
350 0.253029
355 0.193613
360 0.217285
365 0.233418
370 0.308022
375 0.458902
380 11.8339
385 212.339
390 353.51
395 101.703
400 14.4864
405 6.80731
410 8.66553
415 10.7906
420 10.9094
425 11.0317
430 12.0548
435 15.6223
440 19.9085
445 19.9023
450 19.5899
455 20.4772
460 21.5394
465 23.2096
470 24.9031
475 26.1939
480 26.1647
485 26.1631
490 26.3312
495 25.7086
500 24.815
505 23.4895
510 22.2161
515 20.7683
520 18.7783
525 16.749
530 15.6937
535 14.3321
540 13.2805
545 11.909
550 10.3039
555 9.07626
560 8.14038
565 7.04336
570 5.92574
575 4.65181
580 3.55132
585 2.69512
590 2.17686
595 1.66489
600 1.60994
Ex : 398
200 0.149435
205 0.168112
210 0.126953
215 0.116355
220 0.105709
225 0.120568
230 0.121344
235 0.124967
240 0.0921216
245 0.141622
250 0.130241
255 0.17669
260 0.117723
265 0.13477
270 0.181267
275 0.101729
280 0.108554
285 0.125286
290 0.109996
295 0.146782
300 0.122989
305 0.163113
310 0.1508
315 0.119395
320 0.166846
325 0.115072
330 0.132878
335 0.121384
340 0.259214
345 0.150957
350 0.159854
355 0.164002
360 0.173591
365 0.252507
370 0.265685
375 0.382032
380 0.568169
385 12.3422
390 217.815
395 364.432
400 106.028
405 17.0621
410 9.05772
415 9.82934
420 10.3767
425 10.2449
430 11.0062
435 12.9379
440 15.8724
445 19.3745
450 20.4718
455 20.2218
460 21.4811
465 22.6828
470 24.3716
475 25.5861
480 25.7713
485 26.7936
490 26.6803
495 26.1901
500 25.309
505 23.9897
510 22.2504
515 21.4651
520 19.8481
525 18.1855
530 15.946
535 14.4954
540 13.1624
545 11.9186
550 10.5952
555 9.51841
560 8.25399
565 6.96626
570 5.96319
575 4.76869
580 3.61068
585 3.02327
590 2.22149
595 1.80534
600 1.52724
Ex : 403
200 0.148243
205 0.121068
210 0.148652
215 0.11629
220 0.131394
225 0.103565
230 0.0988522
235 0.0930491
240 0.131918
245 0.0750435
250 0.162096
255 0.131213
260 0.109718
265 0.104275
270 0.11262
275 0.153891
280 0.148512
285 0.155644
290 0.139242
295 0.107782
300 0.192749
305 0.0786031
310 0.158763
315 0.196219
320 0.105215
325 0.122216
330 0.0893419
335 0.181319
340 0.122218
345 0.184054
350 0.193358
355 0.205964
360 0.154455
365 0.226177
370 0.220395
375 0.232932
380 0.364617
385 0.545037
390 14.2349
395 227.951
400 377.771
405 110.254
410 20.3102
415 11.3685
420 10.6424
425 11.1479
430 11.4922
435 13.6255
440 15.7112
445 17.9141
450 20.8521
455 22.9395
460 22.895
465 24.0622
470 25.579
475 26.324
480 26.5729
485 27.0929
490 27.43
495 26.7167
500 26.1148
505 24.8327
510 23.4985
515 21.505
520 19.7615
525 18.2534
530 16.6614
535 15.3899
540 14.0286
545 12.0904
550 10.9205
555 9.91483
560 8.63201
565 7.44577
570 6.1823
575 5.03341
580 3.73437
585 2.97496
590 2.25611
595 1.7835
600 1.17717
Ex : 408
200 0.123459
205 0.101022
210 0.116558
215 0.158643
220 0.166348
225 0.140475
230 0.117785
235 0.154893
240 0.126682
245 0.129182
250 0.145033
255 0.129723
260 0.11635
265 0.125328
270 0.161805
275 0.116117
280 0.133663
285 0.129092
290 0.147639
295 0.133296
300 0.171222
305 0.111291
310 0.134108
315 0.184398
320 0.156188
325 0.134952
330 0.149243
335 0.205003
340 0.131577
345 0.132099
350 0.170692
355 0.122852
360 0.129505
365 0.164519
370 0.213868
375 0.210849
380 0.236978
385 0.365075
390 0.691344
395 13.8266
400 232.065
405 378.692
410 109.354
415 21.2628
420 10.9946
425 9.62864
430 10.838
435 12.6628
440 14.6737
445 15.5574
450 17.3522
455 20.5797
460 23.703
465 24.6562
470 25.2221
475 26.3608
480 26.5658
485 26.7396
490 26.616
495 26.3113
500 25.2114
505 24.3138
510 23.4473
515 21.4463
520 19.5257
525 18.2008
530 16.5791
535 15.1903
540 14.0423
545 12.2058
550 10.9499
555 9.62686
560 8.35447
565 7.26073
570 6.10352
575 5.0237
580 3.76612
585 3.01
590 2.20111
595 1.82782
600 1.62653
Ex : 413
200 0.099512
205 0.130804
210 0.116192
215 0.112037
220 0.113094
225 0.130174
230 0.13562
235 0.127469
240 0.123611
245 0.112294
250 0.106108
255 0.150244
260 0.130876
265 0.110674
270 0.212569
275 0.130949
280 0.1339
285 0.131899
290 0.159871
295 0.122888
300 0.11446
305 0.090862
310 0.125696
315 0.111855
320 0.123897
325 0.131579
330 0.107984
335 0.14445
340 0.18705
345 0.134676
350 0.142232
355 0.156049
360 0.13001
365 0.167482
370 0.22819
375 0.235281
380 0.254147
385 0.257635
390 0.45999
395 0.766128
400 15.9251
405 242.187
410 387.506
415 108.217
420 18.4522
425 7.74033
430 7.47773
435 9.04284
440 10.2373
445 11.2298
450 12.5105
455 14.4387
460 17.9696
465 22.5081
470 23.7398
475 24.482
480 24.3315
485 24.235
490 24.9803
495 24.5496
500 24.2823
505 23.268
510 22.384
515 20.712
520 18.6671
525 17.2438
530 16.1416
535 14.8387
540 13.1198
545 12.1444
550 10.8111
555 9.48258
560 8.35947
565 7.17813
570 5.94391
575 4.80992
580 3.68663
585 2.89003
590 2.17829
595 1.77962
600 2.29986
Ex : 418
200 0.150398
205 0.118327
210 0.128238
215 0.159834
220 0.145753
225 0.0956488
230 0.165937
235 0.151429
240 0.115839
245 0.149358
250 0.206933
255 0.123906
260 0.146974
265 0.107198
270 0.143654
275 0.088417
280 0.13632
285 0.104401
290 0.121371
295 0.146295
300 0.161888
305 0.106202
310 0.159951
315 0.121176
320 0.112842
325 0.127674
330 0.102605
335 0.156042
340 0.127504
345 0.174254
350 0.178253
355 0.183334
360 0.170304
365 0.178372
370 0.160292
375 0.184298
380 0.209603
385 0.255941
390 0.358979
395 0.353985
400 0.850323
405 15.4283
410 243.647
415 398.983
420 115.62
425 16.437
430 5.21445
435 5.00775
440 6.29428
445 7.44421
450 8.90175
455 10.8426
460 13.5415
465 16.4826
470 20.5523
475 21.6942
480 22.1115
485 22.2823
490 22.3883
495 22.5883
500 22.0282
505 21.1934
510 20.489
515 19.2203
520 17.6205
525 16.4612
530 14.8181
535 13.8745
540 12.1617
545 10.9928
550 10.0494
555 9.1169
560 8.04937
565 6.79468
570 5.45616
575 4.49968
580 3.63822
585 2.71858
590 2.12922
595 1.65917
600 1.81786
Ex : 423
200 0.0933323
205 0.0839657
210 0.156533
215 0.112228
220 0.163419
225 0.0975274
230 0.12051
235 0.113183
240 0.117586
245 0.121402
250 0.161597
255 0.142933
260 0.151949
265 0.149397
270 0.143012
275 0.0857189
280 0.181368
285 0.216821
290 0.123002
295 0.136738
300 0.103861
305 0.118008
310 0.166331
315 0.128373
320 0.0981705
325 0.120023
330 0.12483
335 0.118846
340 0.104187
345 0.0933453
350 0.13182
355 0.144806
360 0.130509
365 0.150099
370 0.162955
375 0.181021
380 0.194776
385 0.244168
390 0.252194
395 0.27262
400 0.485524
405 0.773834
410 16.1402
415 264.268
420 410.923
425 108.486
430 14.7091
435 4.55574
440 3.98345
445 5.63586
450 7.44258
455 8.95585
460 11.2579
465 13.4741
470 15.7072
475 19.0241
480 20.9715
485 20.568
490 20.7286
495 20.9647
500 20.2675
505 19.1647
510 18.5894
515 17.3257
520 16.1817
525 15.1013
530 13.8338
535 12.6544
540 11.4223
545 10.4282
550 9.0731
555 8.14892
560 7.2612
565 6.41301
570 5.17078
575 4.18352
580 3.33021
585 2.43259
590 1.91977
595 1.6686
600 0.870461
Ex : 428
200 0.179045
205 0.148498
210 0.193784
215 0.101379
220 0.119697
225 0.149988
230 0.125977
235 0.0862533
240 0.085794
245 0.162704
250 0.140284
255 0.114146
260 0.114879
265 0.118831
270 0.150558
275 0.11493
280 0.128274
285 0.141808
290 0.147377
295 0.121531
300 0.0888409
305 0.0770362
310 0.147287
315 0.101989
320 0.136724
325 0.161879
330 0.129618
335 0.136054
340 0.144624
345 0.115226
350 0.168836
355 0.146179
360 0.160241
365 0.177087
370 0.137967
375 0.18012
380 0.17017
385 0.172634
390 0.180605
395 0.240276
400 0.275025
405 0.36546
410 0.643344
415 17.2251
420 266.467
425 418.981
430 116.525
435 15.5163
440 4.54802
445 4.24162
450 6.10103
455 7.9618
460 10.1112
465 11.6782
470 13.4665
475 14.549
480 17.2584
485 19.7154
490 19.3633
495 18.8486
500 18.4533
505 17.6787
510 16.7417
515 15.6713
520 14.7925
525 13.5243
530 12.1375
535 11.2832
540 10.6363
545 9.47106
550 8.48186
555 7.48661
560 6.67347
565 5.60972
570 4.62222
575 3.70616
580 2.99261
585 2.26858
590 1.84035
595 1.45506
600 0.97498
Ex : 433
200 0.105107
205 0.172165
210 0.152468
215 0.108011
220 0.0893368
225 0.13856
230 0.100412
235 0.129342
240 0.104295
245 0.112453
250 0.115612
255 0.112418
260 0.136207
265 0.157463
270 0.120571
275 0.100248
280 0.169155
285 0.140934
290 0.119053
295 0.158586
300 0.108726
305 0.152379
310 0.14896
315 0.163469
320 0.144446
325 0.138027
330 0.154795
335 0.129309
340 0.136223
345 0.0917987
350 0.159331
355 0.185961
360 0.170261
365 0.163254
370 0.172497
375 0.160069
380 0.182139
385 0.204208
390 0.2117
395 0.206731
400 0.245148
405 0.295837
410 0.480971
415 0.700564
420 19.7683
425 294.458
430 437.722
435 116.741
440 15.9155
445 5.28584
450 5.03749
455 7.0588
460 8.54882
465 10.0961
470 11.4066
475 12.7527
480 14.1191
485 15.7379
490 17.8273
495 17.8275
500 16.4079
505 16.1133
510 14.7727
515 13.8813
520 12.5444
525 12.4241
530 10.9679
535 9.90366
540 9.18645
545 8.36022
550 7.1278
555 6.6037
560 5.6872
565 5.05379
570 4.55013
575 3.2647
580 2.65525
585 2.06059
590 1.61579
595 1.21666
600 1.3713
Ex : 438
200 0.152716
205 0.133224
210 0.10821
215 0.114434
220 0.145803
225 0.176821
230 0.085761
235 0.102794
240 0.111423
245 0.134823
250 0.149198
255 0.16033
260 0.149153
265 0.160557
270 0.112472
275 0.124516
280 0.139577
285 0.104938
290 0.165782
295 0.0947911
300 0.126273
305 0.165078
310 0.101967
315 0.180461
320 0.170199
325 0.213909
330 0.114894
335 0.136016
340 0.129019
345 0.135104
350 0.131316
355 0.150291
360 0.26293
365 0.218503
370 0.155158
375 0.123382
380 0.194911
385 0.167546
390 0.171332
395 0.165973
400 0.190768
405 0.231422
410 0.300753
415 0.380941
420 0.701581
425 19.2545
430 299.481
435 474.898
440 128.222
445 17.7375
450 5.859
455 5.82606
460 7.39133
465 8.59173
470 9.40793
475 10.3933
480 11.806
485 12.468
490 13.3467
495 15.5697
500 15.6421
505 14.1758
510 13.3327
515 12.2385
520 11.0335
525 9.964
530 9.49339
535 8.60312
540 7.72013
545 7.24052
550 6.32793
555 5.85074
560 4.95727
565 4.57305
570 3.71708
575 2.90021
580 2.39374
585 1.85607
590 1.43909
595 1.11964
600 0.54532
Ex : 443
200 0.163629
205 0.133825
210 0.0809508
215 0.145556
220 0.111443
225 0.132067
230 0.166407
235 0.125551
240 0.121745
245 0.111621
250 0.108891
255 0.0996439
260 0.144216
265 0.113853
270 0.120867
275 0.119529
280 0.125757
285 0.0981097
290 0.127536
295 0.13948
300 0.16308
305 0.103256
310 0.14598
315 0.115913
320 0.140787
325 0.123906
330 0.134205
335 0.184117
340 0.165244
345 0.172663
350 0.140357
355 0.152627
360 0.133684
365 0.144089
370 0.156064
375 0.16774
380 0.160121
385 0.172531
390 0.159428
395 0.204776
400 0.278703
405 0.212152
410 0.272322
415 0.322909
420 0.397591
425 0.616741
430 21.9269
435 323.269
440 485.626
445 127.106
450 17.9483
455 6.22463
460 5.75839
465 6.98344
470 8.21869
475 8.81211
480 9.32962
485 10.1527
490 10.3478
495 10.9655
500 12.2328
505 13.204
510 11.8013
515 10.3187
520 9.55699
525 8.71893
530 7.78128
535 7.34368
540 6.69093
545 5.9681
550 5.3134
555 4.69675
560 4.36084
565 3.61326
570 3.0277
575 2.34664
580 1.95597
585 1.54524
590 1.09375
595 1.06184
600 0.331195
Ex : 448
200 0.153649
205 0.104482
210 0.110524
215 0.122275
220 0.128618
225 0.114678
230 0.0915606
235 0.128575
240 0.180052
245 0.151999
250 0.134031
255 0.0765303
260 0.0910311
265 0.154585
270 0.153776
275 0.109054
280 0.10531
285 0.134998
290 0.14149
295 0.133979
300 0.140732
305 0.142431
310 0.105044
315 0.0901438
320 0.138688
325 0.11552
330 0.147979
335 0.11856
340 0.133711
345 0.152158
350 0.146279
355 0.175491
360 0.147805
365 0.144329
370 0.18516
375 0.157382
380 0.129868
385 0.156663
390 0.152488
395 0.178049
400 0.201195
405 0.229158
410 0.248365
415 0.198654
420 0.288746
425 0.500138
430 0.697215
435 23.4297
440 352.599
445 534.417
450 141.26
455 19.8156
460 6.49154
465 5.4888
470 6.07188
475 7.08111
480 7.37907
485 7.69807
490 8.29234
495 7.83687
500 8.16921
505 9.26997
510 9.98771
515 8.99452
520 7.64644
525 7.14728
530 6.49681
535 5.92938
540 5.27656
545 4.82685
550 4.14794
555 3.70166
560 3.26178
565 3.07466
570 2.39743
575 1.99952
580 1.51587
585 1.29527
590 0.96992
595 0.754343
600 0.606785
Ex : 453
200 0.133848
205 0.10198
210 0.143601
215 0.129302
220 0.12643
225 0.157881
230 0.110931
235 0.1168
240 0.11742
245 0.111331
250 0.118289
255 0.123745
260 0.128018
265 0.123715
270 0.14032
275 0.113145
280 0.116075
285 0.136815
290 0.102087
295 0.157915
300 0.13259
305 0.106164
310 0.167403
315 0.146798
320 0.123956
325 0.0885027
330 0.105938
335 0.112473
340 0.10669
345 0.117749
350 0.146694
355 0.168915
360 0.165629
365 0.169467
370 0.236343
375 0.127086
380 0.148246
385 0.17495
390 0.149372
395 0.176892
400 0.245127
405 0.227025
410 0.21256
415 0.180546
420 0.221362
425 0.398789
430 0.475431
435 0.778767
440 24.7273
445 373.642
450 540.579
455 139.073
460 19.305
465 5.8814
470 4.46144
475 4.91893
480 5.79531
485 6.03482
490 6.25841
495 6.06734
500 5.89841
505 6.06124
510 6.5149
515 7.36377
520 6.96097
525 5.93174
530 5.25674
535 4.74065
540 4.23497
545 3.92178
550 3.34208
555 2.96985
560 2.64979
565 2.33629
570 1.95992
575 1.67869
580 1.32164
585 1.1096
590 0.824759
595 0.637385
600 0.496003
Ex : 458
200 0.121734
205 0.100236
210 0.193745
215 0.17431
220 0.120876
225 0.110955
230 0.13947
235 0.162066
240 0.143952
245 0.0972766
250 0.120865
255 0.103406
260 0.0958866
265 0.124097
270 0.161578
275 0.141806
280 0.144865
285 0.132562
290 0.125247
295 0.108329
300 0.143307
305 0.128931
310 0.153397
315 0.180961
320 0.16245
325 0.164571
330 0.13701
335 0.122028
340 0.153147
345 0.184743
350 0.125771
355 0.139848
360 0.137993
365 0.149304
370 0.157771
375 0.13805
380 0.197945
385 0.142303
390 0.239228
395 0.167977
400 0.174099
405 0.214591
410 0.194854
415 0.225727
420 0.242173
425 0.257504
430 0.35916
435 0.47515
440 0.836757
445 27.4319
450 409.207
455 626.361
460 153.22
465 20.5519
470 5.28201
475 3.67385
480 3.93185
485 4.21585
490 4.4584
495 4.25131
500 4.27784
505 4.1087
510 4.13614
515 4.4168
520 5.1678
525 5.85975
530 4.73792
535 3.75041
540 3.62656
545 3.16674
550 2.65771
555 2.39976
560 2.12065
565 1.90023
570 1.61917
575 1.32247
580 1.00041
585 0.939079
590 0.749026
595 0.626579
600 0.53049
Ex : 463
200 0.148162
205 0.150217
210 0.0989137
215 0.148803
220 0.163791
225 0.123434
230 0.104806
235 0.110655
240 0.0969987
245 0.122356
250 0.118504
255 0.145632
260 0.175357
265 0.126604
270 0.149903
275 0.119348
280 0.135999
285 0.116229
290 0.155363
295 0.135323
300 0.132388
305 0.151354
310 0.15714
315 0.137944
320 0.112422
325 0.134737
330 0.143058
335 0.129419
340 0.107333
345 0.132699
350 0.205861
355 0.166731
360 0.194902
365 0.124655
370 0.131112
375 0.135441
380 0.156172
385 0.167331
390 0.205326
395 0.160693
400 0.151072
405 0.199282
410 0.180375
415 0.179519
420 0.170491
425 0.213332
430 0.260023
435 0.399452
440 0.577792
445 0.839097
450 26.5129
455 397.362
460 592.495
465 148.542
470 19.333
475 4.65105
480 3.03294
485 2.87891
490 3.29001
495 3.37738
500 3.17302
505 3.08215
510 3.01623
515 3.06499
520 3.14799
525 3.59692
530 4.63777
535 4.08096
540 2.91295
545 2.71622
550 2.50076
555 2.06112
560 1.78063
565 1.65911
570 1.29686
575 1.05833
580 0.920804
585 0.763571
590 0.580341
595 0.561795
600 0.304627
Ex : 468
200 0.118926
205 0.111942
210 0.107905
215 0.0942483
220 0.151042
225 0.130304
230 0.1283
235 0.110358
240 0.136056
245 0.153404
250 0.141344
255 0.119302
260 0.126697
265 0.160558
270 0.106168
275 0.0989964
280 0.0867642
285 0.105776
290 0.137674
295 0.121478
300 0.156849
305 0.10651
310 0.138361
315 0.101453
320 0.108572
325 0.151734
330 0.0918963
335 0.114259
340 0.123208
345 0.12819
350 0.103996
355 0.141684
360 0.102093
365 0.152903
370 0.1186
375 0.108553
380 0.121799
385 0.148146
390 0.119797
395 0.112934
400 0.123466
405 0.15544
410 0.157307
415 0.138526
420 0.164257
425 0.220871
430 0.207258
435 0.263211
440 0.339586
445 0.468283
450 0.805421
455 28.2289
460 391.132
465 609.362
470 153.589
475 19.3841
480 4.3306
485 2.48502
490 2.5474
495 2.71786
500 2.82607
505 2.60308
510 2.36227
515 2.44772
520 2.35994
525 2.52162
530 2.79183
535 3.82944
540 3.78616
545 2.69823
550 2.38769
555 2.2509
560 1.91258
565 1.56805
570 1.24335
575 1.02171
580 0.937959
585 0.698515
590 0.562212
595 0.474433
600 0.453025
Ex : 473
200 0.111359
205 0.124123
210 0.115111
215 0.0963989
220 0.127276
225 0.145428
230 0.115079
235 0.167334
240 0.107644
245 0.144941
250 0.110871
255 0.118491
260 0.132064
265 0.10264
270 0.108873
275 0.11991
280 0.112907
285 0.0842563
290 0.132213
295 0.112988
300 0.164359
305 0.112014
310 0.137303
315 0.113939
320 0.129077
325 0.146248
330 0.0914363
335 0.14811
340 0.1324
345 0.160009
350 0.133662
355 0.124084
360 0.124429
365 0.168306
370 0.155895
375 0.135943
380 0.122279
385 0.180179
390 0.153909
395 0.14391
400 0.134612
405 0.166895
410 0.177685
415 0.188414
420 0.237311
425 0.185872
430 0.156346
435 0.197183
440 0.267134
445 0.356571
450 0.48296
455 0.960128
460 32.3394
465 428.484
470 599.764
475 146.886
480 18.5453
485 3.94322
490 2.14138
495 1.9086
500 2.19305
505 2.36943
510 2.2461
515 2.0586
520 2.11514
525 2.07212
530 2.05101
535 2.32256
540 2.97045
545 3.44086
550 2.76481
555 1.89282
560 1.87133
565 1.56632
570 1.14972
575 0.986446
580 0.758707
585 0.618706
590 0.485577
595 0.41668
600 0.223621
Ex : 478
200 0.180678
205 0.12331
210 0.126049
215 0.168479
220 0.110216
225 0.131311
230 0.117972
235 0.126994
240 0.110641
245 0.104794
250 0.116709
255 0.137269
260 0.161545
265 0.211178
270 0.132871
275 0.114358
280 0.143729
285 0.152794
290 0.145409
295 0.11931
300 0.14786
305 0.128188
310 0.1408
315 0.211361
320 0.206805
325 0.237216
330 0.154301
335 0.163981
340 0.139674
345 0.194071
350 0.175252
355 0.157245
360 0.18098
365 0.207903
370 0.187313
375 0.14046
380 0.148191
385 0.183416
390 0.175967
395 0.143165
400 0.151348
405 0.16822
410 0.15286
415 0.183591
420 0.152623
425 0.184922
430 0.278669
435 0.246327
440 0.267423
445 0.336511
450 0.370129
455 0.580067
460 1.04497
465 34.7424
470 433.727
475 592.364
480 149.484
485 18.8866
490 3.76225
495 1.96833
500 1.74293
505 1.90361
510 2.06474
515 1.95045
520 1.91349
525 1.85657
530 1.85607
535 1.85202
540 1.97026
545 2.54162
550 2.98517
555 2.51851
560 1.87299
565 1.57652
570 1.32213
575 0.988954
580 0.814783
585 0.563246
590 0.552868
595 0.461577
600 0.213941
Ex : 483
200 0.128048
205 0.131898
210 0.143226
215 0.15976
220 0.153811
225 0.119429
230 0.162419
235 0.139951
240 0.156635
245 0.132024
250 0.190226
255 0.218855
260 0.116044
265 0.108908
270 0.12599
275 0.109072
280 0.132022
285 0.152777
290 0.143954
295 0.139929
300 0.151693
305 0.163234
310 0.129967
315 0.128717
320 0.193485
325 0.144754
330 0.138588
335 0.161757
340 0.22636
345 0.167411
350 0.155441
355 0.160394
360 0.122951
365 0.149705
370 0.114972
375 0.143131
380 0.160782
385 0.116141
390 0.237843
395 0.165783
400 0.214634
405 0.219731
410 0.180909
415 0.170399
420 0.167402
425 0.191673
430 0.218229
435 0.198246
440 0.187879
445 0.299755
450 0.375256
455 0.432417
460 0.672854
465 1.02363
470 26.8811
475 429.606
480 656.433
485 168.937
490 20.8551
495 3.97454
500 1.88261
505 1.62605
510 1.72574
515 1.82651
520 1.81529
525 1.88561
530 1.74363
535 1.7719
540 1.64505
545 1.66364
550 1.90538
555 2.61672
560 2.72141
565 1.80131
570 1.36489
575 1.1719
580 0.948044
585 0.645579
590 0.513097
595 0.39947
600 0.414193
Ex : 488
200 0.168018
205 0.146809
210 0.196305
215 0.170576
220 0.127617
225 0.150664
230 0.149308
235 0.135624
240 0.112082
245 0.123427
250 0.144481
255 0.125284
260 0.135705
265 0.165669
270 0.166526
275 0.214512
280 0.17683
285 0.17357
290 0.136232
295 0.160629
300 0.158647
305 0.178822
310 0.182376
315 0.147366
320 0.127484
325 0.108452
330 0.136081
335 0.120819
340 0.173442
345 0.192872
350 0.159157
355 0.168098
360 0.189016
365 0.157646
370 0.194173
375 0.204025
380 0.168258
385 0.192158
390 0.172895
395 0.160002
400 0.160363
405 0.158558
410 0.158763
415 0.196263
420 0.201045
425 0.225017
430 0.242272
435 0.277592
440 0.205885
445 0.23133
450 0.267189
455 0.34145
460 0.484554
465 0.717128
470 0.990744
475 32.3757
480 460.708
485 747.201
490 207.518
495 25.3602
500 4.41415
505 1.79832
510 1.55654
515 1.70811
520 1.89997
525 1.78922
530 1.63707
535 1.53298
540 1.72105
545 1.4316
550 1.41847
555 1.34058
560 1.95449
565 2.47574
570 1.71938
575 1.24911
580 0.98308
585 0.814156
590 0.593811
595 0.483558
600 0.278295
Ex : 493
200 0.110174
205 0.108442
210 0.131092
215 0.142988
220 0.125389
225 0.182217
230 0.196243
235 0.135987
240 0.134579
245 0.146142
250 0.152315
255 0.257302
260 0.126173
265 0.196351
270 0.122737
275 0.136897
280 0.140549
285 0.134014
290 0.186236
295 0.169625
300 0.151337
305 0.161925
310 0.139984
315 0.170979
320 0.17611
325 0.139003
330 0.161583
335 0.186712
340 0.222068
345 0.223337
350 0.193655
355 0.150892
360 0.16641
365 0.148888
370 0.178827
375 0.235913
380 0.161237
385 0.135243
390 0.140783
395 0.165761
400 0.1479
405 0.151278
410 0.16003
415 0.224807
420 0.173595
425 0.216878
430 0.195636
435 0.18203
440 0.256259
445 0.232048
450 0.277921
455 0.350315
460 0.361708
465 0.55598
470 0.677646
475 0.874843
480 30.096
485 450.419
490 652.581
495 156.135
500 19.3604
505 3.59962
510 1.71551
515 1.50102
520 1.57709
525 1.88749
530 1.82884
535 1.77409
540 1.52744
545 1.43436
550 1.30461
555 1.32998
560 1.3298
565 1.58543
570 2.09617
575 1.78453
580 1.0248
585 0.820205
590 0.795941
595 0.500169
600 0.523879
Ex : 498
200 0.224055
205 0.137047
210 0.0892734
215 0.173124
220 0.138451
225 0.132954
230 0.187854
235 0.150046
240 0.260453
245 0.171514
250 0.146131
255 0.24793
260 0.204016
265 0.148634
270 0.188626
275 0.190722
280 0.13762
285 0.202509
290 0.179725
295 0.111451
300 0.146839
305 0.209425
310 0.204756
315 0.166929
320 0.235695
325 0.127452
330 0.145052
335 0.164939
340 0.17268
345 0.183495
350 0.161248
355 0.192878
360 0.219499
365 0.173235
370 0.124409
375 0.166914
380 0.186484
385 0.175242
390 0.129951
395 0.180738
400 0.275451
405 0.242295
410 0.215765
415 0.217073
420 0.172733
425 0.194812
430 0.241332
435 0.230272
440 0.224655
445 0.274939
450 0.22434
455 0.248295
460 0.35404
465 0.388707
470 0.471167
475 0.735464
480 1.03708
485 34.4041
490 456.158
495 615.776
500 147.734
505 18.2136
510 3.37509
515 1.61108
520 1.54529
525 1.44588
530 1.82874
535 1.59558
540 1.57395
545 1.44473
550 1.39037
555 1.25527
560 1.25148
565 1.01624
570 1.1895
575 1.46363
580 1.6015
585 0.943669
590 0.560793
595 0.523721
600 0.975715
Ex : 503
200 0.225704
205 0.137801
210 0.26578
215 0.159056
220 0.241474
225 0.195405
230 0.169361
235 0.173581
240 0.19078
245 0.160855
250 0.126982
255 0.181176
260 0.192685
265 0.169738
270 0.202554
275 0.242124
280 0.224974
285 0.223477
290 0.143585
295 0.135478
300 0.155902
305 0.180629
310 0.16654
315 0.163359
320 0.202607
325 0.205512
330 0.194922
335 0.150488
340 0.167747
345 0.149942
350 0.141194
355 0.150187
360 0.214757
365 0.191338
370 0.181635
375 0.172498
380 0.254751
385 0.173723
390 0.160186
395 0.233367
400 0.153618
405 0.202737
410 0.22807
415 0.217311
420 0.170555
425 0.175495
430 0.219254
435 0.176279
440 0.256993
445 0.185314
450 0.257762
455 0.318159
460 0.384717
465 0.377224
470 0.362874
475 0.574469
480 0.795424
485 1.24626
490 57.3657
495 582.795
500 642.563
505 151.786
510 18.8654
515 3.53612
520 1.7676
525 1.51074
530 1.52998
535 1.46329
540 1.52042
545 1.35675
550 1.17484
555 1.1992
560 1.14528
565 1.05986
570 1.01957
575 0.946625
580 0.950694
585 1.3316
590 0.957988
595 0.495392
600 0.982318
Ex : 508
200 0.114449
205 0.15771
210 0.149615
215 0.171118
220 0.174855
225 0.134345
230 0.154182
235 0.166082
240 0.253581
245 0.143193
250 0.151152
255 0.159908
260 0.181213
265 0.126675
270 0.180762
275 0.161857
280 0.18365
285 0.23885
290 0.172797
295 0.152324
300 0.178471
305 0.178003
310 0.171225
315 0.170267
320 0.182784
325 0.206841
330 0.178045
335 0.166964
340 0.190937
345 0.211678
350 0.129565
355 0.220517
360 0.174221
365 0.216113
370 0.257388
375 0.238631
380 0.169997
385 0.184968
390 0.173846
395 0.18682
400 0.182549
405 0.203221
410 0.235376
415 0.168794
420 0.271286
425 0.248426
430 0.234839
435 0.285424
440 0.197465
445 0.296662
450 0.297307
455 0.221887
460 0.298034
465 0.356673
470 0.42897
475 0.560003
480 0.428207
485 0.6332
490 0.939859
495 33.9224
500 485.051
505 743.839
510 199.169
515 24.3625
520 4.31667
525 1.97871
530 1.32387
535 1.25538
540 1.32749
545 1.44383
550 1.28054
555 1.05811
560 1.10165
565 1.00613
570 0.902231
575 0.734492
580 0.603563
585 0.710329
590 0.913288
595 0.732485
600 0.555175
Ex : 513
200 0.146223
205 0.231727
210 0.178791
215 0.138317
220 0.170866
225 0.177944
230 0.206197
235 0.186859
240 0.177498
245 0.119815
250 0.163079
255 0.180793
260 0.186166
265 0.184657
270 0.187638
275 0.212353
280 0.20834
285 0.219257
290 0.174174
295 0.153243
300 0.19182
305 0.170272
310 0.19015
315 0.169152
320 0.17193
325 0.178138
330 0.145672
335 0.19615
340 0.234522
345 0.208121
350 0.153426
355 0.154542
360 0.151129
365 0.213885
370 0.178973
375 0.252963
380 0.230358
385 0.186281
390 0.156954
395 0.172772
400 0.200997
405 0.190998
410 0.23829
415 0.209501
420 0.173428
425 0.169412
430 0.195411
435 0.233732
440 0.204387
445 0.220921
450 0.238904
455 0.268332
460 0.338569
465 0.335353
470 0.293486
475 0.425374
480 0.401673
485 0.559164
490 0.776352
495 1.01478
500 39.939
505 587.726
510 680.046
515 164.398
520 20.3148
525 3.58155
530 1.66202
535 1.17979
540 1.0435
545 1.3354
550 1.36558
555 1.1854
560 1.07558
565 0.902325
570 0.869968
575 0.7714
580 0.593662
585 0.646524
590 0.56403
595 0.684466
600 0.938652
Ex : 518
200 0.248741
205 0.176811
210 0.194409
215 0.171493
220 0.155742
225 0.202336
230 0.180037
235 0.159137
240 0.16895
245 0.154836
250 0.139891
255 0.193097
260 0.18295
265 0.153241
270 0.188539
275 0.208746
280 0.14004
285 0.211801
290 0.171941
295 0.13346
300 0.171403
305 0.163609
310 0.181119
315 0.242135
320 0.239557
325 0.219777
330 0.232495
335 0.20248
340 0.161654
345 0.162869
350 0.165902
355 0.196917
360 0.157636
365 0.168388
370 0.242995
375 0.203804
380 0.282778
385 0.199743
390 0.152505
395 0.212286
400 0.25482
405 0.148828
410 0.171382
415 0.246552
420 0.179797
425 0.248162
430 0.208105
435 0.271361
440 0.176985
445 0.268903
450 0.190468
455 0.162253
460 0.278058
465 0.344531
470 0.415127
475 0.308878
480 0.374944
485 0.45064
490 0.50097
495 0.775882
500 0.939641
505 29.8174
510 417.55
515 620.897
520 163.654
525 20.2054
530 3.64071
535 1.78427
540 1.12365
545 1.14767
550 1.15595
555 1.2714
560 1.13975
565 1.05843
570 0.793299
575 0.803172
580 0.614911
585 0.552398
590 0.513149
595 0.418529
600 0.134938
Ex : 523
200 0.253862
205 0.180355
210 0.178986
215 0.181023
220 0.237832
225 0.227564
230 0.244642
235 0.160273
240 0.173488
245 0.174882
250 0.24898
255 0.192003
260 0.150192
265 0.267182
270 0.219627
275 0.174059
280 0.191563
285 0.167813
290 0.229032
295 0.233183
300 0.224059
305 0.199002
310 0.173019
315 0.187528
320 0.131899
325 0.142059
330 0.161028
335 0.208641
340 0.160032
345 0.149164
350 0.17172
355 0.20702
360 0.180972
365 0.182869
370 0.177459
375 0.265005
380 0.193419
385 0.407312
390 0.190609
395 0.227679
400 0.232514
405 0.239209
410 0.204418
415 0.280998
420 0.292104
425 0.243096
430 0.243171
435 0.224307
440 0.236485
445 0.329865
450 0.268011
455 0.287327
460 0.244258
465 0.258618
470 0.209474
475 0.233251
480 0.319848
485 0.378216
490 0.339086
495 0.455395
500 0.67666
505 0.977731
510 28.5031
515 419.623
520 622.151
525 164.56
530 20.301
535 3.5036
540 1.58817
545 1.20975
550 1.01834
555 0.97129
560 1.07622
565 1.03341
570 0.888149
575 0.652179
580 0.500113
585 0.457142
590 0.471893
595 0.444653
600 0.138544
Ex : 528
200 0.241885
205 0.276503
210 0.203323
215 0.174963
220 0.186823
225 0.254712
230 0.269966
235 0.171837
240 0.222794
245 0.145972
250 0.192294
255 0.24805
260 0.137971
265 0.1324
270 0.178583
275 0.193826
280 0.233871
285 0.159667
290 0.152604
295 0.137279
300 0.163434
305 0.159598
310 0.155059
315 0.202104
320 0.266189
325 0.188999
330 0.18744
335 0.136868
340 0.175404
345 0.274987
350 0.221852
355 0.210323
360 0.192724
365 0.177201
370 0.165393
375 0.222234
380 0.192959
385 0.202278
390 0.1625
395 0.27706
400 0.22809
405 0.172687
410 0.266425
415 0.198811
420 0.177076
425 0.399524
430 0.218627
435 0.16424
440 0.27232
445 0.201044
450 0.202562
455 0.276745
460 0.339292
465 0.338144
470 0.329901
475 0.360222
480 0.323922
485 0.270589
490 0.327307
495 0.483246
500 0.476402
505 0.597488
510 0.970747
515 26.0533
520 408.469
525 603.349
530 156.135
535 19.1788
540 3.21986
545 1.35447
550 1.11897
555 0.886796
560 0.894038
565 0.984261
570 0.809088
575 0.807662
580 0.588974
585 0.593543
590 0.518153
595 0.384419
600 1.23004
Ex : 533
200 0.176114
205 0.199661
210 0.213707
215 0.253795
220 0.253213
225 0.219749
230 0.18932
235 0.14547
240 0.233179
245 0.235412
250 0.206349
255 0.243337
260 0.175927
265 0.149899
270 0.110584
275 0.166101
280 0.242457
285 0.199262
290 0.203477
295 0.124343
300 0.159794
305 0.137832
310 0.164266
315 0.250906
320 0.179425
325 0.229153
330 0.161429
335 0.270885
340 0.158723
345 0.168736
350 0.116417
355 0.169644
360 0.22573
365 0.229428
370 0.224536
375 0.168206
380 0.212944
385 0.280789
390 0.237969
395 0.192283
400 0.21349
405 0.251821
410 0.221847
415 0.3365
420 0.208016
425 0.276266
430 0.285167
435 0.202813
440 0.279597
445 0.186693
450 0.28477
455 0.22288
460 0.333873
465 0.257076
470 0.254904
475 0.237931
480 0.286918
485 0.342426
490 0.322667
495 0.292159
500 0.456968
505 0.516818
510 0.61657
515 0.844516
520 26.5495
525 389.589
530 603.969
535 163.528
540 20.162
545 3.30161
550 1.482
555 1.05151
560 0.78388
565 0.758346
570 0.710782
575 0.868366
580 0.549351
585 0.500222
590 0.508754
595 0.380297
600 0.139082
Ex : 538
200 0.255116
205 0.356503
210 0.250662
215 0.218162
220 0.162026
225 0.187584
230 0.168928
235 0.239943
240 0.231212
245 0.175377
250 0.274906
255 0.346122
260 0.27085
265 0.253672
270 0.169412
275 0.146032
280 0.173836
285 0.252024
290 0.265909
295 0.254335
300 0.237461
305 0.111591
310 0.20921
315 0.171686
320 0.319041
325 0.185524
330 0.239675
335 0.194118
340 0.171325
345 0.227319
350 0.187536
355 0.283652
360 0.261365
365 0.177463
370 0.262069
375 0.274543
380 0.233261
385 0.338252
390 0.154721
395 0.165169
400 0.238156
405 0.18296
410 0.163599
415 0.178039
420 0.193935
425 0.241573
430 0.235099
435 0.287227
440 0.28928
445 0.297715
450 0.247937
455 0.202985
460 0.239038
465 0.351336
470 0.270528
475 0.237116
480 0.233614
485 0.241002
490 0.314044
495 0.263788
500 0.422975
505 0.378664
510 0.470454
515 0.600219
520 0.936222
525 20.8086
530 360.596
535 575.17
540 163.622
545 20.1211
550 3.21166
555 1.31591
560 0.909707
565 0.672329
570 0.622795
575 0.725147
580 0.612599
585 0.502611
590 0.502324
595 0.403596
600 0.356099
Ex : 543
200 0.266902
205 0.272728
210 0.187767
215 0.296542
220 0.185868
225 0.17779
230 0.229153
235 0.234859
240 0.269276
245 0.233446
250 0.146108
255 0.195712
260 0.187652
265 0.206658
270 0.214332
275 0.205643
280 0.189292
285 0.236187
290 0.20691
295 0.207246
300 0.205634
305 0.273944
310 0.219234
315 0.193702
320 0.210441
325 0.222404
330 0.223073
335 0.211845
340 0.26765
345 0.203003
350 0.208388
355 0.206833
360 0.22641
365 0.212149
370 0.210393
375 0.195618
380 0.173989
385 0.225645
390 0.183543
395 0.296353
400 0.224939
405 0.258898
410 0.230075
415 0.280321
420 0.236101
425 0.336857
430 0.255849
435 0.255139
440 0.219691
445 0.316097
450 0.290529
455 0.257208
460 0.292923
465 0.28131
470 0.214747
475 0.297808
480 0.310257
485 0.382092
490 0.316952
495 0.291343
500 0.240202
505 0.308358
510 0.388331
515 0.377668
520 0.564466
525 1.00604
530 19.0697
535 342.615
540 562.038
545 161.396
550 19.932
555 3.14881
560 1.16902
565 0.766863
570 0.589678
575 0.588614
580 0.556298
585 0.502041
590 0.509508
595 0.396032
600 0.342147
Ex : 548
200 0.240228
205 0.233025
210 0.300205
215 0.225184
220 0.252639
225 0.249613
230 0.198322
235 0.179826
240 0.192479
245 0.213043
250 0.117311
255 0.205425
260 0.26824
265 0.206259
270 0.188925
275 0.177133
280 0.230646
285 0.204262
290 0.176025
295 0.258917
300 0.23918
305 0.232034
310 0.209551
315 0.239647
320 0.19537
325 0.181794
330 0.124961
335 0.231354
340 0.182591
345 0.193995
350 0.265645
355 0.202744
360 0.179549
365 0.237326
370 0.205988
375 0.225858
380 0.202097
385 0.153757
390 0.238798
395 0.234295
400 0.258736
405 0.262199
410 0.227369
415 0.226346
420 0.218307
425 0.242809
430 0.275913
435 0.301226
440 0.262245
445 0.288168
450 0.262563
455 0.322531
460 0.218353
465 0.266834
470 0.25098
475 0.276698
480 0.33154
485 0.250127
490 0.264163
495 0.343131
500 0.301316
505 0.294305
510 0.323139
515 0.340225
520 0.412648
525 0.489314
530 0.700387
535 22.2214
540 337.435
545 538.561
550 155.281
555 18.8243
560 2.88826
565 0.997376
570 0.686843
575 0.583084
580 0.421706
585 0.440911
590 0.478849
595 0.370339
600 0.205391
Ex : 553
200 0.133854
205 0.204893
210 0.217604
215 0.192384
220 0.17727
225 0.255867
230 0.204065
235 0.266114
240 0.240734
245 0.231281
250 0.1935
255 0.236947
260 0.228128
265 0.171374
270 0.197845
275 0.204797
280 0.179664
285 0.178164
290 0.25096
295 0.268177
300 0.265245
305 0.17305
310 0.198747
315 0.147988
320 0.188306
325 0.219019
330 0.286915
335 0.341371
340 0.205641
345 0.333868
350 0.259576
355 0.314169
360 0.250003
365 0.208852
370 0.263694
375 0.357652
380 0.254142
385 0.242451
390 0.273886
395 0.238397
400 0.17756
405 0.189215
410 0.350726
415 0.312639
420 0.282371
425 0.294659
430 0.223699
435 0.258086
440 0.281181
445 0.22199
450 0.207693
455 0.251788
460 0.2155
465 0.212408
470 0.297948
475 0.29375
480 0.287621
485 0.308635
490 0.261649
495 0.359914
500 0.249226
505 0.306494
510 0.340501
515 0.335609
520 0.397698
525 0.471881
530 0.6501
535 0.874705
540 20.0511
545 339.3
550 569.622
555 193.763
560 23.4995
565 3.37259
570 0.993933
575 0.655494
580 0.488678
585 0.46276
590 0.475922
595 0.523679
600 0.155687
Ex : 558
200 0.22812
205 0.18045
210 0.154928
215 0.213109
220 0.236982
225 0.248386
230 0.237389
235 0.275974
240 0.225818
245 0.207928
250 0.281558
255 0.220127
260 0.183777
265 0.276014
270 0.177541
275 0.168789
280 0.239041
285 0.181129
290 0.194066
295 0.262612
300 0.296037
305 0.203706
310 0.198098
315 0.24786
320 0.208071
325 0.200123
330 0.184524
335 0.140384
340 0.218876
345 0.250769
350 0.317096
355 0.212047
360 0.242515
365 0.200844
370 0.314368
375 0.243116
380 0.23914
385 0.215976
390 0.210339
395 0.249729
400 0.244236
405 0.256487
410 0.238907
415 0.265007
420 0.284337
425 0.191674
430 0.354256
435 0.200231
440 0.25901
445 0.268281
450 0.268093
455 0.298046
460 0.225256
465 0.327486
470 0.253688
475 0.276524
480 0.370938
485 0.259971
490 0.388191
495 0.271894
500 0.210932
505 0.267902
510 0.279532
515 0.375461
520 0.414523
525 0.472034
530 0.564403
535 0.65352
540 0.820296
545 16.951
550 321.726
555 545.273
560 166.912
565 20.3458
570 3.04079
575 0.947825
580 0.61279
585 0.430602
590 0.409484
595 0.414244
600 0.430067
Ex : 563
200 0.224805
205 0.184287
210 0.204032
215 0.242066
220 0.223286
225 0.162323
230 0.227406
235 0.270036
240 0.182533
245 0.248957
250 0.181872
255 0.195391
260 0.294787
265 0.279978
270 0.258557
275 0.187854
280 0.234131
285 0.331467
290 0.228176
295 0.264301
300 0.236543
305 0.129854
310 0.228702
315 0.212516
320 0.237684
325 0.162405
330 0.217594
335 0.213399
340 0.272803
345 0.240266
350 0.285989
355 0.163146
360 0.264726
365 0.218664
370 0.224751
375 0.201203
380 0.215899
385 0.255645
390 0.254256
395 0.401196
400 0.404551
405 0.243652
410 0.261599
415 0.300917
420 0.292719
425 0.272438
430 0.291269
435 0.29393
440 0.246612
445 0.189589
450 0.187225
455 0.311385
460 0.266118
465 0.257095
470 0.254055
475 0.251731
480 0.315319
485 0.220371
490 0.356069
495 0.332046
500 0.227657
505 0.27901
510 0.290283
515 0.259257
520 0.352725
525 0.359581
530 0.343767
535 0.49734
540 0.531318
545 0.787799
550 16.9391
555 310.798
560 545.792
565 163.299
570 19.7778
575 2.86225
580 0.790699
585 0.643959
590 0.588035
595 0.374389
600 0.042604
Ex : 568
200 0.170474
205 0.189698
210 0.22911
215 0.175605
220 0.244451
225 0.266724
230 0.1576
235 0.387993
240 0.340442
245 0.22806
250 0.224449
255 0.282605
260 0.17313
265 0.192961
270 0.235449
275 0.199985
280 0.331593
285 0.223212
290 0.268485
295 0.210707
300 0.231384
305 0.277045
310 0.223587
315 0.188233
320 0.225648
325 0.217623
330 0.27485
335 0.205114
340 0.275116
345 0.175599
350 0.238779
355 0.217642
360 0.192408
365 0.228065
370 0.239655
375 0.270355
380 0.302576
385 0.298297
390 0.288725
395 0.269243
400 0.272228
405 0.243291
410 0.32126
415 0.251169
420 0.352457
425 0.394083
430 0.272771
435 0.305378
440 0.211963
445 0.293109
450 0.296473
455 0.25158
460 0.241509
465 0.295408
470 0.256394
475 0.241657
480 0.278485
485 0.293133
490 0.20518
495 0.389041
500 0.302911
505 0.275007
510 0.350593
515 0.335718
520 0.38464
525 0.357268
530 0.373976
535 0.405853
540 0.420463
545 0.6322
550 0.733922
555 13.0085
560 261.927
565 491.43
570 178.497
575 21.6423
580 3.06112
585 0.800336
590 0.576226
595 0.402833
600 0.109974
Ex : 573
200 0.231414
205 0.267515
210 0.247849
215 0.149366
220 0.136453
225 0.256825
230 0.235612
235 0.265511
240 0.25894
245 0.278738
250 0.315656
255 0.304654
260 0.249611
265 0.301805
270 0.324034
275 0.244456
280 0.350166
285 0.199534
290 0.191824
295 0.255882
300 0.342015
305 0.25081
310 0.118861
315 0.187388
320 0.234562
325 0.230019
330 0.17781
335 0.244348
340 0.26079
345 0.381302
350 0.268599
355 0.179255
360 0.264
365 0.309342
370 0.307314
375 0.255836
380 0.277638
385 0.266895
390 0.311215
395 0.228558
400 0.172871
405 0.341244
410 0.299549
415 0.230519
420 0.266382
425 0.35576
430 0.329542
435 0.305416
440 0.363274
445 0.255526
450 0.376411
455 0.313687
460 0.345738
465 0.302277
470 0.28063
475 0.284514
480 0.195102
485 0.351586
490 0.242868
495 0.235127
500 0.328158
505 0.247959
510 0.225747
515 0.224666
520 0.335442
525 0.43066
530 0.330337
535 0.384045
540 0.493528
545 0.438844
550 0.595764
555 0.642868
560 11.8113
565 238.706
570 448.797
575 148.598
580 18.0749
585 2.55732
590 0.68284
595 0.455267
600 0.35616
Ex : 578
200 0.206083
205 0.180417
210 0.270864
215 0.151032
220 0.311749
225 0.221905
230 0.259853
235 0.277368
240 0.207107
245 0.201964
250 0.188786
255 0.291838
260 0.433627
265 0.232267
270 0.375343
275 0.232963
280 0.252051
285 0.230247
290 0.268659
295 0.266724
300 0.255434
305 0.225506
310 0.197634
315 0.214858
320 0.230693
325 0.181695
330 0.230293
335 0.263976
340 0.337735
345 0.304918
350 0.199266
355 0.267717
360 0.286258
365 0.288156
370 0.259798
375 0.262791
380 0.355807
385 0.272739
390 0.196102
395 0.24208
400 0.239418
405 0.228066
410 0.173183
415 0.410885
420 0.202988
425 0.214526
430 0.262644
435 0.318838
440 0.288045
445 0.328926
450 0.476603
455 0.281149
460 0.218335
465 0.335299
470 0.345337
475 0.239163
480 0.278867
485 0.295317
490 0.237209
495 0.285049
500 0.253988
505 0.281529
510 0.321706
515 0.237775
520 0.433303
525 0.444991
530 0.291021
535 0.261709
540 0.357509
545 0.338802
550 0.389622
555 0.492177
560 0.601944
565 10.0029
570 214.532
575 469.222
580 166.219
585 20.0665
590 2.82632
595 0.679747
600 0.0773526
Ex : 583
200 0.261717
205 0.224991
210 0.30192
215 0.254113
220 0.180773
225 0.206141
230 0.269421
235 0.34138
240 0.241561
245 0.135143
250 0.25714
255 0.266499
260 0.210001
265 0.18401
270 0.226163
275 0.210151
280 0.195231
285 0.227489
290 0.280372
295 0.28921
300 0.180637
305 0.242145
310 0.194631
315 0.341693
320 0.310472
325 0.274158
330 0.332071
335 0.210563
340 0.300214
345 0.253457
350 0.228908
355 0.31392
360 0.293617
365 0.295273
370 0.304326
375 0.299555
380 0.322043
385 0.281612
390 0.220196
395 0.245071
400 0.253017
405 0.311849
410 0.308306
415 0.379096
420 0.309921
425 0.286616
430 0.30967
435 0.309399
440 0.315898
445 0.237053
450 0.363459
455 0.277113
460 0.357677
465 0.347401
470 0.332892
475 0.37725
480 0.328064
485 0.330952
490 0.259555
495 0.282431
500 0.283814
505 0.333096
510 0.334474
515 0.287962
520 0.249895
525 0.277185
530 0.259943
535 0.341102
540 0.327114
545 0.351644
550 0.475579
555 0.447784
560 0.517839
565 0.551298
570 8.83882
575 188.933
580 335.362
585 102.539
590 12.5584
595 1.91397
600 1.37178
Ex : 588
200 0.243708
205 0.356407
210 0.24747
215 0.250895
220 0.186549
225 0.16948
230 0.228677
235 0.266036
240 0.242148
245 0.206184
250 0.340333
255 0.263522
260 0.31247
265 0.230759
270 0.292643
275 0.174553
280 0.193666
285 0.177188
290 0.248076
295 0.22422
300 0.205696
305 0.220114
310 0.196464
315 0.252055
320 0.222859
325 0.176552
330 0.154702
335 0.36291
340 0.312869
345 0.27609
350 0.363941
355 0.29626
360 0.294854
365 0.223409
370 0.250855
375 0.267322
380 0.261329
385 0.285753
390 0.299793
395 0.263366
400 0.216539
405 0.247539
410 0.236409
415 0.260545
420 0.179082
425 0.39414
430 0.244952
435 0.246776
440 0.285617
445 0.15282
450 0.351037
455 0.326478
460 0.223323
465 0.280642
470 0.265787
475 0.26244
480 0.327635
485 0.233849
490 0.257479
495 0.216302
500 0.386829
505 0.367396
510 0.292442
515 0.295631
520 0.334411
525 0.391872
530 0.311584
535 0.320342
540 0.373614
545 0.218175
550 0.288813
555 0.350885
560 0.343739
565 0.445688
570 0.707791
575 7.14398
580 156.974
585 299.098
590 106.902
595 13.1154
600 2.17017
Ex : 593
200 0.203359
205 0.247493
210 0.20986
215 0.213336
220 0.249853
225 0.216825
230 0.252469
235 0.210254
240 0.194197
245 0.291749
250 0.173561
255 0.195304
260 0.269438
265 0.223715
270 0.264293
275 0.24545
280 0.237307
285 0.304231
290 0.192724
295 0.363998
300 0.196681
305 0.256489
310 0.278309
315 0.148302
320 0.210702
325 0.322074
330 0.256079
335 0.33232
340 0.246181
345 0.176154
350 0.251028
355 0.21238
360 0.230442
365 0.220631
370 0.249167
375 0.341802
380 0.383384
385 0.280157
390 0.311882
395 0.299338
400 0.319829
405 0.283238
410 0.287525
415 0.256006
420 0.260793
425 0.313302
430 0.332718
435 0.240981
440 0.282342
445 0.292807
450 0.22047
455 0.279393
460 0.308702
465 0.24036
470 0.286323
475 0.272354
480 0.193269
485 0.247495
490 0.282635
495 0.268099
500 0.262437
505 0.37162
510 0.268229
515 0.239478
520 0.288916
525 0.238284
530 0.293754
535 0.30079
540 0.417802
545 0.284912
550 0.363801
555 0.34137
560 0.330833
565 0.519391
570 0.492477
575 0.536028
580 6.10065
585 136.893
590 248.825
595 78.5662
600 13.4943
Ex : 598
200 0.219366
205 0.229247
210 0.257816
215 0.259318
220 0.307626
225 0.235764
230 0.301583
235 0.277249
240 0.210619
245 0.169624
250 0.394042
255 0.202864
260 0.200533
265 0.305138
270 0.247627
275 0.306021
280 0.252063
285 0.280607
290 0.238644
295 0.217588
300 0.296842
305 0.256751
310 0.209906
315 0.237363
320 0.296785
325 0.226553
330 0.31813
335 0.236179
340 0.325616
345 0.224733
350 0.270419
355 0.245573
360 0.337481
365 0.347549
370 0.429486
375 0.337232
380 0.276419
385 0.396808
390 0.373958
395 0.249002
400 0.221598
405 0.288496
410 0.356933
415 0.367295
420 0.341921
425 0.294808
430 0.224744
435 0.334375
440 0.247382
445 0.27842
450 0.227732
455 0.252077
460 0.290894
465 0.273868
470 0.266189
475 0.277306
480 0.283991
485 0.351475
490 0.344613
495 0.318397
500 0.244073
505 0.231476
510 0.305411
515 0.258167
520 0.339256
525 0.340039
530 0.283834
535 0.323904
540 0.402799
545 0.310283
550 0.49314
555 0.379325
560 0.294596
565 0.415615
570 0.342754
575 0.512096
580 0.514657
585 5.98485
590 123.578
595 217.495
600 144.99
Ex : 603
200 0.309519
205 0.189784
210 0.383646
215 0.31508
220 0.388469
225 0.291769
230 0.246446
235 0.228306
240 0.25978
245 0.269335
250 0.348562
255 0.379737
260 0.299339
265 0.247801
270 0.283509
275 0.229575
280 0.261119
285 0.394833
290 0.267956
295 0.329243
300 0.259917
305 0.349456
310 0.180252
315 0.249297
320 0.215004
325 0.25355
330 0.231719
335 0.281496
340 0.348882
345 0.252139
350 0.344721
355 0.256327
360 0.279027
365 0.378364
370 0.38633
375 0.312368
380 0.307757
385 0.334601
390 0.324635
395 0.305336
400 0.369115
405 0.24723
410 0.288338
415 0.458557
420 0.20126
425 0.298742
430 0.327712
435 0.320442
440 0.28805
445 0.290325
450 0.368645
455 0.312915
460 0.209184
465 0.313896
470 0.228342
475 0.35337
480 0.289631
485 0.269822
490 0.279344
495 0.435507
500 0.404728
505 0.336495
510 0.309917
515 0.220915
520 0.229964
525 0.259022
530 0.376046
535 0.42064
540 0.297642
545 0.328312
550 0.352838
555 0.313771
560 0.251507
565 0.249408
570 0.36511
575 0.389118
580 0.5033
585 0.583328
590 6.03432
595 104.233
600 202.82
