File format V 1.0
ven. 13. janv. 13:45:15 2017
Operator : 
Comments : 

=============================================
SpectroFluorometer parameters
Mode : 3D measurement
Data : Fluorescence
Phospho. : Ordinary
Spectrum : Fluorescence

Scan speed : 2400 nm/mn
Response : 100 ms
PM Voltage : 700 V
Shutter : On

Lambda Ex. Start : 203
Lambda Ex. End : 603
Lambda Ex. Step : 5
Ex. Slit : 5 nm

Lambda Em. Start : 200
Lambda Em. End : 600
Lambda Em. Step : 5
Em. Slit : 5 nm

Repetition : 1
Decal lambda em : 10
=============================================
DATA
Ex : 203
200 7.23558
205 7.47819
210 5.04857
215 5.30226
220 6.31494
225 7.13624
230 5.32206
235 5.85179
240 4.32099
245 5.65481
250 6.60216
255 4.57771
260 4.79763
265 6.46482
270 8.68631
275 5.33087
280 5.42063
285 6.76413
290 4.32328
295 5.58022
300 7.8673
305 7.56395
310 6.09704
315 4.39661
320 4.6668
325 4.37997
330 5.0928
335 7.34771
340 6.08616
345 5.69389
350 4.7015
355 7.52424
360 5.63919
365 5.74693
370 5.70774
375 7.73495
380 6.30876
385 10.4841
390 8.45013
395 8.43217
400 8.0841
405 5.04814
410 4.95311
415 5.63375
420 6.52952
425 6.65242
430 4.50416
435 6.54956
440 3.61493
445 7.87507
450 7.41486
455 7.35223
460 6.06354
465 7.5851
470 5.84805
475 5.29297
480 6.60394
485 8.57068
490 10.3207
495 4.79211
500 5.31583
505 5.55459
510 8.47326
515 6.04285
520 8.21624
525 9.56901
530 7.31778
535 7.31387
540 6.66794
545 6.91877
550 5.06287
555 4.1253
560 5.18302
565 7.33986
570 4.6297
575 7.96847
580 6.17758
585 4.76475
590 4.04351
595 5.30151
600 5.92051
Ex : 208
200 5.79808
205 6.71692
210 7.79129
215 4.34487
220 6.64495
225 7.8458
230 4.32329
235 6.06111
240 4.15647
245 3.93575
250 6.34869
255 6.13767
260 8.96391
265 4.8977
270 6.22492
275 6.52221
280 7.88396
285 4.41642
290 5.7701
295 5.66724
300 5.81156
305 6.1991
310 5.57553
315 8.16514
320 5.78385
325 5.67418
330 4.80169
335 7.78098
340 5.102
345 7.11583
350 4.93964
355 5.88798
360 6.16892
365 8.07192
370 5.78217
375 7.32342
380 6.00425
385 3.97676
390 7.89831
395 6.30258
400 4.44177
405 4.7313
410 6.27627
415 6.29209
420 8.06887
425 4.73638
430 5.35663
435 4.91848
440 7.20833
445 6.03574
450 6.08502
455 4.87258
460 5.36883
465 6.36693
470 7.67318
475 9.91948
480 4.85421
485 8.16607
490 6.7624
495 6.3195
500 4.45385
505 6.12894
510 8.56573
515 6.8162
520 6.30507
525 5.98548
530 4.79536
535 5.69167
540 8.37148
545 3.95047
550 6.12705
555 6.18388
560 4.91879
565 5.84699
570 7.35438
575 5.67627
580 5.52218
585 4.01028
590 5.00975
595 6.77352
600 0.770801
Ex : 213
200 5.00459
205 3.99252
210 4.39655
215 5.76319
220 3.40155
225 5.403
230 6.15779
235 5.20971
240 4.82028
245 6.02502
250 5.72165
255 3.72749
260 6.70484
265 4.58582
270 8.85216
275 5.73098
280 5.65802
285 11.033
290 5.81253
295 9.46194
300 8.75716
305 8.66032
310 5.06824
315 6.15625
320 6.46088
325 8.27798
330 9.19345
335 9.94602
340 7.02366
345 5.40359
350 7.03679
355 6.22177
360 5.24113
365 6.4803
370 7.13733
375 6.36652
380 3.30925
385 5.14043
390 9.67161
395 5.88437
400 3.48708
405 7.22275
410 4.56672
415 8.75107
420 5.79032
425 10.0032
430 5.79197
435 4.35512
440 8.48815
445 8.09857
450 5.65762
455 6.56565
460 5.27209
465 7.94039
470 5.86474
475 5.50832
480 6.04974
485 6.24885
490 7.37041
495 8.31454
500 6.20009
505 8.46426
510 6.55014
515 8.10004
520 6.44576
525 7.23513
530 4.37203
535 5.64153
540 7.95317
545 8.08155
550 9.27092
555 4.50501
560 6.66174
565 4.5843
570 4.98238
575 5.04398
580 3.83424
585 4.32914
590 3.96256
595 6.24245
600 3.66438
Ex : 218
200 3.8296
205 6.10912
210 5.79482
215 6.29315
220 5.0449
225 4.1991
230 7.39848
235 6.07132
240 4.3873
245 10.04
250 5.67755
255 5.15235
260 5.34296
265 6.38112
270 5.78662
275 6.51121
280 6.21043
285 6.34015
290 4.30272
295 4.88813
300 6.51535
305 7.45318
310 5.98889
315 4.74224
320 6.38778
325 5.64404
330 6.4149
335 5.43866
340 5.25795
345 5.06611
350 5.30565
355 5.99449
360 4.83597
365 5.87968
370 6.86015
375 4.06224
380 7.16732
385 7.90112
390 4.25199
395 6.10053
400 7.15506
405 8.77009
410 5.98342
415 6.18174
420 5.88677
425 7.79611
430 7.15185
435 4.57301
440 7.48402
445 5.53971
450 6.46842
455 5.52964
460 5.97405
465 6.94951
470 6.8944
475 5.07519
480 4.72715
485 6.88709
490 5.55559
495 7.75056
500 8.28439
505 6.00852
510 4.58946
515 5.40815
520 7.51311
525 4.28801
530 4.21776
535 5.97846
540 4.53448
545 5.88757
550 5.8083
555 6.22435
560 7.45887
565 5.11174
570 6.45481
575 3.55465
580 6.64354
585 5.25614
590 6.16909
595 6.78129
600 6.84851
Ex : 223
200 7.6129
205 6.74645
210 4.44486
215 8.16092
220 4.98045
225 3.56007
230 4.95013
235 4.15436
240 5.80158
245 5.84046
250 7.42543
255 5.52703
260 3.93591
265 6.8596
270 8.13179
275 7.48163
280 4.95371
285 7.57129
290 6.8204
295 4.25421
300 5.2566
305 7.23707
310 4.17787
315 4.51848
320 4.67136
325 4.31272
330 4.25018
335 8.08143
340 7.32639
345 7.38045
350 8.33268
355 8.55514
360 5.78379
365 5.68809
370 4.01889
375 4.95975
380 5.54728
385 8.56911
390 3.77234
395 5.41517
400 6.76934
405 7.90743
410 4.95049
415 9.04499
420 5.40613
425 5.77167
430 8.08076
435 7.47504
440 8.93388
445 5.76186
450 5.68021
455 7.04445
460 5.89251
465 4.19074
470 6.04397
475 5.41814
480 6.9027
485 9.06748
490 4.58046
495 6.71316
500 6.37656
505 7.56032
510 8.25569
515 5.28497
520 6.22327
525 5.3568
530 5.89104
535 7.60952
540 4.01101
545 6.24161
550 3.22118
555 4.4902
560 6.52067
565 5.56647
570 6.12474
575 6.97764
580 6.1153
585 5.74841
590 4.99124
595 3.96771
600 2.60372
Ex : 228
200 5.04273
205 4.8204
210 6.19414
215 4.34856
220 5.93516
225 7.5617
230 6.7847
235 5.43891
240 6.11339
245 5.26215
250 5.61152
255 5.89537
260 3.96997
265 3.82882
270 8.48339
275 5.38105
280 4.41146
285 3.90751
290 4.55453
295 4.71299
300 5.61322
305 5.64844
310 8.54276
315 6.08925
320 5.35038
325 4.34412
330 4.58158
335 5.25299
340 6.22709
345 5.0857
350 4.90859
355 4.29272
360 5.03077
365 6.0991
370 5.69506
375 4.12323
380 8.86208
385 5.19675
390 5.85154
395 6.83537
400 5.98429
405 7.95006
410 5.50049
415 5.15542
420 4.39463
425 4.50929
430 6.49789
435 8.28958
440 7.6412
445 6.00558
450 4.52732
455 4.94621
460 5.4616
465 5.22079
470 4.14258
475 7.09211
480 4.97522
485 5.77585
490 8.1768
495 6.24771
500 4.59663
505 6.41441
510 9.58061
515 4.41449
520 4.71371
525 4.64551
530 4.46166
535 6.40946
540 8.52198
545 7.00584
550 6.68503
555 5.46253
560 5.9588
565 4.91921
570 5.2836
575 6.35394
580 5.58572
585 5.47714
590 5.16555
595 4.7564
600 1.20591
Ex : 233
200 3.78632
205 7.60269
210 4.75302
215 8.60059
220 5.88886
225 5.09414
230 6.18484
235 5.05142
240 6.13945
245 4.49767
250 4.20794
255 4.92825
260 5.66535
265 4.77352
270 3.06209
275 3.66445
280 4.04238
285 7.17813
290 4.50331
295 6.04168
300 3.24374
305 3.48549
310 5.91372
315 4.36239
320 4.60213
325 3.77802
330 6.0595
335 4.82749
340 5.31225
345 4.57728
350 6.53466
355 4.93688
360 6.55562
365 4.86685
370 4.33766
375 5.2073
380 5.1893
385 4.17166
390 4.52848
395 6.94518
400 3.91178
405 3.57545
410 4.3008
415 8.40274
420 6.00243
425 6.48231
430 4.89991
435 4.54551
440 8.55267
445 8.77839
450 4.92508
455 5.49893
460 4.73517
465 5.96414
470 6.67967
475 7.01358
480 6.32126
485 6.81386
490 8.87522
495 5.40803
500 5.8822
505 4.91667
510 4.06318
515 5.22203
520 4.33558
525 4.8568
530 6.1532
535 6.22791
540 5.12544
545 6.07001
550 4.53338
555 8.71798
560 6.26286
565 4.97732
570 6.80251
575 6.94562
580 5.00367
585 4.08126
590 5.30973
595 6.2738
600 0.713934
Ex : 238
200 6.1362
205 4.51116
210 6.51302
215 3.39305
220 4.33711
225 4.15215
230 4.61807
235 8.87553
240 5.7497
245 5.50333
250 3.2576
255 3.75439
260 6.43055
265 3.16632
270 4.09579
275 4.1797
280 7.03768
285 6.22404
290 6.33943
295 4.8948
300 4.10512
305 5.69742
310 3.09941
315 3.25363
320 4.34323
325 5.17218
330 5.55544
335 3.50811
340 6.23395
345 6.62324
350 5.12913
355 5.99314
360 5.5915
365 6.24892
370 4.94836
375 4.34201
380 3.84527
385 4.25094
390 3.99621
395 3.54798
400 6.04144
405 7.14954
410 5.23118
415 5.62063
420 3.3651
425 3.80505
430 4.10936
435 6.00235
440 5.05678
445 4.99654
450 5.48299
455 5.70551
460 3.9598
465 4.01154
470 5.28326
475 4.52021
480 3.67755
485 6.28588
490 4.292
495 5.54835
500 3.4825
505 5.61469
510 4.16034
515 5.94114
520 4.24073
525 6.61937
530 4.20979
535 3.63408
540 4.23785
545 5.3124
550 6.32055
555 4.44843
560 6.13581
565 4.85495
570 3.30543
575 3.33016
580 5.08292
585 3.84157
590 5.31296
595 4.4707
600 0.951851
Ex : 243
200 4.17347
205 3.63522
210 4.50752
215 4.30636
220 3.0673
225 4.01579
230 4.52825
235 4.04534
240 4.39708
245 3.1256
250 4.09903
255 4.25483
260 5.92186
265 3.61058
270 4.25699
275 3.30037
280 3.06625
285 3.21183
290 3.1713
295 2.97143
300 2.8953
305 3.37453
310 3.12318
315 5.06207
320 3.26651
325 3.83242
330 4.7209
335 3.68988
340 3.83405
345 6.29817
350 4.54454
355 3.72312
360 6.35582
365 4.08845
370 4.39759
375 3.29943
380 4.47859
385 4.07542
390 5.39256
395 5.46889
400 6.70703
405 4.1891
410 5.46712
415 5.22153
420 4.31625
425 5.91439
430 4.59724
435 3.72316
440 4.75975
445 7.01465
450 4.26502
455 4.17478
460 5.58144
465 6.74669
470 5.39991
475 5.49448
480 6.04673
485 2.50684
490 4.85991
495 5.06544
500 4.10602
505 5.4206
510 5.01782
515 5.15482
520 5.41655
525 7.36402
530 6.4137
535 3.52008
540 4.89105
545 4.96473
550 2.92414
555 5.16166
560 5.06598
565 4.6426
570 5.21508
575 4.24413
580 5.70982
585 3.21056
590 3.57531
595 3.57395
600 0.406701
Ex : 248
200 5.11527
205 4.56087
210 4.60291
215 2.77495
220 2.58416
225 4.17281
230 2.82224
235 2.35194
240 2.37238
245 3.1995
250 3.18823
255 4.22655
260 3.2699
265 2.67165
270 3.25281
275 3.52757
280 4.61089
285 3.60138
290 4.83573
295 4.51244
300 3.62664
305 2.99469
310 5.51651
315 3.26558
320 3.6076
325 3.5428
330 3.95831
335 2.45028
340 3.41404
345 4.37118
350 3.06208
355 4.14466
360 2.93417
365 6.22294
370 2.7803
375 4.70348
380 2.54744
385 2.94593
390 4.14815
395 3.82377
400 3.86577
405 5.32824
410 5.02409
415 5.64749
420 3.28048
425 4.0312
430 3.4617
435 3.79017
440 4.48146
445 5.70096
450 5.3567
455 3.69469
460 3.02351
465 3.40459
470 3.89426
475 2.97028
480 4.04372
485 4.4941
490 2.47964
495 3.64714
500 5.08048
505 3.88663
510 4.50624
515 3.09154
520 4.27045
525 3.85198
530 4.85893
535 5.17065
540 4.45547
545 3.54246
550 2.28725
555 2.5488
560 2.77852
565 5.78964
570 4.62038
575 3.53577
580 5.41729
585 5.03194
590 4.75296
595 2.76957
600 0.315166
Ex : 253
200 3.01856
205 5.58055
210 2.86689
215 3.60927
220 3.07991
225 3.8069
230 2.49
235 4.22696
240 4.28359
245 3.31084
250 3.58124
255 3.1772
260 2.00766
265 3.13817
270 2.93656
275 4.10271
280 3.30869
285 3.31846
290 3.00965
295 3.17103
300 3.58886
305 3.68564
310 2.40493
315 2.90425
320 3.11816
325 2.4561
330 2.92498
335 2.89566
340 2.39663
345 2.5559
350 3.35427
355 3.23037
360 2.32018
365 2.53942
370 5.34933
375 4.58393
380 3.22111
385 3.29784
390 3.01299
395 3.04126
400 4.0934
405 3.72794
410 2.96046
415 4.72093
420 3.85277
425 2.96519
430 3.87585
435 5.79709
440 2.59732
445 2.50895
450 3.48194
455 2.78522
460 3.58135
465 3.82975
470 3.6235
475 2.6875
480 3.45871
485 4.24836
490 4.13772
495 3.58252
500 3.05116
505 2.82349
510 3.61673
515 3.1182
520 3.91733
525 3.11285
530 4.01868
535 3.21931
540 2.25559
545 3.10841
550 2.83728
555 4.96125
560 4.43425
565 4.22534
570 3.3074
575 3.10365
580 2.57977
585 4.43958
590 2.9923
595 2.47886
600 0.282085
Ex : 258
200 2.56859
205 2.58548
210 2.41176
215 2.87256
220 2.1376
225 1.62783
230 2.24618
235 2.25391
240 3.22357
245 2.09106
250 2.17507
255 2.62184
260 2.16256
265 2.00468
270 3.38869
275 2.34258
280 1.71752
285 2.04698
290 2.09432
295 3.43636
300 2.48347
305 2.58497
310 2.41578
315 2.4922
320 2.75156
325 2.30796
330 2.1115
335 1.76178
340 1.91159
345 1.90808
350 2.27963
355 2.04731
360 3.18934
365 2.37495
370 3.01486
375 3.07906
380 2.4305
385 2.56667
390 2.68877
395 2.8277
400 1.95281
405 3.45572
410 2.73511
415 2.72407
420 2.6495
425 2.70344
430 2.53488
435 2.58833
440 4.52595
445 3.09582
450 3.36849
455 2.66139
460 2.553
465 3.26438
470 2.47797
475 2.63137
480 3.57787
485 3.57955
490 2.73983
495 2.65935
500 3.36485
505 3.11982
510 2.35705
515 1.76251
520 2.8051
525 2.52593
530 3.08011
535 3.07078
540 3.66643
545 3.14332
550 3.89186
555 3.06226
560 3.40614
565 2.0317
570 2.46975
575 1.93809
580 2.78804
585 3.54972
590 2.20082
595 1.8305
600 3.10861
Ex : 263
200 2.28106
205 1.74634
210 2.39557
215 1.63965
220 1.79723
225 2.13331
230 2.1069
235 1.65001
240 1.44653
245 2.70739
250 2.21813
255 1.91859
260 2.09029
265 1.98787
270 2.15475
275 2.22743
280 1.9035
285 2.40267
290 2.54114
295 2.37956
300 3.01884
305 1.90427
310 1.65252
315 2.69019
320 1.61527
325 2.22086
330 2.54602
335 1.89079
340 1.8337
345 1.829
350 2.62696
355 2.5424
360 2.1219
365 2.40238
370 2.22075
375 2.00827
380 3.21185
385 2.37236
390 2.3201
395 2.17783
400 1.9465
405 2.76459
410 2.33721
415 2.36012
420 2.67219
425 2.5342
430 2.51873
435 1.96413
440 1.91125
445 4.13697
450 1.95386
455 2.59675
460 2.43693
465 2.17376
470 2.34634
475 3.33806
480 2.38394
485 3.26362
490 1.49288
495 1.70901
500 1.77679
505 2.31406
510 2.27347
515 2.89172
520 2.84908
525 2.7873
530 2.40823
535 1.32399
540 2.76426
545 2.19515
550 1.79483
555 1.65068
560 2.00963
565 1.86551
570 1.46167
575 1.71336
580 2.14065
585 1.57643
590 2.28272
595 2.04071
600 0.882108
Ex : 268
200 1.89888
205 1.74108
210 1.44038
215 1.10295
220 1.45705
225 1.28358
230 1.63976
235 1.22978
240 1.45017
245 1.80544
250 1.30869
255 1.51181
260 2.10749
265 1.26965
270 1.55946
275 1.76446
280 1.26076
285 1.52899
290 1.6849
295 1.49362
300 1.30684
305 1.04154
310 1.05206
315 1.42729
320 1.47015
325 1.56037
330 1.55124
335 1.56013
340 1.41225
345 2.16727
350 2.08772
355 1.97833
360 1.78776
365 1.64544
370 1.25069
375 2.01491
380 1.75214
385 1.62189
390 1.89026
395 1.83543
400 1.64204
405 2.42188
410 2.41311
415 1.96245
420 1.95059
425 2.24404
430 1.80594
435 2.08205
440 2.14857
445 1.50924
450 2.12117
455 2.24338
460 1.72153
465 2.11972
470 1.59094
475 2.05204
480 1.70831
485 1.38267
490 1.71859
495 2.16837
500 2.01584
505 2.05334
510 1.96524
515 3.38803
520 2.04222
525 2.89546
530 2.26374
535 2.01658
540 2.50514
545 1.46409
550 1.79669
555 1.76418
560 1.67215
565 2.04714
570 1.12682
575 1.57663
580 1.73584
585 1.83756
590 1.61953
595 1.40947
600 4.04281
Ex : 273
200 1.65354
205 1.27603
210 0.931847
215 1.83016
220 1.06562
225 2.3523
230 1.23122
235 1.31961
240 1.14726
245 1.10466
250 1.47079
255 1.38784
260 1.19214
265 1.2198
270 1.09737
275 1.38408
280 1.15357
285 1.63988
290 1.03118
295 1.2767
300 1.06943
305 1.25892
310 1.51515
315 1.32184
320 1.01941
325 1.34182
330 1.5363
335 1.10525
340 1.69528
345 1.12415
350 1.9424
355 1.40565
360 1.27602
365 1.495
370 1.41711
375 1.01303
380 1.63228
385 1.68356
390 1.65332
395 1.46831
400 1.46523
405 1.53854
410 1.31961
415 2.07439
420 1.82373
425 1.58838
430 2.8339
435 1.22316
440 2.16825
445 1.89744
450 2.04813
455 2.26882
460 2.44763
465 1.88111
470 1.36171
475 1.40053
480 1.43493
485 1.37393
490 1.50935
495 1.31644
500 1.45836
505 1.1652
510 1.31991
515 0.86894
520 1.53762
525 1.40015
530 1.34515
535 1.37632
540 1.55089
545 1.5238
550 1.13918
555 1.63068
560 1.61657
565 1.96092
570 1.51134
575 1.09048
580 1.36204
585 1.34741
590 1.26607
595 1.48058
600 0.630852
Ex : 278
200 1.16501
205 1.20926
210 1.12707
215 1.27206
220 0.893406
225 1.11038
230 0.794407
235 0.774629
240 0.89406
245 0.886471
250 0.705344
255 0.910483
260 0.730838
265 1.02245
270 1.2639
275 1.50198
280 0.596796
285 0.833169
290 1.74976
295 0.974172
300 0.985195
305 0.948712
310 1.0371
315 1.04161
320 0.828536
325 0.919677
330 1.22067
335 0.908876
340 1.16197
345 1.2608
350 1.95031
355 0.937606
360 1.08018
365 1.06988
370 1.67976
375 1.92493
380 1.52912
385 1.75673
390 1.68334
395 1.15534
400 1.79448
405 1.79351
410 1.73285
415 1.47268
420 1.90431
425 1.80594
430 2.41652
435 1.29023
440 1.39319
445 2.04871
450 1.60568
455 2.27825
460 1.8256
465 1.01991
470 0.908241
475 0.999949
480 1.46692
485 1.15152
490 1.22462
495 1.67122
500 1.70189
505 1.76349
510 1.17212
515 0.937462
520 0.936842
525 0.656871
530 0.803422
535 0.649543
540 1.30348
545 1.66626
550 2.29313
555 1.92295
560 1.74808
565 1.03892
570 1.08159
575 1.38541
580 0.858891
585 0.922131
590 1.23424
595 1.12107
600 1.33872
Ex : 283
200 1.02208
205 1.06734
210 0.816607
215 0.880871
220 0.670962
225 0.649742
230 0.80769
235 0.952919
240 0.690432
245 0.797646
250 0.641233
255 0.680368
260 0.606709
265 0.821911
270 1.01196
275 0.919633
280 0.728668
285 0.665317
290 0.843672
295 1.1032
300 1.0659
305 1.16829
310 1.05005
315 0.809381
320 0.964646
325 0.937966
330 1.18543
335 0.899551
340 0.855202
345 0.971111
350 0.814168
355 0.826441
360 1.18782
365 1.19775
370 1.0475
375 0.911193
380 1.62766
385 1.02579
390 0.977894
395 1.4323
400 1.3178
405 1.50268
410 1.29319
415 1.6719
420 1.66027
425 1.26373
430 1.52214
435 1.55668
440 0.962208
445 1.2137
450 1.30601
455 1.27259
460 1.29626
465 1.49663
470 1.02579
475 1.1569
480 0.872312
485 1.06229
490 0.988339
495 1.12138
500 1.3247
505 1.08533
510 1.12622
515 0.866353
520 1.14398
525 1.00023
530 0.864685
535 0.673903
540 0.892587
545 0.961054
550 0.830027
555 1.2306
560 1.71537
565 1.63709
570 1.16774
575 0.871896
580 0.883524
585 0.752817
590 0.711549
595 0.505855
600 0.540948
Ex : 288
200 0.850144
205 0.729302
210 0.882965
215 0.90142
220 0.723696
225 0.627949
230 1.05555
235 0.651123
240 0.858484
245 0.66037
250 0.809696
255 0.709798
260 0.645328
265 0.65803
270 1.05817
275 0.730615
280 0.694689
285 1.13981
290 0.602937
295 0.672701
300 0.789019
305 0.829669
310 0.97232
315 1.06302
320 0.94988
325 0.622398
330 0.984578
335 0.876314
340 0.646539
345 1.0069
350 1.16549
355 1.1371
360 1.16184
365 1.13439
370 0.859118
375 1.08018
380 0.933047
385 1.22311
390 1.27771
395 1.78534
400 1.3074
405 1.07014
410 1.22928
415 1.03071
420 0.935563
425 1.17788
430 1.02694
435 1.1565
440 1.17021
445 1.02666
450 1.3156
455 1.01843
460 1.05601
465 0.712681
470 1.45575
475 1.15509
480 1.16388
485 0.877604
490 1.24185
495 0.712611
500 0.839953
505 0.858675
510 0.814945
515 0.717625
520 0.75383
525 0.636037
530 0.835629
535 0.720647
540 0.715231
545 0.486409
550 0.785625
555 0.620808
560 1.00317
565 0.95816
570 1.53029
575 1.07326
580 1.01509
585 0.634064
590 0.640458
595 0.592505
600 1.38592
Ex : 293
200 0.818498
205 0.556335
210 0.849815
215 0.841366
220 0.609183
225 0.596279
230 0.465687
235 0.726048
240 0.58377
245 0.664175
250 0.780708
255 0.50252
260 0.457876
265 0.439569
270 0.773327
275 0.67477
280 0.68015
285 1.1219
290 0.96454
295 0.716671
300 0.694944
305 0.448887
310 0.622328
315 0.50996
320 0.451702
325 0.567504
330 0.69867
335 0.718203
340 0.750454
345 0.847677
350 0.872336
355 0.689334
360 0.903409
365 0.977969
370 0.643546
375 0.801601
380 0.977423
385 0.80753
390 1.12837
395 1.16896
400 0.69018
405 0.758301
410 0.865548
415 1.09076
420 1.02707
425 1.42777
430 1.11401
435 0.949674
440 1.05694
445 1.17882
450 0.885714
455 1.382
460 0.925546
465 1.41531
470 1.09311
475 0.996564
480 0.845141
485 1.00092
490 0.93839
495 0.865001
500 0.809335
505 0.900225
510 0.742773
515 1.03151
520 0.693836
525 0.644277
530 0.63995
535 0.746268
540 0.728135
545 1.08743
550 1.10481
555 1.03099
560 0.718832
565 0.778644
570 0.93833
575 1.37923
580 1.42573
585 1.068
590 1.05971
595 0.763089
600 0.0868366
Ex : 298
200 0.727077
205 0.427331
210 0.596024
215 0.55202
220 0.473535
225 0.524417
230 0.39799
235 0.532932
240 0.732427
245 0.5251
250 0.655179
255 0.566935
260 0.763326
265 0.681357
270 0.470385
275 0.618243
280 0.632027
285 0.825966
290 0.748277
295 0.897857
300 0.564624
305 0.562046
310 0.620457
315 0.539501
320 0.541404
325 0.638158
330 0.654884
335 0.64327
340 0.618765
345 0.851116
350 0.643702
355 0.85437
360 0.798308
365 0.907196
370 0.852389
375 0.882733
380 0.914429
385 0.854775
390 0.813184
395 0.759787
400 0.931562
405 0.940916
410 0.976183
415 1.09478
420 1.1132
425 1.16045
430 0.904121
435 0.776997
440 1.06118
445 0.890469
450 1.09745
455 0.893081
460 1.00437
465 0.927293
470 0.954335
475 0.920536
480 0.762037
485 0.749263
490 0.843771
495 0.61869
500 0.840234
505 0.622434
510 0.60339
515 0.494924
520 0.784644
525 0.56249
530 0.712036
535 0.769489
540 0.541979
545 0.52498
550 0.55701
555 0.58242
560 0.621262
565 0.426553
570 0.523745
575 0.687922
580 0.616065
585 1.02958
590 1.33603
595 1.0344
600 1.06837
Ex : 303
200 0.481687
205 0.347221
210 0.371124
215 0.549647
220 0.451163
225 0.451433
230 0.524745
235 0.818983
240 0.566154
245 0.606606
250 0.406838
255 0.311653
260 0.238512
265 0.409419
270 0.544055
275 0.408252
280 0.483186
285 0.488928
290 0.497067
295 0.79261
300 0.595596
305 0.472109
310 0.397443
315 0.720511
320 0.55104
325 0.452556
330 0.410392
335 0.485452
340 0.930398
345 0.646359
350 0.741733
355 0.720234
360 0.621605
365 0.940013
370 0.780404
375 0.884759
380 0.733304
385 0.629063
390 0.959785
395 0.847723
400 0.960432
405 0.847125
410 0.916289
415 0.945071
420 0.754388
425 1.01536
430 0.814081
435 0.719963
440 1.04438
445 0.99396
450 0.851889
455 0.939267
460 0.748804
465 0.925789
470 1.02201
475 0.994106
480 0.72308
485 0.732745
490 0.771942
495 0.716504
500 0.656814
505 0.535931
510 0.570479
515 0.650984
520 0.596104
525 0.575573
530 0.682526
535 0.658939
540 0.696789
545 0.570019
550 0.526361
555 0.83727
560 0.402518
565 0.575394
570 0.456697
575 0.520229
580 0.597383
585 0.348365
590 0.521866
595 0.92321
600 0.65366
Ex : 308
200 0.580836
205 0.440492
210 0.389598
215 0.419471
220 0.327603
225 0.545613
230 0.356023
235 0.261619
240 0.524534
245 0.554117
250 0.420122
255 0.374537
260 0.474089
265 0.50133
270 0.356829
275 0.397492
280 0.457715
285 0.482345
290 0.326278
295 0.388727
300 0.722717
305 0.720309
310 0.787142
315 0.408395
320 0.48618
325 0.60355
330 0.683863
335 0.414561
340 0.461226
345 0.645237
350 0.559057
355 0.65991
360 0.681213
365 0.802836
370 0.706222
375 0.907392
380 0.889793
385 0.779355
390 0.75554
395 0.895197
400 0.840177
405 0.809324
410 0.976238
415 0.800592
420 1.06835
425 1.13688
430 0.880254
435 0.757157
440 1.01937
445 0.914993
450 0.855418
455 0.888744
460 0.754282
465 0.692864
470 0.885097
475 0.79371
480 0.614821
485 0.509077
490 0.795276
495 0.427655
500 0.677102
505 0.595353
510 0.52222
515 0.616427
520 0.563948
525 0.43671
530 0.438128
535 0.509786
540 0.643832
545 0.595793
550 0.498098
555 0.593882
560 0.403427
565 0.355846
570 0.316549
575 0.470858
580 0.443736
585 0.299667
590 0.332615
595 0.441123
600 1.34915
Ex : 313
200 0.214224
205 0.246574
210 0.411324
215 0.346155
220 0.423353
225 0.333973
230 0.400872
235 0.43496
240 0.468951
245 0.342574
250 0.326679
255 0.726387
260 0.323585
265 0.380542
270 0.213877
275 0.684465
280 0.51599
285 0.377741
290 0.298611
295 0.267369
300 0.265541
305 0.699292
310 0.699714
315 0.604003
320 0.37127
325 0.371742
330 0.628345
335 0.530371
340 0.650214
345 0.583104
350 0.675089
355 0.616541
360 0.881652
365 0.80531
370 0.834587
375 1.14774
380 1.27896
385 1.17529
390 1.46099
395 1.5357
400 1.82316
405 1.73598
410 1.87802
415 1.59486
420 1.40063
425 1.3451
430 1.77486
435 1.39984
440 1.53763
445 1.77685
450 1.6362
455 1.39403
460 1.27685
465 1.38172
470 1.18926
475 1.00872
480 1.09974
485 0.894276
490 1.00242
495 0.800892
500 0.63837
505 0.545114
510 0.781798
515 0.796165
520 0.518645
525 0.537367
530 0.474032
535 0.585924
540 0.462541
545 0.708134
550 0.480879
555 0.488676
560 0.453681
565 0.37001
570 0.555239
575 0.456996
580 0.488662
585 0.355486
590 0.277048
595 0.35749
600 0.040681
Ex : 318
200 0.252591
205 0.175066
210 0.36372
215 0.370894
220 0.290528
225 0.360606
230 0.452595
235 0.452493
240 0.259916
245 0.309744
250 0.297117
255 0.412623
260 0.286824
265 0.375345
270 0.396187
275 0.489565
280 0.319825
285 0.273717
290 0.31201
295 0.300538
300 0.361765
305 0.30696
310 0.643214
315 1.13641
320 0.70194
325 0.590713
330 0.921758
335 1.05612
340 1.43213
345 2.25789
350 3.16245
355 4.04759
360 4.90788
365 5.34087
370 6.81876
375 7.43978
380 9.02517
385 9.92078
390 10.8386
395 11.4887
400 11.1191
405 12.2803
410 12.7073
415 12.8106
420 12.2933
425 11.4544
430 12.293
435 11.3913
440 11.2503
445 10.6869
450 9.94503
455 9.19168
460 8.69124
465 8.38856
470 7.46248
475 6.5868
480 6.11671
485 5.50086
490 5.56148
495 4.29651
500 3.71017
505 3.1468
510 2.99494
515 2.9287
520 2.4291
525 2.08262
530 1.70195
535 1.40462
540 1.53579
545 1.2724
550 1.18361
555 0.96608
560 0.625814
565 0.724874
570 0.56913
575 0.76077
580 0.470679
585 0.380566
590 0.454171
595 0.396588
600 0.181469
Ex : 323
200 0.380691
205 0.365614
210 0.328246
215 0.350071
220 0.258023
225 0.420575
230 0.272199
235 0.22859
240 0.232937
245 0.304596
250 0.278521
255 0.199549
260 0.266564
265 0.24698
270 0.418946
275 0.368021
280 0.273956
285 0.442546
290 0.277682
295 0.441415
300 0.313387
305 0.299472
310 0.490252
315 4.44291
320 18.7119
325 8.1153
330 2.7656
335 3.01192
340 4.35255
345 6.08659
350 9.28889
355 12.9913
360 15.2138
365 18.3489
370 21.1085
375 24.8476
380 29.0704
385 32.0236
390 35.4959
395 37.0242
400 38.7035
405 39.8219
410 41.0982
415 40.5228
420 39.7382
425 38.7888
430 37.0522
435 36.5749
440 35.3216
445 34.4458
450 32.1261
455 30.2734
460 28.3099
465 25.7026
470 24.231
475 21.858
480 19.9109
485 17.6167
490 16.4665
495 13.8548
500 11.9301
505 11.6296
510 9.59219
515 8.81375
520 7.41062
525 6.41965
530 5.47331
535 4.52099
540 4.13494
545 3.89257
550 3.56296
555 2.72769
560 2.19946
565 1.95401
570 1.48128
575 1.20497
580 1.14951
585 0.852445
590 0.683367
595 0.633075
600 0.493634
Ex : 328
200 0.306656
205 0.265974
210 0.246577
215 0.367201
220 0.266907
225 0.453607
230 0.353878
235 0.270455
240 0.241292
245 0.190189
250 0.359907
255 0.386457
260 0.247615
265 0.260801
270 0.300442
275 0.448818
280 0.338345
285 0.364334
290 0.260246
295 0.232086
300 0.381786
305 0.255986
310 0.314972
315 1.58358
320 40.9626
325 96.9033
330 31.7735
335 6.95918
340 6.0185
345 7.0248
350 9.19418
355 13.3352
360 17.6904
365 20.0682
370 22.4732
375 25.8825
380 28.0004
385 30.5489
390 33.0806
395 35.8534
400 37.8591
405 37.9206
410 39.1386
415 38.9639
420 38.2591
425 36.7019
430 36.3504
435 35.6765
440 34.521
445 33.3282
450 31.7287
455 29.801
460 28.397
465 25.8114
470 23.9409
475 22.1328
480 19.6162
485 19.0615
490 17.0772
495 15.1295
500 14.181
505 12.386
510 11.2302
515 9.53974
520 8.14493
525 7.24782
530 6.7789
535 5.83023
540 5.05289
545 4.65131
550 3.84312
555 3.37889
560 2.99706
565 2.57886
570 2.08843
575 1.74053
580 1.34009
585 0.905318
590 0.851934
595 0.903294
600 0.763557
Ex : 333
200 0.240674
205 0.2264
210 0.367542
215 0.286062
220 0.305648
225 0.307837
230 0.29036
235 0.32359
240 0.299446
245 0.268953
250 0.228442
255 0.273281
260 0.2147
265 0.31916
270 0.323186
275 0.371614
280 0.280255
285 0.246908
290 0.278329
295 0.268397
300 0.284997
305 0.281898
310 0.399087
315 0.304688
320 6.59591
325 122.04
330 207.629
335 55.9189
340 10.1682
345 6.08846
350 5.78239
355 6.53807
360 9.73122
365 14.4871
370 15.5124
375 15.1339
380 16.2114
385 17.1002
390 18.7496
395 19.4935
400 20.3607
405 21.2734
410 21.9334
415 23.0491
420 22.3889
425 21.6808
430 21.453
435 20.7557
440 20.3289
445 20.4012
450 19.4032
455 18.5675
460 18.4235
465 16.8889
470 16.4506
475 15.3993
480 14.8115
485 13.8126
490 12.6861
495 11.8408
500 11.1657
505 10.123
510 9.12293
515 8.26897
520 7.31751
525 6.16042
530 5.7458
535 4.86723
540 4.61313
545 4.12394
550 3.73654
555 3.29067
560 2.64095
565 2.3959
570 2.02402
575 1.57033
580 1.48432
585 1.07882
590 1.06353
595 0.681878
600 0.377648
Ex : 338
200 0.191058
205 0.319655
210 0.17871
215 0.168063
220 0.283893
225 0.209547
230 0.208046
235 0.181054
240 0.204392
245 0.245003
250 0.259077
255 0.303244
260 0.225886
265 0.315612
270 0.198235
275 0.238626
280 0.243509
285 0.355592
290 0.310604
295 0.248734
300 0.251512
305 0.231014
310 0.395246
315 0.282499
320 0.394594
325 12.2855
330 185.19
335 279.822
340 71.8898
345 10.9836
350 4.83517
355 4.52253
360 4.30942
365 5.74906
370 10.5418
375 11.2539
380 10.1248
385 9.28929
390 9.46493
395 10.3282
400 10.5461
405 12.1866
410 12.7413
415 13.7309
420 13.6601
425 13.2149
430 13.3556
435 13.8911
440 14.091
445 14.6269
450 13.8109
455 13.5752
460 13.6707
465 13.3849
470 13.2385
475 13.0316
480 12.6619
485 12.3857
490 11.3077
495 11.5632
500 10.4123
505 10.0604
510 9.02956
515 8.00213
520 6.87027
525 5.86764
530 5.8919
535 5.28427
540 4.92682
545 4.23811
550 3.78604
555 3.29571
560 3.09282
565 2.68762
570 2.1329
575 1.79281
580 1.38679
585 1.36243
590 1.30393
595 0.77776
600 0.599529
Ex : 343
200 0.187982
205 0.266133
210 0.328085
215 0.27774
220 0.20522
225 0.258563
230 0.223494
235 0.17501
240 0.161849
245 0.259763
250 0.20229
255 0.243055
260 0.21192
265 0.172777
270 0.22881
275 0.232275
280 0.221906
285 0.278313
290 0.277917
295 0.191945
300 0.250572
305 0.262614
310 0.281796
315 0.411869
320 0.328309
325 0.597254
330 17.4907
335 280.15
340 457.535
345 100.57
350 14.0836
355 4.86957
360 3.59579
365 3.16401
370 4.25581
375 8.58504
380 9.66735
385 7.82524
390 7.17529
395 6.9193
400 7.85983
405 8.64538
410 10.2414
415 10.9974
420 11.3224
425 11.0361
430 12.0525
435 12.4786
440 13.2567
445 13.7699
450 13.3266
455 13.1538
460 13.534
465 13.9493
470 13.7769
475 13.8396
480 13.3506
485 12.9142
490 12.617
495 12.2985
500 11.3097
505 10.5819
510 10.038
515 9.21345
520 8.70278
525 7.73624
530 6.94374
535 6.30871
540 5.69374
545 5.39302
550 4.26746
555 3.9384
560 3.70063
565 3.0256
570 2.46978
575 2.09131
580 1.85069
585 1.33426
590 1.03508
595 0.928756
600 0.584239
Ex : 348
200 0.214046
205 0.225224
210 0.223418
215 0.349174
220 0.224545
225 0.203447
230 0.14182
235 0.251573
240 0.25285
245 0.172482
250 0.410753
255 0.244818
260 0.233932
265 0.203992
270 0.324792
275 0.239796
280 0.257266
285 0.268229
290 0.252595
295 0.192924
300 0.210217
305 0.263535
310 0.329632
315 0.27698
320 0.313635
325 0.253813
330 0.482571
335 14.4758
340 209.171
345 316.078
350 83.652
355 11.7455
360 3.55973
365 2.68874
370 2.36042
375 3.43422
380 6.6653
385 9.26431
390 7.43093
395 6.34195
400 6.56484
405 7.87858
410 9.90953
415 11.4279
420 11.3939
425 12.2631
430 12.7405
435 13.0924
440 14.2155
445 14.4679
450 14.7509
455 14.9895
460 15.7505
465 15.6074
470 15.9944
475 15.9302
480 16.0625
485 15.6347
490 15.0283
495 14.5092
500 14.1024
505 13.31
510 12.3424
515 11.201
520 10.3138
525 9.209
530 8.42459
535 8.0972
540 7.07609
545 6.45567
550 5.8461
555 4.93567
560 4.30885
565 3.9588
570 3.18365
575 2.64186
580 2.20962
585 1.51414
590 1.30485
595 1.0073
600 0.898161
Ex : 353
200 0.288808
205 0.169731
210 0.251907
215 0.183933
220 0.179844
225 0.210013
230 0.24275
235 0.148809
240 0.180513
245 0.316467
250 0.239955
255 0.143498
260 0.263011
265 0.226904
270 0.215635
275 0.251622
280 0.212281
285 0.21551
290 0.220264
295 0.173147
300 0.20204
305 0.189547
310 0.250279
315 0.305502
320 0.2277
325 0.329936
330 0.481441
335 0.569488
340 14.8996
345 217.567
350 316.751
355 82.2433
360 11.4609
365 3.56645
370 2.806
375 2.58807
380 3.17703
385 5.26668
390 8.82948
395 8.28256
400 7.50089
405 7.74711
410 9.30317
415 11.1543
420 11.2744
425 11.6178
430 12.0462
435 13.327
440 14.4427
445 15.2912
450 15.2864
455 15.8001
460 16.9962
465 17.3967
470 18.6545
475 18.0161
480 18.5985
485 17.8248
490 17.6985
495 16.8312
500 16.3423
505 15.3421
510 14.1395
515 13.3873
520 11.8938
525 11.697
530 10.5798
535 8.97018
540 8.30675
545 7.55443
550 6.87961
555 6.08949
560 5.31169
565 4.40159
570 3.72145
575 2.96072
580 2.26292
585 1.71154
590 1.44339
595 1.21404
600 1.05921
Ex : 358
200 0.196629
205 0.175343
210 0.151932
215 0.194006
220 0.290379
225 0.200559
230 0.214656
235 0.219889
240 0.190488
245 0.206862
250 0.227754
255 0.131544
260 0.18548
265 0.24026
270 0.227914
275 0.255818
280 0.244337
285 0.190012
290 0.232954
295 0.194081
300 0.150006
305 0.184752
310 0.302317
315 0.254847
320 0.213132
325 0.312801
330 0.218516
335 0.371943
340 0.644922
345 14.4327
350 214.556
355 326.97
360 83.3211
365 11.155
370 3.25094
375 3.42468
380 2.84936
385 2.9952
390 4.86896
395 8.62335
400 9.44626
405 9.46837
410 10.7558
415 11.8641
420 12.0342
425 12.1272
430 13.5133
435 14.2826
440 15.7565
445 16.4182
450 17.3636
455 17.8436
460 18.4469
465 19.266
470 20.1242
475 20.26
480 19.915
485 19.7272
490 19.406
495 18.5002
500 18.4262
505 16.9197
510 16.0508
515 15.2732
520 13.4979
525 12.7275
530 11.4719
535 10.2042
540 9.1552
545 8.05189
550 7.32585
555 6.70202
560 5.95535
565 4.9913
570 4.2159
575 3.28498
580 2.50826
585 2.04054
590 1.50817
595 1.42071
600 0.710273
Ex : 363
200 0.210088
205 0.156591
210 0.234489
215 0.214794
220 0.162196
225 0.248575
230 0.191309
235 0.144157
240 0.179153
245 0.211434
250 0.197022
255 0.206731
260 0.193628
265 0.14868
270 0.164533
275 0.172212
280 0.257763
285 0.239104
290 0.142929
295 0.181762
300 0.270295
305 0.24277
310 0.181016
315 0.224054
320 0.217674
325 0.301328
330 0.276305
335 0.355325
340 0.40383
345 0.578031
350 13.2529
355 208.337
360 323.039
365 86.5787
370 11.7131
375 3.63996
380 3.3633
385 3.25694
390 3.09204
395 4.69168
400 8.76201
405 11.3814
410 13.4137
415 14.2397
420 14.0491
425 13.9793
430 14.7269
435 16.5406
440 18.4367
445 19.1508
450 19.4099
455 20.3743
460 21.1416
465 22.307
470 23.4745
475 23.4864
480 23.9151
485 23.2017
490 23.3234
495 21.4588
500 20.9991
505 20.0877
510 18.5457
515 17.4861
520 15.6897
525 14.3777
530 13.0779
535 11.9219
540 11.0354
545 9.50626
550 8.67556
555 7.45772
560 6.63129
565 5.64903
570 4.6457
575 3.91778
580 3.01414
585 2.3746
590 1.65173
595 1.483
600 2.54361
Ex : 368
200 0.161312
205 0.15888
210 0.168393
215 0.173782
220 0.161865
225 0.171149
230 0.17164
235 0.143229
240 0.196999
245 0.157142
250 0.264812
255 0.202603
260 0.21237
265 0.207723
270 0.196364
275 0.193137
280 0.247284
285 0.2205
290 0.1674
295 0.153346
300 0.154249
305 0.143662
310 0.202566
315 0.252859
320 0.166945
325 0.199193
330 0.255217
335 0.258084
340 0.303454
345 0.372408
350 0.496384
355 11.493
360 201.505
365 324.513
370 88.2744
375 12.3151
380 3.6378
385 3.26817
390 3.25089
395 3.17426
400 4.71573
405 9.56782
410 13.9843
415 14.6819
420 14.1232
425 13.4686
430 13.9687
435 16.1543
440 18.0661
445 18.6278
450 19.4146
455 20.843
460 21.9425
465 23.6327
470 25.3291
475 25.8362
480 26.0454
485 25.5292
490 25.4308
495 25.3484
500 24.6191
505 22.5673
510 21.8298
515 20.1054
520 18.2433
525 16.802
530 15.3747
535 14.3984
540 12.6102
545 11.3124
550 10.3914
555 9.21562
560 7.78375
565 6.84597
570 5.49909
575 4.40423
580 3.43241
585 2.97661
590 2.13488
595 1.78731
600 1.53269
Ex : 373
200 0.142991
205 0.116303
210 0.207855
215 0.172031
220 0.19504
225 0.13377
230 0.182247
235 0.129634
240 0.18912
245 0.161395
250 0.165409
255 0.203958
260 0.146353
265 0.202012
270 0.184125
275 0.167531
280 0.196821
285 0.156259
290 0.117197
295 0.21235
300 0.18904
305 0.242578
310 0.223828
315 0.219473
320 0.227058
325 0.235721
330 0.214971
335 0.258176
340 0.231293
345 0.311115
350 0.372015
355 0.525583
360 12.3145
365 195.608
370 321.716
375 90.2092
380 12.4106
385 3.81822
390 3.24743
395 3.54212
400 3.99042
405 5.94098
410 10.0623
415 14.2209
420 13.778
425 12.9961
430 12.7285
435 13.8086
440 15.669
445 16.8057
450 18.1087
455 20.0516
460 21.9467
465 23.3927
470 25.4429
475 25.9649
480 26.6
485 26.7417
490 27.0627
495 26.3896
500 25.9813
505 24.7005
510 23.2795
515 21.5769
520 19.5013
525 18.011
530 16.9895
535 15.0694
540 13.5416
545 12.5436
550 11.0572
555 9.96454
560 8.5844
565 7.43324
570 6.65499
575 5.07935
580 3.83648
585 2.9708
590 2.43258
595 1.90108
600 1.54564
Ex : 378
200 0.201522
205 0.180892
210 0.129458
215 0.190955
220 0.234981
225 0.187324
230 0.182829
235 0.150799
240 0.162137
245 0.170321
250 0.135234
255 0.175897
260 0.178809
265 0.155679
270 0.169704
275 0.22416
280 0.214044
285 0.182683
290 0.124707
295 0.184422
300 0.163445
305 0.241846
310 0.149578
315 0.154401
320 0.199155
325 0.140559
330 0.227552
335 0.240183
340 0.235165
345 0.264277
350 0.28119
355 0.382227
360 0.482501
365 12.6146
370 219.734
375 355.871
380 97.6904
385 13.7354
390 4.10452
395 4.05513
400 4.67349
405 6.26702
410 8.94807
415 11.7951
420 15.064
425 14.6213
430 14.3355
435 15.5259
440 16.8547
445 17.9088
450 19.1345
455 19.821
460 20.9939
465 23.542
470 25.0441
475 25.4929
480 26.038
485 25.9301
490 26.0579
495 25.212
500 24.9831
505 23.4845
510 22.3691
515 20.4918
520 18.6728
525 17.3483
530 15.8946
535 14.4426
540 13.4433
545 11.968
550 10.6828
555 9.37192
560 8.26962
565 6.85574
570 5.91246
575 4.63992
580 3.79949
585 3.04626
590 2.16465
595 1.62462
600 1.52871
Ex : 383
200 0.129296
205 0.135801
210 0.146684
215 0.132969
220 0.148565
225 0.174422
230 0.1249
235 0.149077
240 0.131448
245 0.114735
250 0.17309
255 0.149826
260 0.163396
265 0.151924
270 0.188974
275 0.142628
280 0.14487
285 0.115669
290 0.131251
295 0.12815
300 0.141806
305 0.131001
310 0.155742
315 0.193538
320 0.132726
325 0.179089
330 0.16203
335 0.205652
340 0.208439
345 0.223822
350 0.275487
355 0.245044
360 0.364328
365 0.525671
370 12.0424
375 221.577
380 392.69
385 112.268
390 15.5084
395 4.57273
400 4.51381
405 7.05012
410 9.98025
415 11.9495
420 13.0746
425 15.2746
430 17.3936
435 18.5174
440 19.1238
445 19.5017
450 19.85
455 20.9573
460 22.5119
465 24.4585
470 25.7118
475 26.487
480 27.0346
485 27.1954
490 27.4866
495 25.955
500 24.7298
505 24.1592
510 22.8391
515 21.1325
520 19.1793
525 17.9436
530 16.2052
535 14.7016
540 13.2759
545 12.2646
550 10.8639
555 9.57674
560 8.34787
565 7.44151
570 5.86114
575 4.76399
580 3.55459
585 2.83184
590 2.34605
595 2.0838
600 1.38152
Ex : 388
200 0.196073
205 0.146837
210 0.178564
215 0.163711
220 0.199005
225 0.152508
230 0.153154
235 0.12966
240 0.143617
245 0.197715
250 0.131321
255 0.143156
260 0.178593
265 0.108684
270 0.157776
275 0.14152
280 0.167463
285 0.169515
290 0.176625
295 0.159131
300 0.161725
305 0.117152
310 0.208732
315 0.171725
320 0.230162
325 0.201969
330 0.189064
335 0.230918
340 0.232481
345 0.198472
350 0.272268
355 0.325869
360 0.290679
365 0.383113
370 0.523523
375 12.6577
380 324.238
385 626.821
390 137.324
395 18.2655
400 5.54302
405 6.54186
410 9.45944
415 11.125
420 11.6081
425 11.6452
430 15.0577
435 17.9611
440 19.2879
445 19.7118
450 19.5682
455 20.957
460 22.1542
465 24.8092
470 25.7761
475 26.9801
480 26.9402
485 27.387
490 27.3146
495 26.9352
500 25.7723
505 24.7202
510 23.4823
515 21.8838
520 20.0366
525 18.1793
530 16.5586
535 15.5315
540 14.0445
545 12.5524
550 11.4007
555 9.9956
560 8.78459
565 7.338
570 6.28386
575 5.16069
580 4.00004
585 3.02876
590 2.30235
595 1.81651
600 1.28233
Ex : 393
200 0.128368
205 0.11606
210 0.151564
215 0.176388
220 0.116824
225 0.135766
230 0.154144
235 0.197248
240 0.220608
245 0.195726
250 0.142297
255 0.100964
260 0.106752
265 0.138573
270 0.150049
275 0.145764
280 0.186205
285 0.150007
290 0.126451
295 0.174374
300 0.165095
305 0.144852
310 0.147217
315 0.232212
320 0.180356
325 0.196967
330 0.155306
335 0.187263
340 0.16317
345 0.211758
350 0.239733
355 0.261421
360 0.283805
365 0.326112
370 0.403221
375 0.715657
380 13.9908
385 252.792
390 498.155
395 191.502
400 25.3141
405 7.52656
410 7.94118
415 9.49987
420 9.38504
425 9.23671
430 9.91692
435 13.2075
440 17.2718
445 17.6777
450 18.057
455 19.1714
460 20.8457
465 22.9853
470 24.8407
475 26.0341
480 26.8828
485 27.6113
490 27.9426
495 26.9734
500 26.5756
505 25.7736
510 23.9932
515 22.525
520 20.5605
525 19.0689
530 17.0582
535 16.2899
540 14.687
545 13.1836
550 12.0515
555 10.6122
560 9.23847
565 7.83911
570 6.50284
575 5.36857
580 4.12763
585 3.20178
590 2.28561
595 1.9208
600 1.7277
Ex : 398
200 0.145705
205 0.182078
210 0.097879
215 0.177624
220 0.215845
225 0.151953
230 0.152261
235 0.121667
240 0.148169
245 0.0944349
250 0.148126
255 0.124785
260 0.153725
265 0.118501
270 0.14819
275 0.124337
280 0.146573
285 0.151954
290 0.151543
295 0.142775
300 0.118349
305 0.109596
310 0.154256
315 0.147155
320 0.114658
325 0.135977
330 0.172191
335 0.156091
340 0.162668
345 0.171658
350 0.17262
355 0.188683
360 0.206484
365 0.205717
370 0.334425
375 0.455952
380 0.519221
385 12.0237
390 229.197
395 407.234
400 113.868
405 17.17
410 7.68874
415 8.11072
420 8.46968
425 8.45504
430 9.17115
435 10.7215
440 13.3902
445 17.2316
450 18.7528
455 19.2776
460 21.0629
465 22.8516
470 24.6971
475 26.6579
480 27.6584
485 27.8251
490 28.3677
495 28.0223
500 26.7374
505 26.5597
510 24.9682
515 23.2123
520 21.3517
525 19.7498
530 18.2509
535 16.4975
540 15.0731
545 13.5728
550 12.303
555 11.1561
560 9.84547
565 8.15277
570 6.81554
575 5.57505
580 4.37106
585 3.2133
590 2.51965
595 2.00272
600 1.43996
Ex : 403
200 0.132853
205 0.166157
210 0.126134
215 0.109404
220 0.150137
225 0.11734
230 0.104054
235 0.123875
240 0.168748
245 0.150628
250 0.147484
255 0.153262
260 0.129114
265 0.124242
270 0.118376
275 0.176113
280 0.141467
285 0.12166
290 0.200394
295 0.159564
300 0.184994
305 0.120825
310 0.150763
315 0.156848
320 0.128963
325 0.14721
330 0.168014
335 0.162192
340 0.188954
345 0.196938
350 0.197486
355 0.190526
360 0.212473
365 0.241364
370 0.250026
375 0.397857
380 0.404152
385 0.684096
390 16.3409
395 264.187
400 453.653
405 131.361
410 21.4661
415 9.98569
420 9.11713
425 9.25949
430 9.61287
435 10.5858
440 13.2809
445 15.3734
450 18.6077
455 21.2784
460 22.8266
465 24.3721
470 26.1154
475 26.6941
480 28.0849
485 29.1327
490 29.044
495 28.5727
500 28.0166
505 27.1894
510 25.8111
515 23.721
520 21.6947
525 20.4194
530 18.6407
535 17.2498
540 15.2663
545 13.789
550 12.4102
555 10.809
560 9.74361
565 8.26986
570 6.70943
575 5.47723
580 4.2564
585 3.16882
590 2.63152
595 2.07552
600 1.76021
Ex : 408
200 0.114202
205 0.15306
210 0.174438
215 0.142705
220 0.167226
225 0.141628
230 0.150567
235 0.15679
240 0.144734
245 0.13891
250 0.164303
255 0.179851
260 0.160911
265 0.115547
270 0.140237
275 0.134129
280 0.153283
285 0.0934635
290 0.160009
295 0.115089
300 0.134844
305 0.162032
310 0.108544
315 0.119698
320 0.203755
325 0.185471
330 0.205656
335 0.127868
340 0.15071
345 0.206785
350 0.202536
355 0.203752
360 0.18894
365 0.186352
370 0.217259
375 0.25474
380 0.394904
385 0.365208
390 0.548512
395 14.6129
400 280.983
405 438.899
410 121.681
415 20.9173
420 9.45763
425 8.49554
430 9.28651
435 10.8513
440 11.8986
445 13.5648
450 15.3813
455 19.6001
460 23.3411
465 24.48
470 26.7494
475 26.7189
480 28.0273
485 28.7682
490 28.2567
495 28.8307
500 28.0945
505 26.5731
510 25.8385
515 23.9775
520 22.156
525 20.7133
530 18.7056
535 17.0262
540 15.6052
545 14.1309
550 12.6451
555 11.0695
560 9.57118
565 8.29054
570 7.02182
575 5.84681
580 4.41916
585 3.482
590 2.64809
595 2.05749
600 1.70707
Ex : 413
200 0.165773
205 0.135668
210 0.132397
215 0.157841
220 0.156238
225 0.14023
230 0.172532
235 0.138674
240 0.15975
245 0.127376
250 0.150768
255 0.110374
260 0.166425
265 0.171063
270 0.122211
275 0.133156
280 0.148732
285 0.12872
290 0.155909
295 0.15783
300 0.148643
305 0.162109
310 0.118173
315 0.124734
320 0.134057
325 0.215854
330 0.196393
335 0.147012
340 0.135098
345 0.132284
350 0.179441
355 0.176211
360 0.154798
365 0.23236
370 0.217714
375 0.239548
380 0.255153
385 0.327962
390 0.350688
395 0.662942
400 17.6661
405 272.505
410 430.034
415 114.895
420 18.3329
425 6.99697
430 6.52427
435 7.66332
440 9.07559
445 10.2804
450 12.4015
455 14.3382
460 18.2483
465 22.8314
470 24.3531
475 25.5745
480 26.0427
485 26.2879
490 27.0433
495 27.068
500 26.9021
505 26.018
510 24.811
515 22.6664
520 21.4752
525 20.1736
530 18.5205
535 16.4326
540 15.234
545 13.8052
550 12.363
555 11.0414
560 9.65422
565 8.18201
570 6.74733
575 5.53401
580 4.2938
585 3.3609
590 2.69474
595 2.02782
600 3.13106
Ex : 418
200 0.166982
205 0.152855
210 0.142078
215 0.123442
220 0.10524
225 0.123426
230 0.124768
235 0.19012
240 0.126624
245 0.164435
250 0.151819
255 0.130386
260 0.137157
265 0.171646
270 0.105899
275 0.145207
280 0.112147
285 0.0937839
290 0.120616
295 0.13497
300 0.134179
305 0.108431
310 0.133093
315 0.111945
320 0.12678
325 0.189494
330 0.142031
335 0.106929
340 0.184423
345 0.17347
350 0.227222
355 0.208333
360 0.213578
365 0.193514
370 0.174511
375 0.247677
380 0.207647
385 0.282897
390 0.382372
395 0.527324
400 0.69914
405 14.7786
410 256.345
415 426.922
420 117.558
425 16.4914
430 4.92372
435 4.35983
440 5.82055
445 7.11601
450 9.01333
455 11.2931
460 14.1024
465 17.1614
470 21.6942
475 23.4873
480 23.4989
485 24.569
490 25.3993
495 25.0703
500 24.4756
505 23.692
510 23.1061
515 21.4279
520 19.5639
525 18.1252
530 17.2568
535 15.9195
540 14.5733
545 12.8569
550 11.3854
555 9.99037
560 9.10315
565 7.7231
570 6.67163
575 5.26351
580 3.96559
585 3.23563
590 2.45201
595 1.85293
600 1.63585
Ex : 423
200 0.178279
205 0.174289
210 0.108613
215 0.13355
220 0.176319
225 0.151691
230 0.168721
235 0.153739
240 0.158633
245 0.178547
250 0.174344
255 0.156752
260 0.122253
265 0.145374
270 0.135343
275 0.123764
280 0.135362
285 0.137453
290 0.140315
295 0.161678
300 0.166146
305 0.173615
310 0.150716
315 0.135325
320 0.133643
325 0.151359
330 0.182491
335 0.164023
340 0.135317
345 0.18825
350 0.260262
355 0.153158
360 0.208821
365 0.185183
370 0.191831
375 0.18522
380 0.202931
385 0.224827
390 0.26191
395 0.335117
400 0.474349
405 0.799312
410 16.2698
415 304.549
420 480.643
425 124.177
430 16.4104
435 4.31104
440 3.91327
445 5.48451
450 7.13437
455 8.97825
460 11.7807
465 14.4912
470 17.167
475 20.6344
480 22.7391
485 22.623
490 23.1727
495 22.8802
500 22.802
505 21.8467
510 20.5288
515 19.3631
520 18.0723
525 17.1208
530 15.6428
535 14.5269
540 13.4348
545 11.9529
550 10.832
555 9.50529
560 8.284
565 7.36017
570 5.73835
575 4.92109
580 3.76061
585 2.96252
590 2.36179
595 1.92083
600 0.947886
Ex : 428
200 0.178156
205 0.107585
210 0.188942
215 0.227272
220 0.15492
225 0.171205
230 0.153441
235 0.113911
240 0.17076
245 0.146678
250 0.13975
255 0.157827
260 0.138667
265 0.1323
270 0.13506
275 0.170126
280 0.153663
285 0.175291
290 0.188177
295 0.161776
300 0.181281
305 0.154027
310 0.221202
315 0.14168
320 0.109146
325 0.141364
330 0.149254
335 0.181708
340 0.167798
345 0.150182
350 0.200895
355 0.177212
360 0.157949
365 0.135879
370 0.183565
375 0.232349
380 0.207389
385 0.307466
390 0.334725
395 0.293479
400 0.372925
405 0.453504
410 0.786459
415 17.0501
420 297.692
425 508.942
430 149.528
435 19.4382
440 5.05631
445 4.15764
450 6.37888
455 8.88667
460 10.597
465 12.7213
470 14.5405
475 16.162
480 18.8278
485 21.8897
490 21.5288
495 21.1941
500 20.6047
505 20.0091
510 19.2374
515 17.856
520 16.7778
525 15.3629
530 14.2294
535 13.2225
540 11.8123
545 10.9828
550 9.58565
555 8.5026
560 7.53383
565 6.54955
570 5.44969
575 4.42044
580 3.39929
585 2.56046
590 2.02366
595 1.51169
600 1.07898
Ex : 433
200 0.156441
205 0.16233
210 0.170074
215 0.179325
220 0.15032
225 0.116564
230 0.098694
235 0.174313
240 0.18508
245 0.227935
250 0.17056
255 0.142719
260 0.17159
265 0.129425
270 0.135262
275 0.237373
280 0.155372
285 0.114505
290 0.129535
295 0.117863
300 0.13153
305 0.159819
310 0.17884
315 0.140263
320 0.201386
325 0.203699
330 0.154788
335 0.14089
340 0.180572
345 0.160286
350 0.152459
355 0.180218
360 0.168281
365 0.190631
370 0.165775
375 0.212307
380 0.205999
385 0.240807
390 0.225158
395 0.258909
400 0.326127
405 0.322383
410 0.493525
415 0.762839
420 19.642
425 325.386
430 577.754
435 194.427
440 24.9853
445 6.24077
450 6.0233
455 7.60071
460 9.36502
465 10.8194
470 12.5951
475 13.9394
480 15.3137
485 17.4611
490 19.7452
495 19.7234
500 18.6682
505 18.1118
510 16.7235
515 15.6251
520 14.6494
525 13.8424
530 12.2047
535 11.5603
540 10.5855
545 9.32037
550 8.70021
555 7.72261
560 6.74404
565 5.70391
570 4.81317
575 3.90873
580 3.10973
585 2.44258
590 1.80032
595 1.41272
600 1.16073
Ex : 438
200 0.227656
205 0.12431
210 0.155483
215 0.13377
220 0.185401
225 0.153522
230 0.160952
235 0.178285
240 0.1527
245 0.180008
250 0.16603
255 0.160891
260 0.137449
265 0.18995
270 0.1579
275 0.121898
280 0.132651
285 0.17432
290 0.179629
295 0.132436
300 0.272007
305 0.144788
310 0.152262
315 0.157078
320 0.166687
325 0.168797
330 0.154364
335 0.15213
340 0.184544
345 0.142586
350 0.204904
355 0.161767
360 0.222156
365 0.1791
370 0.214463
375 0.23905
380 0.25028
385 0.242719
390 0.216951
395 0.312889
400 0.24018
405 0.247871
410 0.456938
415 0.542991
420 0.824662
425 21.2829
430 338.432
435 554.512
440 164.229
445 22.4649
450 7.00622
455 6.35602
460 7.80868
465 9.64628
470 10.9592
475 11.8549
480 13.1177
485 14.171
490 15.3021
495 17.0224
500 17.0562
505 15.3774
510 14.996
515 13.6412
520 12.2554
525 11.3392
530 10.5864
535 10.0418
540 9.14209
545 8.09941
550 7.15906
555 6.38307
560 5.63267
565 4.87498
570 4.13916
575 3.45757
580 2.84055
585 2.13878
590 1.6147
595 1.3743
600 0.8365
Ex : 443
200 0.219275
205 0.180348
210 0.132157
215 0.13307
220 0.141723
225 0.131424
230 0.127306
235 0.178376
240 0.149549
245 0.162432
250 0.219478
255 0.147625
260 0.170787
265 0.156841
270 0.183249
275 0.160017
280 0.189533
285 0.164179
290 0.151064
295 0.139204
300 0.191955
305 0.131652
310 0.20883
315 0.16344
320 0.145333
325 0.197504
330 0.162316
335 0.195454
340 0.148076
345 0.1859
350 0.241936
355 0.190043
360 0.210265
365 0.186825
370 0.189017
375 0.238378
380 0.214183
385 0.252608
390 0.160773
395 0.230254
400 0.226099
405 0.364042
410 0.369247
415 0.465934
420 0.623601
425 0.8886
430 25.7166
435 406.289
440 581.353
445 146.935
450 20.6949
455 7.01964
460 6.49457
465 8.04184
470 9.11972
475 10.0278
480 10.5185
485 10.9588
490 11.4964
495 12.1176
500 13.5596
505 13.9704
510 12.6853
515 11.5126
520 10.8737
525 9.91761
530 9.08483
535 7.91665
540 7.34664
545 6.87694
550 5.83542
555 5.36145
560 4.7429
565 3.96267
570 3.49585
575 2.97224
580 2.31723
585 1.81683
590 1.42383
595 1.15521
600 0.811777
Ex : 448
200 0.18758
205 0.183255
210 0.1725
215 0.149529
220 0.154547
225 0.127755
230 0.147107
235 0.147757
240 0.193684
245 0.163681
250 0.123701
255 0.163814
260 0.230174
265 0.171468
270 0.198882
275 0.206251
280 0.126797
285 0.192969
290 0.186002
295 0.143801
300 0.115102
305 0.130777
310 0.163642
315 0.249045
320 0.169769
325 0.186865
330 0.145203
335 0.146301
340 0.191332
345 0.162688
350 0.168462
355 0.169482
360 0.195251
365 0.161951
370 0.2429
375 0.19299
380 0.192889
385 0.19717
390 0.258591
395 0.225626
400 0.239739
405 0.293635
410 0.268867
415 0.364731
420 0.397305
425 0.532342
430 0.812952
435 23.2172
440 382.194
445 580.247
450 146.507
455 20.5988
460 6.92308
465 5.98261
470 6.75735
475 7.55061
480 8.24114
485 8.6278
490 8.73885
495 9.05439
500 8.95178
505 10.1539
510 10.841
515 9.84516
520 8.89175
525 8.07436
530 7.23475
535 6.309
540 5.86292
545 5.34968
550 4.72964
555 4.28335
560 3.87877
565 3.23268
570 2.96188
575 2.19539
580 1.79009
585 1.35573
590 1.08524
595 0.937093
600 1.13711
Ex : 453
200 0.178014
205 0.149491
210 0.206324
215 0.217357
220 0.175064
225 0.165039
230 0.181561
235 0.156399
240 0.153882
245 0.194322
250 0.169004
255 0.178502
260 0.197701
265 0.163124
270 0.192201
275 0.174631
280 0.204591
285 0.143242
290 0.180984
295 0.17099
300 0.165895
305 0.161
310 0.153434
315 0.161136
320 0.159548
325 0.206353
330 0.253314
335 0.181915
340 0.206749
345 0.228145
350 0.173057
355 0.16873
360 0.181641
365 0.207066
370 0.18546
375 0.188805
380 0.230451
385 0.167328
390 0.161851
395 0.24426
400 0.240401
405 0.253399
410 0.265229
415 0.291263
420 0.248365
425 0.408613
430 0.598538
435 0.933968
440 24.679
445 413.478
450 599.325
455 142.568
460 20.0673
465 6.39355
470 5.02135
475 5.3543
480 5.97811
485 6.31333
490 6.17648
495 6.34252
500 6.4347
505 6.36933
510 6.78913
515 7.64037
520 7.41034
525 5.98817
530 5.73301
535 5.0742
540 4.45859
545 3.99575
550 3.6354
555 3.32358
560 2.90093
565 2.44917
570 2.21867
575 1.71678
580 1.34741
585 1.02697
590 0.858424
595 0.660406
600 0.53654
Ex : 458
200 0.181754
205 0.152651
210 0.12908
215 0.242245
220 0.180947
225 0.190514
230 0.226703
235 0.205179
240 0.171166
245 0.187396
250 0.153896
255 0.165874
260 0.147931
265 0.18112
270 0.149499
275 0.170928
280 0.175581
285 0.184012
290 0.262366
295 0.153328
300 0.239314
305 0.130355
310 0.168324
315 0.170887
320 0.181145
325 0.142913
330 0.141987
335 0.184639
340 0.159034
345 0.214286
350 0.20164
355 0.181186
360 0.176258
365 0.174735
370 0.157004
375 0.252242
380 0.192042
385 0.220565
390 0.213349
395 0.200763
400 0.204031
405 0.235732
410 0.233124
415 0.280479
420 0.283227
425 0.312969
430 0.387224
435 0.659942
440 1.03083
445 27.4584
450 438.021
455 680.679
460 173.537
465 23.1888
470 5.96168
475 4.03229
480 4.1511
485 4.77234
490 4.67776
495 4.41107
500 4.42495
505 4.42698
510 4.1697
515 4.44151
520 5.4332
525 5.85055
530 4.82406
535 4.18051
540 3.82745
545 3.20362
550 2.77482
555 2.40028
560 2.09741
565 1.97474
570 1.59098
575 1.41904
580 1.07771
585 0.915394
590 0.790091
595 0.65539
600 1.10654
Ex : 463
200 0.146267
205 0.179774
210 0.188754
215 0.182412
220 0.149749
225 0.176685
230 0.133231
235 0.1662
240 0.188161
245 0.155782
250 0.191259
255 0.196779
260 0.159479
265 0.197026
270 0.154745
275 0.210834
280 0.184817
285 0.185538
290 0.124341
295 0.206842
300 0.263704
305 0.243073
310 0.208442
315 0.196097
320 0.217887
325 0.184523
330 0.200822
335 0.176428
340 0.185425
345 0.17199
350 0.189572
355 0.190036
360 0.177012
365 0.198232
370 0.216723
375 0.164308
380 0.183953
385 0.209445
390 0.237843
395 0.182079
400 0.219652
405 0.268548
410 0.221157
415 0.264556
420 0.288388
425 0.277265
430 0.360126
435 0.471899
440 0.628834
445 1.18463
450 29.1348
455 514.288
460 819.665
465 189.568
470 24.4772
475 5.4501
480 3.15634
485 3.03523
490 3.25848
495 3.31024
500 3.16478
505 2.94255
510 3.06786
515 2.99957
520 2.96824
525 3.67554
530 4.5478
535 4.09809
540 2.9205
545 2.83584
550 2.55178
555 2.25144
560 1.96146
565 1.68812
570 1.46492
575 1.20497
580 0.94916
585 0.807404
590 0.624174
595 0.520184
600 0.451851
Ex : 468
200 0.12237
205 0.138454
210 0.136211
215 0.129286
220 0.165779
225 0.179527
230 0.180264
235 0.161502
240 0.126805
245 0.154277
250 0.135635
255 0.135313
260 0.140106
265 0.172174
270 0.151924
275 0.183313
280 0.133434
285 0.164539
290 0.166386
295 0.150243
300 0.157048
305 0.164128
310 0.176648
315 0.192121
320 0.123237
325 0.219127
330 0.16363
335 0.17099
340 0.17428
345 0.19712
350 0.127575
355 0.171164
360 0.231041
365 0.154794
370 0.166173
375 0.169442
380 0.181929
385 0.201903
390 0.216631
395 0.195145
400 0.232739
405 0.265769
410 0.278776
415 0.313554
420 0.279675
425 0.267732
430 0.279152
435 0.336271
440 0.425276
445 0.5558
450 0.961938
455 28.9506
460 434.06
465 678.986
470 164.855
475 20.8802
480 4.57808
485 2.61939
490 2.34126
495 2.5728
500 2.52704
505 2.42831
510 2.26857
515 2.34014
520 2.31056
525 2.31988
530 2.69684
535 3.75696
540 3.76163
545 2.78713
550 2.28644
555 2.06087
560 1.79533
565 1.41507
570 1.22815
575 0.969741
580 0.888228
585 0.67304
590 0.56976
595 0.46119
600 0.627907
Ex : 473
200 0.175556
205 0.169314
210 0.12947
215 0.202282
220 0.181396
225 0.172802
230 0.201969
235 0.145753
240 0.22204
245 0.144442
250 0.16618
255 0.16161
260 0.162296
265 0.184135
270 0.173649
275 0.170674
280 0.145003
285 0.203482
290 0.22815
295 0.186865
300 0.153657
305 0.163715
310 0.212584
315 0.18029
320 0.209872
325 0.20308
330 0.186253
335 0.149905
340 0.179221
345 0.182181
350 0.185325
355 0.158744
360 0.229245
365 0.190282
370 0.170139
375 0.216543
380 0.184628
385 0.177799
390 0.199444
395 0.214115
400 0.293899
405 0.211759
410 0.191202
415 0.283237
420 0.240133
425 0.286793
430 0.262773
435 0.28274
440 0.35518
445 0.487551
450 0.571399
455 0.944485
460 30.8728
465 459.727
470 666.408
475 157.308
480 19.8611
485 4.1145
490 2.14091
495 1.89537
500 2.04369
505 2.1691
510 2.18701
515 2.00353
520 1.84479
525 1.86968
530 1.89671
535 2.02995
540 2.90081
545 3.25303
550 2.47534
555 1.96476
560 1.76647
565 1.63556
570 1.19691
575 1.10613
580 0.775909
585 0.692905
590 0.637781
595 0.447832
600 0.604514
Ex : 478
200 0.140234
205 0.160707
210 0.213656
215 0.194479
220 0.184845
225 0.20276
230 0.221835
235 0.16401
240 0.205746
245 0.130713
250 0.189388
255 0.21133
260 0.164777
265 0.169364
270 0.178901
275 0.245279
280 0.185214
285 0.215007
290 0.19863
295 0.157002
300 0.222599
305 0.207943
310 0.179574
315 0.21471
320 0.205943
325 0.263418
330 0.163194
335 0.157537
340 0.143156
345 0.206224
350 0.176243
355 0.160179
360 0.184043
365 0.200315
370 0.226866
375 0.260171
380 0.189888
385 0.249152
390 0.236014
395 0.219136
400 0.228743
405 0.249647
410 0.227874
415 0.22119
420 0.214604
425 0.266849
430 0.349178
435 0.292451
440 0.338347
445 0.393463
450 0.524511
455 0.777714
460 1.47307
465 42.6051
470 760.736
475 1111.9
480 224.69
485 27.7363
490 4.82176
495 2.08707
500 1.6845
505 1.93932
510 1.99655
515 1.85677
520 1.87402
525 1.67726
530 1.74123
535 1.86933
540 1.77834
545 2.10738
550 2.84824
555 2.69977
560 1.80274
565 1.62706
570 1.55016
575 1.12117
580 0.873122
585 0.722141
590 0.58558
595 0.46246
600 0.406481
Ex : 483
200 0.200332
205 0.197012
210 0.181514
215 0.179354
220 0.179869
225 0.23233
230 0.270725
235 0.193303
240 0.193158
245 0.201779
250 0.162078
255 0.217092
260 0.193646
265 0.171396
270 0.226669
275 0.17504
280 0.176399
285 0.167021
290 0.192173
295 0.239279
300 0.148824
305 0.246475
310 0.241296
315 0.206424
320 0.257214
325 0.257174
330 0.246434
335 0.192899
340 0.229012
345 0.2446
350 0.163745
355 0.192794
360 0.196162
365 0.251023
370 0.256883
375 0.254462
380 0.189129
385 0.185733
390 0.20126
395 0.249085
400 0.24808
405 0.280205
410 0.275768
415 0.215097
420 0.242476
425 0.206856
430 0.221345
435 0.315795
440 0.283493
445 0.357325
450 0.439298
455 0.476731
460 0.780568
465 1.10464
470 25.7486
475 449.751
480 698.517
485 174.075
490 21.7009
495 4.02242
500 1.78969
505 1.47892
510 1.72692
515 1.83483
520 1.72283
525 1.62486
530 1.55934
535 1.55339
540 1.44468
545 1.43842
550 1.71051
555 2.44819
560 2.48888
565 1.67364
570 1.33234
575 1.06668
580 0.963787
585 0.696316
590 0.642355
595 0.496261
600 0.471687
Ex : 488
200 0.221557
205 0.165096
210 0.205582
215 0.200141
220 0.189634
225 0.193618
230 0.202827
235 0.166065
240 0.197048
245 0.227386
250 0.231521
255 0.26675
260 0.224375
265 0.195424
270 0.264394
275 0.239151
280 0.201671
285 0.204406
290 0.187893
295 0.224162
300 0.167476
305 0.218097
310 0.18876
315 0.207924
320 0.220904
325 0.247408
330 0.180934
335 0.20718
340 0.206903
345 0.229436
350 0.210676
355 0.237761
360 0.239617
365 0.198565
370 0.250627
375 0.246399
380 0.218955
385 0.202272
390 0.235956
395 0.252132
400 0.229789
405 0.250667
410 0.309355
415 0.235086
420 0.23186
425 0.274745
430 0.273175
435 0.277263
440 0.324021
445 0.373559
450 0.341772
455 0.40742
460 0.506291
465 0.759713
470 1.13519
475 33.8747
480 511.946
485 717.718
490 166.131
495 20.6929
500 3.729
505 1.72884
510 1.35437
515 1.65424
520 1.85437
525 1.72499
530 1.43187
535 1.53313
540 1.53789
545 1.51316
550 1.51582
555 1.48418
560 1.92191
565 2.48612
570 1.7813
575 1.23605
580 0.997818
585 0.913631
590 0.685028
595 0.577788
600 0.481584
Ex : 493
200 0.198098
205 0.188358
210 0.228061
215 0.219309
220 0.203023
225 0.233203
230 0.228829
235 0.216767
240 0.215173
245 0.157469
250 0.162815
255 0.250876
260 0.209842
265 0.174098
270 0.183564
275 0.202013
280 0.16926
285 0.219833
290 0.194298
295 0.200116
300 0.22698
305 0.184904
310 0.21569
315 0.229797
320 0.22995
325 0.18514
330 0.191637
335 0.22626
340 0.25722
345 0.174673
350 0.194689
355 0.239743
360 0.217276
365 0.174999
370 0.230588
375 0.234706
380 0.21055
385 0.226816
390 0.344666
395 0.272548
400 0.211143
405 0.2231
410 0.305408
415 0.269505
420 0.20448
425 0.268791
430 0.283146
435 0.219929
440 0.222429
445 0.31647
450 0.328882
455 0.408182
460 0.416342
465 0.673664
470 0.697931
475 1.15411
480 30.0424
485 499.809
490 749.209
495 171.28
500 20.9815
505 3.67032
510 1.68174
515 1.44554
520 1.57747
525 1.83964
530 1.73771
535 1.48212
540 1.5342
545 1.36137
550 1.26011
555 1.36156
560 1.15599
565 1.47163
570 2.10717
575 1.66385
580 1.07182
585 0.781517
590 0.85359
595 0.654044
600 0.337256
Ex : 498
200 0.19542
205 0.196255
210 0.326556
215 0.246081
220 0.263763
225 0.236344
230 0.176126
235 0.12792
240 0.186231
245 0.290532
250 0.232163
255 0.190958
260 0.227166
265 0.269934
270 0.232103
275 0.217122
280 0.242491
285 0.262386
290 0.209663
295 0.183073
300 0.235562
305 0.302057
310 0.213896
315 0.237884
320 0.17338
325 0.238107
330 0.220528
335 0.322501
340 0.314066
345 0.215312
350 0.247178
355 0.211338
360 0.244279
365 0.27663
370 0.252874
375 0.191022
380 0.289185
385 0.281171
390 0.212012
395 0.307133
400 0.236397
405 0.314444
410 0.243381
415 0.258961
420 0.247977
425 0.302693
430 0.213052
435 0.229667
440 0.315222
445 0.36502
450 0.323471
455 0.348415
460 0.452205
465 0.497879
470 0.570313
475 0.836126
480 1.34071
485 33.7598
490 548.387
495 834.934
500 178.82
505 22.1145
510 3.92799
515 1.78783
520 1.43938
525 1.38975
530 1.73018
535 1.71988
540 1.37702
545 1.22366
550 1.34979
555 1.20398
560 1.149
565 1.14048
570 1.18819
575 1.54676
580 1.51806
585 0.923458
590 0.754273
595 0.668354
600 0.709059
Ex : 503
200 0.175093
205 0.249492
210 0.3061
215 0.189112
220 0.230022
225 0.23709
230 0.203531
235 0.225916
240 0.212362
245 0.261173
250 0.218504
255 0.281817
260 0.23575
265 0.213716
270 0.307179
275 0.198952
280 0.158365
285 0.164775
290 0.260563
295 0.202212
300 0.197102
305 0.319404
310 0.23546
315 0.229629
320 0.253684
325 0.19914
330 0.314038
335 0.213034
340 0.268467
345 0.225801
350 0.238271
355 0.222628
360 0.246956
365 0.2315
370 0.22983
375 0.192642
380 0.26705
385 0.190775
390 0.299253
395 0.26122
400 0.253328
405 0.254946
410 0.260603
415 0.296199
420 0.294594
425 0.252925
430 0.23679
435 0.309324
440 0.334534
445 0.340892
450 0.316459
455 0.362673
460 0.463466
465 0.410682
470 0.459184
475 0.501887
480 0.830049
485 1.15478
490 31.4716
495 508.995
500 726.847
505 173.155
510 21.561
515 3.96117
520 1.79006
525 1.34415
530 1.27638
535 1.44228
540 1.43764
545 1.54147
550 1.38171
555 1.15102
560 1.05399
565 0.892833
570 0.924848
575 0.81702
580 1.0736
585 1.16415
590 0.771042
595 0.55087
600 0.062687
Ex : 508
200 0.190602
205 0.21686
210 0.181228
215 0.224739
220 0.198001
225 0.267198
230 0.280019
235 0.249683
240 0.258859
245 0.216346
250 0.217822
255 0.213289
260 0.212251
265 0.283044
270 0.277831
275 0.325117
280 0.249612
285 0.316446
290 0.237934
295 0.201196
300 0.223621
305 0.233672
310 0.235704
315 0.192936
320 0.295025
325 0.225473
330 0.2501
335 0.257301
340 0.235222
345 0.225234
350 0.209421
355 0.26892
360 0.251469
365 0.202205
370 0.247852
375 0.198152
380 0.319846
385 0.274212
390 0.219378
395 0.237602
400 0.2432
405 0.259643
410 0.286683
415 0.262387
420 0.328839
425 0.264559
430 0.317699
435 0.225163
440 0.258917
445 0.302638
450 0.354977
455 0.404114
460 0.387135
465 0.428288
470 0.479718
475 0.546632
480 0.583409
485 0.751566
490 1.08414
495 36.5601
500 536.264
505 720.638
510 174.573
515 21.4456
520 3.71096
525 1.71339
530 1.3097
535 1.22664
540 1.49464
545 1.41318
550 1.21166
555 1.13517
560 1.05004
565 0.914464
570 0.888387
575 0.851735
580 0.767136
585 0.806139
590 0.949516
595 0.793509
600 0.429261
Ex : 513
200 0.244757
205 0.272378
210 0.227303
215 0.186985
220 0.178211
225 0.219625
230 0.303059
235 0.339621
240 0.222506
245 0.269988
250 0.276167
255 0.208768
260 0.222382
265 0.250796
270 0.270066
275 0.203849
280 0.222555
285 0.241804
290 0.294674
295 0.238879
300 0.334164
305 0.330837
310 0.274009
315 0.225266
320 0.226474
325 0.181232
330 0.234865
335 0.222319
340 0.27107
345 0.280915
350 0.248298
355 0.216992
360 0.280606
365 0.239638
370 0.279376
375 0.260034
380 0.211139
385 0.234386
390 0.291937
395 0.192543
400 0.278013
405 0.24837
410 0.277842
415 0.297114
420 0.387199
425 0.311362
430 0.309153
435 0.331828
440 0.234324
445 0.290709
450 0.296651
455 0.330707
460 0.343979
465 0.360365
470 0.426947
475 0.46092
480 0.487248
485 0.646755
490 0.82392
495 1.19469
500 37.2316
505 579.488
510 817.478
515 194.515
520 23.9856
525 4.19546
530 1.79866
535 1.34612
540 1.41454
545 1.33152
550 1.28289
555 1.29704
560 1.02109
565 0.945513
570 0.928771
575 0.794096
580 0.637316
585 0.520833
590 0.583697
595 0.701802
600 0.598208
Ex : 518
200 0.184043
205 0.266641
210 0.234372
215 0.2024
220 0.272752
225 0.182493
230 0.172815
235 0.239421
240 0.234959
245 0.262716
250 0.238812
255 0.332756
260 0.242255
265 0.301921
270 0.193323
275 0.18519
280 0.215558
285 0.221648
290 0.198852
295 0.233054
300 0.203409
305 0.215849
310 0.275978
315 0.31851
320 0.195814
325 0.262255
330 0.287155
335 0.276869
340 0.189894
345 0.258605
350 0.271781
355 0.228866
360 0.225471
365 0.266731
370 0.292525
375 0.246938
380 0.326495
385 0.240409
390 0.228555
395 0.286121
400 0.222779
405 0.306538
410 0.343889
415 0.259108
420 0.300241
425 0.265752
430 0.343745
435 0.267667
440 0.313171
445 0.366044
450 0.363495
455 0.319389
460 0.385544
465 0.358637
470 0.446419
475 0.375326
480 0.405433
485 0.403777
490 0.696259
495 0.691334
500 1.17181
505 34.9577
510 473.455
515 722.215
520 185.785
525 22.8707
530 3.8121
535 1.62997
540 1.35415
545 1.11519
550 1.23471
555 1.25698
560 1.15819
565 1.096
570 0.911777
575 0.726203
580 0.659055
585 0.675777
590 0.654724
595 0.519004
600 0.775009
Ex : 523
200 0.249822
205 0.227835
210 0.279312
215 0.313945
220 0.213545
225 0.260165
230 0.185241
235 0.25566
240 0.237029
245 0.303611
250 0.201491
255 0.320261
260 0.247675
265 0.268558
270 0.274861
275 0.25291
280 0.25586
285 0.280466
290 0.274222
295 0.236845
300 0.202951
305 0.264229
310 0.26777
315 0.244045
320 0.247958
325 0.291134
330 0.291454
335 0.243805
340 0.228637
345 0.329786
350 0.265419
355 0.23227
360 0.311618
365 0.316497
370 0.351364
375 0.309054
380 0.304967
385 0.285008
390 0.266389
395 0.275982
400 0.34084
405 0.367731
410 0.337319
415 0.270538
420 0.403487
425 0.382903
430 0.24726
435 0.267481
440 0.333842
445 0.304843
450 0.270449
455 0.308003
460 0.338832
465 0.378629
470 0.399934
475 0.367378
480 0.436936
485 0.440165
490 0.473403
495 0.521222
500 0.767356
505 1.16801
510 28.5308
515 459.984
520 697.025
525 185.61
530 22.7533
535 3.83082
540 1.57011
545 1.2296
550 1.16565
555 1.04191
560 1.02424
565 1.02595
570 0.97666
575 0.81529
580 0.542428
585 0.485465
590 0.556109
595 0.474131
600 0.0539543
Ex : 528
200 0.263112
205 0.228837
210 0.249079
215 0.311337
220 0.269454
225 0.254225
230 0.240761
235 0.234565
240 0.262413
245 0.202136
250 0.212659
255 0.193731
260 0.240199
265 0.264009
270 0.272167
275 0.228655
280 0.248041
285 0.222211
290 0.310659
295 0.273717
300 0.230036
305 0.2964
310 0.199298
315 0.237108
320 0.282123
325 0.241605
330 0.38861
335 0.230107
340 0.259338
345 0.294411
350 0.320044
355 0.264537
360 0.267658
365 0.267514
370 0.3145
375 0.272354
380 0.346991
385 0.280778
390 0.242869
395 0.229304
400 0.249911
405 0.321314
410 0.289624
415 0.332964
420 0.266688
425 0.343728
430 0.315199
435 0.292433
440 0.224407
445 0.321012
450 0.341059
455 0.359489
460 0.353473
465 0.358224
470 0.365308
475 0.36196
480 0.344873
485 0.378467
490 0.461142
495 0.562041
500 0.614214
505 0.777073
510 1.09335
515 39.2531
520 449.46
525 685.808
530 175.941
535 21.7535
540 3.74881
545 1.42322
550 1.16628
555 1.13532
560 0.977817
565 0.94334
570 0.889286
575 0.676804
580 0.576087
585 0.600689
590 0.519226
595 0.546893
600 1.04437
Ex : 533
200 0.215183
205 0.220291
210 0.21935
215 0.26362
220 0.313424
225 0.32588
230 0.343568
235 0.311284
240 0.254842
245 0.242508
250 0.237853
255 0.243973
260 0.298184
265 0.304575
270 0.201825
275 0.260081
280 0.28539
285 0.252265
290 0.266583
295 0.35281
300 0.322184
305 0.226071
310 0.223864
315 0.340336
320 0.221575
325 0.257995
330 0.286345
335 0.2677
340 0.242553
345 0.203657
350 0.277959
355 0.321452
360 0.306077
365 0.309466
370 0.292696
375 0.22976
380 0.275978
385 0.242217
390 0.344325
395 0.231119
400 0.332124
405 0.299625
410 0.273189
415 0.256665
420 0.370794
425 0.238798
430 0.239108
435 0.30513
440 0.263086
445 0.340897
450 0.44644
455 0.402783
460 0.35034
465 0.336484
470 0.355937
475 0.405526
480 0.311382
485 0.416405
490 0.333596
495 0.409276
500 0.477697
505 0.67833
510 0.632493
515 0.972537
520 25.6673
525 426.475
530 676.521
535 177
540 21.8069
545 3.52188
550 1.62477
555 1.13358
560 0.777228
565 0.940433
570 0.850421
575 0.743844
580 0.673597
585 0.500052
590 0.646831
595 0.47976
600 0.407171
Ex : 538
200 0.188851
205 0.19958
210 0.207632
215 0.277917
220 0.387407
225 0.28567
230 0.272987
235 0.24672
240 0.225415
245 0.278466
250 0.277993
255 0.331798
260 0.247
265 0.26027
270 0.229968
275 0.231022
280 0.200886
285 0.273641
290 0.297497
295 0.285645
300 0.231845
305 0.296067
310 0.304911
315 0.359863
320 0.285826
325 0.313537
330 0.244818
335 0.204607
340 0.293784
345 0.244797
350 0.230914
355 0.240018
360 0.295676
365 0.326862
370 0.265893
375 0.316915
380 0.225973
385 0.282597
390 0.295805
395 0.201958
400 0.301264
405 0.343276
410 0.266756
415 0.308512
420 0.243495
425 0.269219
430 0.301134
435 0.357611
440 0.308283
445 0.361807
450 0.404122
455 0.339587
460 0.243668
465 0.324377
470 0.329334
475 0.396593
480 0.370862
485 0.359372
490 0.376108
495 0.356746
500 0.388356
505 0.469325
510 0.704515
515 0.860953
520 1.08037
525 23.2074
530 413.109
535 655.314
540 177.297
545 21.6682
550 3.49793
555 1.36683
560 1.0161
565 0.732036
570 0.687179
575 0.730143
580 0.714298
585 0.682296
590 0.458433
595 0.478694
600 1.56799
Ex : 543
200 0.280065
205 0.279748
210 0.266743
215 0.311823
220 0.326991
225 0.319326
230 0.203933
235 0.287113
240 0.271066
245 0.248451
250 0.229433
255 0.148701
260 0.236243
265 0.340135
270 0.276738
275 0.247071
280 0.298326
285 0.23048
290 0.215302
295 0.286843
300 0.269817
305 0.33261
310 0.372916
315 0.293886
320 0.294338
325 0.319779
330 0.185484
335 0.23989
340 0.353497
345 0.302485
350 0.329184
355 0.255341
360 0.334524
365 0.26037
370 0.345522
375 0.308542
380 0.262173
385 0.326596
390 0.352639
395 0.324076
400 0.314913
405 0.273422
410 0.329562
415 0.304036
420 0.30684
425 0.400386
430 0.301709
435 0.298001
440 0.352196
445 0.358626
450 0.340786
455 0.327186
460 0.270469
465 0.272874
470 0.438497
475 0.341622
480 0.285344
485 0.457492
490 0.375225
495 0.445912
500 0.436138
505 0.43157
510 0.560498
515 0.513859
520 0.80749
525 1.009
530 19.6686
535 379.171
540 704.664
545 210.665
550 26.0778
555 4.16847
560 1.4681
565 1.12535
570 1.05565
575 0.811651
580 0.783211
585 0.605908
590 0.674376
595 0.483955
600 1.29374
Ex : 548
200 0.300096
205 0.232839
210 0.253991
215 0.358097
220 0.316809
225 0.253772
230 0.327919
235 0.352562
240 0.29892
245 0.255969
250 0.320945
255 0.327608
260 0.267926
265 0.320405
270 0.299442
275 0.337293
280 0.354769
285 0.284718
290 0.230116
295 0.297359
300 0.314911
305 0.310869
310 0.228855
315 0.337158
320 0.334927
325 0.274023
330 0.247411
335 0.242292
340 0.245064
345 0.280593
350 0.237384
355 0.340831
360 0.265716
365 0.288082
370 0.337334
375 0.412342
380 0.261771
385 0.283892
390 0.31334
395 0.3523
400 0.330655
405 0.335004
410 0.387777
415 0.356273
420 0.319713
425 0.333476
430 0.317464
435 0.374387
440 0.426377
445 0.304323
450 0.341099
455 0.403031
460 0.393436
465 0.372624
470 0.34634
475 0.365286
480 0.294911
485 0.291153
490 0.331139
495 0.372748
500 0.385873
505 0.485536
510 0.428234
515 0.572352
520 0.709745
525 0.792308
530 1.02294
535 23.0753
540 380.798
545 629.659
550 179.591
555 21.8832
560 3.4037
565 1.15917
570 0.919384
575 0.707656
580 0.604025
585 0.52377
590 0.534541
595 0.419548
600 3.28431
Ex : 553
200 0.371185
205 0.270666
210 0.29205
215 0.418102
220 0.274483
225 0.291314
230 0.33472
235 0.329616
240 0.286726
245 0.258453
250 0.414084
255 0.335268
260 0.307761
265 0.256701
270 0.309415
275 0.340894
280 0.294813
285 0.276487
290 0.233175
295 0.198349
300 0.299311
305 0.223163
310 0.420972
315 0.284728
320 0.282836
325 0.314827
330 0.263733
335 0.346705
340 0.300049
345 0.275486
350 0.281915
355 0.284751
360 0.351406
365 0.350747
370 0.38796
375 0.297111
380 0.385442
385 0.302656
390 0.291131
395 0.407532
400 0.366988
405 0.339803
410 0.232676
415 0.392941
420 0.298663
425 0.230977
430 0.304152
435 0.264145
440 0.298359
445 0.286282
450 0.307015
455 0.368299
460 0.375508
465 0.328033
470 0.339798
475 0.323213
480 0.323463
485 0.397614
490 0.334057
495 0.420566
500 0.474507
505 0.470952
510 0.522489
515 0.57452
520 0.510899
525 0.532931
530 0.837946
535 0.919806
540 19.5482
545 366.775
550 676.628
555 208.017
560 25.3697
565 3.74446
570 1.14875
575 0.860964
580 0.654123
585 0.494719
590 0.544868
595 0.522713
600 0.637903
Ex : 558
200 0.280301
205 0.269994
210 0.25063
215 0.276023
220 0.263249
225 0.272891
230 0.260845
235 0.234858
240 0.240886
245 0.292561
250 0.264493
255 0.281673
260 0.327149
265 0.324394
270 0.267823
275 0.369239
280 0.280697
285 0.315533
290 0.182951
295 0.271017
300 0.268908
305 0.286072
310 0.184272
315 0.298517
320 0.274104
325 0.468344
330 0.320876
335 0.304938
340 0.287226
345 0.293171
350 0.213462
355 0.377286
360 0.331967
365 0.353753
370 0.379633
375 0.343343
380 0.33639
385 0.329264
390 0.272681
395 0.276192
400 0.367103
405 0.338095
410 0.308302
415 0.280136
420 0.343503
425 0.353519
430 0.277714
435 0.334106
440 0.272246
445 0.282776
450 0.34589
455 0.331035
460 0.367151
465 0.410095
470 0.35805
475 0.326329
480 0.328423
485 0.32534
490 0.34335
495 0.33863
500 0.340834
505 0.440363
510 0.402241
515 0.429246
520 0.554666
525 0.596209
530 0.598354
535 0.677724
540 1.074
545 22.1929
550 440.687
555 692.745
560 191.689
565 23.3069
570 3.50364
575 0.977002
580 0.71701
585 0.562469
590 0.417068
595 0.463455
600 0.140266
Ex : 563
200 0.303455
205 0.329256
210 0.285529
215 0.381977
220 0.411644
225 0.233255
230 0.280642
235 0.298502
240 0.368594
245 0.389841
250 0.377199
255 0.335877
260 0.265784
265 0.293358
270 0.322857
275 0.253383
280 0.394595
285 0.354485
290 0.322552
295 0.257919
300 0.257808
305 0.290106
310 0.280724
315 0.229554
320 0.361978
325 0.341687
330 0.268843
335 0.361613
340 0.331782
345 0.312499
350 0.261728
355 0.354558
360 0.314024
365 0.367858
370 0.251221
375 0.354684
380 0.260322
385 0.259531
390 0.329848
395 0.243736
400 0.32675
405 0.338794
410 0.319742
415 0.346119
420 0.249969
425 0.299901
430 0.381272
435 0.457946
440 0.346928
445 0.370642
450 0.300778
455 0.305484
460 0.448099
465 0.426986
470 0.325932
475 0.368771
480 0.445801
485 0.331152
490 0.322148
495 0.309745
500 0.309926
505 0.575441
510 0.438714
515 0.392883
520 0.456789
525 0.468802
530 0.361805
535 0.625273
540 0.686471
545 0.835089
550 16.66
555 328.56
560 595.084
565 174.72
570 21.167
575 3.21159
580 1.04215
585 0.604186
590 0.571266
595 0.465049
600 0.188391
Ex : 568
200 0.261195
205 0.318394
210 0.320552
215 0.355014
220 0.310211
225 0.32726
230 0.378609
235 0.35532
240 0.272157
245 0.298736
250 0.266458
255 0.432051
260 0.303814
265 0.303821
270 0.302405
275 0.202728
280 0.286743
285 0.1717
290 0.273916
295 0.245245
300 0.249598
305 0.310022
310 0.302665
315 0.376361
320 0.261386
325 0.233705
330 0.324297
335 0.300894
340 0.336419
345 0.340195
350 0.363203
355 0.399628
360 0.466928
365 0.35775
370 0.40539
375 0.393668
380 0.382526
385 0.38925
390 0.389991
395 0.28257
400 0.393435
405 0.356931
410 0.301175
415 0.350129
420 0.358676
425 0.358665
430 0.368637
435 0.389532
440 0.349991
445 0.400786
450 0.232448
455 0.307195
460 0.352674
465 0.354282
470 0.427446
475 0.466422
480 0.321103
485 0.344065
490 0.327969
495 0.502928
500 0.395531
505 0.44276
510 0.397915
515 0.402909
520 0.391882
525 0.397545
530 0.540198
535 0.485879
540 0.54952
545 0.664179
550 0.772461
555 13.0503
560 315.957
565 609.812
570 175.954
575 21.3582
580 3.03418
585 1.04713
590 0.696307
595 0.634056
600 0.0721531
Ex : 573
200 0.261541
205 0.343062
210 0.319458
215 0.407065
220 0.366161
225 0.330058
230 0.26636
235 0.261882
240 0.242992
245 0.316013
250 0.341045
255 0.281727
260 0.338247
265 0.336087
270 0.230698
275 0.273669
280 0.455919
285 0.343449
290 0.254534
295 0.320776
300 0.324375
305 0.291627
310 0.273707
315 0.416359
320 0.326666
325 0.313583
330 0.261135
335 0.409661
340 0.298489
345 0.235129
350 0.285161
355 0.266417
360 0.314309
365 0.267032
370 0.270437
375 0.289221
380 0.447645
385 0.319309
390 0.306106
395 0.297625
400 0.303577
405 0.455786
410 0.380106
415 0.299056
420 0.250105
425 0.360482
430 0.369336
435 0.374534
440 0.387533
445 0.381306
450 0.428853
455 0.412796
460 0.583275
465 0.535617
470 0.411947
475 0.417255
480 0.402911
485 0.412352
490 0.430178
495 0.368382
500 0.413638
505 0.447606
510 0.420714
515 0.419011
520 0.392947
525 0.443652
530 0.395209
535 0.540715
540 0.384543
545 0.41811
550 0.535157
555 0.731166
560 11.6264
565 254.371
570 516.205
575 169.063
580 20.5165
585 2.78025
590 0.848507
595 0.530393
600 0.347774
Ex : 578
200 0.349072
205 0.383715
210 0.295981
215 0.299188
220 0.427569
225 0.257174
230 0.26653
235 0.337876
240 0.248113
245 0.372927
250 0.385836
255 0.301947
260 0.319994
265 0.305832
270 0.328382
275 0.239547
280 0.300425
285 0.434675
290 0.359613
295 0.272511
300 0.300564
305 0.373229
310 0.285943
315 0.375452
320 0.315073
325 0.304996
330 0.251061
335 0.319463
340 0.419201
345 0.41154
350 0.377238
355 0.419569
360 0.407867
365 0.42592
370 0.307437
375 0.349799
380 0.335799
385 0.305352
390 0.365825
395 0.38207
400 0.38403
405 0.346884
410 0.267439
415 0.292637
420 0.443255
425 0.31462
430 0.316957
435 0.399238
440 0.322462
445 0.429973
450 0.405328
455 0.483466
460 0.39735
465 0.338365
470 0.351785
475 0.346151
480 0.377604
485 0.401671
490 0.340521
495 0.250024
500 0.391749
505 0.36392
510 0.312373
515 0.316441
520 0.440841
525 0.460229
530 0.347574
535 0.432337
540 0.328207
545 0.541715
550 0.474367
555 0.632152
560 0.955491
565 10.8756
570 227.539
575 434.853
580 138.99
585 16.7095
590 2.5723
595 0.562867
600 0.325057
Ex : 583
200 0.273672
205 0.252012
210 0.412598
215 0.308267
220 0.347147
225 0.313657
230 0.324869
235 0.250051
240 0.30494
245 0.362122
250 0.361365
255 0.298392
260 0.334762
265 0.290646
270 0.252842
275 0.203715
280 0.368677
285 0.312578
290 0.319956
295 0.34542
300 0.302835
305 0.379728
310 0.316836
315 0.315861
320 0.391998
325 0.274538
330 0.278239
335 0.321549
340 0.348583
345 0.241649
350 0.219502
355 0.388013
360 0.423609
365 0.410936
370 0.309978
375 0.434255
380 0.402987
385 0.318105
390 0.361373
395 0.293046
400 0.36354
405 0.370605
410 0.258084
415 0.302257
420 0.289437
425 0.28921
430 0.314594
435 0.403915
440 0.241553
445 0.312307
450 0.319215
455 0.276147
460 0.317594
465 0.366531
470 0.322931
475 0.251773
480 0.39167
485 0.38655
490 0.294118
495 0.303052
500 0.317031
505 0.348677
510 0.372497
515 0.473159
520 0.418698
525 0.453084
530 0.410962
535 0.444363
540 0.412156
545 0.464736
550 0.50946
555 0.504931
560 0.517638
565 0.756151
570 10.6542
575 254.147
580 430.103
585 139.368
590 17.1237
595 2.49899
600 0.692412
Ex : 588
200 0.302839
205 0.252604
210 0.293853
215 0.180593
220 0.271331
225 0.331639
230 0.303538
235 0.239879
240 0.275585
245 0.293407
250 0.308734
255 0.259692
260 0.324014
265 0.338688
270 0.342089
275 0.341903
280 0.283948
285 0.249166
290 0.303058
295 0.244966
300 0.216987
305 0.295015
310 0.487374
315 0.246247
320 0.408337
325 0.18965
330 0.262433
335 0.391834
340 0.390551
345 0.366656
350 0.306372
355 0.357362
360 0.279848
365 0.262193
370 0.332633
375 0.255129
380 0.329171
385 0.318293
390 0.279437
395 0.359135
400 0.284633
405 0.383104
410 0.354432
415 0.388602
420 0.30137
425 0.369966
430 0.396991
435 0.315448
440 0.338944
445 0.301723
450 0.288361
455 0.318727
460 0.372351
465 0.424278
470 0.352186
475 0.399701
480 0.346878
485 0.43256
490 0.282361
495 0.357099
500 0.367604
505 0.321825
510 0.337108
515 0.380912
520 0.350073
525 0.317991
530 0.293835
535 0.398253
540 0.30396
545 0.384127
550 0.396185
555 0.377194
560 0.482184
565 0.444107
570 0.677162
575 7.57785
580 176.268
585 342.666
590 109.781
595 13.2306
600 2.46348
Ex : 593
200 0.283473
205 0.284332
210 0.368463
215 0.346665
220 0.314614
225 0.301842
230 0.341213
235 0.424156
240 0.365234
245 0.353302
250 0.483631
255 0.300849
260 0.382077
265 0.285067
270 0.365317
275 0.391338
280 0.326707
285 0.231399
290 0.250543
295 0.395577
300 0.382881
305 0.24774
310 0.318619
315 0.369686
320 0.303898
325 0.283573
330 0.220128
335 0.356153
340 0.290589
345 0.327594
350 0.311925
355 0.247195
360 0.31922
365 0.268271
370 0.353807
375 0.399649
380 0.317145
385 0.318481
390 0.303497
395 0.352804
400 0.306334
405 0.458077
410 0.374786
415 0.328956
420 0.392144
425 0.307931
430 0.299861
435 0.272962
440 0.356663
445 0.475007
450 0.546335
455 0.304012
460 0.314501
465 0.3753
470 0.28185
475 0.325789
480 0.289017
485 0.329552
490 0.35731
495 0.379489
500 0.335856
505 0.339913
510 0.369166
515 0.371218
520 0.295514
525 0.354104
530 0.301012
535 0.358015
540 0.298632
545 0.333187
550 0.295565
555 0.318661
560 0.348533
565 0.374598
570 0.457669
575 0.68597
580 6.62667
585 158.822
590 293.581
595 88.1927
600 14.3723
Ex : 598
200 0.258472
205 0.271648
210 0.317555
215 0.295054
220 0.242376
225 0.298581
230 0.393922
235 0.351814
240 0.280469
245 0.362385
250 0.31058
255 0.278298
260 0.276622
265 0.309013
270 0.302753
275 0.277673
280 0.434387
285 0.282345
290 0.262273
295 0.27886
300 0.246284
305 0.26689
310 0.215681
315 0.359157
320 0.355783
325 0.3455
330 0.396433
335 0.378728
340 0.361689
345 0.297737
350 0.245609
355 0.237104
360 0.296121
365 0.21877
370 0.398968
375 0.3253
380 0.254408
385 0.339917
390 0.299934
395 0.377139
400 0.348587
405 0.311792
410 0.349984
415 0.394649
420 0.3619
425 0.350212
430 0.480887
435 0.263714
440 0.395902
445 0.412289
450 0.350322
455 0.323437
460 0.272124
465 0.278367
470 0.414337
475 0.372348
480 0.301828
485 0.298755
490 0.439045
495 0.371289
500 0.32529
505 0.333336
510 0.351333
515 0.310589
520 0.388901
525 0.442321
530 0.236985
535 0.349895
540 0.371864
545 0.422265
550 0.427781
555 0.469768
560 0.490903
565 0.39318
570 0.63287
575 0.394399
580 0.660129
585 6.24979
590 138.676
595 261.795
600 179.074
Ex : 603
200 0.30291
205 0.268733
210 0.357742
215 0.206249
220 0.242842
225 0.240657
230 0.36822
235 0.443617
240 0.317736
245 0.299825
250 0.320926
255 0.242453
260 0.241716
265 0.394482
270 0.39592
275 0.550388
280 0.239515
285 0.418569
290 0.325485
295 0.363545
300 0.352821
305 0.394131
310 0.289967
315 0.276405
320 0.195269
325 0.283759
330 0.404607
335 0.229131
340 0.213093
345 0.292428
350 0.475933
355 0.278868
360 0.42677
365 0.428978
370 0.29135
375 0.212178
380 0.237276
385 0.38622
390 0.332126
395 0.316798
400 0.328423
405 0.284873
410 0.410394
415 0.322642
420 0.391304
425 0.419441
430 0.285708
435 0.367847
440 0.395451
445 0.329104
450 0.354271
455 0.296246
460 0.369656
465 0.424154
470 0.483965
475 0.361323
480 0.473333
485 0.409878
490 0.402543
495 0.314527
500 0.268434
505 0.424376
510 0.315028
515 0.342187
520 0.272497
525 0.384814
530 0.326189
535 0.31486
540 0.328667
545 0.367002
550 0.545224
555 0.476496
560 0.432366
565 0.41768
570 0.411755
575 0.456576
580 0.549248
585 0.522928
590 5.8957
595 121.246
600 246.071
