File format V 1.0
ven. 13. janv. 14:47:49 2017
Operator : 
Comments : 

=============================================
SpectroFluorometer parameters
Mode : 3D measurement
Data : Fluorescence
Phospho. : Ordinary
Spectrum : Fluorescence

Scan speed : 2400 nm/mn
Response : 100 ms
PM Voltage : 700 V
Shutter : On

Lambda Ex. Start : 203
Lambda Ex. End : 603
Lambda Ex. Step : 5
Ex. Slit : 5 nm

Lambda Em. Start : 200
Lambda Em. End : 600
Lambda Em. Step : 5
Em. Slit : 5 nm

Repetition : 1
Decal lambda em : 10
=============================================
DATA
Ex : 203
200 8.56938
205 5.40618
210 5.27986
215 6.13154
220 5.84783
225 5.82856
230 8.10201
235 5.43081
240 5.99115
245 4.6023
250 6.34219
255 5.27512
260 5.82045
265 3.83512
270 4.75241
275 6.12974
280 6.0836
285 4.67
290 6.0267
295 7.6925
300 7.66433
305 8.24506
310 5.93167
315 5.42404
320 7.1735
325 4.46701
330 8.24695
335 7.2903
340 7.68466
345 5.99747
350 5.17203
355 5.70474
360 5.68846
365 6.65846
370 7.22916
375 8.35956
380 8.19731
385 5.65356
390 6.01466
395 6.80807
400 4.8521
405 5.89494
410 6.03728
415 6.36529
420 6.80117
425 5.9956
430 7.01402
435 8.87339
440 5.60458
445 8.02838
450 4.7663
455 5.55749
460 6.47024
465 6.85841
470 6.91637
475 9.01485
480 6.76156
485 6.46588
490 6.01925
495 5.95155
500 8.80757
505 6.39581
510 6.55319
515 6.92003
520 7.4967
525 8.27873
530 5.90393
535 8.05825
540 7.95599
545 5.4834
550 6.57542
555 6.93926
560 7.90039
565 8.47648
570 6.59307
575 8.05324
580 3.914
585 6.6235
590 6.26234
595 7.94021
600 12.4242
Ex : 208
200 8.09722
205 6.04516
210 5.9585
215 6.65993
220 6.69714
225 7.5535
230 7.51023
235 4.01569
240 6.68898
245 5.72059
250 5.96414
255 6.38568
260 4.26744
265 9.53512
270 5.94246
275 5.87502
280 5.7144
285 4.13601
290 7.04744
295 5.6869
300 4.53093
305 5.71819
310 4.94507
315 4.4294
320 6.24547
325 5.82184
330 5.2999
335 5.56499
340 7.5704
345 6.64665
350 3.04893
355 3.06769
360 4.58183
365 6.58055
370 5.2949
375 6.52126
380 7.07458
385 5.80374
390 6.44167
395 8.21792
400 8.82363
405 6.06869
410 5.07921
415 10.4088
420 7.97181
425 6.44083
430 5.38451
435 8.17032
440 6.78204
445 5.02304
450 10.3282
455 8.6593
460 8.76618
465 7.11483
470 8.59375
475 9.58552
480 8.02805
485 8.43809
490 7.11788
495 6.72498
500 7.49218
505 8.5811
510 6.80135
515 8.32374
520 6.12875
525 8.57432
530 6.92474
535 6.07147
540 8.40987
545 6.81184
550 8.10306
555 7.62699
560 4.68191
565 6.26528
570 6.62943
575 5.81367
580 9.00701
585 6.83042
590 7.68721
595 8.02434
600 0.91314
Ex : 213
200 4.84689
205 6.22326
210 9.1084
215 8.62563
220 7.87379
225 5.0395
230 3.10095
235 5.32136
240 6.21681
245 7.48831
250 7.51918
255 7.43199
260 7.84589
265 5.73256
270 4.52845
275 6.69306
280 5.55205
285 6.2768
290 6.43786
295 4.59778
300 5.82011
305 5.62187
310 5.64105
315 5.44979
320 6.48155
325 6.58652
330 4.37996
335 6.74677
340 8.09984
345 5.02438
350 6.87365
355 7.55032
360 6.02593
365 5.66908
370 7.24107
375 4.76824
380 7.07836
385 6.72196
390 5.40752
395 6.55789
400 6.35747
405 8.02672
410 6.50268
415 4.6096
420 5.21338
425 5.80744
430 5.98607
435 7.51594
440 4.36266
445 7.1806
450 6.32573
455 5.90292
460 5.02332
465 8.42087
470 5.41614
475 7.12478
480 4.59499
485 6.4128
490 7.46651
495 5.66634
500 7.57064
505 5.35241
510 7.29433
515 5.51072
520 9.46429
525 8.3744
530 6.81294
535 9.17005
540 11.9193
545 6.71481
550 4.86993
555 5.74191
560 6.07563
565 5.429
570 8.69964
575 5.91949
580 5.8525
585 8.23901
590 6.51691
595 6.24381
600 0.710521
Ex : 218
200 4.04
205 5.15043
210 5.70504
215 6.28978
220 7.52793
225 6.49009
230 6.23379
235 5.44261
240 5.75447
245 6.42484
250 6.97327
255 8.27413
260 7.7507
265 5.43387
270 7.41121
275 6.16936
280 8.63814
285 4.83639
290 7.87299
295 4.89032
300 8.91713
305 7.23406
310 5.40395
315 4.96943
320 9.89078
325 4.57582
330 7.19469
335 6.31816
340 6.27022
345 6.22124
350 4.92477
355 7.74673
360 8.65032
365 7.41556
370 5.17038
375 7.25951
380 6.2364
385 4.89758
390 6.72277
395 7.98236
400 7.25752
405 6.78383
410 6.73774
415 4.527
420 5.99092
425 6.36223
430 7.19288
435 6.32297
440 6.37915
445 6.86441
450 7.30604
455 6.39189
460 8.91965
465 6.65559
470 9.16315
475 5.50157
480 8.14268
485 7.3416
490 5.20535
495 5.26664
500 7.28211
505 6.45894
510 7.41107
515 5.36185
520 6.7795
525 6.3081
530 5.4909
535 6.54131
540 7.6591
545 5.58493
550 6.0259
555 8.24983
560 4.72281
565 9.22727
570 6.88117
575 6.30507
580 5.54833
585 5.39373
590 7.23154
595 4.79427
600 7.3398
Ex : 223
200 6.73364
205 4.94298
210 5.52917
215 5.46376
220 9.18839
225 8.6768
230 5.9468
235 5.09102
240 3.96661
245 3.6376
250 6.10595
255 7.33748
260 6.52371
265 4.13397
270 4.73379
275 4.60895
280 6.31858
285 7.28859
290 5.40286
295 3.53059
300 4.35227
305 4.26465
310 3.91589
315 6.7356
320 8.40115
325 7.34767
330 4.88854
335 7.54918
340 4.95286
345 4.71718
350 3.73742
355 5.20775
360 4.18388
365 8.43916
370 6.59836
375 6.74291
380 6.8132
385 7.219
390 10.442
395 8.55025
400 5.42807
405 4.37838
410 4.59298
415 5.28102
420 7.18934
425 7.16676
430 5.95068
435 5.83512
440 4.52684
445 4.74257
450 7.93152
455 6.55703
460 7.37497
465 7.31567
470 6.96946
475 6.68594
480 5.86954
485 7.29158
490 5.15604
495 4.6357
500 5.32914
505 7.18798
510 3.90748
515 4.87951
520 6.91754
525 6.13909
530 6.62642
535 6.43643
540 6.85634
545 4.08335
550 5.84826
555 7.21589
560 9.01427
565 6.77981
570 7.07735
575 4.90011
580 5.60495
585 5.12302
590 6.02911
595 6.80492
600 0.774374
Ex : 228
200 6.0819
205 8.3587
210 4.69464
215 5.63087
220 7.11006
225 5.69751
230 7.1702
235 5.29048
240 7.17964
245 5.66416
250 8.39509
255 6.93928
260 6.71344
265 5.76106
270 6.5091
275 4.96254
280 3.9746
285 3.63198
290 5.96659
295 4.27797
300 4.30252
305 3.45417
310 5.27503
315 9.3821
320 7.40993
325 6.86486
330 6.43074
335 6.9503
340 6.57618
345 6.04235
350 4.30362
355 6.74506
360 4.90821
365 4.50546
370 4.47242
375 5.44532
380 6.83884
385 3.27962
390 6.27988
395 3.84044
400 5.35527
405 5.24288
410 4.73874
415 6.63094
420 8.77685
425 6.93594
430 6.53
435 7.05874
440 7.90871
445 5.15076
450 6.48902
455 5.85174
460 6.64179
465 6.40774
470 5.23047
475 7.32494
480 7.77225
485 6.11941
490 7.33498
495 5.57396
500 5.66613
505 5.72859
510 6.02666
515 5.82194
520 6.13066
525 8.42373
530 4.4996
535 5.91869
540 5.99849
545 5.16006
550 5.84216
555 5.08088
560 7.44727
565 5.55087
570 5.30991
575 4.81864
580 4.08129
585 7.35319
590 7.16512
595 5.69145
600 41.7928
Ex : 233
200 6.5315
205 4.78001
210 3.61401
215 8.8302
220 5.50583
225 5.53122
230 3.77955
235 5.04805
240 5.92477
245 6.0924
250 8.74866
255 4.46138
260 6.44813
265 4.06811
270 4.54528
275 6.35895
280 6.79211
285 4.84725
290 7.08917
295 5.27451
300 4.82156
305 4.10067
310 3.35313
315 4.16097
320 5.77195
325 6.62368
330 5.76209
335 7.23541
340 8.86303
345 4.83772
350 4.19731
355 6.35881
360 7.43605
365 5.1911
370 4.90382
375 6.34207
380 5.20238
385 6.53815
390 5.20046
395 5.14639
400 3.95172
405 5.91225
410 5.17426
415 6.58414
420 5.66092
425 6.80001
430 4.73064
435 4.6799
440 6.65191
445 5.21704
450 7.96001
455 3.68544
460 7.88336
465 5.24235
470 6.64121
475 6.84704
480 5.93723
485 7.64228
490 4.36648
495 6.79121
500 6.14815
505 4.85741
510 6.12422
515 4.65383
520 6.30822
525 5.3531
530 4.44938
535 6.37788
540 8.69807
545 6.45655
550 6.47024
555 4.0667
560 3.92371
565 4.24872
570 5.3519
575 6.73222
580 5.3079
585 4.34618
590 4.80153
595 4.78724
600 4.97579
Ex : 238
200 7.18116
205 5.74382
210 3.96036
215 4.46241
220 4.29204
225 6.70532
230 4.58843
235 3.70037
240 4.37794
245 4.08681
250 3.8758
255 4.04408
260 3.46152
265 3.91592
270 5.28565
275 6.49539
280 3.61693
285 4.55252
290 5.51832
295 3.80845
300 4.66376
305 4.45821
310 3.94593
315 5.10491
320 5.04393
325 3.5391
330 4.35386
335 4.32118
340 5.15862
345 4.9094
350 5.45293
355 5.17331
360 5.4935
365 4.86922
370 4.07965
375 3.08676
380 5.07322
385 4.52023
390 4.95185
395 6.40103
400 4.70128
405 5.24708
410 5.16156
415 5.92863
420 4.52301
425 6.51584
430 5.60008
435 5.93458
440 5.71089
445 7.52467
450 7.36853
455 7.20519
460 4.73484
465 5.45139
470 4.20864
475 4.20165
480 4.4711
485 6.92156
490 4.39747
495 4.77922
500 6.31224
505 6.61364
510 5.84746
515 5.24357
520 9.24757
525 6.04097
530 5.44373
535 5.36913
540 4.81053
545 5.30069
550 5.86988
555 3.97869
560 5.69641
565 5.23797
570 4.46754
575 5.72491
580 4.83396
585 4.96817
590 5.26931
595 6.61179
600 16.3243
Ex : 243
200 5.18954
205 4.6206
210 4.01431
215 3.55112
220 4.40518
225 3.63863
230 3.74179
235 6.00948
240 5.68865
245 4.38286
250 5.32713
255 4.43472
260 4.04655
265 5.06874
270 5.36172
275 3.45471
280 4.47921
285 6.44787
290 6.48977
295 3.79816
300 4.62235
305 3.63344
310 4.49922
315 3.89782
320 4.97473
325 4.6626
330 3.5614
335 6.41964
340 5.59874
345 3.82571
350 3.36278
355 5.64742
360 4.44795
365 4.31625
370 5.20483
375 3.17435
380 5.29697
385 4.1537
390 4.33357
395 8.90328
400 5.18371
405 5.21276
410 3.89468
415 3.88955
420 3.60136
425 4.10043
430 5.77783
435 6.32055
440 4.2224
445 5.37883
450 4.06331
455 3.30345
460 7.04833
465 4.68422
470 6.33092
475 4.41048
480 4.627
485 4.89094
490 5.22797
495 4.74356
500 6.52167
505 5.93693
510 4.33858
515 4.65688
520 3.90176
525 4.44209
530 5.15433
535 5.50691
540 6.24237
545 5.73122
550 3.29278
555 5.66388
560 4.3077
565 4.17045
570 6.02215
575 4.75621
580 3.14212
585 5.89411
590 4.47859
595 4.02873
600 10.2067
Ex : 248
200 3.30946
205 4.51134
210 2.87572
215 2.69573
220 4.97548
225 5.12936
230 5.30059
235 4.15318
240 3.13378
245 3.48753
250 3.26018
255 2.71142
260 3.16322
265 3.43094
270 5.17086
275 3.41706
280 2.92452
285 2.79391
290 3.09949
295 3.72479
300 3.59901
305 5.10001
310 4.92989
315 4.03007
320 4.72107
325 3.49039
330 5.25285
335 4.58438
340 4.53363
345 4.6575
350 2.90003
355 2.498
360 4.53701
365 3.65012
370 4.86892
375 3.10749
380 3.17711
385 4.41534
390 3.46483
395 4.44215
400 3.22471
405 3.32714
410 5.42054
415 4.41374
420 3.24728
425 5.68675
430 4.34133
435 3.39995
440 2.68474
445 5.06822
450 4.76803
455 3.98423
460 4.24103
465 4.52935
470 5.14022
475 3.5506
480 3.61523
485 5.59248
490 5.12184
495 3.47626
500 5.04088
505 4.18419
510 3.57912
515 4.0107
520 2.54774
525 2.40771
530 4.83677
535 4.48429
540 4.20325
545 3.275
550 3.78946
555 3.97347
560 4.0557
565 5.88209
570 3.89013
575 3.14112
580 4.9099
585 5.37062
590 5.6023
595 3.51074
600 2.86119
Ex : 253
200 3.18428
205 3.71346
210 5.57569
215 2.86297
220 2.44223
225 3.86554
230 2.98217
235 2.33551
240 2.46907
245 1.91969
250 2.42022
255 2.40626
260 2.96392
265 2.31796
270 1.90151
275 3.0216
280 3.52824
285 2.6224
290 2.83818
295 2.98802
300 3.84387
305 3.79172
310 5.46818
315 3.10832
320 2.44436
325 3.2351
330 3.30328
335 2.23887
340 3.4686
345 4.8323
350 5.25758
355 3.03957
360 4.5746
365 5.77215
370 3.88657
375 3.51931
380 3.22297
385 3.86033
390 5.33325
395 2.77589
400 3.20921
405 4.05595
410 3.29869
415 3.27233
420 3.77446
425 3.30591
430 3.99883
435 1.81963
440 2.82073
445 4.23823
450 4.28559
455 5.23161
460 3.50252
465 4.44505
470 3.11169
475 2.95423
480 5.03219
485 4.1259
490 3.97465
495 2.31571
500 2.83939
505 2.88717
510 3.34844
515 3.08062
520 3.72637
525 2.715
530 3.61789
535 2.45611
540 3.0011
545 3.20749
550 4.19729
555 2.84011
560 2.14519
565 4.06878
570 2.48955
575 2.30797
580 3.50417
585 3.34616
590 3.14582
595 5.06476
600 5.89357
Ex : 258
200 2.6163
205 3.30039
210 3.053
215 3.22802
220 3.20824
225 2.91071
230 3.53984
235 2.23454
240 2.21532
245 2.84051
250 2.32705
255 3.4444
260 2.34366
265 2.58019
270 2.76296
275 1.73304
280 1.97136
285 2.96631
290 2.38089
295 2.73891
300 1.89779
305 2.23424
310 2.43729
315 2.71035
320 2.0221
325 2.31853
330 2.42194
335 2.74756
340 3.95614
345 3.05112
350 3.46788
355 3.24897
360 2.698
365 3.11776
370 2.95736
375 3.35102
380 3.44547
385 4.17938
390 2.45279
395 3.26853
400 2.82337
405 3.12789
410 4.2927
415 3.9567
420 2.79515
425 2.55986
430 2.91131
435 3.55687
440 3.38797
445 2.78603
450 3.51439
455 3.52478
460 2.99101
465 3.15547
470 2.66992
475 3.25606
480 3.37485
485 2.82111
490 2.34664
495 2.93994
500 4.9934
505 4.30652
510 4.16661
515 3.66554
520 2.60274
525 3.26664
530 3.209
535 2.94513
540 2.70967
545 2.94543
550 2.53742
555 2.67096
560 3.14155
565 2.3586
570 2.14273
575 2.4602
580 2.2585
585 3.23976
590 3.76841
595 2.05869
600 1.48973
Ex : 263
200 1.76983
205 2.11111
210 2.57987
215 3.45419
220 1.79316
225 2.01426
230 2.05226
235 1.40544
240 2.39641
245 2.19953
250 2.06484
255 2.18849
260 1.71769
265 2.60937
270 1.81961
275 1.66994
280 1.73342
285 2.10338
290 2.26158
295 3.2418
300 1.90061
305 2.72719
310 2.43131
315 2.12387
320 1.53605
325 1.08454
330 2.252
335 3.13433
340 1.63348
345 2.58952
350 2.35359
355 2.99235
360 2.53652
365 2.85149
370 3.07381
375 3.69189
380 2.87498
385 3.16777
390 2.48022
395 1.32129
400 3.18778
405 2.06388
410 1.92645
415 2.72285
420 2.46086
425 2.64927
430 1.95304
435 3.58649
440 2.34996
445 2.51798
450 2.15819
455 2.49176
460 2.29716
465 2.55355
470 2.74963
475 2.19938
480 3.11255
485 2.24758
490 3.67418
495 2.48264
500 1.54711
505 1.29885
510 1.77869
515 2.49553
520 1.71759
525 2.74648
530 2.36965
535 2.26532
540 2.61734
545 2.187
550 2.10695
555 2.60723
560 3.0272
565 2.41045
570 2.43068
575 1.99166
580 2.51763
585 2.5716
590 3.62652
595 2.15138
600 2.12149
Ex : 268
200 1.08787
205 2.54021
210 1.19201
215 1.23427
220 1.08625
225 1.72129
230 1.35923
235 1.46554
240 1.84281
245 1.55277
250 1.60478
255 1.30712
260 1.47364
265 1.57378
270 1.84845
275 1.34975
280 1.58583
285 1.78805
290 1.55482
295 1.3119
300 1.68141
305 1.08309
310 1.47297
315 1.43157
320 1.32908
325 1.65207
330 1.6199
335 2.25507
340 1.50267
345 1.54839
350 1.16538
355 1.57771
360 2.02954
365 1.21167
370 1.66575
375 2.12764
380 1.97788
385 1.9305
390 1.82896
395 1.59725
400 2.40719
405 2.62477
410 2.27168
415 1.95025
420 2.21181
425 2.02739
430 1.94944
435 2.25189
440 2.22266
445 2.68721
450 1.92246
455 2.03576
460 1.88755
465 1.18216
470 3.36213
475 2.19731
480 1.73491
485 1.82323
490 1.37944
495 2.59266
500 2.68734
505 1.51938
510 1.65509
515 2.43542
520 2.70925
525 2.3445
530 2.00803
535 2.25036
540 2.18803
545 1.96933
550 1.95995
555 2.19445
560 2.17572
565 1.52619
570 1.70865
575 2.00878
580 1.64585
585 2.08227
590 1.95439
595 1.92801
600 5.48739
Ex : 273
200 1.13139
205 1.72881
210 1.44688
215 1.211
220 1.5491
225 0.88902
230 1.17734
235 1.50561
240 1.31919
245 0.782607
250 1.36455
255 1.12213
260 1.15044
265 1.36386
270 1.34379
275 1.49863
280 1.1378
285 2.33644
290 1.15567
295 1.14944
300 1.20697
305 1.49824
310 1.59812
315 1.1935
320 1.4999
325 1.75746
330 1.30617
335 1.30717
340 1.2698
345 1.0244
350 1.80054
355 1.40222
360 1.26282
365 1.85943
370 1.04197
375 2.47007
380 2.3208
385 1.19492
390 1.65993
395 2.1
400 1.14862
405 1.80186
410 1.2701
415 1.43755
420 1.34005
425 2.15255
430 2.06754
435 1.86193
440 2.05515
445 1.96039
450 2.10661
455 1.38028
460 1.18149
465 1.48769
470 1.32306
475 1.85742
480 1.97394
485 2.04975
490 1.85449
495 1.30016
500 1.62882
505 0.9447
510 1.30808
515 1.5809
520 1.3636
525 1.20283
530 1.33691
535 1.37272
540 1.40246
545 2.78109
550 1.4582
555 1.42124
560 1.49104
565 1.1271
570 1.42826
575 1.28601
580 1.69038
585 1.56919
590 1.43312
595 1.51332
600 0.17221
Ex : 278
200 0.876974
205 0.887449
210 0.916118
215 1.05066
220 1.51689
225 1.03295
230 1.14395
235 0.750741
240 0.796455
245 0.990881
250 1.40781
255 1.4548
260 1.75953
265 1.54337
270 1.61822
275 1.38616
280 0.711246
285 1.59867
290 0.935645
295 1.34731
300 0.983208
305 1.12395
310 0.973284
315 1.22019
320 0.916251
325 1.4005
330 1.21871
335 1.61121
340 1.23331
345 0.813177
350 1.12607
355 1.01214
360 1.17832
365 0.939057
370 1.16452
375 1.38558
380 1.49728
385 1.53702
390 1.21772
395 1.46862
400 1.74794
405 1.57998
410 1.48317
415 1.69074
420 1.51689
425 2.02755
430 1.32501
435 2.20635
440 1.59624
445 1.57807
450 1.36118
455 2.00405
460 1.57637
465 2.13675
470 1.50363
475 1.67152
480 1.14318
485 1.31976
490 1.20615
495 1.31196
500 1.05172
505 1.3515
510 1.26989
515 1.17064
520 1.07559
525 1.2335
530 1.24007
535 1.0773
540 1.3295
545 1.29461
550 1.45447
555 1.52724
560 1.59395
565 1.07728
570 1.2259
575 0.946555
580 1.2975
585 1.18986
590 1.59608
595 1.06045
600 1.09856
Ex : 283
200 0.761411
205 1.44433
210 1.06835
215 1.02083
220 0.687712
225 0.921732
230 0.978559
235 0.940445
240 0.954586
245 0.850537
250 0.882118
255 1.03703
260 0.690568
265 1.2076
270 0.964667
275 1.23828
280 1.05836
285 1.68914
290 1.23766
295 1.03452
300 1.32926
305 0.847172
310 1.10719
315 0.621446
320 0.74201
325 1.02234
330 1.12559
335 0.945269
340 1.32878
345 1.30186
350 0.894653
355 1.4616
360 1.44626
365 1.02565
370 1.10711
375 1.14239
380 1.30159
385 1.30459
390 1.02791
395 1.44504
400 1.47309
405 0.987985
410 1.00789
415 1.45228
420 1.76436
425 1.62383
430 1.14557
435 1.39064
440 1.45728
445 1.43852
450 1.40939
455 1.07082
460 1.12555
465 1.15119
470 1.17844
475 1.29388
480 1.00614
485 1.0362
490 0.993095
495 1.1139
500 1.10368
505 1.20293
510 1.43216
515 1.32669
520 0.940567
525 1.02198
530 1.01745
535 1.03368
540 0.815121
545 0.864435
550 1.01184
555 1.1559
560 1.61081
565 1.08633
570 1.29784
575 0.689395
580 0.842886
585 1.15335
590 1.23422
595 0.933824
600 0.820152
Ex : 288
200 0.550058
205 0.806861
210 0.935748
215 0.60618
220 0.694963
225 0.724813
230 0.648609
235 1.44706
240 1.02519
245 0.941159
250 0.870234
255 0.805431
260 0.790078
265 0.622144
270 0.706767
275 0.632759
280 0.567992
285 0.740666
290 0.667354
295 1.12892
300 0.557108
305 0.681428
310 0.794479
315 0.913017
320 0.622312
325 0.786321
330 0.808446
335 0.602893
340 0.833753
345 0.899016
350 0.860874
355 0.939186
360 0.955358
365 0.811424
370 1.0258
375 1.06925
380 1.33014
385 1.07628
390 0.971177
395 0.934964
400 1.22394
405 1.2668
410 1.31046
415 1.52073
420 1.10107
425 1.11358
430 1.26994
435 1.45176
440 1.27952
445 1.2252
450 1.0277
455 0.7571
460 1.05624
465 1.01104
470 0.869986
475 0.980568
480 1.08113
485 0.900508
490 0.966638
495 1.20858
500 0.739782
505 1.03891
510 0.808352
515 0.73028
520 0.793514
525 0.736918
530 1.0005
535 0.675823
540 0.973373
545 0.933266
550 0.629032
555 0.640916
560 0.989909
565 1.01742
570 1.70208
575 0.973221
580 0.813316
585 0.632807
590 0.96232
595 0.888543
600 0.224769
Ex : 293
200 0.661218
205 0.660779
210 0.498265
215 0.589473
220 0.583921
225 1.02628
230 0.790089
235 0.703776
240 0.703712
245 0.737529
250 0.733781
255 0.918915
260 0.628958
265 0.77571
270 0.671881
275 0.505878
280 0.582676
285 0.769052
290 0.832191
295 0.857931
300 0.678674
305 0.631712
310 0.985961
315 0.561523
320 1.01061
325 0.702724
330 0.748725
335 0.756128
340 0.719364
345 0.930072
350 0.502964
355 0.893889
360 0.819354
365 0.924635
370 1.02813
375 1.32764
380 1.13296
385 0.770615
390 0.661666
395 1.45822
400 1.15293
405 1.08219
410 0.94884
415 1.31591
420 1.04655
425 1.09793
430 0.99644
435 1.00888
440 0.813296
445 1.0142
450 1.02238
455 0.660725
460 0.958289
465 0.784442
470 0.760312
475 0.803568
480 0.766688
485 0.786741
490 0.709515
495 0.748578
500 1.0243
505 0.949911
510 0.817059
515 0.699585
520 0.692321
525 0.636649
530 0.748056
535 0.590456
540 0.703225
545 0.975933
550 0.601769
555 0.64141
560 0.694603
565 0.716619
570 0.892144
575 0.98152
580 1.00144
585 1.03709
590 0.631291
595 0.627965
600 0.577862
Ex : 298
200 0.218415
205 0.376566
210 0.366362
215 0.498777
220 0.564032
225 0.584738
230 0.470944
235 0.732746
240 0.548853
245 0.490096
250 0.360392
255 0.477231
260 0.574885
265 0.85681
270 0.627178
275 0.528397
280 0.570299
285 0.547763
290 0.554796
295 0.748083
300 0.573923
305 0.756496
310 0.611781
315 0.507525
320 0.528218
325 0.631007
330 0.657196
335 0.54038
340 0.639054
345 0.687335
350 0.742869
355 0.537195
360 0.562712
365 0.453081
370 1.09154
375 0.800053
380 0.880912
385 0.9458
390 1.1086
395 0.833062
400 1.0858
405 1.20029
410 0.950824
415 0.86715
420 1.07933
425 0.763793
430 1.00914
435 0.810071
440 1.16017
445 0.688245
450 0.813697
455 0.743456
460 0.911139
465 1.18661
470 0.916144
475 0.713021
480 0.684951
485 0.706974
490 0.673285
495 0.80124
500 1.02857
505 0.902407
510 0.716657
515 0.612739
520 0.621177
525 0.958041
530 0.478656
535 0.745647
540 0.503189
545 0.437338
550 0.56883
555 0.638628
560 0.540076
565 0.661151
570 0.577035
575 0.424484
580 0.848291
585 0.85061
590 1.1007
595 0.956119
600 0.387793
Ex : 303
200 0.383955
205 0.622684
210 0.768282
215 0.641388
220 0.628148
225 0.630589
230 0.413701
235 0.690921
240 0.40067
245 0.384349
250 0.407145
255 0.351572
260 0.6261
265 0.621477
270 0.674786
275 0.521223
280 0.391514
285 0.393663
290 0.613545
295 0.661176
300 0.808338
305 0.655873
310 0.543449
315 0.56467
320 0.436892
325 0.351824
330 0.54639
335 0.437161
340 0.590651
345 0.642229
350 0.727202
355 0.600509
360 0.832794
365 0.899015
370 0.652009
375 0.660127
380 0.872904
385 1.21126
390 1.08383
395 0.887591
400 0.949596
405 1.15968
410 0.688081
415 0.901988
420 0.817431
425 0.865067
430 0.788872
435 1.06842
440 1.14743
445 1.01512
450 0.757964
455 0.903619
460 0.770484
465 0.955012
470 0.656676
475 0.797118
480 0.575424
485 0.578441
490 0.547812
495 0.725577
500 0.838096
505 0.584335
510 0.571651
515 0.518605
520 0.52317
525 0.596193
530 0.601509
535 0.638271
540 0.489592
545 0.444616
550 0.46781
555 0.496003
560 0.360588
565 0.620668
570 0.780725
575 0.716115
580 0.711223
585 0.475247
590 0.818851
595 0.736668
600 0.222299
Ex : 308
200 0.356016
205 0.369214
210 0.331561
215 0.572076
220 0.583583
225 0.549103
230 0.623001
235 0.404645
240 0.393395
245 0.409036
250 0.601082
255 0.436109
260 0.433369
265 0.46721
270 0.490118
275 0.503828
280 0.288811
285 0.489581
290 0.390922
295 0.488177
300 0.444553
305 0.744304
310 0.489854
315 0.41163
320 0.43107
325 0.502193
330 0.663934
335 0.584798
340 0.608393
345 0.869931
350 0.501096
355 0.483376
360 0.767572
365 0.667742
370 0.987435
375 0.879981
380 0.737619
385 0.822881
390 0.938313
395 0.9283
400 0.725449
405 0.679342
410 0.777951
415 0.969211
420 0.812832
425 0.67341
430 0.965489
435 0.891039
440 0.705919
445 1.0209
450 0.903748
455 0.709658
460 0.645609
465 0.969925
470 0.795646
475 0.868135
480 0.667271
485 0.520207
490 0.797847
495 0.678285
500 0.748026
505 0.768017
510 0.791448
515 0.487488
520 0.456299
525 0.373808
530 0.532476
535 0.492695
540 0.325245
545 0.408788
550 0.340053
555 0.534632
560 0.343701
565 0.65653
570 0.433287
575 0.379357
580 0.359482
585 0.424427
590 0.560008
595 0.251479
600 0.990781
Ex : 313
200 0.276614
205 0.34329
210 0.568976
215 0.298907
220 0.516297
225 0.384476
230 0.408812
235 0.381619
240 0.378635
245 0.348165
250 0.367152
255 0.288633
260 0.428979
265 0.456124
270 0.509035
275 0.590112
280 0.390785
285 0.290808
290 0.564557
295 0.412809
300 0.31581
305 0.533925
310 0.527655
315 0.411868
320 0.534372
325 0.482149
330 0.448154
335 0.401183
340 0.549447
345 0.665679
350 0.637271
355 0.477626
360 0.902104
365 0.799308
370 0.917339
375 0.927312
380 1.06173
385 0.852009
390 1.26092
395 1.1564
400 1.29992
405 0.986443
410 1.31665
415 0.941399
420 1.00313
425 0.987037
430 1.23058
435 1.01985
440 1.0598
445 1.05505
450 0.933437
455 1.03198
460 1.03575
465 1.00177
470 0.775519
475 1.02156
480 0.762987
485 0.869655
490 0.81666
495 0.708495
500 0.537533
505 0.616455
510 0.522101
515 0.473009
520 0.623031
525 0.576053
530 0.627931
535 0.296589
540 0.478005
545 0.442482
550 0.526809
555 0.475469
560 0.406949
565 0.434327
570 0.520952
575 0.357248
580 0.498107
585 0.405311
590 0.355157
595 0.367886
600 0.501377
Ex : 318
200 0.343975
205 0.463429
210 0.427827
215 0.315214
220 0.474138
225 0.300353
230 0.388475
235 0.335706
240 0.4286
245 0.358485
250 0.391239
255 0.506119
260 0.351082
265 0.268129
270 0.310124
275 0.360026
280 0.343464
285 0.39172
290 0.424842
295 0.413876
300 0.28906
305 0.326313
310 0.64375
315 0.790791
320 0.553549
325 0.700202
330 0.700552
335 0.802682
340 1.24969
345 1.4518
350 1.80799
355 2.66096
360 3.04753
365 3.68132
370 4.35079
375 4.85401
380 5.64337
385 6.87055
390 7.14455
395 7.43733
400 7.80635
405 7.9949
410 7.99781
415 8.07734
420 8.03713
425 7.49262
430 8.0258
435 7.91255
440 7.52424
445 7.35002
450 6.32026
455 6.38639
460 5.74819
465 5.43236
470 5.21956
475 4.41053
480 3.71786
485 3.5726
490 2.80999
495 2.90819
500 2.48991
505 1.97004
510 2.36843
515 1.78653
520 1.81733
525 1.29486
530 1.18056
535 1.23324
540 1.1611
545 0.785109
550 0.829831
555 0.655549
560 0.724082
565 0.699349
570 0.666338
575 0.480778
580 0.341498
585 0.367707
590 0.672372
595 0.462849
600 0.0526704
Ex : 323
200 0.449282
205 0.342465
210 0.258065
215 0.347381
220 0.364465
225 0.354313
230 0.478155
235 0.319341
240 0.399504
245 0.356626
250 0.374562
255 0.245001
260 0.249431
265 0.351031
270 0.270228
275 0.352655
280 0.531528
285 0.358427
290 0.439732
295 0.294235
300 0.270036
305 0.363824
310 0.370958
315 1.93553
320 7.89409
325 4.1203
330 1.96653
335 2.86302
340 4.19285
345 5.81468
350 8.22257
355 11.8662
360 13.5277
365 15.9078
370 19.4486
375 22.174
380 25.3041
385 27.4121
390 30.1499
395 31.7398
400 34.694
405 34.7112
410 35.7112
415 35.6233
420 34.8404
425 34.0781
430 34.0688
435 33.493
440 30.2107
445 29.6084
450 27.3009
455 27.2171
460 25.0074
465 21.8536
470 21.2689
475 18.8358
480 17.5502
485 15.6776
490 14.0819
495 12.4001
500 11.0551
505 9.38377
510 8.3141
515 6.98058
520 6.04712
525 5.12941
530 4.63183
535 4.06414
540 3.90557
545 3.52917
550 2.5798
555 2.43802
560 1.97817
565 1.73791
570 1.62479
575 1.06311
580 0.84431
585 0.666163
590 0.680989
595 0.536264
600 1.06653
Ex : 328
200 0.37946
205 0.297494
210 0.288058
215 0.359354
220 0.44944
225 0.366284
230 0.334301
235 0.360921
240 0.26355
245 0.235536
250 0.215168
255 0.229618
260 0.2246
265 0.24442
270 0.265399
275 0.306226
280 0.28466
285 0.260683
290 0.222802
295 0.408638
300 0.334303
305 0.218934
310 0.279304
315 0.681691
320 19.9591
325 49.9101
330 17.0168
335 5.53835
340 6.38418
345 7.5311
350 9.72756
355 13.6332
360 18.3678
365 20.9784
370 23.2412
375 26.6991
380 29.5136
385 32.5866
390 36.0872
395 38.5196
400 40.1206
405 40.4112
410 40.9907
415 40.5962
420 40.6468
425 38.2237
430 37.8005
435 36.604
440 35.242
445 34.4044
450 32.6999
455 30.64
460 27.9255
465 25.7242
470 24.4812
475 21.7009
480 20.9521
485 18.6636
490 16.535
495 14.3903
500 13.6654
505 11.9778
510 10.567
515 9.13503
520 8.48086
525 6.88971
530 6.27331
535 5.56693
540 4.71935
545 4.37418
550 3.69327
555 3.24442
560 2.75049
565 2.09484
570 1.9717
575 1.6456
580 1.1968
585 0.902307
590 0.921223
595 0.719311
600 0.268424
Ex : 333
200 0.270707
205 0.341561
210 0.192749
215 0.1865
220 0.177542
225 0.303579
230 0.325292
235 0.202686
240 0.289835
245 0.258448
250 0.234746
255 0.334137
260 0.28268
265 0.345714
270 0.290542
275 0.243912
280 0.337632
285 0.248064
290 0.196653
295 0.279468
300 0.285993
305 0.377808
310 0.253115
315 0.346132
320 3.42635
325 60.5888
330 104.685
335 29.3612
340 6.95733
345 5.76533
350 6.42912
355 7.98
360 11.0267
365 15.2511
370 16.0363
375 16.2519
380 18.1922
385 19.5381
390 20.9911
395 21.7862
400 22.7931
405 22.5791
410 23.5006
415 23.099
420 22.7077
425 22.6349
430 21.968
435 20.987
440 21.214
445 19.3424
450 19.2031
455 17.7829
460 17.4099
465 16.0811
470 15.628
475 14.7123
480 13.4284
485 12.5528
490 11.3569
495 10.111
500 9.40453
505 8.78151
510 7.87661
515 7.13693
520 6.28348
525 5.5685
530 5.13535
535 4.22638
540 4.01581
545 3.72089
550 3.16496
555 2.73227
560 2.32148
565 2.15329
570 1.79182
575 1.46864
580 1.28449
585 1.28254
590 0.965759
595 0.783745
600 0.771423
Ex : 338
200 0.27405
205 0.239704
210 0.273445
215 0.254474
220 0.243609
225 0.282781
230 0.297639
235 0.295707
240 0.405141
245 0.325369
250 0.273418
255 0.344046
260 0.275308
265 0.173006
270 0.287302
275 0.395814
280 0.274206
285 0.293839
290 0.220282
295 0.338713
300 0.292581
305 0.264872
310 0.261013
315 0.276406
320 0.371507
325 5.99496
330 93.5844
335 139.421
340 36.2668
345 7.07588
350 4.68461
355 4.52209
360 4.51694
365 6.76208
370 11.6393
375 11.9621
380 11.2553
385 10.7323
390 10.8153
395 11.2855
400 11.4924
405 11.7085
410 12.173
415 12.0681
420 11.5363
425 11.3617
430 11.454
435 11.5742
440 10.9998
445 10.9413
450 10.9785
455 10.6066
460 10.2752
465 10.5325
470 10.4617
475 9.95617
480 9.72293
485 9.16204
490 9.14951
495 8.36932
500 7.80889
505 7.31026
510 6.71819
515 6.22536
520 5.75671
525 5.15361
530 4.68908
535 4.36254
540 3.77956
545 3.3
550 3.14954
555 2.85337
560 2.53612
565 1.90057
570 1.82905
575 1.31312
580 1.54045
585 1.04177
590 0.816766
595 0.614068
600 0.341562
Ex : 343
200 0.235766
205 0.241876
210 0.268269
215 0.26368
220 0.203666
225 0.227999
230 0.150985
235 0.18162
240 0.235045
245 0.258875
250 0.171421
255 0.219668
260 0.231802
265 0.221784
270 0.236065
275 0.203737
280 0.223824
285 0.21865
290 0.330347
295 0.253144
300 0.324443
305 0.251877
310 0.276642
315 0.390159
320 0.330303
325 0.372416
330 7.40327
335 107.979
340 156.482
345 39.1268
350 6.66897
355 3.57756
360 3.07052
365 3.15479
370 4.14672
375 8.91014
380 10.0181
385 8.21425
390 7.03649
395 7.31444
400 7.35623
405 7.72892
410 7.74564
415 8.25653
420 7.82751
425 8.06732
430 8.40493
435 8.48505
440 8.42588
445 8.61283
450 8.77089
455 9.09137
460 9.4922
465 9.30318
470 9.64415
475 9.42685
480 8.91656
485 9.21855
490 9.22044
495 8.98785
500 7.97705
505 7.79798
510 7.63268
515 6.55589
520 6.4664
525 5.62982
530 4.91061
535 4.42362
540 4.53512
545 3.78629
550 3.25275
555 3.07146
560 3.05109
565 2.402
570 1.94742
575 1.40528
580 1.13058
585 1.0497
590 0.823958
595 0.739303
600 0.541904
Ex : 348
200 0.267491
205 0.208123
210 0.184288
215 0.145758
220 0.156629
225 0.179683
230 0.158641
235 0.230501
240 0.17538
245 0.205581
250 0.148694
255 0.194396
260 0.234717
265 0.229809
270 0.216313
275 0.222316
280 0.256386
285 0.174177
290 0.224089
295 0.243545
300 0.15396
305 0.184546
310 0.179813
315 0.201331
320 0.315885
325 0.263112
330 0.377919
335 7.62447
340 109.379
345 163.432
350 42.4659
355 6.71366
360 3.20021
365 2.78471
370 2.50387
375 3.50519
380 6.97185
385 9.17706
390 7.59427
395 6.54251
400 6.1276
405 6.21897
410 6.40539
415 6.88025
420 6.77896
425 7.39036
430 7.22521
435 7.62494
440 7.90916
445 8.20176
450 8.76695
455 9.49738
460 10.0046
465 10.0594
470 10.3888
475 10.7434
480 10.2317
485 10.8501
490 10.5838
495 9.9484
500 9.58123
505 9.25858
510 8.66776
515 8.03386
520 7.49637
525 6.65102
530 6.03721
535 5.77674
540 4.97654
545 4.72541
550 4.10113
555 3.69243
560 3.31045
565 2.89079
570 2.24822
575 1.95273
580 1.48088
585 1.163
590 0.876954
595 0.766699
600 0.880454
Ex : 353
200 0.221487
205 0.169127
210 0.307274
215 0.167909
220 0.226607
225 0.216411
230 0.181187
235 0.233529
240 0.195964
245 0.244002
250 0.174624
255 0.190912
260 0.330583
265 0.186626
270 0.224825
275 0.215088
280 0.241831
285 0.16077
290 0.184037
295 0.137574
300 0.209042
305 0.184697
310 0.246932
315 0.261362
320 0.261377
325 0.175872
330 0.235071
335 0.427855
340 7.41598
345 110.042
350 157.609
355 39.4427
360 6.07273
365 2.70055
370 2.80903
375 2.66101
380 3.03906
385 5.47068
390 8.83142
395 7.839
400 6.47559
405 6.00596
410 6.20528
415 6.4766
420 6.62135
425 6.5422
430 7.17923
435 7.2816
440 7.71489
445 8.21192
450 8.69588
455 9.56233
460 10.0657
465 10.7301
470 11.5525
475 11.8187
480 11.6701
485 12.1339
490 12.2231
495 11.6585
500 11.3314
505 10.6132
510 10.2095
515 9.47891
520 8.55102
525 7.77713
530 7.16189
535 6.66933
540 6.03244
545 5.36772
550 4.89338
555 4.32952
560 4.11075
565 3.42588
570 2.55173
575 2.21766
580 1.74058
585 1.53484
590 1.1896
595 0.801822
600 1.27786
Ex : 358
200 0.207943
205 0.212817
210 0.231858
215 0.186952
220 0.198314
225 0.179626
230 0.201094
235 0.186031
240 0.163784
245 0.217248
250 0.206721
255 0.297048
260 0.189309
265 0.227613
270 0.184698
275 0.252108
280 0.254239
285 0.206846
290 0.166076
295 0.156111
300 0.147993
305 0.178215
310 0.239498
315 0.163473
320 0.268772
325 0.215473
330 0.20601
335 0.323287
340 0.324617
345 6.74413
350 104.639
355 158.046
360 39.8169
365 6.12577
370 2.76181
375 3.16143
380 2.87693
385 2.82905
390 4.69544
395 8.95073
400 8.87359
405 7.23221
410 6.22541
415 5.94128
420 6.54886
425 6.93562
430 6.93854
435 7.14904
440 7.78729
445 7.94851
450 8.86925
455 9.61189
460 11.2322
465 11.6784
470 12.295
475 12.5814
480 13.2576
485 13.3641
490 13.0835
495 12.6662
500 12.5062
505 11.6404
510 11.3193
515 10.4869
520 9.64436
525 8.82258
530 7.98127
535 7.40818
540 6.80873
545 6.02153
550 5.04746
555 4.66892
560 4.14382
565 3.62744
570 2.98277
575 2.32408
580 1.80013
585 1.5831
590 1.12072
595 0.956123
600 0.976152
Ex : 363
200 0.210949
205 0.179341
210 0.15913
215 0.140641
220 0.225745
225 0.255297
230 0.200561
235 0.243821
240 0.213313
245 0.174642
250 0.159939
255 0.142877
260 0.210482
265 0.137555
270 0.176331
275 0.109235
280 0.209037
285 0.14876
290 0.167228
295 0.160877
300 0.196032
305 0.204703
310 0.187383
315 0.162143
320 0.16135
325 0.175352
330 0.246985
335 0.275346
340 0.247294
345 0.359483
350 6.34589
355 99.8208
360 157.193
365 41.4596
370 6.31019
375 2.90921
380 3.13322
385 3.01119
390 2.92816
395 4.40375
400 7.7356
405 9.20097
410 7.62305
415 6.76343
420 6.15485
425 6.39239
430 6.52172
435 7.10286
440 7.54878
445 8.40762
450 9.39039
455 10.4498
460 11.9154
465 12.3982
470 13.0724
475 13.93
480 14.7262
485 14.4504
490 14.5429
495 14.6374
500 13.9822
505 13.5138
510 12.8352
515 11.5674
520 11.1104
525 9.86689
530 9.10601
535 8.1166
540 7.40654
545 6.47818
550 6.19717
555 5.08136
560 4.58822
565 4.02044
570 3.36208
575 2.52996
580 2.02243
585 1.63755
590 1.24237
595 1.06181
600 1.40235
Ex : 368
200 0.153636
205 0.200717
210 0.145276
215 0.157821
220 0.158078
225 0.125348
230 0.179711
235 0.137749
240 0.122328
245 0.268555
250 0.182304
255 0.130771
260 0.157976
265 0.119302
270 0.161375
275 0.14988
280 0.11808
285 0.0996692
290 0.19322
295 0.163627
300 0.181772
305 0.174474
310 0.185741
315 0.177848
320 0.194029
325 0.163179
330 0.164807
335 0.161997
340 0.217541
345 0.268809
350 0.305492
355 5.54517
360 95.3973
365 158.373
370 43.1074
375 6.60667
380 2.62183
385 2.78673
390 2.88899
395 2.8318
400 3.7406
405 6.68923
410 8.85723
415 7.39929
420 6.47165
425 5.99728
430 6.02936
435 6.68069
440 7.16113
445 8.62548
450 9.60629
455 11.2757
460 12.9461
465 13.461
470 15.0774
475 15.7744
480 15.9303
485 17.243
490 16.7643
495 17.234
500 16.6327
505 15.6653
510 14.8748
515 14.1006
520 12.6623
525 11.9002
530 11.1157
535 10.1228
540 9.05283
545 7.88126
550 7.13869
555 6.36771
560 5.66263
565 4.89548
570 3.90931
575 3.34147
580 2.55515
585 2.05906
590 1.49159
595 1.20191
600 1.19042
Ex : 373
200 0.241227
205 0.184385
210 0.13461
215 0.197579
220 0.205027
225 0.207356
230 0.14896
235 0.154858
240 0.103807
245 0.140598
250 0.146269
255 0.157314
260 0.162349
265 0.200676
270 0.167052
275 0.254252
280 0.208471
285 0.149207
290 0.131228
295 0.189163
300 0.133801
305 0.21992
310 0.168547
315 0.155396
320 0.277679
325 0.118212
330 0.172631
335 0.35663
340 0.209697
345 0.244507
350 0.245996
355 0.301693
360 5.89252
365 96.7052
370 157.584
375 43.5601
380 6.77328
385 2.85243
390 3.03444
395 3.01408
400 3.07302
405 3.48327
410 6.02711
415 8.11257
420 7.41518
425 6.47438
430 6.05029
435 6.33684
440 6.70996
445 8.04901
450 9.66882
455 11.0619
460 12.7034
465 14.6804
470 16.5063
475 17.1422
480 17.8402
485 18.2583
490 18.9128
495 19.0974
500 18.1631
505 17.414
510 16.2331
515 15.5738
520 14.0953
525 13.1045
530 11.9055
535 10.9399
540 9.72257
545 8.8231
550 7.88851
555 7.05175
560 6.20331
565 5.61384
570 4.27037
575 3.56802
580 2.6848
585 2.13993
590 1.70279
595 1.23378
600 0.4045
Ex : 378
200 0.138093
205 0.141304
210 0.134135
215 0.156515
220 0.176253
225 0.10923
230 0.16211
235 0.12082
240 0.127345
245 0.117747
250 0.12293
255 0.204674
260 0.151578
265 0.138976
270 0.128774
275 0.187411
280 0.183819
285 0.136016
290 0.149757
295 0.193421
300 0.184045
305 0.141662
310 0.130759
315 0.231741
320 0.149226
325 0.210879
330 0.167304
335 0.158413
340 0.219401
345 0.213252
350 0.190711
355 0.219774
360 0.244378
365 5.78153
370 100.716
375 166.844
380 46.8404
385 7.29463
390 2.94142
395 3.42578
400 3.85163
405 3.45535
410 3.59054
415 4.99066
420 8.17322
425 7.72574
430 6.68498
435 6.37422
440 6.59364
445 7.37628
450 9.16833
455 10.8044
460 12.7423
465 13.8729
470 15.4501
475 16.1385
480 17.0029
485 17.256
490 17.7231
495 17.3387
500 17.2095
505 16.5115
510 15.611
515 14.3391
520 13.5139
525 12.154
530 11.3754
535 10.4521
540 8.9787
545 8.45167
550 7.78823
555 6.83508
560 5.82325
565 4.92124
570 4.05443
575 3.48434
580 2.75309
585 2.14115
590 1.62491
595 1.18673
600 1.61452
Ex : 383
200 0.100508
205 0.151205
210 0.146714
215 0.134433
220 0.131736
225 0.145147
230 0.150124
235 0.184543
240 0.13637
245 0.102385
250 0.177547
255 0.148546
260 0.162458
265 0.157984
270 0.126017
275 0.188122
280 0.136821
285 0.120447
290 0.242058
295 0.140362
300 0.139255
305 0.191126
310 0.213289
315 0.178208
320 0.179499
325 0.163157
330 0.154155
335 0.155859
340 0.188692
345 0.210628
350 0.195649
355 0.158571
360 0.240374
365 0.310334
370 5.35204
375 100.531
380 173.736
385 48.3111
390 7.62822
395 2.96457
400 3.26379
405 3.71436
410 3.58487
415 3.57381
420 4.31908
425 7.08733
430 7.83782
435 6.86134
440 7.21707
445 7.56502
450 9.10765
455 11.2492
460 12.7585
465 14.2696
470 15.377
475 16.2168
480 17.3672
485 17.7138
490 17.5026
495 17.5316
500 17.5241
505 16.9873
510 15.9507
515 14.7535
520 13.5906
525 12.5746
530 11.8889
535 10.4587
540 9.38515
545 8.69629
550 7.4732
555 6.61732
560 5.99488
565 5.08866
570 4.21267
575 3.29919
580 2.66891
585 1.96891
590 1.54921
595 1.34599
600 0.86073
Ex : 388
200 0.138646
205 0.181436
210 0.107356
215 0.106054
220 0.0865217
225 0.169431
230 0.140687
235 0.106759
240 0.136094
245 0.0972156
250 0.156635
255 0.113838
260 0.156628
265 0.146064
270 0.119104
275 0.179183
280 0.122015
285 0.170465
290 0.149276
295 0.132885
300 0.148511
305 0.13196
310 0.167986
315 0.143295
320 0.128758
325 0.187839
330 0.123752
335 0.195831
340 0.185609
345 0.176556
350 0.144043
355 0.179279
360 0.214347
365 0.200827
370 0.299275
375 6.02945
380 103.279
385 172.098
390 48.1125
395 7.38576
400 2.73423
405 2.97633
410 3.42846
415 3.33814
420 3.27832
425 3.73087
430 6.31256
435 8.1309
440 7.5309
445 7.97338
450 8.85409
455 10.6199
460 12.5058
465 13.8471
470 15.3184
475 16.5923
480 18.0432
485 18.6405
490 18.7082
495 18.7184
500 18.6746
505 17.4805
510 16.6243
515 15.155
520 14.6829
525 13.1556
530 11.9363
535 11.09
540 10.1609
545 9.23203
550 8.09252
555 6.97858
560 6.1883
565 5.3303
570 4.37575
575 3.51848
580 2.65882
585 2.23815
590 1.67551
595 1.25975
600 2.31642
Ex : 393
200 0.13108
205 0.120521
210 0.123017
215 0.137592
220 0.113988
225 0.123766
230 0.138289
235 0.125593
240 0.104483
245 0.0994931
250 0.107258
255 0.155613
260 0.143422
265 0.111945
270 0.141836
275 0.118784
280 0.102229
285 0.117735
290 0.117797
295 0.103726
300 0.186433
305 0.163761
310 0.168104
315 0.18987
320 0.207218
325 0.130227
330 0.159728
335 0.136628
340 0.193839
345 0.181329
350 0.166485
355 0.150977
360 0.21468
365 0.224414
370 0.218707
375 0.276221
380 5.34443
385 103.96
390 176.293
395 49.822
400 7.33911
405 2.65897
410 2.7469
415 2.85054
420 2.72697
425 2.75062
430 3.50908
435 5.36775
440 8.5898
445 8.88666
450 9.46536
455 11.257
460 12.6665
465 14.3896
470 15.9705
475 17.26
480 18.6402
485 19.0285
490 19.4547
495 19.7812
500 18.6488
505 18.189
510 17.5534
515 16.0077
520 15.1445
525 13.9602
530 12.8316
535 11.5658
540 10.6205
545 9.27826
550 8.37591
555 7.77481
560 6.7505
565 5.48599
570 4.84215
575 3.86736
580 2.89656
585 2.30516
590 1.85678
595 1.36579
600 0.863738
Ex : 398
200 0.118041
205 0.115425
210 0.137935
215 0.0915897
220 0.111807
225 0.165938
230 0.148564
235 0.132829
240 0.0891242
245 0.124526
250 0.137214
255 0.129767
260 0.144342
265 0.128638
270 0.132595
275 0.175608
280 0.0902318
285 0.097841
290 0.0949376
295 0.128789
300 0.200237
305 0.149241
310 0.121688
315 0.121783
320 0.175411
325 0.17679
330 0.155552
335 0.143896
340 0.139918
345 0.167337
350 0.158025
355 0.194035
360 0.154616
365 0.157803
370 0.20985
375 0.206029
380 0.308097
385 5.68314
390 108.855
395 186.388
400 52.4099
405 7.51304
410 2.55687
415 2.26908
420 2.79569
425 2.75215
430 2.81998
435 3.44342
440 5.28735
445 9.23818
450 10.5624
455 11.4726
460 13.1839
465 14.4115
470 16.1128
475 17.5822
480 18.9038
485 19.9688
490 20.1151
495 20.3783
500 20.1739
505 19.0483
510 17.9709
515 16.9846
520 15.8861
525 14.6257
530 13.3184
535 12.4514
540 11.0113
545 9.88905
550 8.79512
555 7.86207
560 7.09492
565 6.01002
570 4.77449
575 4.00304
580 2.99525
585 2.4147
590 1.95575
595 1.4922
600 1.57981
Ex : 403
200 0.142039
205 0.148688
210 0.101779
215 0.131088
220 0.11372
225 0.168259
230 0.135259
235 0.0922645
240 0.137488
245 0.13569
250 0.138055
255 0.119922
260 0.129608
265 0.15751
270 0.153177
275 0.0971185
280 0.112583
285 0.127243
290 0.159992
295 0.106379
300 0.13723
305 0.159628
310 0.138084
315 0.13017
320 0.13113
325 0.126946
330 0.122858
335 0.201751
340 0.174078
345 0.146222
350 0.203439
355 0.143681
360 0.144144
365 0.145691
370 0.181867
375 0.223772
380 0.239267
385 0.34187
390 6.40072
395 109.187
400 182.369
405 51.4449
410 7.42742
415 2.6413
420 2.23025
425 2.72423
430 2.868
435 3.15209
440 4.27063
445 6.31081
450 10.4194
455 13.0309
460 13.7962
465 15.5687
470 16.5953
475 18.2929
480 18.8506
485 20.5884
490 20.5546
495 20.7035
500 19.9527
505 19.4137
510 18.2405
515 16.9143
520 15.9162
525 14.4104
530 13.3283
535 12.1914
540 11.3487
545 10.2288
550 9.16586
555 8.34684
560 6.91375
565 6.12071
570 5.05062
575 4.02015
580 3.13238
585 2.31442
590 1.97657
595 1.63722
600 1.16757
Ex : 408
200 0.142717
205 0.174059
210 0.124259
215 0.149532
220 0.120545
225 0.112258
230 0.133434
235 0.130235
240 0.156802
245 0.140733
250 0.133937
255 0.137079
260 0.163143
265 0.170324
270 0.14562
275 0.112298
280 0.11599
285 0.141094
290 0.15402
295 0.0867275
300 0.154186
305 0.102192
310 0.144836
315 0.147381
320 0.105087
325 0.121822
330 0.193637
335 0.142276
340 0.156511
345 0.178575
350 0.185735
355 0.238619
360 0.157007
365 0.121728
370 0.178709
375 0.186381
380 0.189032
385 0.253
390 0.313445
395 6.24193
400 116.348
405 186.393
410 51.3205
415 7.39725
420 2.50015
425 2.26138
430 2.83749
435 3.13839
440 3.76347
445 5.16328
450 7.53473
455 11.6936
460 15.2214
465 15.9437
470 17.1452
475 18.4083
480 19.4397
485 20.2888
490 20.5207
495 20.2584
500 20.4284
505 19.7391
510 18.6368
515 17.3195
520 16.1614
525 14.989
530 13.8095
535 12.6424
540 11.0176
545 9.87402
550 9.15712
555 8.31079
560 7.11887
565 5.95817
570 5.09178
575 4.35074
580 3.34385
585 2.5684
590 1.9003
595 1.42733
600 1.53861
Ex : 413
200 0.0861509
205 0.108001
210 0.118044
215 0.119812
220 0.0867525
225 0.10562
230 0.12159
235 0.121729
240 0.13395
245 0.114337
250 0.115394
255 0.172631
260 0.175727
265 0.137341
270 0.118449
275 0.161653
280 0.138921
285 0.158357
290 0.113933
295 0.125108
300 0.109648
305 0.122898
310 0.141716
315 0.146405
320 0.15803
325 0.148459
330 0.136638
335 0.125995
340 0.105285
345 0.179428
350 0.172418
355 0.130182
360 0.124234
365 0.168288
370 0.130972
375 0.156332
380 0.139332
385 0.170569
390 0.195954
395 0.379629
400 6.79661
405 117.878
410 190.633
415 50.3736
420 7.16431
425 2.20693
430 2.0756
435 2.8723
440 3.73377
445 4.93575
450 6.63748
455 9.30634
460 12.5245
465 16.5998
470 17.4136
475 17.8292
480 18.8335
485 19.942
490 19.9113
495 20.2233
500 20.2943
505 18.8143
510 17.9385
515 17.2752
520 16.2036
525 14.5051
530 13.369
535 12.3008
540 11.1675
545 10.2031
550 9.20703
555 7.88354
560 7.01825
565 6.2742
570 4.97618
575 3.92041
580 3.14371
585 2.43163
590 1.90609
595 1.40071
600 1.23529
Ex : 418
200 0.108474
205 0.109227
210 0.151522
215 0.15663
220 0.131274
225 0.131018
230 0.0896845
235 0.14302
240 0.0953251
245 0.106058
250 0.124946
255 0.160277
260 0.143032
265 0.110699
270 0.113594
275 0.128089
280 0.12239
285 0.110128
290 0.124518
295 0.186689
300 0.136302
305 0.126594
310 0.174695
315 0.120318
320 0.165536
325 0.122435
330 0.175177
335 0.113149
340 0.136867
345 0.1382
350 0.156077
355 0.175357
360 0.183938
365 0.113479
370 0.14681
375 0.135726
380 0.162323
385 0.210224
390 0.209875
395 0.208444
400 0.315415
405 6.57931
410 119.439
415 196.849
420 53.2529
425 7.41842
430 2.36366
435 2.287
440 3.40235
445 4.54805
450 6.27475
455 8.58154
460 10.7153
465 13.5032
470 17.0055
475 18.574
480 18.5001
485 19.2327
490 19.5256
495 19.3797
500 18.8278
505 17.9922
510 17.1078
515 16.2172
520 14.7248
525 13.722
530 12.3804
535 11.5618
540 10.7785
545 9.80707
550 8.4703
555 7.4575
560 6.74433
565 5.57532
570 4.73386
575 3.79236
580 3.03719
585 2.35022
590 1.93221
595 1.4559
600 1.181
Ex : 423
200 0.112033
205 0.110072
210 0.1242
215 0.100506
220 0.155383
225 0.104418
230 0.0934022
235 0.124152
240 0.129154
245 0.148418
250 0.207326
255 0.126837
260 0.144766
265 0.15758
270 0.152781
275 0.111972
280 0.100882
285 0.121045
290 0.121904
295 0.172615
300 0.146094
305 0.115263
310 0.127027
315 0.148664
320 0.113746
325 0.105218
330 0.15016
335 0.124783
340 0.172806
345 0.139225
350 0.174296
355 0.141379
360 0.122247
365 0.132748
370 0.145247
375 0.130669
380 0.158686
385 0.150387
390 0.197859
395 0.258339
400 0.24192
405 0.318576
410 6.75931
415 126.917
420 200.791
425 52.394
430 7.4387
435 2.53919
440 2.92142
445 4.2731
450 5.93361
455 7.67794
460 9.47154
465 11.546
470 13.6961
475 16.4596
480 18.563
485 18.8724
490 18.7217
495 18.6022
500 17.9898
505 17.2539
510 15.9754
515 15.0775
520 14.1602
525 13.3143
530 12.0602
535 11.1126
540 9.7643
545 8.83187
550 7.97373
555 7.23962
560 6.0713
565 5.38041
570 4.58192
575 3.47097
580 2.71179
585 2.13967
590 1.67541
595 1.19014
600 0.779158
Ex : 428
200 0.102621
205 0.0796889
210 0.10139
215 0.109981
220 0.100029
225 0.128582
230 0.109845
235 0.089188
240 0.149124
245 0.116701
250 0.128085
255 0.115071
260 0.123303
265 0.128075
270 0.210249
275 0.128468
280 0.134134
285 0.104678
290 0.217652
295 0.196553
300 0.14094
305 0.15968
310 0.142565
315 0.152399
320 0.121125
325 0.127044
330 0.127682
335 0.149896
340 0.144601
345 0.146831
350 0.127139
355 0.149611
360 0.161822
365 0.112563
370 0.123327
375 0.147563
380 0.191578
385 0.168742
390 0.194788
395 0.214266
400 0.165323
405 0.258687
410 0.433862
415 7.60012
420 129.866
425 205.676
430 55.5843
435 8.05611
440 3.16977
445 3.63889
450 5.21036
455 7.20183
460 8.7421
465 10.1993
470 11.7154
475 13.2332
480 15.5229
485 17.952
490 17.6676
495 16.8603
500 16.2585
505 15.4335
510 14.5146
515 13.8272
520 12.8114
525 11.6487
530 10.7274
535 9.95984
540 9.0567
545 8.07541
550 7.42097
555 6.41472
560 5.62679
565 4.6305
570 3.81542
575 3.26257
580 2.60367
585 2.00865
590 1.63325
595 1.14813
600 0.775165
Ex : 433
200 0.11615
205 0.0893296
210 0.129479
215 0.143407
220 0.191407
225 0.128424
230 0.13706
235 0.135951
240 0.10267
245 0.14887
250 0.137803
255 0.194058
260 0.109817
265 0.137844
270 0.0967541
275 0.168778
280 0.173382
285 0.145778
290 0.113866
295 0.126683
300 0.138735
305 0.121307
310 0.120549
315 0.164131
320 0.115296
325 0.154342
330 0.147204
335 0.150979
340 0.150483
345 0.147519
350 0.130851
355 0.197272
360 0.127927
365 0.12688
370 0.17662
375 0.15373
380 0.162058
385 0.138701
390 0.135813
395 0.16306
400 0.18276
405 0.21441
410 0.262604
415 0.403713
420 8.92156
425 142.889
430 213.466
435 55.1686
440 8.29522
445 3.73993
450 4.68298
455 6.2799
460 7.95239
465 9.18016
470 10.0975
475 11.4347
480 12.715
485 14.4277
490 16.431
495 15.9389
500 14.7741
505 14.2032
510 13.3136
515 12.0797
520 11.0762
525 10.4242
530 9.38358
535 8.78672
540 7.94562
545 6.86778
550 6.26322
555 5.63086
560 4.97013
565 4.1858
570 3.66338
575 2.97375
580 2.19571
585 1.73728
590 1.40189
595 1.08255
600 0.694167
Ex : 438
200 0.123466
205 0.109087
210 0.140315
215 0.122437
220 0.157726
225 0.119796
230 0.10711
235 0.17611
240 0.0944753
245 0.160927
250 0.122872
255 0.131256
260 0.123836
265 0.128922
270 0.15119
275 0.106582
280 0.133056
285 0.128336
290 0.13928
295 0.171967
300 0.119251
305 0.202848
310 0.166742
315 0.134416
320 0.134748
325 0.103142
330 0.146002
335 0.218675
340 0.17165
345 0.127348
350 0.0878567
355 0.102843
360 0.133862
365 0.12042
370 0.104838
375 0.175043
380 0.128372
385 0.1268
390 0.125089
395 0.124593
400 0.169464
405 0.180903
410 0.23825
415 0.290383
420 0.365861
425 8.68602
430 145.286
435 232.603
440 59.6563
445 9.33235
450 4.57577
455 4.93179
460 6.53819
465 7.95157
470 9.02708
475 9.57542
480 10.4097
485 11.4184
490 11.8571
495 13.9811
500 13.9837
505 12.382
510 11.399
515 10.6407
520 9.38575
525 8.88988
530 8.32132
535 7.52905
540 6.84696
545 6.23233
550 5.42579
555 5.01851
560 4.18268
565 3.70053
570 2.99684
575 2.32953
580 1.80789
585 1.46552
590 1.12103
595 0.880889
600 0.282872
Ex : 443
200 0.122267
205 0.129776
210 0.0981847
215 0.120747
220 0.101195
225 0.141888
230 0.119327
235 0.114917
240 0.112404
245 0.124034
250 0.122723
255 0.152993
260 0.136554
265 0.142796
270 0.165373
275 0.170617
280 0.116124
285 0.141541
290 0.185095
295 0.145296
300 0.138697
305 0.160874
310 0.163593
315 0.12418
320 0.0935379
325 0.171166
330 0.124985
335 0.139929
340 0.143327
345 0.150888
350 0.127451
355 0.131668
360 0.112763
365 0.153925
370 0.171329
375 0.167066
380 0.12268
385 0.143575
390 0.164027
395 0.162951
400 0.197534
405 0.205004
410 0.214014
415 0.207576
420 0.302876
425 0.486529
430 9.62214
435 156.14
440 236.534
445 60.8635
450 9.59543
455 4.85396
460 5.13691
465 6.14576
470 7.3212
475 7.87327
480 8.37492
485 9.00125
490 9.3082
495 9.9044
500 11.1042
505 11.6662
510 10.0708
515 9.23182
520 8.222
525 7.47992
530 6.85426
535 6.14654
540 5.57128
545 4.80095
550 4.42439
555 4.13715
560 3.56772
565 3.16687
570 2.51336
575 2.02235
580 1.54094
585 1.28391
590 1.05968
595 0.828919
600 0.631421
Ex : 448
200 0.154301
205 0.160771
210 0.0987349
215 0.112537
220 0.137698
225 0.114025
230 0.130465
235 0.0975664
240 0.160174
245 0.112746
250 0.105671
255 0.125442
260 0.164327
265 0.157794
270 0.138976
275 0.163313
280 0.139583
285 0.152146
290 0.171883
295 0.154332
300 0.139674
305 0.132141
310 0.139342
315 0.18615
320 0.134415
325 0.111808
330 0.188175
335 0.137985
340 0.121926
345 0.144375
350 0.169842
355 0.160213
360 0.12182
365 0.14335
370 0.150874
375 0.175672
380 0.131561
385 0.161726
390 0.119264
395 0.127916
400 0.176467
405 0.179177
410 0.197616
415 0.179907
420 0.221632
425 0.299358
430 0.448267
435 9.99788
440 166.309
445 251.405
450 65.2024
455 10.5301
460 4.90982
465 4.6819
470 5.38973
475 6.10883
480 6.65867
485 6.84672
490 7.00315
495 7.30003
500 7.15055
505 7.97755
510 9.27269
515 8.07886
520 7.07831
525 6.23586
530 5.47722
535 4.96642
540 4.57402
545 3.9465
550 3.49919
555 3.25205
560 2.79885
565 2.54823
570 2.10968
575 1.63525
580 1.38994
585 0.930505
590 0.808152
595 0.587945
600 1.08945
Ex : 453
200 0.126283
205 0.140827
210 0.127792
215 0.108424
220 0.115627
225 0.1326
230 0.135963
235 0.10994
240 0.105604
245 0.123473
250 0.127418
255 0.134403
260 0.153022
265 0.131658
270 0.121996
275 0.137702
280 0.140048
285 0.126873
290 0.109354
295 0.132012
300 0.102204
305 0.127651
310 0.127252
315 0.111956
320 0.117968
325 0.106233
330 0.127731
335 0.13607
340 0.105541
345 0.119936
350 0.0844986
355 0.138178
360 0.116011
365 0.121912
370 0.100998
375 0.116792
380 0.142464
385 0.146361
390 0.140673
395 0.139774
400 0.227367
405 0.180482
410 0.176372
415 0.228478
420 0.187085
425 0.237137
430 0.296628
435 0.455169
440 10.6542
445 179.883
450 260.361
455 62.9689
460 9.79855
465 4.39092
470 3.8876
475 4.41928
480 5.00187
485 5.15062
490 5.22085
495 5.31526
500 5.09802
505 5.09732
510 5.40773
515 6.63419
520 6.22082
525 5.04143
530 4.6532
535 4.06619
540 3.57263
545 3.05163
550 2.78964
555 2.50552
560 2.04555
565 1.89164
570 1.63872
575 1.34872
580 1.08066
585 0.890325
590 0.741726
595 0.637312
600 0.282041
Ex : 458
200 0.174496
205 0.130702
210 0.148308
215 0.136326
220 0.16082
225 0.149009
230 0.138356
235 0.0970746
240 0.155546
245 0.123635
250 0.159039
255 0.125606
260 0.130374
265 0.122846
270 0.13179
275 0.108053
280 0.117723
285 0.159458
290 0.16343
295 0.127816
300 0.144428
305 0.126626
310 0.126585
315 0.103795
320 0.136033
325 0.167949
330 0.199472
335 0.102363
340 0.116064
345 0.14193
350 0.1555
355 0.194824
360 0.130645
365 0.146937
370 0.120792
375 0.116958
380 0.164005
385 0.189278
390 0.182846
395 0.184322
400 0.218966
405 0.134609
410 0.169836
415 0.155623
420 0.239138
425 0.19386
430 0.265563
435 0.363162
440 0.560532
445 11.1972
450 179.656
455 267.266
460 68.12
465 9.97587
470 3.72052
475 3.15316
480 3.37848
485 3.75378
490 3.84146
495 3.75445
500 3.49945
505 3.7395
510 3.35288
515 3.62262
520 4.41271
525 5.10867
530 3.96193
535 3.17709
540 2.9429
545 2.56808
550 2.24458
555 1.95703
560 1.75044
565 1.5465
570 1.32175
575 0.975588
580 0.793884
585 0.705043
590 0.575532
595 0.436605
600 0.704955
Ex : 463
200 0.120988
205 0.150304
210 0.138012
215 0.122832
220 0.112917
225 0.169392
230 0.120445
235 0.0927074
240 0.107874
245 0.107677
250 0.131613
255 0.123651
260 0.129406
265 0.13296
270 0.126093
275 0.104858
280 0.113947
285 0.131721
290 0.175205
295 0.156403
300 0.153182
305 0.131744
310 0.133773
315 0.158813
320 0.133715
325 0.138976
330 0.148049
335 0.193526
340 0.143089
345 0.136555
350 0.114617
355 0.114489
360 0.123001
365 0.104315
370 0.123358
375 0.114766
380 0.121871
385 0.145971
390 0.17691
395 0.131339
400 0.136545
405 0.137915
410 0.131551
415 0.155294
420 0.131442
425 0.171092
430 0.211001
435 0.205684
440 0.292949
445 0.520703
450 11.3417
455 187.244
460 286.231
465 70.2117
470 9.78585
475 3.26237
480 2.48663
485 2.6083
490 3.02152
495 2.85188
500 2.7238
505 2.49042
510 2.43146
515 2.51905
520 2.53211
525 3.20901
530 4.31646
535 3.53971
540 2.48721
545 2.37256
550 1.99081
555 1.6735
560 1.45997
565 1.26874
570 1.17427
575 0.814692
580 0.769896
585 0.588076
590 0.533031
595 0.382314
600 0.24044
Ex : 468
200 0.135688
205 0.0945261
210 0.16354
215 0.12468
220 0.0951178
225 0.109337
230 0.141089
235 0.103929
240 0.115176
245 0.123737
250 0.145703
255 0.11493
260 0.116219
265 0.127004
270 0.12288
275 0.109101
280 0.103728
285 0.126298
290 0.0996
295 0.16144
300 0.144888
305 0.126082
310 0.119311
315 0.160537
320 0.105412
325 0.103031
330 0.076308
335 0.113139
340 0.137977
345 0.136404
350 0.103103
355 0.119059
360 0.176098
365 0.156148
370 0.164109
375 0.139747
380 0.121275
385 0.126286
390 0.148946
395 0.159674
400 0.198274
405 0.122391
410 0.124351
415 0.123888
420 0.13397
425 0.138375
430 0.130364
435 0.207412
440 0.255527
445 0.355027
450 0.469771
455 12.1053
460 186.258
465 294.879
470 71.3413
475 9.67223
480 2.78181
485 2.01464
490 1.99898
495 2.40222
500 2.23395
505 2.1023
510 1.92671
515 1.81967
520 1.91973
525 1.8321
530 2.23167
535 3.40627
540 3.46158
545 2.27971
550 1.92178
555 1.82421
560 1.46831
565 1.11809
570 0.944622
575 0.81315
580 0.670666
585 0.535344
590 0.477078
595 0.366528
600 0.70269
Ex : 473
200 0.139881
205 0.132816
210 0.111929
215 0.127824
220 0.137689
225 0.108266
230 0.133843
235 0.113733
240 0.0971261
245 0.101317
250 0.0990803
255 0.102161
260 0.144041
265 0.136671
270 0.124037
275 0.110679
280 0.111395
285 0.145776
290 0.116075
295 0.142714
300 0.124521
305 0.153801
310 0.111526
315 0.123241
320 0.140384
325 0.119355
330 0.146804
335 0.168435
340 0.192332
345 0.120478
350 0.109522
355 0.110332
360 0.147021
365 0.170745
370 0.133709
375 0.133107
380 0.118164
385 0.147837
390 0.138015
395 0.136167
400 0.142575
405 0.162251
410 0.140765
415 0.161794
420 0.174188
425 0.176649
430 0.189115
435 0.198239
440 0.223257
445 0.23826
450 0.287787
455 0.522633
460 14.0735
465 202.973
470 284.201
475 65.8227
480 8.84081
485 2.4488
490 1.64569
495 1.73911
500 1.8378
505 1.80842
510 1.8668
515 1.70453
520 1.64724
525 1.61862
530 1.73312
535 1.83704
540 2.69148
545 3.26676
550 2.43682
555 1.65441
560 1.47841
565 1.35154
570 1.05311
575 0.777747
580 0.640959
585 0.526839
590 0.460541
595 0.354459
600 0.366832
Ex : 478
200 0.147582
205 0.208951
210 0.133132
215 0.126556
220 0.137974
225 0.155826
230 0.123975
235 0.124075
240 0.181906
245 0.155496
250 0.131559
255 0.134838
260 0.156454
265 0.183604
270 0.16322
275 0.14482
280 0.130457
285 0.191756
290 0.15569
295 0.140347
300 0.156152
305 0.169118
310 0.140264
315 0.157097
320 0.142311
325 0.163694
330 0.157599
335 0.169237
340 0.128955
345 0.136375
350 0.138188
355 0.13677
360 0.189443
365 0.225093
370 0.166403
375 0.172911
380 0.169942
385 0.191387
390 0.129987
395 0.111547
400 0.169065
405 0.156779
410 0.151861
415 0.174215
420 0.213012
425 0.154562
430 0.129014
435 0.190243
440 0.211915
445 0.224434
450 0.268325
455 0.374843
460 0.557657
465 15.2824
470 205.771
475 284.742
480 69.2515
485 9.12805
490 2.30534
495 1.53237
500 1.37234
505 1.47332
510 1.74672
515 1.73811
520 1.5763
525 1.42407
530 1.47212
535 1.29864
540 1.46773
545 1.97349
550 2.75347
555 2.2433
560 1.49114
565 1.32865
570 1.15849
575 0.830509
580 0.636254
585 0.588557
590 0.506067
595 0.447506
600 0.365181
Ex : 483
200 0.21823
205 0.116412
210 0.133073
215 0.124058
220 0.132898
225 0.151151
230 0.15412
235 0.152408
240 0.112582
245 0.181171
250 0.156921
255 0.131212
260 0.133689
265 0.111692
270 0.102768
275 0.157706
280 0.163351
285 0.177808
290 0.220469
295 0.135586
300 0.153908
305 0.147509
310 0.162647
315 0.111652
320 0.121755
325 0.118246
330 0.141271
335 0.158066
340 0.119746
345 0.117186
350 0.182221
355 0.133872
360 0.227734
365 0.178138
370 0.131791
375 0.154566
380 0.17481
385 0.149597
390 0.153592
395 0.146945
400 0.167711
405 0.169778
410 0.1321
415 0.14159
420 0.167731
425 0.195986
430 0.216211
435 0.184538
440 0.202877
445 0.195487
450 0.239524
455 0.287861
460 0.361527
465 0.630659
470 11.4723
475 200.859
480 302.625
485 73.5197
490 9.50918
495 2.2519
500 1.3577
505 1.17984
510 1.32008
515 1.55756
520 1.52504
525 1.48558
530 1.38276
535 1.29749
540 1.32747
545 1.29371
550 1.44684
555 2.53996
560 2.51446
565 1.63062
570 1.05075
575 0.975086
580 0.863387
585 0.533819
590 0.411035
595 0.357861
600 0.558453
Ex : 488
200 0.153825
205 0.103557
210 0.160651
215 0.147863
220 0.195875
225 0.192634
230 0.150144
235 0.150488
240 0.185164
245 0.129175
250 0.149055
255 0.119542
260 0.162927
265 0.124453
270 0.143525
275 0.134907
280 0.124805
285 0.137481
290 0.150859
295 0.173425
300 0.131343
305 0.180582
310 0.157097
315 0.127787
320 0.132317
325 0.211116
330 0.208801
335 0.252088
340 0.209118
345 0.184145
350 0.139999
355 0.180719
360 0.16978
365 0.184098
370 0.194143
375 0.205235
380 0.166467
385 0.140189
390 0.139212
395 0.158298
400 0.157736
405 0.192269
410 0.228385
415 0.116551
420 0.164129
425 0.228808
430 0.163725
435 0.191713
440 0.243326
445 0.181467
450 0.212291
455 0.275256
460 0.306045
465 0.440042
470 0.545007
475 14.1613
480 210.996
485 291.008
490 68.3902
495 8.83681
500 2.24621
505 1.23516
510 1.02981
515 1.20139
520 1.48588
525 1.56499
530 1.47021
535 1.22666
540 1.29816
545 1.2022
550 1.2558
555 1.32481
560 1.98309
565 2.39877
570 1.6945
575 0.959038
580 0.829021
585 0.59554
590 0.504388
595 0.399112
600 0.237772
Ex : 493
200 0.148821
205 0.121357
210 0.157591
215 0.174704
220 0.169641
225 0.147241
230 0.211025
235 0.254328
240 0.239904
245 0.199997
250 0.240967
255 0.166414
260 0.13928
265 0.222852
270 0.195464
275 0.152415
280 0.13852
285 0.225482
290 0.172345
295 0.176546
300 0.155742
305 0.16357
310 0.189598
315 0.216074
320 0.182289
325 0.210986
330 0.143027
335 0.193858
340 0.14996
345 0.184828
350 0.168883
355 0.17241
360 0.143182
365 0.135027
370 0.140473
375 0.140577
380 0.221513
385 0.164608
390 0.155114
395 0.181862
400 0.169719
405 0.185756
410 0.172708
415 0.150509
420 0.139225
425 0.194956
430 0.199165
435 0.255957
440 0.239283
445 0.238257
450 0.205752
455 0.238618
460 0.224672
465 0.368408
470 0.404122
475 0.525639
480 12.4651
485 210.118
490 311.597
495 71.4996
500 9.1961
505 2.16817
510 1.1855
515 0.995689
520 1.2604
525 1.53344
530 1.44146
535 1.311
540 1.2301
545 1.22028
550 1.12335
555 1.0303
560 1.15707
565 1.34722
570 1.69205
575 1.65985
580 0.933279
585 0.661108
590 0.494392
595 0.473682
600 0.262818
Ex : 498
200 0.126665
205 0.15696
210 0.17564
215 0.152868
220 0.169047
225 0.167699
230 0.211576
235 0.215138
240 0.172063
245 0.155954
250 0.154751
255 0.127189
260 0.218512
265 0.172102
270 0.215702
275 0.187
280 0.134249
285 0.134037
290 0.143378
295 0.21532
300 0.170604
305 0.189738
310 0.153617
315 0.150095
320 0.184556
325 0.192473
330 0.135104
335 0.214536
340 0.174783
345 0.141044
350 0.136668
355 0.229952
360 0.282104
365 0.246826
370 0.180029
375 0.217082
380 0.172478
385 0.16574
390 0.16102
395 0.21116
400 0.208509
405 0.203686
410 0.182728
415 0.206531
420 0.285456
425 0.210998
430 0.137467
435 0.197378
440 0.206792
445 0.256782
450 0.209652
455 0.23873
460 0.21393
465 0.257452
470 0.279257
475 0.475911
480 0.548687
485 15.9361
490 222.361
495 295.727
500 67.8397
505 8.65755
510 2.09027
515 1.32476
520 1.18275
525 1.23504
530 1.37904
535 1.56343
540 1.29978
545 1.2476
550 1.13976
555 1.03379
560 0.85323
565 0.90956
570 0.905128
575 1.31844
580 1.31166
585 0.845232
590 0.619911
595 0.564419
600 0.321153
Ex : 503
200 0.179998
205 0.175912
210 0.170511
215 0.166961
220 0.180894
225 0.155185
230 0.182003
235 0.166691
240 0.201164
245 0.188437
250 0.179643
255 0.148953
260 0.199977
265 0.166075
270 0.173913
275 0.148297
280 0.188754
285 0.196262
290 0.168552
295 0.195379
300 0.250174
305 0.127767
310 0.223408
315 0.194871
320 0.161749
325 0.183873
330 0.19947
335 0.207163
340 0.183954
345 0.151821
350 0.18396
355 0.156176
360 0.196189
365 0.204398
370 0.241244
375 0.188055
380 0.194304
385 0.161209
390 0.152364
395 0.173627
400 0.137519
405 0.222047
410 0.247693
415 0.232994
420 0.156966
425 0.202836
430 0.191374
435 0.177546
440 0.213804
445 0.204417
450 0.271581
455 0.232211
460 0.230319
465 0.28309
470 0.291895
475 0.28478
480 0.362064
485 0.513755
490 13.8185
495 211.459
500 296.314
505 68.7434
510 8.81557
515 1.91136
520 1.38783
525 1.21446
530 1.14109
535 1.41215
540 1.37107
545 1.17642
550 1.06873
555 0.949089
560 0.886894
565 0.869
570 0.757885
575 0.752197
580 0.960205
585 1.07589
590 0.854749
595 0.650168
600 0.105779
Ex : 508
200 0.145067
205 0.207138
210 0.236989
215 0.268126
220 0.228924
225 0.176873
230 0.179332
235 0.144682
240 0.210706
245 0.181551
250 0.225661
255 0.245119
260 0.212958
265 0.144817
270 0.217511
275 0.198678
280 0.210213
285 0.158039
290 0.175029
295 0.216492
300 0.177806
305 0.212947
310 0.143577
315 0.226294
320 0.203307
325 0.20849
330 0.209477
335 0.282199
340 0.199448
345 0.233828
350 0.224142
355 0.145922
360 0.163406
365 0.220439
370 0.209871
375 0.165351
380 0.214591
385 0.155173
390 0.203273
395 0.221442
400 0.174665
405 0.157296
410 0.22683
415 0.255124
420 0.244919
425 0.220742
430 0.252392
435 0.279089
440 0.192708
445 0.22723
450 0.249649
455 0.255903
460 0.25502
465 0.293017
470 0.291582
475 0.247561
480 0.275365
485 0.340016
490 0.5415
495 14.8393
500 212.3
505 296.348
510 71.2672
515 9.14413
520 2.11719
525 1.34127
530 1.2286
535 1.01658
540 1.18743
545 1.29768
550 1.11221
555 0.971489
560 1.02516
565 0.975467
570 0.726074
575 0.691644
580 0.645114
585 0.658132
590 0.838831
595 0.835532
600 0.612033
Ex : 513
200 0.134837
205 0.13033
210 0.208445
215 0.20402
220 0.255175
225 0.283976
230 0.210106
235 0.186118
240 0.153676
245 0.137711
250 0.213067
255 0.189786
260 0.153458
265 0.182413
270 0.20713
275 0.242868
280 0.208943
285 0.238786
290 0.207572
295 0.194591
300 0.229936
305 0.220723
310 0.225078
315 0.158604
320 0.226863
325 0.303216
330 0.182359
335 0.196178
340 0.179216
345 0.14979
350 0.206158
355 0.196841
360 0.228174
365 0.161639
370 0.198664
375 0.197195
380 0.169737
385 0.267509
390 0.190834
395 0.218909
400 0.203592
405 0.218277
410 0.196887
415 0.226914
420 0.235401
425 0.194002
430 0.243653
435 0.220525
440 0.180292
445 0.219143
450 0.217912
455 0.319828
460 0.232565
465 0.255623
470 0.264424
475 0.254062
480 0.278137
485 0.362752
490 0.457628
495 0.659348
500 13.0217
505 209.978
510 298.191
515 74.0492
520 9.61753
525 2.13761
530 1.35909
535 1.23991
540 1.14301
545 1.03619
550 1.17745
555 1.10544
560 0.962254
565 0.864107
570 0.675235
575 0.601294
580 0.543098
585 0.494196
590 0.496399
595 0.681396
600 1.20315
Ex : 518
200 0.259832
205 0.204368
210 0.177311
215 0.263147
220 0.221686
225 0.206434
230 0.217099
235 0.211937
240 0.15339
245 0.190543
250 0.201944
255 0.246929
260 0.248691
265 0.184409
270 0.160988
275 0.179619
280 0.237956
285 0.181052
290 0.239933
295 0.170236
300 0.220488
305 0.177295
310 0.184885
315 0.216569
320 0.261278
325 0.256844
330 0.135936
335 0.230243
340 0.146003
345 0.162438
350 0.216262
355 0.256294
360 0.244145
365 0.242971
370 0.210287
375 0.252765
380 0.184013
385 0.202605
390 0.173224
395 0.267446
400 0.192433
405 0.204661
410 0.148223
415 0.212786
420 0.177485
425 0.140958
430 0.17868
435 0.278301
440 0.221347
445 0.181149
450 0.177444
455 0.152171
460 0.228347
465 0.262244
470 0.275048
475 0.236776
480 0.264615
485 0.330508
490 0.366796
495 0.441337
500 0.622703
505 13.1425
510 198.689
515 285.595
520 71.6923
525 9.32663
530 2.16081
535 1.28704
540 1.07202
545 0.979139
550 1.11965
555 1.11414
560 1.01851
565 0.865118
570 0.767157
575 0.504068
580 0.478368
585 0.393543
590 0.442198
595 0.305178
600 1.7211
Ex : 523
200 0.175807
205 0.28144
210 0.240942
215 0.191475
220 0.192614
225 0.223149
230 0.245623
235 0.203903
240 0.178996
245 0.206679
250 0.287552
255 0.221974
260 0.188085
265 0.264476
270 0.231833
275 0.185642
280 0.1668
285 0.247928
290 0.204703
295 0.164298
300 0.253368
305 0.237376
310 0.239408
315 0.215515
320 0.242843
325 0.170404
330 0.247659
335 0.166263
340 0.228734
345 0.238993
350 0.23335
355 0.253323
360 0.227678
365 0.144959
370 0.232308
375 0.197343
380 0.280036
385 0.211275
390 0.204434
395 0.207724
400 0.198642
405 0.247613
410 0.203508
415 0.16724
420 0.185839
425 0.208283
430 0.221175
435 0.215445
440 0.236729
445 0.317515
450 0.265447
455 0.213752
460 0.30185
465 0.251326
470 0.223681
475 0.247139
480 0.244279
485 0.280647
490 0.461299
495 0.402198
500 0.516155
505 0.5365
510 12.5328
515 193.393
520 293.362
525 75.7731
530 9.78434
535 1.88352
540 1.17913
545 0.907077
550 0.908132
555 1.02559
560 1.08101
565 0.855746
570 0.739487
575 0.609475
580 0.551882
585 0.455147
590 0.472578
595 0.406418
600 0.0596086
Ex : 528
200 0.194244
205 0.231384
210 0.168225
215 0.201757
220 0.155522
225 0.168855
230 0.251154
235 0.27529
240 0.23715
245 0.22166
250 0.303628
255 0.196142
260 0.235036
265 0.170098
270 0.19432
275 0.201971
280 0.308985
285 0.205035
290 0.223947
295 0.193825
300 0.21356
305 0.210953
310 0.152252
315 0.29141
320 0.185673
325 0.308047
330 0.220752
335 0.126043
340 0.246378
345 0.18839
350 0.271654
355 0.271275
360 0.147458
365 0.179627
370 0.211663
375 0.224458
380 0.23345
385 0.293951
390 0.197977
395 0.262554
400 0.183966
405 0.255726
410 0.239195
415 0.227652
420 0.199393
425 0.19494
430 0.20074
435 0.266713
440 0.239583
445 0.229281
450 0.185606
455 0.187609
460 0.239974
465 0.283832
470 0.270658
475 0.311553
480 0.257088
485 0.249565
490 0.259728
495 0.263295
500 0.389329
505 0.406117
510 0.607735
515 11.4796
520 186.016
525 277.252
530 70.3529
535 9.04449
540 1.94782
545 1.25493
550 1.00935
555 1.09501
560 0.812051
565 0.762073
570 0.735484
575 0.662931
580 0.568034
585 0.356454
590 0.449989
595 0.303052
600 0.272025
Ex : 533
200 0.266342
205 0.228923
210 0.252687
215 0.187401
220 0.193764
225 0.221732
230 0.152835
235 0.189814
240 0.289827
245 0.225295
250 0.219263
255 0.235479
260 0.181312
265 0.199846
270 0.187175
275 0.181401
280 0.190681
285 0.186867
290 0.220741
295 0.157258
300 0.237465
305 0.212976
310 0.228797
315 0.28735
320 0.176096
325 0.238356
330 0.302376
335 0.17627
340 0.259937
345 0.281007
350 0.275695
355 0.227672
360 0.188664
365 0.229097
370 0.162427
375 0.166108
380 0.251826
385 0.254377
390 0.199878
395 0.189675
400 0.228537
405 0.237013
410 0.193735
415 0.396886
420 0.193075
425 0.25402
430 0.210769
435 0.188457
440 0.232735
445 0.280537
450 0.283326
455 0.276298
460 0.246248
465 0.305226
470 0.232113
475 0.273992
480 0.269742
485 0.28406
490 0.213391
495 0.266391
500 0.313436
505 0.32699
510 0.38629
515 0.50423
520 10.8302
525 181.041
530 281.254
535 73.9218
540 9.35806
545 2.02315
550 1.16937
555 0.967742
560 0.922821
565 0.658662
570 0.734739
575 0.675899
580 0.521723
585 0.563477
590 0.450981
595 0.318235
600 0.590684
Ex : 538
200 0.222077
205 0.218612
210 0.195296
215 0.193724
220 0.167037
225 0.189852
230 0.19435
235 0.290498
240 0.241061
245 0.161673
250 0.153134
255 0.155988
260 0.292849
265 0.177934
270 0.167494
275 0.271281
280 0.206746
285 0.167239
290 0.321258
295 0.208335
300 0.184696
305 0.186505
310 0.26257
315 0.224153
320 0.2384
325 0.396341
330 0.304404
335 0.18834
340 0.223539
345 0.220602
350 0.335872
355 0.18139
360 0.170723
365 0.235885
370 0.242457
375 0.190111
380 0.305868
385 0.285317
390 0.262609
395 0.277076
400 0.279188
405 0.18651
410 0.214692
415 0.260134
420 0.272014
425 0.204255
430 0.267262
435 0.225352
440 0.253212
445 0.215651
450 0.217547
455 0.209884
460 0.238121
465 0.264167
470 0.277977
475 0.301833
480 0.326878
485 0.278429
490 0.282724
495 0.252036
500 0.288123
505 0.306147
510 0.299354
515 0.431419
520 0.618636
525 9.52257
530 170.417
535 277.493
540 74.8847
545 9.56882
550 1.95496
555 0.922987
560 0.887101
565 0.684662
570 0.588297
575 0.61332
580 0.556953
585 0.559217
590 0.401846
595 0.318661
600 0.0362625
Ex : 543
200 0.184935
205 0.224209
210 0.212166
215 0.223208
220 0.232624
225 0.220609
230 0.222484
235 0.218086
240 0.291173
245 0.186053
250 0.240403
255 0.204116
260 0.198207
265 0.168163
270 0.190877
275 0.206533
280 0.234062
285 0.225167
290 0.243154
295 0.354299
300 0.283125
305 0.192623
310 0.250512
315 0.273735
320 0.286054
325 0.196342
330 0.243045
335 0.242389
340 0.275387
345 0.293787
350 0.170813
355 0.187826
360 0.206628
365 0.244461
370 0.243937
375 0.207458
380 0.243956
385 0.331133
390 0.274791
395 0.197259
400 0.327906
405 0.306317
410 0.250323
415 0.190162
420 0.274669
425 0.225049
430 0.259059
435 0.275882
440 0.266843
445 0.19912
450 0.279812
455 0.285544
460 0.205595
465 0.323867
470 0.195015
475 0.227488
480 0.235864
485 0.194773
490 0.324591
495 0.29192
500 0.278542
505 0.291561
510 0.383502
515 0.308914
520 0.38586
525 0.477835
530 9.08565
535 168.448
540 278.232
545 75.5436
550 9.68386
555 1.76996
560 0.822832
565 0.691341
570 0.559706
575 0.511917
580 0.559441
585 0.537157
590 0.430176
595 0.416185
600 0.173242
Ex : 548
200 0.223951
205 0.328614
210 0.175072
215 0.236868
220 0.18952
225 0.208795
230 0.242116
235 0.182479
240 0.197259
245 0.223406
250 0.262865
255 0.245192
260 0.27999
265 0.245249
270 0.32269
275 0.234716
280 0.193309
285 0.232032
290 0.258184
295 0.143946
300 0.226375
305 0.153056
310 0.208757
315 0.169296
320 0.216971
325 0.250676
330 0.198772
335 0.206474
340 0.242875
345 0.258381
350 0.26035
355 0.224473
360 0.24865
365 0.27601
370 0.29318
375 0.23833
380 0.254658
385 0.334011
390 0.221169
395 0.196164
400 0.199539
405 0.21549
410 0.274715
415 0.252658
420 0.257381
425 0.226099
430 0.245377
435 0.194265
440 0.184548
445 0.235917
450 0.245886
455 0.238332
460 0.286798
465 0.267532
470 0.253241
475 0.262627
480 0.208592
485 0.229623
490 0.307514
495 0.264815
500 0.384369
505 0.303575
510 0.28346
515 0.245505
520 0.380576
525 0.476665
530 0.580023
535 9.77611
540 164.067
545 267.628
550 76.2179
555 9.45196
560 1.81953
565 0.876819
570 0.776471
575 0.546505
580 0.50168
585 0.436128
590 0.47057
595 0.450549
600 0.317644
Ex : 553
200 0.234003
205 0.202899
210 0.197437
215 0.195311
220 0.195317
225 0.178254
230 0.214558
235 0.165937
240 0.239507
245 0.225929
250 0.20923
255 0.216883
260 0.241345
265 0.208835
270 0.328929
275 0.243888
280 0.256084
285 0.251878
290 0.24938
295 0.283825
300 0.286303
305 0.174571
310 0.223074
315 0.193403
320 0.216904
325 0.228966
330 0.205299
335 0.156958
340 0.32457
345 0.307077
350 0.309758
355 0.322971
360 0.310149
365 0.269817
370 0.241906
375 0.247867
380 0.237886
385 0.201889
390 0.273509
395 0.328621
400 0.225014
405 0.191148
410 0.24388
415 0.295336
420 0.238245
425 0.246704
430 0.222164
435 0.26364
440 0.176981
445 0.183766
450 0.236458
455 0.293911
460 0.290233
465 0.261007
470 0.272807
475 0.2952
480 0.284946
485 0.319988
490 0.236776
495 0.325116
500 0.251582
505 0.265154
510 0.269937
515 0.304761
520 0.237769
525 0.358601
530 0.373311
535 0.48456
540 8.33517
545 155.016
550 261.943
555 74.4635
560 9.41226
565 1.75937
570 0.776517
575 0.690789
580 0.5659
585 0.502321
590 0.380209
595 0.41668
600 0.154188
Ex : 558
200 0.17448
205 0.217287
210 0.180835
215 0.214835
220 0.194836
225 0.177435
230 0.187435
235 0.223137
240 0.274884
245 0.224553
250 0.224959
255 0.290607
260 0.204198
265 0.317367
270 0.243071
275 0.313677
280 0.313252
285 0.360825
290 0.303635
295 0.232554
300 0.244329
305 0.294347
310 0.20777
315 0.237446
320 0.321548
325 0.29934
330 0.319063
335 0.225268
340 0.217696
345 0.267007
350 0.239431
355 0.32151
360 0.242223
365 0.255861
370 0.243301
375 0.219777
380 0.265231
385 0.24808
390 0.273191
395 0.305439
400 0.253435
405 0.305606
410 0.270634
415 0.253958
420 0.259962
425 0.292059
430 0.299774
435 0.299171
440 0.309069
445 0.250244
450 0.298071
455 0.219043
460 0.354076
465 0.231569
470 0.238184
475 0.327771
480 0.275264
485 0.322501
490 0.286386
495 0.288876
500 0.303961
505 0.251638
510 0.218583
515 0.404619
520 0.326891
525 0.290776
530 0.454369
535 0.482351
540 0.459944
545 7.31248
550 150.128
555 266.401
560 76.518
565 9.59406
570 1.69696
575 0.640552
580 0.447082
585 0.419797
590 0.426234
595 0.481151
600 0.749493
Ex : 563
200 0.131427
205 0.21728
210 0.248303
215 0.191265
220 0.220442
225 0.145863
230 0.269017
235 0.24211
240 0.230886
245 0.249669
250 0.255187
255 0.180309
260 0.211575
265 0.157373
270 0.295621
275 0.290102
280 0.265152
285 0.26208
290 0.31981
295 0.243667
300 0.208209
305 0.177663
310 0.272681
315 0.239173
320 0.224287
325 0.194821
330 0.210045
335 0.177428
340 0.23654
345 0.192331
350 0.348361
355 0.404781
360 0.352893
365 0.182853
370 0.255704
375 0.398859
380 0.213302
385 0.273248
390 0.243909
395 0.264576
400 0.305436
405 0.277968
410 0.283109
415 0.325748
420 0.283411
425 0.256076
430 0.29713
435 0.26898
440 0.228136
445 0.295616
450 0.355244
455 0.322263
460 0.251456
465 0.247204
470 0.270343
475 0.272666
480 0.40513
485 0.336516
490 0.244994
495 0.27263
500 0.295464
505 0.287797
510 0.276286
515 0.276352
520 0.265527
525 0.317256
530 0.393229
535 0.488734
540 0.40388
545 0.514663
550 7.74534
555 142.838
560 248.601
565 72.1373
570 8.993
575 1.55414
580 0.50723
585 0.567261
590 0.501675
595 0.371015
600 0.396702
Ex : 568
200 0.231638
205 0.208393
210 0.236538
215 0.265079
220 0.235104
225 0.293708
230 0.306079
235 0.314795
240 0.223987
245 0.272873
250 0.197259
255 0.243403
260 0.17818
265 0.223458
270 0.262031
275 0.210518
280 0.36789
285 0.281368
290 0.217181
295 0.228018
300 0.196091
305 0.272323
310 0.192829
315 0.260101
320 0.196955
325 0.289914
330 0.300016
335 0.259437
340 0.267933
345 0.376118
350 0.282485
355 0.288396
360 0.22637
365 0.349813
370 0.286239
375 0.227959
380 0.284551
385 0.30074
390 0.379397
395 0.256944
400 0.27192
405 0.225698
410 0.20239
415 0.212652
420 0.322304
425 0.240215
430 0.222565
435 0.245205
440 0.27548
445 0.23079
450 0.246067
455 0.233577
460 0.278411
465 0.319039
470 0.341738
475 0.30377
480 0.232627
485 0.247184
490 0.219831
495 0.310513
500 0.310779
505 0.328163
510 0.27943
515 0.307934
520 0.273565
525 0.253315
530 0.313883
535 0.398339
540 0.424931
545 0.409049
550 0.483555
555 5.96667
560 128.464
565 236.094
570 72.9645
575 9.15031
580 1.48065
585 0.519287
590 0.43026
595 0.404985
600 0.0460857
Ex : 573
200 0.203727
205 0.357238
210 0.255363
215 0.317541
220 0.313821
225 0.287962
230 0.272883
235 0.150314
240 0.224068
245 0.34137
250 0.257636
255 0.245571
260 0.233952
265 0.174925
270 0.327655
275 0.262066
280 0.264964
285 0.227548
290 0.350604
295 0.262388
300 0.210079
305 0.178845
310 0.250395
315 0.2946
320 0.258226
325 0.31907
330 0.283675
335 0.379983
340 0.276277
345 0.232843
350 0.289885
355 0.293695
360 0.229478
365 0.280962
370 0.206087
375 0.239357
380 0.263349
385 0.29694
390 0.361897
395 0.345048
400 0.2109
405 0.350488
410 0.30157
415 0.266229
420 0.262991
425 0.31292
430 0.233446
435 0.291546
440 0.240106
445 0.342024
450 0.274357
455 0.349114
460 0.368553
465 0.26284
470 0.293022
475 0.257919
480 0.400627
485 0.293176
490 0.372264
495 0.258404
500 0.253992
505 0.265967
510 0.270958
515 0.298405
520 0.243594
525 0.197645
530 0.363395
535 0.291805
540 0.255873
545 0.392994
550 0.422523
555 0.63128
560 4.83181
565 113.093
570 222.776
575 67.9965
580 8.45861
585 1.38049
590 0.518616
595 0.420774
600 0.125725
Ex : 578
200 0.30154
205 0.259974
210 0.269893
215 0.245191
220 0.203338
225 0.230043
230 0.288238
235 0.202067
240 0.33338
245 0.327703
250 0.413773
255 0.269265
260 0.3034
265 0.250237
270 0.226395
275 0.266243
280 0.219891
285 0.245123
290 0.273673
295 0.284786
300 0.267303
305 0.321561
310 0.212647
315 0.223275
320 0.17627
325 0.254148
330 0.20032
335 0.369179
340 0.403612
345 0.321562
350 0.290875
355 0.273907
360 0.29761
365 0.302589
370 0.288608
375 0.234407
380 0.29048
385 0.296161
390 0.32747
395 0.294946
400 0.219807
405 0.243133
410 0.264423
415 0.377214
420 0.247934
425 0.262523
430 0.291257
435 0.33418
440 0.276907
445 0.485286
450 0.236493
455 0.234672
460 0.324327
465 0.370199
470 0.216669
475 0.337425
480 0.283
485 0.304246
490 0.274249
495 0.327746
500 0.231742
505 0.312745
510 0.283638
515 0.305138
520 0.329878
525 0.312486
530 0.254016
535 0.351782
540 0.327606
545 0.417338
550 0.412199
555 0.424541
560 0.494964
565 4.4028
570 97.8332
575 191.081
580 59.6735
585 7.47846
590 1.13743
595 0.498551
600 0.112121
Ex : 583
200 0.272201
205 0.293176
210 0.211396
215 0.180937
220 0.240999
225 0.240114
230 0.242082
235 0.187801
240 0.222698
245 0.322009
250 0.289954
255 0.237364
260 0.24017
265 0.238484
270 0.338929
275 0.294708
280 0.373964
285 0.206387
290 0.312412
295 0.294895
300 0.233654
305 0.289828
310 0.222665
315 0.222796
320 0.292222
325 0.259107
330 0.28444
335 0.198025
340 0.290919
345 0.269193
350 0.262468
355 0.261736
360 0.266452
365 0.296976
370 0.292909
375 0.190461
380 0.313675
385 0.268162
390 0.290014
395 0.307848
400 0.396964
405 0.303522
410 0.31697
415 0.350529
420 0.303864
425 0.272289
430 0.366161
435 0.286022
440 0.26421
445 0.277657
450 0.189966
455 0.257989
460 0.323795
465 0.325106
470 0.288746
475 0.337633
480 0.303751
485 0.375331
490 0.277004
495 0.297292
500 0.260121
505 0.232153
510 0.331696
515 0.285944
520 0.311648
525 0.336591
530 0.293096
535 0.233288
540 0.271369
545 0.200363
550 0.235865
555 0.406815
560 0.387842
565 0.449448
570 3.84047
575 87.9631
580 163.811
585 47.7683
590 6.09365
595 1.01092
600 0.36191
Ex : 588
200 0.251144
205 0.173403
210 0.308429
215 0.29909
220 0.339179
225 0.226142
230 0.209549
235 0.166381
240 0.328206
245 0.335024
250 0.195577
255 0.370805
260 0.253757
265 0.384676
270 0.300579
275 0.262634
280 0.260776
285 0.238296
290 0.334716
295 0.360774
300 0.287503
305 0.351599
310 0.225711
315 0.339399
320 0.247039
325 0.229893
330 0.258065
335 0.32592
340 0.420409
345 0.34587
350 0.278525
355 0.274707
360 0.227481
365 0.228479
370 0.279381
375 0.290288
380 0.348271
385 0.285233
390 0.203367
395 0.320214
400 0.218791
405 0.309912
410 0.315436
415 0.25148
420 0.288485
425 0.264439
430 0.269072
435 0.347894
440 0.242664
445 0.242976
450 0.335826
455 0.32576
460 0.277578
465 0.267992
470 0.333237
475 0.279984
480 0.285085
485 0.255635
490 0.263586
495 0.262959
500 0.253202
505 0.357993
510 0.239532
515 0.231429
520 0.22808
525 0.285059
530 0.273575
535 0.284601
540 0.278858
545 0.291037
550 0.251784
555 0.423111
560 0.418182
565 0.336832
570 0.315524
575 3.1007
580 77.059
585 150.521
590 44.776
595 5.61454
600 0.881799
Ex : 593
200 0.226302
205 0.268694
210 0.355665
215 0.327712
220 0.298247
225 0.253977
230 0.260235
235 0.171308
240 0.322899
245 0.249618
250 0.250362
255 0.19449
260 0.319332
265 0.203445
270 0.268418
275 0.294448
280 0.19005
285 0.301025
290 0.288159
295 0.306819
300 0.26994
305 0.328079
310 0.28415
315 0.251282
320 0.291999
325 0.38138
330 0.248553
335 0.346206
340 0.20557
345 0.264623
350 0.319582
355 0.231844
360 0.396265
365 0.297217
370 0.372286
375 0.32061
380 0.252791
385 0.343712
390 0.27798
395 0.279352
400 0.27133
405 0.342841
410 0.431017
415 0.329622
420 0.337524
425 0.374998
430 0.365556
435 0.24868
440 0.310325
445 0.317638
450 0.27751
455 0.234079
460 0.228428
465 0.217553
470 0.262016
475 0.311783
480 0.282723
485 0.227991
490 0.344204
495 0.406203
500 0.275993
505 0.366195
510 0.289065
515 0.328075
520 0.313717
525 0.275055
530 0.418462
535 0.314169
540 0.357336
545 0.385808
550 0.258656
555 0.243003
560 0.374087
565 0.384825
570 0.349244
575 0.482516
580 3.00662
585 66.5276
590 122.467
595 37.378
600 5.65917
Ex : 598
200 0.326179
205 0.278374
210 0.236783
215 0.247172
220 0.276928
225 0.175635
230 0.303613
235 0.158553
240 0.234161
245 0.276711
250 0.2297
255 0.227182
260 0.482423
265 0.323066
270 0.209143
275 0.243237
280 0.321353
285 0.270991
290 0.216012
295 0.316893
300 0.32721
305 0.305029
310 0.288157
315 0.354626
320 0.253244
325 0.282807
330 0.337926
335 0.283772
340 0.329758
345 0.424496
350 0.273785
355 0.27591
360 0.417802
365 0.423098
370 0.23742
375 0.321844
380 0.269083
385 0.334487
390 0.177782
395 0.289514
400 0.243824
405 0.319932
410 0.409041
415 0.333923
420 0.333058
425 0.358005
430 0.434993
435 0.426163
440 0.290141
445 0.323366
450 0.320897
455 0.349639
460 0.408069
465 0.325036
470 0.267435
475 0.221109
480 0.294261
485 0.222566
490 0.227756
495 0.304675
500 0.427814
505 0.359104
510 0.387677
515 0.265965
520 0.200399
525 0.316435
530 0.270506
535 0.403159
540 0.387518
545 0.318607
550 0.236312
555 0.341135
560 0.383302
565 0.354983
570 0.287804
575 0.339547
580 0.478904
585 2.5856
590 58.2492
595 104.246
600 64.079
Ex : 603
200 0.364854
205 0.292119
210 0.342569
215 0.229179
220 0.29975
225 0.28494
230 0.377553
235 0.376276
240 0.39755
245 0.302129
250 0.357402
255 0.357428
260 0.314081
265 0.213339
270 0.312029
275 0.189435
280 0.211278
285 0.245192
290 0.37685
295 0.383663
300 0.29907
305 0.32013
310 0.370549
315 0.305045
320 0.225632
325 0.33524
330 0.317527
335 0.291803
340 0.269157
345 0.289202
350 0.34715
355 0.290898
360 0.330167
365 0.316277
370 0.225994
375 0.347127
380 0.31049
385 0.328824
390 0.315608
395 0.254737
400 0.441014
405 0.274007
410 0.32467
415 0.369541
420 0.406096
425 0.290614
430 0.320054
435 0.323443
440 0.255399
445 0.253279
450 0.28363
455 0.245051
460 0.338209
465 0.310695
470 0.442841
475 0.377849
480 0.377989
485 0.244424
490 0.356336
495 0.308601
500 0.267189
505 0.391324
510 0.329166
515 0.274863
520 0.243587
525 0.254785
530 0.316518
535 0.318576
540 0.324278
545 0.320638
550 0.389063
555 0.357125
560 0.437965
565 0.370403
570 0.378897
575 0.371566
580 0.338816
585 0.306291
590 2.85838
595 51.9176
600 81.3659
