File format V 1.0
ven. 13. janv. 12:57:56 2017
Operator : 
Comments : 

=============================================
SpectroFluorometer parameters
Mode : 3D measurement
Data : Fluorescence
Phospho. : Ordinary
Spectrum : Fluorescence

Scan speed : 2400 nm/mn
Response : 100 ms
PM Voltage : 700 V
Shutter : On

Lambda Ex. Start : 203
Lambda Ex. End : 603
Lambda Ex. Step : 5
Ex. Slit : 5 nm

Lambda Em. Start : 200
Lambda Em. End : 600
Lambda Em. Step : 5
Em. Slit : 5 nm

Repetition : 1
Decal lambda em : 10
=============================================
DATA
Ex : 203
200 7.43602
205 4.9858
210 4.92242
215 4.29243
220 6.9932
225 6.59522
230 8.18386
235 4.51003
240 3.72145
245 10.7402
250 3.93567
255 5.74358
260 3.00396
265 5.77991
270 7.50762
275 5.64248
280 6.90755
285 6.45158
290 5.56245
295 5.24918
300 4.88656
305 6.67655
310 10.6364
315 7.57748
320 3.2337
325 4.44194
330 5.55191
335 5.38818
340 5.01933
345 5.8884
350 6.87779
355 6.83142
360 5.73149
365 5.96944
370 4.71364
375 6.19283
380 6.73266
385 7.83882
390 7.31472
395 10.3024
400 4.32842
405 8.93365
410 4.38851
415 7.75545
420 7.1079
425 5.81549
430 5.58803
435 4.77868
440 6.86788
445 5.08537
450 4.66531
455 5.37189
460 6.02747
465 6.39559
470 5.63174
475 4.9809
480 6.4191
485 6.32515
490 5.9
495 5.99679
500 7.004
505 6.23781
510 5.59026
515 5.97944
520 5.46259
525 4.60748
530 5.13173
535 7.06407
540 5.28065
545 3.74861
550 6.64272
555 7.82867
560 6.74069
565 5.39502
570 5.39355
575 7.4775
580 5.62213
585 7.60103
590 6.48317
595 5.0367
600 22.7283
Ex : 208
200 4.43655
205 5.94994
210 4.86242
215 5.54561
220 5.44721
225 6.58455
230 5.7754
235 3.88167
240 3.49559
245 5.29774
250 9.15931
255 4.07897
260 5.95608
265 4.02976
270 5.0168
275 3.22532
280 4.89342
285 4.42135
290 7.76176
295 7.74923
300 4.18373
305 6.77509
310 7.56116
315 7.09482
320 5.47731
325 8.40124
330 5.25799
335 3.5866
340 5.48934
345 7.53021
350 6.27308
355 5.77242
360 5.5414
365 6.06745
370 6.56155
375 5.88666
380 4.90025
385 5.86603
390 6.32312
395 4.71371
400 6.33663
405 4.48526
410 7.97547
415 6.39538
420 4.7778
425 5.48459
430 5.22899
435 5.89266
440 4.66278
445 6.20937
450 6.06199
455 5.46525
460 6.47438
465 8.45066
470 5.27618
475 6.2511
480 5.32558
485 5.54113
490 7.44559
495 5.21249
500 7.84231
505 9.45196
510 5.41551
515 4.30594
520 5.32043
525 4.89418
530 5.79958
535 7.46276
540 5.82283
545 5.10216
550 6.09126
555 5.53354
560 5.79992
565 7.03304
570 10.557
575 4.52991
580 4.28509
585 4.91865
590 6.08048
595 7.31674
600 12.7077
Ex : 213
200 4.51142
205 7.85912
210 6.131
215 3.26611
220 7.7353
225 6.73882
230 8.48582
235 5.91327
240 8.72682
245 9.36461
250 5.49267
255 4.9576
260 7.44928
265 6.32887
270 4.84227
275 6.20509
280 6.61556
285 5.28671
290 5.32938
295 7.04621
300 6.46548
305 4.89835
310 7.61467
315 6.42314
320 6.57182
325 6.74159
330 8.45754
335 8.75192
340 7.48096
345 4.40452
350 4.755
355 4.35007
360 4.8006
365 6.01577
370 5.93459
375 4.94718
380 5.38651
385 3.30486
390 5.30424
395 6.63146
400 5.25672
405 2.93416
410 6.38748
415 5.9403
420 6.3794
425 6.08937
430 6.93313
435 5.23553
440 4.68169
445 6.96594
450 10.8349
455 9.63101
460 6.5645
465 6.43628
470 6.57879
475 7.01059
480 5.08845
485 5.17985
490 4.63275
495 8.75034
500 5.89098
505 6.04425
510 4.97829
515 9.43699
520 5.61092
525 7.59428
530 5.69969
535 5.81674
540 4.55137
545 6.97517
550 4.347
555 5.90857
560 5.55071
565 5.46768
570 6.25471
575 4.62244
580 5.91012
585 5.5348
590 5.81533
595 4.74463
600 19.1502
Ex : 218
200 4.3105
205 4.37393
210 4.89907
215 4.86436
220 5.43201
225 4.69644
230 4.35317
235 4.56535
240 6.31424
245 6.93506
250 6.7668
255 5.5296
260 6.61722
265 3.90531
270 2.96851
275 4.17527
280 5.23531
285 3.62683
290 4.8261
295 4.14441
300 3.14679
305 7.45965
310 5.87787
315 7.43997
320 3.24136
325 3.5794
330 3.48678
335 3.91327
340 7.51765
345 3.66044
350 6.30565
355 5.28526
360 6.56168
365 5.33165
370 8.34934
375 5.24906
380 4.2848
385 6.37148
390 9.25744
395 10.6394
400 7.02422
405 4.2038
410 6.81149
415 6.39179
420 4.89821
425 7.08387
430 5.73101
435 5.91375
440 4.16264
445 6.86018
450 7.81354
455 4.36422
460 5.35759
465 7.82138
470 6.13784
475 6.36322
480 5.83561
485 4.98921
490 7.00396
495 7.20222
500 9.8465
505 7.44538
510 7.29597
515 7.02065
520 8.35338
525 5.86423
530 7.21734
535 5.94453
540 7.7829
545 5.7699
550 5.06747
555 4.89437
560 3.41839
565 4.01903
570 5.5363
575 6.45237
580 4.48326
585 2.94199
590 5.67674
595 5.96767
600 0.679098
Ex : 223
200 4.43439
205 6.04339
210 5.55762
215 4.67225
220 6.98715
225 5.2503
230 3.96907
235 3.03268
240 5.41921
245 2.85057
250 5.95276
255 7.17224
260 5.03385
265 5.53478
270 4.35107
275 4.57655
280 4.55887
285 5.3631
290 5.9855
295 7.83241
300 4.98897
305 3.73961
310 7.33392
315 4.20554
320 4.97142
325 6.30251
330 6.28703
335 6.81994
340 5.17756
345 7.15727
350 6.20355
355 7.94119
360 10.3387
365 6.20103
370 4.35681
375 5.06987
380 6.45848
385 7.90841
390 7.12799
395 6.81353
400 4.78474
405 4.49099
410 5.43031
415 6.11738
420 5.70319
425 8.45091
430 9.31617
435 4.36145
440 5.6428
445 5.60881
450 3.96255
455 4.21326
460 6.60493
465 6.02115
470 4.21359
475 4.75091
480 5.74057
485 5.30582
490 9.16221
495 6.47883
500 4.55445
505 6.53708
510 5.87649
515 6.30596
520 8.6423
525 9.15195
530 6.57597
535 8.60981
540 8.28779
545 5.3825
550 5.45411
555 8.05978
560 4.49421
565 3.87261
570 8.12635
575 5.74163
580 5.05554
585 5.39251
590 6.35968
595 6.82334
600 8.57506
Ex : 228
200 4.4322
205 4.61459
210 3.03603
215 5.69816
220 9.26408
225 5.08452
230 8.33691
235 4.49352
240 4.16552
245 4.25641
250 6.80828
255 5.33621
260 7.0984
265 5.82959
270 5.57604
275 4.53832
280 6.34631
285 7.16193
290 4.86564
295 5.39672
300 4.70861
305 8.21367
310 3.90511
315 3.42414
320 5.15494
325 5.02145
330 6.99546
335 4.69385
340 4.70359
345 4.17315
350 5.28741
355 3.65292
360 7.73184
365 5.2683
370 8.61111
375 4.45922
380 4.26401
385 3.24697
390 5.38998
395 8.06132
400 5.3324
405 4.18327
410 5.45362
415 3.78178
420 4.01737
425 5.71504
430 6.33442
435 8.92421
440 5.29759
445 7.95222
450 6.35042
455 5.78961
460 4.67372
465 4.58703
470 4.33266
475 5.20022
480 5.53875
485 7.66212
490 5.39196
495 5.2733
500 5.72124
505 5.19868
510 4.68176
515 4.17693
520 5.13667
525 4.96342
530 6.41843
535 5.90876
540 4.91847
545 6.4441
550 6.61345
555 6.52276
560 4.16324
565 5.05046
570 5.77772
575 4.2549
580 4.08114
585 2.51933
590 3.43494
595 5.43806
600 21.0015
Ex : 233
200 4.44
205 4.34063
210 6.17074
215 5.31917
220 4.46139
225 4.03709
230 3.74096
235 3.81976
240 3.36733
245 4.01918
250 4.10388
255 5.07675
260 4.33405
265 4.08466
270 3.10173
275 6.35737
280 4.27873
285 3.04911
290 3.90234
295 5.45189
300 4.11416
305 3.59658
310 4.47258
315 5.42404
320 6.78628
325 6.07495
330 7.21178
335 4.73321
340 3.21206
345 5.04497
350 6.20062
355 6.02283
360 5.68341
365 5.14706
370 5.3376
375 4.47972
380 4.83281
385 5.73954
390 5.35371
395 7.17091
400 6.2121
405 4.72241
410 5.33461
415 5.29076
420 6.16934
425 5.18933
430 4.95424
435 4.97641
440 6.97228
445 7.65686
450 7.41305
455 5.46213
460 5.74482
465 5.45401
470 5.16472
475 6.48079
480 8.70565
485 6.06092
490 5.97727
495 4.41118
500 4.11943
505 3.42639
510 6.97422
515 4.6276
520 5.40992
525 4.45949
530 6.79043
535 4.76422
540 6.58273
545 5.95787
550 4.3559
555 4.08533
560 5.20066
565 5.32571
570 5.03366
575 4.67791
580 4.6161
585 5.77294
590 3.00934
595 3.11601
600 0.35459
Ex : 238
200 4.35249
205 4.59153
210 5.76731
215 4.39487
220 4.84113
225 4.18137
230 4.47781
235 3.26335
240 5.28106
245 6.34816
250 5.6663
255 4.85509
260 5.40762
265 5.42132
270 5.74866
275 3.01403
280 4.98548
285 7.53552
290 7.63861
295 3.54792
300 6.73007
305 3.65017
310 4.70157
315 3.21635
320 5.3744
325 3.67921
330 4.14988
335 5.39372
340 4.43809
345 3.17361
350 4.70422
355 4.42206
360 4.17038
365 5.25339
370 6.46601
375 4.51151
380 3.27338
385 4.07114
390 4.94446
395 4.17809
400 4.54858
405 4.79205
410 3.97851
415 6.04889
420 3.9063
425 4.02316
430 5.22463
435 5.53466
440 3.093
445 5.21235
450 4.86397
455 4.52702
460 5.21733
465 6.22768
470 4.62818
475 4.94122
480 3.81732
485 3.78956
490 7.77921
495 5.48574
500 4.86853
505 5.31065
510 4.68428
515 4.83549
520 2.96115
525 4.16723
530 4.23387
535 6.39212
540 4.02868
545 5.22345
550 4.29086
555 5.02318
560 6.01034
565 4.33142
570 5.00154
575 4.38157
580 4.41835
585 5.67231
590 3.4267
595 6.07306
600 1.5773
Ex : 243
200 3.7987
205 3.89487
210 5.46988
215 3.3539
220 3.67676
225 6.31318
230 3.51149
235 3.32344
240 2.52648
245 3.8605
250 3.39332
255 4.25243
260 4.16574
265 2.33298
270 3.34959
275 2.43777
280 3.16415
285 2.89336
290 3.61507
295 4.75771
300 3.59586
305 3.26508
310 3.6919
315 4.95192
320 2.46466
325 4.78483
330 3.30123
335 4.30838
340 3.72372
345 4.08077
350 2.49324
355 3.33896
360 3.15833
365 3.60882
370 5.56542
375 4.73677
380 3.71661
385 4.1916
390 4.13549
395 3.67937
400 4.90649
405 3.81566
410 3.23757
415 4.77085
420 4.03814
425 4.03459
430 6.10347
435 5.25738
440 4.55026
445 4.60218
450 4.47778
455 3.67988
460 4.89657
465 3.62554
470 3.87861
475 5.15317
480 3.76247
485 4.42932
490 4.53717
495 3.22235
500 4.78573
505 4.73851
510 4.56078
515 2.83514
520 3.76172
525 4.11957
530 3.94422
535 5.7862
540 4.24205
545 3.7735
550 6.7586
555 4.0215
560 4.88245
565 3.18581
570 4.44992
575 2.49501
580 4.01736
585 3.58407
590 3.30816
595 4.17575
600 0.475185
Ex : 248
200 4.40688
205 3.4555
210 2.72655
215 2.34148
220 2.94825
225 3.48392
230 4.18151
235 3.98438
240 2.22581
245 3.06672
250 3.48383
255 3.49688
260 3.42474
265 2.45927
270 3.48465
275 4.51222
280 5.65759
285 4.15987
290 5.45667
295 2.84295
300 3.95956
305 3.44185
310 3.68626
315 3.15842
320 3.48842
325 2.84279
330 3.00057
335 3.70956
340 2.58309
345 2.11864
350 3.4293
355 4.63663
360 4.36532
365 5.63466
370 2.81643
375 3.73213
380 2.6936
385 3.17782
390 3.33896
395 3.39612
400 3.09445
405 3.60939
410 2.90223
415 3.9718
420 3.01785
425 4.82174
430 4.70227
435 4.0585
440 5.05329
445 3.04463
450 2.22998
455 2.5635
460 3.28744
465 4.70896
470 2.91203
475 4.27319
480 3.45736
485 4.99529
490 4.90451
495 4.12102
500 5.41714
505 6.39508
510 3.58468
515 3.58478
520 2.31509
525 2.91435
530 3.37635
535 4.47639
540 3.63026
545 4.23252
550 4.27616
555 4.78376
560 4.93686
565 3.07144
570 3.83508
575 4.2801
580 3.02344
585 3.04596
590 3.25551
595 3.84143
600 0.43714
Ex : 253
200 4.22469
205 3.2125
210 2.65456
215 2.41816
220 2.50718
225 3.72688
230 3.92904
235 3.90047
240 4.18958
245 2.86337
250 2.12363
255 3.11631
260 3.16274
265 1.87067
270 2.76181
275 2.9923
280 3.62833
285 3.15086
290 2.4591
295 2.19447
300 3.4467
305 1.70723
310 1.89471
315 3.26468
320 3.9928
325 1.84944
330 1.79089
335 2.5448
340 3.02299
345 2.16503
350 3.64984
355 3.44675
360 3.21236
365 3.32522
370 5.74607
375 2.78431
380 3.1818
385 2.68919
390 3.20872
395 2.39044
400 3.62899
405 3.52765
410 3.71985
415 2.50076
420 4.32514
425 2.72818
430 4.14263
435 3.70595
440 4.06801
445 2.22889
450 3.91705
455 3.53189
460 3.68285
465 2.51754
470 3.69945
475 3.38436
480 4.48541
485 3.62109
490 3.5507
495 3.86522
500 3.4622
505 3.4494
510 2.35845
515 2.56546
520 2.25662
525 3.15012
530 3.38453
535 3.05276
540 2.92604
545 5.35407
550 3.45607
555 2.96698
560 3.98017
565 2.50542
570 3.75735
575 4.02928
580 2.51468
585 3.65549
590 2.89911
595 2.92679
600 7.42269
Ex : 258
200 2.4012
205 2.62645
210 2.55094
215 2.50402
220 3.28229
225 1.89045
230 2.07045
235 2.49696
240 3.35503
245 1.95785
250 2.05181
255 2.54865
260 2.18752
265 2.14266
270 1.90931
275 2.60825
280 2.09176
285 2.12056
290 3.1206
295 1.27589
300 1.61302
305 1.7236
310 2.80867
315 2.6993
320 2.73182
325 2.41091
330 2.29717
335 2.07328
340 2.11155
345 3.18248
350 2.28643
355 2.74579
360 2.25863
365 2.21153
370 1.86492
375 2.27591
380 1.74427
385 2.84086
390 2.87909
395 2.67219
400 2.1052
405 3.05979
410 2.76301
415 2.30529
420 2.76269
425 2.16878
430 4.18773
435 2.96364
440 2.35135
445 2.76896
450 3.42596
455 3.06966
460 2.1895
465 2.12259
470 2.73278
475 2.23861
480 2.82016
485 2.82915
490 3.05513
495 2.42481
500 2.43295
505 2.91742
510 3.64424
515 3.88291
520 2.79967
525 2.98599
530 2.31272
535 3.12547
540 1.86134
545 2.16471
550 1.60484
555 3.02836
560 2.4189
565 2.46708
570 3.03742
575 2.3545
580 2.93542
585 2.07311
590 2.08378
595 2.4667
600 7.44418
Ex : 263
200 2.51424
205 1.52968
210 1.90389
215 1.58935
220 1.38247
225 1.51039
230 0.91038
235 1.77456
240 1.77867
245 1.90167
250 1.63888
255 2.46689
260 2.22753
265 1.89847
270 1.73443
275 1.51553
280 3.3424
285 1.44013
290 2.18949
295 2.58375
300 1.75491
305 1.16237
310 1.42181
315 1.60476
320 1.67773
325 1.44871
330 1.65055
335 1.40548
340 2.31235
345 2.61563
350 2.27586
355 1.99143
360 2.25837
365 2.16672
370 2.12677
375 2.34884
380 1.67671
385 1.80657
390 1.22846
395 2.46226
400 2.2248
405 1.21346
410 1.90909
415 2.09686
420 1.84592
425 2.11324
430 1.82208
435 2.58972
440 2.58593
445 2.37572
450 2.95705
455 2.61123
460 2.67151
465 3.10342
470 2.53922
475 1.91624
480 1.63962
485 1.90168
490 2.74536
495 1.90673
500 2.70565
505 2.61545
510 2.15201
515 2.36067
520 2.4346
525 2.59941
530 2.11574
535 2.83001
540 2.43219
545 3.10586
550 1.83888
555 1.51143
560 1.55302
565 2.10816
570 2.04645
575 1.84898
580 1.14482
585 1.53919
590 2.55588
595 1.66705
600 2.57564
Ex : 268
200 1.65025
205 0.981591
210 2.00716
215 0.946345
220 1.37241
225 1.88467
230 1.68427
235 1.58965
240 1.16809
245 1.71924
250 1.06943
255 0.979099
260 1.38631
265 1.31509
270 1.54163
275 1.74628
280 2.03751
285 1.40009
290 1.47616
295 1.16636
300 1.84919
305 1.22776
310 1.3633
315 1.13481
320 1.51707
325 1.11131
330 1.27147
335 1.09828
340 1.07545
345 1.91036
350 2.13955
355 1.58627
360 1.95403
365 1.48885
370 1.28469
375 1.38778
380 1.99474
385 1.39178
390 1.70249
395 1.77344
400 1.418
405 1.98708
410 1.62181
415 1.41577
420 1.41111
425 1.95177
430 1.97769
435 1.94507
440 2.18572
445 1.67456
450 2.62818
455 1.56589
460 1.47358
465 1.90575
470 1.77137
475 1.41457
480 1.75789
485 1.91036
490 2.00899
495 2.60708
500 1.1796
505 1.5006
510 1.60974
515 1.11486
520 1.50627
525 1.93822
530 2.00877
535 2.07457
540 1.30464
545 2.32471
550 2.75425
555 1.4604
560 1.32808
565 2.06974
570 1.73755
575 1.14146
580 1.20672
585 1.98022
590 1.74984
595 1.34088
600 0.152587
Ex : 273
200 1.19439
205 0.979835
210 0.900847
215 0.907081
220 1.22321
225 1.06045
230 0.998631
235 0.729857
240 1.09586
245 1.9568
250 1.67969
255 1.95358
260 1.04405
265 1.35712
270 2.12547
275 1.13258
280 0.907146
285 1.33841
290 1.05487
295 2.2065
300 1.90455
305 1.49407
310 1.15509
315 1.3502
320 1.00014
325 1.33143
330 1.06777
335 1.25353
340 2.03557
345 1.46871
350 1.69488
355 1.24529
360 1.18805
365 1.63163
370 1.59135
375 1.69978
380 1.45711
385 1.39335
390 1.77764
395 1.49336
400 1.52764
405 1.61994
410 1.58147
415 1.88239
420 1.83423
425 1.26539
430 1.26284
435 1.78912
440 1.24996
445 1.65861
450 1.47991
455 1.52725
460 2.18599
465 1.73891
470 1.32919
475 1.30603
480 1.88551
485 2.42829
490 1.68138
495 1.59003
500 1.35141
505 1.08142
510 0.805874
515 1.25101
520 1.77432
525 1.56058
530 1.87411
535 1.69486
540 1.36298
545 1.62941
550 1.5891
555 1.40223
560 1.56188
565 1.03772
570 1.41574
575 1.12348
580 1.08934
585 1.13287
590 1.06247
595 0.766243
600 0.0871955
Ex : 278
200 0.830017
205 1.62174
210 1.10989
215 0.96687
220 1.12219
225 0.941868
230 1.10613
235 0.998662
240 0.718712
245 0.92342
250 1.25115
255 0.87355
260 0.897289
265 1.1821
270 0.973654
275 1.63403
280 1.19484
285 0.890966
290 0.756021
295 1.11806
300 0.759054
305 0.555674
310 0.754758
315 0.818165
320 1.35418
325 1.23276
330 0.951373
335 0.989318
340 1.16801
345 0.97652
350 1.25481
355 1.49777
360 1.00084
365 1.13388
370 1.4997
375 1.11197
380 1.4236
385 1.41088
390 1.27511
395 1.41229
400 1.2088
405 1.28812
410 1.71523
415 1.24727
420 1.48465
425 1.53621
430 1.30507
435 1.71017
440 1.62726
445 1.31111
450 1.35116
455 1.49925
460 1.8935
465 1.93869
470 1.38007
475 1.4789
480 1.27026
485 1.0718
490 1.73133
495 1.26076
500 2.12141
505 1.09084
510 0.916425
515 0.731951
520 1.26712
525 1.09725
530 2.15752
535 1.29339
540 1.24238
545 1.59627
550 2.11491
555 1.66549
560 1.48621
565 1.52533
570 1.14122
575 1.15127
580 0.973728
585 0.871908
590 0.750037
595 1.39917
600 1.67843
Ex : 283
200 0.75551
205 0.877427
210 1.35443
215 0.777202
220 1.01307
225 0.613234
230 0.682637
235 0.963264
240 0.693845
245 0.850029
250 0.993543
255 0.813637
260 0.658515
265 0.689879
270 0.809748
275 1.16175
280 0.949997
285 1.0751
290 0.544611
295 0.942562
300 0.751376
305 0.80968
310 1.15905
315 0.786265
320 0.807798
325 0.734344
330 1.11094
335 1.14877
340 1.00701
345 1.55421
350 1.26096
355 0.77287
360 0.984034
365 1.04015
370 0.872046
375 0.909497
380 1.24758
385 1.24691
390 1.02686
395 0.793692
400 1.29191
405 0.893259
410 1.25162
415 1.22134
420 1.00522
425 1.44989
430 1.49119
435 1.47155
440 1.23535
445 1.28459
450 1.27883
455 0.912073
460 0.941622
465 1.12031
470 1.4201
475 1.01442
480 1.25227
485 1.24533
490 0.842564
495 0.928601
500 1.33514
505 0.933915
510 0.824685
515 1.06158
520 0.887065
525 1.37814
530 0.937441
535 1.06663
540 0.768844
545 1.14882
550 0.976399
555 1.56969
560 1.88058
565 1.81838
570 1.20141
575 0.897649
580 0.725612
585 0.950092
590 0.848066
595 0.968516
600 2.64574
Ex : 288
200 1.0865
205 0.635598
210 0.6463
215 0.540913
220 0.701072
225 0.938484
230 0.878296
235 1.07331
240 1.09457
245 0.853491
250 0.756455
255 0.548336
260 0.55141
265 0.603142
270 0.812019
275 0.829614
280 1.24382
285 0.86931
290 0.657482
295 0.672213
300 0.520116
305 0.909337
310 0.761348
315 0.60014
320 0.313425
325 0.534639
330 0.90145
335 0.815829
340 0.669107
345 0.926939
350 1.17664
355 1.01389
360 0.954801
365 0.91721
370 0.879738
375 0.836622
380 1.17498
385 1.35663
390 0.832887
395 1.08433
400 1.11419
405 0.92189
410 1.05733
415 1.11179
420 1.29001
425 1.16392
430 1.12151
435 1.08729
440 1.22229
445 0.700873
450 0.966475
455 0.776705
460 0.997486
465 1.04586
470 0.946448
475 0.937843
480 1.05574
485 0.975659
490 0.748699
495 0.90825
500 0.807548
505 0.714324
510 0.705242
515 1.12905
520 0.833019
525 0.600236
530 0.943542
535 0.783342
540 0.720445
545 0.633606
550 0.709191
555 0.93735
560 1.03586
565 1.21065
570 1.68257
575 1.59631
580 1.09281
585 0.63513
590 0.792348
595 0.553386
600 0.0629732
Ex : 293
200 0.794132
205 0.497737
210 0.639054
215 0.711944
220 0.664267
225 0.445581
230 0.255042
235 0.589179
240 0.533586
245 0.556056
250 0.55315
255 0.708861
260 0.501033
265 0.695721
270 0.665557
275 0.75441
280 0.803231
285 0.857106
290 0.832134
295 0.768494
300 0.439707
305 0.511537
310 0.549951
315 0.586088
320 0.742298
325 0.593783
330 0.845305
335 0.842657
340 0.533204
345 0.79355
350 0.583279
355 0.689125
360 0.500612
365 0.750673
370 0.760415
375 0.768193
380 0.945376
385 0.958656
390 1.0157
395 0.996496
400 0.946766
405 0.785137
410 0.755869
415 1.2097
420 1.21947
425 1.01609
430 0.933112
435 1.07836
440 1.10472
445 0.986622
450 1.13771
455 0.93163
460 0.899571
465 0.949323
470 1.01542
475 0.766081
480 0.900009
485 0.612216
490 0.729117
495 0.611157
500 0.667013
505 0.568682
510 0.562286
515 0.85653
520 0.64286
525 0.762962
530 0.672526
535 0.731473
540 1.23054
545 0.856734
550 0.525545
555 0.839275
560 0.791334
565 0.876557
570 0.786546
575 1.45861
580 1.57618
585 1.37483
590 0.741638
595 0.561243
600 0.0638673
Ex : 298
200 0.62361
205 0.418219
210 0.600656
215 0.677713
220 0.595865
225 0.414799
230 0.473217
235 0.561508
240 0.480821
245 0.750964
250 0.540194
255 0.589949
260 0.67261
265 0.742824
270 0.50413
275 0.503908
280 0.564468
285 0.581994
290 0.655116
295 0.684874
300 0.70032
305 0.713027
310 0.589901
315 0.402355
320 0.577509
325 0.690028
330 0.821387
335 0.656862
340 0.80112
345 0.990895
350 0.703947
355 0.461879
360 0.924223
365 0.763101
370 1.0278
375 0.814643
380 0.828893
385 0.676764
390 0.945447
395 0.770497
400 0.775719
405 0.854034
410 0.85569
415 0.952287
420 0.985246
425 1.02658
430 1.10145
435 1.00964
440 0.940393
445 0.856759
450 1.10488
455 0.907675
460 0.794274
465 0.74145
470 0.754713
475 0.79477
480 0.688917
485 0.937769
490 0.589113
495 0.965161
500 0.811825
505 0.616816
510 0.549575
515 0.502556
520 0.38018
525 0.625449
530 0.435192
535 0.586395
540 0.599142
545 0.449894
550 0.482779
555 0.420962
560 0.440366
565 0.428323
570 0.525988
575 0.478767
580 0.386522
585 0.819125
590 1.57866
595 1.15232
600 0.607054
Ex : 303
200 0.360269
205 0.374454
210 0.408936
215 0.489637
220 0.316604
225 0.480299
230 0.431928
235 0.645356
240 0.647538
245 0.283773
250 0.436111
255 0.538949
260 0.467969
265 0.331238
270 0.35885
275 0.528615
280 0.482604
285 0.669066
290 0.490878
295 0.985466
300 0.661656
305 0.655172
310 0.41171
315 0.564053
320 0.333111
325 0.415507
330 0.511501
335 0.537081
340 0.574893
345 0.517324
350 0.617024
355 0.523575
360 0.816343
365 0.690741
370 0.646218
375 0.906622
380 0.804147
385 0.809344
390 1.13379
395 0.89651
400 1.02444
405 0.726283
410 0.882638
415 1.05085
420 0.874707
425 0.945932
430 0.748713
435 0.782447
440 0.757538
445 0.77083
450 0.759999
455 0.990843
460 0.825753
465 0.960234
470 0.601236
475 0.721287
480 0.737582
485 0.785261
490 0.653064
495 0.56549
500 0.898937
505 0.701618
510 0.568515
515 0.499405
520 0.591922
525 0.472297
530 0.495172
535 0.530224
540 0.604374
545 0.46433
550 0.589973
555 0.803301
560 0.473947
565 0.463211
570 0.277265
575 0.531984
580 0.563066
585 0.514402
590 0.601954
595 0.754711
600 0.0858832
Ex : 308
200 0.316819
205 0.407324
210 0.366869
215 0.298928
220 0.508843
225 0.480678
230 0.442062
235 0.35575
240 0.467403
245 0.391252
250 0.321021
255 0.512428
260 0.431264
265 0.479089
270 0.378768
275 0.304374
280 0.351977
285 0.306298
290 0.444846
295 0.361871
300 0.666372
305 0.801494
310 0.600384
315 0.569284
320 0.343904
325 0.452891
330 0.760264
335 0.344524
340 0.500561
345 0.759722
350 0.463518
355 0.567683
360 0.668054
365 0.641684
370 0.717131
375 0.973719
380 0.601603
385 0.746474
390 0.821331
395 0.82259
400 1.06849
405 0.768804
410 1.18664
415 0.706348
420 0.706763
425 1.02864
430 0.90548
435 0.844325
440 0.640666
445 0.679878
450 0.847362
455 0.866769
460 0.798806
465 0.736803
470 0.546071
475 0.729598
480 0.631642
485 0.701024
490 0.552573
495 0.588669
500 0.422655
505 0.394527
510 0.567521
515 0.380597
520 0.514382
525 0.41378
530 0.423907
535 0.354708
540 0.240992
545 0.307823
550 0.42256
555 0.34329
560 0.495113
565 0.354088
570 0.44413
575 0.357933
580 0.345207
585 0.378473
590 0.462028
595 0.339931
600 0.472357
Ex : 313
200 0.384793
205 0.430874
210 0.31414
215 0.322164
220 0.398334
225 0.439283
230 0.368326
235 0.408799
240 0.337612
245 0.506646
250 0.411512
255 0.393423
260 0.273769
265 0.329927
270 0.354395
275 0.345018
280 0.194691
285 0.422334
290 0.407758
295 0.411083
300 0.349791
305 0.848936
310 0.881692
315 0.398232
320 0.560054
325 0.39995
330 0.573514
335 0.575979
340 0.610523
345 0.557199
350 1.03709
355 0.834549
360 0.886139
365 0.944079
370 0.898068
375 1.13214
380 1.34266
385 1.21181
390 1.30754
395 1.39522
400 1.20673
405 1.72237
410 1.51501
415 1.54232
420 1.54609
425 1.46993
430 1.79943
435 1.37481
440 1.39621
445 1.54285
450 1.30797
455 1.37287
460 1.27022
465 0.959927
470 1.16699
475 0.941829
480 0.814788
485 0.789652
490 0.742225
495 0.81633
500 0.669754
505 0.704802
510 0.505901
515 0.554961
520 0.485561
525 0.470074
530 0.347064
535 0.383669
540 0.441279
545 0.452591
550 0.47269
555 0.309485
560 0.315949
565 0.388883
570 0.295611
575 0.45016
580 0.642371
585 0.462792
590 0.456965
595 0.488102
600 0.375859
Ex : 318
200 0.25
205 0.191848
210 0.369277
215 0.333197
220 0.269881
225 0.309595
230 0.262211
235 0.339226
240 0.272217
245 0.28693
250 0.298605
255 0.346812
260 0.466574
265 0.269973
270 0.239758
275 0.199158
280 0.258351
285 0.266305
290 0.320561
295 0.32011
300 0.287518
305 0.253406
310 0.922169
315 1.48904
320 0.7444
325 0.821595
330 1.01829
335 1.07595
340 1.78312
345 1.96935
350 2.95488
355 3.72971
360 4.64447
365 5.28196
370 6.64203
375 7.72077
380 9.34426
385 9.91223
390 10.7181
395 11.8116
400 12.2617
405 12.9335
410 12.2655
415 11.5855
420 12.4004
425 11.8948
430 12.2823
435 10.8968
440 10.8774
445 10.5821
450 9.49048
455 9.24352
460 8.906
465 8.08913
470 7.03382
475 6.55545
480 6.08321
485 5.64782
490 4.71344
495 4.16328
500 3.54368
505 3.20558
510 3.06565
515 2.49873
520 2.31111
525 2.01461
530 1.61235
535 1.95153
540 1.5302
545 1.15123
550 1.04912
555 0.894496
560 0.869189
565 0.717278
570 0.573599
575 0.652068
580 0.618526
585 0.532863
590 0.440866
595 0.257913
600 2.13758
Ex : 323
200 0.296127
205 0.259621
210 0.438216
215 0.392274
220 0.239101
225 0.293375
230 0.48019
235 0.273726
240 0.251214
245 0.284985
250 0.214684
255 0.353726
260 0.242272
265 0.358556
270 0.360498
275 0.291874
280 0.1791
285 0.329297
290 0.35007
295 0.210411
300 0.252351
305 0.230052
310 0.309748
315 5.83908
320 23.1979
325 9.68248
330 2.84694
335 3.5148
340 4.75296
345 6.40271
350 9.97197
355 13.6472
360 16.1622
365 18.7456
370 21.6807
375 25.2038
380 28.9683
385 32.4332
390 35.0465
395 37.0698
400 39.0005
405 39.1621
410 39.9446
415 39.6327
420 39.4303
425 38.2892
430 36.9413
435 36.924
440 35.6472
445 33.5425
450 32.8461
455 30.431
460 28.6177
465 26.3771
470 23.8175
475 22.3625
480 20.019
485 18.2058
490 16.2064
495 14.6142
500 12.6656
505 10.6134
510 9.8699
515 8.44351
520 7.30683
525 6.21742
530 5.30333
535 5.36387
540 4.37835
545 3.88892
550 3.25561
555 2.64769
560 2.51835
565 1.91827
570 1.63267
575 1.40694
580 1.19524
585 0.773865
590 0.73072
595 0.466682
600 1.13343
Ex : 328
200 0.288921
205 0.246725
210 0.318589
215 0.318704
220 0.301342
225 0.221282
230 0.194341
235 0.433853
240 0.355514
245 0.342135
250 0.257196
255 0.289189
260 0.322455
265 0.193138
270 0.240674
275 0.342718
280 0.328599
285 0.299247
290 0.243324
295 0.349608
300 0.332701
305 0.322244
310 0.288672
315 1.6262
320 49.1244
325 113.359
330 36.679
335 7.95223
340 6.41027
345 7.49655
350 9.35111
355 13.1811
360 18.2919
365 20.1477
370 22.4566
375 25.2291
380 28.8833
385 31.7267
390 33.0366
395 36.1289
400 37.913
405 39.2349
410 39.3404
415 40.2308
420 39.4109
425 38.1703
430 37.1082
435 36.0228
440 35.0335
445 33.7473
450 32.2904
455 30.7909
460 27.3925
465 26.1023
470 24.4526
475 22.8963
480 20.7992
485 18.721
490 17.5642
495 15.611
500 14.3482
505 12.9395
510 11.5089
515 9.4569
520 9.05404
525 7.57346
530 6.70423
535 5.93287
540 5.30733
545 4.55122
550 3.92639
555 3.59325
560 2.8373
565 2.71763
570 2.00506
575 1.59794
580 1.54686
585 1.09741
590 0.954114
595 0.626479
600 0.379536
Ex : 333
200 0.225739
205 0.278239
210 0.320437
215 0.399549
220 0.181637
225 0.255268
230 0.25487
235 0.249111
240 0.344221
245 0.182907
250 0.244478
255 0.277287
260 0.213109
265 0.342093
270 0.356755
275 0.273969
280 0.259531
285 0.278456
290 0.150344
295 0.237857
300 0.260769
305 0.288638
310 0.438819
315 0.341737
320 6.41135
325 130.547
330 221.519
335 58.5585
340 10.1582
345 5.7081
350 5.99511
355 7.06863
360 9.95303
365 14.2169
370 15.0608
375 15.3374
380 16.158
385 17.7023
390 18.7368
395 19.9702
400 20.6493
405 21.718
410 22.36
415 23.1695
420 23.3757
425 23.0261
430 22.4518
435 21.9523
440 22.4864
445 21.1495
450 20.8185
455 19.8275
460 18.7285
465 17.8692
470 17.8991
475 16.5619
480 15.4895
485 14.8111
490 13.0648
495 11.9437
500 11.346
505 10.272
510 8.97206
515 8.26241
520 7.54357
525 6.63135
530 6.09873
535 5.35087
540 4.71698
545 4.3404
550 3.85599
555 3.31631
560 3.04669
565 2.59166
570 2.47732
575 1.64341
580 1.44511
585 1.26948
590 0.899051
595 0.781239
600 1.18445
Ex : 338
200 0.239551
205 0.194721
210 0.184801
215 0.237726
220 0.180933
225 0.320353
230 0.224824
235 0.192381
240 0.1389
245 0.215662
250 0.232033
255 0.278794
260 0.324717
265 0.21108
270 0.221126
275 0.24633
280 0.197786
285 0.263053
290 0.253445
295 0.269525
300 0.216466
305 0.202151
310 0.268812
315 0.277175
320 0.407693
325 12.424
330 190.535
335 285.725
340 72.8139
345 11.4782
350 4.87825
355 4.48151
360 3.84654
365 5.9401
370 10.4819
375 11.4639
380 10.0025
385 9.81843
390 9.83854
395 10.8168
400 11.8093
405 12.8573
410 13.7462
415 14.4636
420 14.7355
425 14.5134
430 14.4759
435 15.4986
440 15.5118
445 15.2524
450 15.9191
455 15.5612
460 14.9649
465 14.5424
470 14.516
475 14.0896
480 13.653
485 13.2985
490 12.5512
495 11.7572
500 11.0816
505 10.1053
510 9.2454
515 8.5947
520 7.48672
525 7.00049
530 5.72579
535 5.72027
540 4.82391
545 4.47141
550 4.16113
555 3.40472
560 3.32655
565 2.59089
570 2.26048
575 1.84347
580 1.50155
585 1.04591
590 0.800764
595 0.939692
600 0.650299
Ex : 343
200 0.217502
205 0.152321
210 0.26015
215 0.306262
220 0.235118
225 0.19837
230 0.229279
235 0.126793
240 0.199966
245 0.221037
250 0.170326
255 0.224879
260 0.287898
265 0.246005
270 0.257395
275 0.318646
280 0.213643
285 0.194369
290 0.254058
295 0.232265
300 0.253641
305 0.275228
310 0.216583
315 0.216612
320 0.266316
325 0.537112
330 14.7551
335 215.568
340 315.667
345 77.698
350 11.3528
355 4.30365
360 3.29178
365 2.68227
370 3.93996
375 8.31023
380 9.90753
385 8.17541
390 7.07855
395 7.10204
400 8.31243
405 9.58676
410 11.8635
415 12.5476
420 12.9589
425 13.3292
430 14.048
435 14.9462
440 15.3576
445 15.9536
450 15.3402
455 15.1647
460 15.4897
465 15.4649
470 15.9051
475 14.8588
480 14.4213
485 13.9276
490 13.6175
495 12.9283
500 11.8644
505 11.0265
510 10.3219
515 9.38993
520 8.92953
525 8.19933
530 7.0362
535 6.43828
540 5.9025
545 5.49954
550 4.57142
555 4.11755
560 3.70003
565 3.17698
570 2.61048
575 2.2906
580 1.72063
585 1.35529
590 1.18079
595 0.862811
600 2.06299
Ex : 348
200 0.135965
205 0.204365
210 0.151085
215 0.177045
220 0.23108
225 0.265899
230 0.147866
235 0.186616
240 0.234211
245 0.146539
250 0.228917
255 0.210179
260 0.16875
265 0.220898
270 0.193691
275 0.18147
280 0.188904
285 0.25229
290 0.227168
295 0.25541
300 0.361424
305 0.333393
310 0.350663
315 0.207021
320 0.2425
325 0.366021
330 0.574031
335 14.2094
340 212.541
345 324.68
350 84.9837
355 11.886
360 3.66651
365 2.69992
370 2.3496
375 3.33858
380 6.32532
385 8.72775
390 8.11322
395 6.99768
400 7.21823
405 8.87275
410 11.4211
415 13.0182
420 13.4318
425 13.8094
430 14.9464
435 15.9971
440 17.0471
445 17.5498
450 17.6183
455 17.4509
460 17.6749
465 18.2293
470 17.7868
475 17.9887
480 17.4535
485 17.041
490 16.0627
495 15.5085
500 14.7854
505 13.887
510 12.4038
515 11.7825
520 10.5209
525 9.70423
530 8.75334
535 7.94117
540 7.30428
545 6.73087
550 5.643
555 5.25456
560 4.23064
565 3.87342
570 3.29889
575 2.47836
580 2.01473
585 1.64818
590 1.2277
595 1.06236
600 0.985214
Ex : 353
200 0.236089
205 0.247172
210 0.187883
215 0.150721
220 0.291964
225 0.194628
230 0.160705
235 0.324279
240 0.236476
245 0.123352
250 0.206947
255 0.164955
260 0.220143
265 0.242486
270 0.23417
275 0.222345
280 0.133935
285 0.189976
290 0.131335
295 0.226657
300 0.236978
305 0.22485
310 0.15464
315 0.183632
320 0.141007
325 0.234181
330 0.305355
335 0.49745
340 14.5064
345 220.332
350 320.095
355 79.9827
360 11.2383
365 3.4786
370 2.90332
375 2.65045
380 3.24158
385 5.74496
390 8.97
395 8.62457
400 8.0469
405 8.94467
410 11.0602
415 13.267
420 13.8856
425 13.8264
430 14.2269
435 15.9288
440 17.4002
445 17.7334
450 18.1724
455 18.8351
460 18.2315
465 19.2216
470 19.5435
475 19.7025
480 19.555
485 19.4161
490 19.3315
495 17.7797
500 17.096
505 16.2791
510 15.1634
515 13.788
520 11.9412
525 11.4036
530 10.7731
535 9.23386
540 8.41079
545 7.57268
550 6.73954
555 5.92885
560 5.13598
565 4.57654
570 3.75134
575 3.13415
580 2.43447
585 1.87375
590 1.36705
595 1.20307
600 1.68392
Ex : 358
200 0.131021
205 0.161149
210 0.182475
215 0.179721
220 0.186299
225 0.121491
230 0.15206
235 0.168445
240 0.209858
245 0.142424
250 0.174947
255 0.187834
260 0.211042
265 0.194819
270 0.140142
275 0.244199
280 0.220687
285 0.224772
290 0.288411
295 0.140564
300 0.185005
305 0.160147
310 0.308939
315 0.272644
320 0.179778
325 0.288315
330 0.317463
335 0.357365
340 0.458613
345 13.4936
350 210.809
355 319.504
360 80.7237
365 11.0165
370 3.44916
375 3.06841
380 3.04317
385 3.04051
390 4.97485
395 9.10174
400 10.043
405 10.6828
410 12.4478
415 14.092
420 14.5464
425 14.675
430 15.6182
435 17.1315
440 18.9851
445 19.5358
450 20.1149
455 20.1545
460 20.7741
465 21.8379
470 22.6922
475 22.6767
480 21.5039
485 20.9759
490 20.6959
495 19.3235
500 19.395
505 17.4974
510 16.4339
515 15.2167
520 13.968
525 12.3646
530 11.4988
535 10.6162
540 9.55092
545 8.54033
550 7.58434
555 6.63873
560 5.88594
565 5.11284
570 4.2376
575 3.1368
580 2.68033
585 2.02121
590 1.79794
595 1.31851
600 0.82169
Ex : 363
200 0.151508
205 0.0998053
210 0.159267
215 0.204549
220 0.161542
225 0.141842
230 0.108375
235 0.125778
240 0.206659
245 0.197465
250 0.242394
255 0.19407
260 0.180085
265 0.175749
270 0.170624
275 0.213175
280 0.163223
285 0.168915
290 0.173381
295 0.135463
300 0.215147
305 0.247877
310 0.195958
315 0.247709
320 0.211094
325 0.184787
330 0.337401
335 0.351976
340 0.381193
345 0.528488
350 12.3966
355 202.916
360 316.205
365 84.1962
370 11.3126
375 3.63483
380 3.41434
385 3.26134
390 3.20801
395 4.90742
400 9.70724
405 13.4366
410 15.0374
415 17.1401
420 16.7704
425 17.1374
430 18.0786
435 20.0747
440 22.0648
445 23.6462
450 22.9878
455 22.9406
460 23.5595
465 25.0884
470 25.514
475 26.2606
480 25.1918
485 24.4286
490 23.9896
495 22.8864
500 22.2479
505 20.6562
510 19.1004
515 17.3403
520 15.8219
525 13.9884
530 13.272
535 12.0752
540 10.5827
545 9.87691
550 8.71664
555 7.79875
560 6.61062
565 5.89041
570 4.91888
575 3.9247
580 2.94501
585 2.34845
590 1.64975
595 1.44149
600 1.12882
Ex : 368
200 0.168797
205 0.134449
210 0.107438
215 0.162673
220 0.139496
225 0.132332
230 0.11531
235 0.167104
240 0.168095
245 0.106372
250 0.129188
255 0.202461
260 0.214022
265 0.282631
270 0.144304
275 0.150605
280 0.164823
285 0.189206
290 0.245376
295 0.177737
300 0.11334
305 0.185497
310 0.184213
315 0.14592
320 0.172184
325 0.177102
330 0.194327
335 0.238049
340 0.314183
345 0.388503
350 0.517903
355 10.0632
360 192.002
365 318.91
370 86.7163
375 11.7557
380 3.49561
385 3.42185
390 3.46488
395 3.58596
400 5.22716
405 10.4818
410 15.8172
415 17.005
420 16.4586
425 16.1093
430 17.366
435 18.9715
440 21.711
445 22.6079
450 23.0859
455 23.4423
460 24.6491
465 25.9256
470 27.0815
475 27.8897
480 27.4096
485 27.3946
490 26.3239
495 25.9013
500 25.1827
505 24.0679
510 21.9121
515 20.5161
520 18.6686
525 17.0792
530 15.3756
535 13.798
540 12.6798
545 11.7231
550 10.0011
555 9.05009
560 7.52451
565 6.80224
570 5.50506
575 4.5314
580 3.50064
585 2.65331
590 2.12728
595 1.70612
600 1.78932
Ex : 373
200 0.127814
205 0.15435
210 0.132787
215 0.12629
220 0.121252
225 0.128568
230 0.165899
235 0.136533
240 0.112448
245 0.175805
250 0.121379
255 0.131122
260 0.108211
265 0.118655
270 0.107613
275 0.145283
280 0.153285
285 0.149795
290 0.12079
295 0.180081
300 0.210539
305 0.169944
310 0.21871
315 0.165818
320 0.168765
325 0.166921
330 0.175807
335 0.176221
340 0.228014
345 0.262757
350 0.289647
355 0.437584
360 11.8712
365 195.097
370 318.543
375 87.9738
380 12.2163
385 3.71885
390 3.26745
395 3.71778
400 4.12054
405 7.11645
410 12.3962
415 16.9206
420 16.0075
425 15.2883
430 15.2967
435 17.1752
440 18.9075
445 20.6167
450 21.0423
455 22.2252
460 23.4943
465 25.1467
470 26.8163
475 27.5958
480 28.2096
485 28.4235
490 27.9308
495 27.225
500 26.1312
505 25.0469
510 23.3968
515 21.7364
520 19.6709
525 18.216
530 16.3965
535 15.044
540 14.1313
545 12.4295
550 11.1432
555 9.88884
560 8.70787
565 7.55845
570 6.06398
575 4.88499
580 3.89034
585 2.9955
590 2.34037
595 1.75446
600 1.39277
Ex : 378
200 0.122822
205 0.128112
210 0.122811
215 0.130235
220 0.126583
225 0.151115
230 0.124639
235 0.13882
240 0.133556
245 0.119831
250 0.129182
255 0.126154
260 0.109473
265 0.177572
270 0.16369
275 0.153633
280 0.122246
285 0.142058
290 0.129424
295 0.108553
300 0.176127
305 0.16604
310 0.192208
315 0.202813
320 0.259453
325 0.209213
330 0.209106
335 0.222987
340 0.159866
345 0.176682
350 0.319414
355 0.437553
360 0.483784
365 11.5583
370 202.733
375 339.357
380 93.396
385 13.2469
390 4.21148
395 3.94623
400 5.21801
405 7.40666
410 10.652
415 14.6831
420 17.9715
425 17.7829
430 17.3661
435 18.5164
440 19.9568
445 21.0809
450 22.0959
455 22.4699
460 24.1817
465 26.2216
470 27.4409
475 27.9811
480 27.4979
485 27.0145
490 26.6783
495 26.2769
500 24.9175
505 24.1941
510 23.275
515 21.3339
520 18.757
525 17.7793
530 15.6958
535 14.6831
540 13.2686
545 11.8233
550 10.4671
555 9.50878
560 8.26419
565 7.05209
570 5.9018
575 4.69865
580 3.82019
585 2.78011
590 2.19759
595 1.73343
600 2.26016
Ex : 383
200 0.127391
205 0.114051
210 0.144879
215 0.124581
220 0.121588
225 0.103328
230 0.121348
235 0.14722
240 0.204906
245 0.138851
250 0.109223
255 0.134684
260 0.210504
265 0.183653
270 0.207213
275 0.11427
280 0.0936743
285 0.120975
290 0.0878893
295 0.0788605
300 0.0676137
305 0.135604
310 0.097338
315 0.139645
320 0.116003
325 0.166075
330 0.134602
335 0.162455
340 0.161924
345 0.213396
350 0.256009
355 0.273565
360 0.38317
365 0.56405
370 10.8229
375 202.294
380 347.196
385 95.8064
390 13.6307
395 4.68403
400 5.10082
405 8.14001
410 11.6786
415 14.389
420 16.047
425 18.4344
430 20.0656
435 21.737
440 22.8219
445 23.3365
450 23.6137
455 24.0003
460 25.4424
465 27.1562
470 28.0672
475 28.9669
480 28.8055
485 28.0585
490 28.0073
495 27.9867
500 26.3848
505 24.8896
510 23.3274
515 21.9595
520 19.5935
525 17.7565
530 16.2449
535 14.9076
540 13.3291
545 12.0033
550 10.6317
555 9.31726
560 8.26228
565 7.3695
570 5.75227
575 4.72048
580 3.67225
585 3.03007
590 2.18178
595 1.69708
600 1.26147
Ex : 388
200 0.166999
205 0.148958
210 0.0943553
215 0.134144
220 0.158451
225 0.129604
230 0.169444
235 0.1516
240 0.165705
245 0.21028
250 0.145878
255 0.0780132
260 0.11586
265 0.113301
270 0.124203
275 0.145162
280 0.140962
285 0.131506
290 0.206947
295 0.143318
300 0.141239
305 0.128102
310 0.165357
315 0.0840709
320 0.191714
325 0.185459
330 0.187932
335 0.16652
340 0.146465
345 0.151826
350 0.208926
355 0.197708
360 0.29148
365 0.349146
370 0.515428
375 11.9841
380 210.674
385 353.072
390 97.9417
395 13.8129
400 5.36449
405 7.54862
410 11.5078
415 13.9399
420 14.1485
425 14.8886
430 18.0059
435 21.7575
440 22.6592
445 23.1802
450 22.8506
455 23.5341
460 25.3032
465 26.8459
470 27.9461
475 28.4469
480 29.1944
485 28.6546
490 28.3954
495 27.4496
500 27.0123
505 25.7153
510 24.3975
515 21.8601
520 20.2185
525 18.6375
530 17.3666
535 15.4192
540 13.8532
545 12.678
550 11.1865
555 9.69377
560 8.55416
565 7.57994
570 5.98229
575 4.85845
580 3.85242
585 3.01899
590 2.16585
595 2.00487
600 1.92642
Ex : 393
200 0.0996116
205 0.112019
210 0.140316
215 0.166956
220 0.129746
225 0.217181
230 0.140604
235 0.105229
240 0.127164
245 0.133986
250 0.126187
255 0.180552
260 0.134251
265 0.185569
270 0.125521
275 0.13527
280 0.115531
285 0.141248
290 0.15555
295 0.15211
300 0.14724
305 0.146958
310 0.117044
315 0.160714
320 0.142791
325 0.141734
330 0.1107
335 0.137308
340 0.162215
345 0.189953
350 0.196783
355 0.169059
360 0.239157
365 0.238081
370 0.397669
375 0.484332
380 10.5585
385 217.316
390 371.649
395 102.616
400 14.9009
405 6.56883
410 9.00759
415 11.0492
420 11.2521
425 11.2818
430 12.3447
435 15.7464
440 19.531
445 20.2321
450 20.5056
455 21.2012
460 22.6492
465 25.0352
470 26.7996
475 27.1511
480 28.2015
485 28.0825
490 28.3214
495 27.6288
500 26.8416
505 26.0404
510 23.9071
515 22.6864
520 20.8644
525 18.7948
530 17.6279
535 15.9653
540 14.4839
545 12.8049
550 11.4558
555 10.2159
560 8.86494
565 7.80285
570 6.3492
575 5.20957
580 4.12061
585 3.23989
590 2.37173
595 1.87884
600 1.34815
Ex : 398
200 0.103852
205 0.0785183
210 0.129095
215 0.127504
220 0.132588
225 0.149584
230 0.11458
235 0.151998
240 0.137305
245 0.115454
250 0.151884
255 0.161465
260 0.143085
265 0.145454
270 0.131887
275 0.12378
280 0.141534
285 0.111407
290 0.11795
295 0.189541
300 0.0909898
305 0.0997163
310 0.121379
315 0.106144
320 0.133707
325 0.15068
330 0.114066
335 0.0905759
340 0.153614
345 0.14704
350 0.129288
355 0.163259
360 0.234699
365 0.245362
370 0.301322
375 0.28405
380 0.507786
385 10.6489
390 218.986
395 385.351
400 105.255
405 16.5107
410 9.35403
415 9.96888
420 10.7497
425 10.4193
430 11.1834
435 13.0695
440 16.185
445 19.8684
450 20.8033
455 21.0506
460 23.0971
465 25.0482
470 26.5368
475 27.6298
480 28.5998
485 28.46
490 28.5724
495 28.9845
500 27.5532
505 26.8604
510 24.828
515 23.2678
520 21.1725
525 19.6677
530 18.0403
535 16.4244
540 14.7521
545 13.3568
550 12.3595
555 10.5215
560 9.59336
565 8.07403
570 6.75472
575 5.30176
580 3.9908
585 3.02567
590 2.44515
595 1.90782
600 2.95185
Ex : 403
200 0.111275
205 0.132582
210 0.141469
215 0.143002
220 0.129594
225 0.173919
230 0.140621
235 0.134226
240 0.151501
245 0.11104
250 0.110184
255 0.180003
260 0.110798
265 0.115507
270 0.121563
275 0.145498
280 0.125554
285 0.138005
290 0.109893
295 0.11817
300 0.182541
305 0.112644
310 0.15853
315 0.102717
320 0.130161
325 0.0987588
330 0.125207
335 0.14865
340 0.160503
345 0.174606
350 0.125505
355 0.144731
360 0.217019
365 0.222773
370 0.207867
375 0.343741
380 0.281068
385 0.604614
390 12.1535
395 222.698
400 373.87
405 105.373
410 19.8192
415 11.5044
420 11.468
425 11.3546
430 11.8581
435 14.1256
440 16.2406
445 17.9301
450 21.4319
455 23.2308
460 23.9476
465 26.0693
470 27.6305
475 28.2247
480 28.7407
485 29.0279
490 29.8163
495 29.1082
500 28.7455
505 27.5462
510 25.972
515 23.7037
520 21.9382
525 19.8214
530 18.2226
535 17.0129
540 15.0552
545 13.7649
550 12.1123
555 10.9382
560 9.56138
565 8.19971
570 6.83905
575 5.5473
580 4.31613
585 3.39733
590 2.66814
595 1.98229
600 2.03453
Ex : 408
200 0.117137
205 0.104278
210 0.130012
215 0.0938508
220 0.134678
225 0.110023
230 0.113225
235 0.146234
240 0.173428
245 0.152328
250 0.13766
255 0.0824729
260 0.10308
265 0.140576
270 0.149
275 0.119085
280 0.102912
285 0.145202
290 0.206814
295 0.131107
300 0.115684
305 0.090779
310 0.116771
315 0.138863
320 0.162667
325 0.122087
330 0.141754
335 0.136924
340 0.132592
345 0.167188
350 0.152131
355 0.15033
360 0.172654
365 0.167251
370 0.218224
375 0.255027
380 0.288757
385 0.3904
390 0.585898
395 11.911
400 226.777
405 380.576
410 106.399
415 21.1993
420 11.5004
425 10.1778
430 11.3338
435 13.1481
440 15.0915
445 16.555
450 17.9001
455 21.3322
460 25.2167
465 26.2261
470 27.2296
475 28.7966
480 28.9051
485 28.8654
490 28.7705
495 28.8195
500 28.2251
505 26.9295
510 25.6014
515 24.0311
520 21.7113
525 20.2503
530 18.3251
535 16.6429
540 15.2809
545 13.8042
550 12.3719
555 10.5582
560 9.49829
565 8.19364
570 6.96051
575 5.54464
580 4.17266
585 3.13439
590 2.6128
595 2.02895
600 1.25273
Ex : 413
200 0.0856298
205 0.137404
210 0.111555
215 0.118968
220 0.115279
225 0.129696
230 0.127148
235 0.154531
240 0.145827
245 0.113994
250 0.110331
255 0.0911156
260 0.141395
265 0.118043
270 0.0934547
275 0.111714
280 0.12283
285 0.150903
290 0.16544
295 0.123687
300 0.178197
305 0.126492
310 0.132649
315 0.134
320 0.116487
325 0.137213
330 0.105133
335 0.126184
340 0.135299
345 0.155016
350 0.143264
355 0.127745
360 0.181311
365 0.152093
370 0.148808
375 0.209608
380 0.27055
385 0.246731
390 0.383957
395 0.71671
400 13.7603
405 239.444
410 391.461
415 105.709
420 18.326
425 8.20927
430 7.6109
435 9.15604
440 10.4031
445 12.1139
450 13.6394
455 16.0169
460 19.6152
465 23.7354
470 24.7639
475 25.5757
480 26.7331
485 26.7636
490 26.9732
495 27.0893
500 26.726
505 25.8801
510 24.551
515 22.702
520 21.0851
525 19.0517
530 17.6803
535 16.4333
540 14.7355
545 13.2009
550 12.3403
555 10.5695
560 9.41669
565 8.13998
570 6.82228
575 5.24924
580 4.03469
585 3.21867
590 2.53831
595 2.06631
600 1.23693
Ex : 418
200 0.144134
205 0.155763
210 0.0992614
215 0.128946
220 0.102998
225 0.100699
230 0.117495
235 0.0796445
240 0.126104
245 0.128128
250 0.143446
255 0.0966518
260 0.119718
265 0.143634
270 0.107604
275 0.0979635
280 0.156681
285 0.107433
290 0.0942827
295 0.103141
300 0.160956
305 0.107756
310 0.125496
315 0.117494
320 0.134226
325 0.078759
330 0.142129
335 0.134569
340 0.158006
345 0.184425
350 0.176034
355 0.204743
360 0.17017
365 0.204504
370 0.155925
375 0.19389
380 0.202432
385 0.253324
390 0.289782
395 0.361527
400 0.826974
405 13.556
410 239.252
415 401.474
420 109.565
425 15.9022
430 5.33389
435 4.87164
440 6.32984
445 7.36141
450 9.46675
455 11.6684
460 14.2397
465 16.9233
470 21.5861
475 23.414
480 23.8611
485 24.332
490 24.598
495 24.646
500 24.3299
505 23.909
510 22.6619
515 21.2368
520 19.8216
525 18.174
530 16.7573
535 15.1222
540 13.9962
545 12.6209
550 11.1029
555 10.1516
560 8.83436
565 7.64897
570 6.42821
575 5.03924
580 4.06012
585 3.05563
590 2.48233
595 1.86149
600 1.97555
Ex : 423
200 0.139164
205 0.140618
210 0.111804
215 0.119198
220 0.101787
225 0.1499
230 0.13309
235 0.102663
240 0.123223
245 0.141249
250 0.104104
255 0.121987
260 0.123843
265 0.148681
270 0.194354
275 0.100807
280 0.104797
285 0.0934548
290 0.139673
295 0.0846527
300 0.0952173
305 0.0984597
310 0.115813
315 0.143837
320 0.124391
325 0.131159
330 0.137574
335 0.098179
340 0.132889
345 0.117998
350 0.175242
355 0.141823
360 0.173289
365 0.137375
370 0.147371
375 0.156551
380 0.212431
385 0.175919
390 0.222132
395 0.282343
400 0.49505
405 0.841191
410 14.0341
415 260.886
420 408.604
425 104.103
430 14.1054
435 4.09784
440 3.88184
445 5.48264
450 7.15891
455 9.26765
460 11.5307
465 14.4825
470 16.4959
475 19.687
480 22.2732
485 22.0888
490 22.4477
495 22.5927
500 22.3631
505 21.2399
510 20.2164
515 19.3998
520 18.0316
525 16.6061
530 15.4433
535 14.2095
540 12.6775
545 11.3024
550 10.4398
555 9.28929
560 7.96838
565 6.87863
570 5.70313
575 4.55771
580 3.62459
585 2.79225
590 2.08883
595 1.74335
600 1.35972
Ex : 428
200 0.102705
205 0.122197
210 0.122313
215 0.14701
220 0.158465
225 0.118407
230 0.126592
235 0.120352
240 0.154439
245 0.114943
250 0.146578
255 0.109848
260 0.121086
265 0.171718
270 0.141069
275 0.129482
280 0.120112
285 0.136841
290 0.140481
295 0.123325
300 0.11792
305 0.112784
310 0.100284
315 0.0992652
320 0.138331
325 0.122468
330 0.101984
335 0.130933
340 0.118167
345 0.190929
350 0.176373
355 0.16413
360 0.160238
365 0.137463
370 0.186135
375 0.193103
380 0.213578
385 0.171733
390 0.234378
395 0.270528
400 0.303578
405 0.432689
410 0.720633
415 15.076
420 256.406
425 418.086
430 110.209
435 14.8008
440 4.33191
445 4.08614
450 6.09233
455 8.16129
460 10.4671
465 12.2346
470 14.2819
475 15.7954
480 18.5359
485 21.7429
490 21.1247
495 20.7284
500 20.0529
505 18.934
510 18.2164
515 17.1127
520 15.983
525 14.5516
530 13.9581
535 13.1005
540 11.4666
545 10.4639
550 9.45369
555 8.26822
560 7.19774
565 6.36502
570 5.26817
575 4.12754
580 3.20643
585 2.67653
590 1.98018
595 1.42592
600 1.19766
Ex : 433
200 0.149763
205 0.134294
210 0.12521
215 0.101077
220 0.146768
225 0.1666
230 0.141508
235 0.108362
240 0.174838
245 0.149567
250 0.119878
255 0.134729
260 0.0993862
265 0.113365
270 0.0992274
275 0.116033
280 0.113979
285 0.120899
290 0.136155
295 0.124169
300 0.137741
305 0.0978537
310 0.163929
315 0.100736
320 0.140131
325 0.148687
330 0.149869
335 0.1212
340 0.120638
345 0.168328
350 0.144259
355 0.148863
360 0.120085
365 0.140123
370 0.178755
375 0.148563
380 0.136223
385 0.191039
390 0.266619
395 0.221919
400 0.28406
405 0.292274
410 0.475284
415 0.659919
420 16.9883
425 282.17
430 430.957
435 109.879
440 15.0249
445 5.09366
450 5.14299
455 7.16834
460 9.61279
465 10.6956
470 12.3259
475 13.8236
480 14.7915
485 16.7936
490 19.0744
495 19.0126
500 18.0861
505 17.5701
510 16.1799
515 15.5596
520 14.1449
525 13.3733
530 12.1068
535 11.1178
540 10.4347
545 9.24883
550 8.29353
555 7.38225
560 6.3314
565 5.48617
570 4.74174
575 3.74885
580 2.97721
585 2.1955
590 1.7835
595 1.34464
600 1.75419
Ex : 438
200 0.120624
205 0.139733
210 0.116411
215 0.0833303
220 0.0890538
225 0.143702
230 0.12025
235 0.0974154
240 0.119635
245 0.149767
250 0.100879
255 0.0917074
260 0.115071
265 0.102547
270 0.1175
275 0.117211
280 0.109694
285 0.126921
290 0.137499
295 0.0927515
300 0.123917
305 0.0961428
310 0.146121
315 0.11489
320 0.163642
325 0.1665
330 0.118256
335 0.19132
340 0.108968
345 0.108087
350 0.129859
355 0.155705
360 0.133047
365 0.170316
370 0.17342
375 0.167695
380 0.175468
385 0.177085
390 0.179974
395 0.269382
400 0.18696
405 0.292359
410 0.35245
415 0.497759
420 0.715677
425 16.8546
430 283.906
435 467.23
440 118.772
445 16.6299
450 5.8988
455 5.95039
460 7.75412
465 9.35195
470 10.5307
475 11.3632
480 12.3656
485 13.6767
490 14.4179
495 16.1942
500 16.5464
505 14.8173
510 14.4104
515 13.3489
520 12.2535
525 11.4626
530 10.8011
535 9.65311
540 8.69365
545 7.79839
550 6.90245
555 6.26006
560 5.57899
565 4.80679
570 4.09564
575 3.3659
580 2.55029
585 1.90627
590 1.59183
595 1.28148
600 1.55194
Ex : 443
200 0.106718
205 0.142103
210 0.152653
215 0.109589
220 0.127077
225 0.100202
230 0.137292
235 0.142825
240 0.145835
245 0.109695
250 0.126642
255 0.129062
260 0.111557
265 0.121893
270 0.104819
275 0.134638
280 0.123112
285 0.103223
290 0.104892
295 0.0981545
300 0.112491
305 0.105396
310 0.16577
315 0.139031
320 0.142309
325 0.118596
330 0.112708
335 0.132515
340 0.146219
345 0.150579
350 0.108263
355 0.165084
360 0.155538
365 0.181923
370 0.216766
375 0.162039
380 0.131381
385 0.173455
390 0.190301
395 0.221734
400 0.233583
405 0.223889
410 0.226433
415 0.318171
420 0.42393
425 0.724513
430 18.638
435 311.549
440 480.802
445 120.993
450 17.3701
455 6.69036
460 6.06938
465 7.68036
470 8.73588
475 9.73521
480 10.0316
485 10.7182
490 11.2197
495 11.9252
500 13.1181
505 13.8909
510 12.2169
515 11.5364
520 10.4772
525 9.52507
530 8.66382
535 7.93165
540 7.1193
545 6.37325
550 5.88761
555 5.1085
560 4.55918
565 4.17755
570 3.50446
575 2.81706
580 2.14606
585 1.60404
590 1.28025
595 1.01105
600 1.30065
Ex : 448
200 0.147103
205 0.129103
210 0.113342
215 0.146252
220 0.11904
225 0.136026
230 0.138694
235 0.0980885
240 0.128403
245 0.157874
250 0.240163
255 0.152186
260 0.206963
265 0.126173
270 0.154983
275 0.120718
280 0.13208
285 0.0997176
290 0.208361
295 0.158995
300 0.0926095
305 0.111706
310 0.0963064
315 0.120483
320 0.139941
325 0.142792
330 0.10794
335 0.104683
340 0.127791
345 0.188163
350 0.161734
355 0.156225
360 0.152496
365 0.163721
370 0.191786
375 0.122261
380 0.184326
385 0.196371
390 0.210169
395 0.199431
400 0.189019
405 0.186972
410 0.20746
415 0.255576
420 0.393056
425 0.472453
430 0.784402
435 20.0693
440 332.392
445 508.361
450 127.019
455 18.1658
460 6.57113
465 5.73099
470 6.63918
475 7.61573
480 7.98867
485 8.25322
490 8.52256
495 8.99275
500 9.02604
505 9.56595
510 10.4567
515 9.88456
520 8.34914
525 7.44462
530 6.84073
535 6.05919
540 5.6655
545 5.33677
550 4.59218
555 4.09791
560 3.7169
565 3.24348
570 2.73362
575 2.12839
580 1.72187
585 1.32251
590 1.14456
595 0.85122
600 0.643608
Ex : 453
200 0.157271
205 0.126836
210 0.153042
215 0.144634
220 0.225861
225 0.148107
230 0.131792
235 0.125081
240 0.154147
245 0.120834
250 0.108988
255 0.132207
260 0.147086
265 0.0846676
270 0.114551
275 0.132093
280 0.146206
285 0.138236
290 0.112443
295 0.0988743
300 0.132067
305 0.104351
310 0.135054
315 0.122804
320 0.155762
325 0.15381
330 0.121275
335 0.125951
340 0.142315
345 0.143515
350 0.129951
355 0.127787
360 0.10421
365 0.159245
370 0.178354
375 0.181031
380 0.154122
385 0.146062
390 0.189168
395 0.162929
400 0.180523
405 0.162796
410 0.242602
415 0.253443
420 0.293092
425 0.370329
430 0.41414
435 0.713045
440 20.2704
445 353.632
450 516.251
455 123.877
460 17.6456
465 5.86545
470 4.85913
475 5.12145
480 5.83846
485 5.99723
490 6.13598
495 6.12209
500 5.94592
505 5.96081
510 6.65758
515 7.45636
520 7.5269
525 6.08993
530 5.56487
535 4.83147
540 4.41174
545 3.88204
550 3.39808
555 3.28916
560 2.84922
565 2.4947
570 2.07169
575 1.67142
580 1.45909
585 1.06051
590 0.873315
595 0.683277
600 0.711558
Ex : 458
200 0.180972
205 0.133305
210 0.134249
215 0.140233
220 0.107394
225 0.125837
230 0.110042
235 0.0886208
240 0.143414
245 0.131703
250 0.113989
255 0.158344
260 0.158746
265 0.128927
270 0.147265
275 0.148859
280 0.131799
285 0.138569
290 0.108332
295 0.120601
300 0.137325
305 0.140085
310 0.107977
315 0.132898
320 0.142617
325 0.150085
330 0.116205
335 0.1932
340 0.135564
345 0.116256
350 0.113244
355 0.152205
360 0.166306
365 0.16581
370 0.190564
375 0.170842
380 0.134694
385 0.183166
390 0.185018
395 0.199537
400 0.164658
405 0.149998
410 0.236001
415 0.210894
420 0.252104
425 0.268194
430 0.30158
435 0.553249
440 0.810793
445 22.5499
450 359.454
455 538.672
460 130.726
465 17.7905
470 5.07536
475 3.55921
480 3.78476
485 4.25975
490 4.46557
495 4.45219
500 4.28464
505 4.33176
510 4.04864
515 4.3645
520 5.02562
525 5.77947
530 4.85141
535 3.90936
540 3.68244
545 3.00397
550 2.84813
555 2.3267
560 2.1961
565 1.89636
570 1.68245
575 1.29947
580 1.10192
585 0.779679
590 0.686575
595 0.604451
600 0.304911
Ex : 463
200 0.116956
205 0.14889
210 0.146859
215 0.156622
220 0.170157
225 0.134453
230 0.109711
235 0.131256
240 0.150849
245 0.105492
250 0.152716
255 0.105973
260 0.149971
265 0.123793
270 0.124218
275 0.162196
280 0.137997
285 0.137637
290 0.125113
295 0.15701
300 0.169148
305 0.126258
310 0.0917897
315 0.146499
320 0.167194
325 0.0915479
330 0.133357
335 0.144295
340 0.112571
345 0.15164
350 0.210172
355 0.136064
360 0.116085
365 0.14586
370 0.165985
375 0.155783
380 0.14329
385 0.142878
390 0.138712
395 0.139444
400 0.16946
405 0.19524
410 0.19357
415 0.219165
420 0.174823
425 0.198662
430 0.236436
435 0.339895
440 0.537221
445 0.910459
450 21.8923
455 371.843
460 570.197
465 137.855
470 18.0911
475 4.38626
480 2.88479
485 2.88517
490 3.18571
495 3.30811
500 3.02493
505 3.04467
510 2.82895
515 2.93147
520 2.93576
525 3.77429
530 4.40932
535 4.04262
540 2.93888
545 2.74147
550 2.48824
555 2.25377
560 1.84404
565 1.57955
570 1.32932
575 0.945463
580 0.932762
585 0.765545
590 0.582271
595 0.466057
600 0.0993908
Ex : 468
200 0.11727
205 0.107601
210 0.111972
215 0.13206
220 0.116757
225 0.110626
230 0.12756
235 0.11978
240 0.100735
245 0.120147
250 0.158928
255 0.137919
260 0.137823
265 0.125371
270 0.105223
275 0.128961
280 0.1348
285 0.112659
290 0.131311
295 0.173612
300 0.151225
305 0.146784
310 0.0999217
315 0.15083
320 0.154719
325 0.130595
330 0.158381
335 0.119452
340 0.115358
345 0.117387
350 0.128045
355 0.196207
360 0.138802
365 0.156752
370 0.139507
375 0.126943
380 0.124071
385 0.133512
390 0.178653
395 0.163828
400 0.158206
405 0.165879
410 0.16645
415 0.172447
420 0.184368
425 0.227076
430 0.208096
435 0.2429
440 0.29277
445 0.51009
450 0.805028
455 23.8402
460 374.812
465 592.004
470 141.141
475 18.1621
480 3.97476
485 2.401
490 2.246
495 2.48614
500 2.56088
505 2.44525
510 2.18395
515 2.32566
520 2.27901
525 2.32783
530 2.514
535 3.5882
540 3.85443
545 2.69782
550 2.30578
555 2.22541
560 1.81228
565 1.40071
570 1.11823
575 0.907082
580 0.823343
585 0.651836
590 0.569782
595 0.544335
600 0.413495
Ex : 473
200 0.12783
205 0.12868
210 0.123463
215 0.124794
220 0.156031
225 0.176304
230 0.138414
235 0.110876
240 0.0922105
245 0.111136
250 0.132135
255 0.119504
260 0.0861952
265 0.132917
270 0.140413
275 0.114755
280 0.148089
285 0.115106
290 0.117391
295 0.161985
300 0.0911137
305 0.138362
310 0.136315
315 0.134957
320 0.131127
325 0.151769
330 0.117712
335 0.135188
340 0.168099
345 0.142547
350 0.117331
355 0.143912
360 0.135051
365 0.150895
370 0.126644
375 0.153775
380 0.143572
385 0.12559
390 0.108893
395 0.135853
400 0.157636
405 0.208899
410 0.156715
415 0.15202
420 0.208343
425 0.228003
430 0.231179
435 0.221106
440 0.277391
445 0.315808
450 0.54757
455 0.882047
460 27.111
465 402.737
470 566.999
475 130.734
480 16.6555
485 3.47676
490 1.93586
495 1.70022
500 2.2045
505 2.12121
510 1.98323
515 1.92411
520 1.84853
525 1.78763
530 1.83523
535 1.95738
540 2.95524
545 3.35012
550 2.55941
555 2.02532
560 1.93311
565 1.61238
570 1.16982
575 1.00742
580 0.835023
585 0.635596
590 0.61579
595 0.435117
600 0.208314
Ex : 478
200 0.158328
205 0.124886
210 0.103208
215 0.176819
220 0.158739
225 0.118878
230 0.142451
235 0.172652
240 0.150487
245 0.152655
250 0.155364
255 0.139283
260 0.126504
265 0.229514
270 0.216265
275 0.163989
280 0.164814
285 0.137357
290 0.116675
295 0.137923
300 0.130915
305 0.218784
310 0.156566
315 0.150259
320 0.167568
325 0.161189
330 0.137821
335 0.147093
340 0.165929
345 0.166969
350 0.157242
355 0.104021
360 0.164763
365 0.11786
370 0.157892
375 0.195884
380 0.176815
385 0.19673
390 0.143651
395 0.163748
400 0.156275
405 0.133261
410 0.2458
415 0.170585
420 0.208063
425 0.214645
430 0.187596
435 0.235751
440 0.264707
445 0.280536
450 0.46308
455 0.683502
460 0.960603
465 28.9479
470 415.666
475 578.994
480 138.656
485 17.4644
490 3.38313
495 1.77949
500 1.55216
505 1.79513
510 1.99108
515 1.79459
520 1.81505
525 1.60892
530 1.78786
535 1.76993
540 1.76301
545 2.24882
550 2.84736
555 2.55976
560 1.85733
565 1.79657
570 1.38919
575 0.971595
580 0.837129
585 0.59648
590 0.525456
595 0.509755
600 0.667666
Ex : 483
200 0.12722
205 0.140397
210 0.213646
215 0.111609
220 0.124707
225 0.170006
230 0.160813
235 0.130495
240 0.126529
245 0.113583
250 0.107706
255 0.163066
260 0.11283
265 0.105607
270 0.173362
275 0.180079
280 0.11759
285 0.136043
290 0.137585
295 0.149409
300 0.113986
305 0.165993
310 0.142818
315 0.110648
320 0.108274
325 0.203501
330 0.168265
335 0.172072
340 0.173832
345 0.156998
350 0.150979
355 0.23936
360 0.172546
365 0.132258
370 0.179713
375 0.162912
380 0.148394
385 0.207303
390 0.167872
395 0.144711
400 0.148879
405 0.182667
410 0.164661
415 0.175982
420 0.213259
425 0.186037
430 0.201537
435 0.164848
440 0.244939
445 0.327417
450 0.32405
455 0.458666
460 0.660385
465 0.989631
470 22.4014
475 399.346
480 609.782
485 145.096
490 18.1714
495 3.47124
500 1.7103
505 1.45831
510 1.51713
515 1.94803
520 1.81735
525 1.74922
530 1.66078
535 1.59877
540 1.49223
545 1.54162
550 1.81195
555 2.43178
560 2.81773
565 1.72925
570 1.35365
575 1.15814
580 0.992285
585 0.710649
590 0.575011
595 0.522978
600 0.191828
Ex : 488
200 0.202464
205 0.143462
210 0.191348
215 0.0984819
220 0.14378
225 0.214371
230 0.172398
235 0.163283
240 0.134294
245 0.180721
250 0.115185
255 0.158864
260 0.167801
265 0.284612
270 0.160675
275 0.162141
280 0.122134
285 0.138755
290 0.182327
295 0.146739
300 0.210643
305 0.144104
310 0.208119
315 0.154809
320 0.197361
325 0.192362
330 0.136647
335 0.145992
340 0.11967
345 0.197826
350 0.184371
355 0.167381
360 0.179595
365 0.166889
370 0.176092
375 0.180171
380 0.194474
385 0.208821
390 0.189921
395 0.214405
400 0.240874
405 0.184701
410 0.140331
415 0.195073
420 0.195948
425 0.232619
430 0.273466
435 0.295868
440 0.274868
445 0.342537
450 0.304194
455 0.381349
460 0.422777
465 0.656435
470 0.842257
475 26.4692
480 419.163
485 590.808
490 139.799
495 17.4339
500 3.31248
505 1.66535
510 1.44927
515 1.4241
520 1.82081
525 1.68298
530 1.53436
535 1.49193
540 1.46186
545 1.42956
550 1.42911
555 1.53361
560 2.06775
565 2.29836
570 1.89667
575 1.18541
580 0.997994
585 0.824337
590 0.509499
595 0.467464
600 0.492863
Ex : 493
200 0.178159
205 0.133892
210 0.177715
215 0.116913
220 0.100208
225 0.160934
230 0.146663
235 0.169331
240 0.215682
245 0.154144
250 0.135118
255 0.13713
260 0.130097
265 0.147541
270 0.138732
275 0.171303
280 0.159194
285 0.163636
290 0.174346
295 0.182949
300 0.130268
305 0.215265
310 0.114477
315 0.128104
320 0.163064
325 0.198848
330 0.124294
335 0.135119
340 0.16387
345 0.2579
350 0.238148
355 0.19865
360 0.169388
365 0.186563
370 0.218155
375 0.150029
380 0.144319
385 0.177058
390 0.138855
395 0.168467
400 0.15822
405 0.153323
410 0.164798
415 0.241867
420 0.237439
425 0.227603
430 0.210516
435 0.26073
440 0.206587
445 0.194815
450 0.263979
455 0.30977
460 0.432991
465 0.496849
470 0.679883
475 0.904572
480 24.1958
485 410.723
490 610.741
495 139.406
500 17.2862
505 3.20855
510 1.72596
515 1.43315
520 1.47066
525 1.59633
530 1.72489
535 1.58375
540 1.48713
545 1.42928
550 1.42419
555 1.24794
560 1.28033
565 1.50901
570 2.17988
575 1.69477
580 1.03074
585 0.843459
590 0.667979
595 0.679851
600 0.953536
Ex : 498
200 0.134085
205 0.142332
210 0.158211
215 0.147018
220 0.148923
225 0.180973
230 0.222344
235 0.214821
240 0.162564
245 0.139097
250 0.164602
255 0.197467
260 0.162769
265 0.127784
270 0.229919
275 0.173
280 0.162707
285 0.164687
290 0.168674
295 0.150896
300 0.183379
305 0.172317
310 0.186596
315 0.145234
320 0.176703
325 0.149597
330 0.180931
335 0.18025
340 0.179066
345 0.181104
350 0.180492
355 0.117719
360 0.21668
365 0.201076
370 0.210992
375 0.20665
380 0.189215
385 0.175518
390 0.172241
395 0.208954
400 0.258897
405 0.201466
410 0.179278
415 0.212439
420 0.279757
425 0.296646
430 0.290867
435 0.213987
440 0.18586
445 0.265108
450 0.205309
455 0.236537
460 0.33873
465 0.358792
470 0.447591
475 0.647784
480 0.858621
485 28.9453
490 427.289
495 590.375
500 138.382
505 17.1709
510 3.26114
515 1.68065
520 1.3656
525 1.35069
530 1.69534
535 1.46434
540 1.408
545 1.45261
550 1.35001
555 1.23157
560 1.17171
565 1.02419
570 1.08212
575 1.56345
580 1.48506
585 0.923758
590 0.672054
595 0.62099
600 0.517523
Ex : 503
200 0.188406
205 0.193922
210 0.214319
215 0.224115
220 0.161719
225 0.130489
230 0.129556
235 0.166021
240 0.159172
245 0.164804
250 0.163498
255 0.126215
260 0.140086
265 0.140891
270 0.225211
275 0.179951
280 0.241769
285 0.162127
290 0.20781
295 0.25751
300 0.226563
305 0.162938
310 0.159299
315 0.192025
320 0.200447
325 0.190537
330 0.261405
335 0.148223
340 0.208218
345 0.185893
350 0.198869
355 0.219501
360 0.198805
365 0.164108
370 0.146194
375 0.224552
380 0.207934
385 0.218425
390 0.161064
395 0.230046
400 0.213619
405 0.235855
410 0.238003
415 0.2365
420 0.139905
425 0.242208
430 0.257564
435 0.241563
440 0.243267
445 0.234414
450 0.255388
455 0.308571
460 0.330453
465 0.280408
470 0.419114
475 0.440092
480 0.568987
485 0.972532
490 28.0057
495 443.917
500 609.07
505 139.237
510 17.2849
515 3.2867
520 1.59501
525 1.2165
530 1.35651
535 1.42174
540 1.63549
545 1.39995
550 1.28744
555 1.27377
560 1.17272
565 1.25975
570 1.04737
575 0.927158
580 0.988504
585 1.27947
590 0.849452
595 0.610721
600 0.127801
Ex : 508
200 0.218832
205 0.19394
210 0.144005
215 0.189219
220 0.170899
225 0.137641
230 0.153054
235 0.232582
240 0.205972
245 0.172411
250 0.18859
255 0.169243
260 0.173147
265 0.154769
270 0.190921
275 0.193827
280 0.22029
285 0.20709
290 0.170874
295 0.140433
300 0.132035
305 0.157688
310 0.194399
315 0.13221
320 0.164165
325 0.223523
330 0.166545
335 0.217854
340 0.154896
345 0.237624
350 0.155267
355 0.152836
360 0.300856
365 0.151315
370 0.250943
375 0.169158
380 0.210284
385 0.169367
390 0.165098
395 0.131115
400 0.1459
405 0.161836
410 0.280548
415 0.213843
420 0.197764
425 0.198317
430 0.272459
435 0.232304
440 0.37107
445 0.209191
450 0.235077
455 0.23234
460 0.289291
465 0.347083
470 0.418449
475 0.339992
480 0.403349
485 0.673091
490 0.83476
495 27.6244
500 418.997
505 593.657
510 142.848
515 17.6216
520 3.18833
525 1.61824
530 1.28912
535 1.43336
540 1.42055
545 1.45884
550 1.39631
555 1.11517
560 1.12926
565 1.02957
570 0.933231
575 0.78647
580 0.734803
585 0.819406
590 0.947778
595 0.850121
600 0.717083
Ex : 513
200 0.11358
205 0.175576
210 0.220146
215 0.181191
220 0.151759
225 0.12925
230 0.177607
235 0.152662
240 0.223902
245 0.183615
250 0.158973
255 0.174822
260 0.255059
265 0.210412
270 0.207528
275 0.194265
280 0.122921
285 0.185995
290 0.144612
295 0.240772
300 0.214244
305 0.204992
310 0.167402
315 0.197881
320 0.184896
325 0.231993
330 0.242394
335 0.174597
340 0.193182
345 0.183047
350 0.136785
355 0.216233
360 0.183351
365 0.18574
370 0.194511
375 0.182443
380 0.150112
385 0.247759
390 0.15615
395 0.328334
400 0.235663
405 0.215793
410 0.173817
415 0.240221
420 0.21381
425 0.215765
430 0.197048
435 0.244653
440 0.293449
445 0.232702
450 0.235837
455 0.224085
460 0.287158
465 0.298388
470 0.306231
475 0.284466
480 0.432927
485 0.43412
490 0.673428
495 0.85274
500 25.245
505 406.346
510 596.624
515 144.824
520 17.9051
525 3.2741
530 1.53776
535 1.46612
540 1.27784
545 1.4703
550 1.5034
555 1.32404
560 1.10111
565 0.913619
570 0.928171
575 0.806843
580 0.68449
585 0.608046
590 0.542918
595 0.728771
600 0.424099
Ex : 518
200 0.144875
205 0.162943
210 0.215339
215 0.185417
220 0.159462
225 0.175804
230 0.123133
235 0.276614
240 0.192465
245 0.168407
250 0.145675
255 0.150888
260 0.162701
265 0.177643
270 0.167536
275 0.191762
280 0.230891
285 0.184171
290 0.229036
295 0.199711
300 0.216758
305 0.211268
310 0.14958
315 0.211163
320 0.188245
325 0.135111
330 0.192157
335 0.15529
340 0.144729
345 0.143734
350 0.145134
355 0.215324
360 0.264413
365 0.228414
370 0.249526
375 0.219521
380 0.173581
385 0.272037
390 0.270203
395 0.284818
400 0.259622
405 0.182527
410 0.248037
415 0.269335
420 0.222843
425 0.231147
430 0.224965
435 0.298374
440 0.173528
445 0.199158
450 0.228197
455 0.280428
460 0.240942
465 0.31514
470 0.324882
475 0.298845
480 0.392849
485 0.331879
490 0.468416
495 0.704329
500 0.897008
505 25.521
510 395.774
515 584.149
520 143.251
525 17.7717
530 3.19118
535 1.53981
540 1.44482
545 1.48294
550 1.30501
555 1.32865
560 1.22317
565 1.19875
570 0.917874
575 0.843455
580 0.645982
585 0.579336
590 0.620402
595 0.435848
600 0.139939
Ex : 523
200 0.154656
205 0.163397
210 0.211242
215 0.154019
220 0.137511
225 0.183784
230 0.177013
235 0.214587
240 0.255937
245 0.164232
250 0.184067
255 0.131309
260 0.196662
265 0.213083
270 0.194849
275 0.196832
280 0.274976
285 0.189676
290 0.23908
295 0.180691
300 0.18914
305 0.172461
310 0.194139
315 0.292071
320 0.169023
325 0.186132
330 0.208494
335 0.279963
340 0.202283
345 0.1994
350 0.246453
355 0.180854
360 0.210619
365 0.199079
370 0.28275
375 0.240669
380 0.192931
385 0.166079
390 0.208341
395 0.17558
400 0.181996
405 0.245252
410 0.193631
415 0.191927
420 0.281293
425 0.204283
430 0.194732
435 0.248032
440 0.248385
445 0.227253
450 0.201734
455 0.278658
460 0.358641
465 0.436008
470 0.301112
475 0.310366
480 0.254548
485 0.318402
490 0.465468
495 0.491487
500 0.633606
505 0.857817
510 23.1859
515 372.075
520 568.186
525 145.518
530 17.9778
535 3.29996
540 1.50932
545 1.49745
550 1.37287
555 1.48309
560 1.24113
565 1.15573
570 1.08053
575 0.756955
580 0.678012
585 0.518397
590 0.556999
595 0.479176
600 0.0545285
Ex : 528
200 0.203849
205 0.237687
210 0.179359
215 0.167522
220 0.193725
225 0.126253
230 0.171778
235 0.152832
240 0.233835
245 0.20723
250 0.247805
255 0.26656
260 0.135042
265 0.196994
270 0.178845
275 0.228399
280 0.125585
285 0.241837
290 0.216387
295 0.22074
300 0.241112
305 0.167556
310 0.267735
315 0.269603
320 0.195032
325 0.218393
330 0.204469
335 0.215091
340 0.214978
345 0.214388
350 0.175039
355 0.199081
360 0.187833
365 0.163684
370 0.209225
375 0.185147
380 0.256589
385 0.241275
390 0.261952
395 0.238041
400 0.20134
405 0.232817
410 0.21756
415 0.209235
420 0.269298
425 0.294024
430 0.249461
435 0.259677
440 0.289064
445 0.247819
450 0.23355
455 0.257187
460 0.270838
465 0.251077
470 0.272325
475 0.185739
480 0.321425
485 0.38318
490 0.335532
495 0.361028
500 0.412678
505 0.709245
510 0.886619
515 20.6271
520 357.704
525 560.231
530 142.81
535 17.795
540 3.2684
545 1.59226
550 1.437
555 1.14628
560 1.3098
565 1.28666
570 1.08472
575 0.873022
580 0.654394
585 0.493706
590 0.477909
595 0.581955
600 0.419321
Ex : 533
200 0.304315
205 0.270171
210 0.190186
215 0.178612
220 0.196885
225 0.220049
230 0.199346
235 0.256521
240 0.232748
245 0.216606
250 0.247591
255 0.194018
260 0.199001
265 0.205445
270 0.247681
275 0.21318
280 0.130272
285 0.15545
290 0.197568
295 0.218927
300 0.232838
305 0.250165
310 0.154436
315 0.167291
320 0.136322
325 0.299485
330 0.349045
335 0.258565
340 0.191142
345 0.198444
350 0.182348
355 0.213927
360 0.215252
365 0.191342
370 0.130558
375 0.1729
380 0.265875
385 0.205974
390 0.232569
395 0.183083
400 0.253333
405 0.227607
410 0.195044
415 0.209317
420 0.16763
425 0.216375
430 0.223829
435 0.259485
440 0.22195
445 0.281035
450 0.191532
455 0.259093
460 0.238884
465 0.356794
470 0.265342
475 0.282941
480 0.357832
485 0.272815
490 0.332894
495 0.35328
500 0.32344
505 0.50274
510 0.50951
515 0.879181
520 20.8449
525 351.227
530 552.367
535 143.922
540 18.0121
545 3.48225
550 1.73087
555 1.43713
560 1.14525
565 1.03784
570 0.923763
575 0.968913
580 0.794087
585 0.669801
590 0.450532
595 0.433763
600 0.282572
Ex : 538
200 0.209476
205 0.220329
210 0.226615
215 0.260183
220 0.228801
225 0.221644
230 0.227661
235 0.205363
240 0.207369
245 0.211798
250 0.2428
255 0.183447
260 0.207148
265 0.289751
270 0.204845
275 0.191674
280 0.181494
285 0.167887
290 0.18835
295 0.186857
300 0.172808
305 0.157537
310 0.214432
315 0.259006
320 0.196353
325 0.171745
330 0.21799
335 0.269997
340 0.25814
345 0.169265
350 0.338314
355 0.212114
360 0.299645
365 0.253253
370 0.238309
375 0.168018
380 0.218745
385 0.193626
390 0.223561
395 0.205755
400 0.253514
405 0.189259
410 0.312571
415 0.287194
420 0.269805
425 0.298302
430 0.253924
435 0.215508
440 0.234762
445 0.246356
450 0.259483
455 0.302188
460 0.235331
465 0.222969
470 0.246425
475 0.387371
480 0.267187
485 0.33639
490 0.317509
495 0.366219
500 0.339616
505 0.396042
510 0.415041
515 0.598386
520 0.984913
525 17.9979
530 325.088
535 536.609
540 145.441
545 18.0586
550 3.31106
555 1.40566
560 1.20118
565 0.987656
570 0.733903
575 0.660587
580 0.759461
585 0.646304
590 0.476132
595 0.438763
600 0.261634
Ex : 543
200 0.182307
205 0.195463
210 0.16667
215 0.167248
220 0.167215
225 0.179094
230 0.364231
235 0.220813
240 0.210735
245 0.231807
250 0.258853
255 0.239267
260 0.323873
265 0.229565
270 0.19547
275 0.288718
280 0.240492
285 0.173227
290 0.215966
295 0.176768
300 0.272784
305 0.324123
310 0.240114
315 0.252683
320 0.355009
325 0.219227
330 0.224604
335 0.17524
340 0.189363
345 0.239397
350 0.195515
355 0.229738
360 0.233887
365 0.18941
370 0.217618
375 0.212407
380 0.135201
385 0.156104
390 0.184709
395 0.217031
400 0.260472
405 0.276454
410 0.228661
415 0.217321
420 0.267296
425 0.303466
430 0.227239
435 0.289101
440 0.278592
445 0.281503
450 0.29634
455 0.267156
460 0.288642
465 0.303035
470 0.243215
475 0.256608
480 0.241096
485 0.268081
490 0.248618
495 0.281031
500 0.303761
505 0.332858
510 0.341626
515 0.519732
520 0.564603
525 0.732452
530 15.9029
535 326.432
540 553.245
545 148.491
550 18.5101
555 3.19855
560 1.39372
565 0.948323
570 0.708599
575 0.690073
580 0.625829
585 0.578169
590 0.531564
595 0.419506
600 0.567578
Ex : 548
200 0.18384
205 0.169527
210 0.243254
215 0.28945
220 0.172379
225 0.112272
230 0.183138
235 0.199988
240 0.327236
245 0.211747
250 0.262043
255 0.191296
260 0.264822
265 0.184698
270 0.166645
275 0.328974
280 0.210003
285 0.211768
290 0.143618
295 0.175213
300 0.205073
305 0.32963
310 0.203311
315 0.200549
320 0.248919
325 0.248395
330 0.240068
335 0.277835
340 0.214535
345 0.337955
350 0.291554
355 0.270798
360 0.273398
365 0.220352
370 0.234277
375 0.263525
380 0.272894
385 0.381529
390 0.252451
395 0.166598
400 0.213217
405 0.197462
410 0.167182
415 0.209349
420 0.172903
425 0.285771
430 0.15293
435 0.249633
440 0.230587
445 0.184278
450 0.238546
455 0.240827
460 0.24225
465 0.24475
470 0.354621
475 0.261843
480 0.301353
485 0.314609
490 0.281429
495 0.321234
500 0.371732
505 0.345097
510 0.362998
515 0.406572
520 0.515976
525 0.685435
530 0.715842
535 16.7053
540 314.737
545 524.641
550 145.211
555 17.9621
560 2.79476
565 0.969606
570 0.813746
575 0.691713
580 0.501373
585 0.423985
590 0.487002
595 0.438478
600 0.796174
Ex : 553
200 0.181521
205 0.188515
210 0.220152
215 0.212846
220 0.221495
225 0.327722
230 0.261432
235 0.178301
240 0.19106
245 0.180111
250 0.244933
255 0.199449
260 0.198715
265 0.219178
270 0.224909
275 0.26352
280 0.287898
285 0.160891
290 0.17272
295 0.23911
300 0.201999
305 0.2055
310 0.229138
315 0.262617
320 0.172767
325 0.235941
330 0.25019
335 0.286292
340 0.218306
345 0.262927
350 0.276582
355 0.239399
360 0.232485
365 0.249506
370 0.215762
375 0.298098
380 0.201116
385 0.229968
390 0.248831
395 0.192236
400 0.174499
405 0.247499
410 0.288947
415 0.179629
420 0.242119
425 0.227928
430 0.332666
435 0.291676
440 0.296671
445 0.237408
450 0.235077
455 0.269228
460 0.231218
465 0.304361
470 0.364012
475 0.272805
480 0.311157
485 0.28313
490 0.20595
495 0.316376
500 0.337335
505 0.262415
510 0.342833
515 0.381346
520 0.295834
525 0.441987
530 0.558856
535 0.685999
540 15.009
545 295.685
550 517.738
555 147.059
560 18.0845
565 2.92499
570 0.960188
575 0.67638
580 0.530388
585 0.441302
590 0.498209
595 0.452262
600 0.0514657
Ex : 558
200 0.231965
205 0.158545
210 0.276408
215 0.249985
220 0.176017
225 0.2281
230 0.244333
235 0.219106
240 0.213255
245 0.216943
250 0.182626
255 0.282345
260 0.159633
265 0.249406
270 0.250985
275 0.261938
280 0.282336
285 0.207869
290 0.218864
295 0.166515
300 0.434349
305 0.258886
310 0.154261
315 0.280853
320 0.268229
325 0.2592
330 0.244938
335 0.342702
340 0.230376
345 0.289081
350 0.227709
355 0.315122
360 0.235429
365 0.261259
370 0.252624
375 0.308072
380 0.269109
385 0.275143
390 0.221913
395 0.19615
400 0.155376
405 0.188397
410 0.201719
415 0.226909
420 0.243462
425 0.267404
430 0.281406
435 0.269588
440 0.287332
445 0.312247
450 0.292327
455 0.304935
460 0.249839
465 0.275572
470 0.247814
475 0.302237
480 0.242912
485 0.321078
490 0.300853
495 0.253718
500 0.337037
505 0.22845
510 0.288206
515 0.30279
520 0.322515
525 0.401393
530 0.565031
535 0.626936
540 0.733974
545 14.1794
550 279.795
555 493.221
560 141.329
565 17.4001
570 2.65032
575 0.79755
580 0.636295
585 0.425074
590 0.333543
595 0.357767
600 0.402759
Ex : 563
200 0.19752
205 0.209246
210 0.290416
215 0.218195
220 0.355768
225 0.220238
230 0.2541
235 0.239716
240 0.191726
245 0.187947
250 0.255334
255 0.262388
260 0.237239
265 0.176957
270 0.285635
275 0.212171
280 0.242594
285 0.175374
290 0.214675
295 0.212244
300 0.148256
305 0.222047
310 0.196592
315 0.188088
320 0.262837
325 0.278069
330 0.301434
335 0.247402
340 0.312725
345 0.276097
350 0.248244
355 0.239372
360 0.365852
365 0.225858
370 0.216732
375 0.245978
380 0.192208
385 0.285051
390 0.274794
395 0.244013
400 0.292504
405 0.265957
410 0.258579
415 0.332124
420 0.221073
425 0.288711
430 0.302461
435 0.27854
440 0.301241
445 0.236207
450 0.285367
455 0.29905
460 0.393438
465 0.343413
470 0.287741
475 0.291011
480 0.31649
485 0.235733
490 0.244637
495 0.290237
500 0.31678
505 0.29954
510 0.315154
515 0.340246
520 0.351177
525 0.376555
530 0.365504
535 0.460961
540 0.567021
545 0.709197
550 13.8218
555 266.317
560 467.054
565 135.06
570 16.4973
575 2.51178
580 0.653719
585 0.540053
590 0.407044
595 0.431685
600 0.0491241
Ex : 568
200 0.307057
205 0.207386
210 0.133124
215 0.305003
220 0.296316
225 0.184741
230 0.225488
235 0.326564
240 0.31287
245 0.241431
250 0.220467
255 0.253916
260 0.282472
265 0.200688
270 0.342536
275 0.297235
280 0.282891
285 0.312009
290 0.180682
295 0.259309
300 0.190535
305 0.320854
310 0.256296
315 0.289789
320 0.274593
325 0.271302
330 0.294953
335 0.285911
340 0.225521
345 0.243008
350 0.310185
355 0.236524
360 0.285932
365 0.207921
370 0.242356
375 0.298321
380 0.298989
385 0.280199
390 0.226719
395 0.228963
400 0.291708
405 0.254677
410 0.262266
415 0.248221
420 0.507755
425 0.228178
430 0.203656
435 0.224072
440 0.321921
445 0.37189
450 0.270189
455 0.294299
460 0.291548
465 0.291205
470 0.361589
475 0.313515
480 0.322181
485 0.315462
490 0.292949
495 0.260079
500 0.361766
505 0.268378
510 0.305406
515 0.215979
520 0.370474
525 0.22608
530 0.333953
535 0.416074
540 0.446902
545 0.5059
550 0.576164
555 10.2762
560 236.51
565 449.852
570 137.438
575 16.6851
580 2.37694
585 0.659062
590 0.472282
595 0.38834
600 1.047
Ex : 573
200 0.28113
205 0.204906
210 0.262952
215 0.265117
220 0.341966
225 0.223976
230 0.2985
235 0.302606
240 0.336013
245 0.182665
250 0.179632
255 0.214837
260 0.253274
265 0.23263
270 0.287626
275 0.237107
280 0.248855
285 0.172993
290 0.2212
295 0.224725
300 0.271932
305 0.338652
310 0.28932
315 0.255942
320 0.260646
325 0.212628
330 0.217482
335 0.21082
340 0.254888
345 0.165608
350 0.259562
355 0.215035
360 0.248132
365 0.190055
370 0.316696
375 0.312737
380 0.316255
385 0.305436
390 0.420026
395 0.222329
400 0.370745
405 0.306574
410 0.178275
415 0.202505
420 0.277823
425 0.297748
430 0.245083
435 0.330099
440 0.276685
445 0.249346
450 0.199111
455 0.212579
460 0.304951
465 0.343407
470 0.277319
475 0.305501
480 0.413038
485 0.267732
490 0.304135
495 0.264842
500 0.355961
505 0.313648
510 0.298904
515 0.294974
520 0.299629
525 0.383064
530 0.312858
535 0.394372
540 0.405691
545 0.354268
550 0.513509
555 0.724992
560 8.86396
565 205.277
570 412.961
575 130.18
580 15.7773
585 2.20179
590 0.677124
595 0.3615
600 1.11767
Ex : 578
200 0.351903
205 0.250625
210 0.285657
215 0.171939
220 0.221976
225 0.224171
230 0.234358
235 0.139488
240 0.215121
245 0.392106
250 0.20094
255 0.170102
260 0.17314
265 0.296135
270 0.236969
275 0.249692
280 0.291725
285 0.215664
290 0.236118
295 0.22331
300 0.194374
305 0.269713
310 0.384968
315 0.223846
320 0.195925
325 0.115052
330 0.200491
335 0.171932
340 0.254036
345 0.288043
350 0.278408
355 0.388903
360 0.321489
365 0.298917
370 0.262289
375 0.25347
380 0.259733
385 0.435122
390 0.287118
395 0.272506
400 0.265468
405 0.221386
410 0.294627
415 0.318601
420 0.246884
425 0.299775
430 0.245198
435 0.342556
440 0.342114
445 0.268518
450 0.199737
455 0.246015
460 0.172142
465 0.35787
470 0.315239
475 0.314874
480 0.281582
485 0.252345
490 0.357163
495 0.400429
500 0.290073
505 0.315177
510 0.276132
515 0.288343
520 0.299975
525 0.403424
530 0.311799
535 0.233008
540 0.352895
545 0.439267
550 0.37743
555 0.383775
560 0.663795
565 8.27504
570 188.603
575 361.139
580 111.658
585 13.6278
590 1.96818
595 0.708972
600 0.0806784
Ex : 583
200 0.204915
205 0.310143
210 0.159718
215 0.271311
220 0.20545
225 0.213323
230 0.235799
235 0.278826
240 0.225823
245 0.198335
250 0.205108
255 0.177167
260 0.132582
265 0.24983
270 0.169003
275 0.195718
280 0.185706
285 0.240305
290 0.229243
295 0.255238
300 0.217618
305 0.273428
310 0.232429
315 0.225625
320 0.274259
325 0.399581
330 0.346512
335 0.33332
340 0.203307
345 0.205465
350 0.203436
355 0.230793
360 0.305886
365 0.23582
370 0.362705
375 0.264755
380 0.293508
385 0.318111
390 0.355819
395 0.354824
400 0.288727
405 0.213488
410 0.374985
415 0.275541
420 0.240487
425 0.195568
430 0.234638
435 0.247114
440 0.372151
445 0.319005
450 0.267406
455 0.385456
460 0.36121
465 0.299909
470 0.258889
475 0.301896
480 0.398204
485 0.253281
490 0.269035
495 0.295156
500 0.325023
505 0.294945
510 0.319504
515 0.238112
520 0.214344
525 0.203972
530 0.367872
535 0.334184
540 0.328876
545 0.290258
550 0.341868
555 0.375661
560 0.359401
565 0.687694
570 6.53886
575 165.421
580 311.145
585 91.5089
590 11.3002
595 1.79455
600 0.204213
Ex : 588
200 0.284516
205 0.242917
210 0.251771
215 0.185361
220 0.287001
225 0.17854
230 0.200129
235 0.234405
240 0.261189
245 0.276488
250 0.222453
255 0.267049
260 0.224207
265 0.217923
270 0.303284
275 0.226217
280 0.181728
285 0.277024
290 0.303613
295 0.194559
300 0.209217
305 0.297256
310 0.268396
315 0.204345
320 0.303536
325 0.202349
330 0.246817
335 0.266277
340 0.281429
345 0.282664
350 0.218637
355 0.254092
360 0.441665
365 0.263173
370 0.372455
375 0.262842
380 0.331279
385 0.224638
390 0.230888
395 0.37411
400 0.227458
405 0.360297
410 0.249886
415 0.277471
420 0.2784
425 0.249037
430 0.314282
435 0.30849
440 0.260019
445 0.292623
450 0.239393
455 0.350222
460 0.316802
465 0.308119
470 0.354809
475 0.324073
480 0.294239
485 0.275617
490 0.365154
495 0.27229
500 0.34964
505 0.254374
510 0.264091
515 0.342444
520 0.246751
525 0.296071
530 0.281121
535 0.230852
540 0.277053
545 0.301588
550 0.467399
555 0.328071
560 0.397666
565 0.399423
570 0.499305
575 5.89247
580 134.715
585 263.844
590 79.1209
595 9.67487
600 1.18032
Ex : 593
200 0.220227
205 0.24954
210 0.288436
215 0.26049
220 0.290368
225 0.351952
230 0.345593
235 0.337867
240 0.215917
245 0.179571
250 0.218132
255 0.32371
260 0.245241
265 0.224824
270 0.125783
275 0.346436
280 0.243692
285 0.294081
290 0.211391
295 0.274264
300 0.325802
305 0.28582
310 0.326513
315 0.2237
320 0.241877
325 0.166106
330 0.355452
335 0.3657
340 0.331276
345 0.294145
350 0.280311
355 0.219985
360 0.243978
365 0.27708
370 0.294877
375 0.490135
380 0.353617
385 0.298113
390 0.1948
395 0.295762
400 0.208385
405 0.243151
410 0.249059
415 0.301675
420 0.218873
425 0.324681
430 0.240298
435 0.275749
440 0.343234
445 0.238516
450 0.285093
455 0.331595
460 0.292008
465 0.261405
470 0.291346
475 0.205435
480 0.451223
485 0.297116
490 0.263808
495 0.284104
500 0.512729
505 0.263956
510 0.322348
515 0.249646
520 0.304938
525 0.310105
530 0.317263
535 0.259121
540 0.365971
545 0.263564
550 0.357908
555 0.423341
560 0.262237
565 0.440502
570 0.380496
575 0.514416
580 4.74466
585 123.152
590 237.888
595 70.8512
600 9.97816
Ex : 598
200 0.217799
205 0.294848
210 0.273405
215 0.294082
220 0.217427
225 0.182248
230 0.229227
235 0.2264
240 0.230272
245 0.256433
250 0.263714
255 0.271608
260 0.292523
265 0.288459
270 0.353817
275 0.304323
280 0.233778
285 0.244273
290 0.154519
295 0.221762
300 0.20714
305 0.322827
310 0.206656
315 0.300882
320 0.22186
325 0.266065
330 0.345834
335 0.412224
340 0.319429
345 0.421218
350 0.270679
355 0.26693
360 0.271433
365 0.286165
370 0.360921
375 0.328758
380 0.323739
385 0.344945
390 0.317965
395 0.303275
400 0.202476
405 0.243007
410 0.16143
415 0.314674
420 0.348687
425 0.334681
430 0.275107
435 0.196881
440 0.201964
445 0.343688
450 0.29654
455 0.283317
460 0.192658
465 0.380658
470 0.232607
475 0.385497
480 0.335558
485 0.288998
490 0.30464
495 0.265049
500 0.212078
505 0.274374
510 0.192413
515 0.252561
520 0.229826
525 0.243291
530 0.342156
535 0.274323
540 0.386348
545 0.244174
550 0.309388
555 0.194891
560 0.344029
565 0.429503
570 0.519858
575 0.519453
580 0.407202
585 4.42438
590 107.921
595 203.983
600 144.048
Ex : 603
200 0.288119
205 0.257554
210 0.262015
215 0.284415
220 0.263188
225 0.317108
230 0.258352
235 0.215325
240 0.305006
245 0.302878
250 0.169035
255 0.261574
260 0.17714
265 0.202135
270 0.250481
275 0.240047
280 0.260781
285 0.238058
290 0.367746
295 0.350572
300 0.248402
305 0.360105
310 0.377106
315 0.368432
320 0.244911
325 0.381074
330 0.219207
335 0.254234
340 0.212443
345 0.364736
350 0.235075
355 0.204634
360 0.272821
365 0.275179
370 0.32477
375 0.283422
380 0.373577
385 0.260033
390 0.23942
395 0.203664
400 0.340715
405 0.245851
410 0.240488
415 0.278811
420 0.25261
425 0.401596
430 0.298237
435 0.294545
440 0.325297
445 0.295761
450 0.333323
455 0.270218
460 0.283139
465 0.45367
470 0.402519
475 0.269711
480 0.279776
485 0.401754
490 0.468204
495 0.453289
500 0.30291
505 0.348541
510 0.318797
515 0.364218
520 0.444185
525 0.395112
530 0.354286
535 0.313705
540 0.265157
545 0.331576
550 0.221318
555 0.266377
560 0.309108
565 0.452118
570 0.457678
575 0.426151
580 0.444874
585 0.354842
590 4.69664
595 96.1378
600 190.475
