File format V 1.0
ven. 13. janv. 05:33:29 2017
Operator : 
Comments : 

=============================================
SpectroFluorometer parameters
Mode : 3D measurement
Data : Fluorescence
Phospho. : Ordinary
Spectrum : Fluorescence

Scan speed : 2400 nm/mn
Response : 100 ms
PM Voltage : 700 V
Shutter : On

Lambda Ex. Start : 203
Lambda Ex. End : 603
Lambda Ex. Step : 5
Ex. Slit : 5 nm

Lambda Em. Start : 200
Lambda Em. End : 600
Lambda Em. Step : 5
Em. Slit : 5 nm

Repetition : 1
Decal lambda em : 10
=============================================
DATA
Ex : 203
200 6.3105
205 5.23775
210 5.16948
215 4.80284
220 6.16786
225 6.60146
230 7.17079
235 4.22811
240 6.38773
245 5.86062
250 6.67985
255 5.3473
260 6.21385
265 4.59797
270 5.56845
275 7.28234
280 6.871
285 5.16179
290 4.76277
295 6.2584
300 4.25274
305 4.75732
310 4.2457
315 7.78129
320 5.91861
325 7.35752
330 3.74204
335 8.45304
340 5.1768
345 7.36161
350 4.95428
355 7.6145
360 6.42033
365 3.74198
370 7.55038
375 7.82468
380 9.05554
385 6.84821
390 4.06912
395 6.36534
400 5.20224
405 7.77562
410 6.10636
415 3.80555
420 5.77211
425 3.33226
430 6.41994
435 5.28818
440 5.2532
445 4.10836
450 4.46999
455 4.4883
460 4.77038
465 5.19012
470 8.71849
475 4.43438
480 7.11045
485 6.32379
490 8.06307
495 6.66521
500 6.74461
505 5.76331
510 7.68611
515 8.4095
520 8.94109
525 8.20734
530 5.58971
535 6.18675
540 4.69638
545 6.84863
550 5.44929
555 3.69147
560 5.9061
565 8.44573
570 6.75353
575 4.72268
580 8.92653
585 7.88388
590 9.46658
595 5.01644
600 3.89412
Ex : 208
200 7.17352
205 4.86332
210 4.26312
215 4.87473
220 6.86344
225 7.69682
230 4.55213
235 3.53523
240 5.43853
245 4.11232
250 4.9206
255 7.83506
260 3.88201
265 6.04606
270 5.77066
275 4.70728
280 6.95669
285 4.50958
290 4.21389
295 5.67665
300 6.54519
305 6.42221
310 5.66111
315 5.09584
320 5.54348
325 4.79471
330 4.51108
335 6.47358
340 7.60995
345 5.51855
350 5.19173
355 5.28505
360 5.23824
365 7.16622
370 4.87833
375 6.25093
380 7.70204
385 5.98986
390 6.8602
395 9.32558
400 6.01454
405 6.03963
410 6.36145
415 8.42442
420 3.90973
425 3.04866
430 5.60795
435 6.26284
440 6.58917
445 8.16849
450 6.20932
455 6.57081
460 7.43902
465 2.77346
470 8.62744
475 5.41279
480 4.69164
485 6.21345
490 6.06974
495 7.57969
500 6.17103
505 7.2462
510 5.04606
515 7.06002
520 6.50283
525 6.20852
530 5.70969
535 7.54856
540 3.98891
545 8.26138
550 5.49177
555 5.8075
560 5.43085
565 7.97053
570 7.36962
575 4.72675
580 6.38683
585 7.98668
590 8.01097
595 5.93207
600 3.92446
Ex : 213
200 5.07317
205 4.8599
210 4.77728
215 6.9047
220 4.27865
225 6.71944
230 9.19857
235 7.59573
240 7.94961
245 4.12029
250 6.94434
255 4.91742
260 5.49062
265 7.79541
270 8.1531
275 5.85304
280 8.06671
285 6.87121
290 5.23802
295 6.14988
300 6.53936
305 8.61773
310 5.64773
315 4.68325
320 6.60034
325 6.54712
330 10.446
335 4.56345
340 6.59741
345 5.55537
350 5.79509
355 4.13443
360 5.2038
365 6.20615
370 4.15952
375 5.97192
380 5.1106
385 4.42318
390 5.52373
395 5.60331
400 6.36356
405 8.71264
410 7.14205
415 7.92357
420 6.01878
425 4.6769
430 7.19629
435 5.64851
440 4.54993
445 4.53388
450 6.74505
455 5.32866
460 3.68393
465 4.34025
470 4.88712
475 4.48643
480 4.90858
485 6.26557
490 7.12335
495 11.4407
500 5.27717
505 5.49152
510 7.41771
515 6.67418
520 7.22332
525 7.21591
530 5.72157
535 5.71758
540 6.30179
545 4.93814
550 4.45161
555 5.35876
560 7.20613
565 5.78445
570 4.94828
575 3.65261
580 5.7412
585 4.19814
590 4.31662
595 6.05925
600 4.10773
Ex : 218
200 4.58065
205 5.54986
210 6.33854
215 5.95796
220 4.51554
225 7.3614
230 6.72123
235 8.62605
240 5.40457
245 5.60553
250 4.59883
255 3.4158
260 3.8261
265 6.55291
270 6.36406
275 6.028
280 5.27772
285 6.80014
290 7.03373
295 8.40311
300 7.57229
305 5.87104
310 6.97485
315 5.92957
320 5.27986
325 6.0978
330 5.24777
335 7.93644
340 7.76444
345 5.96526
350 6.20705
355 5.47912
360 5.00436
365 6.0211
370 6.4352
375 5.95893
380 4.37811
385 5.22605
390 5.16718
395 5.25648
400 6.01571
405 7.11266
410 3.44395
415 4.33654
420 6.91316
425 6.24953
430 5.16329
435 3.36347
440 6.08153
445 5.00378
450 9.71998
455 4.53603
460 7.13461
465 6.9673
470 8.24385
475 8.28659
480 4.44115
485 6.35597
490 9.21286
495 7.64936
500 7.90872
505 7.61516
510 4.58278
515 4.80892
520 7.58289
525 8.18663
530 5.20908
535 5.04541
540 6.89373
545 4.34172
550 6.38961
555 4.70885
560 5.9845
565 5.2774
570 7.11484
575 6.40514
580 7.56414
585 4.77517
590 7.89673
595 4.99675
600 11.2031
Ex : 223
200 5.53571
205 9.47118
210 4.35181
215 5.72723
220 6.21372
225 4.35712
230 7.343
235 6.61765
240 7.69213
245 5.26226
250 5.40618
255 9.72873
260 5.24558
265 4.99336
270 8.76561
275 6.51295
280 5.90223
285 4.40484
290 5.8554
295 7.86046
300 6.83164
305 7.19606
310 7.50531
315 5.84202
320 5.81037
325 4.58704
330 6.49615
335 7.12311
340 7.81119
345 5.66877
350 5.9976
355 5.13803
360 7.08352
365 6.14344
370 5.50009
375 6.35558
380 5.29221
385 6.9846
390 7.67209
395 4.85485
400 6.44783
405 4.78716
410 5.78948
415 5.57056
420 4.8361
425 6.74133
430 6.87816
435 6.7573
440 7.46612
445 6.54607
450 6.17292
455 8.421
460 6.51128
465 4.76053
470 5.25472
475 5.46579
480 7.71566
485 8.21428
490 8.34117
495 6.89706
500 7.14151
505 5.29778
510 4.26256
515 7.71355
520 5.89425
525 5.05936
530 4.8598
535 5.11519
540 4.58267
545 5.49267
550 4.76066
555 8.64887
560 6.22794
565 3.81266
570 6.34189
575 5.6483
580 4.86335
585 4.39094
590 5.71149
595 6.55663
600 8.0573
Ex : 228
200 3.43333
205 6.41613
210 6.81779
215 5.54248
220 4.26074
225 8.91355
230 6.19308
235 5.57123
240 6.61487
245 7.20008
250 6.4068
255 4.53935
260 4.11395
265 6.4236
270 3.40549
275 4.46906
280 2.55791
285 6.7398
290 8.98521
295 4.14567
300 4.06778
305 5.52074
310 7.5836
315 5.6892
320 4.2654
325 4.95527
330 4.45047
335 7.8942
340 6.58445
345 7.49995
350 4.35184
355 7.62916
360 4.36437
365 6.42167
370 5.7483
375 3.93424
380 3.70499
385 3.59391
390 7.56535
395 4.23654
400 4.91312
405 7.92566
410 7.30227
415 8.15006
420 4.89444
425 6.34524
430 6.00778
435 6.5608
440 7.07051
445 10.4951
450 4.96067
455 5.6199
460 4.41617
465 3.85133
470 6.05089
475 7.13752
480 5.63801
485 4.41075
490 4.98531
495 4.02427
500 5.85325
505 4.83714
510 5.31178
515 4.95526
520 7.49392
525 3.62367
530 6.50273
535 7.55883
540 8.33895
545 6.77202
550 5.52285
555 7.0794
560 4.28163
565 6.88314
570 5.29812
575 5.08858
580 4.95771
585 4.58498
590 5.67207
595 5.9261
600 0.674367
Ex : 233
200 5.95547
205 6.45345
210 5.83497
215 5.79504
220 5.07576
225 4.99347
230 4.96546
235 4.83902
240 3.99378
245 4.25249
250 6.77299
255 5.7175
260 3.66372
265 5.99845
270 4.3609
275 6.91267
280 3.51511
285 4.63137
290 7.88137
295 4.43445
300 9.0144
305 6.93383
310 5.67337
315 4.12918
320 3.94243
325 6.62215
330 6.79553
335 6.4151
340 4.40977
345 6.43785
350 5.91521
355 5.47098
360 8.0612
365 7.07153
370 3.77956
375 6.10649
380 2.98587
385 4.01876
390 4.66871
395 4.34738
400 4.39401
405 6.047
410 4.9247
415 7.45772
420 6.56768
425 5.46769
430 4.63597
435 4.92879
440 5.94035
445 6.31383
450 6.33709
455 6.03836
460 4.1983
465 4.24697
470 5.47958
475 5.55725
480 8.11929
485 5.16897
490 4.41985
495 6.57822
500 6.0085
505 4.47493
510 7.53448
515 6.20298
520 6.01542
525 6.28068
530 5.35748
535 4.79571
540 7.99612
545 6.85335
550 4.74934
555 6.38482
560 5.7573
565 4.94841
570 4.80199
575 4.23774
580 5.84021
585 5.66169
590 4.90866
595 5.12365
600 8.11578
Ex : 238
200 4.34082
205 6.66684
210 3.89288
215 5.66904
220 4.53241
225 6.58481
230 4.07605
235 3.51184
240 3.14896
245 4.2114
250 3.92852
255 6.58889
260 5.43788
265 3.03237
270 4.7727
275 6.03686
280 7.02701
285 4.3617
290 5.61041
295 3.51028
300 5.3622
305 6.07791
310 3.69273
315 4.21723
320 3.45339
325 4.77736
330 4.7645
335 5.36069
340 4.2256
345 5.27473
350 4.04621
355 3.10883
360 8.01031
365 7.10818
370 5.46758
375 5.94996
380 4.22541
385 5.58853
390 4.8651
395 4.43655
400 6.06346
405 5.04984
410 5.66113
415 4.94197
420 6.70583
425 5.15481
430 5.71193
435 4.71692
440 6.84284
445 6.74783
450 5.74294
455 5.23046
460 5.84938
465 5.59363
470 8.07444
475 5.68137
480 3.39669
485 4.14872
490 3.73293
495 3.94851
500 3.78542
505 3.55006
510 4.05078
515 8.69297
520 4.36362
525 6.19701
530 5.91033
535 5.84913
540 4.85122
545 4.125
550 4.77179
555 4.44297
560 4.2481
565 6.08909
570 6.18881
575 6.27223
580 4.27575
585 4.16616
590 3.20518
595 5.0013
600 12.976
Ex : 243
200 4.2921
205 3.33559
210 4.81365
215 6.02174
220 4.14361
225 5.0952
230 3.1664
235 3.20048
240 2.92255
245 3.26222
250 6.5837
255 4.97223
260 5.17839
265 4.74622
270 3.93346
275 4.55691
280 4.58058
285 4.96793
290 3.90564
295 3.86756
300 3.46553
305 3.83096
310 4.8264
315 6.56476
320 5.02881
325 4.75132
330 4.10402
335 4.76935
340 5.16081
345 5.95909
350 4.80521
355 3.50185
360 2.62734
365 5.22087
370 2.83533
375 2.81547
380 4.58408
385 4.7038
390 4.25361
395 3.4196
400 4.33379
405 7.25246
410 4.37328
415 3.73898
420 4.06503
425 4.08742
430 4.5287
435 5.17602
440 2.96046
445 4.64259
450 3.40696
455 5.13799
460 5.6925
465 3.85222
470 3.36851
475 6.30943
480 5.07313
485 4.61013
490 4.46123
495 5.13629
500 5.61125
505 4.24922
510 6.91003
515 4.60923
520 5.49444
525 7.09786
530 5.38244
535 4.28213
540 3.3076
545 4.12973
550 3.54595
555 4.41366
560 4.43688
565 4.04362
570 4.07933
575 3.70132
580 4.18076
585 5.46417
590 4.48378
595 3.6816
600 0.418952
Ex : 248
200 2.31944
205 3.60135
210 4.59964
215 6.03054
220 3.77848
225 7.20541
230 6.04389
235 3.67837
240 3.94785
245 5.62932
250 5.42662
255 3.45922
260 3.34934
265 2.38608
270 4.17888
275 3.09712
280 3.03287
285 3.05555
290 5.75409
295 2.7605
300 2.98073
305 2.9204
310 4.46004
315 2.37604
320 4.80922
325 5.29594
330 2.55438
335 3.02578
340 4.26417
345 3.36872
350 2.41852
355 2.14267
360 3.24368
365 4.27387
370 3.70453
375 3.95844
380 4.70696
385 3.82501
390 2.95897
395 4.56343
400 5.48256
405 4.69578
410 4.36318
415 3.3489
420 3.94779
425 2.79938
430 4.54137
435 3.5989
440 6.63942
445 5.59664
450 3.87574
455 2.4704
460 3.46028
465 3.53458
470 3.56649
475 3.09331
480 5.34149
485 3.15098
490 3.55104
495 4.86961
500 3.56305
505 3.08004
510 3.72651
515 3.11451
520 5.79494
525 3.37263
530 3.93137
535 3.44222
540 3.33867
545 3.53262
550 2.60714
555 2.98448
560 3.59874
565 3.72824
570 2.65707
575 3.6196
580 3.19902
585 4.62113
590 3.67046
595 4.04162
600 1.73999
Ex : 253
200 3.56468
205 4.0136
210 1.97756
215 4.41075
220 2.29004
225 3.2043
230 3.97642
235 2.5265
240 4.35588
245 4.71374
250 3.53132
255 2.06432
260 2.6793
265 1.94718
270 3.53681
275 4.20605
280 4.29287
285 2.89543
290 3.7392
295 3.20783
300 2.5693
305 2.12445
310 1.8616
315 2.30156
320 3.57903
325 2.96524
330 2.0743
335 2.71697
340 3.55402
345 3.88446
350 2.16496
355 2.47083
360 3.67716
365 2.53205
370 4.29326
375 3.97966
380 2.67055
385 3.70556
390 3.62733
395 3.51559
400 4.75551
405 4.28291
410 4.70909
415 2.82617
420 3.2259
425 3.98937
430 4.09015
435 3.8394
440 5.0532
445 3.43058
450 3.67229
455 2.30667
460 4.1943
465 3.16897
470 2.9467
475 2.29179
480 3.0971
485 2.37515
490 3.4543
495 3.42448
500 3.65785
505 4.57423
510 3.25112
515 2.72173
520 4.52597
525 4.33183
530 2.70733
535 4.05471
540 3.79555
545 4.20397
550 3.40441
555 4.70027
560 3.09649
565 3.75098
570 3.76891
575 3.36687
580 3.50959
585 2.18088
590 4.26034
595 3.18605
600 3.37565
Ex : 258
200 1.87117
205 2.04813
210 2.73595
215 1.64516
220 2.74834
225 3.12968
230 3.33312
235 2.67839
240 3.56195
245 1.88781
250 2.47775
255 3.44986
260 3.18711
265 2.77316
270 2.72151
275 2.2371
280 2.49092
285 2.69221
290 3.34267
295 2.88978
300 2.53895
305 3.16324
310 2.41418
315 2.43728
320 2.37069
325 2.9302
330 2.65067
335 3.83544
340 2.29267
345 1.78633
350 2.72456
355 1.83911
360 1.94639
365 2.88195
370 2.84521
375 3.32939
380 3.05959
385 2.55081
390 5.47909
395 2.73942
400 3.07037
405 2.2605
410 3.27637
415 2.95638
420 3.59678
425 3.8138
430 2.40076
435 2.4549
440 2.51984
445 2.33598
450 3.33835
455 2.44647
460 2.34854
465 4.01306
470 3.44255
475 3.26655
480 2.42636
485 3.59289
490 1.85836
495 2.53637
500 2.46485
505 2.65293
510 2.98927
515 2.61692
520 2.99999
525 2.53116
530 3.42592
535 2.19282
540 2.2297
545 2.23603
550 2.97226
555 3.6824
560 1.89242
565 2.14805
570 2.33559
575 2.14115
580 3.45164
585 2.3141
590 2.24743
595 3.14633
600 0.358041
Ex : 263
200 1.09776
205 2.05389
210 2.80787
215 1.84512
220 2.05817
225 2.11487
230 1.96344
235 1.54693
240 2.25818
245 1.44635
250 1.65555
255 1.94929
260 2.3098
265 2.51997
270 2.50372
275 2.37893
280 2.54829
285 2.53913
290 2.88654
295 1.73848
300 2.14661
305 1.9285
310 2.45498
315 1.82622
320 3.69307
325 2.06877
330 2.42416
335 1.98187
340 1.98334
345 2.52465
350 1.59174
355 1.84852
360 2.16811
365 1.36576
370 2.48952
375 2.04397
380 2.81724
385 2.79997
390 2.77629
395 1.79341
400 1.63576
405 2.06213
410 1.98653
415 2.13698
420 2.06498
425 1.55496
430 3.70278
435 2.10601
440 2.16845
445 2.48919
450 2.4015
455 3.50849
460 3.5233
465 2.0685
470 3.53812
475 1.89018
480 3.4596
485 2.09651
490 2.04033
495 2.24129
500 3.03444
505 2.09481
510 2.01504
515 2.06165
520 2.05328
525 1.72922
530 1.91117
535 1.71019
540 1.54118
545 1.18031
550 2.06237
555 1.44186
560 2.42346
565 3.15912
570 2.18058
575 1.73135
580 1.64339
585 2.0625
590 1.59025
595 1.97969
600 1.16687
Ex : 268
200 1.69806
205 2.05484
210 1.95828
215 2.37639
220 1.5125
225 1.92189
230 1.35745
235 1.40613
240 1.8283
245 1.51163
250 1.48681
255 1.73436
260 1.52781
265 1.46499
270 1.3762
275 1.64952
280 1.73828
285 1.46074
290 1.90902
295 1.37276
300 1.55015
305 1.60689
310 2.27028
315 2.47678
320 1.79893
325 1.34754
330 2.3614
335 1.53358
340 1.78839
345 1.61543
350 1.83815
355 1.54313
360 3.00357
365 2.54925
370 1.68453
375 2.13739
380 1.70714
385 1.69646
390 2.63967
395 1.97547
400 1.8721
405 1.59924
410 2.58987
415 1.87437
420 1.69524
425 1.53758
430 2.33804
435 2.3728
440 2.09781
445 2.20552
450 1.64868
455 1.31037
460 1.50673
465 1.55216
470 1.99227
475 1.24266
480 2.77807
485 1.4724
490 2.38945
495 1.35968
500 2.13705
505 1.0562
510 1.43808
515 1.41176
520 1.49112
525 1.97265
530 1.95729
535 2.24435
540 2.52601
545 1.71237
550 2.81335
555 1.80054
560 1.12384
565 1.67295
570 1.52835
575 1.52195
580 2.20379
585 1.89066
590 2.09432
595 1.55028
600 1.30879
Ex : 273
200 1.06591
205 1.44785
210 1.33062
215 1.36809
220 1.24725
225 1.43489
230 1.75827
235 1.05497
240 1.19602
245 1.4617
250 1.23554
255 1.14184
260 1.88033
265 1.21649
270 1.5059
275 1.26215
280 2.13414
285 1.37277
290 1.12012
295 0.776178
300 0.902376
305 1.0502
310 1.75787
315 1.0346
320 1.77443
325 1.71396
330 1.72211
335 1.39675
340 1.60111
345 0.920549
350 2.02042
355 1.56798
360 2.10962
365 1.59587
370 2.02587
375 2.90202
380 2.3228
385 1.49998
390 2.0673
395 1.30748
400 1.25536
405 2.15353
410 1.50387
415 1.48972
420 1.72363
425 1.83553
430 1.81
435 1.36047
440 1.3163
445 1.60436
450 2.23759
455 1.68948
460 1.61901
465 1.14666
470 1.05871
475 1.37586
480 1.35901
485 0.822107
490 1.71703
495 1.33188
500 1.51481
505 1.5607
510 1.48206
515 0.944889
520 1.20809
525 1.95886
530 1.90174
535 1.55789
540 1.52283
545 1.67582
550 1.61068
555 1.95477
560 1.26726
565 1.25196
570 1.64464
575 1.58977
580 0.860802
585 1.13109
590 1.81641
595 1.15092
600 5.33742
Ex : 278
200 0.868852
205 0.995007
210 1.10071
215 0.815473
220 0.83207
225 0.769156
230 1.22128
235 1.33688
240 1.26698
245 1.16389
250 1.79167
255 1.41444
260 1.36145
265 0.808121
270 0.912122
275 1.23608
280 1.46457
285 0.872214
290 0.991502
295 0.860993
300 1.15203
305 0.785017
310 0.936438
315 1.07826
320 1.01352
325 1.11212
330 1.28274
335 1.32758
340 1.40685
345 1.09084
350 1.31138
355 0.963293
360 1.24242
365 1.29697
370 1.57332
375 1.54208
380 1.30087
385 1.36045
390 1.28617
395 1.52116
400 1.39527
405 1.29488
410 1.65568
415 1.35487
420 1.73752
425 1.86194
430 1.29391
435 1.2421
440 1.42703
445 1.06693
450 1.59457
455 1.02346
460 1.46687
465 1.26813
470 1.19366
475 1.18001
480 1.54114
485 1.13223
490 1.03791
495 1.12818
500 1.3474
505 1.18672
510 1.17383
515 1.47178
520 1.09228
525 0.978685
530 0.801677
535 1.62348
540 1.62941
545 1.02928
550 1.38986
555 1.31193
560 1.15912
565 1.15686
570 1.08197
575 1.03938
580 0.935658
585 0.901451
590 0.915697
595 1.42322
600 0.161957
Ex : 283
200 0.815846
205 1.08014
210 1.25657
215 0.958996
220 0.655909
225 0.676446
230 0.979926
235 1.06887
240 1.4326
245 0.805618
250 0.741093
255 0.884816
260 0.907083
265 0.81435
270 0.669806
275 1.32939
280 0.859987
285 0.88326
290 0.858474
295 0.918085
300 0.791235
305 1.0136
310 1.10058
315 1.132
320 0.66054
325 1.15182
330 1.09908
335 1.34449
340 1.04364
345 1.179
350 0.907743
355 0.653992
360 1.00183
365 0.938142
370 1.1576
375 0.910015
380 1.63867
385 1.65584
390 1.22657
395 1.01313
400 1.32142
405 1.23957
410 1.0946
415 1.18851
420 0.87567
425 0.941574
430 0.707069
435 1.17836
440 1.41346
445 0.999871
450 1.10507
455 1.15421
460 1.04052
465 1.38033
470 1.35402
475 1.12463
480 1.18277
485 1.31941
490 1.14135
495 1.13679
500 1.06117
505 1.22962
510 1.28625
515 0.718631
520 1.00052
525 1.02416
530 1.11753
535 0.849239
540 0.631025
545 1.0659
550 1.20507
555 1.39164
560 1.62163
565 1.16914
570 1.1048
575 0.647357
580 0.918622
585 0.651384
590 1.28954
595 0.633775
600 0.593418
Ex : 288
200 0.791741
205 1.24523
210 0.717682
215 0.915243
220 0.759677
225 0.930632
230 0.834523
235 0.51497
240 0.647622
245 0.806057
250 0.917902
255 0.997585
260 0.946113
265 0.568169
270 0.875721
275 0.382181
280 0.598696
285 1.27611
290 0.858476
295 0.806548
300 0.720887
305 0.785958
310 0.695592
315 0.748079
320 0.711904
325 0.690343
330 0.873869
335 0.666232
340 0.825598
345 1.01467
350 0.978307
355 0.674597
360 0.970964
365 1.05076
370 0.892554
375 1.22001
380 1.213
385 0.998521
390 0.98666
395 1.03749
400 1.2909
405 1.56728
410 1.54911
415 1.33467
420 0.97748
425 1.46692
430 1.13506
435 1.31255
440 0.966865
445 0.985032
450 0.796546
455 1.21689
460 0.916439
465 1.0915
470 0.928592
475 1.07013
480 0.591975
485 0.759498
490 0.907608
495 0.951347
500 0.777153
505 0.776221
510 0.757931
515 0.880339
520 0.97302
525 0.688101
530 0.544389
535 0.929502
540 1.07157
545 0.690921
550 0.86819
555 0.69226
560 0.694874
565 0.709275
570 1.17494
575 0.790387
580 0.887793
585 0.605531
590 0.648226
595 0.49074
600 0.0558443
Ex : 293
200 0.496482
205 0.868093
210 0.513855
215 0.706138
220 0.733705
225 0.46536
230 0.727301
235 0.529727
240 0.393461
245 0.723338
250 0.732742
255 0.58612
260 0.935295
265 0.463015
270 0.67294
275 0.666772
280 0.480418
285 0.711386
290 0.849812
295 0.766951
300 0.462016
305 0.578036
310 0.408052
315 0.768155
320 0.576978
325 0.615369
330 0.515175
335 0.678515
340 0.744228
345 0.700843
350 0.871767
355 0.888507
360 0.766446
365 1.1579
370 0.755088
375 0.621172
380 0.705822
385 0.932737
390 0.761338
395 0.801187
400 0.982804
405 0.889306
410 0.921269
415 0.91866
420 0.80904
425 0.988283
430 0.980933
435 1.15207
440 0.942697
445 0.86127
450 0.89207
455 0.987718
460 0.956792
465 0.955172
470 0.749634
475 0.659478
480 0.834455
485 0.822911
490 0.792539
495 0.662631
500 0.684756
505 0.916457
510 0.625772
515 0.836338
520 0.8913
525 0.775104
530 0.758526
535 0.67345
540 0.960123
545 0.699761
550 0.800779
555 0.576667
560 0.71466
565 0.800201
570 0.564666
575 0.836404
580 0.930743
585 1.13313
590 0.855461
595 0.792295
600 0.560956
Ex : 298
200 0.745358
205 0.689031
210 0.683085
215 0.736986
220 0.547413
225 0.59504
230 0.396114
235 0.646683
240 0.579092
245 0.670667
250 0.552963
255 0.642305
260 0.629226
265 0.709686
270 0.408954
275 0.630431
280 0.627095
285 0.770808
290 0.579087
295 0.770905
300 0.532999
305 0.529656
310 0.714797
315 0.547826
320 0.368663
325 0.666556
330 0.767987
335 0.899417
340 0.843803
345 0.586437
350 0.681659
355 0.806086
360 0.702973
365 0.577721
370 0.715887
375 0.735736
380 0.823932
385 0.800103
390 0.745245
395 0.564279
400 0.898685
405 0.929312
410 0.878773
415 0.755784
420 0.694974
425 0.937657
430 0.891075
435 0.897832
440 0.562778
445 0.970718
450 0.912929
455 0.830504
460 0.682292
465 0.698615
470 0.453613
475 0.712323
480 1.00188
485 0.680404
490 0.5578
495 0.802502
500 0.811758
505 0.375265
510 0.559591
515 0.668249
520 0.858501
525 0.680899
530 0.637669
535 0.790365
540 0.536603
545 1.13114
550 0.813189
555 0.676887
560 0.650453
565 0.643101
570 0.64603
575 0.486154
580 0.558111
585 0.824248
590 1.03386
595 1.10804
600 0.634838
Ex : 303
200 0.494425
205 0.373255
210 0.39206
215 0.552428
220 0.654465
225 0.438819
230 0.580412
235 0.664817
240 0.459244
245 0.374143
250 0.333527
255 0.520003
260 0.539972
265 0.499795
270 0.474032
275 0.351885
280 0.479381
285 0.652612
290 0.366592
295 0.661275
300 0.802747
305 0.475508
310 0.496529
315 0.606502
320 0.504256
325 0.446422
330 0.37199
335 0.439903
340 0.859202
345 0.68869
350 0.636781
355 0.741547
360 1.00943
365 0.854455
370 0.649712
375 0.506296
380 0.571932
385 0.681603
390 0.71213
395 0.704928
400 0.638986
405 0.676449
410 0.888131
415 0.721649
420 0.798111
425 0.663105
430 0.819249
435 0.907095
440 0.930075
445 0.880198
450 0.751914
455 0.823273
460 0.643227
465 0.685595
470 0.533447
475 0.551263
480 0.613273
485 0.701714
490 0.546059
495 0.555497
500 0.608386
505 0.442533
510 0.849794
515 0.480371
520 0.698458
525 0.555697
530 0.454959
535 0.692208
540 0.488286
545 0.51565
550 0.378831
555 0.479705
560 0.498715
565 0.614009
570 0.6167
575 0.584493
580 0.684763
585 0.59385
590 0.614849
595 0.746065
600 0.242129
Ex : 308
200 0.288539
205 0.319716
210 0.377762
215 0.377783
220 0.492257
225 0.492478
230 0.258828
235 0.340239
240 0.42315
245 0.285454
250 0.375753
255 0.380275
260 0.44571
265 0.325759
270 0.263265
275 0.259993
280 0.407811
285 0.707016
290 0.561119
295 0.534385
300 0.603182
305 0.558887
310 0.467018
315 0.434454
320 0.342155
325 0.482485
330 0.365763
335 0.406778
340 0.590979
345 0.360042
350 0.529117
355 0.745129
360 0.554777
365 0.828653
370 0.570338
375 0.838044
380 0.694715
385 0.705854
390 0.841947
395 0.831764
400 0.92558
405 0.879141
410 0.682234
415 0.58631
420 0.783507
425 0.826802
430 0.775434
435 0.660806
440 0.576475
445 0.739734
450 0.835891
455 0.72523
460 0.677036
465 0.70756
470 0.492698
475 0.584664
480 0.533337
485 0.63234
490 0.504887
495 0.5291
500 0.797009
505 0.650436
510 0.45429
515 0.456189
520 0.460653
525 0.407565
530 0.442735
535 0.53898
540 0.553301
545 0.539048
550 0.439343
555 0.390658
560 0.522539
565 0.554527
570 0.485887
575 0.288993
580 0.332406
585 0.408284
590 0.343061
595 0.324959
600 0.0369792
Ex : 313
200 0.386663
205 0.438632
210 0.414807
215 0.333536
220 0.257603
225 0.33988
230 0.458277
235 0.364447
240 0.453445
245 0.364796
250 0.287738
255 0.333067
260 0.401216
265 0.336819
270 0.334872
275 0.329906
280 0.297569
285 0.630914
290 0.289132
295 0.337172
300 0.547949
305 0.632189
310 0.600821
315 0.509366
320 0.306838
325 0.32866
330 0.55846
335 0.3277
340 0.713084
345 0.533884
350 0.631323
355 0.656141
360 1.10102
365 0.857464
370 0.973021
375 0.972481
380 1.02735
385 0.913048
390 1.25217
395 1.3127
400 1.18609
405 1.13514
410 1.08157
415 1.18073
420 1.12352
425 1.09823
430 1.18335
435 1.08261
440 0.999075
445 0.994586
450 0.903692
455 0.988778
460 1.04725
465 0.899845
470 0.807184
475 0.804865
480 0.743017
485 0.61929
490 0.94028
495 0.65504
500 0.928907
505 0.750049
510 0.594953
515 0.475521
520 0.553456
525 0.574021
530 0.41731
535 0.473904
540 0.409623
545 0.419407
550 0.297079
555 0.367807
560 0.585908
565 0.41201
570 0.361472
575 0.388369
580 0.36002
585 0.367161
590 0.425048
595 0.346846
600 5.46346
Ex : 318
200 0.329058
205 0.49406
210 0.421857
215 0.211241
220 0.279183
225 0.281147
230 0.219073
235 0.486824
240 0.251103
245 0.338232
250 0.277264
255 0.257497
260 0.261086
265 0.430488
270 0.355733
275 0.250024
280 0.371559
285 0.259794
290 0.287492
295 0.433807
300 0.354863
305 0.245342
310 0.422569
315 0.815052
320 0.490988
325 0.548964
330 0.70065
335 0.793195
340 1.32284
345 1.66221
350 2.17856
355 3.00173
360 3.42521
365 4.2185
370 4.59052
375 5.50828
380 6.36688
385 6.83538
390 7.36137
395 7.92336
400 8.22954
405 8.67834
410 8.90149
415 8.9081
420 8.37104
425 7.96767
430 7.86082
435 7.40764
440 7.35475
445 7.25032
450 6.33396
455 6.1359
460 5.91854
465 5.3684
470 5.07379
475 4.96873
480 4.2318
485 3.87911
490 3.37434
495 3.0859
500 2.89132
505 2.82116
510 2.10522
515 1.88463
520 1.90203
525 1.56045
530 1.1461
535 1.24771
540 1.05506
545 1.04899
550 0.998045
555 0.738785
560 0.627365
565 0.507032
570 0.51457
575 0.438391
580 0.454545
585 0.405079
590 0.431168
595 0.636272
600 0.0724053
Ex : 323
200 0.274994
205 0.317883
210 0.453578
215 0.246877
220 0.326701
225 0.252542
230 0.40845
235 0.230575
240 0.26432
245 0.410359
250 0.241255
255 0.404398
260 0.362327
265 0.297478
270 0.430547
275 0.358726
280 0.28064
285 0.204259
290 0.261586
295 0.351701
300 0.223252
305 0.238287
310 0.420004
315 1.82464
320 8.01841
325 3.72
330 1.951
335 2.54348
340 3.94639
345 5.7014
350 8.49514
355 11.7342
360 14.2792
365 16.8098
370 19.9043
375 23.1293
380 25.222
385 27.5831
390 30.0632
395 31.9917
400 32.471
405 34.6644
410 33.6188
415 33.5851
420 33.7937
425 32.5517
430 30.2215
435 30.8554
440 28.7611
445 27.8797
450 25.6715
455 24.3706
460 22.9366
465 21.0056
470 19.9472
475 17.7878
480 16.0499
485 14.857
490 12.8359
495 11.4568
500 10.5868
505 9.46523
510 8.3769
515 6.8841
520 6.22804
525 5.63671
530 5.02722
535 4.04346
540 3.47097
545 3.29388
550 2.44515
555 2.56893
560 1.82623
565 1.59571
570 1.16266
575 1.06572
580 0.891067
585 0.742904
590 0.711535
595 0.647593
600 1.93214
Ex : 328
200 0.280594
205 0.280726
210 0.287203
215 0.361039
220 0.272326
225 0.195632
230 0.277169
235 0.226726
240 0.262185
245 0.357807
250 0.237757
255 0.33147
260 0.2472
265 0.216147
270 0.348543
275 0.429222
280 0.344308
285 0.205859
290 0.368678
295 0.305425
300 0.275697
305 0.289542
310 0.283381
315 0.720219
320 18.1
325 45.1108
330 14.9216
335 4.91262
340 5.40951
345 7.36766
350 9.10771
355 13.8214
360 17.5093
365 19.7164
370 22.0142
375 24.2979
380 27.5498
385 30.6647
390 33.9796
395 34.511
400 36.2494
405 37.3473
410 37.245
415 36.6018
420 36.1324
425 34.7833
430 33.1676
435 32.4203
440 31.215
445 29.397
450 27.337
455 26.0295
460 23.8311
465 22.1838
470 21.1509
475 19.4081
480 17.9292
485 15.9723
490 13.809
495 13.6553
500 11.7022
505 10.3509
510 8.81163
515 8.14542
520 6.61814
525 5.87018
530 5.24845
535 4.61872
540 3.97036
545 3.36569
550 2.98857
555 2.54314
560 2.23371
565 2.02907
570 1.61921
575 1.21776
580 1.03995
585 1.05642
590 0.639735
595 0.618722
600 0.305684
Ex : 333
200 0.262399
205 0.242303
210 0.217742
215 0.268386
220 0.284827
225 0.212701
230 0.255636
235 0.21752
240 0.240658
245 0.30251
250 0.293868
255 0.245946
260 0.329304
265 0.27401
270 0.246767
275 0.195206
280 0.162998
285 0.167307
290 0.241229
295 0.183119
300 0.218747
305 0.232618
310 0.255064
315 0.290699
320 2.65029
325 54.0135
330 92.0418
335 26.586
340 6.3628
345 5.53549
350 6.00747
355 6.85138
360 9.94192
365 14.3468
370 15.2214
375 15.3306
380 15.5216
385 17.1065
390 18.6404
395 19.4594
400 19.9974
405 20.0467
410 19.6936
415 19.4244
420 19.3231
425 18.9065
430 18.005
435 17.0878
440 16.4522
445 15.1972
450 15.288
455 14.6195
460 13.2888
465 12.3111
470 11.6546
475 10.3873
480 9.85912
485 9.37901
490 8.11844
495 7.46965
500 6.70562
505 5.90801
510 4.81511
515 4.61093
520 4.32236
525 3.52807
530 3.18706
535 2.67908
540 2.44191
545 1.98687
550 1.75391
555 1.62001
560 1.35966
565 1.28348
570 1.19618
575 0.935054
580 0.694466
585 0.666047
590 0.612571
595 0.475771
600 0.34716
Ex : 338
200 0.232972
205 0.18543
210 0.217706
215 0.259316
220 0.261569
225 0.215344
230 0.198561
235 0.284879
240 0.173299
245 0.224564
250 0.378448
255 0.192451
260 0.267654
265 0.233517
270 0.204717
275 0.305001
280 0.22288
285 0.265402
290 0.293
295 0.338999
300 0.268984
305 0.3157
310 0.268924
315 0.302244
320 0.277215
325 5.47269
330 82.4866
335 123.502
340 31.7673
345 6.31382
350 3.94718
355 3.90225
360 3.86848
365 5.84282
370 9.88537
375 10.4699
380 9.09789
385 8.50685
390 8.64801
395 9.3706
400 9.78731
405 9.72085
410 10.0744
415 10.1137
420 9.71945
425 9.09118
430 9.15229
435 9.05071
440 8.77048
445 8.30146
450 7.40175
455 7.54435
460 7.14507
465 6.55168
470 6.40319
475 5.77402
480 5.45718
485 5.2329
490 4.78315
495 4.4141
500 3.82222
505 3.66702
510 3.10642
515 2.53287
520 2.35166
525 2.07893
530 1.66823
535 1.75877
540 1.52263
545 1.20068
550 1.44644
555 1.15948
560 1.04201
565 1.12825
570 0.817901
575 0.710811
580 0.611274
585 0.387609
590 0.406055
595 0.428989
600 0.652463
Ex : 343
200 0.214798
205 0.154
210 0.216408
215 0.162461
220 0.143689
225 0.289193
230 0.19375
235 0.217862
240 0.223767
245 0.247761
250 0.215579
255 0.200247
260 0.175904
265 0.188542
270 0.174621
275 0.212388
280 0.227506
285 0.217366
290 0.158542
295 0.164541
300 0.188198
305 0.187837
310 0.266842
315 0.20236
320 0.217249
325 0.319933
330 6.66202
335 96.7861
340 139.764
345 34.714
350 5.83146
355 3.25579
360 2.80511
365 2.39077
370 3.64463
375 7.62141
380 8.25194
385 6.33476
390 5.46037
395 5.46674
400 5.70042
405 5.60563
410 5.84185
415 6.12663
420 6.02886
425 5.92017
430 6.13539
435 6.39233
440 6.23033
445 6.16255
450 6.05012
455 5.63636
460 5.70006
465 5.05433
470 4.97103
475 4.80565
480 4.85326
485 4.49637
490 3.80201
495 3.58233
500 3.33573
505 3.01628
510 2.51321
515 2.2807
520 2.15725
525 2.01037
530 1.89691
535 1.57127
540 1.40771
545 1.09833
550 1.26573
555 1.08305
560 0.919223
565 0.965049
570 0.75768
575 0.730333
580 0.664574
585 0.534812
590 0.438609
595 0.309375
600 0.0352057
Ex : 348
200 0.194837
205 0.216813
210 0.190102
215 0.305155
220 0.181729
225 0.207482
230 0.293917
235 0.198913
240 0.237572
245 0.232909
250 0.176035
255 0.192002
260 0.161618
265 0.134482
270 0.22581
275 0.274838
280 0.204837
285 0.163389
290 0.190306
295 0.239631
300 0.242846
305 0.319117
310 0.236703
315 0.26939
320 0.181546
325 0.168709
330 0.302238
335 6.58624
340 97.3027
345 145.138
350 37.9529
355 5.94378
360 2.60973
365 2.5663
370 1.9613
375 2.37282
380 5.44159
385 7.062
390 5.75662
395 5.03266
400 4.09669
405 4.67848
410 5.39273
415 5.75217
420 5.54911
425 5.71945
430 5.60681
435 5.80627
440 6.07437
445 5.94862
450 5.78384
455 5.49811
460 5.50781
465 5.11497
470 5.27647
475 4.96349
480 4.79348
485 4.08454
490 3.95161
495 3.67001
500 3.2275
505 2.97378
510 2.80625
515 2.5713
520 2.13078
525 2.02862
530 1.78604
535 1.79315
540 1.51378
545 1.34419
550 1.19585
555 1.05398
560 1.04111
565 0.756803
570 0.857989
575 0.613988
580 0.702161
585 0.530136
590 0.421242
595 0.336361
600 0.984285
Ex : 353
200 0.262743
205 0.190839
210 0.162055
215 0.146604
220 0.192514
225 0.140213
230 0.215087
235 0.160264
240 0.207063
245 0.175818
250 0.271042
255 0.159862
260 0.166991
265 0.214906
270 0.228824
275 0.150743
280 0.178702
285 0.105867
290 0.123141
295 0.180191
300 0.23859
305 0.202683
310 0.205942
315 0.19219
320 0.218494
325 0.294573
330 0.237898
335 0.3274
340 6.48313
345 99.1466
350 145.586
355 36.6855
360 5.55424
365 2.12856
370 2.27697
375 1.98646
380 2.17136
385 4.62352
390 7.18904
395 6.35449
400 4.89825
405 4.50852
410 4.84033
415 5.25914
420 5.28146
425 5.34281
430 5.62073
435 5.706
440 6.00353
445 5.83318
450 5.69947
455 5.80474
460 5.4264
465 5.37492
470 4.79075
475 4.86581
480 4.58278
485 4.23367
490 4.13323
495 3.78589
500 3.36593
505 3.14467
510 3.1681
515 2.52013
520 2.28863
525 2.14261
530 2.0238
535 1.81968
540 1.61391
545 1.22945
550 1.25969
555 0.976357
560 0.977185
565 1.02911
570 0.872139
575 0.667559
580 0.582212
585 0.428497
590 0.368487
595 0.440319
600 0.676561
Ex : 358
200 0.194493
205 0.137527
210 0.125975
215 0.20988
220 0.124238
225 0.1059
230 0.215552
235 0.119237
240 0.182623
245 0.132022
250 0.198068
255 0.228084
260 0.21774
265 0.212679
270 0.161426
275 0.155228
280 0.163919
285 0.178559
290 0.18747
295 0.269344
300 0.145781
305 0.208641
310 0.223737
315 0.185955
320 0.196254
325 0.260718
330 0.235678
335 0.318879
340 0.342371
345 6.55695
350 96.619
355 147.462
360 37.2609
365 5.45118
370 2.30676
375 2.81817
380 2.28979
385 1.92996
390 3.27504
395 7.0204
400 6.73601
405 5.74123
410 4.81288
415 5.31346
420 5.57138
425 5.47296
430 5.82183
435 5.89949
440 6.28037
445 6.24011
450 6.19953
455 5.87343
460 5.63429
465 5.86735
470 5.47517
475 5.27755
480 5.32088
485 4.83958
490 4.23502
495 4.20331
500 3.67043
505 3.42479
510 3.18704
515 2.96739
520 2.56565
525 2.37871
530 2.00538
535 1.82403
540 1.81399
545 1.4629
550 1.26513
555 1.21951
560 1.11034
565 0.897741
570 0.913254
575 0.69039
580 0.541377
585 0.520534
590 0.415933
595 0.369403
600 0.203165
Ex : 363
200 0.217366
205 0.221259
210 0.184095
215 0.157313
220 0.129455
225 0.131088
230 0.145157
235 0.197464
240 0.166634
245 0.163872
250 0.176764
255 0.17206
260 0.15826
265 0.198803
270 0.133319
275 0.146702
280 0.11557
285 0.147675
290 0.134436
295 0.189134
300 0.146763
305 0.178607
310 0.181289
315 0.293439
320 0.231116
325 0.167079
330 0.219717
335 0.227576
340 0.23188
345 0.336453
350 5.78773
355 91.6214
360 146.013
365 38.1989
370 5.53001
375 2.54283
380 2.28391
385 1.78801
390 1.81219
395 3.0844
400 6.28609
405 7.3509
410 6.71031
415 6.57427
420 5.75954
425 5.63547
430 6.06125
435 6.8025
440 7.20151
445 6.86323
450 6.78082
455 6.63636
460 6.40946
465 6.5979
470 6.40501
475 5.95016
480 5.79487
485 5.22596
490 4.8503
495 4.49423
500 4.20056
505 3.79305
510 3.42853
515 3.06671
520 2.8194
525 2.55619
530 2.32812
535 2.11867
540 1.87629
545 1.71383
550 1.55188
555 1.31074
560 1.1281
565 1.017
570 0.864958
575 0.685808
580 0.541396
585 0.506766
590 0.448906
595 0.384247
600 0.691845
Ex : 368
200 0.128281
205 0.1123
210 0.18859
215 0.190943
220 0.119476
225 0.168736
230 0.17155
235 0.141703
240 0.187445
245 0.196684
250 0.150424
255 0.182876
260 0.219919
265 0.146055
270 0.185891
275 0.198375
280 0.138051
285 0.1832
290 0.0861951
295 0.161898
300 0.134002
305 0.155269
310 0.240296
315 0.163122
320 0.175388
325 0.215241
330 0.188245
335 0.227823
340 0.164419
345 0.2256
350 0.216512
355 4.96874
360 90.5856
365 147.111
370 40.0322
375 5.96094
380 2.19151
385 2.34094
390 2.05865
395 1.93885
400 2.74338
405 5.93691
410 8.27967
415 7.64553
420 6.29207
425 5.79673
430 6.25218
435 6.49577
440 6.73186
445 7.01998
450 6.72502
455 6.48362
460 6.51498
465 6.22157
470 6.25873
475 6.22031
480 5.68427
485 5.14743
490 4.89344
495 4.37388
500 4.26674
505 4.01382
510 3.75571
515 3.42919
520 2.90326
525 2.47335
530 2.22468
535 2.08935
540 1.92934
545 1.63401
550 1.47323
555 1.29504
560 1.22177
565 1.08352
570 0.853852
575 0.700413
580 0.587188
585 0.461467
590 0.48702
595 0.325075
600 0.258543
Ex : 373
200 0.110467
205 0.158634
210 0.114279
215 0.139911
220 0.104551
225 0.0989437
230 0.104824
235 0.145658
240 0.153236
245 0.150117
250 0.137005
255 0.162921
260 0.171971
265 0.124977
270 0.152138
275 0.171973
280 0.143304
285 0.192806
290 0.149019
295 0.123755
300 0.107183
305 0.145313
310 0.169214
315 0.170366
320 0.133512
325 0.100073
330 0.117485
335 0.133718
340 0.134483
345 0.199662
350 0.265711
355 0.271073
360 5.72763
365 90.332
370 145.75
375 39.7124
380 5.8855
385 2.11541
390 2.28199
395 2.31063
400 2.53286
405 3.18496
410 5.98864
415 8.17749
420 7.38301
425 6.31834
430 5.99479
435 5.86182
440 6.38756
445 6.24761
450 6.14645
455 6.06234
460 5.88655
465 5.95145
470 5.91806
475 5.63248
480 5.30538
485 5.02556
490 4.57824
495 4.59767
500 4.30087
505 3.80975
510 3.54011
515 3.36434
520 2.90767
525 2.65833
530 2.25739
535 1.97751
540 1.81355
545 1.67151
550 1.57404
555 1.39969
560 1.07893
565 1.05989
570 0.855088
575 0.684818
580 0.589969
585 0.532584
590 0.401454
595 0.333239
600 0.578195
Ex : 378
200 0.102029
205 0.161513
210 0.135062
215 0.172843
220 0.181028
225 0.127674
230 0.104071
235 0.119635
240 0.107908
245 0.155558
250 0.186323
255 0.138453
260 0.112061
265 0.0975743
270 0.18469
275 0.152078
280 0.0888737
285 0.0851411
290 0.139226
295 0.164748
300 0.106839
305 0.090541
310 0.137118
315 0.0979203
320 0.150797
325 0.111203
330 0.131842
335 0.15653
340 0.182068
345 0.170666
350 0.176074
355 0.24475
360 0.223699
365 5.39433
370 90.1615
375 146.502
380 39.8524
385 6.02457
390 2.25962
395 2.61638
400 3.24799
405 3.36829
410 4.11697
415 5.98857
420 8.82285
425 7.92926
430 7.10336
435 7.0675
440 6.95206
445 6.90305
450 6.69679
455 6.37984
460 6.46399
465 6.26377
470 6.20684
475 6.20605
480 5.83514
485 5.18434
490 5.02298
495 4.46806
500 4.65451
505 4.03468
510 3.54409
515 3.38046
520 2.94528
525 2.54431
530 2.22556
535 1.99074
540 1.91902
545 1.76668
550 1.56996
555 1.44788
560 1.28531
565 1.0676
570 0.829576
575 0.627621
580 0.54852
585 0.423358
590 0.353927
595 0.307901
600 0.292909
Ex : 383
200 0.0856078
205 0.0836618
210 0.12767
215 0.141236
220 0.192443
225 0.14116
230 0.127503
235 0.0898274
240 0.123176
245 0.138353
250 0.0970317
255 0.151725
260 0.210312
265 0.160375
270 0.0829559
275 0.105239
280 0.156146
285 0.14886
290 0.14458
295 0.125611
300 0.124131
305 0.16353
310 0.192444
315 0.0969277
320 0.102729
325 0.12426
330 0.106738
335 0.113357
340 0.16305
345 0.153435
350 0.173495
355 0.187959
360 0.205575
365 0.249029
370 4.93675
375 87.0763
380 148.288
385 40.6897
390 6.21387
395 2.24212
400 2.79981
405 3.62543
410 4.49287
415 5.21805
420 6.09259
425 8.49052
430 9.03194
435 8.62426
440 8.43588
445 7.7261
450 7.18228
455 6.9405
460 6.97641
465 7.10491
470 6.8479
475 6.52632
480 6.11307
485 5.75278
490 5.19694
495 5.05013
500 4.46418
505 4.33927
510 3.72952
515 3.39414
520 2.90546
525 2.86159
530 2.41166
535 2.24686
540 1.98119
545 1.81459
550 1.56245
555 1.44717
560 1.21029
565 0.95633
570 0.740373
575 0.755163
580 0.558018
585 0.529919
590 0.446846
595 0.354868
600 0.367062
Ex : 388
200 0.0964912
205 0.0993677
210 0.101806
215 0.138128
220 0.149738
225 0.129422
230 0.115257
235 0.152222
240 0.100059
245 0.145335
250 0.136344
255 0.137021
260 0.0913475
265 0.107746
270 0.0989987
275 0.139697
280 0.163423
285 0.166928
290 0.122358
295 0.164764
300 0.111928
305 0.179093
310 0.121494
315 0.0958289
320 0.144919
325 0.124912
330 0.122586
335 0.117091
340 0.171555
345 0.155144
350 0.155597
355 0.148286
360 0.18332
365 0.154868
370 0.293921
375 5.17953
380 89.0676
385 145.296
390 39.0161
395 5.84287
400 2.52647
405 3.48182
410 4.55555
415 5.26084
420 5.07108
425 5.4666
430 7.7701
435 9.67453
440 9.03851
445 8.05279
450 7.31527
455 6.72417
460 6.63247
465 6.64929
470 6.71319
475 6.36981
480 6.11223
485 5.60245
490 5.23104
495 4.85651
500 4.56361
505 4.28759
510 3.79357
515 3.44871
520 3.04058
525 2.70823
530 2.44457
535 2.16453
540 1.85951
545 1.7641
550 1.59589
555 1.419
560 1.15076
565 1.10695
570 0.78919
575 0.756017
580 0.556825
585 0.52969
590 0.347133
595 0.265968
600 0.0837728
Ex : 393
200 0.161887
205 0.128854
210 0.11558
215 0.101826
220 0.0939931
225 0.117077
230 0.16082
235 0.112957
240 0.0956314
245 0.126027
250 0.0868706
255 0.0874121
260 0.111569
265 0.0623692
270 0.116614
275 0.089629
280 0.105782
285 0.117933
290 0.108294
295 0.11743
300 0.152151
305 0.119141
310 0.0852746
315 0.0861601
320 0.127378
325 0.133469
330 0.13945
335 0.119508
340 0.159942
345 0.154487
350 0.114297
355 0.125855
360 0.163159
365 0.236797
370 0.235081
375 0.259269
380 4.50417
385 86.51
390 147.166
395 40.4607
400 6.32882
405 2.87266
410 3.96324
415 4.59968
420 4.43097
425 4.34107
430 5.03535
435 6.70278
440 8.83283
445 8.06929
450 6.76102
455 6.05869
460 5.8789
465 5.57706
470 5.67526
475 5.43015
480 5.20149
485 4.81695
490 4.65871
495 4.4852
500 4.17448
505 3.81884
510 3.56272
515 3.36353
520 2.91277
525 2.65928
530 2.23731
535 2.03314
540 1.73153
545 1.65956
550 1.47129
555 1.34022
560 1.24123
565 1.08515
570 0.815887
575 0.674177
580 0.655228
585 0.495582
590 0.371665
595 0.436264
600 0.187817
Ex : 398
200 0.0984615
205 0.126407
210 0.17003
215 0.153884
220 0.16826
225 0.0840762
230 0.0810146
235 0.110828
240 0.0932219
245 0.107356
250 0.112471
255 0.0915176
260 0.119625
265 0.122061
270 0.123985
275 0.133541
280 0.106813
285 0.103874
290 0.122487
295 0.188081
300 0.116717
305 0.094585
310 0.111268
315 0.118804
320 0.146234
325 0.123156
330 0.0918209
335 0.14753
340 0.141052
345 0.132921
350 0.091177
355 0.151676
360 0.180881
365 0.139241
370 0.23907
375 0.203912
380 0.255324
385 4.55737
390 87.0935
395 146.955
400 40.3109
405 6.83178
410 3.738
415 4.31496
420 4.4599
425 4.12386
430 4.26212
435 4.87782
440 6.21041
445 8.01833
450 7.89083
455 6.44905
460 6.09468
465 5.6497
470 5.40197
475 5.29958
480 4.79528
485 4.49365
490 4.37286
495 4.23952
500 3.79051
505 3.59903
510 3.36683
515 2.99544
520 2.68601
525 2.45793
530 2.27249
535 1.90888
540 1.74244
545 1.6582
550 1.4116
555 1.36974
560 1.17167
565 1.06413
570 0.837527
575 0.649698
580 0.531399
585 0.431326
590 0.334531
595 0.277105
600 0.106636
Ex : 403
200 0.083793
205 0.0889654
210 0.140339
215 0.0916457
220 0.0889321
225 0.0729442
230 0.115158
235 0.151854
240 0.158233
245 0.165171
250 0.0961166
255 0.126961
260 0.0997707
265 0.136793
270 0.124982
275 0.135228
280 0.118905
285 0.105788
290 0.118042
295 0.114206
300 0.136129
305 0.119879
310 0.105331
315 0.139136
320 0.121109
325 0.136957
330 0.10348
335 0.0903323
340 0.137746
345 0.138048
350 0.0775664
355 0.107833
360 0.178361
365 0.163115
370 0.149984
375 0.171034
380 0.166956
385 0.264558
390 5.22772
395 88.5818
400 145.538
405 40.5059
410 7.66894
415 4.57649
420 4.40145
425 4.36703
430 4.66637
435 4.83406
440 5.42746
445 5.83809
450 7.45447
455 7.65855
460 6.36134
465 6.00976
470 5.57484
475 5.01349
480 5.06857
485 4.62404
490 4.21082
495 4.23154
500 3.81226
505 3.72527
510 3.21611
515 2.88957
520 2.60296
525 2.40856
530 2.1549
535 2.10396
540 1.89502
545 1.63131
550 1.55109
555 1.34979
560 1.07873
565 0.974493
570 0.864991
575 0.651553
580 0.52573
585 0.432708
590 0.297299
595 0.360716
600 0.339495
Ex : 408
200 0.130611
205 0.0994631
210 0.103527
215 0.124633
220 0.102832
225 0.087222
230 0.102926
235 0.121863
240 0.143777
245 0.178729
250 0.175523
255 0.0883545
260 0.125362
265 0.138643
270 0.12523
275 0.0764988
280 0.114613
285 0.145818
290 0.108227
295 0.0939866
300 0.134566
305 0.145023
310 0.0929848
315 0.108622
320 0.163532
325 0.138456
330 0.108008
335 0.0880956
340 0.115958
345 0.12901
350 0.127302
355 0.123217
360 0.113987
365 0.121442
370 0.181105
375 0.178652
380 0.110328
385 0.205922
390 0.368008
395 5.01112
400 89.6456
405 147.44
410 40.2693
415 7.76212
420 3.93555
425 3.87714
430 4.36538
435 4.81904
440 4.68873
445 4.77493
450 5.15208
455 6.35653
460 7.5755
465 6.29858
470 5.74467
475 5.10309
480 4.5409
485 4.34793
490 4.15125
495 4.0162
500 3.60957
505 3.32976
510 3.15544
515 2.8253
520 2.59826
525 2.24742
530 1.99001
535 1.94312
540 1.68208
545 1.55205
550 1.38859
555 1.22707
560 1.07128
565 0.869099
570 0.699612
575 0.613445
580 0.510998
585 0.436326
590 0.3422
595 0.260692
600 0.163203
Ex : 413
200 0.0642727
205 0.100651
210 0.102283
215 0.106257
220 0.150134
225 0.132868
230 0.0965367
235 0.103109
240 0.138779
245 0.130346
250 0.107132
255 0.117944
260 0.131757
265 0.0951772
270 0.119406
275 0.127903
280 0.0888304
285 0.0925544
290 0.124961
295 0.136826
300 0.0960632
305 0.0954944
310 0.0907868
315 0.10243
320 0.116992
325 0.136421
330 0.151208
335 0.0901975
340 0.0867064
345 0.133186
350 0.13119
355 0.082775
360 0.127495
365 0.093994
370 0.151728
375 0.131805
380 0.180829
385 0.197762
390 0.196943
395 0.343978
400 5.84772
405 91.4951
410 146.259
415 39.3951
420 6.67255
425 2.98158
430 2.95916
435 3.49317
440 3.47569
445 3.33427
450 3.052
455 3.27035
460 4.24853
465 6.28825
470 5.41368
475 4.56139
480 4.03478
485 3.37391
490 3.30087
495 2.90144
500 2.74778
505 2.81514
510 2.59108
515 2.2881
520 2.42501
525 2.09914
530 1.83865
535 1.67921
540 1.55687
545 1.40565
550 1.2887
555 0.997061
560 0.852475
565 0.918612
570 0.72733
575 0.62714
580 0.494333
585 0.407724
590 0.354596
595 0.295395
600 0.201994
Ex : 418
200 0.132579
205 0.0830293
210 0.113075
215 0.0779615
220 0.0922832
225 0.119123
230 0.0975306
235 0.127747
240 0.1068
245 0.105297
250 0.0953518
255 0.099843
260 0.0859082
265 0.0846317
270 0.103299
275 0.0960187
280 0.0958483
285 0.0641371
290 0.138007
295 0.115807
300 0.106833
305 0.119833
310 0.0876273
315 0.0938739
320 0.092336
325 0.117144
330 0.0817723
335 0.0824685
340 0.138769
345 0.0799877
350 0.126691
355 0.108038
360 0.125089
365 0.123227
370 0.0883351
375 0.193317
380 0.133405
385 0.16891
390 0.158406
395 0.229991
400 0.354781
405 5.37736
410 90.9649
415 149.329
420 40.3956
425 5.90278
430 2.12806
435 1.8342
440 2.23321
445 2.09748
450 2.02444
455 1.94252
460 2.10444
465 2.68476
470 4.73142
475 4.85832
480 3.44612
485 3.07883
490 2.90714
495 2.50683
500 2.49693
505 2.41258
510 2.2398
515 1.99261
520 1.9258
525 1.72867
530 1.68585
535 1.4766
540 1.30951
545 1.29337
550 1.17688
555 1.10743
560 0.871687
565 0.919442
570 0.707152
575 0.570738
580 0.45022
585 0.411089
590 0.371254
595 0.343756
600 0.21577
Ex : 423
200 0.109088
205 0.142295
210 0.0856324
215 0.0865763
220 0.086423
225 0.155891
230 0.141881
235 0.0946541
240 0.0987735
245 0.0721635
250 0.110453
255 0.126226
260 0.0928282
265 0.0976162
270 0.0909578
275 0.0701703
280 0.0806989
285 0.0763598
290 0.146073
295 0.0899311
300 0.099538
305 0.127309
310 0.118747
315 0.0885186
320 0.0933637
325 0.162508
330 0.111519
335 0.117089
340 0.104022
345 0.100943
350 0.127332
355 0.112205
360 0.117196
365 0.0949449
370 0.142256
375 0.135535
380 0.133911
385 0.0894828
390 0.199245
395 0.219492
400 0.186534
405 0.338
410 5.64223
415 95.8033
420 149.37
425 38.3679
430 5.44069
435 1.63184
440 1.25005
445 1.55165
450 1.57206
455 1.44249
460 1.42944
465 1.48845
470 1.97843
475 3.67738
480 4.41635
485 3.18322
490 2.78959
495 2.53724
500 2.03533
505 1.96432
510 1.92912
515 1.90078
520 1.73246
525 1.63939
530 1.53033
535 1.42749
540 1.24334
545 1.22005
550 1.12097
555 0.987562
560 0.774631
565 0.722773
570 0.711953
575 0.592774
580 0.428581
585 0.339361
590 0.370405
595 0.327042
600 0.18053
Ex : 428
200 0.0987162
205 0.127566
210 0.088066
215 0.150453
220 0.105883
225 0.163526
230 0.142485
235 0.090888
240 0.133327
245 0.127622
250 0.0988022
255 0.168925
260 0.082716
265 0.11097
270 0.0870793
275 0.0906792
280 0.0901768
285 0.1114
290 0.103097
295 0.0935116
300 0.145279
305 0.113652
310 0.121076
315 0.12008
320 0.0792597
325 0.0938034
330 0.105709
335 0.124645
340 0.0895457
345 0.0889746
350 0.149616
355 0.112064
360 0.120064
365 0.155828
370 0.197985
375 0.143195
380 0.137672
385 0.142691
390 0.182741
395 0.107541
400 0.132337
405 0.229946
410 0.337964
415 5.81283
420 96.9005
425 149.706
430 39.3032
435 5.29483
440 1.40396
445 1.07292
450 1.43699
455 1.49676
460 1.4284
465 1.23558
470 1.41207
475 1.58398
480 2.87726
485 4.25697
490 3.29693
495 2.60204
500 2.27874
505 1.96359
510 1.73769
515 1.71946
520 1.53186
525 1.42594
530 1.41652
535 1.20266
540 1.11429
545 1.09728
550 1.08088
555 0.87432
560 0.868201
565 0.780029
570 0.626042
575 0.49517
580 0.510515
585 0.417449
590 0.362248
595 0.316092
600 0.612003
Ex : 433
200 0.0968949
205 0.141567
210 0.0907826
215 0.0980031
220 0.129128
225 0.111695
230 0.118079
235 0.173728
240 0.144334
245 0.12339
250 0.110886
255 0.148952
260 0.0908896
265 0.110072
270 0.156371
275 0.149329
280 0.119151
285 0.136093
290 0.0947836
295 0.155045
300 0.119617
305 0.115004
310 0.125001
315 0.163982
320 0.126447
325 0.15251
330 0.0998926
335 0.0810785
340 0.119099
345 0.108137
350 0.204391
355 0.148017
360 0.125065
365 0.158257
370 0.135532
375 0.105963
380 0.148293
385 0.120514
390 0.119201
395 0.154597
400 0.145354
405 0.206493
410 0.257361
415 0.308702
420 6.37315
425 104.08
430 154.327
435 38.7923
440 5.35273
445 1.49154
450 1.05193
455 1.33978
460 1.64372
465 1.35474
470 1.22347
475 1.34907
480 1.38659
485 2.24214
490 3.74033
495 3.56001
500 2.55052
505 2.23444
510 1.84195
515 1.59415
520 1.36572
525 1.3944
530 1.21755
535 1.32331
540 1.08061
545 1.0154
550 1.02396
555 0.750896
560 0.783571
565 0.7656
570 0.61179
575 0.588743
580 0.462367
585 0.351573
590 0.355511
595 0.323492
600 0.2404
Ex : 438
200 0.106207
205 0.0875285
210 0.112092
215 0.128624
220 0.115712
225 0.111619
230 0.15298
235 0.115546
240 0.0997485
245 0.0989364
250 0.10273
255 0.100176
260 0.0828483
265 0.0768931
270 0.170661
275 0.103415
280 0.122677
285 0.122638
290 0.102428
295 0.106982
300 0.172349
305 0.128806
310 0.108417
315 0.086358
320 0.143411
325 0.140987
330 0.141563
335 0.122403
340 0.119709
345 0.111322
350 0.148114
355 0.133507
360 0.154262
365 0.140927
370 0.16316
375 0.175552
380 0.129777
385 0.111946
390 0.186542
395 0.198074
400 0.170405
405 0.178876
410 0.218808
415 0.245179
420 0.296834
425 6.53411
430 103.7
435 165.803
440 41.7013
445 5.66873
450 1.46297
455 1.01024
460 1.21157
465 1.47529
470 1.32789
475 1.16952
480 1.3514
485 1.46912
490 1.88202
495 3.24541
500 3.59931
505 2.49622
510 2.08227
515 1.89918
520 1.57404
525 1.45865
530 1.24214
535 1.24627
540 1.08791
545 0.990864
550 0.880203
555 0.838171
560 0.842877
565 0.766584
570 0.690106
575 0.472345
580 0.441179
585 0.330954
590 0.322298
595 0.278575
600 0.588912
Ex : 443
200 0.144193
205 0.111321
210 0.117524
215 0.0984124
220 0.173377
225 0.122246
230 0.102711
235 0.106966
240 0.10857
245 0.0729554
250 0.110941
255 0.103166
260 0.129266
265 0.102035
270 0.104437
275 0.131906
280 0.123034
285 0.0991756
290 0.0943385
295 0.119839
300 0.119876
305 0.146208
310 0.113435
315 0.155623
320 0.109914
325 0.112331
330 0.119621
335 0.136882
340 0.10525
345 0.0917888
350 0.132914
355 0.0893729
360 0.0881789
365 0.109988
370 0.0910189
375 0.112686
380 0.125369
385 0.15317
390 0.102385
395 0.140096
400 0.13593
405 0.115583
410 0.126685
415 0.161392
420 0.187015
425 0.267829
430 7.01382
435 111.124
440 168.214
445 42.274
450 5.8185
455 1.55756
460 1.02702
465 1.1923
470 1.44039
475 1.44031
480 1.19437
485 1.22196
490 1.32263
495 1.59145
500 2.87167
505 3.56918
510 2.5728
515 1.95409
520 1.82234
525 1.54631
530 1.11431
535 1.10353
540 1.06002
545 1.05337
550 0.974836
555 0.789228
560 0.866589
565 0.730925
570 0.540154
575 0.534204
580 0.417001
585 0.407041
590 0.339812
595 0.270514
600 0.305507
Ex : 448
200 0.138984
205 0.114684
210 0.0996801
215 0.0987043
220 0.134872
225 0.126106
230 0.107624
235 0.108817
240 0.10805
245 0.103633
250 0.124523
255 0.116244
260 0.0912942
265 0.126459
270 0.109802
275 0.0848919
280 0.0807672
285 0.155582
290 0.136018
295 0.104398
300 0.0748125
305 0.136608
310 0.132166
315 0.147186
320 0.0968741
325 0.128389
330 0.136877
335 0.140683
340 0.123148
345 0.179023
350 0.0910532
355 0.121244
360 0.0977944
365 0.114396
370 0.107961
375 0.0946322
380 0.110122
385 0.144061
390 0.15154
395 0.105452
400 0.162486
405 0.144604
410 0.122273
415 0.170182
420 0.181657
425 0.172013
430 0.315499
435 7.2465
440 120.519
445 177.772
450 44.6114
455 5.9832
460 1.64993
465 0.994408
470 1.23403
475 1.46174
480 1.25112
485 1.21708
490 1.16491
495 1.16503
500 1.36295
505 2.22331
510 3.28331
515 2.90809
520 1.8407
525 1.74787
530 1.44466
535 1.25549
540 0.991648
545 0.94153
550 1.00727
555 0.865263
560 0.720699
565 0.626332
570 0.641716
575 0.522272
580 0.485812
585 0.38314
590 0.275864
595 0.279159
600 0.182422
Ex : 453
200 0.0903443
205 0.113206
210 0.110093
215 0.122301
220 0.126784
225 0.139107
230 0.126783
235 0.161006
240 0.165096
245 0.134496
250 0.0994308
255 0.112082
260 0.126434
265 0.0645945
270 0.106385
275 0.0958451
280 0.101851
285 0.0995807
290 0.0972648
295 0.133686
300 0.100959
305 0.112833
310 0.136432
315 0.0916177
320 0.0707893
325 0.115231
330 0.125912
335 0.103043
340 0.092691
345 0.0830384
350 0.0928836
355 0.0883246
360 0.0910784
365 0.155447
370 0.11263
375 0.173537
380 0.0941329
385 0.10623
390 0.113793
395 0.131235
400 0.143062
405 0.12556
410 0.148126
415 0.135586
420 0.206518
425 0.174186
430 0.184664
435 0.31292
440 7.60082
445 127.258
450 184.454
455 43.4941
460 5.7901
465 1.58161
470 1.05135
475 1.14526
480 1.59146
485 1.37702
490 1.2443
495 1.08417
500 1.18947
505 1.1432
510 1.69883
515 3.11134
520 3.14362
525 1.9761
530 1.56331
535 1.51851
540 1.04263
545 1.02881
550 0.947707
555 0.907295
560 0.752526
565 0.686424
570 0.645484
575 0.550976
580 0.485079
585 0.385306
590 0.374593
595 0.314122
600 0.257297
Ex : 458
200 0.0800497
205 0.0831729
210 0.126959
215 0.124902
220 0.0886597
225 0.113123
230 0.149975
235 0.0973463
240 0.114419
245 0.124307
250 0.0822724
255 0.142948
260 0.0831045
265 0.140449
270 0.140295
275 0.0989575
280 0.127661
285 0.12973
290 0.123289
295 0.0857962
300 0.142401
305 0.0946898
310 0.148789
315 0.110581
320 0.134504
325 0.0936253
330 0.0837562
335 0.101792
340 0.142621
345 0.130008
350 0.110096
355 0.121585
360 0.128322
365 0.154537
370 0.104395
375 0.126772
380 0.115633
385 0.126892
390 0.0787212
395 0.125925
400 0.112187
405 0.106494
410 0.124252
415 0.145234
420 0.128143
425 0.163011
430 0.243792
435 0.263898
440 0.330935
445 8.62208
450 133.952
455 195.91
460 47.229
465 6.34826
470 1.67117
475 1.0514
480 1.06998
485 1.40233
490 1.42614
495 1.23118
500 1.0009
505 1.05573
510 1.10118
515 1.37799
520 2.4073
525 3.11992
530 2.12744
535 1.64694
540 1.60508
545 1.19981
550 0.968356
555 0.925109
560 0.766708
565 0.657173
570 0.556796
575 0.52575
580 0.46892
585 0.396662
590 0.378915
595 0.288644
600 0.486118
Ex : 463
200 0.0836857
205 0.0837849
210 0.135618
215 0.174969
220 0.191159
225 0.181881
230 0.095786
235 0.110489
240 0.0826681
245 0.129485
250 0.0765464
255 0.108928
260 0.11516
265 0.0822596
270 0.131665
275 0.166345
280 0.107201
285 0.0868438
290 0.0884554
295 0.10588
300 0.129424
305 0.0907253
310 0.187953
315 0.135815
320 0.0916408
325 0.062489
330 0.114154
335 0.129365
340 0.0986411
345 0.0964907
350 0.145746
355 0.0968006
360 0.123166
365 0.114824
370 0.163805
375 0.0899903
380 0.116616
385 0.123423
390 0.117957
395 0.140645
400 0.126262
405 0.107405
410 0.105531
415 0.125593
420 0.145776
425 0.155411
430 0.118189
435 0.187068
440 0.199948
445 0.279512
450 8.51939
455 137.63
460 208.595
465 50.536
470 6.64278
475 1.67409
480 1.07074
485 1.21707
490 1.42777
495 1.42811
500 1.14104
505 1.04793
510 1.00487
515 1.17899
520 1.2549
525 1.91411
530 2.96253
535 2.57567
540 1.6827
545 1.40366
550 1.32573
555 1.01166
560 0.863795
565 0.818037
570 0.637205
575 0.540909
580 0.503064
585 0.400841
590 0.37157
595 0.288545
600 0.678342
Ex : 468
200 0.114971
205 0.0929402
210 0.103318
215 0.078424
220 0.0897415
225 0.114792
230 0.0969957
235 0.125995
240 0.127797
245 0.0826724
250 0.0773052
255 0.092299
260 0.109944
265 0.076388
270 0.123251
275 0.104792
280 0.0951566
285 0.106124
290 0.122286
295 0.109086
300 0.118091
305 0.149613
310 0.0830143
315 0.149801
320 0.132138
325 0.107716
330 0.118339
335 0.109376
340 0.114746
345 0.098675
350 0.0751428
355 0.0996155
360 0.0908254
365 0.112699
370 0.107505
375 0.138073
380 0.0908642
385 0.0783083
390 0.180079
395 0.100128
400 0.109642
405 0.0863127
410 0.117853
415 0.0856536
420 0.156362
425 0.112557
430 0.131483
435 0.162934
440 0.162914
445 0.199137
450 0.34295
455 9.00953
460 139.15
465 219.809
470 53.9755
475 7.01343
480 1.68877
485 1.08939
490 1.11807
495 1.22166
500 1.31842
505 1.2377
510 1.07144
515 1.06818
520 1.03134
525 1.11871
530 1.52823
535 2.49647
540 2.74863
545 1.7206
550 1.29573
555 1.28254
560 0.989952
565 0.828873
570 0.675669
575 0.566051
580 0.559435
585 0.401703
590 0.361471
595 0.278406
600 0.321448
Ex : 473
200 0.0847376
205 0.0991509
210 0.113504
215 0.0718038
220 0.149065
225 0.109732
230 0.102366
235 0.0891207
240 0.0994088
245 0.0942022
250 0.0690211
255 0.0796987
260 0.107009
265 0.0919656
270 0.0946002
275 0.0790909
280 0.0596881
285 0.0899526
290 0.0909116
295 0.0960813
300 0.112089
305 0.148195
310 0.10396
315 0.123311
320 0.0991305
325 0.0879821
330 0.106521
335 0.118133
340 0.10447
345 0.105796
350 0.0842502
355 0.12443
360 0.105229
365 0.135048
370 0.138091
375 0.0888389
380 0.127474
385 0.0923566
390 0.117024
395 0.0883303
400 0.138215
405 0.156667
410 0.137604
415 0.117393
420 0.138423
425 0.148889
430 0.140502
435 0.191072
440 0.167888
445 0.192874
450 0.196956
455 0.329621
460 10.7282
465 156.005
470 215.586
475 50.7666
480 6.71088
485 1.68814
490 0.977832
495 1.12542
500 1.26738
505 1.42254
510 1.13059
515 1.0772
520 1.04086
525 1.07128
530 1.15325
535 1.30863
540 2.2062
545 2.77444
550 1.91788
555 1.2568
560 1.27606
565 1.00219
570 0.76626
575 0.577538
580 0.473895
585 0.410866
590 0.283648
595 0.293552
600 0.0844831
Ex : 478
200 0.0962883
205 0.104462
210 0.127723
215 0.103755
220 0.104425
225 0.138261
230 0.176732
235 0.11542
240 0.119076
245 0.119461
250 0.167671
255 0.126767
260 0.0943744
265 0.112225
270 0.10725
275 0.119637
280 0.117011
285 0.178425
290 0.160038
295 0.104554
300 0.123664
305 0.175112
310 0.110482
315 0.14271
320 0.1268
325 0.13253
330 0.117566
335 0.138514
340 0.110603
345 0.128564
350 0.107993
355 0.137192
360 0.117532
365 0.131115
370 0.149908
375 0.164847
380 0.165371
385 0.156621
390 0.0989795
395 0.113703
400 0.131764
405 0.121801
410 0.113322
415 0.128678
420 0.135635
425 0.131935
430 0.167421
435 0.171543
440 0.223375
445 0.214569
450 0.218644
455 0.240643
460 0.397433
465 11.9395
470 161.26
475 217.403
480 52.5771
485 6.98573
490 1.78747
495 0.930445
500 0.935533
505 1.0773
510 1.20262
515 1.22046
520 1.08163
525 1.08098
530 1.0774
535 1.11302
540 1.03438
545 1.53477
550 2.44107
555 1.92304
560 1.26526
565 1.07943
570 1.01772
575 0.758929
580 0.540646
585 0.418261
590 0.361772
595 0.278601
600 0.210175
Ex : 483
200 0.142467
205 0.165539
210 0.118599
215 0.13997
220 0.113549
225 0.154711
230 0.0987243
235 0.103089
240 0.163908
245 0.153302
250 0.117098
255 0.0985414
260 0.110682
265 0.135299
270 0.108669
275 0.164038
280 0.121336
285 0.0938902
290 0.149925
295 0.113389
300 0.0739015
305 0.0736733
310 0.108257
315 0.131061
320 0.184119
325 0.172932
330 0.129159
335 0.124932
340 0.110558
345 0.0958128
350 0.1125
355 0.142842
360 0.156263
365 0.113534
370 0.0905198
375 0.147514
380 0.160429
385 0.123861
390 0.170631
395 0.185391
400 0.133184
405 0.132704
410 0.145953
415 0.167193
420 0.153953
425 0.164863
430 0.138443
435 0.166407
440 0.159069
445 0.13933
450 0.140255
455 0.157652
460 0.26653
465 0.406696
470 8.9978
475 159.87
480 241.258
485 58.6121
490 7.53451
495 1.65761
500 1.05033
505 0.904702
510 1.16115
515 1.15657
520 1.23053
525 1.08056
530 1.15163
535 0.978827
540 1.04585
545 0.910267
550 1.15307
555 1.98756
560 2.20686
565 1.4181
570 1.05332
575 0.863744
580 0.680536
585 0.531138
590 0.385489
595 0.321309
600 0.0910063
Ex : 488
200 0.18415
205 0.144833
210 0.113272
215 0.185611
220 0.131969
225 0.159317
230 0.146458
235 0.128675
240 0.0973627
245 0.137668
250 0.189177
255 0.114484
260 0.116611
265 0.0839628
270 0.154576
275 0.173033
280 0.162087
285 0.141705
290 0.129668
295 0.109911
300 0.124933
305 0.112729
310 0.133416
315 0.122403
320 0.172256
325 0.137356
330 0.148766
335 0.133329
340 0.165632
345 0.131756
350 0.126828
355 0.139812
360 0.169252
365 0.135834
370 0.185467
375 0.104037
380 0.126791
385 0.128318
390 0.13789
395 0.128606
400 0.19057
405 0.129127
410 0.132315
415 0.13228
420 0.140267
425 0.194656
430 0.148728
435 0.122968
440 0.112125
445 0.14981
450 0.170204
455 0.198
460 0.217581
465 0.314685
470 0.388632
475 11.5411
480 178.065
485 240.975
490 56.0328
495 7.25109
500 1.59587
505 0.958607
510 0.821446
515 1.06718
520 1.36134
525 1.20279
530 1.11242
535 1.09365
540 0.993702
545 0.946095
550 0.89702
555 0.946201
560 1.6075
565 2.12992
570 1.26783
575 0.794244
580 0.649097
585 0.653882
590 0.454784
595 0.306341
600 0.253003
Ex : 493
200 0.134688
205 0.121462
210 0.158495
215 0.120831
220 0.174834
225 0.180445
230 0.1926
235 0.123188
240 0.197126
245 0.136701
250 0.171518
255 0.104588
260 0.102015
265 0.13134
270 0.150183
275 0.180203
280 0.169242
285 0.144707
290 0.150135
295 0.107337
300 0.128142
305 0.117758
310 0.123522
315 0.185408
320 0.133449
325 0.129268
330 0.138516
335 0.11874
340 0.152175
345 0.13768
350 0.150235
355 0.112233
360 0.179376
365 0.163164
370 0.11253
375 0.16621
380 0.160807
385 0.142638
390 0.124641
395 0.106675
400 0.210241
405 0.167452
410 0.119042
415 0.147331
420 0.142506
425 0.185473
430 0.173766
435 0.204151
440 0.186353
445 0.148059
450 0.142737
455 0.155164
460 0.207827
465 0.233207
470 0.327255
475 0.425647
480 10.7557
485 177.968
490 258.405
495 58.6554
500 7.58117
505 1.69094
510 0.968192
515 0.871288
520 1.04438
525 1.33254
530 1.30068
535 1.17784
540 0.94758
545 0.9495
550 0.820719
555 0.829366
560 0.779568
565 1.14867
570 1.79088
575 1.42556
580 0.869514
585 0.601702
590 0.499324
595 0.382048
600 0.107498
Ex : 498
200 0.24708
205 0.149265
210 0.132469
215 0.202368
220 0.203065
225 0.124224
230 0.18934
235 0.145647
240 0.136187
245 0.160119
250 0.129152
255 0.134258
260 0.151685
265 0.143645
270 0.11655
275 0.122059
280 0.114777
285 0.162635
290 0.148298
295 0.15202
300 0.135804
305 0.194591
310 0.138355
315 0.183048
320 0.147558
325 0.179093
330 0.230787
335 0.165507
340 0.116512
345 0.241399
350 0.145803
355 0.129989
360 0.133107
365 0.114643
370 0.125927
375 0.11636
380 0.133232
385 0.140082
390 0.158414
395 0.181436
400 0.135648
405 0.134543
410 0.2071
415 0.184229
420 0.152747
425 0.147175
430 0.166378
435 0.178514
440 0.174181
445 0.18746
450 0.152348
455 0.201725
460 0.188153
465 0.222423
470 0.234753
475 0.275925
480 0.389746
485 12.946
490 184.675
495 246.56
500 57.2739
505 7.23482
510 1.73464
515 1.07421
520 0.821108
525 1.08034
530 1.11273
535 1.24523
540 1.21072
545 1.06452
550 0.893735
555 0.78447
560 0.831625
565 0.692788
570 0.823936
575 1.13968
580 1.28267
585 0.847923
590 0.544045
595 0.458815
600 0.228717
Ex : 503
200 0.179614
205 0.162875
210 0.132947
215 0.134512
220 0.200198
225 0.164099
230 0.228527
235 0.107522
240 0.179219
245 0.164424
250 0.157039
255 0.150388
260 0.135567
265 0.200037
270 0.201266
275 0.122875
280 0.148889
285 0.135197
290 0.131424
295 0.161767
300 0.188908
305 0.145466
310 0.169344
315 0.173108
320 0.10079
325 0.17634
330 0.164109
335 0.152655
340 0.149186
345 0.166836
350 0.17609
355 0.200116
360 0.213599
365 0.180519
370 0.144305
375 0.129554
380 0.120196
385 0.147718
390 0.128218
395 0.148055
400 0.189849
405 0.109671
410 0.177976
415 0.158321
420 0.167943
425 0.147807
430 0.169812
435 0.233058
440 0.162325
445 0.187917
450 0.218705
455 0.177844
460 0.148638
465 0.228439
470 0.229399
475 0.305464
480 0.329407
485 0.468356
490 12.3157
495 188.607
500 263.196
505 61.5323
510 7.88703
515 1.83266
520 1.16036
525 0.973032
530 1.07979
535 1.16116
540 1.01346
545 1.04458
550 0.862874
555 0.813364
560 0.760793
565 0.648499
570 0.631508
575 0.581937
580 0.856803
585 1.00752
590 0.692562
595 0.438939
600 1.76794
Ex : 508
200 0.155747
205 0.118397
210 0.150979
215 0.179435
220 0.187319
225 0.17407
230 0.137787
235 0.111151
240 0.160074
245 0.19078
250 0.181677
255 0.165026
260 0.150256
265 0.200253
270 0.184478
275 0.131708
280 0.153779
285 0.158051
290 0.172568
295 0.168051
300 0.193886
305 0.261269
310 0.171303
315 0.182008
320 0.174509
325 0.168675
330 0.159254
335 0.179954
340 0.14408
345 0.141206
350 0.123181
355 0.153418
360 0.166502
365 0.132871
370 0.195303
375 0.196155
380 0.187104
385 0.199894
390 0.120062
395 0.135924
400 0.150764
405 0.139124
410 0.158346
415 0.14203
420 0.186475
425 0.248763
430 0.213456
435 0.216373
440 0.250788
445 0.200081
450 0.186744
455 0.219016
460 0.1906
465 0.172342
470 0.299364
475 0.208278
480 0.227647
485 0.310833
490 0.552867
495 13.0267
500 192.351
505 264.464
510 63.8736
515 8.09175
520 1.8246
525 1.18696
530 0.96865
535 0.933618
540 1.00472
545 0.936325
550 0.835308
555 0.782972
560 0.703881
565 0.662808
570 0.58774
575 0.546074
580 0.419547
585 0.452627
590 0.808758
595 0.718645
600 0.641699
Ex : 513
200 0.106086
205 0.155676
210 0.178454
215 0.145432
220 0.166082
225 0.143239
230 0.173518
235 0.172485
240 0.203842
245 0.157609
250 0.14676
255 0.131152
260 0.155425
265 0.150342
270 0.231429
275 0.221123
280 0.206697
285 0.220312
290 0.164872
295 0.1238
300 0.187168
305 0.179952
310 0.195769
315 0.192868
320 0.183575
325 0.141192
330 0.160189
335 0.108863
340 0.157083
345 0.23429
350 0.132019
355 0.119511
360 0.147937
365 0.159338
370 0.148494
375 0.129245
380 0.160586
385 0.202286
390 0.152413
395 0.223899
400 0.154021
405 0.171169
410 0.157973
415 0.185708
420 0.220762
425 0.16539
430 0.118829
435 0.143298
440 0.134216
445 0.193451
450 0.229296
455 0.194713
460 0.172662
465 0.229371
470 0.172016
475 0.230452
480 0.270479
485 0.245969
490 0.292023
495 0.509261
500 12.5666
505 188.567
510 266.852
515 66.4494
520 8.54475
525 1.77083
530 1.1425
535 0.997631
540 0.971314
545 1.01952
550 1.04353
555 0.801421
560 0.77365
565 0.643009
570 0.608076
575 0.426389
580 0.431769
585 0.346393
590 0.393461
595 0.586139
600 0.742198
Ex : 518
200 0.131745
205 0.1123
210 0.10765
215 0.201232
220 0.145622
225 0.132456
230 0.192045
235 0.218652
240 0.122941
245 0.178993
250 0.18932
255 0.153816
260 0.240052
265 0.158614
270 0.247746
275 0.209619
280 0.252813
285 0.199059
290 0.208721
295 0.150557
300 0.236265
305 0.179708
310 0.179328
315 0.22755
320 0.126162
325 0.217168
330 0.161338
335 0.197214
340 0.140991
345 0.108019
350 0.166098
355 0.223063
360 0.14908
365 0.114115
370 0.179111
375 0.192051
380 0.150772
385 0.151523
390 0.160894
395 0.154475
400 0.18792
405 0.125065
410 0.179517
415 0.191604
420 0.124853
425 0.161857
430 0.184363
435 0.224686
440 0.171958
445 0.130369
450 0.194724
455 0.234827
460 0.212645
465 0.180527
470 0.13501
475 0.258082
480 0.223981
485 0.207219
490 0.26241
495 0.370567
500 0.367387
505 12.5693
510 183.23
515 263.882
520 65.6285
525 8.46945
530 1.6799
535 1.06242
540 0.87693
545 0.765061
550 0.926109
555 0.966461
560 0.763197
565 0.681807
570 0.482022
575 0.431779
580 0.435143
585 0.372731
590 0.359974
595 0.346798
600 0.103373
Ex : 523
200 0.196104
205 0.254026
210 0.204525
215 0.220068
220 0.171044
225 0.213814
230 0.271122
235 0.214158
240 0.118362
245 0.177425
250 0.124388
255 0.203463
260 0.16365
265 0.141211
270 0.0987423
275 0.138273
280 0.143458
285 0.165848
290 0.193473
295 0.170597
300 0.18434
305 0.181942
310 0.205405
315 0.121607
320 0.150145
325 0.177563
330 0.27371
335 0.183462
340 0.126855
345 0.149201
350 0.168806
355 0.143217
360 0.19491
365 0.18212
370 0.193676
375 0.23995
380 0.294147
385 0.281492
390 0.175465
395 0.217606
400 0.153754
405 0.172052
410 0.164476
415 0.16333
420 0.166287
425 0.128706
430 0.193709
435 0.166258
440 0.186086
445 0.204415
450 0.171996
455 0.195317
460 0.145158
465 0.205697
470 0.215079
475 0.166454
480 0.205013
485 0.242299
490 0.23963
495 0.320669
500 0.389729
505 0.522407
510 11.2838
515 176.629
520 261.934
525 67.7097
530 8.5756
535 1.74569
540 1.02973
545 0.923711
550 0.708166
555 0.785694
560 0.780654
565 0.701732
570 0.630474
575 0.520543
580 0.400083
585 0.313477
590 0.333319
595 0.334101
600 0.439649
Ex : 528
200 0.23271
205 0.169912
210 0.205105
215 0.214429
220 0.236249
225 0.193285
230 0.190227
235 0.167565
240 0.18464
245 0.299225
250 0.218229
255 0.217718
260 0.183143
265 0.195624
270 0.206647
275 0.231563
280 0.155328
285 0.202765
290 0.157238
295 0.249658
300 0.204334
305 0.197986
310 0.136819
315 0.16383
320 0.188845
325 0.179086
330 0.196613
335 0.225335
340 0.193114
345 0.213098
350 0.179166
355 0.171899
360 0.151628
365 0.20823
370 0.222192
375 0.187407
380 0.227178
385 0.273327
390 0.190587
395 0.205471
400 0.166402
405 0.257416
410 0.249018
415 0.179476
420 0.194741
425 0.175599
430 0.225438
435 0.248676
440 0.274357
445 0.165497
450 0.170027
455 0.2289
460 0.170268
465 0.145883
470 0.261795
475 0.210165
480 0.194833
485 0.223339
490 0.265703
495 0.301574
500 0.298038
505 0.439159
510 0.589256
515 10.5465
520 173.517
525 261.114
530 65.5109
535 8.31213
540 1.61463
545 0.930169
550 0.804012
555 0.729256
560 0.613265
565 0.664495
570 0.622019
575 0.378777
580 0.42805
585 0.29837
590 0.312907
595 0.214798
600 0.117962
Ex : 533
200 0.143252
205 0.2795
210 0.208823
215 0.232249
220 0.168634
225 0.175102
230 0.176342
235 0.21496
240 0.242254
245 0.155224
250 0.171952
255 0.231123
260 0.184807
265 0.234587
270 0.165817
275 0.132133
280 0.180471
285 0.217892
290 0.135346
295 0.234823
300 0.23191
305 0.157622
310 0.195155
315 0.183539
320 0.176106
325 0.2169
330 0.179615
335 0.155182
340 0.145448
345 0.12058
350 0.251824
355 0.223317
360 0.194404
365 0.181357
370 0.169816
375 0.218528
380 0.32474
385 0.232981
390 0.186604
395 0.183343
400 0.160814
405 0.184225
410 0.229666
415 0.165295
420 0.212219
425 0.202448
430 0.212309
435 0.196725
440 0.122862
445 0.204043
450 0.176984
455 0.251387
460 0.271156
465 0.21179
470 0.175957
475 0.172952
480 0.19331
485 0.236087
490 0.203905
495 0.193385
500 0.2273
505 0.336346
510 0.304731
515 0.465831
520 11.0931
525 174.82
530 265.36
535 68.9124
540 8.83503
545 1.61019
550 0.902222
555 0.741503
560 0.600895
565 0.562856
570 0.641213
575 0.471714
580 0.3947
585 0.357627
590 0.292391
595 0.273211
600 0.490779
Ex : 538
200 0.11962
205 0.199797
210 0.234751
215 0.169515
220 0.151617
225 0.214688
230 0.24051
235 0.157953
240 0.176918
245 0.151418
250 0.235618
255 0.210229
260 0.150358
265 0.2513
270 0.15231
275 0.178302
280 0.142609
285 0.224836
290 0.216846
295 0.188304
300 0.16936
305 0.217159
310 0.22677
315 0.150218
320 0.186964
325 0.16381
330 0.207332
335 0.288565
340 0.291747
345 0.247604
350 0.16574
355 0.168088
360 0.120082
365 0.130573
370 0.142792
375 0.16272
380 0.186471
385 0.197073
390 0.187255
395 0.211061
400 0.253008
405 0.295855
410 0.290832
415 0.167131
420 0.221471
425 0.205921
430 0.232815
435 0.257162
440 0.144543
445 0.190638
450 0.145458
455 0.18711
460 0.246062
465 0.273613
470 0.222917
475 0.185292
480 0.162609
485 0.262399
490 0.298758
495 0.281141
500 0.241759
505 0.173781
510 0.215565
515 0.256879
520 0.491915
525 9.56002
530 166.437
535 265.71
540 71.0128
545 8.75372
550 1.60501
555 0.70392
560 0.532944
565 0.49754
570 0.532515
575 0.452495
580 0.447961
585 0.419072
590 0.360582
595 0.306408
600 0.0830314
Ex : 543
200 0.275013
205 0.257744
210 0.250378
215 0.299151
220 0.269427
225 0.31189
230 0.192494
235 0.185688
240 0.269948
245 0.184194
250 0.162342
255 0.226419
260 0.134702
265 0.246358
270 0.146234
275 0.14875
280 0.173672
285 0.241699
290 0.17122
295 0.217024
300 0.135546
305 0.172086
310 0.164056
315 0.211204
320 0.183054
325 0.19201
330 0.317133
335 0.232627
340 0.177775
345 0.234439
350 0.207271
355 0.266515
360 0.214257
365 0.233684
370 0.304893
375 0.282341
380 0.165954
385 0.193817
390 0.363506
395 0.185742
400 0.157112
405 0.191809
410 0.197142
415 0.184608
420 0.224366
425 0.174259
430 0.312892
435 0.26125
440 0.255592
445 0.14912
450 0.187977
455 0.230361
460 0.264212
465 0.266719
470 0.217083
475 0.231772
480 0.197209
485 0.224262
490 0.166069
495 0.212574
500 0.174263
505 0.19276
510 0.244254
515 0.333973
520 0.352745
525 0.424664
530 8.75507
535 156.02
540 257.426
545 70.6645
550 8.63287
555 1.54035
560 0.753549
565 0.651966
570 0.44701
575 0.404161
580 0.484661
585 0.462759
590 0.386505
595 0.456881
600 1.22707
Ex : 548
200 0.288744
205 0.153709
210 0.187728
215 0.256939
220 0.224038
225 0.210293
230 0.153238
235 0.181907
240 0.201897
245 0.162441
250 0.253936
255 0.206622
260 0.23849
265 0.273679
270 0.301381
275 0.177606
280 0.232968
285 0.20363
290 0.157575
295 0.205199
300 0.147336
305 0.208793
310 0.182211
315 0.170384
320 0.220315
325 0.201609
330 0.198383
335 0.163845
340 0.171313
345 0.24381
350 0.195066
355 0.195779
360 0.176539
365 0.172735
370 0.226128
375 0.324828
380 0.179325
385 0.157788
390 0.258759
395 0.20734
400 0.177369
405 0.238069
410 0.243939
415 0.212869
420 0.307404
425 0.170722
430 0.203241
435 0.222834
440 0.226206
445 0.180244
450 0.220468
455 0.202476
460 0.245078
465 0.157518
470 0.182028
475 0.240863
480 0.21503
485 0.261765
490 0.309951
495 0.178628
500 0.245491
505 0.249031
510 0.261127
515 0.2734
520 0.2649
525 0.354519
530 0.417955
535 9.50657
540 159.894
545 254.097
550 69.5559
555 8.68956
560 1.49097
565 0.621619
570 0.490249
575 0.323943
580 0.387145
585 0.38949
590 0.372351
595 0.433262
600 0.146632
Ex : 553
200 0.119978
205 0.192664
210 0.188758
215 0.134938
220 0.207504
225 0.228199
230 0.17006
235 0.195091
240 0.288861
245 0.294428
250 0.184591
255 0.165784
260 0.184974
265 0.198014
270 0.233995
275 0.173805
280 0.164303
285 0.277822
290 0.170257
295 0.157574
300 0.185208
305 0.2091
310 0.122234
315 0.186733
320 0.191461
325 0.188523
330 0.265984
335 0.140668
340 0.207958
345 0.261852
350 0.279663
355 0.219541
360 0.222572
365 0.264958
370 0.168628
375 0.319919
380 0.191326
385 0.255182
390 0.199636
395 0.230837
400 0.261607
405 0.257708
410 0.203035
415 0.205212
420 0.2612
425 0.259685
430 0.249586
435 0.203516
440 0.15704
445 0.219384
450 0.178351
455 0.245475
460 0.177951
465 0.216611
470 0.18115
475 0.303847
480 0.156626
485 0.260898
490 0.193824
495 0.297305
500 0.198231
505 0.258837
510 0.248543
515 0.286367
520 0.282748
525 0.393937
530 0.37848
535 0.496404
540 8.39938
545 146.031
550 248.542
555 70.4233
560 8.75057
565 1.4353
570 0.624152
575 0.507541
580 0.298481
585 0.387598
590 0.35164
595 0.400637
600 0.16997
Ex : 558
200 0.149913
205 0.186761
210 0.203284
215 0.220096
220 0.235378
225 0.202263
230 0.247534
235 0.183693
240 0.204484
245 0.186453
250 0.195995
255 0.148259
260 0.219908
265 0.26302
270 0.201429
275 0.253814
280 0.207624
285 0.17902
290 0.227825
295 0.148653
300 0.237756
305 0.281593
310 0.144714
315 0.221871
320 0.240015
325 0.251975
330 0.268644
335 0.189269
340 0.134407
345 0.218811
350 0.257805
355 0.278432
360 0.226431
365 0.301005
370 0.221672
375 0.181432
380 0.197758
385 0.22219
390 0.290566
395 0.182115
400 0.285094
405 0.218122
410 0.255123
415 0.144821
420 0.219692
425 0.21004
430 0.188674
435 0.230679
440 0.267556
445 0.210333
450 0.293288
455 0.183843
460 0.141708
465 0.266611
470 0.293571
475 0.195194
480 0.293166
485 0.186765
490 0.254173
495 0.267582
500 0.371297
505 0.32214
510 0.22643
515 0.225086
520 0.265362
525 0.306764
530 0.354192
535 0.37493
540 0.41182
545 7.49485
550 143.599
555 245.513
560 68.4711
565 8.50813
570 1.37414
575 0.618546
580 0.391614
585 0.328586
590 0.398231
595 0.353928
600 1.05538
Ex : 563
200 0.249552
205 0.174416
210 0.170742
215 0.237219
220 0.230611
225 0.304432
230 0.242294
235 0.285182
240 0.182145
245 0.191547
250 0.181958
255 0.188897
260 0.241443
265 0.24374
270 0.189241
275 0.247059
280 0.330141
285 0.227575
290 0.189159
295 0.237644
300 0.253535
305 0.227313
310 0.197988
315 0.216149
320 0.271635
325 0.17423
330 0.262351
335 0.15984
340 0.311089
345 0.293933
350 0.159877
355 0.223186
360 0.224385
365 0.269193
370 0.255607
375 0.290137
380 0.343334
385 0.371866
390 0.222509
395 0.246269
400 0.16805
405 0.375713
410 0.301147
415 0.229909
420 0.272695
425 0.276126
430 0.272477
435 0.243929
440 0.190418
445 0.222672
450 0.207887
455 0.27661
460 0.209358
465 0.209299
470 0.261586
475 0.260546
480 0.294779
485 0.203553
490 0.285195
495 0.204265
500 0.253386
505 0.231092
510 0.232895
515 0.223956
520 0.272083
525 0.26354
530 0.28607
535 0.355969
540 0.342208
545 0.439602
550 7.40216
555 137.455
560 232.965
565 67.1609
570 8.31038
575 1.34447
580 0.375312
585 0.34333
590 0.271212
595 0.273089
600 0.210561
Ex : 568
200 0.296928
205 0.195528
210 0.220763
215 0.215525
220 0.286625
225 0.169689
230 0.182704
235 0.186611
240 0.252633
245 0.191899
250 0.26373
255 0.321567
260 0.313412
265 0.335577
270 0.289526
275 0.297282
280 0.359079
285 0.220956
290 0.233095
295 0.206379
300 0.283729
305 0.282292
310 0.156903
315 0.149816
320 0.171697
325 0.242807
330 0.258052
335 0.261207
340 0.297519
345 0.212221
350 0.270899
355 0.231213
360 0.343106
365 0.33472
370 0.247489
375 0.281502
380 0.227943
385 0.188063
390 0.196027
395 0.236923
400 0.222259
405 0.167976
410 0.244296
415 0.240078
420 0.211042
425 0.365666
430 0.219019
435 0.2775
440 0.238236
445 0.173533
450 0.252174
455 0.269726
460 0.250385
465 0.282223
470 0.219254
475 0.279168
480 0.279988
485 0.37626
490 0.253093
495 0.210326
500 0.316227
505 0.205151
510 0.181238
515 0.203013
520 0.280731
525 0.276746
530 0.272669
535 0.364989
540 0.352527
545 0.306856
550 0.40306
555 5.7965
560 122.399
565 228.996
570 68.5931
575 8.49724
580 1.42057
585 0.673657
590 0.389518
595 0.309787
600 0.434913
Ex : 573
200 0.271691
205 0.22937
210 0.179091
215 0.270718
220 0.18679
225 0.215184
230 0.166721
235 0.229839
240 0.191833
245 0.193303
250 0.207819
255 0.157123
260 0.246783
265 0.219347
270 0.169621
275 0.251467
280 0.242003
285 0.285372
290 0.326417
295 0.272607
300 0.201909
305 0.182089
310 0.1842
315 0.228005
320 0.26535
325 0.416142
330 0.194795
335 0.339181
340 0.296839
345 0.164327
350 0.310369
355 0.180712
360 0.199578
365 0.244755
370 0.246928
375 0.193628
380 0.209503
385 0.223346
390 0.213946
395 0.250872
400 0.220301
405 0.290068
410 0.331188
415 0.260332
420 0.196053
425 0.31611
430 0.332228
435 0.362086
440 0.276571
445 0.201842
450 0.243882
455 0.210319
460 0.31764
465 0.233471
470 0.287847
475 0.298575
480 0.300427
485 0.190568
490 0.186518
495 0.285692
500 0.252117
505 0.25017
510 0.315065
515 0.281526
520 0.234593
525 0.280339
530 0.278729
535 0.30753
540 0.277302
545 0.251875
550 0.285132
555 0.537456
560 4.67858
565 106.639
570 205.168
575 63.3005
580 7.78969
585 1.25263
590 0.467312
595 0.280497
600 0.507734
Ex : 578
200 0.207679
205 0.265931
210 0.215821
215 0.266199
220 0.239717
225 0.25457
230 0.223987
235 0.219314
240 0.279253
245 0.302364
250 0.210599
255 0.212748
260 0.320143
265 0.266429
270 0.289663
275 0.255387
280 0.255924
285 0.185257
290 0.237984
295 0.289601
300 0.246451
305 0.378314
310 0.466124
315 0.214343
320 0.203561
325 0.21785
330 0.247475
335 0.211624
340 0.267636
345 0.33899
350 0.345737
355 0.226387
360 0.23733
365 0.239882
370 0.28914
375 0.32505
380 0.219896
385 0.235852
390 0.242473
395 0.238476
400 0.208171
405 0.387689
410 0.245672
415 0.198961
420 0.228884
425 0.294535
430 0.363686
435 0.225642
440 0.184084
445 0.223786
450 0.341092
455 0.227088
460 0.251745
465 0.259995
470 0.195568
475 0.323011
480 0.296279
485 0.32931
490 0.245565
495 0.455556
500 0.276119
505 0.231064
510 0.280281
515 0.223739
520 0.181611
525 0.285541
530 0.373759
535 0.32398
540 0.309546
545 0.25019
550 0.246183
555 0.299979
560 0.356538
565 4.45734
570 95.156
575 182.524
580 54.8535
585 6.78727
590 1.10977
595 0.4382
600 0.349341
Ex : 583
200 0.348161
205 0.193898
210 0.206759
215 0.198338
220 0.34868
225 0.304663
230 0.286623
235 0.225147
240 0.218559
245 0.219473
250 0.236813
255 0.281951
260 0.149464
265 0.262513
270 0.236973
275 0.246508
280 0.255085
285 0.206565
290 0.24758
295 0.227081
300 0.340826
305 0.311589
310 0.261376
315 0.247865
320 0.29368
325 0.167711
330 0.227921
335 0.177029
340 0.157714
345 0.154791
350 0.351081
355 0.248444
360 0.231692
365 0.205452
370 0.253374
375 0.339392
380 0.366115
385 0.175018
390 0.229118
395 0.250607
400 0.20555
405 0.229332
410 0.220131
415 0.260714
420 0.231261
425 0.278902
430 0.392228
435 0.20176
440 0.268521
445 0.279242
450 0.252058
455 0.147997
460 0.2323
465 0.306187
470 0.288278
475 0.245225
480 0.286033
485 0.31278
490 0.232113
495 0.204846
500 0.16206
505 0.39899
510 0.232231
515 0.283923
520 0.24954
525 0.21263
530 0.329929
535 0.252902
540 0.217015
545 0.265168
550 0.281963
555 0.349754
560 0.425644
565 0.37129
570 3.72322
575 85.789
580 159.026
585 45.4846
590 5.67029
595 0.941752
600 1.36521
Ex : 588
200 0.321902
205 0.187278
210 0.352868
215 0.283969
220 0.174058
225 0.208864
230 0.186404
235 0.393507
240 0.212319
245 0.213941
250 0.161359
255 0.171956
260 0.211548
265 0.162528
270 0.186746
275 0.171203
280 0.188334
285 0.228362
290 0.23875
295 0.278835
300 0.420032
305 0.253565
310 0.183998
315 0.206223
320 0.17217
325 0.22416
330 0.190478
335 0.221771
340 0.275361
345 0.19507
350 0.255596
355 0.31898
360 0.272466
365 0.173056
370 0.210781
375 0.292098
380 0.252374
385 0.221845
390 0.273204
395 0.236617
400 0.225452
405 0.216791
410 0.194929
415 0.214862
420 0.220888
425 0.201366
430 0.183832
435 0.290882
440 0.191937
445 0.322614
450 0.306098
455 0.262459
460 0.249192
465 0.234742
470 0.262868
475 0.344741
480 0.241839
485 0.26938
490 0.288577
495 0.248302
500 0.358196
505 0.261657
510 0.349068
515 0.327758
520 0.376901
525 0.302124
530 0.302255
535 0.231227
540 0.296892
545 0.227517
550 0.31083
555 0.340498
560 0.321752
565 0.346747
570 0.444874
575 3.89492
580 79.1306
585 139.408
590 40.2028
595 4.93461
600 2.05342
Ex : 593
200 0.239037
205 0.238233
210 0.290685
215 0.295326
220 0.27883
225 0.195544
230 0.25608
235 0.243324
240 0.236707
245 0.214715
250 0.152923
255 0.18976
260 0.15957
265 0.150067
270 0.22499
275 0.208989
280 0.328657
285 0.349073
290 0.358123
295 0.236016
300 0.18212
305 0.25581
310 0.167354
315 0.276723
320 0.297896
325 0.258929
330 0.223855
335 0.277021
340 0.227548
345 0.188633
350 0.225344
355 0.302201
360 0.355464
365 0.306903
370 0.3687
375 0.263508
380 0.235675
385 0.280066
390 0.349814
395 0.395093
400 0.262157
405 0.374207
410 0.223178
415 0.284891
420 0.318613
425 0.235263
430 0.227954
435 0.239874
440 0.248808
445 0.257933
450 0.209035
455 0.209832
460 0.248441
465 0.294165
470 0.267135
475 0.225506
480 0.275178
485 0.25387
490 0.344895
495 0.384372
500 0.310387
505 0.330024
510 0.202937
515 0.174149
520 0.303847
525 0.33452
530 0.355069
535 0.351887
540 0.301865
545 0.259332
550 0.333182
555 0.326495
560 0.277789
565 0.312243
570 0.238413
575 0.347403
580 2.81706
585 62.3892
590 113.067
595 33.403
600 4.51278
Ex : 598
200 0.247929
205 0.25636
210 0.303253
215 0.215843
220 0.297732
225 0.249876
230 0.359468
235 0.253906
240 0.244798
245 0.302654
250 0.313637
255 0.191901
260 0.154084
265 0.267796
270 0.259644
275 0.31524
280 0.319101
285 0.283715
290 0.265878
295 0.331199
300 0.274179
305 0.199507
310 0.195091
315 0.268011
320 0.201865
325 0.291676
330 0.204562
335 0.282761
340 0.295461
345 0.231082
350 0.266144
355 0.240726
360 0.269574
365 0.278591
370 0.280672
375 0.364582
380 0.290696
385 0.266567
390 0.283415
395 0.246215
400 0.328214
405 0.29726
410 0.283509
415 0.218814
420 0.277813
425 0.190986
430 0.184023
435 0.226203
440 0.228118
445 0.281237
450 0.256425
455 0.318222
460 0.248625
465 0.287859
470 0.383834
475 0.34459
480 0.270002
485 0.257542
490 0.233153
495 0.313156
500 0.228509
505 0.252096
510 0.261343
515 0.235665
520 0.260794
525 0.22824
530 0.25519
535 0.232497
540 0.200246
545 0.241052
550 0.326728
555 0.30674
560 0.231018
565 0.265953
570 0.317259
575 0.356158
580 0.350067
585 2.54799
590 55.6671
595 98.038
600 58.2384
Ex : 603
200 0.25947
205 0.270187
210 0.252779
215 0.317641
220 0.223333
225 0.267059
230 0.27715
235 0.300487
240 0.317123
245 0.378889
250 0.316063
255 0.250103
260 0.256009
265 0.226419
270 0.276505
275 0.324714
280 0.307619
285 0.379192
290 0.29423
295 0.252406
300 0.253594
305 0.204209
310 0.126777
315 0.317556
320 0.275042
325 0.209382
330 0.21374
335 0.217287
340 0.266862
345 0.294891
350 0.335277
355 0.212772
360 0.276638
365 0.324553
370 0.259626
375 0.235371
380 0.259165
385 0.255846
390 0.272728
395 0.319245
400 0.221514
405 0.309202
410 0.291493
415 0.287378
420 0.26989
425 0.320724
430 0.239012
435 0.182562
440 0.246126
445 0.284731
450 0.201654
455 0.240418
460 0.303051
465 0.341973
470 0.33502
475 0.313273
480 0.296896
485 0.265489
490 0.230317
495 0.407194
500 0.345914
505 0.303547
510 0.330643
515 0.264984
520 0.25535
525 0.278643
530 0.252326
535 0.295135
540 0.274369
545 0.413267
550 0.348211
555 0.339695
560 0.38484
565 0.323176
570 0.311902
575 0.271017
580 0.34451
585 0.295519
590 2.56964
595 49.2231
600 94.1934
