File format V 1.0
sam. 21. janv. 08:41:20 2017
Operator : 
Comments : 

=============================================
SpectroFluorometer parameters
Mode : 3D measurement
Data : Fluorescence
Phospho. : Ordinary
Spectrum : Fluorescence

Scan speed : 2400 nm/mn
Response : 100 ms
PM Voltage : 700 V
Shutter : On

Lambda Ex. Start : 203
Lambda Ex. End : 603
Lambda Ex. Step : 5
Ex. Slit : 5 nm

Lambda Em. Start : 200
Lambda Em. End : 600
Lambda Em. Step : 5
Em. Slit : 5 nm

Repetition : 1
Decal lambda em : 10
=============================================
DATA
Ex : 203
200 4.89756
205 4.97162
210 2.38978
215 5.67739
220 7.16818
225 5.85523
230 4.43267
235 5.66826
240 4.00111
245 5.18173
250 5.08166
255 3.07072
260 5.49945
265 5.42439
270 5.85196
275 4.00877
280 4.38871
285 5.55747
290 5.06774
295 4.62483
300 4.52257
305 4.04716
310 3.42188
315 5.14382
320 5.12016
325 5.16065
330 4.48313
335 4.28772
340 3.80594
345 3.64608
350 9.78787
355 6.32848
360 3.24857
365 3.09486
370 5.47802
375 4.07205
380 6.41884
385 5.17469
390 4.59642
395 4.30797
400 5.97884
405 4.84072
410 5.76382
415 5.02332
420 4.67033
425 5.95893
430 5.17183
435 3.32733
440 4.98777
445 5.03237
450 5.25395
455 4.49391
460 3.40687
465 4.06522
470 3.2746
475 4.50403
480 7.19382
485 4.65348
490 3.32944
495 4.07067
500 3.77813
505 6.30433
510 5.21759
515 4.59838
520 3.34536
525 4.89902
530 4.46985
535 3.18778
540 3.06671
545 5.5948
550 3.85884
555 5.56644
560 4.30427
565 5.72767
570 3.27984
575 4.58163
580 4.6479
585 5.00359
590 4.24139
595 7.59046
600 0.863766
Ex : 208
200 5.11735
205 4.16075
210 5.51581
215 4.34292
220 5.1685
225 3.97145
230 2.9308
235 7.2229
240 3.30156
245 4.43335
250 6.3756
255 10.1557
260 7.21417
265 3.54226
270 3.00745
275 4.44903
280 5.51562
285 3.32749
290 5.07687
295 4.10222
300 3.3757
305 3.16935
310 4.47213
315 3.92404
320 5.63595
325 3.82928
330 4.63426
335 2.91235
340 3.54289
345 3.21298
350 6.30103
355 3.81875
360 3.70894
365 5.26988
370 3.87313
375 4.68678
380 3.46184
385 3.07493
390 3.83537
395 3.12804
400 4.54529
405 4.23166
410 3.96482
415 6.28921
420 7.13303
425 4.95589
430 6.24315
435 3.38148
440 3.56627
445 7.85761
450 6.61651
455 4.26876
460 6.17857
465 3.59271
470 6.68811
475 6.34133
480 4.83429
485 5.14188
490 5.98415
495 6.20237
500 4.98774
505 2.44913
510 4.99397
515 5.05954
520 4.00785
525 3.45037
530 6.13282
535 4.80439
540 5.03768
545 2.99779
550 4.30921
555 6.02151
560 4.59661
565 3.25486
570 5.66719
575 3.53582
580 5.63576
585 6.09127
590 6.3711
595 4.69702
600 8.36264
Ex : 213
200 3.54587
205 4.39142
210 5.54651
215 4.91449
220 4.64876
225 4.04175
230 4.79249
235 5.04745
240 4.99337
245 5.5257
250 3.41824
255 5.37282
260 4.70855
265 3.54459
270 4.05895
275 4.13153
280 3.27312
285 4.14828
290 5.46012
295 3.75259
300 3.78012
305 3.47335
310 4.70204
315 4.08394
320 7.06248
325 2.68837
330 5.60992
335 6.51052
340 3.77507
345 4.74245
350 4.91926
355 4.68552
360 4.1908
365 4.41508
370 3.02789
375 4.1944
380 5.23137
385 4.44135
390 5.74009
395 4.2858
400 3.72608
405 2.7182
410 3.46116
415 4.4353
420 6.45204
425 3.97806
430 4.30746
435 3.474
440 6.20728
445 5.70486
450 3.29561
455 3.92824
460 3.28773
465 3.9312
470 8.27617
475 3.03873
480 5.13709
485 8.23779
490 4.80192
495 5.5978
500 5.69803
505 6.76194
510 4.20036
515 6.78711
520 7.99491
525 2.99756
530 5.10555
535 5.08259
540 6.43083
545 4.94024
550 5.00643
555 3.54037
560 3.78004
565 5.04685
570 5.86213
575 4.57061
580 4.05177
585 4.19289
590 5.34123
595 5.60163
600 0.637445
Ex : 218
200 5.14623
205 6.02189
210 3.68072
215 4.13697
220 4.74824
225 5.80147
230 7.4318
235 5.55176
240 7.32799
245 4.59235
250 3.64741
255 5.17623
260 5.57083
265 4.53996
270 2.91577
275 2.64026
280 4.78945
285 4.09394
290 5.07169
295 4.18583
300 4.38605
305 6.52694
310 6.62908
315 4.48311
320 3.63239
325 8.19635
330 4.37952
335 6.52211
340 4.14407
345 4.45543
350 2.83019
355 5.94011
360 5.50828
365 4.98199
370 5.85118
375 7.16176
380 5.44293
385 2.11512
390 4.78047
395 4.21937
400 4.48418
405 4.45265
410 3.70305
415 5.48666
420 5.19874
425 3.91385
430 4.07479
435 4.36534
440 5.13292
445 4.52771
450 3.32363
455 4.33237
460 7.33803
465 5.85414
470 7.39213
475 5.27222
480 4.68072
485 4.3243
490 3.47564
495 5.32347
500 3.38229
505 2.67694
510 4.79894
515 4.89108
520 4.5404
525 5.80062
530 4.77741
535 5.02172
540 3.85562
545 6.05711
550 5.8967
555 3.13458
560 5.23679
565 4.81345
570 5.46179
575 5.26277
580 5.0089
585 4.07241
590 5.06503
595 4.86238
600 0.553321
Ex : 223
200 4.57658
205 5.23944
210 3.94039
215 2.7633
220 3.98876
225 3.2576
230 4.23406
235 4.8809
240 3.83398
245 7.86465
250 2.42744
255 3.12121
260 4.56465
265 4.1072
270 2.96563
275 4.31695
280 3.83093
285 9.32657
290 4.70095
295 3.53533
300 4.6934
305 5.55456
310 4.36796
315 4.6587
320 4.44137
325 3.94813
330 4.4603
335 6.81042
340 5.28342
345 4.67777
350 5.03987
355 4.64274
360 4.69427
365 7.53054
370 6.42392
375 2.9207
380 3.30517
385 6.11352
390 5.05486
395 5.02288
400 4.20305
405 6.21255
410 4.54021
415 3.04234
420 3.03619
425 5.5818
430 5.28668
435 3.822
440 4.48444
445 3.17677
450 5.15698
455 4.19278
460 3.57884
465 3.62414
470 2.89612
475 3.14386
480 4.55514
485 6.14383
490 3.76344
495 3.85332
500 4.16843
505 4.86193
510 6.3925
515 4.87421
520 3.77946
525 5.02186
530 2.40775
535 3.33041
540 4.9437
545 5.6427
550 5.63561
555 3.23175
560 4.3879
565 4.99642
570 3.65208
575 2.94884
580 5.65279
585 4.44128
590 3.89661
595 6.32749
600 2.19705
Ex : 228
200 4.02075
205 4.88105
210 2.88655
215 4.48109
220 3.58055
225 4.86081
230 3.96653
235 7.89172
240 5.39786
245 3.30343
250 5.03155
255 6.24586
260 3.04817
265 4.80832
270 4.36343
275 5.55289
280 6.5843
285 3.86639
290 3.61329
295 4.00856
300 2.83103
305 4.96981
310 2.73792
315 3.2042
320 2.87679
325 3.79897
330 3.45418
335 3.02227
340 3.6245
345 4.15216
350 3.59838
355 5.10439
360 6.52481
365 3.91479
370 3.54533
375 4.04715
380 5.0641
385 4.92289
390 5.26243
395 4.06239
400 5.17252
405 3.8406
410 4.0275
415 6.03911
420 4.22822
425 4.34219
430 3.59003
435 3.04876
440 4.64192
445 4.28513
450 4.19908
455 4.71405
460 3.8809
465 4.11248
470 8.71165
475 6.28418
480 3.26244
485 3.57642
490 6.21006
495 4.77385
500 5.17255
505 6.68077
510 4.96775
515 5.12733
520 3.90487
525 5.82488
530 4.72531
535 4.00162
540 4.21575
545 4.80047
550 4.87755
555 4.59908
560 4.59989
565 4.39578
570 4.47855
575 4.72097
580 3.06979
585 2.54801
590 6.21809
595 7.98123
600 5.69373
Ex : 233
200 5.14876
205 7.43778
210 5.8331
215 5.15655
220 4.69151
225 5.18113
230 5.59272
235 7.29452
240 4.45776
245 5.7934
250 3.45855
255 2.74584
260 2.61511
265 3.12861
270 3.76646
275 3.42046
280 2.16519
285 6.95359
290 3.26098
295 3.34495
300 2.42487
305 4.24682
310 2.74963
315 2.9864
320 3.63452
325 3.27143
330 4.78132
335 4.90218
340 4.81972
345 3.22149
350 4.03748
355 4.69116
360 3.9085
365 2.62786
370 4.5602
375 3.39386
380 3.87632
385 2.07416
390 2.39794
395 6.61069
400 3.49769
405 4.67369
410 3.93655
415 5.06049
420 3.46937
425 4.38086
430 4.37039
435 4.1138
440 5.69747
445 4.03204
450 2.73923
455 4.93395
460 5.58825
465 3.89237
470 3.67739
475 2.75805
480 4.1971
485 3.1811
490 5.08239
495 4.45726
500 3.26003
505 1.89879
510 3.07808
515 5.34362
520 4.09549
525 2.52798
530 3.4846
535 3.73262
540 3.91441
545 3.37673
550 4.45226
555 4.41551
560 4.39077
565 4.1398
570 3.80973
575 4.71212
580 5.69621
585 2.98906
590 5.60065
595 5.69847
600 0.648464
Ex : 238
200 3.28028
205 4.20306
210 2.6128
215 4.98392
220 3.55038
225 4.39517
230 2.67741
235 2.32623
240 2.97713
245 2.80009
250 3.27798
255 2.72052
260 3.95397
265 3.64092
270 2.30489
275 5.52838
280 3.48752
285 2.65266
290 2.31211
295 3.29418
300 3.77492
305 2.90395
310 5.39261
315 3.5908
320 3.46835
325 2.65726
330 4.21927
335 3.53769
340 3.23186
345 2.64108
350 2.7886
355 3.62997
360 3.75602
365 3.25734
370 4.97702
375 3.60837
380 2.70868
385 2.81698
390 3.36986
395 5.00701
400 3.61014
405 3.48133
410 4.90602
415 3.56153
420 3.35167
425 4.50024
430 3.53371
435 2.24529
440 4.01435
445 3.35503
450 4.64161
455 3.50116
460 2.95817
465 3.24123
470 2.8169
475 3.82554
480 2.89736
485 4.7671
490 3.22108
495 2.68661
500 3.29706
505 4.32605
510 3.25632
515 3.83128
520 2.47393
525 1.58569
530 3.58942
535 3.82001
540 4.68911
545 5.2536
550 5.87142
555 4.51832
560 3.53179
565 3.52609
570 4.16842
575 2.99562
580 4.61232
585 2.75609
590 2.75811
595 1.6955
600 6.06404
Ex : 243
200 2.69811
205 2.32216
210 2.09574
215 1.98492
220 4.30183
225 3.04055
230 2.60257
235 2.84544
240 3.44357
245 3.57993
250 3.86386
255 2.86897
260 2.93396
265 3.68328
270 4.16847
275 4.99429
280 2.78384
285 2.72422
290 3.12054
295 2.26101
300 3.5885
305 3.2099
310 3.06105
315 2.26889
320 2.23826
325 3.02693
330 2.92436
335 5.10554
340 3.16192
345 3.68308
350 4.50864
355 2.52235
360 3.62366
365 3.16411
370 4.41373
375 3.59239
380 3.85928
385 4.25688
390 3.68138
395 4.356
400 5.68999
405 3.4662
410 3.76915
415 2.88018
420 5.93094
425 3.03532
430 2.16118
435 4.05828
440 2.57917
445 4.02822
450 3.65988
455 4.11399
460 2.74578
465 4.7961
470 3.0041
475 4.05283
480 2.55612
485 3.90838
490 3.25838
495 3.20322
500 5.73855
505 5.82157
510 3.01799
515 1.9317
520 2.34614
525 3.27496
530 2.79381
535 3.46628
540 2.89273
545 2.24738
550 3.12454
555 2.68469
560 2.45971
565 2.45464
570 2.38237
575 3.51111
580 5.10501
585 3.0166
590 1.97935
595 6.51672
600 0.741578
Ex : 248
200 1.77904
205 2.379
210 3.57407
215 4.11537
220 3.16092
225 4.23963
230 2.61637
235 2.78013
240 4.23002
245 2.8454
250 3.2656
255 3.24552
260 1.97836
265 2.80028
270 1.97967
275 2.04566
280 2.12786
285 2.25893
290 2.69473
295 3.78582
300 2.18172
305 3.39728
310 2.6581
315 2.98135
320 2.5205
325 3.02161
330 2.90261
335 3.44663
340 4.91016
345 3.81481
350 2.24998
355 1.782
360 3.54174
365 3.24731
370 4.05712
375 4.08533
380 2.57336
385 2.26612
390 4.86714
395 3.72374
400 2.4755
405 3.32926
410 2.42836
415 2.35789
420 3.33595
425 2.48284
430 2.88421
435 2.08076
440 3.43863
445 2.44306
450 2.74106
455 2.37405
460 2.54508
465 2.17125
470 2.01222
475 1.97911
480 3.79458
485 3.22423
490 2.80216
495 3.29798
500 4.01639
505 2.03006
510 2.15911
515 2.97229
520 2.4801
525 3.52037
530 3.5854
535 2.53393
540 2.0035
545 2.76324
550 2.77043
555 3.29972
560 3.41878
565 3.21013
570 2.32081
575 1.92755
580 1.8101
585 1.6926
590 3.24509
595 2.89042
600 8.89555
Ex : 253
200 1.36795
205 1.45406
210 2.42653
215 2.60682
220 2.9058
225 2.95153
230 1.70245
235 2.62417
240 2.25583
245 2.11896
250 2.03574
255 2.03557
260 2.61571
265 2.15081
270 1.56779
275 2.53692
280 2.20289
285 2.33336
290 2.24044
295 2.35798
300 1.73437
305 2.55508
310 1.99186
315 1.96396
320 3.28436
325 2.0254
330 1.19087
335 2.20263
340 2.29039
345 1.4347
350 2.40818
355 2.53288
360 3.04509
365 2.12524
370 1.46398
375 1.58533
380 1.8361
385 2.69984
390 1.91055
395 2.66175
400 1.60697
405 1.54019
410 2.43591
415 3.00881
420 2.51318
425 2.84046
430 2.90799
435 1.90594
440 1.78834
445 3.74832
450 1.87443
455 2.60311
460 2.62996
465 1.73962
470 1.83341
475 2.63937
480 2.545
485 2.56494
490 2.62919
495 3.8218
500 2.36643
505 2.71529
510 4.2907
515 3.41987
520 2.33718
525 1.91884
530 1.95756
535 2.17732
540 1.75598
545 3.02615
550 3.26699
555 3.08565
560 1.9589
565 2.46497
570 2.00468
575 1.81922
580 3.47124
585 1.54139
590 1.66687
595 1.88246
600 0.214216
Ex : 258
200 1.10112
205 1.93053
210 2.72975
215 1.48404
220 1.39693
225 1.26919
230 2.61952
235 1.7605
240 1.53047
245 1.68103
250 1.86432
255 1.22633
260 1.64577
265 1.37653
270 1.45313
275 1.78168
280 1.67361
285 1.48126
290 1.64448
295 1.43173
300 1.58353
305 1.91923
310 2.34689
315 2.66445
320 2.10027
325 1.74522
330 1.16384
335 1.16901
340 2.07707
345 1.66652
350 1.45196
355 1.26235
360 1.74411
365 1.53855
370 1.23788
375 1.81838
380 1.96431
385 2.17616
390 1.36731
395 1.9777
400 2.59935
405 3.08032
410 2.64295
415 2.22394
420 2.25573
425 1.90181
430 1.63729
435 1.74764
440 1.76891
445 1.40793
450 2.00105
455 2.78786
460 3.73004
465 1.75866
470 2.37475
475 2.35832
480 3.01415
485 2.29596
490 1.58087
495 2.72177
500 2.25647
505 1.63992
510 2.92683
515 1.94898
520 2.08903
525 1.74209
530 1.64917
535 1.9469
540 2.35393
545 1.53458
550 1.46688
555 1.88836
560 2.54683
565 1.30075
570 2.66471
575 1.42383
580 1.27509
585 1.85599
590 1.39499
595 1.27799
600 2.61414
Ex : 263
200 1.33954
205 1.11646
210 2.16363
215 0.760493
220 1.17686
225 2.39782
230 2.25995
235 1.62335
240 1.66478
245 0.954921
250 1.91456
255 1.1249
260 1.54258
265 1.26554
270 1.81752
275 1.55081
280 1.154
285 1.15979
290 2.30721
295 1.76547
300 1.36445
305 1.31776
310 1.28918
315 1.11927
320 1.35142
325 1.37007
330 0.93561
335 1.0106
340 1.20582
345 1.32577
350 1.25121
355 1.4457
360 1.53139
365 1.20143
370 2.05397
375 1.39599
380 1.05667
385 1.20677
390 1.13867
395 1.55458
400 1.65263
405 1.57064
410 1.36682
415 2.15913
420 1.6595
425 1.78558
430 2.55209
435 1.97824
440 1.49187
445 2.6146
450 2.42442
455 2.40663
460 2.3142
465 1.53801
470 1.57024
475 2.67073
480 1.48027
485 1.99925
490 2.24489
495 1.40434
500 1.43747
505 1.48511
510 1.48992
515 1.42263
520 2.16434
525 2.15604
530 1.8744
535 1.58088
540 1.34492
545 1.42835
550 1.54651
555 0.99271
560 1.08068
565 1.21545
570 2.05649
575 1.70196
580 1.57626
585 1.70583
590 1.16868
595 1.93399
600 0.22008
Ex : 268
200 1.96461
205 1.19437
210 1.35943
215 1.29678
220 0.760137
225 1.71634
230 1.18468
235 1.47767
240 1.06878
245 1.0476
250 1.24823
255 0.917342
260 1.05397
265 1.11179
270 1.16509
275 0.725767
280 1.08878
285 0.963957
290 1.49706
295 0.829812
300 0.996988
305 0.957061
310 0.85328
315 0.78095
320 1.39846
325 1.32901
330 1.38623
335 1.07458
340 1.07793
345 1.20557
350 1.24158
355 1.2997
360 0.891697
365 1.21671
370 2.03895
375 1.58498
380 1.33397
385 1.19742
390 1.73288
395 1.14021
400 1.26959
405 1.18904
410 1.29708
415 1.84686
420 1.73548
425 1.66757
430 1.19196
435 1.17432
440 1.63076
445 1.81681
450 1.38627
455 1.05428
460 2.01518
465 1.86625
470 1.7762
475 1.31117
480 1.55437
485 1.14709
490 0.819919
495 1.32892
500 1.71689
505 0.95409
510 0.905436
515 1.47479
520 1.03456
525 0.746882
530 1.57917
535 1.30816
540 1.86233
545 1.15403
550 0.912842
555 0.906614
560 1.11481
565 1.27684
570 1.49052
575 0.869087
580 1.26736
585 1.51553
590 1.3238
595 1.23573
600 0.140621
Ex : 273
200 0.918561
205 0.56825
210 0.924241
215 0.69992
220 0.819683
225 1.00728
230 0.920112
235 0.902797
240 1.30245
245 1.1089
250 0.858161
255 0.576457
260 1.14475
265 0.750026
270 1.01111
275 0.780965
280 0.648578
285 0.416988
290 0.578163
295 1.23313
300 0.764389
305 0.592437
310 0.875898
315 1.1293
320 1.39785
325 0.684474
330 1.04691
335 1.07338
340 0.778655
345 1.04692
350 1.03449
355 1.07229
360 0.697085
365 0.595861
370 1.28033
375 1.21334
380 1.35734
385 1.41543
390 1.1406
395 0.79068
400 1.50526
405 1.23323
410 1.04999
415 1.22745
420 1.44302
425 1.89068
430 1.21709
435 0.803986
440 1.4532
445 1.38011
450 0.701896
455 1.13961
460 1.01841
465 1.45952
470 1.07381
475 1.20794
480 1.7088
485 1.05618
490 1.01734
495 1.21747
500 1.6277
505 1.07721
510 0.877966
515 0.884833
520 0.841137
525 0.952922
530 1.3461
535 1.39133
540 1.36778
545 0.928384
550 0.781522
555 1.06393
560 0.827706
565 0.825794
570 1.1772
575 1.17051
580 1.00289
585 1.14092
590 0.828181
595 0.855297
600 0.472262
Ex : 278
200 0.49146
205 0.409039
210 0.537112
215 0.852669
220 0.756515
225 0.726469
230 0.752507
235 0.533915
240 0.848723
245 0.923336
250 1.16119
255 0.742222
260 0.899606
265 0.549949
270 0.606405
275 0.766788
280 1.10135
285 1.05709
290 0.892259
295 1.03777
300 0.97201
305 0.769351
310 0.610521
315 0.901111
320 0.645455
325 0.603388
330 0.757778
335 0.70019
340 0.671635
345 1.1511
350 0.735126
355 0.714395
360 0.925233
365 0.764886
370 1.44775
375 0.842273
380 0.901173
385 1.03149
390 1.19915
395 0.972552
400 1.12663
405 1.20742
410 1.31551
415 0.942546
420 0.93282
425 1.03383
430 0.777437
435 0.869471
440 0.905151
445 0.785394
450 0.966585
455 0.955947
460 1.01431
465 1.26454
470 0.858826
475 1.40997
480 0.970613
485 0.958975
490 0.860974
495 0.679547
500 0.715591
505 1.00764
510 0.508688
515 0.897301
520 0.743135
525 0.869233
530 0.494804
535 0.530003
540 0.999093
545 0.909254
550 0.820406
555 0.90045
560 0.663498
565 0.687588
570 0.548647
575 0.657645
580 0.636584
585 0.648404
590 0.742974
595 1.22977
600 0.139944
Ex : 283
200 0.504234
205 0.40282
210 0.692186
215 0.946545
220 0.684176
225 0.734989
230 0.716138
235 1.1638
240 0.668041
245 0.537813
250 0.527744
255 0.594803
260 0.498045
265 0.386682
270 0.368422
275 0.64951
280 0.95896
285 0.532534
290 0.579155
295 0.842206
300 1.00175
305 0.908186
310 0.578246
315 0.426805
320 0.750122
325 1.13373
330 0.866841
335 1.10099
340 0.757374
345 0.935561
350 0.727957
355 0.74076
360 0.629069
365 0.521951
370 0.860023
375 0.788356
380 0.909928
385 0.654572
390 0.774734
395 1.15653
400 0.809667
405 1.38205
410 1.24099
415 0.926771
420 0.673142
425 0.946723
430 0.813436
435 0.961884
440 1.07487
445 1.19011
450 0.64959
455 0.798266
460 0.959757
465 0.748068
470 0.829562
475 0.781792
480 0.934205
485 0.987334
490 0.967362
495 0.952731
500 0.485113
505 0.700135
510 0.724132
515 0.887678
520 0.937632
525 0.574805
530 0.54296
535 0.979187
540 0.851089
545 0.6083
550 0.574626
555 0.637863
560 0.787286
565 0.965895
570 0.919434
575 0.790871
580 0.612483
585 0.508459
590 0.415795
595 0.526841
600 0.0599525
Ex : 288
200 0.334605
205 0.578811
210 0.490759
215 0.517814
220 0.611885
225 0.481064
230 0.66944
235 0.656513
240 0.58125
245 0.446568
250 0.971163
255 0.545569
260 0.430973
265 0.352898
270 0.37799
275 0.548592
280 0.509657
285 0.646057
290 0.531196
295 0.323677
300 0.481141
305 0.503187
310 0.804155
315 0.906325
320 0.644437
325 0.393567
330 0.574162
335 0.548986
340 0.50052
345 0.686186
350 0.537922
355 0.659657
360 0.632689
365 0.72532
370 0.763976
375 0.613883
380 0.841228
385 0.584134
390 1.19013
395 0.714148
400 0.743964
405 0.872074
410 0.808009
415 0.859313
420 0.602464
425 0.655138
430 1.20093
435 0.774302
440 0.661709
445 1.15551
450 0.897665
455 0.651029
460 0.873558
465 0.714266
470 0.89307
475 0.7811
480 0.679852
485 0.450377
490 0.520958
495 0.541432
500 0.631246
505 0.445587
510 0.411236
515 0.665034
520 0.418834
525 0.616779
530 0.778269
535 0.60746
540 0.685029
545 0.464608
550 0.712214
555 0.632205
560 0.607136
565 0.592095
570 0.855115
575 1.03367
580 0.676722
585 0.464124
590 0.492048
595 0.498117
600 0.489481
Ex : 293
200 0.426977
205 0.277514
210 0.344259
215 0.452293
220 0.363297
225 0.339083
230 0.420854
235 0.440461
240 0.502395
245 0.370559
250 0.507561
255 0.40237
260 0.204829
265 0.389268
270 0.418371
275 0.516143
280 0.617302
285 0.570328
290 0.780793
295 0.841234
300 0.833194
305 0.403292
310 0.547909
315 0.332372
320 0.419951
325 0.570046
330 0.522332
335 0.54064
340 0.586079
345 0.590968
350 0.688506
355 0.696222
360 0.729994
365 0.413364
370 0.722499
375 0.439301
380 0.785826
385 0.910167
390 0.682293
395 0.717399
400 0.721859
405 0.862421
410 0.6341
415 0.837441
420 0.758701
425 0.890084
430 0.652126
435 0.78284
440 0.590472
445 0.594439
450 0.630991
455 0.422793
460 0.596754
465 0.616511
470 0.564394
475 0.45722
480 0.526143
485 0.566393
490 0.482973
495 0.650085
500 0.740832
505 0.347376
510 0.530804
515 0.39164
520 0.537041
525 0.815178
530 0.537118
535 0.595777
540 0.721383
545 0.484948
550 0.527135
555 0.460759
560 0.47101
565 0.547836
570 0.398245
575 0.557199
580 0.753234
585 0.680797
590 0.457631
595 0.69121
600 0.521759
Ex : 298
200 0.656389
205 0.395662
210 0.584767
215 0.387685
220 0.312609
225 0.39467
230 0.340557
235 0.441934
240 0.469802
245 0.317577
250 0.354956
255 0.322432
260 0.469674
265 0.576191
270 0.554358
275 0.379404
280 0.304311
285 0.362132
290 0.593241
295 0.542209
300 0.409288
305 0.305676
310 0.357668
315 0.294887
320 0.540064
325 0.389774
330 0.471749
335 0.451854
340 0.477042
345 0.679289
350 0.773785
355 0.554211
360 0.570195
365 0.514666
370 0.631844
375 0.608269
380 0.61519
385 0.699754
390 0.563079
395 0.705898
400 0.700743
405 0.615703
410 0.56103
415 0.787906
420 0.902862
425 0.859891
430 0.548753
435 0.920741
440 0.759371
445 0.847779
450 0.640903
455 0.637901
460 0.763218
465 0.862188
470 0.586615
475 0.623402
480 0.714171
485 0.482206
490 0.513554
495 0.705188
500 0.59847
505 0.388162
510 0.44466
515 0.347332
520 0.413296
525 0.390066
530 0.373622
535 0.379325
540 0.47154
545 0.52606
550 0.526893
555 0.530057
560 0.724064
565 0.394195
570 0.416867
575 0.516605
580 0.297283
585 0.573684
590 1.10741
595 0.775487
600 0.0882474
Ex : 303
200 0.372273
205 0.214243
210 0.241474
215 0.249906
220 0.494961
225 0.246767
230 0.399191
235 0.314837
240 0.45897
245 0.33075
250 0.388159
255 0.211625
260 0.317457
265 0.516405
270 0.318057
275 0.453026
280 0.272229
285 0.29075
290 0.342954
295 0.526534
300 0.600194
305 0.395831
310 0.306848
315 0.332327
320 0.391793
325 0.45494
330 0.294973
335 0.321686
340 0.347179
345 0.363112
350 0.48852
355 0.384027
360 0.341621
365 0.554154
370 0.578873
375 0.437121
380 0.445415
385 0.619231
390 0.440456
395 0.594523
400 0.596906
405 0.410553
410 0.635726
415 0.621006
420 0.674912
425 0.732454
430 0.783722
435 0.714759
440 0.762354
445 0.620507
450 0.645506
455 0.845463
460 0.560564
465 0.635832
470 0.604332
475 0.656311
480 0.501985
485 0.421044
490 0.358829
495 0.557627
500 0.562775
505 0.454577
510 0.728018
515 0.351623
520 0.356875
525 0.453372
530 0.425524
535 0.500523
540 0.670943
545 0.350954
550 0.32019
555 0.467844
560 0.303943
565 0.344586
570 0.274502
575 0.319886
580 0.356648
585 0.246635
590 0.255813
595 0.529774
600 0.0602863
Ex : 308
200 0.241745
205 0.458711
210 0.364683
215 0.255391
220 0.238186
225 0.346641
230 0.275655
235 0.332275
240 0.352424
245 0.312632
250 0.272529
255 0.299341
260 0.340399
265 0.284919
270 0.247775
275 0.341926
280 0.378195
285 0.243739
290 0.273425
295 0.365983
300 0.467664
305 0.595689
310 0.305243
315 0.411344
320 0.270859
325 0.525079
330 0.375014
335 0.49998
340 0.36974
345 0.332206
350 0.43707
355 0.454069
360 0.614934
365 0.549067
370 0.326631
375 0.65754
380 0.628703
385 0.865168
390 0.553189
395 0.6976
400 0.681659
405 0.792791
410 0.735622
415 0.72555
420 0.859805
425 0.605441
430 0.498879
435 0.80915
440 0.704319
445 0.535703
450 0.601044
455 0.696872
460 0.687811
465 0.485468
470 0.371587
475 0.359388
480 0.495678
485 0.754068
490 0.42548
495 0.392431
500 0.272275
505 0.441712
510 0.476652
515 0.331994
520 0.503023
525 0.353765
530 0.282409
535 0.380844
540 0.386729
545 0.286566
550 0.659662
555 0.404403
560 0.522582
565 0.276881
570 0.272429
575 0.4074
580 0.248874
585 0.422808
590 0.484231
595 0.449254
600 0.246779
Ex : 313
200 0.415978
205 0.280147
210 0.240631
215 0.255166
220 0.22965
225 0.312347
230 0.283492
235 0.167916
240 0.233715
245 0.313953
250 0.344036
255 0.328623
260 0.306167
265 0.228996
270 0.131606
275 0.139494
280 0.161329
285 0.354199
290 0.36103
295 0.348608
300 0.31596
305 0.326246
310 0.49205
315 0.27785
320 0.389027
325 0.330939
330 0.29412
335 0.319104
340 0.315883
345 0.427238
350 0.337759
355 0.58292
360 0.6191
365 0.69504
370 0.600506
375 0.600848
380 0.781696
385 1.0208
390 1.04398
395 1.03656
400 0.891085
405 0.755307
410 1.13134
415 1.03837
420 1.06102
425 0.94051
430 1.12363
435 1.0803
440 0.98085
445 1.07346
450 0.980179
455 1.02225
460 0.929173
465 0.760746
470 0.766296
475 0.753696
480 0.663705
485 0.816984
490 0.685004
495 0.588873
500 0.54129
505 0.444259
510 0.591215
515 0.43694
520 0.336806
525 0.360806
530 0.329315
535 0.347646
540 0.417573
545 0.359603
550 0.260562
555 0.355115
560 0.39913
565 0.328392
570 0.400042
575 0.18707
580 0.238999
585 0.17909
590 0.254085
595 0.318307
600 0.0362221
Ex : 318
200 0.253905
205 0.227208
210 0.191177
215 0.155353
220 0.214932
225 0.214817
230 0.265044
235 0.348936
240 0.214657
245 0.162051
250 0.300505
255 0.24239
260 0.234571
265 0.250073
270 0.297999
275 0.283087
280 0.308945
285 0.183997
290 0.332878
295 0.233259
300 0.216083
305 0.201216
310 0.392168
315 0.726066
320 0.661911
325 0.465448
330 0.544808
335 0.748683
340 0.834464
345 1.74827
350 2.19957
355 2.89017
360 3.60412
365 4.57613
370 5.2658
375 6.38157
380 7.64298
385 8.37349
390 8.43823
395 9.23381
400 9.37872
405 9.66178
410 10.3999
415 9.43891
420 10.0312
425 9.91094
430 9.67169
435 9.33387
440 9.03559
445 8.08177
450 8.22969
455 7.49666
460 6.6235
465 6.44929
470 5.61001
475 5.33298
480 4.65181
485 4.22331
490 3.83097
495 3.18259
500 3.13122
505 2.61452
510 2.22896
515 1.90624
520 1.70457
525 1.56034
530 1.45225
535 1.34481
540 0.98161
545 0.797904
550 0.716094
555 0.585009
560 0.608932
565 0.512065
570 0.589861
575 0.391992
580 0.319124
585 0.352706
590 0.344079
595 0.43079
600 1.26755
Ex : 323
200 0.285777
205 0.289032
210 0.292538
215 0.198225
220 0.174714
225 0.193972
230 0.167375
235 0.369522
240 0.237971
245 0.252724
250 0.29545
255 0.353705
260 0.295324
265 0.167904
270 0.2229
275 0.156259
280 0.199735
285 0.238394
290 0.234462
295 0.300458
300 0.233671
305 0.319887
310 0.335243
315 3.45017
320 13.7437
325 5.97092
330 2.15508
335 2.7365
340 4.18357
345 6.05149
350 8.49941
355 11.6236
360 13.8392
365 16.7584
370 19.5038
375 22.7474
380 26.3037
385 29.2392
390 31.5323
395 33.6079
400 35.5391
405 36.4212
410 36.4712
415 36.5299
420 35.9588
425 35.7099
430 34.2001
435 33.3192
440 32.2417
445 31.6457
450 29.92
455 28.0555
460 26.0653
465 24.0487
470 21.463
475 20.7476
480 17.8208
485 16.8834
490 14.935
495 13.4986
500 11.7954
505 10.1754
510 9.27386
515 7.79662
520 7.18169
525 5.93409
530 4.80222
535 4.05239
540 3.67895
545 3.47117
550 2.97177
555 2.38884
560 1.90242
565 1.77985
570 1.47208
575 1.07017
580 0.770426
585 0.794816
590 0.539703
595 0.609792
600 0.127368
Ex : 328
200 0.209986
205 0.165659
210 0.225205
215 0.164742
220 0.190189
225 0.219438
230 0.205518
235 0.277439
240 0.159408
245 0.246113
250 0.229203
255 0.274971
260 0.219246
265 0.197872
270 0.202583
275 0.178654
280 0.191714
285 0.243367
290 0.19426
295 0.172347
300 0.19459
305 0.185316
310 0.203658
315 0.844983
320 28.9661
325 65.4897
330 20.939
335 5.67769
340 5.48992
345 6.57123
350 9.38044
355 13.2046
360 17.8903
365 20.2348
370 22.1752
375 25.5344
380 28.7172
385 31.8079
390 32.9559
395 36.0808
400 36.463
405 37.7102
410 37.8807
415 37.5719
420 37.8995
425 36.6844
430 35.6488
435 34.4193
440 32.9626
445 32.8549
450 30.7358
455 28.9033
460 27.0439
465 26.4615
470 24.1503
475 21.7998
480 20.6528
485 18.8531
490 17.2191
495 15.679
500 13.6045
505 12.2373
510 11.386
515 9.88677
520 8.39392
525 7.31204
530 6.64308
535 5.49798
540 5.20398
545 4.55442
550 3.95797
555 3.237
560 2.9878
565 2.36533
570 2.07505
575 1.50757
580 1.22238
585 0.957039
590 0.735368
595 0.648513
600 1.32049
Ex : 333
200 0.210825
205 0.159796
210 0.244512
215 0.18179
220 0.19665
225 0.150735
230 0.249945
235 0.160445
240 0.191111
245 0.228731
250 0.196731
255 0.15865
260 0.129284
265 0.16277
270 0.190617
275 0.25462
280 0.174537
285 0.148398
290 0.219683
295 0.252673
300 0.237543
305 0.306505
310 0.243698
315 0.137003
320 3.77698
325 76.4196
330 128.609
335 34.8446
340 7.07099
345 5.52045
350 5.73753
355 6.99339
360 10.4686
365 14.7992
370 16.0162
375 15.9115
380 17.4374
385 18.1921
390 19.9594
395 20.965
400 21.1221
405 21.6676
410 22.1804
415 21.5461
420 21.5147
425 21.0168
430 20.4387
435 20.0155
440 19.4366
445 18.9466
450 18.4002
455 17.9776
460 17.304
465 16.9202
470 16.3682
475 15.3089
480 14.4635
485 13.9032
490 12.7335
495 12.1312
500 11.4211
505 10.1188
510 9.06225
515 8.48495
520 7.61192
525 6.96473
530 6.30129
535 5.99364
540 4.9712
545 4.4768
550 3.75435
555 3.44141
560 2.8105
565 2.56557
570 2.28846
575 1.68687
580 1.35423
585 1.1543
590 0.701313
595 0.62855
600 0.426008
Ex : 338
200 0.280918
205 0.143362
210 0.158113
215 0.115353
220 0.172065
225 0.204294
230 0.155572
235 0.170424
240 0.180029
245 0.220485
250 0.160905
255 0.119822
260 0.246348
265 0.190627
270 0.144125
275 0.175575
280 0.115123
285 0.144868
290 0.157176
295 0.20321
300 0.218156
305 0.179418
310 0.256068
315 0.198767
320 0.273872
325 7.34717
330 109.892
335 164.423
340 40.7887
345 6.99093
350 4.3036
355 4.43782
360 4.57098
365 6.66287
370 11.487
375 12.6646
380 11.2461
385 10.2186
390 10.6905
395 11.1858
400 12.0725
405 12.1381
410 12.0823
415 12.122
420 12.0476
425 12.2637
430 12.1552
435 12.0873
440 12.1645
445 12.0854
450 11.9081
455 12.1086
460 12.7801
465 13.038
470 12.9638
475 12.7757
480 11.736
485 12.0697
490 11.8198
495 11.6811
500 10.7118
505 9.98385
510 9.4197
515 8.5128
520 7.91736
525 6.89759
530 6.41371
535 5.82474
540 5.39618
545 4.6487
550 4.26589
555 3.74537
560 3.23843
565 2.86993
570 2.35791
575 1.8603
580 1.51032
585 1.26185
590 0.957328
595 0.721919
600 0.506531
Ex : 343
200 0.157181
205 0.223042
210 0.174514
215 0.189142
220 0.114969
225 0.131392
230 0.239132
235 0.169044
240 0.153275
245 0.172618
250 0.177045
255 0.225458
260 0.141212
265 0.154495
270 0.158924
275 0.129846
280 0.247418
285 0.137169
290 0.23053
295 0.141083
300 0.263858
305 0.128693
310 0.144174
315 0.234117
320 0.197969
325 0.241764
330 7.73268
335 122.718
340 177.085
345 42.7492
350 6.85827
355 3.49898
360 3.38211
365 3.05511
370 4.51446
375 8.81707
380 10.219
385 8.92739
390 7.76061
395 7.27702
400 7.64448
405 8.55889
410 8.80849
415 9.1991
420 9.65592
425 9.09179
430 9.04116
435 9.3092
440 9.63441
445 10.4852
450 10.9654
455 11.3601
460 11.6113
465 12.4608
470 13.0315
475 13.5989
480 13.5019
485 12.9466
490 13.4333
495 12.4289
500 12.2744
505 11.474
510 10.7975
515 9.91674
520 9.02301
525 8.10575
530 7.09378
535 6.93518
540 6.18774
545 5.60867
550 4.80465
555 4.32219
560 3.83796
565 3.33632
570 2.66373
575 2.25133
580 2.03898
585 1.31008
590 1.18952
595 0.994909
600 0.194841
Ex : 348
200 0.254005
205 0.14393
210 0.127346
215 0.166585
220 0.133823
225 0.207082
230 0.119923
235 0.150382
240 0.124656
245 0.146506
250 0.209916
255 0.153931
260 0.160706
265 0.0905837
270 0.203033
275 0.111239
280 0.139461
285 0.185739
290 0.214555
295 0.136941
300 0.15687
305 0.179844
310 0.190761
315 0.189368
320 0.182281
325 0.170495
330 0.347726
335 7.84615
340 123.353
345 182.109
350 46.4765
355 6.95384
360 3.10405
365 2.7816
370 2.62625
375 3.77918
380 7.18125
385 9.23101
390 8.24257
395 7.0425
400 6.55707
405 7.15631
410 7.52077
415 8.12547
420 7.90331
425 7.92087
430 8.61701
435 8.9788
440 9.24922
445 10.1964
450 11.0503
455 12.2167
460 13.1106
465 13.9506
470 14.4863
475 14.883
480 15.4909
485 15.7643
490 15.789
495 15.4369
500 14.6636
505 14.2549
510 12.9502
515 12.2953
520 11.4311
525 10.5483
530 9.59201
535 8.69471
540 7.92251
545 7.11151
550 6.30473
555 5.45767
560 4.97164
565 4.16328
570 3.52433
575 2.90296
580 2.31637
585 1.72711
590 1.42851
595 0.985425
600 0.668717
Ex : 353
200 0.160384
205 0.159143
210 0.140835
215 0.137713
220 0.244823
225 0.147993
230 0.123504
235 0.177963
240 0.163676
245 0.152614
250 0.198511
255 0.175774
260 0.140924
265 0.185917
270 0.118932
275 0.0888769
280 0.116255
285 0.0824472
290 0.156646
295 0.130624
300 0.158309
305 0.180198
310 0.160954
315 0.219742
320 0.172548
325 0.18007
330 0.25682
335 0.262149
340 8.20665
345 122.416
350 177.417
355 44.3294
360 6.66427
365 2.74432
370 2.42173
375 2.78025
380 3.25709
385 5.75214
390 8.55322
395 8.27577
400 7.26669
405 6.45768
410 6.62233
415 7.16097
420 7.27256
425 7.66473
430 8.09823
435 8.48477
440 8.97097
445 9.71542
450 11.1067
455 13.0103
460 14.8717
465 15.6494
470 16.0976
475 17.0572
480 17.6466
485 18.1458
490 18.2982
495 17.7353
500 17.4887
505 16.8823
510 15.336
515 14.2479
520 13.6634
525 12.2048
530 11.2967
535 10.2378
540 9.50801
545 8.53995
550 7.8506
555 6.60673
560 5.63048
565 5.40018
570 4.39674
575 3.51231
580 2.5145
585 1.99612
590 1.72466
595 1.2091
600 1.40932
Ex : 358
200 0.107453
205 0.12038
210 0.136461
215 0.157009
220 0.233109
225 0.132229
230 0.189572
235 0.142189
240 0.131565
245 0.134978
250 0.186601
255 0.195342
260 0.14597
265 0.0930267
270 0.1553
275 0.233947
280 0.128864
285 0.143098
290 0.140868
295 0.142048
300 0.18777
305 0.180678
310 0.145124
315 0.135593
320 0.15127
325 0.15316
330 0.160817
335 0.164934
340 0.41007
345 7.40177
350 117.059
355 177.28
360 45.0912
365 6.34774
370 2.63421
375 3.38198
380 3.41899
385 3.22534
390 5.01088
395 9.00408
400 9.02383
405 7.80197
410 6.90712
415 6.86124
420 7.16123
425 7.47901
430 7.93782
435 8.44268
440 9.18714
445 10.0913
450 11.3889
455 12.9423
460 14.7889
465 16.5555
470 17.4209
475 19.11
480 18.9294
485 19.498
490 19.9609
495 19.9296
500 19.628
505 18.5601
510 17.698
515 16.0567
520 15.4565
525 13.7567
530 12.5472
535 11.6729
540 10.6101
545 9.27854
550 8.68798
555 7.12765
560 6.43953
565 5.88951
570 4.82868
575 3.52041
580 2.73912
585 2.37745
590 1.75609
595 1.33864
600 0.866863
Ex : 363
200 0.135854
205 0.185235
210 0.127117
215 0.109719
220 0.15891
225 0.14117
230 0.126202
235 0.124969
240 0.123689
245 0.10062
250 0.0862101
255 0.12298
260 0.132238
265 0.162007
270 0.151237
275 0.0858423
280 0.164478
285 0.149458
290 0.171229
295 0.129174
300 0.184867
305 0.224664
310 0.14407
315 0.12066
320 0.115714
325 0.204877
330 0.18857
335 0.226062
340 0.194996
345 0.268826
350 6.72608
355 111.07
360 173.413
365 44.6463
370 6.56302
375 2.85412
380 3.25177
385 3.51286
390 3.27354
395 4.47046
400 7.96618
405 9.47952
410 8.63552
415 8.01539
420 7.19718
425 7.09394
430 7.68993
435 8.09017
440 9.225
445 10.3844
450 11.8366
455 13.916
460 16.3099
465 18.2638
470 19.0366
475 20.2136
480 21.3996
485 22.1343
490 21.9696
495 22.4854
500 21.1328
505 20.6529
510 19.5682
515 18.3064
520 16.782
525 15.7587
530 14.0344
535 12.9038
540 11.7414
545 10.8975
550 10.0194
555 8.5392
560 7.51802
565 6.30695
570 5.41759
575 4.38719
580 3.5442
585 2.80545
590 2.10464
595 1.49048
600 0.865605
Ex : 368
200 0.136616
205 0.147952
210 0.0705958
215 0.100213
220 0.157644
225 0.141715
230 0.104923
235 0.128898
240 0.137895
245 0.16349
250 0.206095
255 0.111482
260 0.145189
265 0.124383
270 0.0746188
275 0.226625
280 0.155855
285 0.128584
290 0.0892335
295 0.122116
300 0.127871
305 0.0807703
310 0.0926983
315 0.157347
320 0.113834
325 0.148621
330 0.188388
335 0.171929
340 0.156739
345 0.19254
350 0.302369
355 5.66447
360 104.337
365 172.5
370 46.2263
375 7.15664
380 2.85818
385 3.43616
390 3.15308
395 3.19424
400 4.08378
405 7.17359
410 9.39206
415 8.31269
420 7.21316
425 6.67013
430 6.86469
435 7.92292
440 8.70696
445 10.0598
450 12.3509
455 14.9003
460 17.3424
465 19.3933
470 21.5128
475 23.0993
480 24.4209
485 25.2596
490 25.7164
495 25.9386
500 25.64
505 24.3335
510 23.0406
515 21.8441
520 20.0311
525 19.12
530 17.0644
535 15.6241
540 14.4685
545 13.176
550 11.4902
555 10.0108
560 8.86314
565 7.77603
570 6.59956
575 5.25775
580 3.97438
585 3.11214
590 2.3436
595 1.95873
600 1.20133
Ex : 373
200 0.0764488
205 0.121456
210 0.107617
215 0.117629
220 0.152549
225 0.126477
230 0.124257
235 0.0840914
240 0.135214
245 0.168294
250 0.139943
255 0.115242
260 0.12966
265 0.0788597
270 0.101258
275 0.0636416
280 0.106595
285 0.0899392
290 0.0922958
295 0.113145
300 0.11315
305 0.104716
310 0.12001
315 0.116854
320 0.154841
325 0.147977
330 0.12845
335 0.119167
340 0.161987
345 0.144328
350 0.195902
355 0.252997
360 6.31971
365 105.236
370 171.449
375 47.1677
380 7.31928
385 2.97239
390 3.04092
395 3.51425
400 3.32702
405 3.95254
410 6.19764
415 8.79664
420 7.83343
425 6.82507
430 6.70444
435 6.98231
440 8.18635
445 9.70105
450 12.0654
455 14.952
460 18.3399
465 21.0393
470 23.0179
475 24.9406
480 25.6515
485 27.1633
490 27.6149
495 28.241
500 28.0675
505 26.8451
510 25.7294
515 23.1908
520 21.8339
525 20.4971
530 18.7313
535 17.0585
540 15.6836
545 14.4669
550 12.8074
555 11.2146
560 9.98848
565 8.5062
570 7.15217
575 5.76344
580 4.42436
585 3.48601
590 2.65175
595 1.992
600 1.53127
Ex : 378
200 0.137175
205 0.102778
210 0.124947
215 0.129442
220 0.106701
225 0.0933652
230 0.128756
235 0.136881
240 0.113463
245 0.161341
250 0.103105
255 0.107499
260 0.194288
265 0.102073
270 0.112856
275 0.159055
280 0.0722968
285 0.0924043
290 0.0919305
295 0.100618
300 0.111598
305 0.109793
310 0.108653
315 0.104059
320 0.12995
325 0.147993
330 0.136774
335 0.0650584
340 0.109263
345 0.153737
350 0.146616
355 0.203478
360 0.25992
365 6.09667
370 111.407
375 180.325
380 49.192
385 7.82032
390 3.58559
395 3.78608
400 4.18385
405 4.04184
410 4.4347
415 5.79518
420 8.3203
425 7.90147
430 7.66351
435 7.5375
440 8.03465
445 9.38498
450 11.5504
455 14.3325
460 17.2948
465 19.458
470 21.6576
475 23.2895
480 24.6789
485 26.3672
490 26.542
495 26.9532
500 26.3768
505 25.3727
510 24.0881
515 23.1115
520 21.4919
525 19.4956
530 17.8935
535 16.1701
540 14.6521
545 13.2033
550 12.1166
555 10.6293
560 9.5214
565 8.14115
570 6.86623
575 5.53154
580 4.2973
585 3.08243
590 2.38498
595 2.22364
600 1.41824
Ex : 383
200 0.0927047
205 0.0868235
210 0.160215
215 0.120757
220 0.066135
225 0.0812303
230 0.0579815
235 0.164706
240 0.106303
245 0.134318
250 0.106378
255 0.0829884
260 0.0893788
265 0.108813
270 0.0977595
275 0.0826021
280 0.0875427
285 0.0896801
290 0.144916
295 0.0993732
300 0.11155
305 0.111868
310 0.114933
315 0.136956
320 0.168853
325 0.141199
330 0.115569
335 0.109884
340 0.148446
345 0.131701
350 0.11251
355 0.161341
360 0.232621
365 0.27401
370 6.2414
375 110.579
380 187.422
385 53.4666
390 8.407
395 3.18474
400 3.57238
405 4.22406
410 4.36446
415 4.7881
420 4.76123
425 7.61917
430 8.7554
435 8.29545
440 8.27556
445 9.21319
450 11.5685
455 14.3478
460 17.3715
465 19.5072
470 21.9613
475 23.9023
480 25.0821
485 26.0125
490 26.9939
495 26.9945
500 26.2588
505 25.1275
510 23.8867
515 22.8001
520 21.3778
525 19.6145
530 17.9043
535 16.3141
540 15.0076
545 13.5395
550 11.8189
555 10.8347
560 9.47889
565 8.16813
570 6.86459
575 5.55551
580 4.35055
585 3.27439
590 2.49104
595 2.01537
600 1.61554
Ex : 388
200 0.116947
205 0.102789
210 0.076799
215 0.0618315
220 0.0778226
225 0.0852473
230 0.0641218
235 0.0975077
240 0.114253
245 0.0614633
250 0.143821
255 0.118183
260 0.109656
265 0.0869588
270 0.139641
275 0.084301
280 0.148426
285 0.112142
290 0.132627
295 0.101608
300 0.11991
305 0.101324
310 0.102569
315 0.113267
320 0.135149
325 0.128657
330 0.105201
335 0.108268
340 0.111908
345 0.123168
350 0.208979
355 0.190141
360 0.179133
365 0.139847
370 0.251956
375 6.42941
380 115.188
385 188.279
390 51.7282
395 7.73104
400 2.99569
405 3.34502
410 3.80872
415 3.82693
420 3.68659
425 4.31553
430 6.58795
435 9.03744
440 8.7871
445 9.48344
450 11.6777
455 13.7959
460 16.8046
465 19.7575
470 22.2141
475 24.0388
480 25.4693
485 26.775
490 28.2251
495 28.1711
500 27.5597
505 26.6952
510 25.0742
515 23.2456
520 21.8661
525 19.986
530 18.8022
535 17.4216
540 15.3755
545 14.1598
550 12.662
555 11.5406
560 9.92789
565 8.32073
570 7.22629
575 5.73571
580 4.43529
585 3.36344
590 2.6687
595 2.08005
600 2.3575
Ex : 393
200 0.110327
205 0.101504
210 0.103021
215 0.135628
220 0.073593
225 0.130867
230 0.151527
235 0.153312
240 0.104223
245 0.127584
250 0.0839468
255 0.0904847
260 0.0793338
265 0.0865031
270 0.075542
275 0.102099
280 0.137518
285 0.148133
290 0.103578
295 0.123271
300 0.107837
305 0.095983
310 0.102464
315 0.0692196
320 0.140888
325 0.0733895
330 0.0800523
335 0.119828
340 0.114847
345 0.133037
350 0.147583
355 0.115727
360 0.123907
365 0.133279
370 0.183953
375 0.291424
380 5.95278
385 114.13
390 191.881
395 52.4991
400 7.46166
405 2.58391
410 2.71621
415 3.16969
420 2.82317
425 2.91099
430 3.5869
435 5.79652
440 9.06294
445 9.99295
450 12.1384
455 14.249
460 17.4434
465 20.0545
470 22.7084
475 24.6173
480 26.9148
485 28.0102
490 29.0447
495 29.5648
500 28.6218
505 27.3603
510 26.3341
515 24.821
520 23.5318
525 21.5853
530 19.773
535 18.118
540 16.4317
545 15.1244
550 13.7325
555 12.2737
560 10.4328
565 9.1315
570 7.46839
575 6.14701
580 4.62683
585 3.64443
590 2.96352
595 2.29749
600 2.8979
Ex : 398
200 0.115947
205 0.0911331
210 0.125174
215 0.129195
220 0.101814
225 0.0635466
230 0.0972031
235 0.0937401
240 0.103762
245 0.0801266
250 0.132071
255 0.0772189
260 0.0754272
265 0.0877177
270 0.0964897
275 0.102684
280 0.0892016
285 0.13195
290 0.131598
295 0.0721943
300 0.0743222
305 0.112992
310 0.140302
315 0.0779699
320 0.098876
325 0.0952541
330 0.129953
335 0.0932331
340 0.0886265
345 0.0900789
350 0.0928506
355 0.0839542
360 0.110628
365 0.10401
370 0.127023
375 0.272165
380 0.241168
385 5.9872
390 116.034
395 196.455
400 54.1457
405 7.7901
410 2.6147
415 2.49887
420 2.74861
425 2.64119
430 2.8652
435 3.83408
440 6.23069
445 10.4287
450 12.8173
455 15.471
460 17.9517
465 20.6599
470 22.888
475 25.4014
480 27.6423
485 29.4594
490 29.5914
495 30.3006
500 30.05
505 29.2195
510 27.5133
515 26.1233
520 24.517
525 22.606
530 21.0126
535 18.9646
540 17.4605
545 15.7367
550 13.8833
555 12.5831
560 11.0258
565 9.65441
570 8.02656
575 6.2805
580 5.07674
585 3.88168
590 3.06366
595 2.20396
600 1.93668
Ex : 403
200 0.125919
205 0.113855
210 0.128125
215 0.0895125
220 0.174607
225 0.0952499
230 0.105223
235 0.0993288
240 0.126058
245 0.0549693
250 0.133797
255 0.126843
260 0.130077
265 0.0936129
270 0.105696
275 0.0899485
280 0.082576
285 0.0883014
290 0.0710709
295 0.095605
300 0.100757
305 0.134019
310 0.166202
315 0.115259
320 0.122382
325 0.102445
330 0.0856481
335 0.0757596
340 0.0843354
345 0.0985061
350 0.146194
355 0.139502
360 0.0969611
365 0.127984
370 0.167599
375 0.146863
380 0.189551
385 0.28683
390 6.37396
395 117.788
400 192.54
405 52.9352
410 7.71167
415 2.63851
420 2.30143
425 2.70634
430 2.9249
435 3.53377
440 4.99001
445 7.30913
450 12.4291
455 16.5286
460 18.9642
465 21.57
470 24.3863
475 26.3339
480 28.0028
485 29.7068
490 30.528
495 30.6551
500 30.7068
505 29.647
510 28.323
515 26.4656
520 24.9384
525 23.4689
530 21.3493
535 19.7378
540 17.6466
545 15.8347
550 14.3776
555 12.8292
560 11.2199
565 9.62511
570 8.24929
575 6.67738
580 5.11606
585 3.89374
590 3.0053
595 2.29479
600 2.76955
Ex : 408
200 0.112813
205 0.165029
210 0.109569
215 0.0839819
220 0.136024
225 0.125062
230 0.100156
235 0.133064
240 0.107415
245 0.070629
250 0.0902407
255 0.113408
260 0.0966485
265 0.0574321
270 0.0860556
275 0.105803
280 0.0962315
285 0.116975
290 0.118589
295 0.0979817
300 0.0760746
305 0.0801378
310 0.0827721
315 0.0951086
320 0.118119
325 0.156257
330 0.138802
335 0.135564
340 0.0995897
345 0.0699825
350 0.095918
355 0.0985514
360 0.120415
365 0.0967617
370 0.137097
375 0.131494
380 0.160647
385 0.197413
390 0.309371
395 6.52164
400 121.168
405 199.667
410 53.6158
415 7.74291
420 2.58137
425 2.29454
430 2.9032
435 3.46019
440 4.45468
445 6.91834
450 9.83501
455 15.3507
460 20.0455
465 22.3048
470 24.5503
475 26.5163
480 28.4485
485 29.6269
490 31.0597
495 31.8205
500 30.4568
505 29.6015
510 28.5806
515 27.3105
520 25.3237
525 23.2593
530 21.3777
535 19.8829
540 17.6598
545 16.4226
550 14.9615
555 12.8871
560 11.5671
565 9.85743
570 8.20737
575 6.5569
580 5.18061
585 3.93102
590 3.03163
595 2.48717
600 2.34083
Ex : 413
200 0.106977
205 0.0762399
210 0.107253
215 0.0904551
220 0.100878
225 0.112724
230 0.0923842
235 0.084692
240 0.102487
245 0.101971
250 0.112416
255 0.0752299
260 0.0989985
265 0.132272
270 0.0946344
275 0.0955076
280 0.0810544
285 0.114552
290 0.0999874
295 0.0971511
300 0.106189
305 0.0745433
310 0.0924537
315 0.0944652
320 0.0917337
325 0.123726
330 0.0645226
335 0.119174
340 0.114685
345 0.126282
350 0.0927656
355 0.131891
360 0.089686
365 0.136947
370 0.123212
375 0.142147
380 0.146394
385 0.174662
390 0.20097
395 0.288632
400 7.36957
405 125.759
410 203.144
415 52.9286
420 7.57437
425 2.47361
430 2.33886
435 3.22052
440 4.5358
445 6.16117
450 9.0381
455 13.1281
460 17.6715
465 22.5486
470 24.7146
475 26.7048
480 28.3134
485 29.821
490 30.3771
495 30.3894
500 30.4612
505 29.4321
510 28.0623
515 26.3477
520 24.1509
525 22.7811
530 21.1023
535 19.2528
540 17.3762
545 16.2301
550 14.2639
555 12.8738
560 11.1881
565 9.52611
570 8.07899
575 6.50475
580 5.13631
585 4.10436
590 3.0244
595 2.48959
600 2.60922
Ex : 418
200 0.0818617
205 0.0838391
210 0.0791053
215 0.0624127
220 0.0688018
225 0.064631
230 0.0839567
235 0.0737094
240 0.0912667
245 0.0866995
250 0.118535
255 0.109504
260 0.116201
265 0.106346
270 0.139807
275 0.119408
280 0.11678
285 0.112292
290 0.12276
295 0.120183
300 0.0850177
305 0.072101
310 0.122111
315 0.109457
320 0.133403
325 0.0882111
330 0.123755
335 0.108973
340 0.10039
345 0.112722
350 0.105517
355 0.114999
360 0.0844007
365 0.0705057
370 0.100531
375 0.0881749
380 0.110527
385 0.130514
390 0.155091
395 0.164772
400 0.265876
405 6.87727
410 129.674
415 210.975
420 56.4101
425 7.67336
430 2.46715
435 2.50707
440 3.89833
445 5.95115
450 8.66176
455 11.6812
460 15.1427
465 19.1931
470 23.8272
475 26.403
480 27.431
485 28.8557
490 29.19
495 29.0436
500 29.1177
505 28.0983
510 26.7772
515 24.751
520 23.2719
525 21.5859
530 20.1659
535 18.6108
540 16.9879
545 15.4803
550 13.6391
555 12.4648
560 10.8801
565 9.23148
570 7.79546
575 6.30059
580 5.01204
585 3.95196
590 2.85092
595 2.32769
600 0.789075
Ex : 423
200 0.093281
205 0.0944853
210 0.0805653
215 0.0813998
220 0.118762
225 0.100725
230 0.088605
235 0.0876701
240 0.138886
245 0.14791
250 0.0921204
255 0.0872582
260 0.132914
265 0.117028
270 0.0804676
275 0.102821
280 0.0791036
285 0.0690798
290 0.0628687
295 0.0907649
300 0.0656991
305 0.0708855
310 0.0808562
315 0.126473
320 0.0820503
325 0.0775332
330 0.0912263
335 0.0909389
340 0.0915977
345 0.0910757
350 0.0794324
355 0.096028
360 0.0989808
365 0.152089
370 0.132115
375 0.0991736
380 0.0888189
385 0.0842117
390 0.1547
395 0.169998
400 0.209012
405 0.316314
410 7.37189
415 134.825
420 214.902
425 55.0254
430 7.75594
435 2.74624
440 3.32695
445 5.25567
450 7.78883
455 10.9378
460 13.781
465 16.7529
470 20.114
475 24.2023
480 26.7051
485 27.2163
490 27.4815
495 27.6449
500 27.2301
505 25.6861
510 24.6187
515 23.4345
520 21.9426
525 20.5252
530 18.6446
535 17.1089
540 15.403
545 14.374
550 12.5837
555 11.0655
560 9.7099
565 8.81302
570 7.4436
575 5.76549
580 4.43477
585 3.54545
590 2.81761
595 2.08987
600 1.86012
Ex : 428
200 0.089171
205 0.11266
210 0.0510991
215 0.0744142
220 0.107478
225 0.0834832
230 0.075767
235 0.122939
240 0.0833352
245 0.0962002
250 0.153526
255 0.113092
260 0.0805876
265 0.122342
270 0.0762438
275 0.0925981
280 0.0821369
285 0.0650039
290 0.0724299
295 0.0776733
300 0.0799021
305 0.0708083
310 0.0955465
315 0.143825
320 0.087837
325 0.0635616
330 0.0969076
335 0.0801607
340 0.083687
345 0.073363
350 0.0627259
355 0.0844758
360 0.109314
365 0.107828
370 0.0939928
375 0.0764642
380 0.129509
385 0.147012
390 0.123652
395 0.143943
400 0.167747
405 0.193488
410 0.334729
415 8.07982
420 139.453
425 220.232
430 58.7972
435 8.37457
440 3.60885
445 4.51186
450 6.80721
455 9.89507
460 12.3906
465 15.3268
470 17.2948
475 19.8281
480 22.5562
485 25.6371
490 25.5788
495 25.3565
500 24.9633
505 24.1048
510 22.6675
515 20.9831
520 19.6386
525 18.3905
530 17.0245
535 15.728
540 13.9974
545 12.7551
550 11.4677
555 10.3903
560 8.79633
565 7.79778
570 6.43719
575 5.24414
580 4.21951
585 3.22754
590 2.61919
595 1.95013
600 1.02889
Ex : 433
200 0.124652
205 0.0738394
210 0.0889797
215 0.0816282
220 0.0652252
225 0.102588
230 0.0758592
235 0.0727969
240 0.0926023
245 0.0799376
250 0.0985372
255 0.117426
260 0.131399
265 0.0905754
270 0.102403
275 0.0928592
280 0.08047
285 0.0864109
290 0.0573597
295 0.110117
300 0.0826544
305 0.0892407
310 0.0900741
315 0.0784638
320 0.0467708
325 0.0725206
330 0.0732884
335 0.137723
340 0.125866
345 0.0718047
350 0.0925749
355 0.130379
360 0.0898546
365 0.101914
370 0.117613
375 0.147603
380 0.0994144
385 0.144674
390 0.11882
395 0.17392
400 0.142115
405 0.138459
410 0.217166
415 0.325
420 9.25365
425 155.392
430 231.165
435 59.0615
440 9.24899
445 4.74418
450 5.82884
455 8.54697
460 11.2076
465 13.7095
470 15.5257
475 17.2318
480 18.7309
485 21.1259
490 23.4114
495 23.2491
500 22.035
505 21.4895
510 19.9748
515 18.6294
520 17.069
525 15.8692
530 14.9189
535 13.6973
540 12.4659
545 11.257
550 10.1965
555 8.84292
560 8.08631
565 7.04064
570 5.64981
575 4.77926
580 3.81683
585 2.81043
590 2.19829
595 1.58122
600 2.01522
Ex : 438
200 0.0578256
205 0.0881698
210 0.0875851
215 0.0975108
220 0.0976074
225 0.0979034
230 0.090803
235 0.0973989
240 0.0811407
245 0.101571
250 0.0781217
255 0.0780721
260 0.100408
265 0.0849638
270 0.0878651
275 0.0525382
280 0.124605
285 0.102358
290 0.111862
295 0.116235
300 0.142688
305 0.0766958
310 0.0936153
315 0.0620744
320 0.109335
325 0.0908248
330 0.150221
335 0.13747
340 0.12433
345 0.108531
350 0.0990868
355 0.128646
360 0.134218
365 0.0885568
370 0.078187
375 0.109523
380 0.10338
385 0.162355
390 0.108022
395 0.109579
400 0.120857
405 0.119077
410 0.207461
415 0.257097
420 0.446127
425 9.18815
430 157.191
435 252.94
440 64.6166
445 10.4367
450 5.80072
455 7.05765
460 9.54085
465 11.4172
470 13.0288
475 14.3258
480 15.9182
485 16.6867
490 18.2396
495 19.786
500 20.1198
505 18.3177
510 17.4135
515 16.0105
520 14.6809
525 14.1558
530 12.6103
535 11.8144
540 10.5593
545 9.75012
550 8.67134
555 7.65532
560 6.64154
565 6.01838
570 4.94281
575 3.99012
580 3.00523
585 2.37819
590 1.86748
595 1.35749
600 0.859884
Ex : 443
200 0.0684898
205 0.101943
210 0.0836474
215 0.116659
220 0.0722409
225 0.0752343
230 0.0691184
235 0.0914166
240 0.120235
245 0.106933
250 0.0931572
255 0.0707815
260 0.0672689
265 0.0843602
270 0.14275
275 0.107286
280 0.173545
285 0.0956106
290 0.1007
295 0.100044
300 0.0973308
305 0.0648134
310 0.103017
315 0.0901385
320 0.0958343
325 0.101373
330 0.0723985
335 0.10042
340 0.146731
345 0.0966245
350 0.0999947
355 0.122713
360 0.08421
365 0.0830231
370 0.0869025
375 0.0754062
380 0.114485
385 0.0984478
390 0.0856088
395 0.113342
400 0.134066
405 0.148845
410 0.189866
415 0.175291
420 0.263511
425 0.349159
430 10.3461
435 168.63
440 254.538
445 66.0938
450 11.3687
455 6.44972
460 7.29809
465 8.98226
470 10.6994
475 12.2311
480 13.1147
485 13.7032
490 14.239
495 14.6952
500 15.7691
505 15.9999
510 14.4549
515 13.6203
520 12.7151
525 11.5925
530 10.1579
535 9.62391
540 8.43371
545 7.89018
550 7.22076
555 6.38969
560 5.32005
565 4.80181
570 3.81144
575 3.27539
580 2.49822
585 1.89586
590 1.55106
595 1.19575
600 0.861148
Ex : 448
200 0.141374
205 0.103556
210 0.0815229
215 0.116793
220 0.105229
225 0.0856876
230 0.0904723
235 0.140001
240 0.104235
245 0.0697417
250 0.0826437
255 0.111122
260 0.112364
265 0.06791
270 0.101915
275 0.109508
280 0.0828442
285 0.138175
290 0.0848924
295 0.0902634
300 0.089974
305 0.140438
310 0.132706
315 0.146705
320 0.102235
325 0.115948
330 0.111662
335 0.111573
340 0.0711811
345 0.10691
350 0.0902418
355 0.0968597
360 0.0875472
365 0.130805
370 0.115206
375 0.128393
380 0.0942822
385 0.113773
390 0.09486
395 0.12624
400 0.152824
405 0.104825
410 0.117614
415 0.159035
420 0.195151
425 0.312694
430 0.46495
435 10.9738
440 183.844
445 275.035
450 70.785
455 12.2898
460 6.43559
465 6.65222
470 7.82715
475 8.98588
480 9.77716
485 10.4762
490 10.6362
495 10.5037
500 10.5792
505 11.4783
510 12.0336
515 11.2317
520 9.80668
525 9.06468
530 8.33162
535 7.42163
540 6.70765
545 6.03773
550 5.36241
555 4.81774
560 4.13964
565 3.65891
570 3.07283
575 2.49167
580 1.94805
585 1.49187
590 1.17322
595 0.941446
600 1.0113
Ex : 453
200 0.176123
205 0.161333
210 0.0838108
215 0.083201
220 0.0879374
225 0.105404
230 0.0659605
235 0.0866774
240 0.0908276
245 0.094451
250 0.0868936
255 0.102977
260 0.0697279
265 0.0822419
270 0.0926637
275 0.094406
280 0.101671
285 0.119633
290 0.0776971
295 0.0849581
300 0.0757914
305 0.0681161
310 0.0948165
315 0.0934272
320 0.141706
325 0.108979
330 0.121213
335 0.102907
340 0.132489
345 0.0809395
350 0.088946
355 0.0985045
360 0.0713691
365 0.092432
370 0.0871535
375 0.102458
380 0.0671441
385 0.084643
390 0.138697
395 0.10604
400 0.0904249
405 0.1513
410 0.160563
415 0.114805
420 0.156748
425 0.162236
430 0.239466
435 0.466513
440 11.6874
445 193.609
450 280.237
455 68.9739
460 11.4735
465 5.75064
470 5.63542
475 6.28284
480 7.08671
485 7.47283
490 7.63849
495 7.36296
500 7.51159
505 7.11183
510 7.42473
515 8.3589
520 8.25994
525 6.6666
530 6.11375
535 5.67043
540 4.77931
545 4.38774
550 4.03292
555 3.47527
560 3.21085
565 2.62573
570 2.33205
575 1.82818
580 1.43564
585 1.17496
590 0.896715
595 0.681959
600 0.40141
Ex : 458
200 0.1301
205 0.120299
210 0.0757753
215 0.0768302
220 0.0933109
225 0.128081
230 0.0900608
235 0.0706253
240 0.100516
245 0.0856577
250 0.131482
255 0.0975839
260 0.0861294
265 0.117241
270 0.083227
275 0.137035
280 0.0817485
285 0.0576944
290 0.142278
295 0.0935398
300 0.109541
305 0.127652
310 0.118703
315 0.121402
320 0.0980486
325 0.0568476
330 0.0673613
335 0.0708556
340 0.119653
345 0.0875015
350 0.109079
355 0.112149
360 0.0873994
365 0.122906
370 0.0605473
375 0.102362
380 0.161619
385 0.0889226
390 0.123958
395 0.0891973
400 0.149406
405 0.15569
410 0.118969
415 0.0991023
420 0.105294
425 0.15836
430 0.233618
435 0.31015
440 0.534952
445 13.6437
450 206.053
455 295.877
460 72.9108
465 11.2057
470 4.69044
475 4.00023
480 4.60725
485 5.02273
490 5.24643
495 5.05963
500 4.77398
505 4.86454
510 4.53732
515 4.37349
520 5.6041
525 6.04694
530 4.96207
535 4.21243
540 3.9184
545 3.32096
550 2.94223
555 2.61406
560 2.2712
565 1.93342
570 1.58015
575 1.45345
580 1.05926
585 0.832756
590 0.773939
595 0.570623
600 0.327842
Ex : 463
200 0.103922
205 0.101794
210 0.0798341
215 0.103057
220 0.0658218
225 0.0986095
230 0.0810955
235 0.0746272
240 0.06517
245 0.0925888
250 0.106985
255 0.118474
260 0.0968367
265 0.105453
270 0.114181
275 0.0933173
280 0.0692746
285 0.0589574
290 0.101402
295 0.111511
300 0.0683983
305 0.0650299
310 0.101965
315 0.0951814
320 0.0785178
325 0.0813807
330 0.083056
335 0.0533556
340 0.10747
345 0.0920045
350 0.0909197
355 0.106972
360 0.109084
365 0.0888432
370 0.104903
375 0.122416
380 0.0744733
385 0.0760917
390 0.123786
395 0.0850222
400 0.0956453
405 0.125627
410 0.0856064
415 0.146712
420 0.145638
425 0.18382
430 0.194583
435 0.237523
440 0.335422
445 0.615236
450 13.0593
455 209.253
460 315.866
465 77.523
470 11.3308
475 3.9
480 2.82587
485 3.18009
490 3.5533
495 3.61859
500 3.24503
505 3.15428
510 3.25968
515 3.06689
520 2.99452
525 3.54501
530 4.55116
535 3.94254
540 2.94821
545 2.62166
550 2.29096
555 2.01659
560 1.62829
565 1.482
570 1.23441
575 0.979964
580 0.799816
585 0.614802
590 0.56185
595 0.444307
600 0.286339
Ex : 468
200 0.0880163
205 0.138142
210 0.0946917
215 0.0758235
220 0.0932768
225 0.100655
230 0.0842741
235 0.0520072
240 0.087995
245 0.11804
250 0.0874055
255 0.0919607
260 0.103021
265 0.119713
270 0.0772814
275 0.116213
280 0.0825709
285 0.0707702
290 0.0959774
295 0.0724654
300 0.0800001
305 0.0769473
310 0.105997
315 0.0878667
320 0.101752
325 0.110513
330 0.0983818
335 0.101987
340 0.0697938
345 0.0915119
350 0.0843919
355 0.108137
360 0.101026
365 0.0905145
370 0.124086
375 0.112817
380 0.108797
385 0.124737
390 0.0978877
395 0.1183
400 0.123399
405 0.0791992
410 0.0936259
415 0.0961299
420 0.148948
425 0.12335
430 0.166695
435 0.161915
440 0.187825
445 0.291812
450 0.494083
455 13.487
460 209.148
465 326.957
470 79.2508
475 10.79
480 3.22475
485 2.2705
490 2.25972
495 2.58579
500 2.64223
505 2.41109
510 2.27026
515 2.17414
520 2.22993
525 2.1878
530 2.35894
535 3.32078
540 3.27307
545 2.41489
550 2.11938
555 1.91218
560 1.48321
565 1.15507
570 0.943589
575 0.83533
580 0.642602
585 0.51118
590 0.444367
595 0.402606
600 0.427375
Ex : 473
200 0.0925202
205 0.0708332
210 0.0844445
215 0.0894961
220 0.109813
225 0.0894025
230 0.0956425
235 0.0807206
240 0.0697002
245 0.0770117
250 0.0933951
255 0.101527
260 0.132232
265 0.0866593
270 0.123878
275 0.0905045
280 0.0884326
285 0.0861186
290 0.0879742
295 0.0871702
300 0.0914667
305 0.0753521
310 0.152449
315 0.0898239
320 0.104991
325 0.115872
330 0.0977916
335 0.10397
340 0.0827751
345 0.144393
350 0.103195
355 0.0844763
360 0.125657
365 0.11198
370 0.111731
375 0.117777
380 0.0834864
385 0.0799534
390 0.0774899
395 0.118019
400 0.130402
405 0.0888043
410 0.0908117
415 0.143505
420 0.104272
425 0.137126
430 0.0885837
435 0.153021
440 0.188631
445 0.228725
450 0.31607
455 0.565682
460 16.0501
465 228.749
470 314.235
475 71.7864
480 9.60855
485 2.71154
490 1.99188
495 1.73409
500 2.0304
505 2.1028
510 1.91263
515 1.62337
520 1.70298
525 1.5591
530 1.6477
535 1.76066
540 2.51576
545 3.03068
550 2.2492
555 1.6981
560 1.59895
565 1.24693
570 0.999345
575 0.791238
580 0.677375
585 0.581635
590 0.46016
595 0.337788
600 0.374675
Ex : 478
200 0.0715011
205 0.118818
210 0.098318
215 0.113823
220 0.121568
225 0.0957164
230 0.114055
235 0.0944508
240 0.096412
245 0.108366
250 0.108086
255 0.0852884
260 0.0897828
265 0.0911243
270 0.13167
275 0.187896
280 0.098953
285 0.126022
290 0.0967714
295 0.070158
300 0.114836
305 0.106735
310 0.120755
315 0.131383
320 0.107926
325 0.125105
330 0.119586
335 0.108865
340 0.111437
345 0.112352
350 0.103688
355 0.103366
360 0.0937875
365 0.0942182
370 0.10515
375 0.140601
380 0.113462
385 0.127869
390 0.0994003
395 0.173764
400 0.153919
405 0.148107
410 0.140118
415 0.13259
420 0.159482
425 0.101251
430 0.108097
435 0.221127
440 0.148106
445 0.153976
450 0.215601
455 0.33061
460 0.58182
465 16.5801
470 228.278
475 319.001
480 78.1603
485 10.2631
490 2.41326
495 1.45876
500 1.39788
505 1.56715
510 1.63481
515 1.74388
520 1.52966
525 1.46606
530 1.57
535 1.42741
540 1.41528
545 2.03253
550 2.70719
555 2.14323
560 1.54572
565 1.25694
570 1.22949
575 0.937624
580 0.686592
585 0.485673
590 0.398969
595 0.306723
600 0.355716
Ex : 483
200 0.107471
205 0.135378
210 0.0863709
215 0.144435
220 0.063015
225 0.101397
230 0.10478
235 0.128736
240 0.136555
245 0.0982788
250 0.112701
255 0.0988205
260 0.0908168
265 0.113906
270 0.11794
275 0.090903
280 0.0677606
285 0.0960398
290 0.0772706
295 0.106627
300 0.101352
305 0.132352
310 0.0931871
315 0.0985656
320 0.0936679
325 0.112006
330 0.126317
335 0.105989
340 0.109458
345 0.109574
350 0.108983
355 0.0848521
360 0.111999
365 0.103015
370 0.0890084
375 0.11957
380 0.0901588
385 0.0931421
390 0.136568
395 0.102911
400 0.102021
405 0.147966
410 0.137841
415 0.132315
420 0.144403
425 0.148696
430 0.177203
435 0.106294
440 0.098573
445 0.1502
450 0.204308
455 0.279189
460 0.285822
465 0.49545
470 12.9733
475 224.458
480 339.755
485 82.2905
490 10.5671
495 2.26669
500 1.25792
505 1.16241
510 1.3562
515 1.37014
520 1.54414
525 1.44976
530 1.34726
535 1.27672
540 1.21757
545 1.13877
550 1.4001
555 2.12739
560 2.33441
565 1.44261
570 1.10031
575 0.948897
580 0.776656
585 0.545254
590 0.419473
595 0.461196
600 0.10406
Ex : 488
200 0.165474
205 0.134968
210 0.127812
215 0.121793
220 0.106219
225 0.0742974
230 0.084866
235 0.15751
240 0.0989385
245 0.0983665
250 0.101795
255 0.137011
260 0.0896016
265 0.111505
270 0.091492
275 0.0911642
280 0.0746281
285 0.143861
290 0.123225
295 0.121153
300 0.118316
305 0.0834602
310 0.135075
315 0.132428
320 0.0999006
325 0.130984
330 0.182645
335 0.156271
340 0.168519
345 0.120094
350 0.0917166
355 0.130285
360 0.0849996
365 0.108444
370 0.172962
375 0.161588
380 0.161335
385 0.147767
390 0.0958707
395 0.144371
400 0.122385
405 0.150151
410 0.123355
415 0.171106
420 0.160505
425 0.116308
430 0.127796
435 0.176127
440 0.142401
445 0.208894
450 0.216453
455 0.193586
460 0.329831
465 0.438871
470 0.511137
475 15.5718
480 242.252
485 335.852
490 78.9237
495 9.99393
500 2.12604
505 1.3333
510 1.12542
515 1.29291
520 1.40646
525 1.39309
530 1.234
535 1.1677
540 1.17317
545 1.11296
550 1.17081
555 1.24493
560 1.79337
565 2.0883
570 1.54956
575 0.963119
580 0.665861
585 0.577606
590 0.452843
595 0.336847
600 0.0660257
Ex : 493
200 0.172531
205 0.116901
210 0.147469
215 0.135963
220 0.114654
225 0.145058
230 0.14822
235 0.125588
240 0.129103
245 0.104273
250 0.147932
255 0.15696
260 0.0965201
265 0.140586
270 0.117079
275 0.0983388
280 0.125761
285 0.118059
290 0.163602
295 0.109506
300 0.10965
305 0.137442
310 0.103637
315 0.124408
320 0.123274
325 0.15076
330 0.142884
335 0.115192
340 0.109424
345 0.115829
350 0.110023
355 0.117041
360 0.129606
365 0.0736923
370 0.103292
375 0.119208
380 0.100241
385 0.10327
390 0.111539
395 0.150468
400 0.130895
405 0.108673
410 0.0992075
415 0.126977
420 0.151301
425 0.141378
430 0.190793
435 0.126366
440 0.143044
445 0.153774
450 0.173631
455 0.18384
460 0.215665
465 0.282151
470 0.31845
475 0.437319
480 14.1817
485 230.249
490 341.233
495 79.7535
500 10.0535
505 2.04971
510 1.09291
515 1.12791
520 1.28741
525 1.38151
530 1.39116
535 1.33114
540 1.13137
545 1.12004
550 0.988168
555 0.975676
560 0.968352
565 1.28487
570 1.69113
575 1.54939
580 0.897564
585 0.661172
590 0.54976
595 0.434681
600 0.360834
Ex : 498
200 0.124541
205 0.156413
210 0.114911
215 0.113252
220 0.158298
225 0.140981
230 0.0900388
235 0.090777
240 0.0713061
245 0.0997091
250 0.156163
255 0.155438
260 0.155378
265 0.164803
270 0.134381
275 0.078404
280 0.129917
285 0.116225
290 0.111521
295 0.16176
300 0.115027
305 0.171125
310 0.186702
315 0.132728
320 0.0977432
325 0.163517
330 0.120862
335 0.103475
340 0.17382
345 0.139759
350 0.155433
355 0.111073
360 0.194841
365 0.207478
370 0.101472
375 0.0802973
380 0.106929
385 0.13346
390 0.168723
395 0.150527
400 0.137414
405 0.127004
410 0.12652
415 0.139363
420 0.135473
425 0.154927
430 0.18026
435 0.147943
440 0.156748
445 0.196084
450 0.182505
455 0.168241
460 0.216211
465 0.245111
470 0.24631
475 0.25871
480 0.607612
485 17.1892
490 246.292
495 328.525
500 76.7812
505 9.70301
510 2.15054
515 1.21681
520 1.10975
525 1.17913
530 1.40282
535 1.27747
540 1.11706
545 1.05153
550 0.956235
555 0.880606
560 0.84127
565 0.78471
570 0.938984
575 1.25302
580 1.32571
585 0.800003
590 0.525372
595 0.553804
600 0.303671
Ex : 503
200 0.162538
205 0.156063
210 0.122499
215 0.147436
220 0.160039
225 0.152579
230 0.152109
235 0.108552
240 0.144921
245 0.195771
250 0.132167
255 0.0953122
260 0.123023
265 0.152151
270 0.14336
275 0.110642
280 0.128731
285 0.0964898
290 0.12184
295 0.0841771
300 0.153985
305 0.144982
310 0.141203
315 0.157267
320 0.182336
325 0.179521
330 0.170837
335 0.172224
340 0.159485
345 0.173666
350 0.135829
355 0.141669
360 0.146075
365 0.131524
370 0.100145
375 0.0972889
380 0.121652
385 0.191724
390 0.14435
395 0.0948147
400 0.143667
405 0.109582
410 0.103859
415 0.1503
420 0.212397
425 0.1795
430 0.163843
435 0.141366
440 0.161023
445 0.199828
450 0.152121
455 0.145665
460 0.269088
465 0.214352
470 0.235801
475 0.27735
480 0.361132
485 0.51335
490 15.178
495 246.559
500 341.278
505 78.843
510 9.95999
515 2.22173
520 1.20571
525 1.12098
530 1.05427
535 1.1569
540 1.32849
545 1.10753
550 1.01766
555 0.802429
560 0.905529
565 0.781873
570 0.753724
575 0.711366
580 0.900938
585 1.00038
590 0.960693
595 0.455917
600 0.708478
Ex : 508
200 0.188435
205 0.130869
210 0.14492
215 0.145963
220 0.1749
225 0.147135
230 0.09023
235 0.149845
240 0.12485
245 0.135794
250 0.104957
255 0.12095
260 0.155564
265 0.1254
270 0.113062
275 0.113594
280 0.169937
285 0.100442
290 0.140867
295 0.238615
300 0.136586
305 0.104173
310 0.19144
315 0.122697
320 0.133244
325 0.171322
330 0.154571
335 0.177276
340 0.154078
345 0.20192
350 0.08767
355 0.129316
360 0.134664
365 0.129828
370 0.208581
375 0.156384
380 0.134182
385 0.0968709
390 0.120935
395 0.16562
400 0.122521
405 0.186764
410 0.196502
415 0.159256
420 0.106592
425 0.215918
430 0.156063
435 0.142708
440 0.114449
445 0.180863
450 0.183128
455 0.176992
460 0.215435
465 0.242509
470 0.218204
475 0.35262
480 0.332944
485 0.307926
490 0.540595
495 16.8723
500 245.064
505 332.974
510 81.1702
515 10.3121
520 2.05605
525 1.04493
530 0.982374
535 0.947955
540 1.14902
545 1.21121
550 1.11423
555 0.896159
560 0.715738
565 0.710631
570 0.652764
575 0.559572
580 0.520121
585 0.524447
590 0.704512
595 0.746379
600 0.397216
Ex : 513
200 0.233399
205 0.130546
210 0.078659
215 0.143597
220 0.100632
225 0.203502
230 0.172166
235 0.141358
240 0.170118
245 0.207999
250 0.13341
255 0.182884
260 0.143286
265 0.171092
270 0.120414
275 0.180587
280 0.10681
285 0.110506
290 0.172807
295 0.101454
300 0.11852
305 0.128826
310 0.124956
315 0.126366
320 0.139294
325 0.168889
330 0.22127
335 0.105659
340 0.121133
345 0.165062
350 0.140024
355 0.128592
360 0.175207
365 0.152548
370 0.246516
375 0.178905
380 0.137966
385 0.121651
390 0.196967
395 0.163483
400 0.167028
405 0.148609
410 0.134157
415 0.134974
420 0.143947
425 0.124561
430 0.160235
435 0.225857
440 0.168101
445 0.160299
450 0.168052
455 0.17159
460 0.199806
465 0.218312
470 0.226978
475 0.294445
480 0.274657
485 0.310808
490 0.428542
495 0.557652
500 14.9992
505 237.618
510 339.61
515 83.7487
520 10.6959
525 2.18352
530 1.26647
535 1.03178
540 0.886995
545 0.912358
550 1.22681
555 1.05903
560 0.944058
565 0.77524
570 0.664273
575 0.479903
580 0.559701
585 0.49436
590 0.58284
595 0.645153
600 1.05085
Ex : 518
200 0.122719
205 0.157853
210 0.11206
215 0.13444
220 0.147598
225 0.205935
230 0.170848
235 0.119732
240 0.169062
245 0.187078
250 0.148532
255 0.123747
260 0.182517
265 0.153376
270 0.104856
275 0.135725
280 0.160273
285 0.130243
290 0.107612
295 0.133519
300 0.19949
305 0.117613
310 0.156279
315 0.165307
320 0.128876
325 0.16953
330 0.112673
335 0.191366
340 0.136935
345 0.155515
350 0.0781055
355 0.159341
360 0.13857
365 0.12198
370 0.154392
375 0.16731
380 0.163122
385 0.14249
390 0.136876
395 0.171285
400 0.155455
405 0.185508
410 0.132006
415 0.114692
420 0.169403
425 0.1937
430 0.152637
435 0.173037
440 0.224569
445 0.256376
450 0.19943
455 0.138272
460 0.190778
465 0.268462
470 0.199396
475 0.178108
480 0.184459
485 0.263295
490 0.20997
495 0.332157
500 0.441462
505 14.7449
510 225.194
515 324.401
520 79.5701
525 10.0868
530 1.91713
535 0.959645
540 0.833005
545 0.724731
550 0.738595
555 0.945663
560 0.796079
565 0.731749
570 0.669647
575 0.624887
580 0.470592
585 0.478202
590 0.394747
595 0.336366
600 0.203049
Ex : 523
200 0.126085
205 0.182223
210 0.0979023
215 0.114167
220 0.187209
225 0.163636
230 0.167828
235 0.153565
240 0.189811
245 0.113398
250 0.177998
255 0.10353
260 0.195023
265 0.149913
270 0.132455
275 0.121431
280 0.167436
285 0.179892
290 0.15302
295 0.142103
300 0.131623
305 0.143532
310 0.118007
315 0.177307
320 0.19251
325 0.219736
330 0.195287
335 0.175611
340 0.196236
345 0.137701
350 0.224617
355 0.189615
360 0.14403
365 0.246695
370 0.177738
375 0.115607
380 0.149699
385 0.145056
390 0.179513
395 0.136348
400 0.132768
405 0.13753
410 0.124307
415 0.153684
420 0.193272
425 0.212328
430 0.126352
435 0.181441
440 0.213879
445 0.171253
450 0.214703
455 0.169564
460 0.145691
465 0.23882
470 0.145654
475 0.190085
480 0.229699
485 0.184382
490 0.234215
495 0.275949
500 0.378029
505 0.513244
510 13.8963
515 221.084
520 324.77
525 84.5288
530 10.4707
535 1.98256
540 1.04233
545 0.820707
550 0.827758
555 0.811882
560 0.842288
565 0.896515
570 0.790383
575 0.567765
580 0.486244
585 0.34441
590 0.349959
595 0.304035
600 0.406528
Ex : 528
200 0.150389
205 0.120993
210 0.153916
215 0.142844
220 0.130085
225 0.0729928
230 0.133977
235 0.140267
240 0.192425
245 0.215933
250 0.122534
255 0.127373
260 0.124484
265 0.122178
270 0.127043
275 0.139351
280 0.132189
285 0.138271
290 0.16492
295 0.160303
300 0.13281
305 0.0911837
310 0.10826
315 0.129275
320 0.148383
325 0.174163
330 0.175946
335 0.185744
340 0.247652
345 0.173474
350 0.222515
355 0.174576
360 0.17758
365 0.201117
370 0.217031
375 0.178249
380 0.185037
385 0.140863
390 0.144918
395 0.151119
400 0.192357
405 0.128179
410 0.0874297
415 0.147282
420 0.149372
425 0.0993248
430 0.173701
435 0.213588
440 0.150532
445 0.18713
450 0.178598
455 0.22264
460 0.241147
465 0.212181
470 0.146207
475 0.15771
480 0.183393
485 0.197061
490 0.263598
495 0.253978
500 0.275278
505 0.3941
510 0.459797
515 12.8273
520 215.508
525 321.937
530 81.8062
535 10.1768
540 1.82803
545 0.924644
550 0.864241
555 0.667854
560 0.778518
565 0.825358
570 0.785909
575 0.515517
580 0.544224
585 0.337719
590 0.372813
595 0.33851
600 0.464674
Ex : 533
200 0.109416
205 0.162449
210 0.230817
215 0.197944
220 0.145711
225 0.154601
230 0.142108
235 0.167653
240 0.235096
245 0.171504
250 0.183501
255 0.173825
260 0.168851
265 0.168692
270 0.175086
275 0.162373
280 0.155061
285 0.147003
290 0.0977185
295 0.126579
300 0.155806
305 0.158171
310 0.182771
315 0.148819
320 0.198663
325 0.161187
330 0.183088
335 0.240117
340 0.234551
345 0.2091
350 0.158539
355 0.105966
360 0.268443
365 0.193286
370 0.149133
375 0.19084
380 0.211071
385 0.133672
390 0.216363
395 0.197646
400 0.158361
405 0.201008
410 0.187889
415 0.192585
420 0.145872
425 0.222576
430 0.197175
435 0.126849
440 0.200463
445 0.199062
450 0.122626
455 0.140824
460 0.163432
465 0.19701
470 0.13346
475 0.175214
480 0.179886
485 0.236145
490 0.20944
495 0.244387
500 0.223161
505 0.283319
510 0.388452
515 0.327771
520 12.3193
525 205.033
530 315.272
535 82.5584
540 10.2484
545 1.76865
550 0.876848
555 0.672163
560 0.568681
565 0.595399
570 0.574021
575 0.578887
580 0.567639
585 0.372027
590 0.330864
595 0.407463
600 0.204795
Ex : 538
200 0.158045
205 0.142095
210 0.163265
215 0.138645
220 0.169588
225 0.182902
230 0.186144
235 0.130518
240 0.115118
245 0.14202
250 0.146364
255 0.170862
260 0.168368
265 0.179678
270 0.122378
275 0.161829
280 0.121559
285 0.15778
290 0.212126
295 0.169955
300 0.210494
305 0.152329
310 0.16405
315 0.163372
320 0.194098
325 0.208235
330 0.209821
335 0.187185
340 0.0889566
345 0.145123
350 0.108462
355 0.182748
360 0.153206
365 0.127618
370 0.227872
375 0.206153
380 0.195307
385 0.208235
390 0.273788
395 0.165028
400 0.190119
405 0.195905
410 0.186952
415 0.193311
420 0.20709
425 0.283286
430 0.166569
435 0.154597
440 0.186904
445 0.13676
450 0.205904
455 0.169049
460 0.181594
465 0.228997
470 0.278373
475 0.220402
480 0.180862
485 0.254609
490 0.1414
495 0.184961
500 0.159989
505 0.299581
510 0.32426
515 0.306841
520 0.515739
525 11.2243
530 194.435
535 311.274
540 85.1816
545 10.558
550 1.71646
555 0.635283
560 0.694126
565 0.516926
570 0.476608
575 0.554907
580 0.537613
585 0.383687
590 0.35049
595 0.317486
600 0.25768
Ex : 543
200 0.105212
205 0.123698
210 0.173896
215 0.272954
220 0.206759
225 0.139456
230 0.12713
235 0.15184
240 0.166964
245 0.272165
250 0.217816
255 0.1754
260 0.149304
265 0.112896
270 0.273663
275 0.160824
280 0.134995
285 0.163726
290 0.206787
295 0.21709
300 0.154882
305 0.180896
310 0.140259
315 0.193127
320 0.123507
325 0.225697
330 0.212378
335 0.163416
340 0.15394
345 0.151515
350 0.18974
355 0.144199
360 0.152472
365 0.157147
370 0.224377
375 0.198588
380 0.14659
385 0.171207
390 0.156973
395 0.225772
400 0.176919
405 0.146503
410 0.15096
415 0.121599
420 0.221316
425 0.170381
430 0.166902
435 0.181453
440 0.217168
445 0.152984
450 0.205226
455 0.138168
460 0.263552
465 0.267553
470 0.237273
475 0.209813
480 0.191311
485 0.213971
490 0.215545
495 0.221698
500 0.211535
505 0.223415
510 0.257663
515 0.270505
520 0.432096
525 0.375903
530 9.54768
535 186.466
540 313.308
545 88.2383
550 10.7771
555 1.69631
560 0.710089
565 0.706728
570 0.524645
575 0.363313
580 0.48687
585 0.385792
590 0.421906
595 0.288198
600 0.331632
Ex : 548
200 0.28871
205 0.176363
210 0.127133
215 0.153355
220 0.165791
225 0.180694
230 0.175435
235 0.161721
240 0.186558
245 0.120424
250 0.173772
255 0.172168
260 0.153935
265 0.157437
270 0.180654
275 0.184523
280 0.167064
285 0.205025
290 0.123658
295 0.150115
300 0.219786
305 0.114755
310 0.148013
315 0.144756
320 0.148023
325 0.223458
330 0.224667
335 0.200743
340 0.114198
345 0.202978
350 0.250837
355 0.203001
360 0.162893
365 0.22987
370 0.238539
375 0.195701
380 0.21813
385 0.206811
390 0.143395
395 0.146303
400 0.159527
405 0.200057
410 0.145583
415 0.189191
420 0.218649
425 0.157825
430 0.203301
435 0.177385
440 0.167226
445 0.202449
450 0.134807
455 0.136238
460 0.218758
465 0.205278
470 0.291109
475 0.206352
480 0.180623
485 0.202484
490 0.190279
495 0.146269
500 0.184512
505 0.181264
510 0.201553
515 0.306206
520 0.269271
525 0.38783
530 0.574158
535 11.4223
540 187.497
545 301.987
550 85.0237
555 10.4984
560 1.73482
565 0.674111
570 0.590373
575 0.493628
580 0.39569
585 0.367412
590 0.30609
595 0.286053
600 0.308495
Ex : 553
200 0.147963
205 0.149676
210 0.138914
215 0.13906
220 0.140098
225 0.102836
230 0.104931
235 0.211406
240 0.207088
245 0.118136
250 0.115339
255 0.191313
260 0.188446
265 0.148533
270 0.178126
275 0.200539
280 0.197797
285 0.215492
290 0.16692
295 0.143211
300 0.15387
305 0.190591
310 0.189349
315 0.166402
320 0.215139
325 0.190637
330 0.164638
335 0.195399
340 0.173121
345 0.130427
350 0.188533
355 0.177409
360 0.168525
365 0.252229
370 0.317568
375 0.22108
380 0.177271
385 0.231161
390 0.144623
395 0.140957
400 0.148202
405 0.160819
410 0.21399
415 0.209817
420 0.160155
425 0.149791
430 0.193306
435 0.159004
440 0.178285
445 0.224281
450 0.178972
455 0.24415
460 0.171823
465 0.137486
470 0.345438
475 0.188956
480 0.213854
485 0.191116
490 0.155121
495 0.214338
500 0.219484
505 0.164807
510 0.25316
515 0.254748
520 0.187697
525 0.285081
530 0.2813
535 0.40135
540 9.16762
545 182.954
550 303.164
555 85.4102
560 10.4299
565 1.70676
570 0.6706
575 0.697386
580 0.437943
585 0.381094
590 0.370846
595 0.359466
600 0.395387
Ex : 558
200 0.144851
205 0.197347
210 0.200376
215 0.162779
220 0.211188
225 0.191781
230 0.186321
235 0.152472
240 0.156414
245 0.250932
250 0.183552
255 0.166047
260 0.216132
265 0.176274
270 0.16588
275 0.126801
280 0.127565
285 0.17557
290 0.192422
295 0.233603
300 0.215504
305 0.170008
310 0.183282
315 0.25918
320 0.269473
325 0.212137
330 0.161459
335 0.124359
340 0.248467
345 0.261945
350 0.220948
355 0.16807
360 0.222955
365 0.199102
370 0.24029
375 0.145323
380 0.197387
385 0.177244
390 0.242128
395 0.202453
400 0.15381
405 0.247827
410 0.227628
415 0.277255
420 0.193503
425 0.139664
430 0.169783
435 0.324201
440 0.274264
445 0.172512
450 0.163935
455 0.182514
460 0.164611
465 0.284388
470 0.287677
475 0.197329
480 0.22025
485 0.230556
490 0.182946
495 0.151686
500 0.18769
505 0.262173
510 0.168673
515 0.234695
520 0.223129
525 0.190675
530 0.223252
535 0.422373
540 0.324581
545 8.83482
550 167.324
555 292.726
560 83.7773
565 10.1685
570 1.77537
575 0.647834
580 0.388277
585 0.331422
590 0.347778
595 0.318418
600 0.14417
Ex : 563
200 0.14608
205 0.201675
210 0.336983
215 0.251535
220 0.150205
225 0.214601
230 0.149711
235 0.252741
240 0.215639
245 0.250524
250 0.153116
255 0.206614
260 0.171423
265 0.171137
270 0.152055
275 0.162155
280 0.221995
285 0.241416
290 0.140569
295 0.12749
300 0.231715
305 0.254537
310 0.115981
315 0.184965
320 0.224584
325 0.122538
330 0.19656
335 0.168948
340 0.247865
345 0.136907
350 0.17644
355 0.183164
360 0.180749
365 0.169205
370 0.193273
375 0.212486
380 0.212175
385 0.213248
390 0.233858
395 0.367093
400 0.184192
405 0.184535
410 0.152476
415 0.125404
420 0.193536
425 0.248256
430 0.234499
435 0.180697
440 0.18997
445 0.238186
450 0.26858
455 0.147412
460 0.221641
465 0.192844
470 0.172097
475 0.188914
480 0.272368
485 0.213369
490 0.23403
495 0.211352
500 0.243024
505 0.227385
510 0.241309
515 0.202302
520 0.254663
525 0.351569
530 0.35143
535 0.283876
540 0.276706
545 0.421636
550 8.20108
555 159.808
560 278.579
565 82.2085
570 9.95727
575 1.49041
580 0.495726
585 0.463863
590 0.288994
595 0.381959
600 0.794685
Ex : 568
200 0.154725
205 0.117628
210 0.158409
215 0.183243
220 0.154581
225 0.124786
230 0.146439
235 0.172159
240 0.160387
245 0.178581
250 0.204984
255 0.211964
260 0.197765
265 0.246321
270 0.146537
275 0.164617
280 0.275486
285 0.134154
290 0.190613
295 0.209952
300 0.193517
305 0.247064
310 0.186764
315 0.169122
320 0.234801
325 0.199725
330 0.165141
335 0.352037
340 0.137262
345 0.196071
350 0.193387
355 0.211455
360 0.179185
365 0.205408
370 0.121505
375 0.193062
380 0.176061
385 0.229648
390 0.150136
395 0.25549
400 0.236572
405 0.170909
410 0.17941
415 0.343341
420 0.195706
425 0.16664
430 0.222523
435 0.259378
440 0.293737
445 0.236706
450 0.256102
455 0.273618
460 0.182637
465 0.175176
470 0.15218
475 0.180297
480 0.218186
485 0.224836
490 0.219321
495 0.13418
500 0.200269
505 0.208637
510 0.321401
515 0.154706
520 0.196925
525 0.302892
530 0.242568
535 0.259262
540 0.275359
545 0.355087
550 0.451196
555 6.45563
560 146.871
565 269.86
570 80.9286
575 9.97705
580 1.51573
585 0.470001
590 0.422676
595 0.303857
600 0.389059
Ex : 573
200 0.197223
205 0.181657
210 0.243189
215 0.164184
220 0.171886
225 0.16995
230 0.265648
235 0.228969
240 0.191413
245 0.336342
250 0.241802
255 0.208525
260 0.122098
265 0.198069
270 0.212145
275 0.213671
280 0.171396
285 0.134465
290 0.169798
295 0.138292
300 0.247552
305 0.274024
310 0.218499
315 0.288014
320 0.227293
325 0.249597
330 0.293667
335 0.222526
340 0.18568
345 0.210311
350 0.240238
355 0.174223
360 0.187999
365 0.172997
370 0.251102
375 0.214817
380 0.222383
385 0.233423
390 0.21396
395 0.177417
400 0.176231
405 0.229402
410 0.193765
415 0.235102
420 0.167949
425 0.23189
430 0.282359
435 0.196127
440 0.157076
445 0.179794
450 0.157918
455 0.234591
460 0.285296
465 0.236872
470 0.274779
475 0.226617
480 0.261307
485 0.230648
490 0.136893
495 0.256098
500 0.193997
505 0.204417
510 0.185599
515 0.215726
520 0.310874
525 0.257522
530 0.443907
535 0.351268
540 0.259439
545 0.290658
550 0.273674
555 0.533489
560 6.0234
565 129.196
570 255.113
575 80.2138
580 9.79792
585 1.51314
590 0.616845
595 0.336307
600 0.10644
Ex : 578
200 0.10202
205 0.187784
210 0.166276
215 0.129393
220 0.214052
225 0.121246
230 0.234234
235 0.182531
240 0.138264
245 0.185
250 0.188344
255 0.266155
260 0.164132
265 0.220081
270 0.145668
275 0.155189
280 0.238983
285 0.20114
290 0.214737
295 0.144522
300 0.256596
305 0.1838
310 0.133314
315 0.142252
320 0.189132
325 0.219302
330 0.238713
335 0.15279
340 0.186282
345 0.129775
350 0.123273
355 0.214497
360 0.148225
365 0.116011
370 0.187447
375 0.190851
380 0.130475
385 0.23032
390 0.170393
395 0.20534
400 0.280917
405 0.243737
410 0.203786
415 0.170534
420 0.147536
425 0.178082
430 0.163152
435 0.165756
440 0.286378
445 0.200438
450 0.248986
455 0.20734
460 0.156311
465 0.161782
470 0.213847
475 0.24539
480 0.239919
485 0.254119
490 0.208208
495 0.175261
500 0.260448
505 0.29305
510 0.2944
515 0.250454
520 0.184486
525 0.158633
530 0.298166
535 0.334989
540 0.246146
545 0.276239
550 0.304066
555 0.292267
560 0.372666
565 5.01418
570 117.603
575 225.182
580 69.5562
585 8.57567
590 1.29011
595 0.504714
600 0.256509
Ex : 583
200 0.218673
205 0.284823
210 0.274534
215 0.157213
220 0.174075
225 0.192078
230 0.245383
235 0.251635
240 0.199294
245 0.325648
250 0.19003
255 0.142542
260 0.24502
265 0.242335
270 0.279789
275 0.215762
280 0.202454
285 0.212154
290 0.249459
295 0.219868
300 0.204875
305 0.190075
310 0.220805
315 0.21144
320 0.199399
325 0.134528
330 0.182823
335 0.297871
340 0.23295
345 0.173527
350 0.194766
355 0.241662
360 0.211856
365 0.139748
370 0.25498
375 0.196833
380 0.195619
385 0.249041
390 0.212456
395 0.153942
400 0.228168
405 0.199246
410 0.223475
415 0.200561
420 0.296465
425 0.317027
430 0.228003
435 0.195029
440 0.176878
445 0.216835
450 0.18677
455 0.239317
460 0.271801
465 0.172344
470 0.260962
475 0.217803
480 0.252122
485 0.228679
490 0.202445
495 0.146383
500 0.170427
505 0.219275
510 0.173522
515 0.226788
520 0.24936
525 0.187671
530 0.22489
535 0.266497
540 0.225525
545 0.204668
550 0.293578
555 0.261222
560 0.324184
565 0.438553
570 4.31159
575 102.294
580 194.939
585 56.3975
590 6.95719
595 1.00654
600 0.303511
Ex : 588
200 0.206427
205 0.315325
210 0.11281
215 0.364199
220 0.138888
225 0.22402
230 0.176969
235 0.162119
240 0.158546
245 0.244681
250 0.122927
255 0.360405
260 0.280758
265 0.30464
270 0.208719
275 0.199986
280 0.171242
285 0.219681
290 0.240566
295 0.204098
300 0.125054
305 0.227789
310 0.238216
315 0.20051
320 0.15519
325 0.162931
330 0.10915
335 0.162286
340 0.131114
345 0.254519
350 0.1874
355 0.36176
360 0.231708
365 0.195469
370 0.192718
375 0.173754
380 0.156626
385 0.207342
390 0.275615
395 0.210755
400 0.187722
405 0.223496
410 0.255752
415 0.248877
420 0.373568
425 0.209999
430 0.206842
435 0.178547
440 0.210845
445 0.187772
450 0.204132
455 0.201449
460 0.206868
465 0.285749
470 0.239747
475 0.311576
480 0.17708
485 0.203436
490 0.267447
495 0.222129
500 0.228157
505 0.230236
510 0.154101
515 0.319229
520 0.25427
525 0.250241
530 0.182219
535 0.238033
540 0.14406
545 0.231943
550 0.217743
555 0.320503
560 0.293882
565 0.287872
570 0.372073
575 3.94079
580 84.9369
585 166.63
590 50.6562
595 6.21171
600 0.706869
Ex : 593
200 0.173464
205 0.186114
210 0.22924
215 0.212118
220 0.20236
225 0.22321
230 0.327707
235 0.174501
240 0.118381
245 0.264034
250 0.244586
255 0.154313
260 0.120694
265 0.178614
270 0.238405
275 0.322362
280 0.217627
285 0.173734
290 0.119485
295 0.164299
300 0.139865
305 0.231164
310 0.192299
315 0.153903
320 0.246693
325 0.154988
330 0.231834
335 0.212133
340 0.186298
345 0.143645
350 0.204529
355 0.27209
360 0.216695
365 0.207843
370 0.31298
375 0.29259
380 0.29635
385 0.366008
390 0.251732
395 0.184438
400 0.348407
405 0.318261
410 0.173468
415 0.23421
420 0.30908
425 0.171681
430 0.187919
435 0.152718
440 0.15769
445 0.187318
450 0.214389
455 0.237289
460 0.344183
465 0.280658
470 0.288084
475 0.171136
480 0.236711
485 0.214868
490 0.290652
495 0.208716
500 0.173504
505 0.187733
510 0.193652
515 0.174099
520 0.189518
525 0.167113
530 0.169149
535 0.177439
540 0.21989
545 0.231657
550 0.222882
555 0.198846
560 0.181096
565 0.318675
570 0.301378
575 0.413084
580 3.09796
585 75.8808
590 141.413
595 42.3711
600 7.61744
Ex : 598
200 0.182811
205 0.195768
210 0.106788
215 0.14726
220 0.227395
225 0.223898
230 0.168006
235 0.192279
240 0.184881
245 0.17371
250 0.200644
255 0.207073
260 0.241576
265 0.363147
270 0.227603
275 0.311048
280 0.230357
285 0.199179
290 0.226477
295 0.176502
300 0.357526
305 0.248389
310 0.186857
315 0.172178
320 0.174412
325 0.164617
330 0.168736
335 0.17623
340 0.266892
345 0.188692
350 0.211729
355 0.197211
360 0.339006
365 0.35636
370 0.334588
375 0.204349
380 0.221801
385 0.198995
390 0.29472
395 0.201507
400 0.247993
405 0.313224
410 0.238368
415 0.153497
420 0.243993
425 0.233818
430 0.313347
435 0.274716
440 0.334807
445 0.294094
450 0.195938
455 0.258417
460 0.178503
465 0.343672
470 0.255429
475 0.193838
480 0.284232
485 0.17258
490 0.23709
495 0.231597
500 0.183078
505 0.313388
510 0.26879
515 0.265066
520 0.201767
525 0.295079
530 0.175393
535 0.216439
540 0.227324
545 0.240496
550 0.267411
555 0.265814
560 0.224437
565 0.259705
570 0.273993
575 0.223332
580 0.273041
585 3.03299
590 67.7698
595 120.076
600 77.1359
Ex : 603
200 0.223071
205 0.19541
210 0.203291
215 0.201264
220 0.244132
225 0.200356
230 0.191111
235 0.371338
240 0.259973
245 0.241651
250 0.256054
255 0.165119
260 0.138101
265 0.220067
270 0.142698
275 0.13883
280 0.333795
285 0.221063
290 0.2527
295 0.219731
300 0.176385
305 0.199615
310 0.22515
315 0.201568
320 0.2395
325 0.174647
330 0.124662
335 0.260857
340 0.297795
345 0.206252
350 0.224065
355 0.31652
360 0.224778
365 0.272269
370 0.276194
375 0.286188
380 0.231462
385 0.214068
390 0.273368
395 0.205247
400 0.250983
405 0.19775
410 0.172459
415 0.226912
420 0.244095
425 0.222296
430 0.231516
435 0.228997
440 0.161515
445 0.24289
450 0.256878
455 0.266832
460 0.208826
465 0.26022
470 0.285098
475 0.246399
480 0.245522
485 0.256697
490 0.291597
495 0.350959
500 0.176005
505 0.324355
510 0.210857
515 0.180515
520 0.357188
525 0.235143
530 0.218064
535 0.189999
540 0.266398
545 0.172241
550 0.167024
555 0.176986
560 0.201384
565 0.225863
570 0.395434
575 0.228841
580 0.276687
585 0.253547
590 2.944
595 57.4177
600 128.245
