File format V 1.0
ven. 13. janv. 00:02:15 2017
Operator : 
Comments : 

=============================================
SpectroFluorometer parameters
Mode : 3D measurement
Data : Fluorescence
Phospho. : Ordinary
Spectrum : Fluorescence

Scan speed : 2400 nm/mn
Response : 100 ms
PM Voltage : 700 V
Shutter : On

Lambda Ex. Start : 203
Lambda Ex. End : 603
Lambda Ex. Step : 5
Ex. Slit : 5 nm

Lambda Em. Start : 200
Lambda Em. End : 600
Lambda Em. Step : 5
Em. Slit : 5 nm

Repetition : 1
Decal lambda em : 10
=============================================
DATA
Ex : 203
200 5.72381
205 6.69142
210 5.09723
215 4.92798
220 4.33638
225 8.09072
230 4.89205
235 8.05181
240 7.29868
245 6.23178
250 7.92341
255 5.06681
260 5.97957
265 10.2691
270 9.06716
275 7.62721
280 6.0044
285 7.27042
290 6.38118
295 9.39079
300 9.38935
305 7.00377
310 6.97902
315 7.0371
320 9.48289
325 7.49847
330 9.69351
335 6.56227
340 8.59995
345 6.29152
350 6.51576
355 6.83787
360 5.12434
365 4.36591
370 5.09261
375 11.7005
380 8.82076
385 5.43895
390 6.59324
395 7.04276
400 9.98287
405 5.86381
410 6.35074
415 6.12538
420 5.91962
425 7.28268
430 5.8773
435 5.78463
440 5.36129
445 12.2891
450 7.28638
455 8.35559
460 8.63431
465 7.82601
470 8.45256
475 6.65494
480 9.08762
485 5.53129
490 7.29318
495 8.88408
500 5.45016
505 7.51738
510 11.0215
515 8.63645
520 6.78941
525 5.91607
530 6.881
535 7.08288
540 6.46144
545 8.05318
550 7.72938
555 8.46061
560 9.67352
565 6.47174
570 6.63015
575 5.47954
580 6.07454
585 6.49812
590 4.816
595 5.20789
600 0.592638
Ex : 208
200 5.96744
205 6.06114
210 8.86442
215 6.51382
220 6.7796
225 4.81964
230 6.94642
235 7.24836
240 5.10529
245 6.30855
250 5.66971
255 6.01211
260 5.38785
265 6.37974
270 8.31099
275 6.84788
280 7.67012
285 4.44273
290 4.51542
295 7.49659
300 8.53352
305 6.98222
310 5.65226
315 6.83373
320 7.97179
325 10.2485
330 7.61507
335 6.23762
340 11.492
345 9.7636
350 5.11176
355 6.92178
360 7.83175
365 7.05163
370 9.58049
375 8.88882
380 6.57244
385 7.50681
390 7.11849
395 6.19088
400 7.99353
405 6.08669
410 9.37223
415 5.30593
420 7.14911
425 8.25511
430 6.26978
435 7.85876
440 6.32124
445 8.24525
450 8.80644
455 6.87169
460 5.69953
465 8.71609
470 9.16364
475 6.60504
480 8.95436
485 5.77493
490 7.28795
495 6.92799
500 7.59902
505 7.46155
510 5.89461
515 6.21408
520 10.5982
525 6.94565
530 7.98244
535 6.97444
540 7.32725
545 6.20002
550 8.16262
555 7.82057
560 5.94172
565 9.38153
570 7.43333
575 4.74518
580 7.88718
585 8.64062
590 5.26091
595 5.68878
600 0.647361
Ex : 213
200 7.56807
205 9.16015
210 5.80163
215 11.157
220 6.70473
225 11.0404
230 6.95211
235 5.3103
240 8.08319
245 9.27231
250 5.30979
255 7.68573
260 6.75695
265 6.3699
270 8.06467
275 5.5023
280 6.83373
285 6.65803
290 6.09176
295 4.97446
300 6.65704
305 9.64078
310 6.4845
315 5.19792
320 5.16291
325 5.58946
330 5.60128
335 6.45073
340 5.78327
345 6.59146
350 5.99447
355 5.41993
360 6.03105
365 6.6278
370 7.36008
375 9.42265
380 5.53174
385 8.06743
390 6.34494
395 6.0747
400 5.04916
405 9.36877
410 9.33597
415 10.147
420 7.33516
425 5.26147
430 8.0984
435 7.19382
440 6.91965
445 9.05724
450 5.01211
455 6.26615
460 7.26464
465 8.60932
470 9.50056
475 6.71267
480 9.71745
485 10.5836
490 5.86423
495 7.73991
500 7.68085
505 6.04282
510 6.07239
515 7.32066
520 7.31369
525 5.52319
530 7.56306
535 5.18253
540 7.84241
545 5.40908
550 5.7295
555 7.19914
560 10.0909
565 8.86714
570 8.22913
575 5.94542
580 7.08291
585 7.80127
590 3.78691
595 8.65388
600 24.9123
Ex : 218
200 7.50237
205 5.88997
210 6.79949
215 7.45193
220 7.34975
225 4.79967
230 9.42984
235 6.21306
240 6.16183
245 5.57931
250 5.48296
255 8.93475
260 6.69887
265 8.0275
270 7.7642
275 5.70331
280 7.69053
285 6.28012
290 11.026
295 7.68806
300 7.13766
305 10.0918
310 7.48498
315 6.83679
320 9.80272
325 6.48977
330 7.77601
335 10.1395
340 8.88256
345 7.03874
350 5.06833
355 6.76752
360 5.34676
365 9.86288
370 6.77659
375 6.41966
380 7.34526
385 7.1547
390 4.32407
395 7.82901
400 8.55297
405 6.7169
410 7.96627
415 5.44324
420 5.89523
425 5.51348
430 6.75216
435 7.34369
440 5.67674
445 3.77059
450 5.9101
455 8.52297
460 8.94996
465 6.32696
470 6.7189
475 7.48429
480 8.02226
485 6.11197
490 9.32656
495 9.60514
500 9.68799
505 7.78307
510 6.61288
515 5.91487
520 6.93749
525 6.55784
530 6.59153
535 5.04345
540 3.89817
545 9.98764
550 7.87976
555 6.10411
560 5.57095
565 6.68903
570 6.4279
575 5.90474
580 5.7444
585 8.0174
590 9.72538
595 7.88071
600 5.03241
Ex : 223
200 7.77626
205 5.86031
210 6.11787
215 6.12321
220 7.36772
225 9.21555
230 9.24107
235 5.98844
240 9.68014
245 4.37615
250 7.35267
255 4.98787
260 5.01165
265 4.43012
270 5.02418
275 6.67883
280 9.36464
285 7.30567
290 5.40273
295 9.13197
300 7.51592
305 5.47416
310 9.75866
315 6.79045
320 7.46032
325 6.43325
330 6.55093
335 4.9057
340 8.48392
345 6.00546
350 7.23619
355 6.17365
360 8.39352
365 9.22371
370 7.26149
375 6.13571
380 8.8935
385 7.75727
390 6.56395
395 6.36485
400 7.35031
405 6.97889
410 6.78577
415 8.15006
420 4.94143
425 5.85481
430 7.86415
435 5.35845
440 7.77808
445 7.15125
450 5.34931
455 6.90609
460 5.4165
465 6.06079
470 8.25363
475 7.77158
480 10.591
485 8.64933
490 5.67343
495 6.62749
500 6.33727
505 6.56775
510 5.54525
515 10.5516
520 6.15615
525 5.75912
530 6.62113
535 6.76316
540 6.04108
545 6.06185
550 7.12666
555 6.65815
560 5.99766
565 5.60135
570 6.62033
575 7.82073
580 4.35422
585 8.71107
590 4.9939
595 6.02217
600 0.6853
Ex : 228
200 6.38889
205 7.09945
210 6.23842
215 8.03798
220 4.33576
225 6.71264
230 5.82966
235 6.44234
240 6.4835
245 5.64172
250 7.85213
255 4.69616
260 6.07896
265 5.07466
270 6.04108
275 8.65057
280 6.25284
285 5.55504
290 7.73391
295 6.78395
300 5.60431
305 5.93474
310 5.80329
315 7.27314
320 7.54035
325 9.58942
330 7.47735
335 5.36818
340 5.97297
345 7.46195
350 6.76868
355 9.05194
360 7.01584
365 7.92476
370 6.3162
375 8.11577
380 10.0783
385 6.68471
390 4.40142
395 4.92001
400 5.42587
405 8.66679
410 6.76618
415 6.78577
420 6.25353
425 5.72131
430 5.08966
435 5.46709
440 5.91805
445 7.76308
450 9.01518
455 9.10323
460 6.64203
465 6.7016
470 6.95788
475 8.88957
480 9.76869
485 6.14797
490 6.59445
495 5.81163
500 5.85527
505 4.34651
510 5.67582
515 4.90791
520 5.82155
525 8.19114
530 6.63351
535 5.8847
540 3.63942
545 8.25584
550 7.90582
555 4.73588
560 6.92784
565 5.32411
570 5.75522
575 9.41501
580 8.20893
585 6.92748
590 6.4958
595 8.08087
600 0.919572
Ex : 233
200 5.25306
205 4.40808
210 5.1826
215 6.75499
220 7.99748
225 4.9635
230 4.56032
235 7.04669
240 6.33873
245 6.74751
250 6.19729
255 5.28658
260 5.41726
265 4.82876
270 6.87448
275 5.34849
280 5.54284
285 5.64226
290 5.62602
295 6.45569
300 6.18671
305 7.18891
310 4.78737
315 5.8902
320 6.65942
325 5.86009
330 7.64895
335 6.98257
340 7.09813
345 6.10214
350 4.81084
355 4.23672
360 5.68066
365 6.4607
370 5.51106
375 5.65923
380 7.84488
385 4.46055
390 8.26939
395 6.58319
400 6.68708
405 7.17868
410 8.42565
415 4.76986
420 5.46236
425 5.45879
430 6.02522
435 8.36875
440 5.86741
445 6.92238
450 5.34174
455 6.18373
460 5.27561
465 6.12857
470 7.69063
475 5.79028
480 8.09274
485 5.63745
490 5.86785
495 8.36548
500 7.02209
505 5.55927
510 5.37857
515 5.16284
520 7.80654
525 5.85946
530 6.69447
535 7.07556
540 8.89993
545 6.21112
550 6.47617
555 3.67703
560 3.89129
565 4.44742
570 6.61835
575 5.432
580 8.75334
585 8.45308
590 4.63074
595 5.83661
600 7.22209
Ex : 238
200 4.86742
205 5.05392
210 7.36599
215 6.3256
220 5.35855
225 5.63959
230 7.83759
235 5.71408
240 4.63649
245 6.70633
250 8.54048
255 5.44739
260 5.21554
265 7.59693
270 4.7303
275 8.88518
280 5.20962
285 5.62344
290 5.97439
295 5.62488
300 5.27221
305 6.56138
310 4.56521
315 5.79358
320 7.94957
325 4.48227
330 5.71608
335 8.4792
340 6.28564
345 9.42215
350 7.71873
355 6.20222
360 7.99387
365 7.03317
370 6.88448
375 6.51133
380 8.60245
385 6.71926
390 6.53204
395 6.2282
400 5.32055
405 6.34636
410 5.63461
415 4.94466
420 8.86991
425 5.46744
430 3.76138
435 7.35279
440 5.67815
445 5.07027
450 6.80445
455 6.12742
460 6.69698
465 6.8941
470 5.7075
475 6.76569
480 5.30498
485 5.07163
490 5.13767
495 6.22062
500 8.06098
505 6.34035
510 5.77424
515 6.52018
520 4.60305
525 3.74195
530 4.15842
535 8.12377
540 4.92801
545 7.07947
550 7.14591
555 7.11586
560 6.72389
565 6.60327
570 5.37186
575 4.13926
580 6.99964
585 5.63473
590 3.71315
595 5.70315
600 6.14346
Ex : 243
200 5.54362
205 4.63926
210 4.38307
215 4.25653
220 5.41155
225 4.20584
230 3.92094
235 4.00314
240 3.78406
245 5.76301
250 7.04269
255 4.94638
260 4.78501
265 5.88298
270 4.74299
275 4.57084
280 3.73697
285 7.03093
290 6.53435
295 3.16325
300 4.74467
305 4.06371
310 4.02237
315 4.48903
320 4.38342
325 5.02345
330 3.63225
335 5.01975
340 6.45881
345 3.80077
350 4.68568
355 5.891
360 4.6851
365 5.27822
370 4.07729
375 5.27952
380 4.49224
385 4.14086
390 4.52646
395 7.07957
400 6.85124
405 3.27713
410 5.40872
415 5.39609
420 4.17394
425 3.79039
430 6.52163
435 6.19135
440 4.28735
445 4.59888
450 4.57064
455 4.71002
460 3.86605
465 5.14387
470 7.30439
475 5.50874
480 6.77888
485 5.3549
490 5.06562
495 5.09914
500 5.9523
505 4.90936
510 4.06731
515 4.61499
520 4.4047
525 5.01902
530 6.08848
535 5.19272
540 9.43111
545 5.33658
550 5.634
555 3.01357
560 5.73505
565 6.18983
570 5.70125
575 4.90628
580 7.89045
585 5.11202
590 3.4287
595 5.43586
600 0.618581
Ex : 248
200 1.94512
205 3.65439
210 3.97418
215 5.12592
220 4.19426
225 4.76951
230 4.84098
235 4.14081
240 3.40476
245 4.97888
250 3.35027
255 5.01968
260 5.53777
265 4.65238
270 4.19666
275 5.90786
280 4.33906
285 5.73988
290 4.11019
295 3.77742
300 3.77338
305 3.88669
310 4.79274
315 5.10189
320 5.50925
325 4.67024
330 4.29235
335 6.54894
340 4.82553
345 5.17256
350 4.49169
355 4.95021
360 4.97238
365 4.33494
370 5.61775
375 4.48404
380 4.29337
385 4.40441
390 4.41571
395 3.51879
400 3.59846
405 5.04096
410 3.54705
415 3.33493
420 7.40156
425 6.8414
430 4.3154
435 3.11804
440 6.02139
445 6.07167
450 6.73954
455 5.34907
460 4.24985
465 5.87269
470 3.73935
475 4.1176
480 4.43908
485 3.53818
490 6.70365
495 4.58296
500 5.91956
505 4.24554
510 4.53473
515 3.43389
520 5.35831
525 5.3691
530 5.73908
535 5.43452
540 5.43665
545 7.34437
550 5.51586
555 4.41443
560 5.64448
565 4.44185
570 4.73258
575 3.57812
580 4.73394
585 4.99963
590 6.81054
595 4.76293
600 0.542003
Ex : 253
200 4.14467
205 2.73331
210 2.7151
215 4.79983
220 3.67716
225 4.12676
230 2.79825
235 3.63613
240 3.43608
245 3.72704
250 2.79622
255 2.86062
260 4.0196
265 3.2127
270 3.1399
275 3.86184
280 2.29243
285 3.48683
290 3.17603
295 3.88824
300 3.51812
305 2.96297
310 2.41763
315 3.12809
320 2.46508
325 5.2059
330 2.73732
335 4.025
340 3.16268
345 3.59341
350 3.99093
355 4.31995
360 3.26463
365 3.59998
370 4.2617
375 3.89255
380 4.50647
385 4.79882
390 3.34451
395 3.08717
400 3.67231
405 4.88735
410 5.71713
415 4.82174
420 4.04735
425 4.02829
430 5.16833
435 4.50466
440 3.98752
445 3.1625
450 4.65507
455 5.41976
460 4.53396
465 4.80572
470 5.80801
475 4.02493
480 5.20734
485 3.81185
490 2.60205
495 2.95017
500 4.26564
505 3.9381
510 3.07258
515 3.47202
520 2.70346
525 4.67778
530 7.36907
535 4.91465
540 3.48968
545 3.48491
550 3.90882
555 2.41441
560 6.02261
565 3.64374
570 4.34675
575 3.49674
580 3.39809
585 3.7898
590 5.88431
595 3.75245
600 2.79022
Ex : 258
200 2.93814
205 2.83352
210 4.72734
215 4.18791
220 3.51498
225 3.13323
230 2.12896
235 3.84883
240 3.55872
245 2.19392
250 2.3126
255 3.16164
260 3.07945
265 3.63778
270 3.57107
275 3.53887
280 2.71488
285 3.35048
290 2.2234
295 3.00803
300 3.98233
305 3.87322
310 2.64429
315 3.28671
320 2.17164
325 2.14297
330 3.77573
335 2.5765
340 3.10722
345 2.56728
350 5.15982
355 3.13137
360 3.64769
365 3.99852
370 3.62525
375 2.79444
380 3.176
385 3.39853
390 3.23512
395 2.99543
400 3.34089
405 2.94561
410 3.86185
415 2.86322
420 2.67417
425 3.74069
430 3.26078
435 3.69524
440 3.1838
445 3.98402
450 1.89184
455 2.43905
460 3.98888
465 4.40965
470 3.21287
475 5.67353
480 3.3861
485 3.84654
490 3.38439
495 3.31274
500 2.75186
505 4.2643
510 3.29816
515 2.33018
520 3.2975
525 5.0496
530 5.3252
535 2.62255
540 2.02882
545 2.75989
550 3.22588
555 2.98074
560 3.56311
565 3.47397
570 3.29821
575 2.70323
580 2.31548
585 3.74098
590 3.80261
595 1.90911
600 2.71473
Ex : 263
200 2.63262
205 2.20844
210 3.3085
215 2.21684
220 2.14332
225 3.85442
230 3.50911
235 3.14833
240 2.32679
245 3.34748
250 2.83548
255 3.86602
260 2.51018
265 2.14668
270 1.64099
275 2.42272
280 1.42865
285 3.67241
290 2.98999
295 2.45835
300 2.37279
305 3.21916
310 3.62494
315 2.80644
320 3.18437
325 2.47796
330 2.36485
335 2.18773
340 2.1805
345 2.90225
350 2.13631
355 2.27185
360 1.78641
365 2.74384
370 1.57824
375 1.65759
380 3.13147
385 2.27203
390 3.09528
395 2.83627
400 2.34284
405 2.73448
410 2.99903
415 2.67194
420 1.47438
425 3.55346
430 2.27718
435 2.85992
440 2.07418
445 2.13295
450 2.34672
455 2.29097
460 2.91047
465 2.44378
470 2.4834
475 3.03627
480 2.61379
485 2.75862
490 4.05405
495 2.75694
500 2.13278
505 2.41927
510 2.53219
515 2.96727
520 2.73909
525 2.94394
530 2.61299
535 2.79991
540 2.74791
545 2.4042
550 2.83502
555 2.06563
560 2.72127
565 1.58232
570 2.70108
575 2.69762
580 2.12665
585 3.22047
590 2.78526
595 3.02221
600 2.05724
Ex : 268
200 2.11451
205 2.17161
210 1.60173
215 1.46756
220 2.05181
225 2.11187
230 1.96067
235 1.15577
240 1.6631
245 1.77354
250 2.2329
255 2.17124
260 2.72729
265 2.07465
270 1.6872
275 1.95151
280 2.28359
285 2.34886
290 2.17362
295 2.16197
300 1.99352
305 1.40262
310 1.92377
315 2.82421
320 2.35423
325 2.5432
330 2.06756
335 2.72636
340 2.32758
345 1.9895
350 2.03141
355 2.49696
360 1.59118
365 2.0124
370 2.3271
375 2.11107
380 1.92835
385 2.42687
390 2.85133
395 1.71524
400 1.74843
405 2.01777
410 2.21888
415 2.28971
420 2.42671
425 2.18382
430 2.03502
435 1.78303
440 2.53112
445 2.2246
450 2.01613
455 1.97855
460 2.62956
465 1.54579
470 2.02099
475 2.4766
480 2.29486
485 2.40934
490 1.8642
495 2.29525
500 2.37353
505 2.69333
510 2.34663
515 1.78111
520 1.53258
525 2.28222
530 2.64138
535 2.37663
540 2.14782
545 2.1251
550 1.6274
555 1.75975
560 1.03218
565 1.33437
570 2.14876
575 1.81251
580 1.72734
585 1.44795
590 2.39548
595 2.3533
600 5.80657
Ex : 273
200 1.64537
205 1.69989
210 1.16884
215 1.6936
220 1.1427
225 1.86395
230 1.86754
235 1.64984
240 1.40878
245 1.48629
250 1.88835
255 1.63669
260 1.3552
265 1.64017
270 1.44564
275 1.59976
280 1.40152
285 1.22349
290 1.46001
295 1.22037
300 1.77773
305 1.90157
310 1.16617
315 2.19132
320 1.911
325 1.74714
330 1.91678
335 2.18961
340 1.26197
345 1.57517
350 1.92034
355 1.54312
360 1.75797
365 2.08275
370 1.72956
375 1.65383
380 2.02717
385 1.74065
390 1.70848
395 1.81324
400 2.13536
405 1.92497
410 1.98017
415 2.29025
420 1.87006
425 2.41356
430 1.48953
435 1.2848
440 1.35232
445 1.61689
450 2.53672
455 2.46312
460 2.12615
465 2.52939
470 1.83465
475 1.69654
480 3.53531
485 2.30504
490 2.00533
495 1.25706
500 2.46672
505 1.27911
510 1.60043
515 1.52092
520 1.46331
525 1.28759
530 1.38854
535 1.63248
540 1.88679
545 2.21364
550 1.40614
555 1.55628
560 1.64804
565 2.11867
570 1.25309
575 1.32737
580 1.93283
585 1.50967
590 1.96134
595 1.13989
600 1.28563
Ex : 278
200 1.24804
205 1.1818
210 1.09493
215 1.38893
220 1.75937
225 1.58544
230 1.5199
235 1.53123
240 1.76832
245 1.06642
250 1.05927
255 1.72762
260 1.24729
265 1.1398
270 1.44813
275 0.963392
280 0.99031
285 1.26687
290 1.16271
295 1.23402
300 1.47973
305 1.34843
310 1.18216
315 1.04508
320 1.62059
325 1.25038
330 1.17976
335 1.42844
340 1.14878
345 0.66245
350 1.45487
355 1.33008
360 1.59105
365 1.93196
370 1.17641
375 2.24903
380 1.21957
385 1.73379
390 1.59914
395 1.56877
400 1.65841
405 2.11999
410 1.40229
415 1.19555
420 1.53113
425 2.01675
430 1.74366
435 1.40795
440 1.97741
445 1.44121
450 1.35427
455 1.41134
460 2.03374
465 1.98683
470 1.36627
475 1.29092
480 0.961638
485 1.17131
490 1.18867
495 1.63123
500 1.38314
505 1.58744
510 1.53996
515 1.87899
520 1.30279
525 1.24953
530 1.83389
535 1.27008
540 0.914026
545 1.54468
550 1.58469
555 1.89329
560 1.69168
565 1.11796
570 1.72002
575 1.06797
580 1.4776
585 1.72454
590 1.19518
595 1.22455
600 3.58191
Ex : 283
200 0.802334
205 1.17845
210 0.958208
215 0.771913
220 0.874712
225 1.27678
230 1.1817
235 0.903299
240 1.08147
245 0.927944
250 1.64311
255 1.44847
260 1.18912
265 0.881017
270 1.2033
275 0.846942
280 1.53432
285 1.5222
290 0.767277
295 1.01123
300 0.889777
305 0.572889
310 1.18235
315 1.65385
320 1.17817
325 1.49496
330 1.02226
335 1.42022
340 1.41
345 1.17511
350 0.796921
355 1.08507
360 1.24709
365 1.39045
370 1.44879
375 1.71392
380 1.50119
385 1.76522
390 1.25221
395 1.57297
400 1.30808
405 1.56833
410 1.28541
415 1.26064
420 1.0056
425 1.16424
430 1.24365
435 1.0251
440 1.3189
445 1.08556
450 0.971634
455 1.07214
460 1.1595
465 1.34499
470 1.56163
475 1.4502
480 1.62762
485 1.16457
490 1.34247
495 1.02002
500 1.19274
505 0.98079
510 1.19417
515 0.879682
520 0.865579
525 1.14865
530 1.24733
535 1.07421
540 0.846554
545 0.933703
550 0.885567
555 1.42716
560 0.877149
565 1.29421
570 1.0289
575 1.08803
580 0.713535
585 1.49574
590 0.80543
595 1.01772
600 3.31758
Ex : 288
200 0.91864
205 0.873017
210 0.692317
215 0.520262
220 0.964064
225 0.897565
230 0.794798
235 0.832471
240 1.33628
245 0.863852
250 1.08682
255 0.892701
260 0.972919
265 0.857479
270 1.47257
275 0.99426
280 1.02407
285 0.487454
290 0.774827
295 0.875484
300 0.846104
305 0.737773
310 1.29025
315 1.21505
320 0.78397
325 1.3145
330 0.77729
335 1.06868
340 0.769431
345 1.00997
350 0.889482
355 1.12884
360 1.05534
365 1.13452
370 0.771697
375 1.09534
380 0.782412
385 0.955655
390 1.52591
395 1.3659
400 1.14108
405 1.2285
410 1.2386
415 1.11124
420 1.21542
425 1.24743
430 1.49205
435 1.46079
440 1.19342
445 1.66202
450 1.71891
455 1.31925
460 1.42663
465 1.17319
470 1.28061
475 1.4783
480 0.706239
485 1.16756
490 1.27603
495 1.18815
500 1.68743
505 1.03354
510 0.866433
515 1.21274
520 0.983054
525 0.634262
530 0.984541
535 0.838496
540 1.06964
545 1.07878
550 1.36765
555 1.35242
560 0.697993
565 0.971056
570 1.48934
575 1.28025
580 1.09998
585 0.868845
590 0.800243
595 0.84385
600 0.277812
Ex : 293
200 0.776911
205 0.755832
210 0.64035
215 0.466219
220 0.633334
225 1.03909
230 0.874303
235 0.825115
240 0.999576
245 0.662839
250 0.567152
255 0.739522
260 0.559724
265 0.772011
270 0.556234
275 0.776991
280 0.632278
285 0.713508
290 0.935748
295 0.835867
300 0.949358
305 0.669948
310 0.768497
315 0.700482
320 0.62054
325 0.633424
330 0.653989
335 0.722068
340 0.935447
345 0.75025
350 0.766507
355 0.837625
360 0.885829
365 0.977704
370 0.776026
375 0.703639
380 1.08924
385 0.802502
390 0.963202
395 1.44144
400 1.20988
405 0.928439
410 0.879808
415 0.961202
420 1.03011
425 1.01497
430 1.21848
435 1.19768
440 0.995106
445 1.0502
450 1.23615
455 0.949529
460 1.18165
465 1.14087
470 0.98125
475 1.03209
480 0.847317
485 0.952356
490 1.07238
495 0.945269
500 0.699449
505 0.717235
510 1.09816
515 1.32482
520 0.676857
525 0.671383
530 0.934605
535 0.905694
540 0.876067
545 0.755033
550 0.955712
555 0.848415
560 0.695631
565 0.585164
570 0.55287
575 1.2647
580 1.22281
585 1.12658
590 0.897908
595 1.03576
600 0.792151
Ex : 298
200 0.734166
205 0.574996
210 0.620856
215 0.513355
220 0.729555
225 0.843649
230 0.546139
235 0.537487
240 0.578548
245 0.685778
250 0.741086
255 0.574257
260 0.582566
265 0.451982
270 0.560961
275 0.74427
280 0.603018
285 0.687005
290 0.790601
295 0.960638
300 0.678619
305 0.956995
310 0.559439
315 0.50736
320 0.935201
325 1.01887
330 0.678529
335 0.872279
340 0.790133
345 0.737938
350 0.95134
355 0.819718
360 0.991188
365 0.995021
370 0.867505
375 1.0721
380 0.963318
385 0.762337
390 0.938531
395 0.973063
400 0.892369
405 1.02714
410 0.840136
415 1.06922
420 1.28794
425 1.14841
430 0.976037
435 1.07203
440 1.01702
445 1.16584
450 1.18876
455 0.800329
460 1.09021
465 1.12848
470 0.845934
475 0.871742
480 0.858517
485 0.933075
490 1.20833
495 1.1164
500 1.07021
505 0.737801
510 0.673683
515 0.58638
520 0.728566
525 0.750901
530 0.643609
535 0.829249
540 0.69655
545 0.768087
550 0.713624
555 0.640936
560 0.553791
565 0.597137
570 0.537472
575 0.720289
580 0.876618
585 0.724509
590 1.08301
595 0.74733
600 1.28894
Ex : 303
200 0.829506
205 0.613532
210 0.598179
215 0.731172
220 0.70486
225 0.633084
230 0.429776
235 0.779211
240 0.528301
245 0.450796
250 0.783899
255 0.946438
260 0.46885
265 0.552253
270 0.790181
275 0.481498
280 0.634745
285 0.693022
290 0.451984
295 0.604831
300 0.758678
305 0.654108
310 0.430729
315 0.481555
320 0.569953
325 0.672033
330 0.585325
335 0.551877
340 0.586625
345 0.533161
350 0.94201
355 0.720506
360 0.590686
365 0.813385
370 0.803117
375 0.845541
380 0.839824
385 0.899295
390 0.796721
395 0.861065
400 0.905863
405 0.810235
410 1.06455
415 0.831219
420 0.741504
425 0.87054
430 1.08127
435 1.01134
440 0.930186
445 0.603774
450 0.632121
455 0.857818
460 0.750847
465 0.841967
470 0.650945
475 0.718873
480 0.726286
485 0.907508
490 0.764513
495 0.861382
500 0.678746
505 0.636159
510 0.958946
515 0.755096
520 0.81306
525 0.802117
530 0.63833
535 0.731032
540 0.775022
545 0.922044
550 0.581308
555 0.606263
560 0.485926
565 0.568872
570 0.652777
575 0.456446
580 0.709201
585 0.596004
590 0.689406
595 0.915001
600 1.64408
Ex : 308
200 0.68516
205 0.545568
210 0.567308
215 0.415411
220 0.488999
225 0.467292
230 0.446702
235 0.555579
240 0.513334
245 0.506114
250 0.532128
255 0.585746
260 0.49831
265 0.578558
270 0.585801
275 0.508852
280 0.574984
285 0.482379
290 0.571489
295 0.621508
300 0.698874
305 0.816063
310 0.686013
315 0.574105
320 0.674251
325 0.540177
330 0.669776
335 0.598483
340 0.596253
345 0.540981
350 0.675831
355 0.901488
360 0.815581
365 1.00194
370 0.906517
375 0.925387
380 1.04992
385 0.723901
390 0.616301
395 0.758995
400 0.846667
405 0.968451
410 0.778466
415 0.80857
420 1.19802
425 0.884598
430 0.537646
435 0.69729
440 0.883941
445 0.749346
450 0.973301
455 0.80023
460 0.754492
465 0.924505
470 0.814839
475 0.766228
480 0.678504
485 0.586786
490 0.9487
495 0.490201
500 0.824398
505 0.528975
510 0.504518
515 0.504335
520 0.498659
525 0.705977
530 0.857031
535 0.567558
540 0.549968
545 0.632877
550 0.662311
555 0.598439
560 0.477443
565 0.474064
570 0.468084
575 0.565268
580 0.504714
585 0.61751
590 0.416582
595 0.403234
600 0.319567
Ex : 313
200 0.399521
205 0.405568
210 0.37314
215 0.461919
220 0.512275
225 0.355925
230 0.431192
235 0.373712
240 0.423547
245 0.439429
250 0.498342
255 0.521625
260 0.463668
265 0.399155
270 0.490796
275 0.405074
280 0.427008
285 0.574666
290 0.418968
295 0.300686
300 0.532974
305 0.633201
310 0.635761
315 0.538644
320 0.484299
325 0.561475
330 0.408647
335 0.555701
340 0.643825
345 0.83218
350 0.77864
355 0.822706
360 0.690886
365 0.812728
370 1.08233
375 1.16182
380 0.947933
385 1.24926
390 1.586
395 1.3949
400 1.22255
405 1.08131
410 1.13589
415 1.34826
420 1.03936
425 1.09567
430 1.25049
435 1.43113
440 1.25225
445 0.979902
450 0.948405
455 1.09176
460 1.1301
465 1.0959
470 1.07863
475 0.831279
480 0.88459
485 1.04211
490 1.12581
495 0.75288
500 0.70639
505 0.70944
510 0.730061
515 0.898
520 0.650024
525 0.594069
530 0.67801
535 0.538787
540 0.819659
545 0.532077
550 0.478982
555 0.585804
560 0.708497
565 0.839355
570 0.590935
575 0.46425
580 0.549382
585 0.588051
590 0.560439
595 0.302543
600 1.54883
Ex : 318
200 0.384574
205 0.464739
210 0.548313
215 0.378679
220 0.373992
225 0.426844
230 0.349498
235 0.300253
240 0.325601
245 0.411645
250 0.419718
255 0.2452
260 0.402835
265 0.382111
270 0.464364
275 0.33256
280 0.425736
285 0.422047
290 0.327919
295 0.652364
300 0.685812
305 0.520551
310 0.702903
315 1.31527
320 0.670913
325 0.556097
330 0.864117
335 1.03404
340 1.54954
345 1.85852
350 2.36757
355 3.58901
360 4.37502
365 4.97795
370 6.2624
375 7.06988
380 8.41685
385 9.06621
390 9.91494
395 9.72948
400 10.6696
405 10.777
410 10.7744
415 10.4492
420 9.8246
425 9.97268
430 9.15515
435 8.99414
440 8.79373
445 8.71453
450 7.91409
455 7.42308
460 6.59157
465 6.03195
470 5.7841
475 5.45189
480 5.15227
485 4.73226
490 3.73026
495 4.06722
500 3.51368
505 2.93498
510 2.66532
515 2.27241
520 2.09036
525 1.80057
530 1.59542
535 1.1725
540 1.35508
545 1.25929
550 0.887093
555 0.881149
560 0.759042
565 0.851571
570 0.764593
575 0.705356
580 0.767527
585 0.512557
590 0.396327
595 0.501723
600 0.378465
Ex : 323
200 0.397593
205 0.484735
210 0.362119
215 0.28365
220 0.441637
225 0.415115
230 0.300194
235 0.229663
240 0.414099
245 0.217343
250 0.233934
255 0.46507
260 0.415133
265 0.428824
270 0.38522
275 0.30828
280 0.349992
285 0.258097
290 0.341963
295 0.259039
300 0.539582
305 0.541535
310 0.526039
315 4.73926
320 19.7759
325 8.36833
330 2.75607
335 3.1739
340 4.90933
345 6.55155
350 8.69272
355 11.7902
360 14.243
365 17.2395
370 19.6999
375 23.2685
380 27.3985
385 29.4088
390 30.6067
395 33.5342
400 34.3411
405 36.2932
410 35.6361
415 34.99
420 33.889
425 32.3518
430 31.9391
435 30.4255
440 29.4
445 27.9036
450 26.2108
455 24.3052
460 23.5408
465 21.1688
470 19.7127
475 18.6854
480 16.8315
485 14.9598
490 13.7096
495 12.783
500 10.9942
505 9.96381
510 8.36473
515 7.31214
520 6.43186
525 5.85005
530 5.32654
535 4.25822
540 3.52614
545 3.16951
550 3.11416
555 2.94827
560 2.08187
565 1.61919
570 1.54998
575 1.1206
580 1.07515
585 0.763445
590 0.764114
595 0.69215
600 0.699107
Ex : 328
200 0.414451
205 0.244055
210 0.391654
215 0.30615
220 0.33373
225 0.327365
230 0.232948
235 0.256945
240 0.320654
245 0.236434
250 0.633245
255 0.310926
260 0.336375
265 0.383187
270 0.297188
275 0.326295
280 0.416552
285 0.424053
290 0.288372
295 0.321232
300 0.351603
305 0.386861
310 0.39145
315 1.44815
320 39.9627
325 90.0912
330 28.3869
335 6.54148
340 5.52952
345 6.85173
350 8.60344
355 12.595
360 16.8912
365 19.0054
370 20.9051
375 23.781
380 27.1414
385 29.6554
390 31.7381
395 32.9842
400 34.38
405 34.5798
410 34.4636
415 34.264
420 33.6181
425 32.7484
430 30.8022
435 29.3952
440 29.2379
445 26.5418
450 25.5834
455 24.4995
460 23.4482
465 21.1338
470 19.2992
475 18.5961
480 15.9039
485 15.1443
490 13.2967
495 12.7868
500 11.7917
505 10.0661
510 8.77681
515 7.5284
520 6.57643
525 6.08916
530 4.96462
535 4.45266
540 4.02645
545 3.52635
550 2.9255
555 2.67247
560 2.66631
565 2.1284
570 1.63429
575 1.46383
580 1.31769
585 0.944128
590 0.675386
595 0.817612
600 0.84352
Ex : 333
200 0.37655
205 0.244236
210 0.201035
215 0.260225
220 0.368057
225 0.378817
230 0.343392
235 0.242533
240 0.305266
245 0.32681
250 0.266377
255 0.265054
260 0.284399
265 0.380855
270 0.258277
275 0.254688
280 0.347147
285 0.591563
290 0.410531
295 0.363552
300 0.350921
305 0.244642
310 0.261169
315 0.561788
320 5.51945
325 102.135
330 172.659
335 45.6502
340 8.71484
345 5.11081
350 5.56045
355 6.18115
360 8.94356
365 13.7985
370 14.6436
375 14.3384
380 15.2629
385 15.6037
390 17.2212
395 18.1032
400 18.7836
405 19.0893
410 18.8212
415 18.9245
420 18.569
425 18.0306
430 17.7622
435 16.7988
440 16.1125
445 15.7957
450 14.6173
455 14.3737
460 13.1843
465 12.221
470 11.7598
475 11.2511
480 10.2692
485 9.73276
490 8.35751
495 7.86065
500 7.3037
505 6.45358
510 5.90016
515 5.43043
520 4.61372
525 4.30604
530 3.60909
535 3.39566
540 3.20038
545 2.75448
550 2.52783
555 2.23675
560 1.99012
565 1.77202
570 1.45593
575 1.17404
580 1.02946
585 0.972261
590 0.691083
595 0.709374
600 0.342227
Ex : 338
200 0.350168
205 0.34036
210 0.431551
215 0.296243
220 0.276924
225 0.282096
230 0.243269
235 0.247819
240 0.255028
245 0.396533
250 0.28729
255 0.334764
260 0.263531
265 0.272135
270 0.317537
275 0.369842
280 0.252751
285 0.287095
290 0.341454
295 0.266019
300 0.268257
305 0.337786
310 0.26935
315 0.460806
320 0.508943
325 9.85777
330 150.472
335 219.762
340 55.6256
345 8.95404
350 4.46535
355 3.74091
360 3.82802
365 5.88417
370 10.2497
375 10.5403
380 9.74123
385 8.45059
390 8.42125
395 9.68006
400 9.27161
405 9.77244
410 10.5197
415 10.7871
420 10.3685
425 10.0023
430 9.99837
435 9.87552
440 9.98066
445 10.006
450 8.98487
455 8.96004
460 8.33418
465 8.20094
470 7.8376
475 7.49264
480 7.39381
485 6.98093
490 6.18295
495 6.2063
500 5.51698
505 5.20339
510 5.0233
515 4.28725
520 3.97124
525 3.25757
530 3.26807
535 2.72726
540 2.46896
545 2.2688
550 2.2184
555 1.91772
560 1.49603
565 1.48866
570 1.14355
575 0.960054
580 0.949145
585 0.715351
590 0.55392
595 0.660326
600 0.178641
Ex : 343
200 0.25141
205 0.334914
210 0.276331
215 0.362644
220 0.258743
225 0.267441
230 0.277945
235 0.201349
240 0.174768
245 0.242511
250 0.227398
255 0.280264
260 0.242798
265 0.221626
270 0.260759
275 0.301718
280 0.281838
285 0.256411
290 0.211523
295 0.219033
300 0.230075
305 0.229852
310 0.327526
315 0.352729
320 0.470819
325 0.457934
330 11.0544
335 167.756
340 243.091
345 59.3405
350 8.87304
355 3.55119
360 2.91359
365 2.54778
370 3.72907
375 7.80776
380 8.94563
385 7.13647
390 6.11
395 5.65769
400 5.86302
405 7.33711
410 7.94128
415 8.13621
420 8.21531
425 8.34845
430 8.46702
435 8.15979
440 8.74687
445 8.47477
450 8.35573
455 8.30591
460 8.1005
465 8.00972
470 8.23008
475 7.56153
480 7.29476
485 6.84066
490 6.95301
495 6.11418
500 5.55763
505 5.52241
510 5.10818
515 4.55123
520 4.13664
525 3.68185
530 3.42581
535 2.92777
540 2.55377
545 2.42676
550 2.27183
555 2.00914
560 1.74291
565 1.56502
570 1.24854
575 1.23212
580 0.880854
585 0.757461
590 0.689813
595 0.585899
600 0.346214
Ex : 348
200 0.153596
205 0.223658
210 0.165668
215 0.266021
220 0.210441
225 0.192673
230 0.240156
235 0.213641
240 0.231578
245 0.165368
250 0.29676
255 0.241536
260 0.263588
265 0.255476
270 0.225772
275 0.294591
280 0.195072
285 0.194563
290 0.217455
295 0.227572
300 0.371848
305 0.278221
310 0.239721
315 0.253592
320 0.33055
325 0.279726
330 0.483995
335 11.0602
340 168.885
345 257.126
350 66.367
355 9.27513
360 3.42487
365 2.61824
370 2.02243
375 2.79336
380 5.70924
385 7.99747
390 6.44807
395 5.90377
400 5.27035
405 5.83777
410 6.83192
415 7.63895
420 7.97084
425 7.48513
430 8.23827
435 8.3417
440 8.88299
445 8.71532
450 9.0654
455 8.78563
460 8.57379
465 8.34741
470 8.35874
475 7.97887
480 8.02613
485 7.52153
490 7.20194
495 6.76336
500 6.94027
505 6.21692
510 5.70088
515 4.82291
520 4.15044
525 4.34981
530 3.64061
535 3.66616
540 3.02138
545 2.87497
550 2.49178
555 2.23511
560 2.03854
565 1.83348
570 1.58629
575 1.25773
580 1.00142
585 0.803699
590 0.745539
595 0.562238
600 0.600079
Ex : 353
200 0.325044
205 0.243831
210 0.209942
215 0.24486
220 0.256707
225 0.274046
230 0.166516
235 0.277507
240 0.252548
245 0.312961
250 0.247733
255 0.200539
260 0.230706
265 0.212422
270 0.2347
275 0.326671
280 0.229452
285 0.213923
290 0.224245
295 0.361474
300 0.26626
305 0.182837
310 0.223541
315 0.219923
320 0.306569
325 0.300748
330 0.345756
335 0.569827
340 11.3618
345 176.788
350 258.267
355 63.7136
360 8.87919
365 2.86529
370 2.66972
375 2.52814
380 2.25938
385 4.83295
390 7.68238
395 7.67485
400 6.1134
405 6.08178
410 6.74688
415 7.28937
420 7.67966
425 7.33913
430 8.00507
435 8.83858
440 9.13315
445 9.10196
450 9.13294
455 9.09904
460 8.82254
465 8.78698
470 8.97176
475 8.73617
480 8.63032
485 8.60586
490 8.25019
495 7.97324
500 7.31925
505 6.60786
510 6.0149
515 5.75062
520 5.23053
525 4.67114
530 4.24615
535 3.91859
540 3.41357
545 3.17884
550 2.92422
555 2.35168
560 2.1413
565 1.96372
570 1.53209
575 1.39958
580 1.12652
585 0.943892
590 0.750067
595 0.644249
600 0.797468
Ex : 358
200 0.202691
205 0.22501
210 0.198134
215 0.235754
220 0.182396
225 0.219231
230 0.223205
235 0.259736
240 0.210931
245 0.21153
250 0.145181
255 0.239716
260 0.129015
265 0.261494
270 0.215944
275 0.129522
280 0.16843
285 0.219711
290 0.224569
295 0.203636
300 0.201415
305 0.156532
310 0.252353
315 0.266637
320 0.255884
325 0.269196
330 0.376455
335 0.354571
340 0.457825
345 11.4193
350 172.199
355 263.574
360 66.1085
365 8.94123
370 2.86808
375 3.03602
380 2.39982
385 2.20291
390 3.91556
395 7.90357
400 8.14904
405 7.14589
410 7.34921
415 7.90766
420 7.82717
425 8.09991
430 8.62579
435 9.1935
440 9.21478
445 9.73575
450 9.85544
455 9.60595
460 9.80459
465 9.80591
470 9.94407
475 10.0987
480 9.7016
485 9.12196
490 8.55905
495 8.3149
500 8.16106
505 7.39407
510 6.93507
515 6.20961
520 5.52626
525 5.14497
530 4.95489
535 4.35526
540 4.01936
545 3.78572
550 3.11717
555 2.79697
560 2.40681
565 1.93965
570 1.9143
575 1.42478
580 1.12722
585 0.885772
590 0.794855
595 0.590135
600 0.463119
Ex : 363
200 0.235641
205 0.187319
210 0.180592
215 0.225165
220 0.163786
225 0.193963
230 0.154682
235 0.221032
240 0.184508
245 0.292317
250 0.211839
255 0.241495
260 0.223246
265 0.139945
270 0.189645
275 0.213763
280 0.213849
285 0.25556
290 0.19091
295 0.150206
300 0.160979
305 0.205864
310 0.179343
315 0.242225
320 0.212577
325 0.270399
330 0.339205
335 0.332205
340 0.355435
345 0.433275
350 10.2556
355 169.045
360 263.136
365 68.5432
370 9.36302
375 3.06582
380 2.79718
385 2.43671
390 2.70295
395 3.63983
400 7.21563
405 9.43548
410 9.44122
415 9.13337
420 9.2958
425 8.62678
430 9.5559
435 9.96174
440 11.0959
445 11.101
450 11.2645
455 11.0312
460 11.1026
465 11.0022
470 11.4506
475 11.2582
480 10.3187
485 10.4169
490 9.91732
495 9.6572
500 9.40964
505 8.4105
510 7.73388
515 7.14893
520 6.47814
525 5.91675
530 5.20473
535 4.84281
540 4.38627
545 3.95945
550 3.33448
555 2.97124
560 2.70002
565 2.43531
570 2.07243
575 1.44603
580 1.31713
585 0.928019
590 0.874346
595 0.746808
600 0.163564
Ex : 368
200 0.228404
205 0.177575
210 0.17217
215 0.160314
220 0.170223
225 0.246498
230 0.181885
235 0.160666
240 0.266546
245 0.175722
250 0.168402
255 0.219565
260 0.196933
265 0.209603
270 0.169856
275 0.139532
280 0.192113
285 0.279515
290 0.172229
295 0.191288
300 0.238343
305 0.173324
310 0.155154
315 0.243379
320 0.23241
325 0.283379
330 0.241925
335 0.271789
340 0.285489
345 0.28749
350 0.43403
355 8.41116
360 159.213
365 266.589
370 71.9529
375 9.89044
380 3.09571
385 2.65625
390 2.76434
395 2.87826
400 3.76633
405 7.15505
410 10.363
415 9.77901
420 9.44087
425 8.42549
430 8.69999
435 9.7853
440 10.3334
445 10.6901
450 11.0147
455 10.9537
460 10.7664
465 11.374
470 11.894
475 11.9274
480 11.0683
485 11.0243
490 10.4724
495 10.1968
500 9.60156
505 9.21668
510 8.57442
515 7.8317
520 6.99707
525 6.27781
530 5.93254
535 5.58904
540 4.96305
545 4.21698
550 3.85535
555 3.49813
560 3.09325
565 2.76301
570 2.09247
575 1.85887
580 1.24367
585 1.10825
590 0.995198
595 0.734493
600 0.326773
Ex : 373
200 0.155632
205 0.177236
210 0.143957
215 0.162849
220 0.185647
225 0.186554
230 0.156234
235 0.198415
240 0.128998
245 0.186969
250 0.267283
255 0.138825
260 0.168863
265 0.168548
270 0.144696
275 0.172374
280 0.231481
285 0.168264
290 0.176172
295 0.135806
300 0.158903
305 0.185941
310 0.206801
315 0.134815
320 0.211217
325 0.222959
330 0.255284
335 0.231577
340 0.263912
345 0.296821
350 0.34039
355 0.473352
360 10.1722
365 164.958
370 268.079
375 72.9127
380 10.1018
385 3.01701
390 2.71829
395 2.81231
400 3.27166
405 4.08996
410 7.22619
415 10.4698
420 9.79498
425 8.93153
430 8.38566
435 8.88922
440 9.2618
445 10.0346
450 9.78719
455 9.95835
460 10.2023
465 10.9219
470 11.5725
475 11.0695
480 11.0603
485 10.8238
490 10.6612
495 10.4241
500 10.2111
505 9.66405
510 8.89318
515 8.23618
520 7.65785
525 6.9775
530 6.39876
535 5.62764
540 5.19157
545 4.8947
550 4.15179
555 3.53635
560 3.1487
565 2.75324
570 2.40528
575 1.76428
580 1.40099
585 1.12826
590 0.934615
595 0.840803
600 0.242403
Ex : 378
200 0.207439
205 0.15919
210 0.18003
215 0.164573
220 0.193493
225 0.18349
230 0.161289
235 0.170119
240 0.121765
245 0.210488
250 0.135157
255 0.260727
260 0.188002
265 0.137444
270 0.13606
275 0.176019
280 0.251149
285 0.207684
290 0.198636
295 0.19974
300 0.158412
305 0.176453
310 0.174715
315 0.202695
320 0.153225
325 0.183139
330 0.171981
335 0.198931
340 0.218544
345 0.188344
350 0.272126
355 0.317762
360 0.552509
365 9.59016
370 172.029
375 275.391
380 74.8403
385 10.334
390 3.11181
395 3.06086
400 3.70981
405 4.52949
410 5.74688
415 8.07834
420 10.788
425 10.3356
430 9.72232
435 9.61457
440 9.90144
445 10.1565
450 10.113
455 10.6257
460 10.7083
465 10.9432
470 10.7758
475 11.1469
480 11.0345
485 10.6472
490 10.5624
495 10.1976
500 9.9418
505 9.65731
510 8.64217
515 7.64342
520 7.18948
525 6.72297
530 6.00884
535 5.48635
540 4.80574
545 4.41843
550 3.81927
555 3.64444
560 3.10553
565 2.7369
570 2.29835
575 1.78525
580 1.40177
585 1.16672
590 0.921721
595 0.781017
600 0.577944
Ex : 383
200 0.242132
205 0.239298
210 0.223267
215 0.177816
220 0.11443
225 0.181191
230 0.149867
235 0.122641
240 0.127887
245 0.158596
250 0.204956
255 0.192288
260 0.158407
265 0.146039
270 0.157169
275 0.167965
280 0.123914
285 0.15794
290 0.220021
295 0.205265
300 0.23198
305 0.164365
310 0.16392
315 0.202746
320 0.130192
325 0.157898
330 0.219086
335 0.245812
340 0.23031
345 0.272009
350 0.224921
355 0.202218
360 0.271527
365 0.456521
370 9.11143
375 169.008
380 285.895
385 77.828
390 10.9484
395 3.34465
400 3.49778
405 4.99841
410 6.43652
415 7.2222
420 8.21819
425 10.4317
430 11.3284
435 11.172
440 11.6027
445 10.7016
450 10.4865
455 10.9754
460 11.0575
465 11.7289
470 11.688
475 11.5911
480 11.7444
485 11.0676
490 10.8984
495 10.2814
500 10.4089
505 9.54333
510 8.72259
515 8.29748
520 7.26344
525 6.72432
530 6.04808
535 5.63088
540 5.11166
545 4.70095
550 4.12381
555 3.73028
560 3.01313
565 2.85174
570 2.1904
575 1.6713
580 1.43519
585 1.08865
590 0.951654
595 0.723064
600 1.01384
Ex : 388
200 0.166968
205 0.168803
210 0.125211
215 0.149887
220 0.177155
225 0.124807
230 0.181502
235 0.167747
240 0.143607
245 0.108521
250 0.159821
255 0.151219
260 0.183412
265 0.186808
270 0.120603
275 0.140186
280 0.0947568
285 0.147678
290 0.181575
295 0.127655
300 0.133026
305 0.143354
310 0.15545
315 0.162212
320 0.124441
325 0.247982
330 0.191785
335 0.161159
340 0.173003
345 0.1941
350 0.195542
355 0.259864
360 0.261592
365 0.301157
370 0.508807
375 9.22723
380 170.954
385 286.593
390 77.2602
395 10.8689
400 3.66258
405 4.28263
410 6.24759
415 7.06751
420 6.87497
425 7.4836
430 9.76266
435 11.6842
440 11.458
445 10.6983
450 10.5141
455 10.2776
460 10.5844
465 10.7483
470 11.2604
475 11.5422
480 11.3386
485 10.8494
490 10.6557
495 10.4954
500 9.93399
505 9.57063
510 8.7512
515 7.99366
520 7.25795
525 6.58256
530 6.43085
535 5.70762
540 4.98148
545 4.57282
550 4.2066
555 3.71166
560 3.06935
565 2.69472
570 2.19737
575 1.79845
580 1.35047
585 1.1015
590 0.932327
595 0.744002
600 0.69819
Ex : 393
200 0.155728
205 0.132053
210 0.132334
215 0.177034
220 0.192945
225 0.160542
230 0.196168
235 0.113634
240 0.135977
245 0.170292
250 0.134977
255 0.167901
260 0.172588
265 0.118183
270 0.130685
275 0.18084
280 0.139305
285 0.129668
290 0.117836
295 0.190222
300 0.207682
305 0.190942
310 0.126719
315 0.141293
320 0.174825
325 0.206079
330 0.179369
335 0.0991039
340 0.14679
345 0.163361
350 0.175741
355 0.214792
360 0.277818
365 0.220625
370 0.269189
375 0.489164
380 8.33906
385 170.564
390 289.002
395 79.5081
400 11.0473
405 4.19367
410 5.05794
415 6.04637
420 5.69385
425 5.39301
430 6.03231
435 8.24386
440 10.5264
445 10.2867
450 9.64809
455 9.73691
460 9.54395
465 9.67789
470 10.246
475 10.6023
480 10.4413
485 10.6589
490 10.1393
495 9.85715
500 9.57403
505 9.00602
510 8.81536
515 8.05129
520 7.71291
525 6.6441
530 6.15591
535 5.65239
540 5.03539
545 4.80249
550 4.09634
555 3.70465
560 3.17982
565 2.93596
570 2.36569
575 1.77706
580 1.55792
585 1.17421
590 0.962711
595 0.796524
600 0.887587
Ex : 398
200 0.143976
205 0.10738
210 0.161812
215 0.137206
220 0.156296
225 0.113372
230 0.110997
235 0.13918
240 0.134916
245 0.141563
250 0.144029
255 0.148622
260 0.135208
265 0.170712
270 0.144977
275 0.146593
280 0.115061
285 0.180209
290 0.117724
295 0.101007
300 0.0953106
305 0.125002
310 0.110248
315 0.106508
320 0.176685
325 0.172599
330 0.184235
335 0.166822
340 0.194043
345 0.190008
350 0.199615
355 0.199524
360 0.243067
365 0.219841
370 0.223391
375 0.319276
380 0.451084
385 8.43269
390 173.036
395 297.691
400 80.5955
405 11.9974
410 5.19046
415 5.12773
420 5.41206
425 5.24665
430 5.33339
435 6.11167
440 7.52695
445 9.56528
450 9.94995
455 9.25294
460 9.457
465 9.54533
470 9.77908
475 10.1902
480 10.0333
485 9.8921
490 9.85549
495 9.69834
500 9.38051
505 9.18729
510 8.62698
515 8.18479
520 7.44399
525 6.65257
530 6.41143
535 5.57789
540 5.11596
545 4.63883
550 4.17309
555 3.75586
560 3.4218
565 2.86814
570 2.40665
575 1.93018
580 1.49393
585 1.34058
590 0.996766
595 0.841178
600 0.265802
Ex : 403
200 0.207816
205 0.122446
210 0.114127
215 0.137501
220 0.176808
225 0.132281
230 0.144379
235 0.102524
240 0.110797
245 0.122357
250 0.149041
255 0.13081
260 0.153328
265 0.166587
270 0.150163
275 0.149105
280 0.109924
285 0.135972
290 0.113948
295 0.144184
300 0.176359
305 0.158622
310 0.118381
315 0.183077
320 0.168654
325 0.115285
330 0.234926
335 0.135656
340 0.145049
345 0.143272
350 0.242627
355 0.222541
360 0.137567
365 0.178924
370 0.233281
375 0.26997
380 0.326317
385 0.411089
390 9.77693
395 176.858
400 296.17
405 82.4484
410 13.4242
415 6.31108
420 5.59226
425 5.86893
430 5.71555
435 6.38487
440 7.11932
445 7.88229
450 9.74424
455 10.5954
460 10.0511
465 10.2834
470 10.3358
475 10.3498
480 10.0552
485 10.0077
490 10.2479
495 10.0297
500 9.66008
505 8.99747
510 8.85496
515 8.08227
520 7.48488
525 7.08933
530 6.11874
535 5.79479
540 5.28527
545 4.72642
550 4.2744
555 3.73827
560 3.2628
565 2.89431
570 2.49719
575 2.10075
580 1.47231
585 1.22763
590 1.03191
595 0.753743
600 0.608483
Ex : 408
200 0.124106
205 0.142471
210 0.103247
215 0.139161
220 0.199377
225 0.134831
230 0.108543
235 0.156343
240 0.12162
245 0.14624
250 0.142169
255 0.140581
260 0.122
265 0.117035
270 0.124247
275 0.10381
280 0.140494
285 0.165448
290 0.183183
295 0.149177
300 0.166732
305 0.148841
310 0.160757
315 0.106835
320 0.143197
325 0.108158
330 0.119391
335 0.148901
340 0.19371
345 0.166894
350 0.136791
355 0.11615
360 0.190168
365 0.145528
370 0.207921
375 0.24693
380 0.252938
385 0.319977
390 0.549504
395 9.04554
400 179.43
405 297.665
410 81.5787
415 13.7906
420 5.99115
425 5.149
430 5.47503
435 6.25702
440 6.44649
445 6.74187
450 7.28838
455 9.03995
460 10.5745
465 10.3902
470 10.3199
475 10.242
480 9.97703
485 9.9463
490 9.60232
495 9.76424
500 9.2203
505 8.66739
510 8.63927
515 7.97645
520 7.19367
525 6.75739
530 5.86926
535 5.6624
540 5.31314
545 4.69572
550 4.13244
555 3.71427
560 3.25656
565 2.83325
570 2.33384
575 1.83489
580 1.40416
585 1.27568
590 1.08877
595 0.802633
600 0.48621
Ex : 413
200 0.148151
205 0.162815
210 0.194438
215 0.107323
220 0.15608
225 0.11252
230 0.116313
235 0.128726
240 0.110697
245 0.112608
250 0.138948
255 0.138551
260 0.115046
265 0.134316
270 0.135886
275 0.106527
280 0.171055
285 0.0875322
290 0.154654
295 0.108395
300 0.108085
305 0.126248
310 0.189065
315 0.144756
320 0.15738
325 0.130306
330 0.158771
335 0.137438
340 0.114044
345 0.130926
350 0.154617
355 0.147444
360 0.15234
365 0.154936
370 0.18124
375 0.21979
380 0.312925
385 0.224734
390 0.220849
395 0.567531
400 10.3706
405 188.445
410 305.683
415 78.8257
420 12.0011
425 4.3385
430 3.77109
435 4.332
440 4.79602
445 5.0055
450 5.5461
455 5.77391
460 7.65623
465 9.56944
470 9.26151
475 9.31768
480 9.2625
485 8.971
490 8.56813
495 8.76101
500 8.50834
505 8.15267
510 7.91641
515 7.42306
520 6.75317
525 6.47324
530 5.7413
535 5.44408
540 4.84664
545 4.39788
550 3.93417
555 3.61141
560 3.09695
565 2.66433
570 2.3715
575 1.89937
580 1.55022
585 1.11991
590 0.898379
595 0.705394
600 0.591315
Ex : 418
200 0.202196
205 0.120242
210 0.105191
215 0.161414
220 0.135227
225 0.0947028
230 0.116222
235 0.0901714
240 0.147118
245 0.095033
250 0.142679
255 0.0955205
260 0.115983
265 0.144833
270 0.101451
275 0.123294
280 0.129323
285 0.14477
290 0.132354
295 0.104497
300 0.0958106
305 0.148776
310 0.120333
315 0.177909
320 0.168551
325 0.160448
330 0.144454
335 0.140893
340 0.166161
345 0.165501
350 0.158555
355 0.175402
360 0.153912
365 0.187109
370 0.156719
375 0.162476
380 0.160083
385 0.231651
390 0.314881
395 0.334838
400 0.601962
405 10.127
410 182.941
415 302.772
420 81.0458
425 11.2212
430 3.16888
435 2.63036
440 3.19795
445 3.3267
450 3.34746
455 3.81884
460 4.78342
465 5.88823
470 8.19953
475 8.56254
480 7.97438
485 8.1009
490 8.02
495 7.42222
500 7.44667
505 7.54009
510 7.03492
515 6.49244
520 6.55549
525 5.74014
530 5.53248
535 5.16976
540 4.43236
545 4.10502
550 3.7488
555 3.31563
560 2.86313
565 2.69374
570 2.3076
575 1.61029
580 1.34749
585 1.07178
590 0.912237
595 0.722274
600 0.389178
Ex : 423
200 0.148926
205 0.109537
210 0.0927122
215 0.142913
220 0.151575
225 0.169054
230 0.126006
235 0.115201
240 0.125973
245 0.107857
250 0.124798
255 0.135019
260 0.101008
265 0.105229
270 0.106035
275 0.139676
280 0.0904507
285 0.120217
290 0.140061
295 0.133965
300 0.106054
305 0.122105
310 0.110856
315 0.142726
320 0.126251
325 0.164504
330 0.208115
335 0.152322
340 0.17522
345 0.141881
350 0.168239
355 0.133012
360 0.155349
365 0.208853
370 0.171767
375 0.164472
380 0.12891
385 0.209733
390 0.207164
395 0.282333
400 0.348383
405 0.61764
410 10.4563
415 189.886
420 301.323
425 76.9108
430 10.2884
435 2.54384
440 1.93531
445 2.3888
450 2.88461
455 3.25542
460 3.58573
465 4.30518
470 5.02475
475 7.09221
480 8.20702
485 7.74569
490 7.22915
495 7.20506
500 6.95583
505 6.6127
510 6.45228
515 6.06018
520 5.77487
525 5.4526
530 5.04685
535 4.68354
540 4.21824
545 3.72163
550 3.39846
555 2.96896
560 2.72086
565 2.50011
570 2.03276
575 1.53222
580 1.28099
585 1.00139
590 0.869469
595 0.666692
600 1.27468
Ex : 428
200 0.176545
205 0.145813
210 0.139125
215 0.179306
220 0.184993
225 0.119252
230 0.156908
235 0.116001
240 0.140957
245 0.123101
250 0.12952
255 0.145465
260 0.13366
265 0.0978633
270 0.152771
275 0.109304
280 0.0982887
285 0.156521
290 0.185544
295 0.159319
300 0.202547
305 0.112384
310 0.13506
315 0.118205
320 0.136653
325 0.169028
330 0.170879
335 0.135166
340 0.116452
345 0.154076
350 0.172919
355 0.198598
360 0.172335
365 0.180234
370 0.167288
375 0.150371
380 0.182512
385 0.222387
390 0.20948
395 0.263961
400 0.262687
405 0.34208
410 0.495574
415 11.163
420 192.083
425 305.747
430 80.0267
435 10.4363
440 2.466
445 1.93563
450 2.43207
455 2.8415
460 3.07203
465 3.60628
470 4.08348
475 4.74565
480 6.19306
485 7.84627
490 7.1912
495 6.74649
500 6.64674
505 5.88053
510 5.81528
515 5.42212
520 5.03925
525 4.91693
530 4.6397
535 4.11952
540 3.83401
545 3.40237
550 3.07772
555 2.71918
560 2.3551
565 2.17354
570 1.97793
575 1.54698
580 1.21097
585 0.900429
590 0.776054
595 0.611039
600 0.486226
Ex : 433
200 0.119671
205 0.132763
210 0.157363
215 0.127559
220 0.118896
225 0.190472
230 0.138776
235 0.100118
240 0.0981642
245 0.126038
250 0.125252
255 0.161847
260 0.129853
265 0.111866
270 0.160277
275 0.156995
280 0.131739
285 0.171615
290 0.177517
295 0.137166
300 0.118267
305 0.125051
310 0.138716
315 0.140955
320 0.161607
325 0.160596
330 0.184605
335 0.173319
340 0.141865
345 0.170672
350 0.143786
355 0.175278
360 0.14798
365 0.199427
370 0.129092
375 0.142042
380 0.109508
385 0.136544
390 0.206236
395 0.171158
400 0.260192
405 0.273866
410 0.3538
415 0.553248
420 12.3313
425 204.911
430 312.228
435 78.5028
440 10.3588
445 2.67675
450 1.92963
455 2.37994
460 3.0866
465 3.45587
470 3.79663
475 3.95626
480 4.47795
485 5.44673
490 7.30215
495 6.81797
500 6.26818
505 5.90287
510 5.43584
515 5.06558
520 4.47124
525 4.26059
530 4.05634
535 3.54403
540 3.48217
545 3.07831
550 2.78802
555 2.70066
560 2.29881
565 2.02781
570 1.65677
575 1.40808
580 1.14745
585 0.888697
590 0.797367
595 0.542313
600 0.565984
Ex : 438
200 0.177056
205 0.129156
210 0.163691
215 0.144423
220 0.120351
225 0.105146
230 0.119762
235 0.139867
240 0.1434
245 0.131632
250 0.163102
255 0.11969
260 0.110188
265 0.16317
270 0.206495
275 0.144568
280 0.153055
285 0.143887
290 0.145005
295 0.118934
300 0.175544
305 0.114771
310 0.139631
315 0.149027
320 0.142371
325 0.127144
330 0.137366
335 0.152019
340 0.173618
345 0.134382
350 0.216193
355 0.209468
360 0.187196
365 0.132573
370 0.105391
375 0.137696
380 0.167065
385 0.168726
390 0.185306
395 0.136878
400 0.220635
405 0.26284
410 0.277603
415 0.352285
420 0.541565
425 12.0134
430 208.831
435 333.162
440 83.7508
445 10.9724
450 2.83041
455 2.0656
460 2.62778
465 3.07694
470 3.22165
475 3.39985
480 3.88764
485 4.12448
490 4.59683
495 6.32441
500 6.37695
505 5.34694
510 5.05201
515 4.61298
520 3.92181
525 3.80973
530 3.55849
535 3.28981
540 2.85867
545 2.76254
550 2.4682
555 2.59801
560 2.06501
565 1.91709
570 1.61371
575 1.31393
580 1.09368
585 0.832671
590 0.684386
595 0.522423
600 0.521563
Ex : 443
200 0.122299
205 0.137458
210 0.147327
215 0.151693
220 0.135857
225 0.12636
230 0.187853
235 0.158588
240 0.104592
245 0.104621
250 0.187287
255 0.137046
260 0.105898
265 0.0973895
270 0.0935102
275 0.139184
280 0.142601
285 0.092884
290 0.108737
295 0.109503
300 0.0945392
305 0.0858157
310 0.160625
315 0.0849729
320 0.104549
325 0.184173
330 0.181559
335 0.16435
340 0.154369
345 0.205866
350 0.116182
355 0.196757
360 0.127303
365 0.16329
370 0.203267
375 0.215062
380 0.227451
385 0.150291
390 0.170026
395 0.168024
400 0.245498
405 0.177686
410 0.191192
415 0.21037
420 0.345075
425 0.498331
430 13.1846
435 223.045
440 343.128
445 85.0107
450 11.1976
455 2.984
460 2.37204
465 2.85393
470 3.06886
475 3.07535
480 3.23715
485 3.55271
490 3.36671
495 3.971
500 5.15849
505 5.61872
510 4.68741
515 4.35254
520 3.97468
525 3.60741
530 3.18427
535 2.78677
540 2.78598
545 2.45353
550 2.16216
555 2.12571
560 1.82593
565 1.63904
570 1.28912
575 1.12709
580 0.8964
585 0.797156
590 0.690093
595 0.491169
600 0.544935
Ex : 448
200 0.155623
205 0.121781
210 0.154842
215 0.124496
220 0.131106
225 0.115793
230 0.147504
235 0.115676
240 0.139784
245 0.133416
250 0.129028
255 0.0755308
260 0.12446
265 0.139801
270 0.105212
275 0.0955153
280 0.134343
285 0.134565
290 0.127628
295 0.170258
300 0.1354
305 0.102899
310 0.173656
315 0.120088
320 0.127323
325 0.118999
330 0.149319
335 0.207377
340 0.127987
345 0.138629
350 0.152918
355 0.130472
360 0.135677
365 0.156766
370 0.152023
375 0.185701
380 0.175916
385 0.158998
390 0.20867
395 0.170358
400 0.25228
405 0.216156
410 0.204597
415 0.215215
420 0.283529
425 0.31027
430 0.582017
435 13.5932
440 236.867
445 366.22
450 91.0553
455 11.9979
460 3.1484
465 2.07732
470 2.40147
475 2.63736
480 2.97019
485 2.82347
490 2.87303
495 2.94673
500 2.96312
505 3.80292
510 4.94191
515 4.43599
520 3.6129
525 3.34292
530 2.86354
535 2.58036
540 2.21294
545 2.01327
550 1.89813
555 1.70093
560 1.61252
565 1.39781
570 1.34518
575 1.08211
580 0.857628
585 0.712365
590 0.55424
595 0.432411
600 0.619331
Ex : 453
200 0.108723
205 0.132392
210 0.105201
215 0.10874
220 0.103997
225 0.134127
230 0.107717
235 0.135618
240 0.131004
245 0.157602
250 0.121046
255 0.0995556
260 0.119749
265 0.164345
270 0.124663
275 0.188049
280 0.135567
285 0.166836
290 0.20643
295 0.156217
300 0.109884
305 0.119791
310 0.11669
315 0.104578
320 0.159646
325 0.161941
330 0.169997
335 0.162219
340 0.142205
345 0.127853
350 0.182907
355 0.246849
360 0.148794
365 0.154844
370 0.164308
375 0.18047
380 0.15102
385 0.155218
390 0.175459
395 0.124815
400 0.150738
405 0.19021
410 0.162858
415 0.190192
420 0.186675
425 0.291771
430 0.400666
435 0.530652
440 14.3376
445 255.538
450 378.3
455 89.1043
460 11.8109
465 3.04446
470 2.04678
475 2.18078
480 2.52665
485 2.54789
490 2.24685
495 2.31391
500 2.41518
505 2.38527
510 2.83424
515 3.85444
520 4.0462
525 3.03681
530 2.82332
535 2.45417
540 2.14227
545 1.78144
550 1.68344
555 1.58667
560 1.38298
565 1.16314
570 1.25423
575 0.966616
580 0.783279
585 0.657463
590 0.505722
595 0.417107
600 0.588105
Ex : 458
200 0.146689
205 0.0948401
210 0.0954572
215 0.153669
220 0.130815
225 0.139585
230 0.174706
235 0.155371
240 0.124133
245 0.133805
250 0.158267
255 0.185224
260 0.181802
265 0.192111
270 0.150215
275 0.121969
280 0.0878965
285 0.135609
290 0.110224
295 0.149277
300 0.181232
305 0.105336
310 0.164263
315 0.175707
320 0.180965
325 0.117305
330 0.192715
335 0.13499
340 0.14736
345 0.137052
350 0.131547
355 0.185415
360 0.118682
365 0.15207
370 0.122347
375 0.152917
380 0.196501
385 0.130612
390 0.134053
395 0.16193
400 0.169482
405 0.175456
410 0.214596
415 0.22334
420 0.239322
425 0.216331
430 0.271558
435 0.357749
440 0.554793
445 15.9042
450 264.97
455 402.114
460 97.686
465 12.6178
470 2.95054
475 1.66164
480 1.75231
485 2.15806
490 2.26715
495 1.93216
500 1.90058
505 1.90633
510 1.94066
515 2.06687
520 3.08159
525 3.90329
530 2.92552
535 2.09579
540 2.27789
545 1.90998
550 1.61284
555 1.45502
560 1.33851
565 1.226
570 0.953802
575 0.866767
580 0.722862
585 0.621607
590 0.517397
595 0.430576
600 0.103666
Ex : 463
200 0.137856
205 0.145825
210 0.137525
215 0.198513
220 0.163414
225 0.127361
230 0.151704
235 0.142036
240 0.158601
245 0.162651
250 0.177867
255 0.153252
260 0.168961
265 0.122339
270 0.156132
275 0.118233
280 0.131503
285 0.145626
290 0.147216
295 0.153666
300 0.13554
305 0.138751
310 0.164275
315 0.140793
320 0.146666
325 0.150185
330 0.123257
335 0.118824
340 0.11853
345 0.113817
350 0.140367
355 0.151827
360 0.184193
365 0.175176
370 0.12966
375 0.139299
380 0.185187
385 0.173179
390 0.163335
395 0.150499
400 0.146471
405 0.169631
410 0.15887
415 0.176218
420 0.194357
425 0.246702
430 0.196474
435 0.267882
440 0.414969
445 0.575937
450 16.016
455 280.202
460 434.004
465 106.695
470 13.5038
475 2.89385
480 1.68773
485 1.59719
490 1.82563
495 1.85675
500 1.95513
505 1.67047
510 1.70817
515 1.76768
520 1.74984
525 2.36228
530 3.34256
535 2.81712
540 2.09617
545 1.94321
550 1.72888
555 1.40916
560 1.2119
565 1.0809
570 1.04305
575 0.880066
580 0.726058
585 0.680741
590 0.527259
595 0.481947
600 0.510067
Ex : 468
200 0.122094
205 0.133626
210 0.11636
215 0.152267
220 0.123498
225 0.122047
230 0.113869
235 0.13163
240 0.109737
245 0.149289
250 0.114391
255 0.0812533
260 0.117369
265 0.119042
270 0.152188
275 0.105534
280 0.141717
285 0.184842
290 0.149122
295 0.148512
300 0.107394
305 0.138929
310 0.110073
315 0.166807
320 0.131615
325 0.0951458
330 0.141727
335 0.127709
340 0.145311
345 0.110426
350 0.126982
355 0.157893
360 0.139479
365 0.151722
370 0.117396
375 0.115814
380 0.148761
385 0.141841
390 0.164726
395 0.139444
400 0.187592
405 0.139439
410 0.153851
415 0.148214
420 0.160137
425 0.193177
430 0.19459
435 0.275064
440 0.280455
445 0.344462
450 0.560844
455 17.4283
460 289.193
465 466.063
470 112.323
475 14.2356
480 2.88712
485 1.56968
490 1.466
495 1.72935
500 1.75568
505 1.58747
510 1.45595
515 1.53663
520 1.5769
525 1.63985
530 2.03811
535 2.89303
540 3.08036
545 2.12969
550 1.74813
555 1.68782
560 1.49009
565 1.19931
570 1.00878
575 0.857156
580 0.684046
585 0.564208
590 0.533047
595 0.458235
600 0.155696
Ex : 473
200 0.121846
205 0.152411
210 0.135168
215 0.170319
220 0.132961
225 0.141221
230 0.109623
235 0.128872
240 0.123554
245 0.115059
250 0.103256
255 0.127032
260 0.171327
265 0.137575
270 0.121722
275 0.11785
280 0.135832
285 0.143432
290 0.145806
295 0.0965886
300 0.133594
305 0.134822
310 0.163597
315 0.123158
320 0.159659
325 0.127142
330 0.119347
335 0.130961
340 0.115485
345 0.139157
350 0.165807
355 0.165966
360 0.165934
365 0.161827
370 0.107152
375 0.153302
380 0.142195
385 0.148426
390 0.124603
395 0.149092
400 0.143488
405 0.138021
410 0.1315
415 0.155508
420 0.205547
425 0.210574
430 0.207145
435 0.190424
440 0.238642
445 0.276273
450 0.39714
455 0.635669
460 21.1694
465 322.258
470 458.9
475 107.007
480 13.3794
485 2.79535
490 1.59102
495 1.31921
500 1.51133
505 1.65945
510 1.61134
515 1.37199
520 1.44092
525 1.58908
530 1.50357
535 1.57324
540 2.40299
545 3.00704
550 2.17244
555 1.58123
560 1.5884
565 1.42043
570 1.01403
575 0.828569
580 0.728613
585 0.669776
590 0.492332
595 0.411314
600 0.428259
Ex : 478
200 0.214777
205 0.113218
210 0.116171
215 0.178381
220 0.153456
225 0.132751
230 0.145521
235 0.118757
240 0.13682
245 0.149331
250 0.111912
255 0.126667
260 0.147806
265 0.131915
270 0.213548
275 0.159213
280 0.187741
285 0.107625
290 0.180189
295 0.173986
300 0.15225
305 0.164358
310 0.231509
315 0.149928
320 0.189957
325 0.136378
330 0.143848
335 0.129644
340 0.239215
345 0.174873
350 0.181162
355 0.158904
360 0.164498
365 0.186009
370 0.148749
375 0.183893
380 0.159615
385 0.214588
390 0.199
395 0.188473
400 0.122137
405 0.193631
410 0.174179
415 0.18876
420 0.215012
425 0.166242
430 0.171549
435 0.198088
440 0.245206
445 0.267716
450 0.352268
455 0.470938
460 0.840924
465 23.4921
470 336.998
475 477.278
480 116.055
485 14.5964
490 2.8924
495 1.50474
500 1.26612
505 1.48466
510 1.63602
515 1.48906
520 1.39039
525 1.48101
530 1.36162
535 1.43396
540 1.44197
545 1.96501
550 2.50985
555 2.23112
560 1.55969
565 1.44341
570 1.34717
575 0.959449
580 0.771033
585 0.581927
590 0.51497
595 0.469761
600 0.446632
Ex : 483
200 0.135511
205 0.142779
210 0.117503
215 0.164485
220 0.0908668
225 0.148178
230 0.164414
235 0.186596
240 0.178848
245 0.13816
250 0.172298
255 0.168245
260 0.173875
265 0.118725
270 0.127132
275 0.148492
280 0.141317
285 0.150839
290 0.173087
295 0.178695
300 0.191997
305 0.129648
310 0.163916
315 0.206045
320 0.174997
325 0.181223
330 0.17674
335 0.156151
340 0.151072
345 0.181892
350 0.115279
355 0.230583
360 0.155894
365 0.215893
370 0.148105
375 0.157288
380 0.166127
385 0.186388
390 0.194855
395 0.199605
400 0.15697
405 0.181041
410 0.255729
415 0.192092
420 0.197338
425 0.190604
430 0.190299
435 0.208143
440 0.183881
445 0.27568
450 0.26178
455 0.335674
460 0.450113
465 0.644662
470 18.413
475 340.322
480 517.053
485 123.627
490 15.2643
495 2.75734
500 1.41393
505 1.25261
510 1.44825
515 1.56313
520 1.45278
525 1.46277
530 1.47907
535 1.36789
540 1.29955
545 1.31876
550 1.63375
555 2.37617
560 2.19782
565 1.66158
570 1.18608
575 1.08969
580 0.810538
585 0.658352
590 0.481107
595 0.512205
600 0.144446
Ex : 488
200 0.215452
205 0.233516
210 0.147286
215 0.160447
220 0.197506
225 0.161324
230 0.136847
235 0.232561
240 0.112098
245 0.179124
250 0.189942
255 0.177059
260 0.183536
265 0.148207
270 0.181489
275 0.240653
280 0.159847
285 0.173324
290 0.162033
295 0.177595
300 0.186923
305 0.174352
310 0.132635
315 0.254698
320 0.20279
325 0.181275
330 0.243556
335 0.18251
340 0.181493
345 0.216143
350 0.180601
355 0.166443
360 0.173031
365 0.188913
370 0.175009
375 0.236875
380 0.19145
385 0.16839
390 0.217503
395 0.206814
400 0.16214
405 0.17458
410 0.232585
415 0.161754
420 0.296791
425 0.261506
430 0.231733
435 0.198676
440 0.222267
445 0.230952
450 0.237704
455 0.295599
460 0.354266
465 0.617371
470 0.855958
475 23.8227
480 378.444
485 536.617
490 127.204
495 15.8886
500 3.11914
505 1.43977
510 1.31524
515 1.43802
520 1.73631
525 1.63705
530 1.59424
535 1.41203
540 1.2892
545 1.32904
550 1.30123
555 1.36204
560 1.72483
565 2.1768
570 1.59278
575 1.16859
580 0.94728
585 0.796967
590 0.696006
595 0.520637
600 1.167
Ex : 493
200 0.197031
205 0.19118
210 0.244553
215 0.206069
220 0.189191
225 0.182402
230 0.255523
235 0.166138
240 0.177495
245 0.155299
250 0.163766
255 0.232122
260 0.155015
265 0.196177
270 0.183811
275 0.21566
280 0.14836
285 0.150379
290 0.277382
295 0.159431
300 0.210089
305 0.121991
310 0.134991
315 0.124478
320 0.17794
325 0.186467
330 0.211673
335 0.182163
340 0.224401
345 0.176604
350 0.179147
355 0.218686
360 0.190481
365 0.147759
370 0.200571
375 0.211312
380 0.14087
385 0.172688
390 0.192892
395 0.186524
400 0.239405
405 0.20982
410 0.213269
415 0.226517
420 0.232759
425 0.260258
430 0.184094
435 0.226455
440 0.250747
445 0.22311
450 0.236279
455 0.287314
460 0.329841
465 0.367491
470 0.515353
475 0.731168
480 21.0729
485 378.669
490 571.184
495 132.056
500 16.2316
505 3.0537
510 1.44592
515 1.26367
520 1.39288
525 1.51429
530 1.45653
535 1.36321
540 1.14869
545 1.17045
550 1.15421
555 1.06262
560 1.11908
565 1.38219
570 1.90227
575 1.61901
580 1.02888
585 0.674792
590 0.62572
595 0.515304
600 0.780732
Ex : 498
200 0.216305
205 0.218763
210 0.254493
215 0.179556
220 0.25884
225 0.157816
230 0.168593
235 0.218479
240 0.210792
245 0.20091
250 0.205071
255 0.241289
260 0.198765
265 0.182144
270 0.163414
275 0.145778
280 0.202432
285 0.176475
290 0.206647
295 0.176034
300 0.214493
305 0.187121
310 0.210279
315 0.217767
320 0.147857
325 0.16342
330 0.1722
335 0.214454
340 0.183774
345 0.170595
350 0.120898
355 0.212437
360 0.195388
365 0.230178
370 0.229716
375 0.201477
380 0.263538
385 0.228302
390 0.174991
395 0.262174
400 0.231047
405 0.221556
410 0.191834
415 0.264103
420 0.302257
425 0.21883
430 0.249029
435 0.30017
440 0.305344
445 0.265608
450 0.305601
455 0.277148
460 0.387862
465 0.396595
470 0.41148
475 0.560851
480 0.802267
485 27.5754
490 413.252
495 571.593
500 131.736
505 16.3762
510 3.03963
515 1.41693
520 1.28782
525 1.23819
530 1.7373
535 1.70869
540 1.44105
545 1.21793
550 1.14832
555 1.18739
560 1.07168
565 1.13483
570 0.970861
575 1.39276
580 1.54083
585 0.949188
590 0.616803
595 0.559491
600 0.816941
Ex : 503
200 0.167625
205 0.190577
210 0.19371
215 0.179822
220 0.161194
225 0.187055
230 0.176516
235 0.261002
240 0.169338
245 0.247555
250 0.259941
255 0.139923
260 0.182543
265 0.19622
270 0.183177
275 0.18047
280 0.158843
285 0.178744
290 0.215047
295 0.18134
300 0.210189
305 0.22163
310 0.215008
315 0.32485
320 0.219129
325 0.209013
330 0.184776
335 0.164375
340 0.294384
345 0.273007
350 0.200344
355 0.188692
360 0.193943
365 0.16594
370 0.192784
375 0.262502
380 0.276705
385 0.220813
390 0.248496
395 0.253888
400 0.211983
405 0.244273
410 0.265195
415 0.256631
420 0.204439
425 0.222412
430 0.282871
435 0.229499
440 0.208946
445 0.215285
450 0.262973
455 0.267358
460 0.28922
465 0.379247
470 0.396143
475 0.490662
480 0.526171
485 0.857394
490 24.5418
495 413.673
500 599.357
505 138.196
510 17.0433
515 3.03013
520 1.57216
525 1.3157
530 1.35786
535 1.43423
540 1.39534
545 1.3753
550 1.16708
555 1.14695
560 0.961674
565 0.956961
570 0.838576
575 0.851828
580 0.866535
585 1.16997
590 0.965423
595 0.590419
600 0.0710743
Ex : 508
200 0.132625
205 0.187155
210 0.195184
215 0.165436
220 0.183835
225 0.208036
230 0.179235
235 0.220307
240 0.22705
245 0.193566
250 0.220499
255 0.212214
260 0.171349
265 0.247857
270 0.238024
275 0.202478
280 0.268079
285 0.145779
290 0.191778
295 0.176762
300 0.222138
305 0.281128
310 0.253204
315 0.209825
320 0.198605
325 0.209282
330 0.257898
335 0.271573
340 0.239026
345 0.279905
350 0.276469
355 0.259221
360 0.275473
365 0.190133
370 0.226852
375 0.220749
380 0.188727
385 0.216281
390 0.276854
395 0.192164
400 0.1987
405 0.240061
410 0.235637
415 0.232411
420 0.31247
425 0.191947
430 0.19828
435 0.259677
440 0.278834
445 0.396825
450 0.346307
455 0.260621
460 0.319913
465 0.294287
470 0.43563
475 0.459792
480 0.594615
485 0.602764
490 0.915972
495 27.7427
500 427.793
505 606.069
510 145.369
515 17.9923
520 3.34058
525 1.63589
530 1.39218
535 1.18048
540 1.44872
545 1.48502
550 1.25771
555 0.971858
560 0.930419
565 0.818907
570 0.795493
575 0.753647
580 0.622235
585 0.669531
590 0.926479
595 0.822764
600 0.971811
Ex : 513
200 0.218736
205 0.315513
210 0.258422
215 0.228538
220 0.188616
225 0.196587
230 0.270576
235 0.192514
240 0.187769
245 0.243341
250 0.252466
255 0.264338
260 0.217291
265 0.233152
270 0.222272
275 0.189857
280 0.165322
285 0.184207
290 0.266745
295 0.245243
300 0.164957
305 0.233762
310 0.260787
315 0.242747
320 0.189988
325 0.224987
330 0.186812
335 0.180847
340 0.292427
345 0.220492
350 0.206329
355 0.278403
360 0.227159
365 0.232522
370 0.205311
375 0.188963
380 0.26868
385 0.282717
390 0.25597
395 0.2284
400 0.252372
405 0.206534
410 0.22586
415 0.290524
420 0.296711
425 0.326752
430 0.293684
435 0.332618
440 0.283705
445 0.268698
450 0.311513
455 0.365501
460 0.349665
465 0.31168
470 0.336273
475 0.388147
480 0.480704
485 0.495777
490 0.564078
495 0.93874
500 26.1004
505 428.866
510 625.356
515 152.239
520 18.7879
525 3.37037
530 1.64901
535 1.26878
540 1.34939
545 1.2198
550 1.24611
555 1.14985
560 1.0641
565 0.965402
570 0.806134
575 0.658893
580 0.722887
585 0.592572
590 0.52553
595 0.84854
600 0.949635
Ex : 518
200 0.224344
205 0.202994
210 0.207412
215 0.232494
220 0.253122
225 0.232512
230 0.163947
235 0.217388
240 0.26209
245 0.190472
250 0.18492
255 0.244404
260 0.171518
265 0.195925
270 0.202233
275 0.224037
280 0.277952
285 0.226021
290 0.24575
295 0.21301
300 0.285759
305 0.205756
310 0.268732
315 0.21172
320 0.257583
325 0.235829
330 0.228883
335 0.249806
340 0.284286
345 0.164029
350 0.209132
355 0.199783
360 0.295498
365 0.233405
370 0.137705
375 0.236262
380 0.284781
385 0.254315
390 0.257762
395 0.25573
400 0.234479
405 0.346123
410 0.235631
415 0.244701
420 0.214909
425 0.223852
430 0.223648
435 0.268104
440 0.276042
445 0.29218
450 0.223448
455 0.30618
460 0.227071
465 0.288449
470 0.276424
475 0.307202
480 0.452163
485 0.441201
490 0.492347
495 0.538644
500 0.902557
505 26.7062
510 424.46
515 634.175
520 156.249
525 19.1671
530 3.43124
535 1.51912
540 1.24038
545 1.09895
550 1.0847
555 1.1421
560 1.15088
565 0.965816
570 0.873636
575 0.697392
580 0.663274
585 0.613874
590 0.541727
595 0.638495
600 0.0768783
Ex : 523
200 0.249001
205 0.259628
210 0.248868
215 0.237109
220 0.239956
225 0.240239
230 0.240763
235 0.185287
240 0.207324
245 0.230754
250 0.288585
255 0.276685
260 0.178013
265 0.252411
270 0.207452
275 0.255255
280 0.284753
285 0.217657
290 0.194121
295 0.218148
300 0.220675
305 0.190549
310 0.193615
315 0.221087
320 0.251752
325 0.292196
330 0.178233
335 0.241938
340 0.275819
345 0.240955
350 0.22256
355 0.312551
360 0.237724
365 0.213048
370 0.200875
375 0.1546
380 0.225005
385 0.243374
390 0.261595
395 0.292995
400 0.241199
405 0.224696
410 0.184329
415 0.307802
420 0.286609
425 0.305149
430 0.306329
435 0.396502
440 0.326455
445 0.33523
450 0.322123
455 0.284132
460 0.312861
465 0.295402
470 0.398339
475 0.320068
480 0.329827
485 0.346689
490 0.424222
495 0.484489
500 0.638007
505 0.995068
510 24.3748
515 412.674
520 644.864
525 164.673
530 20.2121
535 3.41138
540 1.52562
545 1.32276
550 1.04692
555 1.05665
560 0.985878
565 0.849659
570 0.837638
575 0.727353
580 0.623536
585 0.566987
590 0.432907
595 0.48676
600 0.647635
Ex : 528
200 0.202297
205 0.22011
210 0.205325
215 0.282343
220 0.265765
225 0.24678
230 0.25053
235 0.299709
240 0.238573
245 0.252651
250 0.164112
255 0.22051
260 0.293091
265 0.275712
270 0.259037
275 0.230276
280 0.144444
285 0.233436
290 0.261886
295 0.271307
300 0.164494
305 0.275682
310 0.306162
315 0.241872
320 0.23875
325 0.271144
330 0.219286
335 0.233282
340 0.355609
345 0.327899
350 0.279731
355 0.280601
360 0.211075
365 0.343326
370 0.312426
375 0.16741
380 0.251978
385 0.297508
390 0.247524
395 0.265266
400 0.258696
405 0.257959
410 0.26416
415 0.276802
420 0.276956
425 0.277353
430 0.320777
435 0.258431
440 0.323049
445 0.259094
450 0.234518
455 0.255228
460 0.258298
465 0.315775
470 0.297463
475 0.282367
480 0.373678
485 0.391899
490 0.361083
495 0.44643
500 0.506398
505 0.631287
510 0.857219
515 23.1581
520 419.321
525 640.797
530 161.125
535 19.7473
540 3.30736
545 1.37691
550 1.05994
555 1.06185
560 1.00985
565 0.946982
570 0.809999
575 0.719005
580 0.520234
585 0.625142
590 0.410841
595 0.300711
600 0.459236
Ex : 533
200 0.188293
205 0.193973
210 0.161321
215 0.204761
220 0.240967
225 0.256873
230 0.282844
235 0.321453
240 0.225521
245 0.233585
250 0.2253
255 0.223166
260 0.248114
265 0.280547
270 0.344198
275 0.21327
280 0.181809
285 0.291526
290 0.296173
295 0.257988
300 0.210609
305 0.236216
310 0.230993
315 0.321799
320 0.307645
325 0.30153
330 0.228417
335 0.284669
340 0.254531
345 0.163214
350 0.190362
355 0.205768
360 0.404238
365 0.196454
370 0.230002
375 0.201714
380 0.272769
385 0.340699
390 0.272139
395 0.233571
400 0.20749
405 0.3772
410 0.211416
415 0.20296
420 0.325455
425 0.27151
430 0.20504
435 0.335285
440 0.355397
445 0.2752
450 0.406253
455 0.346279
460 0.305621
465 0.30342
470 0.252908
475 0.339052
480 0.351118
485 0.306559
490 0.27344
495 0.409138
500 0.426392
505 0.585848
510 0.565024
515 0.979258
520 22.9598
525 400.197
530 636.168
535 165.647
540 20.238
545 3.23562
550 1.39958
555 0.780234
560 0.801341
565 0.846108
570 0.823841
575 0.843211
580 0.646657
585 0.585995
590 0.466417
595 0.301209
600 0.769345
Ex : 538
200 0.297408
205 0.25528
210 0.341976
215 0.194737
220 0.273845
225 0.252915
230 0.223511
235 0.288094
240 0.209431
245 0.246936
250 0.281793
255 0.35167
260 0.193062
265 0.271189
270 0.234541
275 0.285492
280 0.263512
285 0.241935
290 0.229209
295 0.286324
300 0.298064
305 0.31755
310 0.170611
315 0.247707
320 0.221325
325 0.2969
330 0.307042
335 0.211768
340 0.316531
345 0.221971
350 0.181291
355 0.227144
360 0.22621
365 0.26712
370 0.311787
375 0.220418
380 0.251469
385 0.264236
390 0.212587
395 0.298974
400 0.320046
405 0.235707
410 0.194201
415 0.257144
420 0.362839
425 0.321228
430 0.240556
435 0.305974
440 0.279802
445 0.260434
450 0.316603
455 0.382485
460 0.244279
465 0.222972
470 0.330503
475 0.390233
480 0.326859
485 0.313136
490 0.315844
495 0.304173
500 0.421173
505 0.49309
510 0.501727
515 0.584733
520 1.01414
525 20.1673
530 394.093
535 645.176
540 170.568
545 20.785
550 3.21532
555 1.10424
560 0.799105
565 0.751266
570 0.574697
575 0.549063
580 0.634929
585 0.577022
590 0.478669
595 0.416582
600 0.248598
Ex : 543
200 0.21148
205 0.2398
210 0.411068
215 0.242619
220 0.27827
225 0.346534
230 0.215636
235 0.374288
240 0.333525
245 0.232632
250 0.21145
255 0.273981
260 0.225722
265 0.306084
270 0.318341
275 0.212879
280 0.357868
285 0.31481
290 0.217477
295 0.23415
300 0.217059
305 0.371563
310 0.232443
315 0.306187
320 0.219351
325 0.287375
330 0.315193
335 0.315932
340 0.297593
345 0.24519
350 0.253178
355 0.253824
360 0.266689
365 0.242005
370 0.276358
375 0.265659
380 0.328951
385 0.338839
390 0.294597
395 0.30507
400 0.291902
405 0.274195
410 0.355812
415 0.337776
420 0.387566
425 0.245375
430 0.309387
435 0.298156
440 0.366476
445 0.342072
450 0.242974
455 0.282601
460 0.215228
465 0.351205
470 0.283463
475 0.26317
480 0.279782
485 0.356975
490 0.329026
495 0.466541
500 0.410317
505 0.346913
510 0.420766
515 0.466055
520 0.515316
525 0.948724
530 17.8567
535 368.787
540 642.751
545 177.126
550 21.7391
555 3.31799
560 1.15153
565 0.81859
570 0.793503
575 0.582751
580 0.694999
585 0.561406
590 0.695381
595 0.478825
600 0.147515
Ex : 548
200 0.212815
205 0.233034
210 0.30234
215 0.294399
220 0.216464
225 0.246426
230 0.26802
235 0.198229
240 0.310513
245 0.369503
250 0.271403
255 0.241183
260 0.26959
265 0.322099
270 0.252116
275 0.231244
280 0.299879
285 0.245646
290 0.304544
295 0.312531
300 0.209908
305 0.260313
310 0.231654
315 0.268712
320 0.278682
325 0.305991
330 0.293226
335 0.238907
340 0.302411
345 0.426806
350 0.291273
355 0.211716
360 0.230127
365 0.283106
370 0.274391
375 0.287476
380 0.34765
385 0.311019
390 0.34322
395 0.284085
400 0.28263
405 0.337725
410 0.224029
415 0.379782
420 0.262811
425 0.22862
430 0.392545
435 0.370619
440 0.250772
445 0.306917
450 0.265472
455 0.229648
460 0.222812
465 0.294048
470 0.30807
475 0.285703
480 0.336706
485 0.392022
490 0.311742
495 0.324973
500 0.33387
505 0.334201
510 0.450405
515 0.408316
520 0.574904
525 0.832804
530 1.14421
535 20.696
540 376.913
545 617.115
550 171.956
555 20.7872
560 3.21384
565 1.22225
570 0.758333
575 0.609594
580 0.524529
585 0.435804
590 0.500451
595 0.408602
600 0.222731
Ex : 553
200 0.313099
205 0.313136
210 0.326141
215 0.366579
220 0.367877
225 0.239404
230 0.227144
235 0.2956
240 0.258662
245 0.329222
250 0.304669
255 0.317395
260 0.291909
265 0.271457
270 0.275735
275 0.200971
280 0.216929
285 0.309617
290 0.30858
295 0.20484
300 0.323993
305 0.271431
310 0.334115
315 0.354664
320 0.269125
325 0.274303
330 0.223851
335 0.179968
340 0.248748
345 0.312121
350 0.254234
355 0.256915
360 0.410458
365 0.286096
370 0.210347
375 0.32334
380 0.3441
385 0.341132
390 0.336843
395 0.253847
400 0.294962
405 0.274962
410 0.343708
415 0.310982
420 0.288519
425 0.363863
430 0.315489
435 0.342974
440 0.268391
445 0.295634
450 0.308748
455 0.42403
460 0.395055
465 0.30669
470 0.306784
475 0.328821
480 0.210263
485 0.339502
490 0.347073
495 0.315604
500 0.346217
505 0.362074
510 0.386264
515 0.392685
520 0.416203
525 0.474274
530 0.592198
535 0.998986
540 17.9218
545 355.029
550 627.534
555 177.517
560 21.6717
565 3.15613
570 0.950041
575 0.588827
580 0.483582
585 0.417568
590 0.477354
595 0.445107
600 0.48598
Ex : 558
200 0.278993
205 0.335527
210 0.225113
215 0.298009
220 0.230506
225 0.292553
230 0.223396
235 0.326304
240 0.26036
245 0.376649
250 0.224037
255 0.239911
260 0.322659
265 0.325129
270 0.219894
275 0.348735
280 0.275165
285 0.273872
290 0.270188
295 0.231761
300 0.404516
305 0.186379
310 0.257685
315 0.225476
320 0.312473
325 0.25378
330 0.23755
335 0.285498
340 0.173557
345 0.303515
350 0.3014
355 0.284982
360 0.252757
365 0.254998
370 0.265672
375 0.384201
380 0.319526
385 0.500024
390 0.236923
395 0.353632
400 0.26522
405 0.260663
410 0.256759
415 0.36516
420 0.264224
425 0.34183
430 0.412827
435 0.344442
440 0.362602
445 0.317087
450 0.298786
455 0.353239
460 0.337698
465 0.341929
470 0.319406
475 0.295818
480 0.4466
485 0.414333
490 0.306176
495 0.357004
500 0.330876
505 0.349803
510 0.379102
515 0.429234
520 0.441225
525 0.471112
530 0.550155
535 0.614553
540 0.746561
545 16.279
550 340.307
555 605.466
560 172.477
565 20.9417
570 3.15625
575 1.04495
580 0.66511
585 0.550393
590 0.476477
595 0.464344
600 0.239691
Ex : 563
200 0.23444
205 0.25643
210 0.303687
215 0.227252
220 0.336556
225 0.329427
230 0.315593
235 0.273247
240 0.225001
245 0.347655
250 0.357275
255 0.328755
260 0.262527
265 0.295377
270 0.270792
275 0.292203
280 0.245856
285 0.358314
290 0.267837
295 0.320757
300 0.28599
305 0.341796
310 0.262405
315 0.268724
320 0.316576
325 0.27616
330 0.282417
335 0.341972
340 0.252385
345 0.293227
350 0.376998
355 0.300665
360 0.263775
365 0.302634
370 0.322282
375 0.338564
380 0.38848
385 0.362832
390 0.299572
395 0.300788
400 0.270213
405 0.346325
410 0.330902
415 0.392376
420 0.37547
425 0.279897
430 0.412707
435 0.296648
440 0.369196
445 0.276515
450 0.295467
455 0.267624
460 0.327351
465 0.351937
470 0.346904
475 0.363317
480 0.339619
485 0.241678
490 0.396611
495 0.423752
500 0.412542
505 0.273776
510 0.324397
515 0.350273
520 0.342922
525 0.492767
530 0.508788
535 0.609258
540 0.726381
545 0.897299
550 16.9047
555 334.897
560 596.207
565 172.19
570 20.8652
575 3.2891
580 0.821108
585 0.591382
590 0.645694
595 0.402707
600 0.688324
Ex : 568
200 0.20162
205 0.279848
210 0.287526
215 0.31248
220 0.403324
225 0.328132
230 0.454694
235 0.297781
240 0.315494
245 0.220283
250 0.402268
255 0.228913
260 0.243513
265 0.311847
270 0.24205
275 0.28974
280 0.240641
285 0.248115
290 0.363947
295 0.303883
300 0.262306
305 0.222384
310 0.208193
315 0.246541
320 0.269014
325 0.318104
330 0.417885
335 0.4732
340 0.394202
345 0.340941
350 0.313135
355 0.437018
360 0.33962
365 0.299247
370 0.340947
375 0.308849
380 0.257241
385 0.328926
390 0.352644
395 0.421854
400 0.416496
405 0.372787
410 0.350008
415 0.379171
420 0.358413
425 0.298102
430 0.331712
435 0.311717
440 0.3444
445 0.366327
450 0.354105
455 0.390278
460 0.368766
465 0.431049
470 0.375405
475 0.407196
480 0.366408
485 0.361183
490 0.308548
495 0.524414
500 0.452981
505 0.351775
510 0.316261
515 0.437891
520 0.428359
525 0.441808
530 0.502982
535 0.461844
540 0.513567
545 0.62178
550 0.832735
555 12.0458
560 309.172
565 581.986
570 177.33
575 21.4175
580 3.02663
585 0.889136
590 0.545854
595 0.406167
600 0.142794
Ex : 573
200 0.285871
205 0.200544
210 0.253767
215 0.288384
220 0.244458
225 0.26882
230 0.341639
235 0.254315
240 0.319653
245 0.352527
250 0.311025
255 0.242545
260 0.319677
265 0.286308
270 0.313852
275 0.212253
280 0.326753
285 0.397182
290 0.279578
295 0.279144
300 0.259622
305 0.162348
310 0.310331
315 0.402323
320 0.248699
325 0.359659
330 0.272111
335 0.314371
340 0.301523
345 0.398324
350 0.267158
355 0.266816
360 0.287435
365 0.268172
370 0.365554
375 0.307334
380 0.431562
385 0.422035
390 0.222139
395 0.318427
400 0.341648
405 0.38678
410 0.360605
415 0.327744
420 0.274765
425 0.306504
430 0.274733
435 0.438359
440 0.415104
445 0.388009
450 0.314253
455 0.379072
460 0.375656
465 0.345805
470 0.225436
475 0.294708
480 0.395112
485 0.250974
490 0.313969
495 0.308987
500 0.295304
505 0.475789
510 0.507984
515 0.417708
520 0.369995
525 0.398814
530 0.376184
535 0.370297
540 0.394939
545 0.63752
550 0.50615
555 0.744082
560 11.1203
565 261.368
570 530.562
575 165.573
580 20.2663
585 2.92648
590 0.749828
595 0.400975
600 0.529543
Ex : 578
200 0.290495
205 0.249183
210 0.280897
215 0.200041
220 0.294133
225 0.292002
230 0.332337
235 0.240577
240 0.321769
245 0.463162
250 0.347103
255 0.291212
260 0.327485
265 0.400335
270 0.323082
275 0.359974
280 0.266233
285 0.287366
290 0.220198
295 0.228886
300 0.317019
305 0.328069
310 0.338185
315 0.279302
320 0.314587
325 0.381947
330 0.259248
335 0.219176
340 0.290397
345 0.230869
350 0.268396
355 0.330027
360 0.277635
365 0.260492
370 0.335731
375 0.255134
380 0.269603
385 0.225065
390 0.322029
395 0.322888
400 0.357291
405 0.305013
410 0.364262
415 0.417896
420 0.344788
425 0.312827
430 0.410932
435 0.33439
440 0.308925
445 0.454722
450 0.323282
455 0.299973
460 0.392694
465 0.382152
470 0.299206
475 0.387638
480 0.419127
485 0.287576
490 0.377971
495 0.31887
500 0.346443
505 0.278384
510 0.403299
515 0.30587
520 0.409223
525 0.394647
530 0.46339
535 0.431266
540 0.432843
545 0.430629
550 0.469153
555 0.658484
560 0.745004
565 9.75728
570 238.457
575 460.406
580 144.846
585 17.4975
590 2.49442
595 0.685179
600 0.239643
Ex : 583
200 0.247306
205 0.320185
210 0.450087
215 0.269977
220 0.26458
225 0.299442
230 0.405815
235 0.266211
240 0.454871
245 0.343045
250 0.269418
255 0.349591
260 0.44135
265 0.321354
270 0.41654
275 0.384762
280 0.334108
285 0.289587
290 0.281786
295 0.248851
300 0.276951
305 0.266099
310 0.259726
315 0.335195
320 0.242446
325 0.247405
330 0.290442
335 0.260195
340 0.285079
345 0.295851
350 0.269703
355 0.555822
360 0.374184
365 0.33995
370 0.323922
375 0.384638
380 0.391112
385 0.362376
390 0.299125
395 0.323367
400 0.238453
405 0.302179
410 0.421692
415 0.351306
420 0.343039
425 0.417762
430 0.300444
435 0.380319
440 0.324929
445 0.333316
450 0.360092
455 0.275669
460 0.273826
465 0.324302
470 0.382273
475 0.497032
480 0.420234
485 0.408561
490 0.272064
495 0.408808
500 0.319809
505 0.264761
510 0.490784
515 0.331652
520 0.322084
525 0.334081
530 0.397894
535 0.360091
540 0.369201
545 0.447403
550 0.472908
555 0.6423
560 0.51959
565 0.642815
570 8.5316
575 212.704
580 396.718
585 117.325
590 14.3035
595 2.09685
600 0.546452
Ex : 588
200 0.274594
205 0.275288
210 0.275744
215 0.242182
220 0.322654
225 0.301232
230 0.321989
235 0.368026
240 0.299471
245 0.294799
250 0.272604
255 0.287578
260 0.247346
265 0.264805
270 0.300206
275 0.276532
280 0.428109
285 0.24189
290 0.382375
295 0.302512
300 0.256014
305 0.37277
310 0.228973
315 0.393671
320 0.484682
325 0.34086
330 0.281812
335 0.274938
340 0.317946
345 0.268641
350 0.347662
355 0.345956
360 0.269638
365 0.423346
370 0.488274
375 0.368863
380 0.309678
385 0.318146
390 0.293297
395 0.344683
400 0.318564
405 0.283493
410 0.26171
415 0.289557
420 0.297332
425 0.368278
430 0.460488
435 0.365315
440 0.453678
445 0.269248
450 0.396647
455 0.282532
460 0.360658
465 0.361642
470 0.374375
475 0.352092
480 0.249868
485 0.39925
490 0.39165
495 0.363473
500 0.329497
505 0.308267
510 0.299839
515 0.361867
520 0.273899
525 0.362692
530 0.410293
535 0.440762
540 0.352558
545 0.401098
550 0.390236
555 0.383534
560 0.386498
565 0.431331
570 0.581206
575 7.34751
580 181.14
585 344.982
590 102.228
595 12.488
600 1.62808
Ex : 593
200 0.257026
205 0.372434
210 0.342881
215 0.286625
220 0.287567
225 0.356719
230 0.340266
235 0.34859
240 0.273191
245 0.25653
250 0.286513
255 0.288523
260 0.35561
265 0.25249
270 0.241236
275 0.399075
280 0.259939
285 0.304206
290 0.472696
295 0.439839
300 0.38992
305 0.308745
310 0.409852
315 0.252042
320 0.529351
325 0.358307
330 0.238299
335 0.37602
340 0.335121
345 0.358233
350 0.31925
355 0.327343
360 0.28446
365 0.341608
370 0.291662
375 0.331159
380 0.30211
385 0.439876
390 0.318004
395 0.328063
400 0.268481
405 0.224083
410 0.428305
415 0.253088
420 0.25283
425 0.369508
430 0.373001
435 0.348877
440 0.278337
445 0.257331
450 0.35671
455 0.437834
460 0.350116
465 0.454169
470 0.344273
475 0.320587
480 0.308189
485 0.350764
490 0.358645
495 0.280115
500 0.345367
505 0.301445
510 0.514244
515 0.403888
520 0.309177
525 0.313723
530 0.349008
535 0.32101
540 0.371115
545 0.23295
550 0.523465
555 0.374002
560 0.361981
565 0.403055
570 0.567012
575 0.600309
580 6.23602
585 158.384
590 302.467
595 92.1931
600 13.2746
Ex : 598
200 0.224776
205 0.215873
210 0.282407
215 0.398148
220 0.293952
225 0.192897
230 0.444824
235 0.23113
240 0.271269
245 0.27726
250 0.253061
255 0.230132
260 0.308314
265 0.280348
270 0.318109
275 0.358927
280 0.243936
285 0.264903
290 0.251696
295 0.267087
300 0.432023
305 0.33447
310 0.207579
315 0.41864
320 0.308583
325 0.268036
330 0.2756
335 0.267716
340 0.227455
345 0.353712
350 0.24116
355 0.463877
360 0.333738
365 0.322972
370 0.359539
375 0.361634
380 0.363408
385 0.253643
390 0.371916
395 0.300645
400 0.30916
405 0.35727
410 0.306484
415 0.266791
420 0.321465
425 0.238136
430 0.335549
435 0.371159
440 0.292472
445 0.52584
450 0.422254
455 0.379458
460 0.335022
465 0.322856
470 0.398371
475 0.26155
480 0.442656
485 0.376825
490 0.321531
495 0.363947
500 0.247762
505 0.319134
510 0.4014
515 0.409604
520 0.399162
525 0.367891
530 0.464092
535 0.330876
540 0.467271
545 0.450547
550 0.425346
555 0.371815
560 0.386388
565 0.450577
570 0.530195
575 0.591224
580 0.632714
585 6.42552
590 146.399
595 273.761
600 170.855
Ex : 603
200 0.273491
205 0.283601
210 0.305674
215 0.350999
220 0.3701
225 0.285257
230 0.294004
235 0.278216
240 0.29803
245 0.312356
250 0.314841
255 0.307157
260 0.442795
265 0.393947
270 0.274458
275 0.367612
280 0.321906
285 0.238974
290 0.331605
295 0.37667
300 0.393312
305 0.333051
310 0.309119
315 0.320332
320 0.407627
325 0.282105
330 0.566657
335 0.304233
340 0.365187
345 0.345458
350 0.30043
355 0.318297
360 0.353469
365 0.439563
370 0.294664
375 0.275838
380 0.29215
385 0.407401
390 0.331262
395 0.467133
400 0.296256
405 0.287385
410 0.359667
415 0.274609
420 0.380097
425 0.372375
430 0.325645
435 0.394327
440 0.308405
445 0.453701
450 0.361062
455 0.326255
460 0.401932
465 0.340966
470 0.331302
475 0.366305
480 0.317469
485 0.349947
490 0.337305
495 0.244312
500 0.376564
505 0.272069
510 0.249731
515 0.299121
520 0.335917
525 0.566747
530 0.445426
535 0.38873
540 0.552893
545 0.45546
550 0.334208
555 0.317895
560 0.380008
565 0.459659
570 0.483687
575 0.472038
580 0.557083
585 0.524679
590 5.73772
595 124.459
600 261.911
