File format V 1.0
ven. 13. janv. 00:49:34 2017
Operator : 
Comments : 

=============================================
SpectroFluorometer parameters
Mode : 3D measurement
Data : Fluorescence
Phospho. : Ordinary
Spectrum : Fluorescence

Scan speed : 2400 nm/mn
Response : 100 ms
PM Voltage : 700 V
Shutter : On

Lambda Ex. Start : 203
Lambda Ex. End : 603
Lambda Ex. Step : 5
Ex. Slit : 5 nm

Lambda Em. Start : 200
Lambda Em. End : 600
Lambda Em. Step : 5
Em. Slit : 5 nm

Repetition : 1
Decal lambda em : 10
=============================================
DATA
Ex : 203
200 8.58537
205 4.77439
210 7.23809
215 5.99672
220 5.69303
225 4.274
230 6.13591
235 9.1405
240 6.71535
245 5.39309
250 4.62688
255 7.40011
260 8.10558
265 8.68416
270 6.6022
275 5.16081
280 5.57534
285 6.59579
290 6.66755
295 7.38088
300 4.62413
305 10.1007
310 6.29196
315 5.11048
320 8.9178
325 6.31063
330 5.00579
335 6.24636
340 6.85002
345 7.46824
350 7.24318
355 5.68507
360 6.49145
365 5.80336
370 5.56554
375 6.47461
380 5.10296
385 7.66128
390 6.59335
395 6.31079
400 11.5665
405 6.66431
410 8.68332
415 8.03847
420 8.13905
425 7.59362
430 7.61041
435 7.99242
440 8.83136
445 5.30756
450 6.60354
455 8.82526
460 8.07198
465 5.84
470 6.313
475 6.06618
480 4.80855
485 4.50176
490 6.50849
495 4.23859
500 8.47077
505 4.6438
510 9.07365
515 5.02942
520 8.81315
525 8.37119
530 8.55351
535 4.81668
540 5.471
545 8.57569
550 7.52666
555 6.09316
560 8.67364
565 6.85813
570 6.28445
575 7.64117
580 7.83135
585 8.3148
590 6.28114
595 7.7348
600 0.880191
Ex : 208
200 6.79512
205 4.9529
210 9.39626
215 7.19582
220 7.77669
225 8.8737
230 6.76337
235 8.22318
240 7.25423
245 7.29864
250 6.46591
255 7.80788
260 7.27004
265 6.23666
270 7.59314
275 7.44413
280 8.37985
285 6.14798
290 7.45586
295 8.05271
300 6.48121
305 8.18253
310 6.96165
315 7.24884
320 4.97288
325 5.56866
330 6.54748
335 5.39989
340 7.88038
345 6.3188
350 8.57309
355 6.52714
360 5.06301
365 7.07926
370 6.76409
375 6.02695
380 6.31017
385 6.49481
390 7.72866
395 7.38406
400 6.93067
405 5.44345
410 6.14389
415 7.35924
420 9.63026
425 7.43203
430 7.32949
435 7.4806
440 8.19918
445 7.91651
450 7.26145
455 10.7725
460 7.6551
465 7.77395
470 12.3752
475 7.82044
480 6.08593
485 4.4004
490 6.64336
495 6.40016
500 7.53904
505 11.0515
510 6.61766
515 5.90634
520 7.01789
525 7.12167
530 7.30778
535 6.43042
540 5.98875
545 8.73713
550 6.08124
555 6.20618
560 6.31608
565 8.64032
570 8.16856
575 5.98562
580 6.03399
585 6.49518
590 9.59669
595 7.62244
600 18.3699
Ex : 213
200 8.56311
205 6.44977
210 6.28349
215 5.28733
220 6.28604
225 5.05556
230 3.05587
235 10.8568
240 6.02623
245 6.03295
250 5.56065
255 9.86183
260 12.8174
265 10.4765
270 6.99595
275 7.06438
280 5.8382
285 6.99498
290 7.2387
295 6.36936
300 5.53751
305 6.50334
310 10.8464
315 7.03525
320 3.8372
325 3.90986
330 6.1914
335 8.54663
340 7.25054
345 7.68371
350 5.71474
355 7.91147
360 6.34348
365 7.82904
370 7.46541
375 6.80172
380 7.15804
385 6.09129
390 5.84736
395 6.16963
400 5.21366
405 6.84911
410 5.59387
415 7.58202
420 6.3448
425 9.50662
430 6.98683
435 5.81401
440 7.60502
445 5.68337
450 7.34297
455 5.30054
460 5.41207
465 5.45214
470 6.67256
475 7.16299
480 5.10305
485 6.07861
490 5.25588
495 7.98597
500 7.82116
505 7.80323
510 9.53168
515 6.05627
520 5.96571
525 6.00514
530 8.1308
535 6.81719
540 8.951
545 9.10984
550 5.24289
555 3.50843
560 6.68365
565 6.08208
570 8.68957
575 7.29206
580 5.78313
585 6.10447
590 4.9556
595 6.7584
600 35.5526
Ex : 218
200 8.16019
205 6.8283
210 4.57316
215 6.64048
220 5.58194
225 5.15906
230 7.67671
235 6.18654
240 8.76663
245 7.52329
250 8.15481
255 9.12322
260 6.60548
265 6.28091
270 6.56801
275 8.17465
280 7.50747
285 5.92607
290 5.08739
295 4.03678
300 4.78489
305 7.89033
310 6.2705
315 8.80279
320 6.42102
325 6.92983
330 7.4041
335 5.12519
340 7.16287
345 8.31109
350 5.66797
355 5.87278
360 7.29311
365 7.14521
370 5.48239
375 7.22712
380 6.83656
385 6.19414
390 6.98108
395 6.77523
400 7.02826
405 8.83415
410 6.67958
415 4.11412
420 5.01591
425 7.07097
430 6.87103
435 5.69313
440 10.0638
445 7.88037
450 7.32901
455 7.21137
460 6.16542
465 7.25349
470 6.57145
475 10.6476
480 7.24383
485 7.82779
490 5.49491
495 7.28391
500 5.43799
505 6.09415
510 6.54244
515 6.2166
520 7.80996
525 6.54211
530 10.4721
535 7.30815
540 8.97083
545 5.27206
550 7.52844
555 7.04158
560 7.32938
565 9.36803
570 7.82494
575 7.2242
580 8.84268
585 10.779
590 5.59229
595 5.31156
600 65.5927
Ex : 223
200 6.02752
205 6.84378
210 4.63275
215 6.68506
220 9.44296
225 6.32821
230 5.86433
235 7.17182
240 7.97893
245 8.97688
250 8.57423
255 6.10764
260 6.32527
265 4.49739
270 5.77362
275 6.44129
280 8.07978
285 7.68174
290 7.58633
295 8.02843
300 5.53185
305 6.43594
310 6.99434
315 4.65256
320 8.52628
325 8.56514
330 5.89435
335 6.02142
340 7.62304
345 5.66162
350 4.65486
355 6.66561
360 6.41946
365 5.82618
370 5.85956
375 6.97543
380 4.33011
385 5.90657
390 9.28871
395 8.3838
400 7.45837
405 8.30304
410 6.14877
415 7.69396
420 6.42663
425 6.811
430 8.13138
435 7.34489
440 5.33711
445 5.43675
450 6.95462
455 8.08301
460 8.07042
465 5.99281
470 5.67437
475 8.86986
480 7.76511
485 7.42195
490 10.3282
495 8.75545
500 5.68177
505 5.442
510 3.47708
515 7.79977
520 7.22831
525 6.59542
530 7.87692
535 8.35456
540 5.74446
545 6.32462
550 8.04193
555 6.46645
560 5.4126
565 5.0389
570 4.935
575 6.25109
580 8.82578
585 7.88788
590 4.22809
595 3.81946
600 9.29668
Ex : 228
200 5.55
205 6.223
210 7.21103
215 5.04678
220 7.83372
225 7.83535
230 6.50288
235 4.98716
240 7.28757
245 4.67351
250 9.52619
255 7.6452
260 7.31654
265 7.72799
270 8.73241
275 8.21907
280 7.32384
285 6.09967
290 4.51256
295 7.2742
300 7.45225
305 4.53044
310 5.57019
315 6.64568
320 7.50564
325 7.91946
330 5.90948
335 6.38091
340 5.99411
345 8.14026
350 6.40166
355 4.97233
360 8.59858
365 6.27709
370 6.37757
375 6.27257
380 5.95623
385 4.60133
390 6.43941
395 7.88229
400 7.67451
405 7.40812
410 10.0547
415 6.88012
420 4.19948
425 7.55133
430 7.3555
435 10.2269
440 8.6079
445 8.16017
450 9.25435
455 7.16832
460 5.54757
465 9.13966
470 6.80882
475 6.68284
480 5.44761
485 8.78565
490 6.63554
495 6.06091
500 4.63771
505 6.14847
510 5.6789
515 7.44463
520 6.13383
525 6.47866
530 6.52182
535 6.29931
540 4.51543
545 10.7997
550 7.06892
555 6.11756
560 7.50066
565 11.2911
570 5.74827
575 4.44869
580 6.93837
585 7.70666
590 8.38018
595 6.80577
600 21.1572
Ex : 233
200 4.02075
205 6.92355
210 6.35664
215 4.52992
220 6.34517
225 7.83775
230 7.00185
235 6.08794
240 4.87504
245 4.72536
250 4.52379
255 5.12161
260 4.92598
265 5.5775
270 4.66221
275 6.35686
280 5.79339
285 6.62909
290 7.40089
295 7.73662
300 5.41474
305 6.67844
310 4.59497
315 7.09984
320 4.78276
325 6.01592
330 6.7416
335 5.60887
340 5.84425
345 5.87105
350 5.05229
355 4.28615
360 6.73569
365 6.96603
370 5.80434
375 7.02123
380 10.0001
385 5.67458
390 6.90672
395 6.18614
400 5.23637
405 5.15502
410 9.13961
415 5.37837
420 4.70563
425 4.97404
430 8.23898
435 7.46893
440 6.94113
445 7.44983
450 7.27274
455 5.04655
460 7.4256
465 7.32989
470 6.58901
475 6.69896
480 7.38828
485 6.14627
490 6.36211
495 7.81734
500 7.57366
505 5.38769
510 3.56838
515 7.24847
520 7.08107
525 5.45468
530 5.45697
535 6.24802
540 6.23034
545 4.04067
550 8.31649
555 6.56029
560 4.7625
565 8.8515
570 7.53363
575 6.12612
580 7.02939
585 7.29496
590 5.95292
595 5.3717
600 0.611279
Ex : 238
200 5.75954
205 5.32875
210 4.14782
215 4.89272
220 7.54718
225 6.63357
230 5.17522
235 4.44021
240 5.53579
245 3.82449
250 4.94493
255 6.17534
260 7.54695
265 5.13323
270 5.2986
275 4.37017
280 5.42639
285 6.91982
290 4.09057
295 5.17323
300 6.8954
305 5.81018
310 5.39305
315 4.46294
320 5.80407
325 3.93075
330 3.59351
335 4.02672
340 3.29267
345 5.66159
350 5.8783
355 6.02721
360 4.0385
365 4.40528
370 5.08689
375 4.71939
380 5.42333
385 5.24314
390 5.63738
395 4.18978
400 4.52031
405 4.91376
410 4.00711
415 5.79457
420 6.2127
425 6.18908
430 5.31878
435 3.98583
440 5.52759
445 6.45009
450 6.56817
455 7.63172
460 6.74214
465 4.7131
470 8.30527
475 6.34258
480 6.50751
485 8.23694
490 5.25626
495 6.86416
500 8.46963
505 11.4427
510 7.76538
515 5.00012
520 4.91945
525 6.6346
530 8.22648
535 5.19711
540 6.49944
545 4.92307
550 5.47328
555 4.77931
560 5.20438
565 6.8166
570 5.54262
575 5.68003
580 6.95244
585 4.60788
590 4.09644
595 6.38338
600 5.60052
Ex : 243
200 4.67133
205 6.08472
210 4.87114
215 6.00561
220 5.43007
225 4.50286
230 6.84065
235 5.95908
240 4.93732
245 4.21074
250 6.07767
255 5.89231
260 4.96472
265 4.40518
270 4.16116
275 3.03266
280 4.97712
285 2.75669
290 4.17022
295 5.23207
300 7.07417
305 4.83631
310 9.68742
315 4.97195
320 4.29523
325 3.56895
330 4.92353
335 4.56899
340 5.9833
345 5.95178
350 5.4007
355 4.63929
360 3.86204
365 4.89839
370 5.73978
375 7.55738
380 6.30712
385 5.63971
390 4.4879
395 8.03566
400 4.69345
405 4.15487
410 3.38507
415 4.58368
420 5.05777
425 3.63358
430 6.67599
435 4.54386
440 6.00908
445 7.41274
450 6.12715
455 4.41988
460 7.96827
465 5.65294
470 4.88063
475 5.82598
480 3.98699
485 3.05425
490 5.50503
495 4.74795
500 5.08249
505 3.50669
510 4.42223
515 4.18032
520 8.20696
525 6.01338
530 8.24019
535 6.61002
540 5.95708
545 5.51483
550 3.47041
555 4.19077
560 5.68612
565 6.72825
570 6.57486
575 5.82781
580 5.30895
585 4.81909
590 3.73677
595 5.53673
600 0.630058
Ex : 248
200 3.70262
205 5.01324
210 5.3182
215 4.10281
220 4.49254
225 5.30203
230 2.71257
235 4.39212
240 3.76817
245 3.33197
250 3.71402
255 4.73181
260 5.34462
265 3.1037
270 5.31962
275 3.57304
280 3.25233
285 4.75462
290 3.98565
295 3.98477
300 4.42932
305 4.77321
310 4.09073
315 2.70514
320 3.00968
325 4.10272
330 3.69287
335 3.5935
340 4.45441
345 5.18202
350 3.08931
355 4.59111
360 4.36538
365 4.4834
370 4.81821
375 4.57866
380 5.72471
385 5.50728
390 3.70772
395 5.9974
400 4.18433
405 5.01761
410 4.34974
415 4.84717
420 3.73424
425 3.64283
430 2.78935
435 7.26526
440 5.1987
445 5.43617
450 3.34834
455 4.38915
460 3.06791
465 4.08108
470 7.51563
475 5.43981
480 5.78986
485 4.04886
490 4.28668
495 3.81175
500 5.87407
505 7.12848
510 6.15487
515 5.7784
520 4.31573
525 4.51291
530 3.51003
535 4.07956
540 6.14423
545 5.1167
550 4.7597
555 4.67373
560 4.63885
565 4.30663
570 2.81838
575 4.75174
580 5.58549
585 5.21607
590 5.28678
595 5.36906
600 0.610979
Ex : 253
200 3.52152
205 3.21437
210 2.74407
215 3.59458
220 3.16455
225 3.74197
230 2.80821
235 3.70613
240 4.36421
245 3.42603
250 2.19939
255 5.05286
260 3.44657
265 4.46874
270 3.35335
275 4.68209
280 3.69104
285 4.30191
290 3.84767
295 2.55664
300 4.05278
305 5.35486
310 3.85346
315 3.95613
320 2.65234
325 2.77571
330 2.94948
335 2.87534
340 3.62147
345 4.64905
350 3.03314
355 4.5295
360 3.32059
365 5.57112
370 3.757
375 4.46881
380 4.98644
385 3.51303
390 3.90756
395 3.99626
400 4.75692
405 4.23087
410 5.26605
415 4.08911
420 3.81666
425 3.97914
430 2.78593
435 4.27304
440 3.80615
445 3.26319
450 2.46259
455 3.33719
460 3.8926
465 4.94268
470 5.3147
475 4.09068
480 5.24459
485 2.44598
490 5.45093
495 4.45061
500 3.2269
505 2.71043
510 3.12899
515 2.84739
520 3.32382
525 4.32713
530 5.10216
535 4.52886
540 3.83806
545 3.13854
550 2.85443
555 4.4319
560 3.97129
565 3.16634
570 4.14845
575 3.56714
580 3.0762
585 3.59038
590 3.58183
595 4.06088
600 1.68064
Ex : 258
200 2.60484
205 3.46734
210 3.98831
215 3.49801
220 2.0481
225 4.71493
230 4.51411
235 2.01428
240 3.05504
245 2.50823
250 3.31805
255 4.25357
260 3.34874
265 2.83172
270 3.24281
275 3.15263
280 3.63587
285 4.71472
290 4.13684
295 2.61075
300 1.9185
305 1.9813
310 2.35992
315 2.82498
320 2.83779
325 2.05357
330 2.74027
335 2.79617
340 3.85747
345 3.50198
350 4.80714
355 4.25847
360 2.55484
365 2.4723
370 2.86994
375 3.25436
380 3.99148
385 4.13509
390 4.61111
395 3.22219
400 3.61058
405 2.34153
410 3.53151
415 2.94489
420 3.63356
425 3.13607
430 4.75591
435 5.26639
440 2.97306
445 2.76575
450 3.39214
455 4.25325
460 2.41473
465 3.46846
470 2.33477
475 2.34079
480 3.57913
485 2.67163
490 2.98827
495 2.98069
500 2.64406
505 2.90102
510 4.1852
515 3.80276
520 2.47624
525 2.46158
530 2.89042
535 2.31312
540 4.61933
545 2.25702
550 3.02481
555 3.4394
560 2.047
565 2.12695
570 1.94289
575 3.38455
580 3.17559
585 6.07829
590 3.1071
595 3.15989
600 1.81549
Ex : 263
200 2.74711
205 2.41368
210 2.14229
215 2.74153
220 2.855
225 2.53231
230 2.92326
235 1.81493
240 2.30802
245 2.53831
250 1.872
255 1.60332
260 1.59633
265 1.99081
270 2.09332
275 1.64161
280 1.98876
285 2.40558
290 2.23978
295 2.44229
300 2.81137
305 1.9699
310 2.51023
315 2.22838
320 2.00054
325 2.28669
330 2.44697
335 2.26658
340 1.92381
345 2.27597
350 2.3641
355 2.43007
360 2.48453
365 2.63161
370 2.74522
375 2.22843
380 1.80118
385 2.39931
390 2.50937
395 1.47594
400 1.97254
405 2.12642
410 2.29602
415 3.06491
420 2.30544
425 3.49789
430 3.36727
435 3.27938
440 2.54653
445 4.12313
450 2.8761
455 2.66815
460 2.86216
465 2.42383
470 2.39716
475 3.16931
480 2.0509
485 2.13429
490 2.81722
495 2.03724
500 2.15633
505 2.07951
510 2.16235
515 2.38503
520 3.48018
525 2.63306
530 2.62444
535 1.47929
540 2.059
545 2.13622
550 2.70767
555 2.69236
560 1.58076
565 2.56044
570 2.56034
575 2.58837
580 2.33093
585 2.88989
590 2.14453
595 2.907
600 0.330805
Ex : 268
200 1.36576
205 2.31869
210 1.66605
215 1.22134
220 1.82705
225 1.92812
230 2.38384
235 1.83523
240 1.24764
245 1.75326
250 2.47368
255 1.92244
260 2.08925
265 2.08773
270 3.05872
275 2.69487
280 2.00878
285 2.411
290 1.50365
295 1.69214
300 1.91919
305 1.66254
310 2.1721
315 1.5531
320 1.46384
325 2.83353
330 2.1768
335 1.85814
340 2.03939
345 1.42189
350 1.80811
355 2.88769
360 2.60327
365 2.32185
370 1.54817
375 2.49724
380 1.99278
385 2.83318
390 1.62851
395 2.8883
400 1.97398
405 1.90064
410 1.85517
415 1.63388
420 2.50872
425 1.94316
430 1.42179
435 1.64848
440 2.3194
445 1.86989
450 2.6886
455 1.78645
460 1.84476
465 1.30383
470 2.07877
475 1.91988
480 1.6994
485 1.80094
490 2.74112
495 2.53682
500 1.80755
505 1.59964
510 2.0746
515 2.21426
520 2.50102
525 1.93158
530 2.36811
535 1.99512
540 2.58757
545 1.46703
550 2.06119
555 1.94827
560 1.37401
565 1.35923
570 2.20511
575 2.15651
580 1.382
585 1.82638
590 1.52202
595 1.41176
600 1.73613
Ex : 273
200 1.11337
205 1.22413
210 2.19856
215 1.32925
220 1.54538
225 1.16939
230 1.47092
235 1.5009
240 1.53917
245 1.69792
250 1.25158
255 1.08978
260 0.871924
265 1.44644
270 1.42339
275 1.00625
280 1.84557
285 1.05531
290 1.64284
295 1.29683
300 1.11701
305 1.64496
310 1.94636
315 1.63379
320 1.00769
325 1.39024
330 0.972553
335 1.02139
340 1.65301
345 1.04943
350 1.25883
355 1.73765
360 1.84032
365 2.32224
370 1.76096
375 2.00404
380 1.95966
385 1.7627
390 1.58982
395 1.4076
400 1.70392
405 2.47772
410 1.46667
415 1.94304
420 2.22148
425 1.77982
430 1.51328
435 1.90848
440 1.47612
445 2.08137
450 1.53501
455 1.4466
460 1.61148
465 1.73754
470 2.13428
475 1.68272
480 1.47071
485 1.4597
490 1.07598
495 1.43334
500 1.17564
505 1.59274
510 1.12634
515 1.24386
520 1.80044
525 1.64284
530 1.88361
535 1.44451
540 1.78925
545 1.82046
550 1.94446
555 1.48957
560 1.5573
565 1.4451
570 1.53438
575 1.47694
580 1.3761
585 1.27259
590 1.22004
595 1.66681
600 0.189676
Ex : 278
200 1.15197
205 1.13316
210 0.960943
215 1.12572
220 2.27975
225 1.42978
230 1.62201
235 1.18556
240 1.21063
245 0.844867
250 1.56511
255 0.786635
260 0.986709
265 1.20949
270 1.73787
275 1.16769
280 1.14579
285 1.20582
290 1.11485
295 0.987907
300 1.15905
305 1.38879
310 1.39511
315 1.25898
320 1.29768
325 1.39256
330 1.37001
335 1.45046
340 1.12412
345 1.17347
350 1.121
355 1.6794
360 1.22986
365 1.54741
370 1.27809
375 1.10881
380 1.99232
385 1.32897
390 1.17674
395 1.39634
400 1.15019
405 1.15531
410 2.0521
415 1.32014
420 1.2444
425 1.36811
430 1.09929
435 1.23972
440 0.894465
445 1.68957
450 1.71402
455 1.21046
460 1.07432
465 1.29628
470 1.18842
475 1.71132
480 1.5809
485 1.15666
490 1.31532
495 1.17445
500 1.32134
505 1.15441
510 1.28617
515 1.0882
520 1.1723
525 1.55978
530 2.27492
535 1.50508
540 1.62505
545 1.63401
550 1.84055
555 1.57398
560 1.03238
565 1.36319
570 1.50505
575 1.04878
580 0.796127
585 1.2825
590 1.25311
595 1.08497
600 1.25781
Ex : 283
200 1.12518
205 0.937692
210 0.945958
215 1.88329
220 1.34062
225 1.02188
230 1.08736
235 1.03198
240 0.834808
245 1.32508
250 1.11679
255 1.06158
260 1.14896
265 0.7895
270 1.71563
275 1.22217
280 1.25829
285 1.09776
290 1.20201
295 1.28217
300 1.08149
305 1.2558
310 1.0421
315 1.5445
320 1.17412
325 1.2952
330 1.26629
335 1.29973
340 1.0575
345 1.18172
350 1.06362
355 1.15321
360 1.03849
365 1.16035
370 1.51195
375 1.27997
380 1.63183
385 0.768132
390 1.39568
395 1.30082
400 0.843116
405 1.18676
410 0.938332
415 0.931064
420 1.59577
425 1.42528
430 1.40562
435 1.39703
440 1.20165
445 1.28654
450 1.22846
455 0.958683
460 1.39711
465 1.3434
470 1.70115
475 1.24921
480 1.42993
485 1.20988
490 1.46339
495 0.757115
500 0.984678
505 0.672884
510 1.14732
515 1.21862
520 1.15437
525 1.19312
530 1.06928
535 0.839052
540 1.0169
545 1.20812
550 1.54946
555 1.51215
560 1.11906
565 1.58446
570 1.50085
575 0.878974
580 1.53158
585 1.70364
590 0.799255
595 1.19302
600 0.661944
Ex : 288
200 1.18193
205 0.729437
210 0.699568
215 0.926498
220 0.79696
225 1.08503
230 0.825074
235 0.737565
240 1.01746
245 0.72856
250 0.810763
255 1.22307
260 0.948089
265 0.989247
270 0.818303
275 0.714656
280 0.743419
285 0.947495
290 1.25688
295 1.05731
300 0.741205
305 0.783011
310 0.518893
315 0.693667
320 0.824448
325 1.031
330 0.866976
335 0.78817
340 0.842802
345 0.889199
350 1.04068
355 0.786578
360 0.862973
365 1.08708
370 1.05526
375 0.823067
380 0.929225
385 1.10245
390 1.08392
395 1.39931
400 1.05463
405 1.1009
410 1.2008
415 1.10898
420 1.42292
425 1.00163
430 1.17274
435 1.12696
440 1.28025
445 1.12404
450 0.879447
455 0.96576
460 1.52089
465 1.13157
470 1.17357
475 1.17515
480 1.12214
485 0.926803
490 0.941015
495 1.02913
500 1.04006
505 0.796426
510 1.27781
515 1.14449
520 0.80347
525 1.02247
530 1.06691
535 0.840538
540 0.719477
545 0.937201
550 0.970075
555 0.955726
560 1.15306
565 1.07263
570 1.75842
575 1.44079
580 1.06687
585 0.835127
590 0.841514
595 1.19779
600 0.136304
Ex : 293
200 0.682425
205 0.925571
210 0.592578
215 0.547479
220 0.562816
225 0.969125
230 0.755346
235 0.867305
240 0.649405
245 0.664242
250 0.754225
255 0.632143
260 0.691115
265 0.52106
270 0.673173
275 0.867428
280 0.884536
285 0.7826
290 0.673408
295 0.793596
300 0.628837
305 0.743238
310 1.12278
315 1.05722
320 0.686264
325 0.908332
330 0.922915
335 0.791972
340 0.77097
345 0.863679
350 0.898264
355 0.888829
360 0.693024
365 0.949472
370 0.717398
375 1.02282
380 1.0679
385 0.89672
390 0.543047
395 1.10547
400 0.873116
405 1.05338
410 0.860434
415 0.909339
420 0.88057
425 1.05771
430 0.769408
435 0.965499
440 1.11602
445 0.869853
450 1.21597
455 0.852104
460 1.05713
465 1.09084
470 1.21378
475 0.741055
480 0.803263
485 0.980389
490 0.865929
495 1.01774
500 1.4068
505 0.776397
510 0.764238
515 0.776442
520 0.981069
525 0.774216
530 0.909017
535 0.728228
540 0.760609
545 1.02423
550 0.647351
555 0.745815
560 0.858622
565 0.822448
570 0.989918
575 1.17294
580 1.09165
585 0.969705
590 1.0842
595 0.800514
600 0.583431
Ex : 298
200 1.02844
205 0.526603
210 0.765214
215 0.577899
220 0.427315
225 0.63665
230 0.681788
235 0.546143
240 0.652686
245 0.591359
250 0.909528
255 0.562421
260 0.646194
265 0.714567
270 0.627807
275 0.589653
280 0.519604
285 0.62983
290 0.868144
295 0.725473
300 0.718397
305 0.488828
310 0.628534
315 0.607147
320 0.600813
325 0.743365
330 0.794835
335 0.71791
340 0.798014
345 0.504079
350 0.538638
355 0.746397
360 0.731401
365 0.815938
370 1.03284
375 1.44242
380 1.24045
385 0.841765
390 0.967577
395 0.641034
400 0.927629
405 0.808884
410 0.854456
415 0.74717
420 0.618816
425 0.784161
430 1.04061
435 0.900925
440 0.794669
445 0.697725
450 0.824833
455 0.876936
460 0.745866
465 0.751822
470 0.753918
475 0.665571
480 0.995181
485 1.21243
490 1.08293
495 0.791074
500 0.726495
505 0.811338
510 0.977341
515 0.77298
520 0.912679
525 0.554756
530 0.740315
535 0.706227
540 0.913876
545 0.985017
550 0.649526
555 0.601839
560 0.546163
565 0.610584
570 0.833492
575 0.594338
580 0.60048
585 0.829027
590 0.97657
595 0.791295
600 1.58443
Ex : 303
200 0.659682
205 0.543442
210 0.722265
215 0.520064
220 0.624903
225 0.730852
230 0.729337
235 0.664599
240 0.667244
245 0.643353
250 0.434927
255 0.442364
260 0.683739
265 0.447602
270 0.426244
275 0.571023
280 0.559614
285 0.457627
290 0.654418
295 0.586197
300 0.516754
305 0.412801
310 0.463706
315 0.570209
320 0.576172
325 0.461611
330 0.429845
335 0.500806
340 0.518425
345 0.782611
350 0.718693
355 0.858465
360 0.573273
365 0.628589
370 0.700282
375 0.970069
380 0.666098
385 0.869084
390 0.824538
395 0.661564
400 0.855573
405 1.03382
410 0.95539
415 0.824407
420 0.87731
425 0.902783
430 0.878378
435 0.673116
440 0.77796
445 0.716517
450 0.790778
455 0.778213
460 0.93752
465 0.734486
470 0.693738
475 0.574483
480 0.507777
485 0.577162
490 0.697587
495 0.965236
500 0.649827
505 0.71555
510 0.744174
515 0.861062
520 0.628244
525 0.502073
530 0.456985
535 0.526197
540 0.654596
545 0.783594
550 0.668036
555 0.732299
560 0.58889
565 0.622184
570 0.794326
575 0.532975
580 0.628536
585 0.458396
590 0.601527
595 0.690148
600 1.47322
Ex : 308
200 0.352584
205 0.711062
210 0.650094
215 0.621813
220 0.556753
225 0.367884
230 0.449384
235 0.470567
240 0.535498
245 0.675072
250 0.452294
255 0.556481
260 0.550768
265 0.751036
270 0.520745
275 0.433155
280 0.50474
285 0.529269
290 0.576979
295 0.853935
300 0.653657
305 0.63905
310 0.661499
315 0.589539
320 0.37949
325 0.395122
330 1.0691
335 0.516339
340 0.664172
345 0.872311
350 0.570308
355 0.44457
360 0.573481
365 0.631149
370 0.717917
375 0.5774
380 0.805782
385 0.747151
390 0.674204
395 0.742599
400 0.790974
405 0.784051
410 0.637129
415 0.523146
420 0.768191
425 0.82784
430 0.625989
435 0.677505
440 1.09796
445 0.641643
450 0.779468
455 0.635254
460 0.767112
465 0.752402
470 0.585162
475 0.869788
480 0.45236
485 0.558574
490 0.596254
495 0.652519
500 0.470205
505 0.541404
510 0.713005
515 0.777154
520 0.421827
525 0.799682
530 0.454814
535 0.638075
540 0.524245
545 0.60187
550 0.428167
555 0.419114
560 0.469782
565 0.460161
570 0.418012
575 0.588055
580 0.43377
585 0.519673
590 0.515703
595 0.351348
600 0.0399821
Ex : 313
200 0.458221
205 0.385541
210 0.353316
215 0.36444
220 0.311349
225 0.311805
230 0.470122
235 0.501253
240 0.5375
245 0.443601
250 0.335199
255 0.267999
260 0.313397
265 0.364154
270 0.728754
275 0.486329
280 0.419715
285 0.412873
290 0.464746
295 0.372705
300 0.400631
305 0.574428
310 0.624154
315 0.393015
320 0.332285
325 0.492898
330 0.463061
335 0.536638
340 0.547878
345 0.598333
350 0.47587
355 0.523366
360 0.878022
365 0.772754
370 0.887284
375 0.948514
380 0.796619
385 0.907947
390 0.953091
395 0.776621
400 0.818632
405 1.16342
410 1.08562
415 1.00063
420 1.04704
425 1.12223
430 0.925612
435 0.916204
440 0.865921
445 1.1077
450 0.827608
455 0.928174
460 0.882514
465 0.782635
470 0.67737
475 0.75033
480 0.715533
485 0.720366
490 0.818612
495 0.581209
500 0.641825
505 0.60911
510 0.808702
515 0.655926
520 0.51506
525 0.529491
530 0.532484
535 0.53443
540 0.533798
545 0.561141
550 0.584129
555 0.432198
560 0.455359
565 0.298714
570 0.355301
575 0.40794
580 0.447858
585 0.511513
590 0.404937
595 0.38699
600 0.0440379
Ex : 318
200 0.544314
205 0.518786
210 0.318447
215 0.424961
220 0.355315
225 0.381791
230 0.368252
235 0.303195
240 0.369586
245 0.381292
250 0.361428
255 0.417423
260 0.330176
265 0.600979
270 0.413806
275 0.414319
280 0.424276
285 0.406267
290 0.393889
295 0.482096
300 0.543226
305 0.446297
310 0.473252
315 0.737606
320 0.560447
325 0.829939
330 0.82026
335 0.839097
340 1.16867
345 1.5218
350 1.83451
355 2.30037
360 3.21972
365 3.51521
370 4.33188
375 4.65206
380 5.67757
385 6.04072
390 6.67112
395 6.814
400 6.65925
405 7.31902
410 7.67147
415 7.00835
420 6.94201
425 6.81859
430 6.72458
435 7.24936
440 6.88609
445 6.48777
450 6.08086
455 5.62947
460 5.25724
465 5.10427
470 4.49235
475 4.27318
480 3.98598
485 3.72695
490 3.25294
495 2.77811
500 2.87076
505 2.37627
510 2.11788
515 2.08592
520 1.57784
525 1.18815
530 1.21143
535 0.993566
540 0.749666
545 0.939059
550 0.804939
555 0.652758
560 0.538221
565 0.443625
570 0.559181
575 0.592328
580 0.289015
585 0.506484
590 0.395575
595 0.303284
600 0.10344
Ex : 323
200 0.370054
205 0.375601
210 0.28623
215 0.416775
220 0.381725
225 0.448518
230 0.35482
235 0.382894
240 0.379341
245 0.4619
250 0.48562
255 0.408027
260 0.313746
265 0.251644
270 0.229844
275 0.454298
280 0.460133
285 0.262869
290 0.325456
295 0.287645
300 0.268576
305 0.526072
310 0.345328
315 2.05442
320 8.39488
325 4.0608
330 1.86674
335 2.61501
340 3.8783
345 5.43076
350 8.48888
355 11.4291
360 13.4525
365 15.6398
370 18.2035
375 21.4452
380 23.9688
385 25.7695
390 28.7737
395 30.4071
400 31.3305
405 31.7714
410 31.4964
415 31.9046
420 31.1568
425 30.3398
430 28.9861
435 29.1818
440 27.8747
445 25.5823
450 25.1033
455 24.4265
460 22.2313
465 21.8713
470 19.6283
475 17.7265
480 16.4375
485 14.5921
490 13.1232
495 11.857
500 10.297
505 9.01272
510 8.18855
515 7.10634
520 6.00561
525 5.33704
530 4.66625
535 4.22922
540 3.30279
545 2.78614
550 2.44483
555 2.22324
560 1.97407
565 1.62554
570 1.39111
575 0.861719
580 0.927478
585 0.76181
590 0.64532
595 0.661644
600 0.305706
Ex : 328
200 0.297061
205 0.331302
210 0.336415
215 0.27769
220 0.286619
225 0.273059
230 0.387923
235 0.356574
240 0.319828
245 0.273581
250 0.282618
255 0.316372
260 0.221469
265 0.308772
270 0.266905
275 0.412255
280 0.543785
285 0.363232
290 0.461696
295 0.427537
300 0.338756
305 0.325632
310 0.363862
315 0.638618
320 20.4413
325 48.4067
330 16.0765
335 5.05081
340 5.42879
345 6.81112
350 8.90409
355 12.8311
360 16.9492
365 19.5744
370 22.3963
375 24.4208
380 27.5504
385 29.8965
390 32.8345
395 34.5382
400 36.0648
405 36.526
410 37.2338
415 35.776
420 36.389
425 34.6822
430 33.1628
435 32.4974
440 31.4204
445 29.5629
450 28.849
455 26.7605
460 25.5545
465 23.0621
470 22.359
475 20.0052
480 17.8246
485 15.9909
490 14.9932
495 12.8891
500 11.6934
505 10.4466
510 8.99481
515 8.16698
520 7.07653
525 6.26269
530 5.51957
535 4.92387
540 4.17174
545 3.56153
550 2.97949
555 2.66558
560 2.30028
565 2.26038
570 1.84744
575 1.35754
580 1.04431
585 0.683362
590 0.719196
595 0.533163
600 0.30817
Ex : 333
200 0.372375
205 0.210143
210 0.250097
215 0.227039
220 0.226007
225 0.293573
230 0.320517
235 0.168078
240 0.22796
245 0.280153
250 0.336411
255 0.230071
260 0.294019
265 0.273691
270 0.241008
275 0.26978
280 0.295992
285 0.285629
290 0.194864
295 0.224057
300 0.464177
305 0.328645
310 0.33538
315 0.377323
320 3.15529
325 61.1499
330 103.665
335 28.1811
340 6.85802
345 5.60034
350 5.74381
355 7.16971
360 9.97481
365 14.4045
370 15.8438
375 15.6415
380 15.813
385 16.4706
390 18.5573
395 19.426
400 20.2274
405 20.5376
410 21.0598
415 20.9266
420 20.4873
425 19.6135
430 19.0691
435 18.419
440 18.1636
445 17.134
450 15.8658
455 15.6292
460 14.8433
465 13.3931
470 12.5772
475 11.3636
480 10.2743
485 9.09237
490 8.57677
495 7.87901
500 6.90957
505 6.51459
510 5.53022
515 4.46395
520 4.60749
525 3.80838
530 3.47794
535 3.17123
540 2.70594
545 2.20609
550 2.08355
555 1.87945
560 1.7059
565 1.6068
570 1.1806
575 1.02904
580 0.956589
585 0.775948
590 0.763047
595 0.514744
600 0.701788
Ex : 338
200 0.261484
205 0.256735
210 0.22029
215 0.319365
220 0.274802
225 0.331934
230 0.269629
235 0.311101
240 0.320766
245 0.260847
250 0.168843
255 0.251043
260 0.256341
265 0.212632
270 0.292638
275 0.245777
280 0.290495
285 0.236897
290 0.216105
295 0.223069
300 0.268206
305 0.242008
310 0.279141
315 0.26756
320 0.384075
325 6.23125
330 94.1858
335 140.134
340 35.9185
345 6.71606
350 4.15872
355 4.12715
360 4.05987
365 5.70308
370 10.2196
375 10.3554
380 8.95511
385 8.41748
390 8.97016
395 10.236
400 10.4807
405 11.0563
410 10.9146
415 11.185
420 11.0532
425 10.7247
430 10.4426
435 10.3365
440 9.92314
445 9.20462
450 9.03494
455 8.96784
460 8.20238
465 7.4417
470 7.1911
475 6.66789
480 6.00366
485 5.70835
490 4.98332
495 4.70401
500 4.48824
505 3.90171
510 3.29777
515 2.88014
520 2.78337
525 2.65306
530 2.0996
535 1.76954
540 1.62266
545 1.8418
550 1.63566
555 1.36345
560 1.37449
565 0.96248
570 1.02086
575 0.949809
580 0.671576
585 0.690589
590 0.457045
595 0.480516
600 0.171973
Ex : 343
200 0.21922
205 0.238335
210 0.251442
215 0.245257
220 0.208878
225 0.249861
230 0.289879
235 0.258396
240 0.220381
245 0.211896
250 0.300801
255 0.229954
260 0.30953
265 0.294166
270 0.345874
275 0.266179
280 0.249313
285 0.283402
290 0.334068
295 0.308116
300 0.254005
305 0.1618
310 0.311722
315 0.270984
320 0.253895
325 0.306773
330 7.65698
335 111.075
340 157.551
345 38.8591
350 6.28708
355 3.12776
360 2.76343
365 2.31011
370 3.64393
375 7.63396
380 8.35664
385 6.88995
390 6.23727
395 6.73157
400 7.43357
405 7.81542
410 7.65007
415 7.97014
420 8.29214
425 7.86334
430 7.80132
435 7.51779
440 7.69007
445 7.31666
450 7.43319
455 6.78434
460 6.42274
465 5.87839
470 5.84371
475 5.16417
480 4.96426
485 4.86682
490 4.61595
495 3.87469
500 3.55092
505 3.00057
510 3.10151
515 2.6131
520 2.35028
525 2.03585
530 2.00654
535 1.73975
540 1.66266
545 1.44861
550 1.23015
555 1.36621
560 1.055
565 0.959375
570 0.964833
575 0.968634
580 0.681915
585 0.513714
590 0.499839
595 0.465644
600 0.0529885
Ex : 348
200 0.255029
205 0.252648
210 0.295831
215 0.285506
220 0.22193
225 0.2599
230 0.22821
235 0.236346
240 0.251647
245 0.213295
250 0.193508
255 0.23959
260 0.249374
265 0.309614
270 0.269762
275 0.247692
280 0.237833
285 0.213453
290 0.193983
295 0.294202
300 0.376755
305 0.292267
310 0.29555
315 0.297365
320 0.195943
325 0.255745
330 0.408923
335 8.14914
340 116.462
345 182.638
350 46.2189
355 7.09558
360 2.80039
365 2.11824
370 1.71713
375 2.42281
380 5.56842
385 7.77361
390 6.94117
395 6.78486
400 6.84067
405 6.52216
410 7.10992
415 7.64979
420 8.39426
425 7.78893
430 7.43531
435 7.57025
440 7.47189
445 7.67942
450 7.01454
455 6.38159
460 6.55248
465 6.25583
470 5.82267
475 5.17933
480 5.12752
485 4.6976
490 4.3587
495 4.08849
500 3.57468
505 3.49586
510 3.02365
515 2.96106
520 2.74668
525 2.50856
530 2.21918
535 1.8827
540 1.73198
545 1.77443
550 1.39218
555 1.23721
560 1.13394
565 1.08774
570 1.08465
575 0.938768
580 0.67098
585 0.502244
590 0.544618
595 0.404172
600 0.273083
Ex : 353
200 0.208602
205 0.23835
210 0.206668
215 0.183008
220 0.12479
225 0.192592
230 0.203362
235 0.252605
240 0.171141
245 0.196983
250 0.210769
255 0.24186
260 0.22607
265 0.244212
270 0.199148
275 0.155179
280 0.168769
285 0.230305
290 0.22348
295 0.208413
300 0.139345
305 0.146694
310 0.214113
315 0.198948
320 0.163107
325 0.22776
330 0.262337
335 0.483157
340 7.51238
345 115.886
350 162.518
355 39.1755
360 6.05984
365 2.4091
370 2.39617
375 2.12755
380 2.2343
385 4.97744
390 8.51976
395 9.10685
400 8.57155
405 7.69123
410 7.5949
415 8.3078
420 8.983
425 8.67915
430 8.50986
435 8.26596
440 7.81848
445 8.04627
450 7.51952
455 7.38665
460 7.24349
465 6.36491
470 5.98592
475 5.98827
480 5.54478
485 5.61863
490 4.89371
495 4.39067
500 3.96051
505 3.38417
510 3.10946
515 3.04274
520 2.68457
525 2.41382
530 2.17969
535 1.96096
540 1.88786
545 1.55123
550 1.41814
555 1.31406
560 1.20626
565 1.09156
570 1.12045
575 0.853703
580 0.710664
585 0.616362
590 0.510439
595 0.516539
600 0.0587801
Ex : 358
200 0.261632
205 0.155663
210 0.13167
215 0.166513
220 0.189268
225 0.257113
230 0.14315
235 0.199111
240 0.199423
245 0.150398
250 0.20837
255 0.289347
260 0.167466
265 0.23646
270 0.207011
275 0.229155
280 0.188597
285 0.135141
290 0.231562
295 0.234194
300 0.167036
305 0.179962
310 0.191743
315 0.21711
320 0.175162
325 0.155138
330 0.222424
335 0.239086
340 0.37466
345 6.93198
350 108.161
355 163.069
360 40.9262
365 6.02715
370 2.50665
375 2.65772
380 2.26523
385 2.40607
390 5.29513
395 9.81672
400 10.3054
405 8.80194
410 7.84817
415 8.59828
420 9.24972
425 9.32884
430 9.079
435 8.5367
440 8.62321
445 8.1382
450 8.21735
455 7.80236
460 7.38922
465 7.02491
470 6.73786
475 6.48779
480 5.86552
485 5.60647
490 5.35675
495 4.76764
500 4.24481
505 4.03272
510 3.69936
515 3.14229
520 2.92367
525 2.69595
530 2.36226
535 1.97111
540 1.94177
545 1.89705
550 1.62356
555 1.44983
560 1.16895
565 1.05044
570 1.03066
575 0.767746
580 0.655539
585 0.56513
590 0.585029
595 0.446944
600 0.116505
Ex : 363
200 0.20576
205 0.251925
210 0.236696
215 0.162751
220 0.173145
225 0.170618
230 0.18658
235 0.181705
240 0.180868
245 0.189479
250 0.167262
255 0.124277
260 0.17968
265 0.166516
270 0.153845
275 0.166962
280 0.206928
285 0.176678
290 0.170191
295 0.219345
300 0.187158
305 0.200962
310 0.17189
315 0.17399
320 0.234013
325 0.217262
330 0.209088
335 0.191937
340 0.209026
345 0.300335
350 6.55992
355 103.219
360 166.22
365 43.8828
370 6.26468
375 2.34096
380 2.42968
385 2.47982
390 3.57982
395 5.61677
400 9.04962
405 10.1058
410 8.90426
415 8.8222
420 8.67667
425 9.00892
430 8.2794
435 8.03253
440 8.34106
445 8.60363
450 8.2705
455 7.9339
460 7.21682
465 7.21627
470 6.79479
475 6.4135
480 6.08473
485 5.87547
490 5.10484
495 4.88693
500 4.47972
505 4.17692
510 4.09205
515 3.30111
520 3.25781
525 2.90106
530 2.31885
535 2.46286
540 2.04002
545 1.82661
550 1.76695
555 1.46974
560 1.44091
565 1.14097
570 1.1006
575 0.800819
580 0.663224
585 0.54477
590 0.487109
595 0.537011
600 0.363823
Ex : 368
200 0.128612
205 0.157419
210 0.159152
215 0.177148
220 0.137623
225 0.197096
230 0.165362
235 0.119951
240 0.158264
245 0.220192
250 0.195598
255 0.258803
260 0.219938
265 0.24148
270 0.199012
275 0.267296
280 0.133867
285 0.208611
290 0.136831
295 0.135741
300 0.202073
305 0.135442
310 0.173456
315 0.253207
320 0.186676
325 0.228086
330 0.251803
335 0.189557
340 0.259072
345 0.293373
350 0.412975
355 5.0132
360 96.71
365 158.937
370 43.4696
375 6.36759
380 2.36688
385 3.00117
390 4.1904
395 5.80551
400 6.98731
405 9.37927
410 11.761
415 10.9941
420 10.7083
425 9.53324
430 9.08441
435 9.04505
440 8.97449
445 8.5646
450 8.47988
455 8.45786
460 7.72516
465 7.48227
470 7.341
475 6.92141
480 6.28245
485 6.21072
490 5.71947
495 5.21089
500 5.07128
505 4.39609
510 3.98211
515 3.51508
520 3.22345
525 2.77416
530 2.4683
535 2.20255
540 2.16162
545 1.9443
550 1.6266
555 1.59801
560 1.31351
565 1.19597
570 1.0225
575 0.842301
580 0.760528
585 0.570496
590 0.482913
595 0.519311
600 0.508438
Ex : 373
200 0.134145
205 0.133284
210 0.134458
215 0.127294
220 0.158879
225 0.168188
230 0.112458
235 0.189739
240 0.140325
245 0.111491
250 0.181626
255 0.175201
260 0.183345
265 0.242228
270 0.117064
275 0.206856
280 0.107657
285 0.219609
290 0.158084
295 0.146585
300 0.146138
305 0.201774
310 0.125137
315 0.136202
320 0.173244
325 0.261229
330 0.209332
335 0.130248
340 0.2792
345 0.236588
350 0.277961
355 0.345495
360 5.79347
365 94.9984
370 163.297
375 45.8188
380 6.78724
385 3.07349
390 4.864
395 7.14365
400 8.00469
405 7.9604
410 10.2715
415 13.381
420 13.0303
425 11.9303
430 10.6509
435 9.96172
440 9.75916
445 9.7532
450 9.08144
455 8.72695
460 8.14783
465 7.65291
470 7.18495
475 7.05773
480 6.73244
485 6.32103
490 5.52653
495 5.12605
500 4.79184
505 4.49388
510 4.03227
515 3.66347
520 3.04403
525 2.93032
530 2.68027
535 2.4782
540 2.1848
545 1.78561
550 1.72829
555 1.46492
560 1.37247
565 1.149
570 1.07771
575 0.825292
580 0.70544
585 0.554742
590 0.457744
595 0.497382
600 0.596873
Ex : 378
200 0.129995
205 0.154345
210 0.123719
215 0.209982
220 0.171127
225 0.15688
230 0.16086
235 0.161219
240 0.189937
245 0.155858
250 0.0860885
255 0.100597
260 0.118096
265 0.130267
270 0.140333
275 0.124696
280 0.215832
285 0.140341
290 0.205978
295 0.12352
300 0.136803
305 0.18872
310 0.138558
315 0.179756
320 0.161149
325 0.135819
330 0.215147
335 0.199141
340 0.131696
345 0.188582
350 0.220513
355 0.26095
360 0.34196
365 5.65028
370 99.7203
375 166.483
380 46.7669
385 7.39281
390 4.19562
395 6.52953
400 7.65016
405 7.39391
410 7.24555
415 9.44295
420 12.7811
425 12.6785
430 10.521
435 9.58188
440 8.94333
445 8.92349
450 8.44186
455 8.30938
460 8.09527
465 7.33494
470 7.18231
475 6.60433
480 6.52732
485 6.08156
490 5.27771
495 5.31114
500 4.86691
505 4.34669
510 3.96694
515 3.67072
520 3.24652
525 2.90456
530 2.50284
535 2.41174
540 2.16552
545 2.0058
550 1.71537
555 1.5186
560 1.242
565 1.25565
570 1.05931
575 0.814517
580 0.723889
585 0.513039
590 0.594033
595 0.344265
600 0.405376
Ex : 383
200 0.153315
205 0.172091
210 0.124079
215 0.107457
220 0.148509
225 0.118173
230 0.132203
235 0.18888
240 0.206182
245 0.176054
250 0.138819
255 0.153339
260 0.136839
265 0.10658
270 0.150324
275 0.139624
280 0.162865
285 0.186054
290 0.139249
295 0.134569
300 0.0854872
305 0.182239
310 0.191013
315 0.153193
320 0.133995
325 0.179344
330 0.121963
335 0.149868
340 0.149156
345 0.264659
350 0.214109
355 0.143374
360 0.26462
365 0.348794
370 5.43246
375 95.4833
380 164.405
385 44.8719
390 7.81243
395 4.91746
400 5.71867
405 5.88982
410 5.94039
415 6.88017
420 7.98073
425 10.4036
430 10.5035
435 8.92086
440 8.49983
445 7.84667
450 7.49218
455 7.27509
460 6.71558
465 6.77607
470 6.62455
475 6.31254
480 6.04672
485 5.69184
490 5.32015
495 4.79197
500 4.54202
505 4.15126
510 4.0461
515 3.7434
520 3.32111
525 2.94309
530 2.67476
535 2.19418
540 2.02486
545 1.84268
550 1.70796
555 1.42388
560 1.33546
565 1.30593
570 1.06152
575 0.90897
580 0.72067
585 0.63154
590 0.471859
595 0.403412
600 0.336638
Ex : 388
200 0.141448
205 0.128162
210 0.0955888
215 0.196332
220 0.179893
225 0.132544
230 0.0954036
235 0.141124
240 0.15685
245 0.117765
250 0.118773
255 0.118367
260 0.14705
265 0.161626
270 0.114242
275 0.145185
280 0.124491
285 0.14329
290 0.135451
295 0.107481
300 0.143132
305 0.148905
310 0.178277
315 0.125945
320 0.15155
325 0.137767
330 0.126453
335 0.125387
340 0.160373
345 0.176205
350 0.176133
355 0.160216
360 0.209004
365 0.26847
370 0.342957
375 5.76179
380 100.016
385 164.101
390 46.166
395 9.55446
400 5.89559
405 5.82347
410 6.55004
415 7.13316
420 7.50681
425 7.60641
430 8.96026
435 10.3962
440 9.29157
445 8.38465
450 7.53062
455 7.13098
460 6.58446
465 6.59396
470 6.30992
475 6.35178
480 5.97337
485 5.61658
490 5.14221
495 4.75945
500 4.6783
505 4.25236
510 3.79422
515 3.40735
520 3.196
525 2.93632
530 2.6285
535 2.367
540 2.13734
545 1.88505
550 1.86171
555 1.55752
560 1.30697
565 1.20199
570 0.963132
575 0.776955
580 0.595532
585 0.525892
590 0.406476
595 0.445801
600 0.248036
Ex : 393
200 0.142979
205 0.137828
210 0.150649
215 0.145987
220 0.118292
225 0.19535
230 0.139396
235 0.121465
240 0.122321
245 0.128435
250 0.120305
255 0.191069
260 0.126829
265 0.129522
270 0.122155
275 0.138243
280 0.120577
285 0.145305
290 0.12732
295 0.126501
300 0.169159
305 0.126037
310 0.0734381
315 0.102216
320 0.161798
325 0.110868
330 0.113776
335 0.15991
340 0.170629
345 0.154294
350 0.227924
355 0.149308
360 0.18201
365 0.201995
370 0.239517
375 0.308598
380 4.74635
385 95.8593
390 170.576
395 51.895
400 11.6075
405 7.26087
410 7.33495
415 8.39339
420 9.05187
425 8.8189
430 8.17025
435 9.17369
440 11.0535
445 9.65353
450 8.81038
455 7.69016
460 6.76944
465 6.6466
470 6.4414
475 6.2365
480 5.83444
485 5.54915
490 5.10673
495 4.90423
500 4.37871
505 4.02233
510 3.82027
515 3.4564
520 2.96926
525 2.87635
530 2.52215
535 2.30392
540 2.25018
545 1.9303
550 1.67899
555 1.55687
560 1.20272
565 1.22862
570 0.879314
575 0.901699
580 0.665127
585 0.472453
590 0.448056
595 0.331598
600 0.270443
Ex : 398
200 0.111593
205 0.0961333
210 0.199047
215 0.155021
220 0.129548
225 0.0930317
230 0.0975679
235 0.134426
240 0.0922742
245 0.125785
250 0.154309
255 0.107881
260 0.100825
265 0.132962
270 0.138531
275 0.109529
280 0.11908
285 0.102632
290 0.148937
295 0.0768687
300 0.102327
305 0.129776
310 0.0830708
315 0.107744
320 0.122478
325 0.129394
330 0.120675
335 0.146785
340 0.11639
345 0.153711
350 0.192356
355 0.157238
360 0.158703
365 0.173665
370 0.160326
375 0.226848
380 0.325291
385 5.35618
390 101.25
395 174.319
400 50.2998
405 10.7709
410 6.46482
415 6.65209
420 7.74722
425 7.50734
430 7.14873
435 6.81671
440 7.55468
445 9.5377
450 9.35874
455 7.72679
460 6.98951
465 6.16233
470 5.94739
475 5.63336
480 5.35149
485 5.14046
490 4.87454
495 4.42792
500 4.23869
505 3.89517
510 3.41773
515 3.13737
520 2.96864
525 2.78302
530 2.35866
535 2.20252
540 2.0464
545 1.79158
550 1.64131
555 1.4519
560 1.232
565 1.15242
570 0.962882
575 0.750011
580 0.661828
585 0.546612
590 0.426639
595 0.387524
600 0.163453
Ex : 403
200 0.10039
205 0.0950337
210 0.166425
215 0.120939
220 0.115469
225 0.0938363
230 0.102455
235 0.133936
240 0.118302
245 0.167149
250 0.134959
255 0.126306
260 0.133093
265 0.13493
270 0.17815
275 0.107096
280 0.109936
285 0.164274
290 0.117999
295 0.128697
300 0.0919077
305 0.150118
310 0.175209
315 0.153889
320 0.186278
325 0.158107
330 0.188051
335 0.137222
340 0.100123
345 0.125375
350 0.099334
355 0.0817907
360 0.132477
365 0.211808
370 0.145281
375 0.151484
380 0.294898
385 0.420678
390 6.0206
395 99.3893
400 168.45
405 48.8471
410 9.01146
415 4.79463
420 4.66191
425 4.90595
430 5.00173
435 4.85456
440 4.74542
445 5.15806
450 7.05508
455 7.36936
460 6.03446
465 5.62208
470 5.01625
475 4.61244
480 4.75507
485 4.44048
490 4.06973
495 4.08584
500 3.69842
505 3.39467
510 3.27571
515 2.90713
520 2.81158
525 2.51184
530 2.45441
535 2.2417
540 1.98475
545 1.79758
550 1.36235
555 1.39137
560 1.27812
565 1.15388
570 1.00419
575 0.745879
580 0.607965
585 0.542559
590 0.436205
595 0.377668
600 0.369633
Ex : 408
200 0.107975
205 0.15977
210 0.23202
215 0.128841
220 0.139002
225 0.144111
230 0.107208
235 0.160346
240 0.100263
245 0.0887857
250 0.105634
255 0.160663
260 0.0967952
265 0.089925
270 0.140785
275 0.116798
280 0.0952843
285 0.157636
290 0.119465
295 0.0938045
300 0.114679
305 0.147621
310 0.162227
315 0.165024
320 0.167781
325 0.158005
330 0.141164
335 0.176431
340 0.158326
345 0.236213
350 0.131428
355 0.125731
360 0.154075
365 0.13137
370 0.200751
375 0.187633
380 0.193607
385 0.258827
390 0.430465
395 7.23082
400 116.658
405 176.792
410 46.0516
415 7.7047
420 3.32448
425 2.84143
430 3.30227
435 3.35994
440 3.26923
445 3.21167
450 3.67439
455 5.22498
460 6.48237
465 5.43582
470 4.64598
475 4.22841
480 3.84495
485 3.74146
490 3.82567
495 3.52297
500 3.53694
505 3.36566
510 3.12103
515 2.86186
520 2.6145
525 2.22062
530 2.28631
535 1.95659
540 1.99679
545 1.79751
550 1.37841
555 1.37315
560 1.17036
565 1.05408
570 0.878617
575 0.752979
580 0.677597
585 0.549257
590 0.468337
595 0.392845
600 0.14719
Ex : 413
200 0.107623
205 0.174875
210 0.109101
215 0.0925726
220 0.130935
225 0.0977385
230 0.0781734
235 0.167945
240 0.133355
245 0.165464
250 0.140976
255 0.0945759
260 0.0951358
265 0.0918358
270 0.0951332
275 0.109458
280 0.1221
285 0.159647
290 0.167512
295 0.127335
300 0.139375
305 0.135685
310 0.135058
315 0.158648
320 0.126867
325 0.192297
330 0.120405
335 0.106814
340 0.11952
345 0.111094
350 0.227178
355 0.163399
360 0.194257
365 0.12362
370 0.168218
375 0.174721
380 0.131216
385 0.235861
390 0.340996
395 0.46249
400 6.95124
405 124.443
410 188.274
415 49.6403
420 7.31018
425 2.62159
430 2.21652
435 2.42438
440 2.47674
445 2.42277
450 2.38607
455 2.7032
460 3.90845
465 5.64244
470 4.60695
475 3.88987
480 3.74682
485 3.49717
490 3.29371
495 3.09978
500 2.95974
505 2.90527
510 2.56088
515 2.31195
520 2.32987
525 2.25603
530 1.79143
535 1.93515
540 1.6492
545 1.71209
550 1.55593
555 1.14568
560 1.26574
565 1.07581
570 0.841015
575 0.760533
580 0.596585
585 0.539979
590 0.369717
595 0.388152
600 0.391586
Ex : 418
200 0.0929619
205 0.116668
210 0.0863364
215 0.126393
220 0.112188
225 0.144833
230 0.110489
235 0.126856
240 0.14197
245 0.115595
250 0.128707
255 0.1114
260 0.12755
265 0.116134
270 0.118899
275 0.141177
280 0.125055
285 0.166121
290 0.130928
295 0.166702
300 0.182071
305 0.147479
310 0.134324
315 0.15703
320 0.134
325 0.103876
330 0.139092
335 0.175414
340 0.138398
345 0.152212
350 0.161186
355 0.120249
360 0.103097
365 0.17328
370 0.182524
375 0.136978
380 0.15129
385 0.151114
390 0.197355
395 0.231347
400 0.388508
405 5.70988
410 105.855
415 176.891
420 48.8233
425 6.73504
430 2.06447
435 1.74693
440 2.03733
445 1.97225
450 1.65225
455 1.90932
460 2.09569
465 2.84758
470 4.73164
475 4.79969
480 3.77377
485 3.3915
490 2.87816
495 2.65206
500 2.7773
505 2.75791
510 2.34625
515 2.3629
520 2.2752
525 2.04296
530 2.10617
535 1.84566
540 1.55866
545 1.48093
550 1.35381
555 1.18157
560 1.07928
565 0.952021
570 0.844005
575 0.603198
580 0.612094
585 0.444478
590 0.478765
595 0.325635
600 0.250967
Ex : 423
200 0.117834
205 0.147663
210 0.190608
215 0.124739
220 0.239373
225 0.14358
230 0.132225
235 0.113683
240 0.120789
245 0.122605
250 0.14093
255 0.114026
260 0.156128
265 0.149673
270 0.134744
275 0.122651
280 0.134601
285 0.111769
290 0.135267
295 0.105107
300 0.125595
305 0.151968
310 0.0936842
315 0.125684
320 0.119528
325 0.120077
330 0.114577
335 0.150636
340 0.134198
345 0.136246
350 0.137751
355 0.151459
360 0.115295
365 0.142884
370 0.140745
375 0.117831
380 0.17393
385 0.158065
390 0.152307
395 0.222954
400 0.214322
405 0.356941
410 6.411
415 121.694
420 185.479
425 47.0853
430 6.38483
435 1.68671
440 1.28289
445 1.62443
450 1.79494
455 1.66971
460 1.60382
465 1.73274
470 2.25853
475 3.90047
480 4.76112
485 3.51485
490 3.10529
495 2.91097
500 2.52566
505 2.36844
510 2.25188
515 2.25753
520 2.12731
525 1.91791
530 1.89168
535 1.70852
540 1.5591
545 1.34135
550 1.20689
555 1.10639
560 1.00048
565 0.908085
570 0.873359
575 0.712016
580 0.591673
585 0.453798
590 0.348773
595 0.384666
600 0.462339
Ex : 428
200 0.101377
205 0.11291
210 0.144251
215 0.140506
220 0.144776
225 0.143277
230 0.107062
235 0.130118
240 0.152961
245 0.131288
250 0.0972719
255 0.167292
260 0.14128
265 0.116743
270 0.0993344
275 0.163719
280 0.137374
285 0.125478
290 0.146124
295 0.131429
300 0.180842
305 0.0838794
310 0.102558
315 0.0999725
320 0.103128
325 0.149191
330 0.173748
335 0.113455
340 0.124049
345 0.12604
350 0.162209
355 0.174535
360 0.172772
365 0.156288
370 0.107728
375 0.114475
380 0.170887
385 0.177853
390 0.14344
395 0.203496
400 0.200285
405 0.265169
410 0.334984
415 7.01702
420 114.902
425 176.924
430 46.9437
435 6.31306
440 1.66107
445 1.13656
450 1.51954
455 1.73057
460 1.55296
465 1.47469
470 1.6678
475 1.89502
480 3.05309
485 4.77323
490 3.67433
495 2.93907
500 2.74803
505 2.27573
510 2.05393
515 1.78815
520 1.79157
525 1.88161
530 1.73052
535 1.54738
540 1.35576
545 1.28718
550 1.08119
555 1.21428
560 1.1232
565 1.03785
570 0.786663
575 0.606589
580 0.560704
585 0.444433
590 0.397013
595 0.312173
600 0.446132
Ex : 433
200 0.150179
205 0.103974
210 0.121935
215 0.101985
220 0.138602
225 0.121947
230 0.161446
235 0.217846
240 0.115721
245 0.1406
250 0.0983251
255 0.101454
260 0.1516
265 0.100748
270 0.0882914
275 0.126508
280 0.13105
285 0.162139
290 0.142323
295 0.147121
300 0.0995925
305 0.161051
310 0.20126
315 0.125258
320 0.13568
325 0.202024
330 0.131753
335 0.160812
340 0.158961
345 0.146462
350 0.128584
355 0.116153
360 0.164111
365 0.137594
370 0.121326
375 0.162458
380 0.147164
385 0.11279
390 0.147525
395 0.159742
400 0.17952
405 0.170507
410 0.297052
415 0.392144
420 8.86086
425 129.329
430 187.707
435 48.035
440 6.45992
445 1.65729
450 1.12225
455 1.51855
460 1.59329
465 1.47599
470 1.51953
475 1.56478
480 1.85875
485 2.74138
490 4.48582
495 3.83119
500 2.88384
505 2.64578
510 2.24834
515 1.88377
520 1.82587
525 1.62867
530 1.62811
535 1.54302
540 1.36092
545 1.27829
550 1.26794
555 1.04118
560 1.01698
565 0.951511
570 0.799158
575 0.622365
580 0.559373
585 0.416678
590 0.381555
595 0.344038
600 0.112755
Ex : 438
200 0.0837729
205 0.094034
210 0.120605
215 0.124307
220 0.191049
225 0.106991
230 0.109288
235 0.158649
240 0.128891
245 0.115702
250 0.128085
255 0.1437
260 0.137086
265 0.159895
270 0.166933
275 0.103121
280 0.137062
285 0.133767
290 0.14467
295 0.113226
300 0.106642
305 0.151511
310 0.144054
315 0.0917799
320 0.109726
325 0.142032
330 0.112053
335 0.17052
340 0.168191
345 0.154049
350 0.152067
355 0.124757
360 0.14526
365 0.116694
370 0.119431
375 0.164484
380 0.173195
385 0.180466
390 0.142618
395 0.167116
400 0.15458
405 0.145479
410 0.177241
415 0.192838
420 0.401695
425 7.53591
430 140.812
435 237.144
440 60.9205
445 7.94668
450 1.87811
455 1.22005
460 1.47004
465 1.62863
470 1.60175
475 1.31677
480 1.50343
485 1.65297
490 2.18611
495 3.95708
500 4.06807
505 2.79981
510 2.45626
515 2.13812
520 1.806
525 1.55155
530 1.63292
535 1.46563
540 1.35953
545 1.26605
550 1.19413
555 1.11638
560 1.05471
565 0.91524
570 0.74827
575 0.778585
580 0.645942
585 0.516182
590 0.377849
595 0.357099
600 0.389747
Ex : 443
200 0.0955217
205 0.14615
210 0.129001
215 0.182253
220 0.161409
225 0.13153
230 0.128915
235 0.101499
240 0.114314
245 0.128749
250 0.0966742
255 0.128022
260 0.144924
265 0.175997
270 0.155362
275 0.0997028
280 0.12363
285 0.180747
290 0.140897
295 0.119411
300 0.141436
305 0.0901102
310 0.128566
315 0.160219
320 0.162284
325 0.16375
330 0.181104
335 0.140884
340 0.191452
345 0.158093
350 0.119373
355 0.119
360 0.113773
365 0.16543
370 0.148379
375 0.195375
380 0.121859
385 0.134198
390 0.104451
395 0.148775
400 0.148901
405 0.151525
410 0.180719
415 0.242151
420 0.31751
425 0.372799
430 8.90866
435 146.139
440 225.509
445 60.8383
450 7.96892
455 1.97522
460 1.22598
465 1.42466
470 1.79225
475 1.57486
480 1.38423
485 1.41496
490 1.68383
495 1.93031
500 3.06952
505 4.11923
510 3.11391
515 2.39795
520 2.19672
525 1.75676
530 1.47263
535 1.40787
540 1.31608
545 1.24319
550 1.2519
555 1.05915
560 0.99647
565 0.824217
570 0.82107
575 0.757503
580 0.572797
585 0.441626
590 0.360224
595 0.319465
600 0.854388
Ex : 448
200 0.0969721
205 0.160703
210 0.0997307
215 0.151253
220 0.151661
225 0.164983
230 0.137765
235 0.164702
240 0.14827
245 0.145378
250 0.124159
255 0.10996
260 0.156191
265 0.128938
270 0.118798
275 0.167818
280 0.116251
285 0.141498
290 0.10463
295 0.11569
300 0.155455
305 0.123265
310 0.115551
315 0.108661
320 0.132171
325 0.145494
330 0.18933
335 0.132409
340 0.162981
345 0.161558
350 0.12331
355 0.12794
360 0.194557
365 0.152772
370 0.127334
375 0.127739
380 0.178503
385 0.152099
390 0.160588
395 0.148736
400 0.153798
405 0.163891
410 0.164778
415 0.192533
420 0.214076
425 0.326375
430 0.424024
435 12.5752
440 204.465
445 280.417
450 71.103
455 9.23243
460 2.00036
465 1.29744
470 1.46841
475 1.66794
480 1.61981
485 1.58954
490 1.35621
495 1.41224
500 1.55438
505 2.41415
510 3.69081
515 3.13176
520 2.22531
525 2.07855
530 1.70252
535 1.50519
540 1.3302
545 1.22509
550 1.27372
555 1.1375
560 1.00039
565 0.94689
570 0.829524
575 0.719677
580 0.592816
585 0.463008
590 0.42332
595 0.310992
600 0.318975
Ex : 453
200 0.111987
205 0.128018
210 0.101255
215 0.0749844
220 0.110941
225 0.142726
230 0.11669
235 0.11185
240 0.127497
245 0.0987441
250 0.0924726
255 0.143628
260 0.170933
265 0.169781
270 0.17676
275 0.163961
280 0.127405
285 0.13593
290 0.0967204
295 0.15439
300 0.103525
305 0.119021
310 0.162738
315 0.129495
320 0.158586
325 0.212722
330 0.103369
335 0.125841
340 0.0941987
345 0.180571
350 0.125405
355 0.19719
360 0.158481
365 0.161875
370 0.127713
375 0.1504
380 0.149599
385 0.114383
390 0.166726
395 0.122961
400 0.140079
405 0.196998
410 0.164872
415 0.230644
420 0.172863
425 0.243925
430 0.243967
435 0.344159
440 8.81682
445 153.507
450 224.216
455 54.3137
460 7.15111
465 1.97185
470 1.14736
475 1.34832
480 1.64054
485 1.59943
490 1.3966
495 1.45487
500 1.48359
505 1.45232
510 1.9461
515 3.34299
520 3.3804
525 2.24323
530 1.90504
535 1.77441
540 1.50733
545 1.30838
550 1.22263
555 1.0543
560 1.02992
565 0.959511
570 0.742439
575 0.668214
580 0.633628
585 0.529794
590 0.451747
595 0.382865
600 0.239583
Ex : 458
200 0.1057
205 0.123902
210 0.107869
215 0.164472
220 0.152483
225 0.138393
230 0.14181
235 0.158021
240 0.129365
245 0.160681
250 0.204127
255 0.22474
260 0.147766
265 0.162383
270 0.159238
275 0.168646
280 0.145802
285 0.123158
290 0.128259
295 0.18033
300 0.132537
305 0.153209
310 0.137183
315 0.191456
320 0.130314
325 0.118387
330 0.105545
335 0.110386
340 0.128511
345 0.117064
350 0.149984
355 0.199973
360 0.129161
365 0.128172
370 0.156115
375 0.134971
380 0.131333
385 0.187374
390 0.156907
395 0.155605
400 0.152326
405 0.136588
410 0.139663
415 0.124651
420 0.186828
425 0.174276
430 0.199723
435 0.291287
440 0.353602
445 11.5136
450 190.72
455 278.343
460 65.8083
465 8.59872
470 2.13659
475 1.30231
480 1.32133
485 1.5778
490 1.65237
495 1.39487
500 1.30549
505 1.32761
510 1.54824
515 1.56801
520 2.61182
525 3.48845
530 2.50825
535 1.80418
540 1.79375
545 1.48895
550 1.15244
555 1.15732
560 1.08036
565 1.00859
570 0.798819
575 0.664014
580 0.572219
585 0.482413
590 0.386981
595 0.351165
600 0.487393
Ex : 463
200 0.117049
205 0.134412
210 0.114418
215 0.116243
220 0.107965
225 0.138979
230 0.148383
235 0.164759
240 0.103862
245 0.0913635
250 0.165862
255 0.154367
260 0.221017
265 0.131992
270 0.159312
275 0.103811
280 0.188021
285 0.206977
290 0.121233
295 0.138687
300 0.150329
305 0.130811
310 0.131081
315 0.156955
320 0.193883
325 0.13369
330 0.135502
335 0.168767
340 0.127861
345 0.123936
350 0.104936
355 0.139318
360 0.154026
365 0.120758
370 0.109787
375 0.168368
380 0.140082
385 0.133959
390 0.124092
395 0.122171
400 0.103533
405 0.16394
410 0.208091
415 0.113169
420 0.175229
425 0.196817
430 0.173921
435 0.21761
440 0.280386
445 0.373708
450 11.6517
455 196.751
460 305.975
465 74.5221
470 9.61304
475 2.23545
480 1.28624
485 1.16353
490 1.62406
495 1.62167
500 1.33987
505 1.24856
510 1.30868
515 1.41392
520 1.48553
525 2.04249
530 3.42601
535 2.7952
540 1.81625
545 1.58957
550 1.64012
555 1.26557
560 1.03635
565 0.898673
570 0.789344
575 0.655448
580 0.62993
585 0.453235
590 0.384612
595 0.368094
600 0.396911
Ex : 468
200 0.106126
205 0.102372
210 0.15204
215 0.122575
220 0.134531
225 0.128992
230 0.115678
235 0.199527
240 0.12804
245 0.106402
250 0.133203
255 0.135891
260 0.112022
265 0.131175
270 0.103253
275 0.138581
280 0.135693
285 0.15996
290 0.1361
295 0.126801
300 0.153982
305 0.113176
310 0.0885298
315 0.110075
320 0.140744
325 0.123612
330 0.130711
335 0.136403
340 0.146764
345 0.194683
350 0.112464
355 0.125909
360 0.104035
365 0.109137
370 0.110874
375 0.111624
380 0.175824
385 0.180498
390 0.130413
395 0.137306
400 0.119421
405 0.115353
410 0.138783
415 0.153049
420 0.177437
425 0.165731
430 0.159392
435 0.172316
440 0.192827
445 0.241432
450 0.48145
455 12.0818
460 193.718
465 310.511
470 74.7738
475 9.60312
480 2.19652
485 1.4524
490 1.29697
495 1.63091
500 1.52956
505 1.28976
510 1.23418
515 1.26957
520 1.44066
525 1.41473
530 1.79574
535 2.77121
540 3.01763
545 1.92219
550 1.68071
555 1.60636
560 1.253
565 0.916933
570 0.842885
575 0.686933
580 0.601983
585 0.576559
590 0.428106
595 0.442899
600 0.431927
Ex : 473
200 0.114692
205 0.108136
210 0.133852
215 0.174654
220 0.148995
225 0.112612
230 0.120207
235 0.122411
240 0.106781
245 0.140568
250 0.115007
255 0.1033
260 0.110589
265 0.136855
270 0.141823
275 0.130918
280 0.126981
285 0.136351
290 0.104499
295 0.144014
300 0.10812
305 0.167785
310 0.141596
315 0.10539
320 0.127764
325 0.108902
330 0.114153
335 0.130458
340 0.143432
345 0.123013
350 0.115685
355 0.13092
360 0.128221
365 0.195205
370 0.109807
375 0.125992
380 0.146281
385 0.144976
390 0.161769
395 0.167217
400 0.197864
405 0.15976
410 0.167118
415 0.135933
420 0.204273
425 0.158378
430 0.150771
435 0.177639
440 0.20393
445 0.231591
450 0.253925
455 0.479907
460 15.0754
465 206.265
470 278.236
475 65.1464
480 8.48523
485 2.0365
490 1.28099
495 1.23539
500 1.49481
505 1.51166
510 1.36332
515 1.34245
520 1.23918
525 1.24395
530 1.26201
535 1.48347
540 2.32898
545 2.99197
550 2.13444
555 1.60413
560 1.36255
565 1.2523
570 0.953927
575 0.777433
580 0.609184
585 0.583491
590 0.505254
595 0.37129
600 0.421689
Ex : 478
200 0.0929671
205 0.148354
210 0.150712
215 0.164032
220 0.160373
225 0.135114
230 0.149053
235 0.182824
240 0.147321
245 0.115091
250 0.143912
255 0.13762
260 0.133781
265 0.117071
270 0.209274
275 0.135203
280 0.165335
285 0.115177
290 0.188964
295 0.149846
300 0.162558
305 0.140767
310 0.183281
315 0.18702
320 0.187014
325 0.155958
330 0.138741
335 0.128308
340 0.187904
345 0.212136
350 0.280533
355 0.192452
360 0.158205
365 0.157624
370 0.162218
375 0.178959
380 0.203514
385 0.176746
390 0.131696
395 0.169766
400 0.221226
405 0.128503
410 0.145686
415 0.211915
420 0.1586
425 0.200175
430 0.161513
435 0.219056
440 0.233214
445 0.242216
450 0.275237
455 0.407954
460 0.646825
465 16.893
470 241.839
475 335.797
480 80.6077
485 10.3913
490 2.30701
495 1.43541
500 1.15154
505 1.47272
510 1.54982
515 1.47065
520 1.3017
525 1.23123
530 1.34454
535 1.26126
540 1.34106
545 1.95911
550 2.70427
555 2.31342
560 1.48412
565 1.28349
570 1.19426
575 0.984616
580 0.752632
585 0.535997
590 0.473972
595 0.434872
600 0.0494868
Ex : 483
200 0.178995
205 0.137673
210 0.13676
215 0.140151
220 0.128218
225 0.162905
230 0.172302
235 0.150867
240 0.118001
245 0.14402
250 0.116138
255 0.123336
260 0.109164
265 0.132694
270 0.171935
275 0.150997
280 0.134887
285 0.128396
290 0.21447
295 0.134555
300 0.141312
305 0.152732
310 0.125483
315 0.159514
320 0.202564
325 0.190797
330 0.130724
335 0.158811
340 0.137962
345 0.16155
350 0.164043
355 0.137734
360 0.190827
365 0.172911
370 0.221598
375 0.140783
380 0.13246
385 0.155802
390 0.160005
395 0.153789
400 0.21218
405 0.269928
410 0.16692
415 0.178816
420 0.16393
425 0.168367
430 0.231162
435 0.203928
440 0.204728
445 0.280853
450 0.140302
455 0.292277
460 0.423234
465 0.54148
470 13.9862
475 246.505
480 363.293
485 89.0935
490 11.2929
495 2.34718
500 1.25877
505 1.07823
510 1.30286
515 1.51771
520 1.5509
525 1.43499
530 1.31702
535 1.34992
540 1.39699
545 1.26973
550 1.38831
555 2.30116
560 2.44347
565 1.62606
570 1.12053
575 1.05529
580 0.928882
585 0.643766
590 0.491737
595 0.373299
600 0.521092
Ex : 488
200 0.179349
205 0.169388
210 0.242147
215 0.170653
220 0.138615
225 0.134867
230 0.151529
235 0.206523
240 0.195455
245 0.247354
250 0.133778
255 0.207282
260 0.173424
265 0.134435
270 0.147847
275 0.163093
280 0.162444
285 0.205256
290 0.23524
295 0.190959
300 0.223711
305 0.129352
310 0.141576
315 0.173615
320 0.247603
325 0.154788
330 0.185577
335 0.175977
340 0.189561
345 0.200305
350 0.187783
355 0.150585
360 0.188409
365 0.143342
370 0.167516
375 0.184486
380 0.256245
385 0.171895
390 0.18238
395 0.251778
400 0.19144
405 0.192403
410 0.209613
415 0.17275
420 0.19121
425 0.135617
430 0.169548
435 0.247937
440 0.185366
445 0.213543
450 0.206299
455 0.270483
460 0.235702
465 0.421262
470 0.602203
475 14.0124
480 242.762
485 361.598
490 86.725
495 11.0901
500 2.45616
505 1.27996
510 1.08204
515 1.36017
520 1.57162
525 1.49924
530 1.3224
535 1.18752
540 1.14139
545 1.25964
550 1.12995
555 1.30829
560 1.73109
565 2.2105
570 1.67245
575 1.26328
580 0.848625
585 0.68675
590 0.572399
595 0.430845
600 0.791524
Ex : 493
200 0.127554
205 0.20425
210 0.203246
215 0.158142
220 0.130105
225 0.174716
230 0.167219
235 0.175086
240 0.190295
245 0.16112
250 0.120861
255 0.180111
260 0.152196
265 0.187663
270 0.151627
275 0.181782
280 0.151481
285 0.212816
290 0.184653
295 0.237435
300 0.187394
305 0.192083
310 0.20803
315 0.179712
320 0.19381
325 0.213027
330 0.145865
335 0.134717
340 0.255263
345 0.176829
350 0.229558
355 0.168028
360 0.205048
365 0.1745
370 0.21746
375 0.208905
380 0.16267
385 0.150834
390 0.225165
395 0.170784
400 0.243346
405 0.175272
410 0.177418
415 0.183431
420 0.205934
425 0.119828
430 0.236641
435 0.235523
440 0.193618
445 0.201132
450 0.256163
455 0.240411
460 0.278334
465 0.298059
470 0.403546
475 0.541104
480 15.6122
485 266.831
490 399.715
495 93.8711
500 11.6879
505 2.3108
510 1.21603
515 1.01993
520 1.22587
525 1.55826
530 1.49118
535 1.4304
540 1.19419
545 1.07803
550 1.1414
555 1.02972
560 1.05307
565 1.37686
570 1.91821
575 1.69333
580 1.04905
585 0.713283
590 0.55919
595 0.539965
600 0.28047
Ex : 498
200 0.138803
205 0.171729
210 0.179757
215 0.175695
220 0.152717
225 0.169831
230 0.20792
235 0.226784
240 0.203704
245 0.180381
250 0.189731
255 0.206006
260 0.162492
265 0.178031
270 0.164548
275 0.213186
280 0.15402
285 0.128081
290 0.134435
295 0.187692
300 0.163973
305 0.175845
310 0.216836
315 0.167677
320 0.179863
325 0.126933
330 0.151367
335 0.18335
340 0.132529
345 0.247358
350 0.230691
355 0.213793
360 0.161029
365 0.208004
370 0.212809
375 0.207004
380 0.18282
385 0.147746
390 0.204048
395 0.228349
400 0.179495
405 0.191998
410 0.146851
415 0.203499
420 0.211229
425 0.221683
430 0.196808
435 0.17113
440 0.17165
445 0.207062
450 0.207415
455 0.266675
460 0.244769
465 0.266846
470 0.398449
475 0.474791
480 0.671245
485 20.1947
490 292.527
495 398.228
500 97.8101
505 12.3185
510 2.4503
515 1.32734
520 1.14644
525 1.297
530 1.59443
535 1.4382
540 1.39389
545 1.17329
550 1.02585
555 1.17438
560 0.982737
565 1.04366
570 1.12761
575 1.37987
580 1.34452
585 0.929939
590 0.622084
595 0.586602
600 0.986329
Ex : 503
200 0.126087
205 0.128878
210 0.194833
215 0.185633
220 0.177635
225 0.172311
230 0.20459
235 0.193526
240 0.247958
245 0.166551
250 0.160539
255 0.254602
260 0.16275
265 0.164553
270 0.166302
275 0.19916
280 0.17733
285 0.202166
290 0.274762
295 0.160468
300 0.221067
305 0.178346
310 0.181645
315 0.209304
320 0.172923
325 0.213234
330 0.167384
335 0.253884
340 0.221475
345 0.200649
350 0.22372
355 0.193565
360 0.17466
365 0.225601
370 0.218773
375 0.241234
380 0.197363
385 0.26777
390 0.224051
395 0.158295
400 0.202815
405 0.272568
410 0.247833
415 0.238039
420 0.198854
425 0.219824
430 0.278579
435 0.201022
440 0.263482
445 0.23709
450 0.254286
455 0.281098
460 0.320654
465 0.283452
470 0.352773
475 0.351142
480 0.563355
485 0.826125
490 20.958
495 345.508
500 481.826
505 114.756
510 14.1699
515 2.69089
520 1.50757
525 1.31824
530 1.267
535 1.49238
540 1.4829
545 1.44413
550 1.23729
555 1.06401
560 1.05152
565 0.939445
570 0.936447
575 0.707786
580 0.959162
585 1.32422
590 0.945489
595 0.745451
600 0.205853
Ex : 508
200 0.162183
205 0.179873
210 0.261897
215 0.182483
220 0.192348
225 0.149786
230 0.185994
235 0.185699
240 0.232653
245 0.262615
250 0.190969
255 0.237412
260 0.211024
265 0.198524
270 0.240863
275 0.230776
280 0.208653
285 0.221021
290 0.157643
295 0.253926
300 0.297995
305 0.195426
310 0.203962
315 0.186661
320 0.194286
325 0.233423
330 0.177825
335 0.192
340 0.258665
345 0.282871
350 0.233503
355 0.2342
360 0.198296
365 0.275266
370 0.244363
375 0.275568
380 0.223733
385 0.179519
390 0.17111
395 0.209817
400 0.254284
405 0.173729
410 0.238881
415 0.21802
420 0.227163
425 0.197969
430 0.295648
435 0.217946
440 0.174728
445 0.198012
450 0.229701
455 0.196522
460 0.235242
465 0.244561
470 0.273419
475 0.287868
480 0.433974
485 0.519142
490 0.680681
495 20.3972
500 420.127
505 586.774
510 147.372
515 18.1594
520 3.28492
525 1.55
530 1.25454
535 1.24235
540 1.37534
545 1.36428
550 1.19123
555 1.04109
560 0.954313
565 0.858626
570 0.941296
575 0.849887
580 0.810913
585 0.760901
590 1.11384
595 0.934054
600 0.638014
Ex : 513
200 0.217161
205 0.229746
210 0.240025
215 0.239398
220 0.203017
225 0.247126
230 0.174635
235 0.188551
240 0.226306
245 0.184075
250 0.190022
255 0.184916
260 0.187064
265 0.212247
270 0.19283
275 0.175283
280 0.203228
285 0.211217
290 0.226985
295 0.131125
300 0.254154
305 0.272207
310 0.183277
315 0.30401
320 0.286793
325 0.250147
330 0.208728
335 0.217284
340 0.258246
345 0.202627
350 0.20192
355 0.183572
360 0.241076
365 0.245037
370 0.283562
375 0.208774
380 0.227074
385 0.197108
390 0.195147
395 0.225855
400 0.173468
405 0.189246
410 0.279871
415 0.191294
420 0.257204
425 0.270395
430 0.232694
435 0.177354
440 0.146064
445 0.227542
450 0.271543
455 0.260086
460 0.248094
465 0.22177
470 0.227092
475 0.291861
480 0.324536
485 0.333389
490 0.572653
495 0.818172
500 18.7023
505 340.983
510 502.804
515 119.138
520 14.8317
525 2.66648
530 1.56278
535 1.22643
540 1.06804
545 1.10834
550 1.2252
555 1.08852
560 0.944748
565 0.904884
570 0.844621
575 0.869359
580 0.74711
585 0.595224
590 0.590749
595 0.758399
600 0.704585
Ex : 518
200 0.204955
205 0.226714
210 0.169552
215 0.211565
220 0.205701
225 0.158095
230 0.166487
235 0.289928
240 0.168867
245 0.211905
250 0.219588
255 0.268314
260 0.202083
265 0.128405
270 0.209224
275 0.155023
280 0.213737
285 0.203777
290 0.169194
295 0.19286
300 0.21845
305 0.194588
310 0.182708
315 0.215594
320 0.163385
325 0.18721
330 0.258004
335 0.187036
340 0.278735
345 0.191174
350 0.193558
355 0.197317
360 0.182066
365 0.180205
370 0.243283
375 0.192027
380 0.174849
385 0.186542
390 0.173582
395 0.202324
400 0.270133
405 0.263642
410 0.226674
415 0.284792
420 0.221967
425 0.188192
430 0.214915
435 0.2362
440 0.234171
445 0.216666
450 0.24795
455 0.248719
460 0.215284
465 0.232061
470 0.286426
475 0.260534
480 0.27972
485 0.345541
490 0.363056
495 0.464303
500 0.770565
505 17.0328
510 310.275
515 491.658
520 120.579
525 15.0614
530 2.77448
535 1.28392
540 1.10789
545 1.05416
550 1.07308
555 1.27954
560 1.02377
565 0.886094
570 0.824378
575 0.766562
580 0.774496
585 0.582623
590 0.519107
595 0.472256
600 0.827079
Ex : 523
200 0.192558
205 0.243043
210 0.226085
215 0.189095
220 0.202968
225 0.232361
230 0.200493
235 0.199846
240 0.143726
245 0.186421
250 0.259538
255 0.175426
260 0.196177
265 0.259058
270 0.24875
275 0.190362
280 0.228083
285 0.191778
290 0.257215
295 0.209221
300 0.18466
305 0.202566
310 0.197788
315 0.198113
320 0.195534
325 0.20338
330 0.326809
335 0.197974
340 0.288116
345 0.250771
350 0.325438
355 0.24945
360 0.23266
365 0.233295
370 0.270183
375 0.182274
380 0.192597
385 0.224723
390 0.258552
395 0.231333
400 0.202311
405 0.241179
410 0.227714
415 0.273852
420 0.253421
425 0.241941
430 0.323768
435 0.231785
440 0.271347
445 0.254674
450 0.206577
455 0.243696
460 0.320718
465 0.297898
470 0.301524
475 0.26375
480 0.288826
485 0.374055
490 0.325987
495 0.324463
500 0.498716
505 0.673083
510 18.1084
515 311.764
520 517.391
525 135.819
530 16.7933
535 3.09178
540 1.48856
545 1.17581
550 0.875027
555 0.912224
560 1.12881
565 1.03203
570 0.82003
575 0.73184
580 0.519842
585 0.451995
590 0.558808
595 0.409186
600 0.683318
Ex : 528
200 0.204614
205 0.214555
210 0.26998
215 0.236553
220 0.160966
225 0.19329
230 0.196781
235 0.159014
240 0.173942
245 0.150341
250 0.172003
255 0.184049
260 0.278253
265 0.236173
270 0.18557
275 0.187011
280 0.222549
285 0.17059
290 0.208375
295 0.232752
300 0.196412
305 0.154628
310 0.193113
315 0.235994
320 0.192149
325 0.197659
330 0.231056
335 0.193737
340 0.225342
345 0.225096
350 0.228454
355 0.309084
360 0.226077
365 0.223045
370 0.193684
375 0.315105
380 0.180267
385 0.33021
390 0.21819
395 0.199178
400 0.296489
405 0.232933
410 0.189449
415 0.204426
420 0.175598
425 0.216209
430 0.279802
435 0.304096
440 0.266279
445 0.216888
450 0.299933
455 0.207463
460 0.289394
465 0.231165
470 0.365174
475 0.278572
480 0.340919
485 0.352192
490 0.29178
495 0.388357
500 0.31321
505 0.605052
510 0.697344
515 24.4289
520 417.925
525 609.475
530 148.076
535 18.3183
540 2.95994
545 1.40213
550 0.9292
555 0.988801
560 0.798165
565 0.957528
570 0.8412
575 0.782906
580 0.68715
585 0.478821
590 0.456268
595 0.442515
600 0.3126
Ex : 533
200 0.216623
205 0.24943
210 0.215124
215 0.225946
220 0.180225
225 0.186686
230 0.245432
235 0.301241
240 0.25289
245 0.236756
250 0.279632
255 0.245208
260 0.258733
265 0.300258
270 0.284936
275 0.211777
280 0.239146
285 0.214678
290 0.184902
295 0.204206
300 0.247966
305 0.222061
310 0.219494
315 0.291384
320 0.228199
325 0.236702
330 0.223087
335 0.294157
340 0.179837
345 0.220687
350 0.263387
355 0.243845
360 0.239168
365 0.320613
370 0.269866
375 0.263921
380 0.26904
385 0.162603
390 0.213188
395 0.247422
400 0.184531
405 0.211019
410 0.325191
415 0.344848
420 0.284516
425 0.304788
430 0.355903
435 0.364301
440 0.243826
445 0.246142
450 0.290809
455 0.264807
460 0.216897
465 0.379252
470 0.363148
475 0.23878
480 0.26082
485 0.316669
490 0.329281
495 0.318612
500 0.315452
505 0.42482
510 0.57255
515 0.653553
520 16.6129
525 297.174
530 516.111
535 134.061
540 16.554
545 2.72949
550 1.14993
555 0.935697
560 0.73244
565 0.798783
570 0.871812
575 0.788789
580 0.599345
585 0.519659
590 0.455724
595 0.505357
600 0.869861
Ex : 538
200 0.283164
205 0.245081
210 0.178152
215 0.200202
220 0.308351
225 0.237512
230 0.256874
235 0.19533
240 0.281856
245 0.249686
250 0.266834
255 0.313712
260 0.284675
265 0.239763
270 0.190808
275 0.186315
280 0.315263
285 0.246706
290 0.353879
295 0.249394
300 0.204835
305 0.222616
310 0.210503
315 0.189232
320 0.352451
325 0.226561
330 0.281776
335 0.199352
340 0.209631
345 0.202979
350 0.202483
355 0.300434
360 0.310095
365 0.248676
370 0.243303
375 0.283395
380 0.289789
385 0.255248
390 0.274914
395 0.267212
400 0.288294
405 0.279454
410 0.289745
415 0.242699
420 0.286604
425 0.222978
430 0.305485
435 0.263527
440 0.193752
445 0.284048
450 0.289712
455 0.221319
460 0.330249
465 0.347747
470 0.298215
475 0.268783
480 0.309351
485 0.34149
490 0.219055
495 0.288227
500 0.387718
505 0.419627
510 0.452181
515 0.560413
520 0.739798
525 17.925
530 340.345
535 518.124
540 130.093
545 15.9874
550 2.77799
555 1.09142
560 0.85975
565 0.698574
570 0.632018
575 0.763987
580 0.540345
585 0.581487
590 0.444606
595 0.454053
600 0.205792
Ex : 543
200 0.2754
205 0.214607
210 0.224996
215 0.256434
220 0.216607
225 0.297905
230 0.286219
235 0.263943
240 0.259618
245 0.233416
250 0.278071
255 0.220265
260 0.218067
265 0.195695
270 0.23652
275 0.186502
280 0.188092
285 0.197261
290 0.225962
295 0.229841
300 0.205739
305 0.245783
310 0.217736
315 0.189047
320 0.26474
325 0.36714
330 0.225807
335 0.250011
340 0.239608
345 0.239781
350 0.224782
355 0.206035
360 0.216216
365 0.274293
370 0.240266
375 0.254069
380 0.291874
385 0.263594
390 0.227166
395 0.3007
400 0.281197
405 0.319769
410 0.33026
415 0.220858
420 0.234045
425 0.196949
430 0.234014
435 0.21917
440 0.274823
445 0.273405
450 0.245109
455 0.26451
460 0.255617
465 0.28831
470 0.215411
475 0.252955
480 0.299521
485 0.303562
490 0.258606
495 0.249188
500 0.300798
505 0.271741
510 0.429485
515 0.461248
520 0.600591
525 0.7438
530 17.8844
535 348
540 557.472
545 181.771
550 22.0297
555 3.41874
560 1.10043
565 0.843724
570 0.770076
575 0.59692
580 0.54564
585 0.511384
590 0.575155
595 0.473102
600 0.543972
Ex : 548
200 0.345753
205 0.308237
210 0.241845
215 0.22753
220 0.296656
225 0.261922
230 0.284032
235 0.213574
240 0.245462
245 0.294217
250 0.314363
255 0.328968
260 0.254881
265 0.24122
270 0.255917
275 0.305089
280 0.272471
285 0.320266
290 0.204447
295 0.210203
300 0.170993
305 0.272694
310 0.188234
315 0.363657
320 0.231544
325 0.291809
330 0.27774
335 0.286879
340 0.261916
345 0.298348
350 0.280818
355 0.25711
360 0.257399
365 0.31142
370 0.297061
375 0.244794
380 0.244857
385 0.312957
390 0.238939
395 0.212469
400 0.243728
405 0.237482
410 0.182283
415 0.339752
420 0.330178
425 0.239779
430 0.256304
435 0.175817
440 0.30059
445 0.299318
450 0.280107
455 0.236319
460 0.230162
465 0.260345
470 0.238329
475 0.309084
480 0.219763
485 0.315495
490 0.308571
495 0.293415
500 0.284004
505 0.363886
510 0.402208
515 0.365406
520 0.512874
525 0.616791
530 0.748778
535 16.4965
540 284.932
545 517.12
550 149.221
555 18.0942
560 2.9275
565 1.09133
570 0.851855
575 0.663884
580 0.496355
585 0.540381
590 0.569566
595 0.563834
600 0.376348
Ex : 553
200 0.280797
205 0.274291
210 0.282844
215 0.284566
220 0.316187
225 0.259987
230 0.205097
235 0.19998
240 0.305734
245 0.266115
250 0.183739
255 0.244764
260 0.238344
265 0.259134
270 0.293766
275 0.32481
280 0.345327
285 0.281193
290 0.379191
295 0.302166
300 0.315617
305 0.16759
310 0.229146
315 0.242754
320 0.250671
325 0.249265
330 0.226846
335 0.280137
340 0.301201
345 0.27344
350 0.335577
355 0.202935
360 0.36976
365 0.204895
370 0.355627
375 0.261522
380 0.281014
385 0.317309
390 0.24274
395 0.288615
400 0.303099
405 0.280833
410 0.303546
415 0.319705
420 0.221127
425 0.248985
430 0.303471
435 0.300257
440 0.228789
445 0.166768
450 0.171926
455 0.234031
460 0.249151
465 0.307963
470 0.39714
475 0.292323
480 0.31703
485 0.285435
490 0.255752
495 0.24779
500 0.359261
505 0.265612
510 0.478938
515 0.37342
520 0.389248
525 0.459159
530 0.514901
535 0.791373
540 14.7906
545 302.826
550 478.712
555 126.868
560 15.6369
565 2.50192
570 1.02365
575 0.764322
580 0.470358
585 0.517827
590 0.458827
595 0.486893
600 0.0916839
Ex : 558
200 0.26168
205 0.261574
210 0.218996
215 0.378915
220 0.307171
225 0.323979
230 0.220171
235 0.216365
240 0.251504
245 0.200073
250 0.219602
255 0.218505
260 0.279399
265 0.177676
270 0.243636
275 0.235489
280 0.200317
285 0.240864
290 0.247932
295 0.252577
300 0.217214
305 0.257363
310 0.264578
315 0.213908
320 0.286607
325 0.348702
330 0.201022
335 0.270587
340 0.30254
345 0.424819
350 0.285194
355 0.255132
360 0.297431
365 0.368396
370 0.306785
375 0.307678
380 0.246869
385 0.273547
390 0.335668
395 0.294095
400 0.283465
405 0.231621
410 0.264827
415 0.344222
420 0.29217
425 0.407024
430 0.27719
435 0.324501
440 0.339743
445 0.251192
450 0.329555
455 0.328266
460 0.338721
465 0.430195
470 0.331745
475 0.313729
480 0.283349
485 0.325197
490 0.297828
495 0.296294
500 0.284205
505 0.245247
510 0.381207
515 0.359248
520 0.314829
525 0.341793
530 0.493178
535 0.470291
540 0.685807
545 15.0385
550 303.404
555 468.499
560 135.622
565 16.6871
570 2.63079
575 0.996596
580 0.652059
585 0.551824
590 0.556572
595 0.4409
600 0.525306
Ex : 563
200 0.182006
205 0.231087
210 0.344391
215 0.293207
220 0.27619
225 0.291263
230 0.297936
235 0.404082
240 0.288993
245 0.220284
250 0.323731
255 0.34975
260 0.273137
265 0.25715
270 0.206161
275 0.247295
280 0.306335
285 0.292628
290 0.242918
295 0.236716
300 0.255554
305 0.389824
310 0.268094
315 0.253058
320 0.263818
325 0.338617
330 0.373868
335 0.274441
340 0.265407
345 0.186497
350 0.292348
355 0.289367
360 0.357928
365 0.25556
370 0.249479
375 0.27862
380 0.383038
385 0.245747
390 0.221515
395 0.261863
400 0.30864
405 0.281943
410 0.27485
415 0.264223
420 0.240387
425 0.361976
430 0.305178
435 0.315934
440 0.326792
445 0.451237
450 0.319225
455 0.261659
460 0.272891
465 0.344599
470 0.303859
475 0.231056
480 0.155176
485 0.287095
490 0.232617
495 0.331994
500 0.241441
505 0.329357
510 0.389903
515 0.369355
520 0.37794
525 0.437422
530 0.369269
535 0.536434
540 0.494913
545 0.761546
550 16.8057
555 363.877
560 734.019
565 244.331
570 29.3506
575 4.10109
580 1.03712
585 0.749544
590 0.474564
595 0.523007
600 1.03379
Ex : 568
200 0.229023
205 0.280823
210 0.169156
215 0.271787
220 0.278514
225 0.285948
230 0.319727
235 0.241426
240 0.257004
245 0.32738
250 0.341272
255 0.296712
260 0.248384
265 0.205643
270 0.260785
275 0.29362
280 0.332626
285 0.374691
290 0.278905
295 0.215223
300 0.197647
305 0.245167
310 0.257565
315 0.263437
320 0.280878
325 0.236167
330 0.277952
335 0.236578
340 0.193783
345 0.261898
350 0.181622
355 0.285253
360 0.270309
365 0.248391
370 0.266338
375 0.339859
380 0.258654
385 0.252212
390 0.302242
395 0.280623
400 0.231391
405 0.333851
410 0.271109
415 0.292796
420 0.333238
425 0.255787
430 0.278095
435 0.289244
440 0.356289
445 0.294487
450 0.310919
455 0.326084
460 0.356901
465 0.320946
470 0.275268
475 0.328726
480 0.332718
485 0.338143
490 0.377839
495 0.267138
500 0.439574
505 0.355048
510 0.482957
515 0.250876
520 0.336384
525 0.362654
530 0.456991
535 0.397466
540 0.416895
545 0.606144
550 0.927852
555 11.7158
560 304.407
565 683.33
570 230.509
575 27.8722
580 3.92047
585 0.970888
590 0.702737
595 0.494889
600 0.182917
Ex : 573
200 0.382233
205 0.271914
210 0.265311
215 0.227751
220 0.319582
225 0.375259
230 0.28975
235 0.331183
240 0.263618
245 0.186016
250 0.215659
255 0.285957
260 0.267306
265 0.308879
270 0.263118
275 0.345453
280 0.240096
285 0.28896
290 0.287524
295 0.295605
300 0.30062
305 0.264472
310 0.260071
315 0.319845
320 0.30641
325 0.264025
330 0.281468
335 0.422284
340 0.265324
345 0.249541
350 0.201563
355 0.339729
360 0.316158
365 0.343711
370 0.349193
375 0.297696
380 0.263301
385 0.222854
390 0.282505
395 0.352412
400 0.3129
405 0.333749
410 0.392798
415 0.39445
420 0.340148
425 0.325123
430 0.307277
435 0.316934
440 0.245448
445 0.373531
450 0.265003
455 0.383518
460 0.289146
465 0.285666
470 0.240796
475 0.366912
480 0.311834
485 0.337004
490 0.297641
495 0.3174
500 0.454795
505 0.355868
510 0.342359
515 0.348175
520 0.302837
525 0.306783
530 0.332435
535 0.331783
540 0.394588
545 0.48351
550 0.607177
555 0.633668
560 10.3339
565 218.81
570 431.217
575 119.441
580 14.792
585 2.28751
590 0.67017
595 0.409606
600 0.451566
Ex : 578
200 0.23569
205 0.264088
210 0.329763
215 0.291434
220 0.234568
225 0.285115
230 0.295512
235 0.253849
240 0.377167
245 0.219528
250 0.330177
255 0.2521
260 0.296724
265 0.232701
270 0.410229
275 0.257258
280 0.305041
285 0.286084
290 0.327096
295 0.250889
300 0.268726
305 0.280719
310 0.337532
315 0.306173
320 0.332124
325 0.299545
330 0.475101
335 0.363674
340 0.275455
345 0.295226
350 0.220127
355 0.209525
360 0.259759
365 0.280356
370 0.351913
375 0.222648
380 0.323189
385 0.343191
390 0.308173
395 0.252497
400 0.385144
405 0.294361
410 0.344702
415 0.281619
420 0.287697
425 0.229545
430 0.218045
435 0.213318
440 0.327374
445 0.267358
450 0.322176
455 0.296152
460 0.347165
465 0.547715
470 0.272294
475 0.300744
480 0.268603
485 0.24229
490 0.269761
495 0.314214
500 0.383524
505 0.220048
510 0.338099
515 0.280748
520 0.375037
525 0.275481
530 0.361102
535 0.409572
540 0.31619
545 0.374062
550 0.372404
555 0.48195
560 0.874956
565 9.78145
570 240.531
575 470.807
580 129.513
585 15.6102
590 2.39551
595 0.669158
600 0.23892
Ex : 583
200 0.2399
205 0.287364
210 0.239225
215 0.183135
220 0.315499
225 0.27599
230 0.25954
235 0.408828
240 0.319576
245 0.239838
250 0.287083
255 0.360683
260 0.407994
265 0.348439
270 0.359958
275 0.227851
280 0.252159
285 0.228035
290 0.35207
295 0.258318
300 0.209399
305 0.27703
310 0.239442
315 0.2343
320 0.226687
325 0.263841
330 0.220106
335 0.264067
340 0.311531
345 0.357142
350 0.284886
355 0.289178
360 0.271762
365 0.225125
370 0.273613
375 0.240605
380 0.290228
385 0.383794
390 0.269126
395 0.296354
400 0.276262
405 0.338911
410 0.239848
415 0.272363
420 0.255774
425 0.256695
430 0.262556
435 0.307961
440 0.278383
445 0.287943
450 0.347737
455 0.262232
460 0.258582
465 0.380903
470 0.27353
475 0.348351
480 0.307094
485 0.284011
490 0.275832
495 0.383017
500 0.253109
505 0.313225
510 0.250172
515 0.385166
520 0.328634
525 0.293276
530 0.406473
535 0.295611
540 0.329535
545 0.400793
550 0.423315
555 0.313959
560 0.592833
565 0.637122
570 8.08145
575 298.526
580 526.736
585 148.89
590 17.9216
595 2.6071
600 0.389636
Ex : 588
200 0.209206
205 0.263609
210 0.248598
215 0.256417
220 0.247716
225 0.167319
230 0.290466
235 0.264264
240 0.249945
245 0.215486
250 0.279118
255 0.332461
260 0.371092
265 0.222996
270 0.22004
275 0.289612
280 0.320441
285 0.341704
290 0.354153
295 0.257315
300 0.210334
305 0.199466
310 0.242532
315 0.272212
320 0.354546
325 0.334007
330 0.287205
335 0.221951
340 0.260529
345 0.169905
350 0.271419
355 0.298336
360 0.419455
365 0.366361
370 0.290787
375 0.315169
380 0.194625
385 0.282661
390 0.226579
395 0.457273
400 0.33061
405 0.192999
410 0.305566
415 0.31113
420 0.344739
425 0.241057
430 0.394361
435 0.331558
440 0.302432
445 0.304283
450 0.376769
455 0.288678
460 0.312858
465 0.306399
470 0.266544
475 0.276618
480 0.217709
485 0.34678
490 0.259519
495 0.223945
500 0.246691
505 0.32108
510 0.308465
515 0.31022
520 0.309883
525 0.365271
530 0.335107
535 0.293884
540 0.401636
545 0.339778
550 0.508796
555 0.29916
560 0.524212
565 0.519806
570 0.598281
575 7.1814
580 179.165
585 402.793
590 114.122
595 13.758
600 2.0277
Ex : 593
200 0.235727
205 0.24041
210 0.225464
215 0.255881
220 0.280652
225 0.279595
230 0.38339
235 0.29331
240 0.206841
245 0.396778
250 0.322779
255 0.341786
260 0.222064
265 0.432007
270 0.311255
275 0.314702
280 0.347678
285 0.396285
290 0.28215
295 0.221175
300 0.207688
305 0.233043
310 0.287149
315 0.229204
320 0.276784
325 0.217494
330 0.366301
335 0.32935
340 0.217334
345 0.299596
350 0.270861
355 0.307152
360 0.319667
365 0.292621
370 0.312007
375 0.310407
380 0.379488
385 0.349751
390 0.361422
395 0.41974
400 0.247221
405 0.366015
410 0.279343
415 0.256624
420 0.281879
425 0.388379
430 0.355478
435 0.413355
440 0.368361
445 0.300925
450 0.302337
455 0.262711
460 0.274658
465 0.231996
470 0.351156
475 0.276345
480 0.241266
485 0.252429
490 0.301576
495 0.274272
500 0.320184
505 0.327139
510 0.377375
515 0.247465
520 0.311236
525 0.396481
530 0.386426
535 0.36559
540 0.438016
545 0.362229
550 0.309346
555 0.415782
560 0.339896
565 0.479789
570 0.596761
575 0.582848
580 8.32984
585 209.367
590 386.816
595 135.32
600 18.9837
Ex : 598
200 0.290268
205 0.356539
210 0.320875
215 0.228747
220 0.341612
225 0.315322
230 0.245879
235 0.270143
240 0.256433
245 0.342627
250 0.297098
255 0.384476
260 0.282397
265 0.207971
270 0.295291
275 0.182606
280 0.29169
285 0.25209
290 0.263186
295 0.342148
300 0.20799
305 0.231535
310 0.252049
315 0.324195
320 0.231787
325 0.326804
330 0.225653
335 0.262067
340 0.41183
345 0.395184
350 0.261167
355 0.375364
360 0.190472
365 0.305341
370 0.258101
375 0.241544
380 0.429092
385 0.217003
390 0.470972
395 0.395175
400 0.396217
405 0.369358
410 0.260868
415 0.327924
420 0.307613
425 0.268093
430 0.258596
435 0.3883
440 0.392638
445 0.256399
450 0.277474
455 0.247324
460 0.279694
465 0.193397
470 0.29903
475 0.263766
480 0.294557
485 0.506427
490 0.335893
495 0.318604
500 0.510841
505 0.409067
510 0.324221
515 0.420473
520 0.352959
525 0.290871
530 0.264562
535 0.395878
540 0.4047
545 0.522473
550 0.479693
555 0.405961
560 0.438536
565 0.565684
570 0.55989
575 0.536811
580 0.708262
585 8.91337
590 152.914
595 294.298
600 217.114
Ex : 603
200 0.3373
205 0.314068
210 0.322095
215 0.42292
220 0.31772
225 0.225013
230 0.327098
235 0.306283
240 0.326412
245 0.321448
250 0.318728
255 0.230994
260 0.21173
265 0.224165
270 0.368242
275 0.256657
280 0.381143
285 0.252004
290 0.267886
295 0.260741
300 0.423191
305 0.414562
310 0.358201
315 0.425239
320 0.278835
325 0.258909
330 0.346416
335 0.266988
340 0.231016
345 0.390225
350 0.319357
355 0.289592
360 0.321445
365 0.215731
370 0.407462
375 0.198927
380 0.31177
385 0.404744
390 0.253773
395 0.279043
400 0.272972
405 0.243088
410 0.325273
415 0.481169
420 0.335456
425 0.307949
430 0.370716
435 0.338166
440 0.275071
445 0.385994
450 0.355181
455 0.277124
460 0.397276
465 0.323685
470 0.417879
475 0.352882
480 0.321741
485 0.310902
490 0.52818
495 0.333131
500 0.401173
505 0.396858
510 0.311197
515 0.326641
520 0.446468
525 0.323874
530 0.250246
535 0.402284
540 0.395989
545 0.482619
550 0.362908
555 0.340877
560 0.29276
565 0.439463
570 0.481673
575 0.488875
580 0.431861
585 0.634875
590 7.10455
595 142.84
600 304.369
