File format V 1.0
jeu. 12. janv. 23:31:47 2017
Operator : 
Comments : 

=============================================
SpectroFluorometer parameters
Mode : 3D measurement
Data : Fluorescence
Phospho. : Ordinary
Spectrum : Fluorescence

Scan speed : 2400 nm/mn
Response : 100 ms
PM Voltage : 700 V
Shutter : On

Lambda Ex. Start : 203
Lambda Ex. End : 603
Lambda Ex. Step : 5
Ex. Slit : 5 nm

Lambda Em. Start : 200
Lambda Em. End : 600
Lambda Em. Step : 5
Em. Slit : 5 nm

Repetition : 1
Decal lambda em : 10
=============================================
DATA
Ex : 203
200 6.34135
205 7.24568
210 8.81256
215 5.16632
220 7.51266
225 9.66845
230 5.43958
235 5.76822
240 6.57482
245 9.31337
250 9.88006
255 5.66033
260 8.84577
265 6.33668
270 8.43065
275 10.6216
280 6.93589
285 7.72722
290 5.92863
295 6.94898
300 7.04879
305 6.13623
310 9.71857
315 6.07202
320 5.06117
325 4.90897
330 8.54676
335 9.86121
340 8.68531
345 9.19965
350 7.78038
355 5.48682
360 7.76441
365 7.24409
370 4.598
375 9.22456
380 5.56279
385 6.73897
390 7.96831
395 11.0381
400 5.97314
405 7.04986
410 8.11022
415 5.34127
420 5.95403
425 7.08548
430 5.891
435 8.64207
440 7.02726
445 6.99134
450 11.3124
455 7.56358
460 8.18467
465 8.7043
470 7.47197
475 6.7046
480 6.38608
485 6.75988
490 6.03631
495 6.70465
500 8.70628
505 6.93081
510 8.49186
515 10.571
520 8.65393
525 11.4662
530 10.8453
535 9.1759
540 6.77168
545 7.84768
550 6.91659
555 11.4652
560 6.93166
565 7.46743
570 7.0061
575 6.53003
580 9.34059
585 8.94127
590 6.98139
595 8.84562
600 1.0066
Ex : 208
200 5.03365
205 6.89273
210 10.2672
215 8.51542
220 6.24503
225 6.5054
230 6.61085
235 6.29213
240 8.16013
245 10.4068
250 6.93821
255 6.24216
260 4.66385
265 6.75546
270 7.84964
275 6.63686
280 8.46944
285 8.50288
290 6.08511
295 4.73946
300 7.05988
305 6.09951
310 7.26195
315 5.69832
320 6.23287
325 5.53555
330 7.21885
335 6.24296
340 5.38591
345 8.03218
350 4.90813
355 8.89849
360 7.16012
365 4.94607
370 6.97177
375 10.0418
380 4.30525
385 9.72672
390 7.55993
395 6.78883
400 8.67955
405 5.74381
410 8.16398
415 6.87286
420 7.04819
425 9.21677
430 8.35222
435 9.46479
440 5.35194
445 5.64333
450 8.20868
455 7.14161
460 9.16279
465 7.16444
470 9.59235
475 9.28161
480 10.7408
485 6.2745
490 7.38864
495 7.15552
500 5.32509
505 8.90718
510 6.92748
515 7.76113
520 8.87156
525 12.19
530 9.45076
535 6.41685
540 5.46098
545 7.91188
550 6.98873
555 8.27058
560 5.8213
565 6.15359
570 10.5133
575 6.08632
580 8.37594
585 6.62151
590 8.02204
595 12.9424
600 16.0952
Ex : 213
200 5.32719
205 5.1303
210 12.3347
215 8.86949
220 9.37755
225 8.31826
230 7.3606
235 6.30118
240 5.72544
245 5.71294
250 7.09947
255 6.16441
260 7.77892
265 6.40544
270 5.90046
275 5.67516
280 7.25697
285 7.80944
290 9.29712
295 7.211
300 7.35417
305 10.8067
310 9.03598
315 6.35796
320 6.8146
325 6.16939
330 6.14464
335 5.31524
340 6.50284
345 7.39956
350 7.48857
355 8.06404
360 9.11195
365 5.71183
370 6.47719
375 4.27792
380 6.294
385 6.95424
390 6.07818
395 8.24231
400 5.35599
405 4.70609
410 8.84796
415 6.81642
420 5.26658
425 9.73668
430 5.70944
435 6.89534
440 7.0659
445 8.1047
450 6.06309
455 6.72642
460 5.47843
465 6.17957
470 5.36199
475 6.46683
480 7.34215
485 6.11112
490 9.03452
495 7.03647
500 8.10078
505 9.37519
510 6.29382
515 4.47766
520 5.50182
525 7.27664
530 10.2823
535 8.29734
540 6.99201
545 7.52515
550 6.14162
555 6.08961
560 6.48371
565 6.30026
570 6.45676
575 9.05859
580 8.69414
585 6.60471
590 11.9352
595 7.63267
600 0.868569
Ex : 218
200 7.48113
205 7.90279
210 6.26385
215 6.50384
220 6.92254
225 6.68081
230 5.58659
235 5.60832
240 5.41949
245 6.13686
250 9.12769
255 7.65372
260 7.58614
265 6.694
270 9.90278
275 7.42927
280 7.4985
285 5.71244
290 5.72558
295 6.56626
300 5.53017
305 5.5888
310 5.68951
315 9.75912
320 8.75559
325 7.55258
330 7.28339
335 6.43608
340 7.54375
345 10.8181
350 6.15488
355 4.18017
360 6.46167
365 6.71284
370 5.9619
375 7.78456
380 7.5754
385 7.09924
390 5.88981
395 6.80976
400 7.01996
405 10.6802
410 5.87404
415 6.63223
420 8.88744
425 7.94414
430 5.69922
435 9.13313
440 6.45639
445 8.19681
450 9.18064
455 6.04516
460 6.41026
465 7.56589
470 7.25994
475 6.52978
480 7.18968
485 4.48061
490 5.55088
495 7.76233
500 7.458
505 6.27141
510 4.69173
515 8.07906
520 6.67547
525 6.39912
530 8.29629
535 9.08218
540 8.40589
545 8.00993
550 8.19433
555 8.01799
560 10.2282
565 6.89292
570 9.36543
575 6.48915
580 5.28286
585 8.46832
590 9.77457
595 9.19786
600 27.6328
Ex : 223
200 7.79717
205 8.19327
210 6.10505
215 6.85261
220 5.89011
225 6.74946
230 5.25873
235 4.5248
240 7.37196
245 9.41106
250 6.57085
255 5.90928
260 6.40599
265 7.63662
270 7.7371
275 5.70221
280 8.16692
285 8.06963
290 8.50794
295 6.23206
300 5.97048
305 6.59149
310 7.03256
315 4.75917
320 6.73308
325 6.96556
330 4.30371
335 8.74867
340 8.25062
345 6.94034
350 8.8325
355 7.98952
360 7.57838
365 5.00345
370 5.8866
375 10.0465
380 10.0584
385 8.48497
390 8.48474
395 5.78057
400 5.70082
405 8.2064
410 8.62627
415 10.5306
420 7.57397
425 7.88557
430 7.74126
435 8.19418
440 8.96601
445 8.31351
450 6.8488
455 8.22272
460 7.036
465 8.533
470 6.55097
475 8.54173
480 6.87736
485 7.22432
490 6.97911
495 8.78551
500 7.15907
505 5.08421
510 6.3449
515 5.2692
520 6.88252
525 6.75159
530 10.0324
535 5.92793
540 6.77133
545 4.80175
550 5.62269
555 8.36188
560 4.58499
565 6.38622
570 4.3808
575 4.23932
580 6.73183
585 7.90301
590 7.9024
595 7.07032
600 0.804575
Ex : 228
200 6.30837
205 5.65703
210 7.18105
215 7.24419
220 6.44219
225 5.10369
230 6.95733
235 7.2439
240 4.79528
245 6.06378
250 8.40476
255 6.23986
260 8.29204
265 8.16263
270 5.23012
275 5.43735
280 5.29661
285 6.31793
290 4.1784
295 4.52445
300 6.83003
305 7.08335
310 8.84693
315 6.80946
320 6.8408
325 7.49917
330 5.19029
335 6.9268
340 8.32098
345 6.53321
350 4.68779
355 7.43671
360 8.38108
365 8.82578
370 6.94504
375 9.01711
380 9.09999
385 5.9364
390 5.23871
395 12.0201
400 6.226
405 6.0218
410 5.03001
415 11.2408
420 5.06567
425 7.29037
430 7.42003
435 7.19288
440 6.52105
445 6.92598
450 5.86544
455 10.8175
460 7.81586
465 7.00422
470 8.29099
475 7.93687
480 6.88902
485 5.96665
490 6.72164
495 6.16339
500 5.25952
505 6.50785
510 5.94357
515 6.2299
520 7.2803
525 8.59453
530 10.4576
535 5.46783
540 6.81003
545 7.10336
550 9.56202
555 6.87716
560 6.98213
565 6.22736
570 10.1383
575 5.90264
580 8.2423
585 10.0576
590 7.65773
595 10.0276
600 4.24281
Ex : 233
200 5.35146
205 5.72926
210 7.32202
215 5.90597
220 4.77803
225 4.89487
230 6.51449
235 5.5993
240 5.57352
245 7.16337
250 7.92733
255 11.5787
260 7.41396
265 7.0199
270 7.51742
275 8.20295
280 7.43107
285 6.11028
290 8.35928
295 7.27756
300 7.22811
305 6.37557
310 8.1009
315 6.28021
320 4.91934
325 5.1914
330 5.85404
335 5.93059
340 7.76075
345 4.85409
350 6.10341
355 6.05325
360 7.06736
365 3.94623
370 5.64237
375 3.7515
380 6.49399
385 6.84435
390 7.58274
395 6.4205
400 4.51363
405 5.05301
410 3.7431
415 6.93699
420 6.75836
425 7.71229
430 7.79794
435 5.0892
440 6.91531
445 7.68342
450 7.35446
455 6.04336
460 9.01197
465 6.50062
470 7.64565
475 3.36021
480 3.73626
485 5.75338
490 5.13604
495 6.28667
500 4.08893
505 8.576
510 5.99525
515 7.91179
520 4.78738
525 6.63986
530 4.82425
535 5.11518
540 7.95402
545 5.93565
550 7.03416
555 4.3781
560 4.86017
565 7.23308
570 5.96843
575 4.85173
580 5.48208
585 5.49611
590 7.05337
595 6.07363
600 0.691156
Ex : 238
200 5.87109
205 3.94025
210 9.03006
215 8.218
220 6.1064
225 5.50858
230 4.84975
235 5.86911
240 5.21095
245 5.76308
250 6.34993
255 6.81223
260 8.08639
265 7.65129
270 6.81092
275 6.59818
280 3.20303
285 6.51789
290 7.34195
295 6.45265
300 4.10541
305 4.95462
310 4.36375
315 4.4845
320 7.34118
325 5.27684
330 5.02783
335 6.17536
340 7.90571
345 5.83555
350 8.74036
355 6.88348
360 5.48758
365 6.85721
370 5.22845
375 8.49951
380 4.77226
385 6.55635
390 6.13254
395 5.07517
400 5.32579
405 7.22532
410 4.35074
415 8.98273
420 6.90306
425 4.14308
430 4.65551
435 9.15044
440 5.92571
445 7.0782
450 9.65322
455 6.14718
460 6.83682
465 5.20253
470 5.96242
475 7.05434
480 7.11739
485 6.41314
490 8.10529
495 5.82015
500 6.48103
505 5.51826
510 6.33226
515 7.08393
520 5.85227
525 5.65352
530 5.33523
535 5.25462
540 7.47787
545 5.562
550 4.36135
555 5.76466
560 6.15681
565 7.25787
570 5.07055
575 3.85863
580 8.17419
585 4.14312
590 5.57295
595 4.89992
600 0.557592
Ex : 243
200 3.63667
205 3.21189
210 7.54182
215 6.04268
220 5.90131
225 5.38965
230 6.05852
235 6.06297
240 6.74567
245 5.55735
250 4.48724
255 4.32721
260 5.44294
265 5.68206
270 4.90852
275 5.95664
280 3.82508
285 4.60882
290 4.0468
295 3.92801
300 3.31485
305 4.30313
310 4.08627
315 4.55424
320 4.6281
325 5.02517
330 4.74828
335 4.56771
340 4.33288
345 6.15986
350 5.35832
355 3.86664
360 4.65944
365 5.19836
370 5.18854
375 5.47071
380 4.30583
385 4.69009
390 3.53108
395 5.8417
400 4.55184
405 4.86982
410 3.82374
415 4.1061
420 5.45515
425 4.96555
430 6.62079
435 7.86191
440 3.44174
445 7.44114
450 6.28341
455 6.37435
460 4.2424
465 5.26947
470 5.27931
475 4.87614
480 5.46554
485 6.41779
490 5.93788
495 7.04336
500 3.57167
505 4.93458
510 5.09102
515 3.61512
520 7.27331
525 8.20655
530 5.47914
535 7.02318
540 6.94614
545 5.50992
550 6.36533
555 6.20907
560 5.53044
565 4.9908
570 5.43439
575 8.06674
580 5.39451
585 5.49582
590 3.74719
595 5.31603
600 2.04503
Ex : 248
200 5.05231
205 4.29595
210 4.78396
215 3.18099
220 4.41167
225 3.2226
230 5.74685
235 4.70368
240 5.63545
245 4.24882
250 4.25189
255 3.97699
260 5.81315
265 4.2572
270 7.34845
275 6.60176
280 4.18288
285 3.65752
290 3.7773
295 4.62401
300 4.17071
305 4.37551
310 4.88636
315 5.71751
320 4.57715
325 5.14824
330 3.86757
335 4.67538
340 4.35957
345 5.95575
350 5.71469
355 3.88109
360 5.18068
365 4.70558
370 4.61723
375 4.86012
380 3.73963
385 5.36731
390 4.92943
395 4.92319
400 4.25906
405 4.37176
410 4.24224
415 5.7268
420 4.69532
425 6.51906
430 5.35115
435 3.93948
440 6.72423
445 4.75573
450 2.54887
455 5.24268
460 3.37923
465 5.06876
470 5.48643
475 5.84067
480 3.30714
485 4.47773
490 4.57109
495 4.73829
500 2.87772
505 3.35399
510 4.63971
515 5.61462
520 6.53981
525 6.07978
530 5.50038
535 3.84703
540 3.78274
545 5.21267
550 3.95913
555 3.69174
560 5.25994
565 2.97555
570 3.92866
575 4.96376
580 4.78577
585 3.67919
590 3.46434
595 6.25992
600 2.18936
Ex : 253
200 4.42821
205 4.354
210 4.68194
215 3.68449
220 2.82851
225 4.48502
230 4.27618
235 2.8745
240 4.48191
245 2.78263
250 4.45607
255 4.24376
260 3.40001
265 5.64688
270 4.45921
275 3.92499
280 4.08212
285 3.20161
290 3.20566
295 4.11144
300 4.29899
305 4.71882
310 3.5245
315 3.62988
320 3.8881
325 3.52809
330 4.25086
335 3.85131
340 4.13507
345 3.63269
350 5.56907
355 4.81315
360 4.20902
365 3.66568
370 2.92016
375 3.05819
380 2.97738
385 5.36843
390 3.07007
395 5.88251
400 5.54695
405 2.98996
410 5.56154
415 3.57377
420 3.9064
425 2.95353
430 3.37484
435 3.8679
440 3.4766
445 4.07429
450 3.43826
455 2.92327
460 4.00507
465 4.28859
470 4.79179
475 3.46976
480 2.91185
485 3.48035
490 5.16446
495 4.28326
500 3.71081
505 3.95803
510 4.83855
515 3.35992
520 4.08541
525 3.75717
530 3.34722
535 3.33019
540 3.2911
545 4.80098
550 4.74902
555 3.13876
560 5.48322
565 2.82357
570 2.84906
575 3.44529
580 5.15424
585 4.28605
590 4.32866
595 4.24956
600 4.38288
Ex : 258
200 5.50522
205 3.17408
210 2.58137
215 3.19158
220 3.53954
225 3.13878
230 3.06462
235 3.00547
240 3.35727
245 2.73104
250 2.73813
255 3.66469
260 4.33125
265 5.93384
270 4.1955
275 2.58561
280 2.63713
285 3.26455
290 3.04834
295 2.10453
300 2.65724
305 2.44872
310 3.03471
315 2.98747
320 3.42137
325 3.40025
330 2.50438
335 2.68862
340 4.44097
345 2.53379
350 3.7384
355 3.4722
360 2.52348
365 2.99747
370 3.27141
375 2.53691
380 3.13628
385 3.42696
390 3.49895
395 3.73207
400 3.77383
405 2.90427
410 3.31616
415 3.58004
420 4.92666
425 3.02148
430 2.70393
435 2.38789
440 4.52814
445 2.60912
450 3.40327
455 4.05328
460 2.95582
465 3.29352
470 3.45732
475 3.75168
480 3.9699
485 2.74514
490 3.20781
495 3.36839
500 2.73923
505 3.07953
510 2.52173
515 3.92003
520 2.6763
525 3.24886
530 3.50897
535 2.63688
540 2.73261
545 3.32112
550 2.87141
555 3.80326
560 2.6474
565 3.11305
570 3.10362
575 2.15322
580 2.52835
585 2.10571
590 2.48503
595 3.56556
600 4.99789
Ex : 263
200 2.27987
205 1.43623
210 1.72239
215 2.45532
220 2.97655
225 2.86279
230 1.91678
235 3.75544
240 2.54083
245 2.64407
250 2.4683
255 2.80416
260 2.46859
265 2.56352
270 2.37873
275 2.52051
280 2.50017
285 2.32453
290 2.42592
295 2.46173
300 2.63646
305 2.47419
310 2.67705
315 2.32858
320 2.46804
325 2.8112
330 3.57678
335 3.6067
340 3.17982
345 2.95433
350 2.24707
355 2.36192
360 2.96359
365 2.02029
370 3.1548
375 3.73998
380 3.06939
385 2.80534
390 2.86077
395 2.46587
400 2.92601
405 3.89542
410 2.48579
415 3.12252
420 4.3979
425 2.37279
430 3.05732
435 2.34001
440 3.63473
445 3.0252
450 3.18159
455 2.80315
460 2.78552
465 2.2561
470 2.72492
475 2.31067
480 3.28075
485 3.48796
490 2.97885
495 3.4631
500 2.3256
505 1.78591
510 2.57146
515 1.70256
520 2.07041
525 2.28495
530 2.49573
535 2.19626
540 2.16714
545 2.47318
550 2.17162
555 2.51138
560 2.54158
565 3.18614
570 1.99706
575 2.37677
580 2.10923
585 2.43408
590 2.15926
595 2.57775
600 0.497847
Ex : 268
200 1.6671
205 2.17523
210 1.75384
215 1.44471
220 1.54164
225 1.62097
230 1.97476
235 1.87575
240 2.55615
245 1.66695
250 1.24293
255 2.35932
260 2.58097
265 1.39883
270 1.78797
275 2.25585
280 2.17002
285 2.7823
290 2.43094
295 2.53762
300 1.54941
305 1.5126
310 1.26878
315 2.06878
320 3.06194
325 2.06531
330 2.65732
335 2.73208
340 2.01274
345 1.51646
350 2.63202
355 1.83754
360 1.92438
365 2.62507
370 2.15469
375 2.02685
380 2.03911
385 1.36441
390 2.05594
395 2.38817
400 2.72453
405 2.27913
410 2.86113
415 3.08148
420 2.54107
425 1.84325
430 2.59224
435 1.66732
440 1.96801
445 2.58871
450 3.16376
455 1.9427
460 2.42951
465 2.36308
470 2.36586
475 2.06791
480 1.87587
485 2.02056
490 2.50874
495 2.10817
500 3.18623
505 2.4999
510 3.13028
515 1.80551
520 1.39594
525 2.13379
530 1.65129
535 3.12514
540 2.4266
545 2.62149
550 3.00237
555 2.60653
560 2.78693
565 2.16467
570 1.74499
575 1.78771
580 1.81048
585 2.1615
590 2.52274
595 1.72054
600 0.195791
Ex : 273
200 1.59916
205 1.72107
210 1.45886
215 1.18029
220 1.10255
225 2.45983
230 1.67198
235 1.40286
240 1.38611
245 2.78144
250 1.51175
255 2.2783
260 1.71036
265 1.42219
270 1.63885
275 1.52102
280 1.81484
285 2.31572
290 1.24556
295 1.73015
300 2.01958
305 1.9394
310 1.46549
315 1.73199
320 1.65966
325 2.00087
330 1.65702
335 2.00112
340 1.46859
345 2.082
350 1.76441
355 1.4101
360 1.79942
365 1.65396
370 1.90571
375 1.01063
380 1.44716
385 2.01911
390 1.9128
395 1.90814
400 1.54217
405 1.97527
410 2.81072
415 1.92498
420 1.73988
425 1.71228
430 1.37362
435 1.787
440 2.19803
445 2.29883
450 2.29892
455 2.47193
460 1.85174
465 2.11365
470 2.11878
475 1.56007
480 1.78794
485 1.78313
490 1.81023
495 2.10232
500 1.6009
505 2.11968
510 2.01268
515 1.84238
520 1.98782
525 2.429
530 2.28653
535 1.93942
540 2.05872
545 2.02363
550 1.85421
555 2.24898
560 1.51936
565 1.67336
570 1.48405
575 1.43692
580 1.18715
585 1.27298
590 1.1511
595 1.68185
600 6.00488
Ex : 278
200 1.84093
205 1.40732
210 0.969833
215 1.62028
220 1.01568
225 1.40894
230 1.7173
235 1.25559
240 1.12606
245 2.09351
250 1.08194
255 1.29504
260 1.21582
265 1.32285
270 1.67496
275 1.58355
280 1.44137
285 1.55855
290 1.901
295 1.23205
300 1.1625
305 1.38592
310 1.4933
315 0.80071
320 1.91298
325 1.40373
330 1.37678
335 1.24007
340 1.46651
345 1.18745
350 1.37109
355 1.53154
360 1.15799
365 1.2671
370 1.60349
375 1.62423
380 1.36306
385 1.91651
390 1.49922
395 1.92353
400 1.97959
405 1.78641
410 1.31279
415 1.29456
420 1.74669
425 1.77407
430 1.97509
435 1.57401
440 1.69687
445 1.79475
450 1.92819
455 1.93521
460 1.87012
465 1.75043
470 1.62489
475 1.37724
480 0.953993
485 1.57829
490 1.05025
495 1.69819
500 1.91366
505 1.33147
510 1.59052
515 1.92905
520 1.41803
525 1.0085
530 2.20864
535 0.945398
540 1.24424
545 1.29963
550 1.36906
555 1.53276
560 1.56102
565 1.65074
570 1.17706
575 1.11277
580 1.18268
585 1.52006
590 0.92955
595 1.42919
600 0.162636
Ex : 283
200 1.24326
205 1.00288
210 1.31725
215 0.982748
220 1.17411
225 1.1096
230 1.01838
235 0.94928
240 0.93181
245 0.964055
250 1.04739
255 1.04974
260 0.824258
265 0.903504
270 1.01188
275 1.05371
280 0.801251
285 1.06757
290 1.02059
295 1.10168
300 0.738539
305 1.01319
310 1.14801
315 1.05315
320 1.05684
325 1.14993
330 1.50336
335 1.33644
340 1.71601
345 0.92532
350 1.38428
355 1.2899
360 1.47964
365 1.16327
370 1.28646
375 1.85513
380 1.73999
385 1.56304
390 1.43621
395 0.957583
400 1.55131
405 1.20273
410 1.47992
415 1.07428
420 1.34975
425 1.84669
430 1.07861
435 1.12133
440 1.61977
445 1.60748
450 1.93122
455 1.06967
460 1.5727
465 1.73325
470 1.51267
475 1.39288
480 1.82119
485 1.37919
490 1.2678
495 1.70001
500 1.69463
505 1.30272
510 1.30305
515 1.12589
520 1.06165
525 1.15881
530 1.63424
535 1.13889
540 1.06793
545 1.06569
550 0.982805
555 1.08068
560 1.56951
565 1.56317
570 1.15355
575 1.1819
580 1.40264
585 1.19234
590 0.894728
595 0.910846
600 0.103651
Ex : 288
200 0.71169
205 0.895573
210 0.686851
215 1.12435
220 1.03818
225 0.61602
230 0.872638
235 1.20157
240 0.825154
245 0.64614
250 0.594248
255 0.726008
260 0.699814
265 1.09784
270 0.902808
275 0.628395
280 1.13211
285 0.756694
290 1.06606
295 1.16268
300 0.790849
305 0.733717
310 0.800116
315 0.882499
320 0.734448
325 1.32967
330 0.970353
335 1.20521
340 1.04591
345 0.896278
350 0.848641
355 1.04787
360 1.24753
365 1.1592
370 0.921042
375 1.2127
380 0.975123
385 1.133
390 1.4836
395 1.33691
400 1.0296
405 1.21256
410 1.51287
415 1.87293
420 1.32931
425 1.84361
430 1.27687
435 1.02279
440 0.964512
445 1.45731
450 1.18692
455 1.05444
460 1.11087
465 1.19704
470 1.1704
475 1.00126
480 1.08183
485 1.24095
490 1.43107
495 1.00284
500 0.969499
505 1.15869
510 1.10957
515 0.686201
520 1.37734
525 1.2763
530 0.832631
535 0.802946
540 1.06423
545 1.14522
550 1.22347
555 1.14954
560 1.08698
565 0.951473
570 1.41758
575 1.34853
580 1.11073
585 0.890254
590 0.985876
595 0.77739
600 0.542928
Ex : 293
200 1.0057
205 0.995595
210 0.874229
215 0.730823
220 1.02746
225 0.722904
230 0.888534
235 0.949674
240 0.94236
245 0.859196
250 1.09586
255 0.852494
260 0.940489
265 0.79186
270 0.708061
275 0.873273
280 1.04682
285 1.13384
290 0.95544
295 0.765586
300 0.596089
305 0.755813
310 1.0694
315 0.649743
320 0.767892
325 0.795972
330 0.869629
335 0.588753
340 0.919081
345 1.02534
350 0.991235
355 1.05062
360 1.36961
365 1.12635
370 0.753127
375 0.944184
380 0.872592
385 1.09221
390 1.10289
395 1.24029
400 1.41598
405 1.26784
410 1.31556
415 0.912286
420 1.31115
425 0.851643
430 0.791657
435 1.12345
440 1.25792
445 1.19191
450 1.02322
455 1.21529
460 0.988252
465 0.824283
470 1.12345
475 0.808363
480 1.1986
485 0.861513
490 1.03491
495 0.56964
500 0.992785
505 1.08413
510 0.786534
515 0.945675
520 1.01176
525 0.710619
530 0.821074
535 0.681017
540 0.984878
545 0.715538
550 0.628281
555 0.768692
560 0.8226
565 0.88721
570 0.8265
575 0.65043
580 1.445
585 1.10597
590 0.692422
595 0.71448
600 0.0813051
Ex : 298
200 0.691866
205 0.449589
210 0.767392
215 0.612589
220 0.647897
225 0.929864
230 0.654646
235 0.785389
240 0.934842
245 0.653008
250 0.62664
255 0.733768
260 0.68655
265 0.747163
270 0.515236
275 0.623712
280 0.557298
285 0.353178
290 0.705042
295 0.700614
300 0.72555
305 0.656793
310 0.856189
315 0.724072
320 0.606573
325 0.894306
330 0.624728
335 0.631303
340 0.373509
345 0.745105
350 0.566536
355 0.741828
360 0.753707
365 0.899858
370 0.722062
375 0.818228
380 0.826356
385 1.11372
390 1.17033
395 1.17591
400 1.52413
405 1.24745
410 0.997837
415 1.06184
420 1.03864
425 0.930982
430 0.961532
435 0.804033
440 0.960804
445 1.08169
450 0.944128
455 0.922826
460 0.949246
465 0.834077
470 0.771865
475 0.63098
480 0.768163
485 0.674203
490 0.59953
495 0.702026
500 0.797158
505 0.918372
510 0.730063
515 0.929421
520 0.74995
525 0.877901
530 0.819541
535 0.730544
540 0.690782
545 0.771379
550 0.668299
555 0.820221
560 0.496376
565 0.779746
570 0.783596
575 0.634433
580 0.866613
585 1.09182
590 1.06449
595 0.827202
600 0.0941325
Ex : 303
200 0.48749
205 0.594782
210 0.522336
215 0.763476
220 0.701483
225 0.499826
230 0.617098
235 0.617164
240 0.711856
245 0.770159
250 0.656005
255 0.567333
260 0.667179
265 0.839855
270 0.772908
275 0.787186
280 0.673304
285 0.52548
290 0.384623
295 0.660197
300 0.781164
305 0.715941
310 0.750066
315 0.731959
320 0.579126
325 0.548159
330 0.522563
335 0.701284
340 0.725077
345 0.690929
350 0.985299
355 0.876189
360 0.651299
365 0.712488
370 0.650203
375 0.770793
380 0.863879
385 0.801407
390 1.05334
395 0.693769
400 0.771729
405 0.836408
410 0.834151
415 0.806603
420 0.997879
425 1.05273
430 1.06278
435 0.969897
440 1.00176
445 0.761368
450 0.865786
455 0.645597
460 1.10361
465 0.753809
470 0.839435
475 0.954546
480 0.626429
485 0.885259
490 0.671085
495 0.596153
500 0.584473
505 0.470953
510 0.523291
515 0.860394
520 0.649994
525 0.627669
530 0.569152
535 0.587579
540 0.48017
545 0.578482
550 0.474198
555 0.492496
560 0.544189
565 0.473453
570 0.751298
575 0.550821
580 0.58567
585 0.56453
590 0.696398
595 1.05128
600 0.119632
Ex : 308
200 0.527235
205 0.476263
210 0.57803
215 0.321948
220 0.374469
225 0.326908
230 0.405164
235 0.520464
240 0.643336
245 0.462556
250 0.475584
255 0.495544
260 0.599084
265 0.639506
270 0.461225
275 0.566289
280 0.387282
285 0.375903
290 0.561799
295 0.466446
300 0.667656
305 0.607211
310 0.652711
315 0.475593
320 0.436357
325 0.594608
330 0.788283
335 0.707076
340 0.696632
345 0.80061
350 0.681501
355 0.538759
360 0.796365
365 0.791678
370 0.732649
375 0.919102
380 1.02036
385 0.881666
390 0.940712
395 0.762283
400 0.962923
405 0.857818
410 0.894864
415 0.861785
420 0.99898
425 0.860519
430 0.887026
435 0.879883
440 0.689199
445 0.829968
450 0.920921
455 0.991921
460 0.642822
465 1.06156
470 0.723713
475 0.923401
480 0.49354
485 0.721045
490 0.749694
495 0.624343
500 0.686365
505 0.757569
510 0.600857
515 0.983107
520 0.633695
525 0.460266
530 0.653685
535 0.599037
540 0.471322
545 0.523411
550 0.670345
555 0.519846
560 0.601637
565 0.444697
570 0.535827
575 0.466947
580 0.415116
585 0.654148
590 0.586448
595 0.258961
600 0.27001
Ex : 313
200 0.508123
205 0.487998
210 0.284962
215 0.745792
220 0.646354
225 0.47325
230 0.355396
235 0.476071
240 0.440592
245 0.322465
250 0.61309
255 0.288123
260 0.708755
265 0.599903
270 0.799566
275 0.622228
280 0.457204
285 0.653582
290 0.427681
295 0.272095
300 0.286424
305 0.574922
310 0.791891
315 0.538315
320 0.64539
325 0.657053
330 0.662789
335 0.837983
340 0.568858
345 0.66315
350 0.824527
355 0.611445
360 0.785133
365 0.959183
370 1.11629
375 1.11102
380 1.0781
385 1.27192
390 1.27625
395 1.35893
400 1.46266
405 1.39742
410 1.36884
415 1.26772
420 1.3323
425 1.29372
430 1.28982
435 1.3601
440 1.34936
445 1.09385
450 1.16266
455 1.11174
460 0.850857
465 0.986493
470 0.853179
475 0.970879
480 0.911851
485 0.987555
490 0.981989
495 0.978998
500 0.813374
505 0.74773
510 0.708424
515 0.647337
520 0.593265
525 0.464599
530 0.474188
535 0.451372
540 0.539909
545 0.510414
550 0.61789
555 0.552209
560 0.559071
565 0.515248
570 0.523743
575 0.492497
580 0.453899
585 0.509125
590 0.493035
595 0.583378
600 0.0663862
Ex : 318
200 0.239414
205 0.300528
210 0.27775
215 0.375005
220 0.449772
225 0.444489
230 0.54115
235 0.388732
240 0.492338
245 0.441632
250 0.41349
255 0.334073
260 0.473361
265 0.443049
270 0.483905
275 0.438679
280 0.451117
285 0.427858
290 0.552262
295 0.274409
300 0.258434
305 0.541268
310 0.589323
315 1.20209
320 0.688369
325 0.59041
330 0.908839
335 1.08243
340 1.60975
345 2.16261
350 2.46542
355 3.49512
360 4.3281
365 5.18382
370 6.07642
375 7.23452
380 8.14037
385 8.72707
390 9.55612
395 10.2992
400 10.3612
405 10.8477
410 10.2453
415 10.7249
420 9.40459
425 10.1598
430 9.21509
435 8.73926
440 8.50464
445 8.87716
450 7.77595
455 7.22571
460 6.91551
465 6.50214
470 6.06187
475 5.59463
480 5.15603
485 4.64834
490 4.03322
495 3.76746
500 3.3955
505 3.29763
510 2.63321
515 2.1893
520 2.23225
525 1.8614
530 1.50233
535 1.23967
540 1.35384
545 1.29543
550 1.03219
555 0.714988
560 0.719477
565 0.758901
570 0.731958
575 0.63243
580 0.435966
585 0.55581
590 0.567174
595 0.483783
600 1.1404
Ex : 323
200 0.233224
205 0.312248
210 0.458297
215 0.398965
220 0.333638
225 0.35883
230 0.280285
235 0.492687
240 0.39828
245 0.517203
250 0.429396
255 0.279022
260 0.338018
265 0.346728
270 0.343073
275 0.240692
280 0.515771
285 0.340235
290 0.475787
295 0.342556
300 0.384286
305 0.380971
310 0.438509
315 4.89176
320 20.4087
325 8.80961
330 2.89294
335 2.98803
340 4.16493
345 6.30515
350 8.90696
355 12.4724
360 14.571
365 17.5784
370 20.5251
375 24.3853
380 27.2606
385 29.5541
390 32.2578
395 32.6657
400 34.4325
405 35.3295
410 35.3518
415 34.9204
420 33.8373
425 32.1884
430 31.1451
435 30.3035
440 28.7014
445 28.1085
450 25.6833
455 24.4743
460 23.1173
465 21.0234
470 19.2399
475 17.5901
480 16.8815
485 15.2284
490 13.5617
495 12.5593
500 11.0521
505 10.2351
510 8.8218
515 7.75658
520 6.77696
525 5.56587
530 5.27314
535 4.34418
540 3.89287
545 3.28613
550 2.69396
555 2.5309
560 1.9901
565 1.67224
570 1.45857
575 1.11062
580 0.899185
585 0.850697
590 0.904553
595 0.595458
600 0.242316
Ex : 328
200 0.454274
205 0.257434
210 0.395585
215 0.560104
220 0.357867
225 0.303943
230 0.353064
235 0.4008
240 0.356742
245 0.335679
250 0.276668
255 0.371583
260 0.446727
265 0.246514
270 0.306644
275 0.273378
280 0.317389
285 0.349894
290 0.416851
295 0.265496
300 0.253662
305 0.309713
310 0.240032
315 1.4405
320 39.4394
325 87.7424
330 27.2864
335 6.29082
340 5.38534
345 7.09374
350 8.9407
355 12.5733
360 16.3814
365 18.483
370 20.7793
375 23.1494
380 26.2825
385 28.8882
390 31.6665
395 32.6645
400 34.6693
405 34.3979
410 34.5129
415 35.2568
420 33.5777
425 32.1263
430 30.0097
435 29.3234
440 27.643
445 27.1452
450 25.4802
455 24.6089
460 22.788
465 21.4522
470 19.3613
475 18.1734
480 16.4403
485 15.5068
490 14.0723
495 12.3551
500 11.331
505 10.2422
510 8.76256
515 7.69427
520 6.44852
525 5.88271
530 5.03494
535 4.59574
540 3.69797
545 3.01677
550 3.16706
555 2.73992
560 2.50279
565 2.22035
570 1.65972
575 1.53449
580 0.982448
585 0.978224
590 0.761801
595 0.676476
600 0.131878
Ex : 333
200 0.20361
205 0.32614
210 0.362541
215 0.230299
220 0.444267
225 0.260923
230 0.334128
235 0.229996
240 0.492942
245 0.363085
250 0.260538
255 0.322454
260 0.368977
265 0.233468
270 0.327297
275 0.29316
280 0.367023
285 0.408165
290 0.41329
295 0.351874
300 0.308452
305 0.279725
310 0.306252
315 0.543325
320 5.4176
325 99.8705
330 172.367
335 45.6139
340 8.23286
345 5.40978
350 5.65218
355 6.44851
360 8.9904
365 13.3193
370 14.8067
375 14.7194
380 14.4941
385 15.7386
390 16.7155
395 18.0655
400 18.1456
405 18.8798
410 19.0284
415 18.3341
420 18.4213
425 18.0235
430 17.519
435 17.0066
440 15.6493
445 15.7611
450 14.9689
455 13.5423
460 13.5364
465 12.7886
470 11.1383
475 10.1461
480 9.88438
485 8.85808
490 8.63034
495 7.96061
500 6.88699
505 6.33907
510 5.97131
515 5.15377
520 4.97601
525 4.29568
530 3.60512
535 3.49322
540 3.05785
545 2.67341
550 2.20645
555 2.09592
560 2.0142
565 1.65406
570 1.67334
575 1.11314
580 1.0689
585 0.88124
590 0.58945
595 0.536905
600 1.07699
Ex : 338
200 0.30745
205 0.320515
210 0.256062
215 0.371967
220 0.353846
225 0.24344
230 0.29418
235 0.294882
240 0.31825
245 0.351381
250 0.257099
255 0.311724
260 0.248589
265 0.230192
270 0.278223
275 0.33369
280 0.305089
285 0.349921
290 0.27762
295 0.389358
300 0.200371
305 0.29387
310 0.281923
315 0.377417
320 0.314252
325 10.1352
330 143.95
335 217.581
340 53.7592
345 8.70852
350 4.35054
355 4.27917
360 3.92719
365 5.96328
370 10.2029
375 10.5399
380 9.07946
385 8.47372
390 8.95065
395 9.06266
400 9.57956
405 9.95153
410 10.2795
415 10.7789
420 10.2108
425 10.1035
430 9.97793
435 9.8676
440 9.35805
445 9.2806
450 8.96585
455 8.40615
460 8.31818
465 8.43408
470 8.14516
475 7.64071
480 6.96504
485 6.57603
490 6.33022
495 6.04961
500 5.70946
505 5.48474
510 4.63213
515 4.12529
520 3.7134
525 3.5067
530 3.09054
535 2.77877
540 2.56873
545 2.19034
550 2.16319
555 1.71363
560 1.54082
565 1.71512
570 1.3103
575 1.18293
580 0.95385
585 0.818353
590 0.676938
595 0.507084
600 0.366234
Ex : 343
200 0.375101
205 0.284481
210 0.235461
215 0.237672
220 0.237993
225 0.169457
230 0.297124
235 0.209786
240 0.205044
245 0.226223
250 0.226399
255 0.31656
260 0.169134
265 0.262705
270 0.244292
275 0.34377
280 0.294126
285 0.262656
290 0.191888
295 0.270282
300 0.229962
305 0.296258
310 0.288882
315 0.28384
320 0.281087
325 0.419818
330 10.4938
335 166.121
340 240.116
345 57.5336
350 8.87509
355 3.43496
360 3.1416
365 2.41239
370 3.50281
375 7.76906
380 8.67869
385 6.79331
390 6.09156
395 5.93399
400 6.06599
405 6.14976
410 6.99786
415 7.42148
420 7.99431
425 7.85449
430 7.60772
435 8.03912
440 7.79879
445 8.23028
450 7.69072
455 7.40773
460 7.46571
465 7.52833
470 7.34272
475 7.32854
480 6.91631
485 6.73399
490 6.45684
495 5.64856
500 5.60115
505 5.18326
510 4.79586
515 4.31878
520 3.87204
525 3.74748
530 3.43375
535 2.99823
540 2.57441
545 2.43282
550 2.15935
555 1.80707
560 1.68374
565 1.62411
570 1.41323
575 1.30251
580 1.09235
585 0.733956
590 0.74556
595 0.538667
600 1.08522
Ex : 348
200 0.277835
205 0.23296
210 0.185129
215 0.212625
220 0.205755
225 0.307596
230 0.30962
235 0.224936
240 0.260235
245 0.322556
250 0.279944
255 0.313824
260 0.276756
265 0.288124
270 0.223001
275 0.270789
280 0.27892
285 0.239713
290 0.151882
295 0.249394
300 0.297706
305 0.288528
310 0.265387
315 0.23525
320 0.318966
325 0.441317
330 0.488684
335 11.4485
340 166.798
345 252.825
350 65.3593
355 9.19689
360 3.1355
365 2.51106
370 2.02808
375 2.86125
380 5.78555
385 7.68433
390 6.60757
395 5.45862
400 5.19638
405 5.70275
410 6.42607
415 7.01742
420 7.46703
425 7.10308
430 7.56315
435 7.52086
440 7.72113
445 7.91457
450 8.20576
455 7.94826
460 7.77726
465 7.84216
470 7.84729
475 7.55483
480 7.44654
485 7.24472
490 7.01583
495 6.85046
500 5.96134
505 5.90097
510 5.26589
515 5.01793
520 4.24325
525 4.13502
530 3.84784
535 3.45471
540 2.96788
545 2.83947
550 2.53817
555 2.29054
560 1.75554
565 1.64392
570 1.39746
575 1.3011
580 1.03558
585 0.815273
590 0.75049
595 0.65184
600 0.817267
Ex : 353
200 0.16751
205 0.220705
210 0.15893
215 0.173545
220 0.179556
225 0.175412
230 0.257549
235 0.194855
240 0.276829
245 0.195313
250 0.157789
255 0.275091
260 0.199738
265 0.206702
270 0.217132
275 0.254178
280 0.248583
285 0.306166
290 0.233154
295 0.21346
300 0.224814
305 0.216137
310 0.299843
315 0.234527
320 0.275451
325 0.277466
330 0.361705
335 0.440449
340 11.6191
345 175.119
350 255.508
355 62.0363
360 8.64475
365 2.79229
370 2.44805
375 2.29645
380 2.67099
385 4.62576
390 7.69795
395 6.96883
400 6.27684
405 5.45817
410 6.39457
415 6.63237
420 6.64376
425 7.27887
430 7.36374
435 7.50551
440 8.25811
445 8.15848
450 8.0467
455 8.05185
460 8.40335
465 8.40228
470 8.24531
475 8.34215
480 7.86267
485 8.01875
490 7.56177
495 7.45852
500 7.13172
505 6.45797
510 6.21326
515 5.47077
520 5.07742
525 4.65552
530 4.25223
535 3.74613
540 3.63285
545 3.05188
550 2.74157
555 2.5479
560 2.24
565 1.70656
570 1.58571
575 1.30995
580 1.057
585 0.946413
590 0.721364
595 0.716644
600 0.428983
Ex : 358
200 0.229127
205 0.250433
210 0.23444
215 0.20111
220 0.200172
225 0.267292
230 0.293689
235 0.200805
240 0.233554
245 0.207008
250 0.143576
255 0.118955
260 0.20544
265 0.252587
270 0.195653
275 0.231801
280 0.168905
285 0.296209
290 0.178477
295 0.181802
300 0.252797
305 0.190541
310 0.288789
315 0.228148
320 0.204611
325 0.214459
330 0.338171
335 0.343575
340 0.536495
345 11.0902
350 169.471
355 258.619
360 65.4974
365 8.93672
370 3.03318
375 2.88883
380 2.53421
385 2.59078
390 4.04801
395 7.87167
400 7.91475
405 7.04239
410 6.8373
415 6.97006
420 7.29496
425 7.33814
430 7.7926
435 8.36094
440 8.34917
445 8.78213
450 9.22636
455 9.00606
460 9.10048
465 9.23236
470 9.07809
475 8.93387
480 8.9607
485 8.49912
490 8.48844
495 7.78374
500 7.43092
505 7.30902
510 6.81995
515 6.30515
520 5.65748
525 5.3211
530 4.68937
535 4.27643
540 3.76783
545 3.43733
550 3.15155
555 2.78829
560 2.394
565 1.93892
570 1.87136
575 1.46968
580 1.11802
585 0.947644
590 0.840408
595 0.680847
600 0.624284
Ex : 363
200 0.193419
205 0.229647
210 0.223943
215 0.249688
220 0.231176
225 0.148396
230 0.175908
235 0.144856
240 0.164483
245 0.235792
250 0.241685
255 0.259614
260 0.234929
265 0.169279
270 0.133354
275 0.243635
280 0.214188
285 0.239365
290 0.185346
295 0.149291
300 0.194335
305 0.243481
310 0.237884
315 0.208637
320 0.252066
325 0.272143
330 0.292571
335 0.289118
340 0.366454
345 0.47285
350 10.1765
355 166.135
360 257.742
365 67.7203
370 9.45232
375 3.15133
380 2.68224
385 2.47618
390 2.37631
395 3.72195
400 6.7902
405 8.75953
410 8.69882
415 8.62134
420 8.00356
425 7.86874
430 8.43242
435 9.07108
440 9.97088
445 10.1164
450 9.68055
455 9.65532
460 10.013
465 10.0945
470 10.1999
475 10.3615
480 10.0331
485 9.84741
490 9.5446
495 8.9952
500 8.64881
505 8.37791
510 7.67957
515 6.83274
520 6.3836
525 5.82129
530 5.31576
535 4.76305
540 4.3359
545 3.8321
550 3.44285
555 2.93689
560 2.57422
565 2.14914
570 1.77803
575 1.54249
580 1.36893
585 1.01831
590 0.726145
595 0.644388
600 0.591012
Ex : 368
200 0.156746
205 0.197318
210 0.181524
215 0.242109
220 0.23689
225 0.151817
230 0.209404
235 0.184392
240 0.233585
245 0.236293
250 0.151189
255 0.174021
260 0.161119
265 0.260431
270 0.171222
275 0.187804
280 0.167646
285 0.181244
290 0.269907
295 0.191337
300 0.172886
305 0.182401
310 0.185226
315 0.213232
320 0.229383
325 0.168463
330 0.199807
335 0.24978
340 0.216556
345 0.347901
350 0.478888
355 8.28634
360 160.419
365 263.73
370 71.4138
375 9.79743
380 2.96487
385 2.65615
390 2.69491
395 2.67771
400 3.45292
405 6.67832
410 9.8009
415 9.22018
420 8.40106
425 7.79878
430 7.97301
435 8.69983
440 9.24006
445 9.67337
450 9.5186
455 9.58141
460 10.2586
465 10.4506
470 10.5817
475 10.7831
480 10.225
485 10.4466
490 9.77325
495 9.73713
500 9.25787
505 8.78918
510 8.49876
515 7.37653
520 6.82327
525 6.02628
530 5.73387
535 5.4975
540 4.77985
545 4.37056
550 3.87769
555 3.24014
560 3.07101
565 2.68351
570 2.0605
575 1.71529
580 1.36197
585 1.18718
590 0.881893
595 0.689051
600 0.123128
Ex : 373
200 0.124148
205 0.198882
210 0.186223
215 0.165781
220 0.102358
225 0.165855
230 0.153326
235 0.16434
240 0.181883
245 0.218912
250 0.133096
255 0.138501
260 0.229432
265 0.220973
270 0.177949
275 0.135574
280 0.198035
285 0.167356
290 0.153801
295 0.180067
300 0.274278
305 0.18322
310 0.21362
315 0.23972
320 0.253423
325 0.161658
330 0.186716
335 0.190333
340 0.221594
345 0.303015
350 0.319237
355 0.574057
360 9.60135
365 161.699
370 266.471
375 71.4553
380 9.99552
385 2.97809
390 2.7624
395 3.0044
400 3.111
405 3.77113
410 6.82987
415 9.49492
420 8.78322
425 7.76122
430 7.80546
435 8.03724
440 8.37654
445 8.74242
450 8.65237
455 8.98309
460 9.32004
465 9.95467
470 10.6164
475 10.3666
480 10.3912
485 10.4777
490 10.1447
495 9.83243
500 9.36179
505 9.13498
510 8.40697
515 7.61886
520 7.11587
525 6.47181
530 5.94786
535 5.45125
540 5.16179
545 4.4281
550 3.923
555 3.41357
560 3.23719
565 2.80391
570 2.23241
575 1.83426
580 1.37534
585 1.06213
590 0.909254
595 0.801287
600 0.328282
Ex : 378
200 0.211404
205 0.187637
210 0.108403
215 0.132024
220 0.134626
225 0.200375
230 0.151622
235 0.189939
240 0.141639
245 0.124174
250 0.157207
255 0.194096
260 0.164265
265 0.246221
270 0.145728
275 0.12382
280 0.184524
285 0.182496
290 0.184226
295 0.164336
300 0.164154
305 0.18581
310 0.163285
315 0.140995
320 0.156706
325 0.165225
330 0.173857
335 0.182587
340 0.238655
345 0.208455
350 0.275147
355 0.255774
360 0.509628
365 9.25594
370 166.022
375 272.116
380 73.7652
385 10.3378
390 3.00504
395 3.12003
400 3.57967
405 3.895
410 4.8999
415 7.04152
420 9.82054
425 9.198
430 8.64854
435 8.77187
440 9.01238
445 8.79787
450 9.02914
455 9.35753
460 9.92198
465 9.64138
470 10.2722
475 10.1172
480 10.2868
485 10.1038
490 9.82313
495 9.94135
500 9.37379
505 8.84208
510 8.4452
515 7.66963
520 6.94541
525 6.05743
530 5.85326
535 5.09948
540 4.67466
545 4.24405
550 3.75821
555 3.48413
560 2.90375
565 2.55513
570 2.22902
575 1.73392
580 1.56926
585 1.25733
590 1.04041
595 0.707521
600 0.673757
Ex : 383
200 0.133786
205 0.195451
210 0.230878
215 0.149151
220 0.152265
225 0.167524
230 0.219559
235 0.204633
240 0.212426
245 0.147882
250 0.159943
255 0.192053
260 0.161504
265 0.142578
270 0.217444
275 0.197742
280 0.24911
285 0.132641
290 0.149395
295 0.144107
300 0.182525
305 0.188488
310 0.144291
315 0.185499
320 0.202424
325 0.155337
330 0.185047
335 0.153712
340 0.204385
345 0.203118
350 0.19654
355 0.247803
360 0.30672
365 0.467129
370 9.01117
375 164.113
380 280.771
385 77.0317
390 10.9767
395 3.27695
400 3.26478
405 4.29474
410 5.11867
415 6.21839
420 7.24801
425 9.42905
430 10.3603
435 9.87089
440 9.78088
445 9.51062
450 9.08404
455 9.58348
460 9.75084
465 10.5132
470 10.7843
475 10.6368
480 10.5208
485 10.7093
490 10.0407
495 9.79431
500 9.2414
505 9.01414
510 8.44389
515 7.47136
520 6.96202
525 6.41213
530 5.93186
535 5.20032
540 4.93375
545 4.19759
550 3.89038
555 3.36309
560 3.12169
565 2.51512
570 2.19893
575 1.72593
580 1.33881
585 1.08247
590 0.877286
595 0.746444
600 1.03395
Ex : 388
200 0.171683
205 0.162192
210 0.130169
215 0.110097
220 0.126633
225 0.148047
230 0.127683
235 0.238119
240 0.176421
245 0.150607
250 0.168013
255 0.111454
260 0.151741
265 0.141077
270 0.126147
275 0.190336
280 0.245657
285 0.119182
290 0.125521
295 0.137634
300 0.152812
305 0.146458
310 0.136221
315 0.197465
320 0.158091
325 0.20818
330 0.160266
335 0.217674
340 0.194893
345 0.189659
350 0.17481
355 0.214009
360 0.317776
365 0.261379
370 0.495877
375 9.17051
380 169.435
385 281.779
390 76.7954
395 10.6633
400 3.42827
405 4.02736
410 5.54401
415 6.12728
420 5.85876
425 6.268
430 8.5033
435 10.3594
440 10.3319
445 9.70615
450 8.86392
455 8.98083
460 9.43667
465 9.87576
470 10.3634
475 10.3708
480 10.1406
485 10.0409
490 9.8865
495 10.1398
500 9.46947
505 9.13872
510 8.53762
515 7.49874
520 7.06247
525 6.39005
530 5.70042
535 5.24675
540 4.93477
545 4.33808
550 4.25263
555 3.66201
560 3.06673
565 2.78884
570 2.22242
575 1.98573
580 1.44033
585 1.17721
590 0.932314
595 0.841274
600 0.29791
Ex : 393
200 0.141769
205 0.134191
210 0.111633
215 0.151692
220 0.159399
225 0.150326
230 0.13035
235 0.152327
240 0.145887
245 0.152466
250 0.138804
255 0.135337
260 0.132364
265 0.168434
270 0.147958
275 0.152548
280 0.136993
285 0.140291
290 0.116789
295 0.109279
300 0.135216
305 0.184542
310 0.119822
315 0.165776
320 0.192155
325 0.143398
330 0.16289
335 0.146896
340 0.173029
345 0.173204
350 0.178573
355 0.1744
360 0.206935
365 0.228657
370 0.335747
375 0.482605
380 8.41529
385 170.127
390 289.438
395 79.2392
400 11.1158
405 3.90334
410 4.19001
415 5.05694
420 5.10869
425 4.70905
430 5.218
435 7.33103
440 9.21598
445 9.20472
450 8.56271
455 8.36398
460 8.34277
465 8.84815
470 9.35427
475 9.80573
480 9.553
485 9.60555
490 9.60379
495 9.3966
500 9.07204
505 8.83313
510 8.12858
515 7.61652
520 7.30599
525 6.46653
530 5.95562
535 5.42844
540 5.0521
545 4.47016
550 4.12135
555 3.64547
560 3.13605
565 2.63834
570 2.2111
575 1.95206
580 1.58302
585 1.10741
590 1.00713
595 0.806985
600 1.72398
Ex : 398
200 0.10494
205 0.151204
210 0.162033
215 0.155286
220 0.106147
225 0.215938
230 0.164416
235 0.149317
240 0.127578
245 0.150962
250 0.120194
255 0.143026
260 0.129884
265 0.148297
270 0.105582
275 0.115314
280 0.140311
285 0.130521
290 0.148778
295 0.142002
300 0.185011
305 0.13364
310 0.118462
315 0.161567
320 0.14677
325 0.113723
330 0.151755
335 0.159914
340 0.134224
345 0.143207
350 0.167556
355 0.2485
360 0.188076
365 0.195449
370 0.233407
375 0.28135
380 0.420662
385 8.5275
390 171.649
395 291.869
400 78.7026
405 11.6249
410 4.63673
415 4.46779
420 4.59793
425 4.60273
430 4.72084
435 5.11159
440 6.81924
445 8.94633
450 9.00104
455 8.56292
460 8.36107
465 8.75869
470 8.83461
475 9.26974
480 9.36172
485 9.68323
490 9.69011
495 9.42215
500 9.27173
505 9.10585
510 8.11717
515 7.95613
520 7.14744
525 6.71722
530 5.97767
535 5.49591
540 4.95395
545 4.46112
550 4.20035
555 3.5867
560 3.32348
565 2.76034
570 2.18529
575 1.9831
580 1.44032
585 1.27047
590 1.01402
595 0.85053
600 0.497153
Ex : 403
200 0.161533
205 0.140235
210 0.148445
215 0.142673
220 0.17951
225 0.121581
230 0.139221
235 0.13561
240 0.105452
245 0.147074
250 0.144228
255 0.132493
260 0.180452
265 0.146054
270 0.143759
275 0.156317
280 0.136142
285 0.098513
290 0.139163
295 0.141888
300 0.187593
305 0.132715
310 0.12918
315 0.150832
320 0.165458
325 0.177038
330 0.233279
335 0.123604
340 0.0916629
345 0.145814
350 0.164583
355 0.167824
360 0.161843
365 0.232206
370 0.22586
375 0.286676
380 0.338051
385 0.422583
390 9.65818
395 174.739
400 289.562
405 80.844
410 12.6249
415 5.31226
420 4.90626
425 4.75318
430 5.18777
435 5.42249
440 6.45857
445 7.05786
450 8.95825
455 9.90084
460 9.19118
465 9.33245
470 9.49485
475 9.38526
480 9.26976
485 9.72999
490 9.47732
495 9.42313
500 9.03351
505 8.84532
510 8.34545
515 8.01525
520 7.27554
525 6.59535
530 6.10615
535 5.76386
540 5.10728
545 4.62613
550 4.24629
555 3.76897
560 3.44382
565 2.78509
570 2.37846
575 1.8493
580 1.53855
585 1.20589
590 0.982865
595 0.814382
600 0.553861
Ex : 408
200 0.169287
205 0.181844
210 0.160772
215 0.134076
220 0.13202
225 0.138611
230 0.165355
235 0.12457
240 0.148539
245 0.133442
250 0.130525
255 0.181665
260 0.135488
265 0.0980646
270 0.128583
275 0.172862
280 0.154743
285 0.0933636
290 0.0990855
295 0.160895
300 0.14677
305 0.147102
310 0.150561
315 0.206069
320 0.121133
325 0.141335
330 0.128958
335 0.131651
340 0.15552
345 0.183938
350 0.13378
355 0.166474
360 0.160261
365 0.227648
370 0.185131
375 0.199712
380 0.180763
385 0.324407
390 0.414352
395 8.79714
400 178.818
405 293.864
410 78.7859
415 12.6945
420 5.25082
425 4.25468
430 4.50929
435 5.09148
440 5.53778
445 5.6922
450 6.24619
455 8.043
460 10.036
465 9.53952
470 9.64815
475 9.5543
480 9.12393
485 9.36266
490 9.40506
495 9.18295
500 9.16519
505 8.57573
510 8.13161
515 7.80166
520 7.05858
525 6.64365
530 5.9564
535 5.55021
540 5.03339
545 4.67803
550 4.04693
555 3.71432
560 3.15048
565 3.00346
570 2.39574
575 1.86065
580 1.5018
585 1.20646
590 0.978865
595 0.754089
600 0.61814
Ex : 413
200 0.15866
205 0.162466
210 0.11061
215 0.147356
220 0.169961
225 0.112477
230 0.141626
235 0.133907
240 0.147407
245 0.109198
250 0.105061
255 0.127489
260 0.168908
265 0.288529
270 0.176372
275 0.17065
280 0.134468
285 0.145762
290 0.153902
295 0.207034
300 0.182662
305 0.12246
310 0.120501
315 0.123382
320 0.175123
325 0.141724
330 0.115985
335 0.109012
340 0.144256
345 0.161416
350 0.153615
355 0.185095
360 0.168717
365 0.167042
370 0.188654
375 0.235394
380 0.204652
385 0.235007
390 0.276367
395 0.50772
400 10.5086
405 184.283
410 297.395
415 77.5155
420 11.6009
425 3.80122
430 3.21329
435 3.72564
440 4.07053
445 4.16629
450 4.67047
455 5.24272
460 6.61257
465 9.21766
470 9.31003
475 8.70127
480 8.46034
485 8.15882
490 8.24911
495 8.41023
500 8.15466
505 8.10288
510 7.75502
515 7.20789
520 6.70235
525 6.22493
530 5.63087
535 5.17567
540 4.86617
545 4.33418
550 4.01425
555 3.58821
560 3.07932
565 2.68709
570 2.3614
575 1.82406
580 1.45331
585 1.19452
590 0.93348
595 0.827728
600 0.553596
Ex : 418
200 0.143273
205 0.163677
210 0.123353
215 0.093473
220 0.170042
225 0.151496
230 0.124471
235 0.162718
240 0.0702392
245 0.119559
250 0.212499
255 0.0926632
260 0.164376
265 0.152467
270 0.159129
275 0.152805
280 0.126023
285 0.140493
290 0.113832
295 0.150865
300 0.116801
305 0.132129
310 0.130249
315 0.160285
320 0.182715
325 0.108073
330 0.105613
335 0.128844
340 0.133955
345 0.138497
350 0.138056
355 0.221988
360 0.171136
365 0.20008
370 0.151367
375 0.174933
380 0.25903
385 0.287426
390 0.241466
395 0.289794
400 0.543479
405 10.093
410 182.648
415 299.761
420 80.0081
425 10.9045
430 2.97822
435 2.31193
440 2.77612
445 3.05999
450 3.20603
455 3.8943
460 4.48046
465 5.73076
470 7.87621
475 8.65221
480 8.04467
485 7.72062
490 7.56856
495 7.49831
500 7.36666
505 7.23821
510 7.0234
515 6.79471
520 6.3233
525 5.80219
530 5.40674
535 5.01161
540 4.56306
545 4.12792
550 3.63574
555 3.40653
560 2.86666
565 2.49038
570 2.19513
575 1.77833
580 1.42669
585 1.13301
590 0.92989
595 0.733321
600 0.529466
Ex : 423
200 0.0968564
205 0.152906
210 0.16999
215 0.228157
220 0.104248
225 0.145204
230 0.144202
235 0.110845
240 0.13028
245 0.138634
250 0.136673
255 0.115735
260 0.120897
265 0.144307
270 0.138364
275 0.133466
280 0.141293
285 0.141352
290 0.130923
295 0.144444
300 0.129236
305 0.167814
310 0.165318
315 0.123555
320 0.104194
325 0.14842
330 0.141576
335 0.156001
340 0.115685
345 0.138442
350 0.165601
355 0.162193
360 0.158724
365 0.175948
370 0.148666
375 0.160857
380 0.144577
385 0.234241
390 0.190452
395 0.273116
400 0.342559
405 0.476532
410 10.0847
415 190.248
420 297.758
425 75.5766
430 9.96263
435 2.44463
440 1.86102
445 2.28668
450 2.80178
455 3.15925
460 3.52008
465 4.45516
470 5.02879
475 6.78493
480 8.20767
485 7.51996
490 7.28293
495 6.95767
500 6.38912
505 6.38175
510 6.15388
515 5.84333
520 5.5272
525 5.22163
530 4.67133
535 4.60164
540 4.19503
545 3.88142
550 3.48568
555 2.96947
560 2.64534
565 2.27031
570 1.91886
575 1.66807
580 1.3502
585 0.956648
590 0.794893
595 0.749118
600 0.742659
Ex : 428
200 0.130922
205 0.131873
210 0.109152
215 0.154974
220 0.226129
225 0.121964
230 0.124832
235 0.217414
240 0.180042
245 0.13269
250 0.148674
255 0.175386
260 0.180152
265 0.167169
270 0.136291
275 0.150501
280 0.164358
285 0.196368
290 0.146454
295 0.143931
300 0.127347
305 0.162992
310 0.108038
315 0.170716
320 0.13933
325 0.163556
330 0.105073
335 0.161809
340 0.136245
345 0.151112
350 0.137664
355 0.208931
360 0.19844
365 0.174805
370 0.142835
375 0.236442
380 0.173815
385 0.164519
390 0.226884
395 0.244647
400 0.301788
405 0.332455
410 0.452168
415 10.8819
420 187.857
425 302.223
430 79.1343
435 10.3763
440 2.4108
445 1.71216
450 2.49702
455 2.8709
460 3.33102
465 3.53377
470 4.12265
475 4.70984
480 6.5919
485 7.79736
490 7.33013
495 6.74748
500 6.6343
505 6.33271
510 5.49245
515 5.32824
520 5.10572
525 4.56293
530 4.1888
535 3.96372
540 3.65614
545 3.52669
550 3.0318
555 2.83444
560 2.44188
565 2.12517
570 1.95669
575 1.51499
580 1.26899
585 0.910476
590 0.733324
595 0.650637
600 0.527379
Ex : 433
200 0.201705
205 0.125403
210 0.137318
215 0.146265
220 0.154962
225 0.146728
230 0.171777
235 0.105314
240 0.103271
245 0.145508
250 0.132583
255 0.126066
260 0.157061
265 0.11742
270 0.161712
275 0.114656
280 0.278339
285 0.184905
290 0.117851
295 0.154982
300 0.126083
305 0.135229
310 0.150841
315 0.156116
320 0.17855
325 0.184013
330 0.1114
335 0.113311
340 0.117241
345 0.139942
350 0.144163
355 0.123266
360 0.160721
365 0.20657
370 0.185531
375 0.19509
380 0.150519
385 0.171585
390 0.196581
395 0.274869
400 0.234494
405 0.225496
410 0.347137
415 0.533583
420 12.2166
425 204.404
430 309.872
435 77.8708
440 10.2508
445 2.48952
450 1.9523
455 2.52503
460 2.98455
465 3.18248
470 3.62034
475 4.07244
480 4.5157
485 5.77037
490 7.00319
495 6.61675
500 5.9382
505 5.84313
510 5.2605
515 4.83234
520 4.36997
525 4.22256
530 4.08342
535 3.63295
540 3.41883
545 3.14844
550 2.72417
555 2.47865
560 2.30948
565 2.03964
570 1.75535
575 1.50819
580 1.11448
585 0.83974
590 0.739359
595 0.547268
600 0.820175
Ex : 438
200 0.14766
205 0.166792
210 0.116426
215 0.15312
220 0.14246
225 0.156101
230 0.0937665
235 0.163491
240 0.129636
245 0.114544
250 0.12675
255 0.156725
260 0.0792019
265 0.156855
270 0.122678
275 0.123474
280 0.154704
285 0.131498
290 0.148563
295 0.146204
300 0.180438
305 0.106454
310 0.177078
315 0.0950393
320 0.112649
325 0.141345
330 0.120996
335 0.155369
340 0.151954
345 0.174644
350 0.154594
355 0.168591
360 0.14629
365 0.145963
370 0.194205
375 0.210948
380 0.18242
385 0.168882
390 0.158875
395 0.134
400 0.212402
405 0.246392
410 0.293646
415 0.335868
420 0.484673
425 11.5947
430 203.171
435 331.895
440 82.4657
445 10.8612
450 2.857
455 2.08177
460 2.57793
465 3.07844
470 3.11663
475 3.31372
480 3.79326
485 4.1613
490 4.59798
495 6.18736
500 6.33339
505 5.42915
510 4.9535
515 4.55695
520 4.15325
525 3.80949
530 3.47631
535 3.1964
540 2.96894
545 2.81673
550 2.6117
555 2.30167
560 2.1334
565 1.77856
570 1.34974
575 1.44389
580 0.92129
585 0.759296
590 0.659471
595 0.622929
600 0.755282
Ex : 443
200 0.154368
205 0.195078
210 0.118635
215 0.166422
220 0.177829
225 0.12219
230 0.106461
235 0.179823
240 0.124983
245 0.200848
250 0.21211
255 0.197687
260 0.203268
265 0.148539
270 0.160053
275 0.139463
280 0.142867
285 0.152224
290 0.24597
295 0.158854
300 0.0946853
305 0.113612
310 0.149587
315 0.171086
320 0.132807
325 0.146735
330 0.156448
335 0.140272
340 0.160255
345 0.121715
350 0.146888
355 0.124749
360 0.145215
365 0.212252
370 0.151989
375 0.122761
380 0.136378
385 0.167802
390 0.161494
395 0.130606
400 0.263136
405 0.206216
410 0.244253
415 0.298221
420 0.314817
425 0.41523
430 13.0744
435 217.208
440 329.785
445 82.8885
450 11.0245
455 2.93326
460 2.10493
465 2.60946
470 2.82626
475 2.88988
480 3.16319
485 3.37857
490 3.37846
495 3.97103
500 5.02986
505 5.80367
510 4.68406
515 4.20861
520 4.00541
525 3.44823
530 3.07775
535 2.74144
540 2.49928
545 2.37925
550 2.26618
555 1.91491
560 1.74141
565 1.65914
570 1.36644
575 1.16621
580 0.879548
585 0.646397
590 0.628651
595 0.515919
600 0.408449
Ex : 448
200 0.1659
205 0.112681
210 0.161954
215 0.184318
220 0.162818
225 0.146279
230 0.159313
235 0.124124
240 0.173684
245 0.13638
250 0.122281
255 0.137215
260 0.14789
265 0.151861
270 0.146079
275 0.186167
280 0.155096
285 0.149512
290 0.138924
295 0.105786
300 0.168678
305 0.203437
310 0.14541
315 0.120263
320 0.1734
325 0.158565
330 0.139659
335 0.151022
340 0.150401
345 0.170397
350 0.157456
355 0.149691
360 0.168464
365 0.111302
370 0.170046
375 0.131402
380 0.172701
385 0.133768
390 0.198047
395 0.183852
400 0.240259
405 0.246563
410 0.200742
415 0.266914
420 0.30512
425 0.333785
430 0.489391
435 13.4482
440 232.889
445 353.841
450 88.0319
455 11.5346
460 2.94158
465 2.02164
470 2.27042
475 2.72032
480 2.83367
485 2.76362
490 2.68423
495 2.86066
500 3.03818
505 3.9455
510 4.80812
515 4.29531
520 3.46791
525 3.11094
530 2.98966
535 2.50498
540 2.29232
545 2.15913
550 2.02031
555 1.7204
560 1.6105
565 1.41655
570 1.25374
575 1.185
580 0.915434
585 0.694762
590 0.500182
595 0.534738
600 0.246954
Ex : 453
200 0.183707
205 0.179759
210 0.119458
215 0.137432
220 0.116226
225 0.115416
230 0.159325
235 0.159612
240 0.174771
245 0.180374
250 0.131561
255 0.152345
260 0.118889
265 0.135375
270 0.0936428
275 0.113278
280 0.173672
285 0.116255
290 0.141533
295 0.153705
300 0.116937
305 0.123588
310 0.128514
315 0.169475
320 0.10537
325 0.191123
330 0.132717
335 0.169117
340 0.147481
345 0.125095
350 0.191209
355 0.177889
360 0.124136
365 0.133431
370 0.151017
375 0.202464
380 0.161935
385 0.139987
390 0.156648
395 0.117076
400 0.154156
405 0.177885
410 0.173004
415 0.201254
420 0.276132
425 0.260716
430 0.383748
435 0.577322
440 14.0328
445 255.48
450 367.014
455 86.3639
460 11.4587
465 2.76503
470 1.95178
475 2.10827
480 2.48428
485 2.29554
490 2.37777
495 2.33668
500 2.48646
505 2.44307
510 2.9157
515 4.1006
520 3.98961
525 2.95377
530 2.70021
535 2.47387
540 2.1033
545 1.71411
550 1.73031
555 1.52467
560 1.42628
565 1.24598
570 1.25341
575 1.02044
580 0.846212
585 0.651281
590 0.565663
595 0.461403
600 0.301487
Ex : 458
200 0.175021
205 0.1286
210 0.149662
215 0.15531
220 0.118627
225 0.128068
230 0.131216
235 0.198928
240 0.153824
245 0.161269
250 0.15051
255 0.16271
260 0.136077
265 0.125341
270 0.158397
275 0.17146
280 0.137172
285 0.137527
290 0.196682
295 0.0966194
300 0.127005
305 0.121451
310 0.146751
315 0.170617
320 0.189014
325 0.137395
330 0.135835
335 0.135155
340 0.180818
345 0.169048
350 0.138925
355 0.136065
360 0.134113
365 0.169582
370 0.159589
375 0.145956
380 0.147922
385 0.153475
390 0.206389
395 0.172293
400 0.188603
405 0.158767
410 0.171568
415 0.206144
420 0.227567
425 0.25734
430 0.239782
435 0.420654
440 0.615891
445 16.2417
450 264.742
455 399.728
460 97.3478
465 12.6833
470 2.88484
475 1.66452
480 1.77185
485 1.98643
490 2.04638
495 1.88501
500 1.90154
505 1.88651
510 2.00866
515 2.0021
520 3.09218
525 3.62314
530 2.76693
535 2.47878
540 2.34891
545 1.81224
550 1.49691
555 1.48919
560 1.28292
565 1.14871
570 1.04394
575 0.850033
580 0.801858
585 0.722639
590 0.528842
595 0.471052
600 0.386289
Ex : 463
200 0.177733
205 0.131936
210 0.126937
215 0.14364
220 0.138907
225 0.15935
230 0.154887
235 0.125195
240 0.118281
245 0.146649
250 0.113912
255 0.110786
260 0.200918
265 0.15884
270 0.157832
275 0.13057
280 0.101046
285 0.0639398
290 0.126914
295 0.175517
300 0.101835
305 0.14242
310 0.142983
315 0.166226
320 0.133692
325 0.129519
330 0.135644
335 0.21955
340 0.168024
345 0.133829
350 0.143559
355 0.159764
360 0.122296
365 0.166365
370 0.138976
375 0.184536
380 0.164503
385 0.141126
390 0.163241
395 0.135035
400 0.152632
405 0.180079
410 0.154144
415 0.215184
420 0.154931
425 0.278447
430 0.201892
435 0.254359
440 0.42661
445 0.553741
450 15.7222
455 275.917
460 432.555
465 104.415
470 13.2105
475 2.83602
480 1.62528
485 1.57358
490 1.97426
495 1.87471
500 1.71645
505 1.60565
510 1.62997
515 1.64527
520 1.65702
525 2.35929
530 3.4006
535 2.84522
540 2.05752
545 1.85667
550 1.70452
555 1.4061
560 1.16772
565 1.17084
570 1.03481
575 0.920111
580 0.70463
585 0.598488
590 0.48285
595 0.436855
600 0.411759
Ex : 468
200 0.108644
205 0.141826
210 0.154459
215 0.131595
220 0.119296
225 0.156061
230 0.11856
235 0.115402
240 0.140676
245 0.150499
250 0.124203
255 0.140009
260 0.13612
265 0.166789
270 0.157793
275 0.138726
280 0.176125
285 0.108703
290 0.144836
295 0.195031
300 0.158919
305 0.097182
310 0.186835
315 0.140079
320 0.155837
325 0.149843
330 0.0942138
335 0.146234
340 0.148072
345 0.127256
350 0.123872
355 0.163468
360 0.151206
365 0.151225
370 0.119595
375 0.119608
380 0.129885
385 0.136129
390 0.135309
395 0.130682
400 0.160705
405 0.145883
410 0.158114
415 0.181717
420 0.166445
425 0.20079
430 0.176203
435 0.267607
440 0.232843
445 0.303363
450 0.593779
455 17.8117
460 286.193
465 454.651
470 110.677
475 13.8752
480 2.81328
485 1.47317
490 1.44278
495 1.53742
500 1.78262
505 1.56854
510 1.43169
515 1.57031
520 1.45559
525 1.54677
530 1.97158
535 2.84863
540 3.16253
545 2.07648
550 1.67656
555 1.64145
560 1.40766
565 1.12818
570 0.990639
575 0.776144
580 0.653903
585 0.559327
590 0.487199
595 0.456463
600 0.47198
Ex : 473
200 0.108737
205 0.137476
210 0.156355
215 0.202103
220 0.144318
225 0.0983255
230 0.148473
235 0.108445
240 0.138502
245 0.142808
250 0.124121
255 0.142193
260 0.10612
265 0.146653
270 0.110448
275 0.152939
280 0.153214
285 0.210861
290 0.127086
295 0.144147
300 0.156246
305 0.16872
310 0.164408
315 0.164709
320 0.105979
325 0.142309
330 0.113735
335 0.189703
340 0.158899
345 0.152797
350 0.133958
355 0.12042
360 0.115223
365 0.181974
370 0.151474
375 0.189459
380 0.130591
385 0.167038
390 0.186838
395 0.132985
400 0.156144
405 0.170438
410 0.158859
415 0.172915
420 0.149527
425 0.206335
430 0.19383
435 0.201506
440 0.207855
445 0.23104
450 0.376325
455 0.594177
460 20.4967
465 317.919
470 447.905
475 104.782
480 13.0068
485 2.73175
490 1.49575
495 1.33157
500 1.57277
505 1.55604
510 1.53017
515 1.47814
520 1.38224
525 1.53406
530 1.56323
535 1.58532
540 2.35259
545 2.81074
550 2.24757
555 1.70355
560 1.63874
565 1.32686
570 1.13094
575 0.842812
580 0.801938
585 0.57359
590 0.487662
595 0.423031
600 0.393912
Ex : 478
200 0.173441
205 0.158816
210 0.167516
215 0.135819
220 0.163144
225 0.168174
230 0.195393
235 0.16102
240 0.186231
245 0.166293
250 0.138846
255 0.16003
260 0.200166
265 0.147111
270 0.17542
275 0.171749
280 0.16255
285 0.152146
290 0.204248
295 0.12973
300 0.153857
305 0.174767
310 0.150685
315 0.11422
320 0.13793
325 0.157334
330 0.217753
335 0.173309
340 0.237761
345 0.173135
350 0.145919
355 0.145865
360 0.159609
365 0.168122
370 0.129562
375 0.212963
380 0.189537
385 0.186241
390 0.129663
395 0.164299
400 0.241028
405 0.293015
410 0.205796
415 0.173622
420 0.189443
425 0.198202
430 0.198401
435 0.21961
440 0.245005
445 0.276889
450 0.394324
455 0.51837
460 0.763117
465 22.798
470 339.125
475 470.691
480 113.679
485 14.3269
490 2.90173
495 1.5074
500 1.3332
505 1.512
510 1.47613
515 1.60934
520 1.47663
525 1.38357
530 1.41464
535 1.43487
540 1.37359
545 1.99734
550 2.65956
555 2.21787
560 1.64246
565 1.43677
570 1.29419
575 0.967799
580 0.756375
585 0.613359
590 0.55504
595 0.439538
600 0.380414
Ex : 483
200 0.24082
205 0.202421
210 0.224351
215 0.151899
220 0.151746
225 0.167803
230 0.130111
235 0.195143
240 0.171778
245 0.113669
250 0.129572
255 0.146311
260 0.190017
265 0.165932
270 0.190769
275 0.191296
280 0.138974
285 0.185496
290 0.177105
295 0.183525
300 0.192151
305 0.172394
310 0.126006
315 0.143973
320 0.151257
325 0.167098
330 0.119899
335 0.17724
340 0.235736
345 0.189157
350 0.153426
355 0.176732
360 0.144691
365 0.152442
370 0.192795
375 0.18414
380 0.221864
385 0.15645
390 0.176135
395 0.151322
400 0.17938
405 0.152849
410 0.22331
415 0.169824
420 0.205871
425 0.234996
430 0.241425
435 0.215035
440 0.220777
445 0.24051
450 0.294768
455 0.361694
460 0.49372
465 0.76619
470 18.3843
475 336.146
480 517.368
485 123.887
490 15.4845
495 2.91981
500 1.33127
505 1.25927
510 1.42246
515 1.50309
520 1.64577
525 1.45109
530 1.38928
535 1.38331
540 1.21787
545 1.32029
550 1.5457
555 2.17037
560 2.2513
565 1.59641
570 1.19899
575 1.12535
580 1.02379
585 0.676705
590 0.542354
595 0.466031
600 0.670596
Ex : 488
200 0.22748
205 0.226741
210 0.19845
215 0.228014
220 0.236668
225 0.226232
230 0.148254
235 0.193786
240 0.209002
245 0.182521
250 0.193124
255 0.233044
260 0.184986
265 0.243879
270 0.158994
275 0.145589
280 0.176314
285 0.21726
290 0.189729
295 0.169073
300 0.202859
305 0.160571
310 0.16228
315 0.227076
320 0.240061
325 0.202919
330 0.158394
335 0.153147
340 0.192388
345 0.175708
350 0.156116
355 0.180806
360 0.169483
365 0.18366
370 0.151978
375 0.167228
380 0.184214
385 0.168474
390 0.190671
395 0.220061
400 0.207084
405 0.19179
410 0.135601
415 0.176065
420 0.189381
425 0.205617
430 0.192651
435 0.170379
440 0.196305
445 0.257709
450 0.277881
455 0.308393
460 0.363582
465 0.546932
470 0.764676
475 23.3408
480 372.348
485 521.958
490 123.126
495 15.3109
500 2.96473
505 1.57503
510 1.22173
515 1.33438
520 1.60429
525 1.67996
530 1.54526
535 1.39128
540 1.47452
545 1.28846
550 1.30607
555 1.33443
560 1.82185
565 2.26027
570 1.70563
575 1.16505
580 0.911779
585 0.754475
590 0.56834
595 0.52984
600 0.382858
Ex : 493
200 0.161791
205 0.209093
210 0.183018
215 0.212486
220 0.154306
225 0.138606
230 0.207815
235 0.149504
240 0.202062
245 0.201985
250 0.247732
255 0.152796
260 0.181595
265 0.222943
270 0.223786
275 0.225687
280 0.195747
285 0.222546
290 0.159333
295 0.153046
300 0.213514
305 0.190039
310 0.245544
315 0.164262
320 0.170897
325 0.184399
330 0.191769
335 0.177971
340 0.19217
345 0.19329
350 0.178894
355 0.195294
360 0.223546
365 0.172181
370 0.184226
375 0.221463
380 0.208993
385 0.27119
390 0.200113
395 0.194696
400 0.19573
405 0.209812
410 0.202605
415 0.173241
420 0.19726
425 0.202613
430 0.334897
435 0.22904
440 0.230929
445 0.245752
450 0.253164
455 0.272625
460 0.387201
465 0.457827
470 0.528505
475 0.67911
480 21.0556
485 373.179
490 565.651
495 128.863
500 15.9615
505 2.9729
510 1.48151
515 1.23154
520 1.35767
525 1.57664
530 1.62376
535 1.45413
540 1.29418
545 1.11294
550 1.25972
555 1.15816
560 1.14851
565 1.28091
570 1.87091
575 1.58089
580 1.11842
585 0.771944
590 0.664982
595 0.568455
600 0.351205
Ex : 498
200 0.172036
205 0.136584
210 0.152848
215 0.170954
220 0.1843
225 0.183832
230 0.233605
235 0.210147
240 0.187213
245 0.23997
250 0.146959
255 0.209087
260 0.2039
265 0.169678
270 0.258876
275 0.220059
280 0.224637
285 0.164426
290 0.197761
295 0.212488
300 0.156317
305 0.165164
310 0.218317
315 0.17464
320 0.205646
325 0.328054
330 0.219803
335 0.188964
340 0.192233
345 0.196439
350 0.198585
355 0.239003
360 0.253359
365 0.213232
370 0.201151
375 0.2395
380 0.225504
385 0.257705
390 0.182013
395 0.202999
400 0.243234
405 0.183833
410 0.239921
415 0.233296
420 0.315634
425 0.236412
430 0.216438
435 0.268716
440 0.215921
445 0.197547
450 0.251232
455 0.306882
460 0.282012
465 0.363147
470 0.444072
475 0.538651
480 0.804426
485 25.0838
490 399.353
495 551.525
500 127.481
505 15.8267
510 2.87604
515 1.50685
520 1.18372
525 1.24197
530 1.55029
535 1.49987
540 1.41905
545 1.24444
550 1.02374
555 1.07685
560 1.03884
565 0.931635
570 1.20572
575 1.51683
580 1.51659
585 0.986102
590 0.678978
595 0.545828
600 0.45925
Ex : 503
200 0.231123
205 0.273889
210 0.212622
215 0.199308
220 0.224175
225 0.180003
230 0.25688
235 0.202445
240 0.187413
245 0.199558
250 0.200268
255 0.235306
260 0.221168
265 0.16742
270 0.149269
275 0.233136
280 0.198769
285 0.253904
290 0.250024
295 0.190097
300 0.169582
305 0.206374
310 0.209244
315 0.173844
320 0.414704
325 0.247181
330 0.217403
335 0.189228
340 0.21958
345 0.255542
350 0.358565
355 0.203789
360 0.188364
365 0.225958
370 0.244384
375 0.226876
380 0.392806
385 0.225835
390 0.233196
395 0.213402
400 0.257785
405 0.200714
410 0.242123
415 0.2233
420 0.229452
425 0.303365
430 0.262792
435 0.198195
440 0.225822
445 0.271767
450 0.340373
455 0.270062
460 0.320227
465 0.387847
470 0.391729
475 0.469321
480 0.551366
485 0.853813
490 24.8974
495 414.344
500 595.745
505 137.189
510 17.0431
515 3.0799
520 1.66237
525 1.35328
530 1.36058
535 1.33871
540 1.43612
545 1.23874
550 1.12969
555 1.05524
560 1.04895
565 0.855099
570 0.907745
575 0.952522
580 1.04574
585 1.27415
590 1.02783
595 0.560438
600 0.179872
Ex : 508
200 0.233633
205 0.228924
210 0.191
215 0.195944
220 0.205914
225 0.207051
230 0.279088
235 0.275089
240 0.26559
245 0.239767
250 0.177827
255 0.24087
260 0.213193
265 0.231553
270 0.239961
275 0.290848
280 0.238309
285 0.160619
290 0.236831
295 0.222534
300 0.162662
305 0.256655
310 0.24166
315 0.249003
320 0.295322
325 0.25342
330 0.202821
335 0.175425
340 0.163261
345 0.214925
350 0.195828
355 0.233763
360 0.309912
365 0.203024
370 0.260141
375 0.176869
380 0.239167
385 0.227029
390 0.257837
395 0.329396
400 0.203227
405 0.253991
410 0.240282
415 0.248677
420 0.239258
425 0.241368
430 0.23932
435 0.273127
440 0.387616
445 0.360187
450 0.283989
455 0.265026
460 0.326717
465 0.367013
470 0.313539
475 0.235383
480 0.42795
485 0.606
490 0.860752
495 28.0027
500 416.871
505 594.03
510 142.741
515 17.469
520 3.35603
525 1.65679
530 1.34065
535 1.3509
540 1.5174
545 1.30261
550 1.19589
555 1.05877
560 0.959696
565 0.869213
570 0.687041
575 0.655755
580 0.729647
585 0.755603
590 0.937094
595 0.917019
600 0.599822
Ex : 513
200 0.192729
205 0.19445
210 0.315081
215 0.247381
220 0.206605
225 0.163016
230 0.238597
235 0.251112
240 0.251146
245 0.272988
250 0.254688
255 0.184179
260 0.230539
265 0.24714
270 0.227544
275 0.262851
280 0.240964
285 0.256077
290 0.215474
295 0.287129
300 0.272248
305 0.296852
310 0.258389
315 0.215789
320 0.205924
325 0.248457
330 0.206284
335 0.393231
340 0.245715
345 0.252481
350 0.248925
355 0.241958
360 0.236834
365 0.221121
370 0.236749
375 0.284489
380 0.248902
385 0.259495
390 0.192038
395 0.30178
400 0.302543
405 0.307411
410 0.302443
415 0.265262
420 0.225906
425 0.281518
430 0.333579
435 0.262569
440 0.346805
445 0.244042
450 0.296659
455 0.352961
460 0.299166
465 0.283758
470 0.322849
475 0.417604
480 0.48234
485 0.519955
490 0.569921
495 0.886931
500 25.6672
505 426.672
510 615.992
515 151.248
520 18.5311
525 3.38891
530 1.67661
535 1.2736
540 1.15483
545 1.30842
550 1.23874
555 1.23694
560 1.05781
565 0.881421
570 0.893133
575 0.693461
580 0.548625
585 0.579326
590 0.572597
595 0.705097
600 1.35067
Ex : 518
200 0.173428
205 0.241312
210 0.226054
215 0.207016
220 0.234963
225 0.153221
230 0.141038
235 0.190009
240 0.321501
245 0.237098
250 0.265827
255 0.211923
260 0.235465
265 0.266962
270 0.278561
275 0.180752
280 0.207458
285 0.206396
290 0.19319
295 0.221928
300 0.17309
305 0.200686
310 0.237207
315 0.221541
320 0.217204
325 0.214632
330 0.22272
335 0.271859
340 0.25152
345 0.215256
350 0.342456
355 0.219004
360 0.198695
365 0.244544
370 0.338547
375 0.257488
380 0.237736
385 0.235902
390 0.30657
395 0.266917
400 0.302147
405 0.409785
410 0.303218
415 0.240131
420 0.232517
425 0.234275
430 0.320065
435 0.26869
440 0.20933
445 0.276571
450 0.293264
455 0.328638
460 0.421514
465 0.362511
470 0.366888
475 0.351199
480 0.445921
485 0.398866
490 0.499928
495 0.655263
500 0.911304
505 25.7418
510 412.889
515 627.307
520 154.244
525 19.1853
530 3.32036
535 1.53426
540 1.23629
545 1.11892
550 1.03851
555 1.12262
560 1.04459
565 1.05719
570 0.917299
575 0.715293
580 0.675658
585 0.659863
590 0.472718
595 0.437819
600 1.05051
Ex : 523
200 0.254861
205 0.215181
210 0.247786
215 0.233955
220 0.229041
225 0.213506
230 0.257224
235 0.237802
240 0.233954
245 0.256329
250 0.238007
255 0.199974
260 0.227531
265 0.202757
270 0.188773
275 0.313231
280 0.236988
285 0.252697
290 0.251957
295 0.21689
300 0.284472
305 0.2984
310 0.286095
315 0.282208
320 0.197072
325 0.21936
330 0.252426
335 0.233346
340 0.224175
345 0.264132
350 0.303082
355 0.229195
360 0.311011
365 0.294891
370 0.259647
375 0.238477
380 0.284722
385 0.239593
390 0.212922
395 0.307032
400 0.18325
405 0.251189
410 0.224353
415 0.264124
420 0.274093
425 0.229171
430 0.271588
435 0.320735
440 0.355988
445 0.282059
450 0.25189
455 0.348844
460 0.375401
465 0.325479
470 0.315891
475 0.304945
480 0.345731
485 0.358961
490 0.453321
495 0.455016
500 0.638042
505 0.776262
510 24.1902
515 415.926
520 628.852
525 162.522
530 19.9025
535 3.53259
540 1.50824
545 1.11084
550 0.971664
555 0.917326
560 1.09592
565 0.968416
570 0.936411
575 0.639393
580 0.611688
585 0.509054
590 0.631311
595 0.418557
600 0.283369
Ex : 528
200 0.294438
205 0.210122
210 0.224926
215 0.298698
220 0.223342
225 0.230498
230 0.284947
235 0.258207
240 0.194776
245 0.227547
250 0.215972
255 0.180306
260 0.221392
265 0.18962
270 0.278651
275 0.328408
280 0.279877
285 0.240501
290 0.271534
295 0.241087
300 0.2278
305 0.272956
310 0.32657
315 0.254328
320 0.211034
325 0.232102
330 0.285198
335 0.226365
340 0.243461
345 0.198389
350 0.218532
355 0.248612
360 0.312179
365 0.267523
370 0.257922
375 0.324391
380 0.227842
385 0.224691
390 0.291149
395 0.257595
400 0.194161
405 0.25017
410 0.267629
415 0.249573
420 0.261116
425 0.315224
430 0.40515
435 0.279619
440 0.212646
445 0.276125
450 0.29461
455 0.306859
460 0.306781
465 0.33855
470 0.338588
475 0.314284
480 0.38934
485 0.399453
490 0.356113
495 0.424611
500 0.432549
505 0.564262
510 0.993594
515 22.9271
520 407.801
525 627.012
530 159.769
535 19.583
540 3.35949
545 1.39475
550 1.11764
555 0.957091
560 0.848661
565 0.829434
570 0.866636
575 0.72908
580 0.602387
585 0.587749
590 0.438856
595 0.431928
600 0.153145
Ex : 533
200 0.198386
205 0.210228
210 0.248113
215 0.206518
220 0.356746
225 0.211997
230 0.256127
235 0.196417
240 0.235363
245 0.250816
250 0.288621
255 0.222181
260 0.257384
265 0.264099
270 0.207939
275 0.240887
280 0.243776
285 0.240048
290 0.177409
295 0.252305
300 0.303354
305 0.190655
310 0.222298
315 0.250056
320 0.195056
325 0.185732
330 0.214027
335 0.345749
340 0.282437
345 0.295393
350 0.243752
355 0.235306
360 0.314927
365 0.256775
370 0.221543
375 0.303203
380 0.267184
385 0.191694
390 0.250382
395 0.255713
400 0.232361
405 0.236822
410 0.255593
415 0.272903
420 0.270832
425 0.286637
430 0.258271
435 0.262308
440 0.231507
445 0.283386
450 0.400729
455 0.339255
460 0.350684
465 0.320545
470 0.276226
475 0.238341
480 0.297873
485 0.341426
490 0.433153
495 0.342916
500 0.394973
505 0.499564
510 0.622343
515 0.85672
520 23.0783
525 389.908
530 622.383
535 161.13
540 19.6845
545 3.38974
550 1.2222
555 0.910522
560 0.750342
565 0.741498
570 0.803884
575 0.775246
580 0.587856
585 0.590491
590 0.498186
595 0.464582
600 0.0805616
Ex : 538
200 0.182659
205 0.372261
210 0.236729
215 0.282457
220 0.244392
225 0.171179
230 0.296382
235 0.302708
240 0.353029
245 0.21183
250 0.257413
255 0.246713
260 0.305644
265 0.306367
270 0.208436
275 0.246354
280 0.203647
285 0.238182
290 0.275091
295 0.235038
300 0.334069
305 0.268969
310 0.247892
315 0.223876
320 0.270192
325 0.252499
330 0.257819
335 0.184845
340 0.346064
345 0.237013
350 0.230084
355 0.212401
360 0.191221
365 0.242027
370 0.206207
375 0.276403
380 0.306213
385 0.324451
390 0.409145
395 0.276784
400 0.303821
405 0.29339
410 0.232694
415 0.365811
420 0.21756
425 0.252304
430 0.215652
435 0.270422
440 0.276992
445 0.287721
450 0.262668
455 0.278041
460 0.356318
465 0.237137
470 0.301765
475 0.268118
480 0.417888
485 0.319861
490 0.233944
495 0.384721
500 0.392651
505 0.42353
510 0.596088
515 0.632913
520 0.860271
525 19.776
530 378.193
535 622.093
540 167.139
545 20.4701
550 3.32909
555 1.29305
560 1.07465
565 0.728737
570 0.627435
575 0.691524
580 0.588437
585 0.494153
590 0.496291
595 0.443494
600 0.426141
Ex : 543
200 0.21481
205 0.261259
210 0.29051
215 0.2567
220 0.31135
225 0.203595
230 0.229906
235 0.23793
240 0.292268
245 0.316573
250 0.257399
255 0.305135
260 0.464202
265 0.315047
270 0.271423
275 0.275171
280 0.313549
285 0.275829
290 0.336248
295 0.274974
300 0.283703
305 0.229546
310 0.325763
315 0.227855
320 0.274925
325 0.305297
330 0.244393
335 0.231368
340 0.214375
345 0.285404
350 0.281693
355 0.228666
360 0.213837
365 0.303267
370 0.370677
375 0.330415
380 0.245017
385 0.32426
390 0.276849
395 0.300804
400 0.328458
405 0.316701
410 0.225107
415 0.279454
420 0.302384
425 0.242618
430 0.301964
435 0.258375
440 0.325975
445 0.268533
450 0.272101
455 0.337139
460 0.332119
465 0.283188
470 0.289315
475 0.284289
480 0.245026
485 0.364657
490 0.299077
495 0.37752
500 0.320962
505 0.398442
510 0.489261
515 0.588851
520 0.672261
525 1.00744
530 18.776
535 371.259
540 636.474
545 173.727
550 21.2472
555 3.29924
560 1.00946
565 0.934892
570 0.623623
575 0.558484
580 0.488898
585 0.627236
590 0.513424
595 0.517721
600 0.314929
Ex : 548
200 0.24492
205 0.230425
210 0.288782
215 0.252667
220 0.291282
225 0.262917
230 0.281445
235 0.355958
240 0.257737
245 0.308002
250 0.332896
255 0.217123
260 0.364017
265 0.204309
270 0.263015
275 0.298816
280 0.221005
285 0.348824
290 0.339976
295 0.224733
300 0.291855
305 0.238259
310 0.270145
315 0.350342
320 0.234818
325 0.287892
330 0.22163
335 0.272727
340 0.267179
345 0.241376
350 0.242494
355 0.304842
360 0.292103
365 0.362743
370 0.347925
375 0.339471
380 0.237129
385 0.300592
390 0.377362
395 0.190905
400 0.277169
405 0.24699
410 0.201663
415 0.175597
420 0.276032
425 0.270019
430 0.359363
435 0.333927
440 0.269607
445 0.311406
450 0.303269
455 0.319009
460 0.35746
465 0.379311
470 0.344822
475 0.394662
480 0.285629
485 0.298884
490 0.294376
495 0.268617
500 0.282182
505 0.338535
510 0.466167
515 0.427502
520 0.553953
525 0.650508
530 0.810194
535 20.4869
540 374.283
545 621.467
550 171.528
555 20.7685
560 3.33511
565 1.15212
570 0.847587
575 0.530852
580 0.544362
585 0.488779
590 0.492247
595 0.392657
600 0.407221
Ex : 553
200 0.278056
205 0.30712
210 0.322114
215 0.229833
220 0.291072
225 0.259597
230 0.26629
235 0.304752
240 0.2296
245 0.238263
250 0.196772
255 0.192591
260 0.364392
265 0.26199
270 0.261801
275 0.318457
280 0.249866
285 0.261652
290 0.313187
295 0.313307
300 0.285423
305 0.224418
310 0.319149
315 0.304254
320 0.285447
325 0.28026
330 0.351307
335 0.370651
340 0.249205
345 0.252738
350 0.364393
355 0.269227
360 0.262853
365 0.309981
370 0.375422
375 0.3046
380 0.258947
385 0.278922
390 0.222948
395 0.369358
400 0.350038
405 0.30216
410 0.267027
415 0.282681
420 0.22332
425 0.258709
430 0.27054
435 0.311428
440 0.286632
445 0.262891
450 0.240124
455 0.272019
460 0.256556
465 0.348862
470 0.386437
475 0.345339
480 0.337806
485 0.34688
490 0.445625
495 0.359025
500 0.329962
505 0.387127
510 0.360147
515 0.477976
520 0.425442
525 0.500204
530 0.869369
535 0.798617
540 17.5226
545 353.868
550 615.661
555 175.824
560 21.4411
565 3.28608
570 0.98468
575 0.712814
580 0.369846
585 0.56298
590 0.473025
595 0.43795
600 0.169034
Ex : 558
200 0.305456
205 0.270868
210 0.415662
215 0.284376
220 0.289563
225 0.323556
230 0.277709
235 0.3708
240 0.235615
245 0.332794
250 0.31586
255 0.365607
260 0.333414
265 0.282686
270 0.440053
275 0.357836
280 0.267283
285 0.255134
290 0.259498
295 0.24641
300 0.342132
305 0.239015
310 0.263196
315 0.305037
320 0.277045
325 0.2783
330 0.356266
335 0.337784
340 0.23733
345 0.471846
350 0.424681
355 0.28345
360 0.274344
365 0.240056
370 0.313928
375 0.220066
380 0.188331
385 0.32311
390 0.253069
395 0.261707
400 0.337444
405 0.327108
410 0.384639
415 0.421801
420 0.369743
425 0.282984
430 0.267117
435 0.266941
440 0.241341
445 0.350043
450 0.26774
455 0.294049
460 0.355543
465 0.369335
470 0.473415
475 0.356286
480 0.362566
485 0.395817
490 0.317622
495 0.344529
500 0.313198
505 0.315156
510 0.336123
515 0.291322
520 0.294623
525 0.450489
530 0.70593
535 0.660675
540 0.892117
545 16.9191
550 340.262
555 609.589
560 171.789
565 20.7933
570 3.08624
575 1.07701
580 0.788234
585 0.593097
590 0.427862
595 0.445464
600 0.587785
Ex : 563
200 0.322174
205 0.281934
210 0.393188
215 0.285063
220 0.24109
225 0.30503
230 0.33748
235 0.291605
240 0.310064
245 0.28367
250 0.288618
255 0.264533
260 0.255658
265 0.323568
270 0.283047
275 0.306647
280 0.309212
285 0.306409
290 0.240495
295 0.226184
300 0.267081
305 0.314365
310 0.322459
315 0.238611
320 0.217519
325 0.271923
330 0.228084
335 0.271154
340 0.31023
345 0.296263
350 0.255
355 0.292788
360 0.278559
365 0.374596
370 0.280724
375 0.227572
380 0.311619
385 0.417959
390 0.43469
395 0.37879
400 0.255957
405 0.411357
410 0.354607
415 0.29583
420 0.321799
425 0.296476
430 0.309023
435 0.233085
440 0.341601
445 0.347227
450 0.265769
455 0.305969
460 0.335878
465 0.390689
470 0.326505
475 0.354808
480 0.340567
485 0.324078
490 0.326011
495 0.315103
500 0.374409
505 0.347429
510 0.332832
515 0.417734
520 0.423962
525 0.443576
530 0.534165
535 0.584218
540 0.780811
545 0.83585
550 15.5794
555 323.747
560 577.942
565 169.205
570 20.6219
575 3.09509
580 0.944946
585 0.768438
590 0.521057
595 0.457477
600 0.373308
Ex : 568
200 0.315741
205 0.327869
210 0.339219
215 0.270579
220 0.365087
225 0.327549
230 0.311259
235 0.241292
240 0.353304
245 0.31165
250 0.389099
255 0.260139
260 0.326407
265 0.322635
270 0.356593
275 0.325571
280 0.283579
285 0.317369
290 0.308762
295 0.301296
300 0.288927
305 0.402164
310 0.376246
315 0.29658
320 0.262325
325 0.323573
330 0.31927
335 0.3731
340 0.339632
345 0.272455
350 0.456442
355 0.381083
360 0.395179
365 0.283112
370 0.361359
375 0.415445
380 0.330282
385 0.377045
390 0.435323
395 0.38405
400 0.303511
405 0.254073
410 0.276586
415 0.323335
420 0.368422
425 0.350424
430 0.333853
435 0.314352
440 0.272563
445 0.283404
450 0.294698
455 0.390445
460 0.369118
465 0.324827
470 0.341755
475 0.424539
480 0.330774
485 0.459474
490 0.343862
495 0.310473
500 0.291073
505 0.24895
510 0.370503
515 0.389722
520 0.387606
525 0.498057
530 0.401105
535 0.478524
540 0.584058
545 0.574092
550 0.861874
555 12.4662
560 292.597
565 566.575
570 172.435
575 20.876
580 2.96202
585 0.972332
590 0.645619
595 0.403839
600 0.520914
Ex : 573
200 0.34964
205 0.322345
210 0.288318
215 0.254255
220 0.272065
225 0.290857
230 0.257112
235 0.254032
240 0.273736
245 0.339796
250 0.382905
255 0.281273
260 0.368748
265 0.298359
270 0.305433
275 0.276257
280 0.33607
285 0.309288
290 0.410112
295 0.325259
300 0.335399
305 0.296046
310 0.230763
315 0.323853
320 0.338844
325 0.303118
330 0.304214
335 0.260794
340 0.226085
345 0.296114
350 0.312731
355 0.302219
360 0.354367
365 0.298546
370 0.302613
375 0.215084
380 0.359955
385 0.323018
390 0.327354
395 0.400729
400 0.254928
405 0.410694
410 0.327002
415 0.359138
420 0.262209
425 0.351031
430 0.347002
435 0.266979
440 0.276011
445 0.426342
450 0.28869
455 0.387641
460 0.394269
465 0.331343
470 0.306596
475 0.372885
480 0.373181
485 0.29972
490 0.368814
495 0.398578
500 0.347281
505 0.361674
510 0.359737
515 0.343064
520 0.340217
525 0.361973
530 0.346837
535 0.535116
540 0.444121
545 0.496036
550 0.586068
555 0.785783
560 11.1131
565 258.124
570 523.776
575 163.596
580 19.828
585 2.83071
590 0.777576
595 0.555947
600 0.0984781
Ex : 578
200 0.353472
205 0.304202
210 0.291781
215 0.268099
220 0.301273
225 0.201804
230 0.282724
235 0.3095
240 0.26703
245 0.211515
250 0.334487
255 0.296859
260 0.313703
265 0.366928
270 0.333104
275 0.31274
280 0.289138
285 0.322673
290 0.434341
295 0.273068
300 0.264857
305 0.280387
310 0.228825
315 0.270708
320 0.268873
325 0.308011
330 0.477569
335 0.338145
340 0.42623
345 0.353858
350 0.26486
355 0.359789
360 0.264544
365 0.292475
370 0.315723
375 0.384224
380 0.374859
385 0.407177
390 0.384526
395 0.337758
400 0.434531
405 0.261941
410 0.379076
415 0.36862
420 0.245715
425 0.402516
430 0.295842
435 0.400386
440 0.434927
445 0.414018
450 0.37809
455 0.345575
460 0.317506
465 0.341012
470 0.319787
475 0.279394
480 0.364354
485 0.290833
490 0.332226
495 0.339901
500 0.462811
505 0.322506
510 0.38815
515 0.373652
520 0.362236
525 0.40357
530 0.456928
535 0.482145
540 0.332174
545 0.513275
550 0.582932
555 0.653811
560 0.726336
565 10.0049
570 236.539
575 456.427
580 141.253
585 17.2255
590 2.56887
595 0.690415
600 0.485741
Ex : 583
200 0.23797
205 0.308662
210 0.288601
215 0.319828
220 0.29188
225 0.396729
230 0.366777
235 0.278543
240 0.261317
245 0.325779
250 0.412643
255 0.396902
260 0.320532
265 0.365616
270 0.280993
275 0.261869
280 0.292258
285 0.287661
290 0.311429
295 0.31274
300 0.35244
305 0.250769
310 0.278526
315 0.258161
320 0.318856
325 0.276709
330 0.305637
335 0.365697
340 0.38171
345 0.245463
350 0.299858
355 0.287981
360 0.329409
365 0.276067
370 0.244583
375 0.319291
380 0.340277
385 0.341009
390 0.441652
395 0.300149
400 0.353325
405 0.418972
410 0.298526
415 0.29536
420 0.398015
425 0.275989
430 0.394269
435 0.316438
440 0.394869
445 0.295105
450 0.324896
455 0.32501
460 0.360895
465 0.298387
470 0.347134
475 0.369339
480 0.389337
485 0.244587
490 0.425481
495 0.406194
500 0.366775
505 0.33286
510 0.373015
515 0.313306
520 0.313954
525 0.410756
530 0.469877
535 0.502044
540 0.42237
545 0.322192
550 0.553691
555 0.502541
560 0.575799
565 0.695624
570 8.28556
575 208.224
580 393.985
585 116.31
590 14.271
595 2.17674
600 0.247705
Ex : 588
200 0.529362
205 0.323151
210 0.31098
215 0.294291
220 0.414313
225 0.342905
230 0.355172
235 0.372057
240 0.414195
245 0.400883
250 0.276663
255 0.330396
260 0.29106
265 0.230565
270 0.215178
275 0.376247
280 0.305638
285 0.369595
290 0.280405
295 0.204917
300 0.272019
305 0.266696
310 0.325699
315 0.373873
320 0.390325
325 0.32195
330 0.339157
335 0.414278
340 0.454025
345 0.411935
350 0.393373
355 0.31469
360 0.304164
365 0.250939
370 0.392032
375 0.420244
380 0.391458
385 0.43095
390 0.467898
395 0.337352
400 0.362988
405 0.265685
410 0.380456
415 0.216911
420 0.337976
425 0.310809
430 0.335103
435 0.301373
440 0.236694
445 0.33173
450 0.446131
455 0.368335
460 0.325965
465 0.365787
470 0.275334
475 0.337151
480 0.523268
485 0.399326
490 0.402858
495 0.273362
500 0.337436
505 0.424892
510 0.379702
515 0.493099
520 0.409771
525 0.444099
530 0.290006
535 0.299583
540 0.387715
545 0.372367
550 0.454597
555 0.451982
560 0.36674
565 0.479416
570 0.663252
575 7.36672
580 174.936
585 346.286
590 103.578
595 12.6382
600 1.50194
Ex : 593
200 0.414729
205 0.290582
210 0.276972
215 0.294535
220 0.295965
225 0.447369
230 0.433384
235 0.431614
240 0.315009
245 0.29702
250 0.252525
255 0.199338
260 0.210522
265 0.296696
270 0.419055
275 0.302387
280 0.432256
285 0.38862
290 0.297265
295 0.384833
300 0.32245
305 0.275213
310 0.25095
315 0.270524
320 0.296821
325 0.378695
330 0.311184
335 0.384058
340 0.392839
345 0.24316
350 0.296572
355 0.492824
360 0.256798
365 0.231957
370 0.243923
375 0.246088
380 0.233077
385 0.284383
390 0.356403
395 0.37388
400 0.343103
405 0.314139
410 0.39214
415 0.300164
420 0.333227
425 0.386502
430 0.198581
435 0.39635
440 0.386418
445 0.44441
450 0.268998
455 0.38308
460 0.292878
465 0.395801
470 0.333391
475 0.362534
480 0.388287
485 0.287156
490 0.422118
495 0.332167
500 0.427274
505 0.565005
510 0.419733
515 0.351779
520 0.5501
525 0.437085
530 0.315568
535 0.310626
540 0.37443
545 0.330285
550 0.219072
555 0.397841
560 0.368125
565 0.455187
570 0.637436
575 0.666686
580 6.37749
585 156.117
590 300.292
595 89.7787
600 12.6059
Ex : 598
200 0.253784
205 0.339193
210 0.329327
215 0.353346
220 0.380505
225 0.355346
230 0.268735
235 0.368429
240 0.34363
245 0.294547
250 0.446193
255 0.345179
260 0.349209
265 0.29002
270 0.384241
275 0.264567
280 0.355424
285 0.275142
290 0.248633
295 0.271185
300 0.310072
305 0.37225
310 0.25735
315 0.260875
320 0.340925
325 0.281125
330 0.275306
335 0.408681
340 0.310634
345 0.515383
350 0.421209
355 0.393087
360 0.263973
365 0.309594
370 0.371567
375 0.426711
380 0.269066
385 0.334288
390 0.289402
395 0.368946
400 0.336443
405 0.329803
410 0.252296
415 0.270813
420 0.396782
425 0.423193
430 0.386926
435 0.334215
440 0.358698
445 0.283933
450 0.216312
455 0.374671
460 0.27525
465 0.336242
470 0.334783
475 0.368346
480 0.245951
485 0.350975
490 0.348467
495 0.33433
500 0.285062
505 0.266816
510 0.331284
515 0.380897
520 0.340632
525 0.327565
530 0.373798
535 0.30943
540 0.318295
545 0.420187
550 0.385005
555 0.441672
560 0.395837
565 0.395323
570 0.63351
575 0.601022
580 0.601251
585 6.16047
590 141.254
595 264.017
600 176.442
Ex : 603
200 0.515594
205 0.289079
210 0.420796
215 0.247063
220 0.371908
225 0.487076
230 0.300012
235 0.425881
240 0.279343
245 0.325746
250 0.300915
255 0.227464
260 0.376228
265 0.276518
270 0.394935
275 0.289047
280 0.334397
285 0.383634
290 0.364287
295 0.350076
300 0.338536
305 0.269995
310 0.351307
315 0.324947
320 0.266243
325 0.260835
330 0.450322
335 0.337218
340 0.397998
345 0.322251
350 0.340151
355 0.392426
360 0.281302
365 0.240193
370 0.451518
375 0.320643
380 0.445278
385 0.444114
390 0.448454
395 0.377492
400 0.305098
405 0.345159
410 0.396601
415 0.418325
420 0.455966
425 0.388447
430 0.371301
435 0.410376
440 0.405177
445 0.295493
450 0.382853
455 0.388511
460 0.35092
465 0.373481
470 0.344497
475 0.441991
480 0.25177
485 0.370263
490 0.455487
495 0.392039
500 0.27959
505 0.313877
510 0.346884
515 0.443543
520 0.347378
525 0.289926
530 0.314138
535 0.288352
540 0.511824
545 0.444319
550 0.4066
555 0.328953
560 0.279157
565 0.4018
570 0.438934
575 0.418766
580 0.409815
585 0.630504
590 5.29831
595 120.257
600 241.576
