File format V 1.0
ven. 13. janv. 00:34:21 2017
Operator : 
Comments : 

=============================================
SpectroFluorometer parameters
Mode : 3D measurement
Data : Fluorescence
Phospho. : Ordinary
Spectrum : Fluorescence

Scan speed : 2400 nm/mn
Response : 100 ms
PM Voltage : 700 V
Shutter : On

Lambda Ex. Start : 203
Lambda Ex. End : 603
Lambda Ex. Step : 5
Ex. Slit : 5 nm

Lambda Em. Start : 200
Lambda Em. End : 600
Lambda Em. Step : 5
Em. Slit : 5 nm

Repetition : 1
Decal lambda em : 10
=============================================
DATA
Ex : 203
200 5.69951
205 7.61035
210 7.08634
215 5.46234
220 4.67971
225 6.89502
230 8.04819
235 5.30447
240 7.52045
245 5.75491
250 4.91813
255 6.40769
260 5.4358
265 6.03044
270 7.96577
275 5.96472
280 6.75682
285 6.90684
290 7.00276
295 6.20889
300 6.14674
305 11.6865
310 7.18968
315 6.82102
320 6.03804
325 6.99705
330 6.5628
335 6.42921
340 6.41099
345 8.20635
350 5.57067
355 8.90516
360 5.28952
365 6.26403
370 7.50545
375 10.269
380 8.6249
385 8.0755
390 4.85764
395 9.12376
400 5.15427
405 8.46442
410 5.15821
415 5.40599
420 4.13273
425 4.59248
430 6.47346
435 8.1668
440 5.92631
445 6.93457
450 6.41241
455 6.56719
460 6.89562
465 8.88778
470 6.13409
475 4.26758
480 7.72372
485 6.84295
490 11.2691
495 8.78103
500 8.4863
505 6.44801
510 7.09357
515 7.41758
520 6.14802
525 6.46211
530 6.22815
535 4.80909
540 8.73188
545 7.48268
550 6.66639
555 6.01162
560 8.55238
565 7.68878
570 5.87032
575 5.53054
580 5.84151
585 7.24797
590 6.42117
595 8.32674
600 0.947551
Ex : 208
200 8.57547
205 7.72638
210 9.94544
215 9.30858
220 6.39478
225 4.37821
230 6.78844
235 7.04306
240 7.58304
245 4.04746
250 6.54881
255 6.98646
260 6.86178
265 7.96353
270 7.75092
275 6.18547
280 5.82114
285 7.76885
290 7.4925
295 4.59638
300 5.9436
305 5.33002
310 6.37134
315 6.48126
320 5.50089
325 6.68171
330 6.8417
335 4.90265
340 5.27864
345 7.17497
350 7.66366
355 7.4855
360 6.08807
365 5.90142
370 8.64309
375 7.85912
380 10.1142
385 9.21963
390 5.55072
395 5.71111
400 7.48181
405 6.2087
410 7.31558
415 7.02255
420 6.73887
425 5.12837
430 4.97391
435 6.41847
440 6.51068
445 6.28082
450 7.27183
455 5.15645
460 7.44464
465 8.79199
470 11.0354
475 7.09509
480 5.10105
485 10.1313
490 7.91021
495 10.1027
500 8.49119
505 5.50589
510 6.1568
515 7.44367
520 7.17839
525 7.61695
530 6.72285
535 6.00052
540 5.97334
545 5.53354
550 8.45855
555 5.89871
560 6.30592
565 5.57643
570 6.01243
575 8.46949
580 4.36648
585 7.11131
590 8.63303
595 8.84799
600 2.95652
Ex : 213
200 7.70244
205 8.85234
210 5.44711
215 7.13056
220 5.67894
225 9.11869
230 6.2348
235 7.83675
240 5.99309
245 8.255
250 4.7698
255 6.19615
260 7.38743
265 7.28457
270 7.86984
275 7.30621
280 8.39886
285 7.10271
290 6.9538
295 7.21336
300 7.46114
305 6.17068
310 4.9137
315 6.59698
320 10.5208
325 6.56705
330 7.36698
335 4.88955
340 5.02943
345 6.11545
350 8.41979
355 10.3652
360 7.8455
365 5.74667
370 5.6373
375 6.37373
380 7.21557
385 11.3276
390 11.2918
395 6.12897
400 6.33977
405 4.68041
410 5.61268
415 9.3606
420 7.48709
425 8.66193
430 6.10693
435 9.58318
440 8.23425
445 4.95448
450 5.67652
455 10.6725
460 8.05268
465 7.23955
470 8.39722
475 5.90494
480 8.92312
485 7.45205
490 5.70268
495 8.49486
500 6.80598
505 6.79979
510 6.58424
515 6.4261
520 5.31219
525 10.0708
530 7.90332
535 7.09849
540 9.674
545 9.12758
550 11.0823
555 9.11823
560 3.8751
565 7.2156
570 6.59224
575 7.28228
580 5.5768
585 5.09436
590 7.02931
595 10.9955
600 19.4184
Ex : 218
200 5.76812
205 9.11172
210 6.80333
215 7.86382
220 8.06618
225 7.91513
230 5.28786
235 7.42721
240 9.09074
245 7.8574
250 5.30828
255 5.58946
260 9.4897
265 5.69814
270 7.92944
275 7.67802
280 4.41018
285 7.8441
290 6.54009
295 10.7908
300 7.12013
305 4.82857
310 5.16796
315 7.11912
320 6.20671
325 7.15924
330 5.06042
335 6.22224
340 7.39077
345 8.03169
350 4.28918
355 9.32913
360 9.69439
365 7.03299
370 6.76435
375 6.86398
380 6.5665
385 5.72686
390 4.71415
395 7.57988
400 4.88228
405 4.0156
410 6.74615
415 9.50541
420 5.99117
425 5.23576
430 7.21726
435 7.49963
440 5.71477
445 9.08929
450 7.28815
455 7.79795
460 9.51876
465 7.04186
470 6.56166
475 6.02829
480 5.83568
485 7.97192
490 8.54732
495 5.96986
500 7.49022
505 8.68193
510 6.67409
515 6.11505
520 6.46923
525 6.85223
530 6.44138
535 6.45957
540 8.98652
545 9.99753
550 6.97325
555 5.31668
560 6.21764
565 7.46801
570 6.33748
575 8.34588
580 7.04766
585 4.99525
590 5.08724
595 8.1454
600 0.926916
Ex : 223
200 5.34389
205 5.19343
210 5.95919
215 4.48488
220 6.09345
225 5.4879
230 6.88484
235 6.40151
240 6.06159
245 7.00399
250 7.93741
255 10.6297
260 8.19424
265 5.42015
270 9.46084
275 6.24821
280 4.58983
285 7.77938
290 7.69695
295 7.47565
300 8.14642
305 7.7119
310 7.81737
315 7.46426
320 7.13301
325 8.48125
330 5.57964
335 10.9521
340 6.07208
345 5.30748
350 6.24345
355 5.62304
360 7.52532
365 6.5635
370 6.19481
375 4.9918
380 6.73982
385 7.55457
390 8.41703
395 11.3036
400 7.51035
405 3.91361
410 6.55353
415 7.43039
420 4.46973
425 6.84368
430 7.67429
435 9.17817
440 7.43317
445 7.03657
450 7.82825
455 8.26404
460 6.71558
465 7.6446
470 8.85807
475 6.97046
480 9.55454
485 9.41439
490 5.11337
495 5.22142
500 9.0805
505 8.21198
510 11.4323
515 8.23294
520 4.74714
525 5.71108
530 6.9581
535 7.69098
540 5.92035
545 5.38044
550 6.24251
555 6.28259
560 6.66273
565 7.26523
570 8.20369
575 6.71518
580 6.71325
585 5.80996
590 8.4515
595 5.64477
600 8.26371
Ex : 228
200 8.6347
205 8.08039
210 4.65946
215 7.78965
220 9.54724
225 4.82445
230 8.22437
235 3.82427
240 6.01788
245 5.84676
250 9.28234
255 5.98483
260 9.60063
265 9.09391
270 6.8161
275 5.56939
280 3.52602
285 6.77211
290 9.60016
295 7.34489
300 6.3247
305 6.96517
310 7.80237
315 7.38037
320 8.32714
325 11.9079
330 5.79869
335 6.21204
340 6.70669
345 5.18295
350 5.64734
355 5.34269
360 10.2417
365 6.89019
370 6.55246
375 7.54665
380 8.25838
385 4.61408
390 8.29332
395 6.74329
400 6.99093
405 7.08242
410 7.11054
415 7.72075
420 7.56648
425 6.83589
430 5.26774
435 6.96017
440 8.14633
445 5.63789
450 9.34563
455 7.23738
460 6.24099
465 7.39286
470 7.55055
475 6.89465
480 7.52621
485 9.64664
490 7.50278
495 6.27415
500 5.77916
505 8.36762
510 8.68371
515 9.09973
520 5.04287
525 5.52731
530 6.13151
535 5.77049
540 7.86001
545 5.0433
550 5.51924
555 5.34159
560 5.25856
565 4.35322
570 6.70725
575 5.71255
580 5.92085
585 6.77199
590 6.05991
595 6.15586
600 0.700513
Ex : 233
200 3.8875
205 4.97722
210 7.56314
215 5.42953
220 4.20416
225 9.57997
230 6.21892
235 7.23337
240 8.17204
245 3.9528
250 4.9472
255 6.82917
260 4.45857
265 8.0019
270 5.59804
275 6.38959
280 6.00873
285 7.31288
290 6.16802
295 10.1136
300 7.25628
305 5.86884
310 5.62768
315 4.50819
320 5.75859
325 4.70167
330 6.26127
335 6.00691
340 7.31812
345 6.00927
350 7.11469
355 5.60353
360 6.94579
365 10.0055
370 5.65897
375 5.99188
380 6.42195
385 6.32267
390 6.16493
395 5.41844
400 5.50475
405 4.8452
410 5.89533
415 5.7192
420 3.47396
425 6.03512
430 6.10582
435 7.10188
440 6.04549
445 7.69839
450 6.7893
455 5.44636
460 5.16065
465 8.18111
470 8.1096
475 4.767
480 6.67142
485 7.84881
490 8.9956
495 5.77147
500 7.46155
505 4.77532
510 5.29874
515 7.69261
520 5.44476
525 6.25736
530 5.50225
535 7.51627
540 6.14075
545 6.88296
550 6.58211
555 5.75166
560 5.07815
565 9.40268
570 6.45811
575 7.07238
580 4.39627
585 5.1566
590 4.48383
595 5.66363
600 1.5307
Ex : 238
200 4.75665
205 6.02289
210 5.74782
215 5.66131
220 4.69449
225 7.82477
230 4.54474
235 5.05099
240 2.96241
245 4.92165
250 5.80741
255 5.59732
260 5.11588
265 4.35457
270 5.52563
275 8.93131
280 6.58185
285 6.37568
290 4.49356
295 4.92492
300 6.04245
305 6.22893
310 5.56071
315 7.62507
320 5.03601
325 5.02716
330 4.59
335 5.52617
340 4.89968
345 6.2387
350 5.85347
355 7.86651
360 6.70279
365 5.40943
370 4.91189
375 5.28768
380 5.26929
385 4.95879
390 5.65163
395 4.2902
400 5.17673
405 6.36326
410 8.38345
415 4.57
420 7.45221
425 6.92588
430 7.13168
435 5.98922
440 4.69901
445 3.87425
450 6.90767
455 6.88133
460 5.42608
465 4.80389
470 6.25117
475 4.34238
480 5.86948
485 5.46101
490 6.61146
495 6.11641
500 8.06045
505 5.12589
510 6.69708
515 5.06448
520 3.27286
525 5.82095
530 5.36197
535 4.66335
540 6.80023
545 7.98257
550 7.30794
555 8.28595
560 5.2331
565 4.78793
570 6.4353
575 6.17084
580 4.67437
585 4.47175
590 8.53724
595 4.4089
600 4.48963
Ex : 243
200 4.3564
205 3.48432
210 4.06203
215 5.49776
220 4.72393
225 5.21229
230 4.91608
235 6.46342
240 5.79998
245 8.07073
250 3.64617
255 4.3449
260 3.3784
265 5.99285
270 5.12529
275 4.60997
280 3.53452
285 3.89929
290 7.41723
295 4.52164
300 4.60262
305 4.54224
310 5.48157
315 5.78756
320 6.40781
325 3.68114
330 4.49215
335 5.28329
340 5.53953
345 5.43013
350 4.23231
355 4.90638
360 6.03231
365 5.10468
370 5.49388
375 5.33411
380 4.77774
385 4.91252
390 3.52716
395 5.20602
400 8.42882
405 4.99155
410 6.59053
415 6.6464
420 5.60601
425 5.4555
430 3.11801
435 5.67807
440 6.17261
445 6.03204
450 5.60944
455 3.66974
460 4.6446
465 4.42013
470 5.4435
475 4.94639
480 4.21569
485 4.10511
490 6.00435
495 3.80371
500 4.1135
505 6.79354
510 6.7137
515 6.07214
520 4.66044
525 5.64492
530 5.9054
535 3.49751
540 4.91826
545 3.81832
550 4.00109
555 4.48379
560 4.20891
565 4.23463
570 5.37323
575 6.34862
580 7.51774
585 3.62045
590 4.39991
595 3.87205
600 0.736026
Ex : 248
200 5.83578
205 3.01185
210 5.54717
215 5.89552
220 4.09646
225 4.00828
230 3.51659
235 2.85676
240 3.33323
245 3.55084
250 3.86487
255 4.99167
260 5.7309
265 4.15181
270 6.53526
275 3.09394
280 3.1602
285 5.03306
290 4.32416
295 3.75253
300 6.27277
305 4.81962
310 3.64747
315 6.29244
320 5.46717
325 4.05208
330 5.36805
335 4.13995
340 5.14171
345 4.84631
350 4.71993
355 4.74794
360 5.09166
365 5.82562
370 4.04979
375 3.80845
380 4.86177
385 2.79704
390 6.93583
395 6.47618
400 4.12766
405 3.618
410 4.17878
415 3.43681
420 3.41632
425 5.42153
430 5.68979
435 6.33573
440 3.79316
445 4.64111
450 4.60195
455 3.57233
460 4.21181
465 3.60887
470 4.08287
475 5.64485
480 4.01737
485 3.96483
490 6.39396
495 5.48063
500 5.56707
505 4.76015
510 4.12131
515 5.14344
520 4.80936
525 3.38149
530 3.20694
535 3.87505
540 5.82908
545 3.20548
550 3.91502
555 3.71827
560 4.04573
565 4.14625
570 5.64769
575 4.16258
580 4.36923
585 5.27733
590 3.66713
595 4.20891
600 6.01773
Ex : 253
200 4.28788
205 2.41728
210 3.15001
215 4.35452
220 3.42435
225 5.8367
230 3.30187
235 4.36252
240 3.99939
245 4.03744
250 4.46941
255 3.1741
260 4.37279
265 4.01774
270 3.81787
275 3.61653
280 3.2228
285 4.47259
290 2.63404
295 3.74098
300 3.52031
305 2.93002
310 2.24113
315 4.10302
320 4.46064
325 3.67618
330 3.84499
335 3.51439
340 3.26501
345 5.26749
350 3.19973
355 3.99366
360 2.78075
365 3.67517
370 3.33999
375 4.57339
380 4.17658
385 4.48939
390 5.21058
395 3.6101
400 4.3266
405 4.77942
410 3.14311
415 2.92675
420 5.34368
425 3.80255
430 6.241
435 3.75511
440 3.69504
445 4.01529
450 4.5787
455 3.16577
460 4.90062
465 4.0755
470 5.53104
475 3.79212
480 2.8273
485 3.3789
490 3.70544
495 3.45778
500 4.35171
505 4.31696
510 2.77404
515 3.72594
520 4.13837
525 3.13186
530 3.96762
535 4.33682
540 4.22679
545 4.3656
550 3.43695
555 4.49734
560 3.64273
565 2.82254
570 3.38655
575 3.14838
580 4.42572
585 2.78378
590 3.2561
595 3.74309
600 8.00792
Ex : 258
200 4.27743
205 2.22031
210 3.38044
215 2.81292
220 2.21487
225 3.559
230 3.36148
235 3.66841
240 3.43277
245 2.799
250 2.6136
255 2.16787
260 2.0897
265 3.93617
270 2.34411
275 3.01021
280 3.16858
285 3.43031
290 3.63732
295 2.44005
300 4.02102
305 2.32166
310 3.05319
315 2.72785
320 3.21591
325 2.39495
330 2.27407
335 3.25569
340 2.63012
345 2.57974
350 2.35715
355 2.70808
360 2.71331
365 2.46356
370 3.03204
375 3.00184
380 3.9212
385 3.343
390 4.16575
395 2.80079
400 3.9173
405 3.74702
410 3.29191
415 3.41845
420 2.56774
425 5.0082
430 3.64701
435 2.42276
440 4.25533
445 2.42212
450 4.92182
455 3.88569
460 4.70599
465 2.88581
470 3.78459
475 3.76784
480 3.4524
485 4.50567
490 5.04735
495 3.059
500 2.83986
505 2.45303
510 3.82396
515 3.01573
520 2.72695
525 2.9126
530 3.88183
535 2.38043
540 2.94264
545 3.62725
550 3.23556
555 3.23174
560 2.56686
565 3.19409
570 4.11574
575 4.95325
580 2.97436
585 3.0157
590 3.12891
595 2.14324
600 3.24335
Ex : 263
200 2.09002
205 2.04748
210 2.57996
215 1.77348
220 2.08212
225 2.98009
230 3.30398
235 1.98185
240 2.47985
245 2.45118
250 2.86249
255 2.84156
260 2.79704
265 2.30743
270 1.55253
275 1.87888
280 2.76509
285 2.01358
290 2.47369
295 2.82604
300 2.24871
305 2.06918
310 0.824295
315 3.78558
320 1.90828
325 2.30234
330 2.02988
335 2.16453
340 2.22187
345 2.09034
350 2.1394
355 2.9357
360 2.25691
365 2.78206
370 2.71739
375 2.39761
380 1.66098
385 1.74208
390 2.54588
395 2.30066
400 2.40408
405 2.66007
410 2.52855
415 3.56329
420 2.5146
425 2.32878
430 3.08757
435 2.50377
440 3.13375
445 2.16716
450 3.55239
455 2.35004
460 2.66818
465 2.03216
470 2.42219
475 2.44531
480 1.78642
485 2.0763
490 2.97598
495 2.84908
500 2.60497
505 2.44802
510 1.99718
515 2.94506
520 2.69541
525 3.80776
530 2.47569
535 1.61834
540 3.08119
545 3.40164
550 4.26535
555 2.18394
560 2.41186
565 1.41173
570 3.50574
575 3.093
580 2.9244
585 2.31682
590 3.02451
595 2.63476
600 2.66304
Ex : 268
200 1.58954
205 1.85964
210 1.8412
215 2.74204
220 1.81473
225 2.33734
230 1.62335
235 1.83882
240 1.9384
245 1.65583
250 2.48262
255 1.96433
260 1.90594
265 1.85061
270 1.6643
275 2.05019
280 1.45606
285 2.03238
290 2.00838
295 1.69753
300 1.27605
305 1.1365
310 1.92969
315 1.261
320 1.91944
325 1.5495
330 1.60718
335 1.51798
340 1.35006
345 1.84409
350 2.23362
355 2.65353
360 2.13581
365 2.0107
370 1.76435
375 2.36104
380 1.83474
385 1.93872
390 2.40799
395 2.22414
400 1.76527
405 2.29651
410 1.8974
415 2.61164
420 2.16182
425 1.9804
430 1.55173
435 1.50941
440 2.21978
445 1.53801
450 1.8788
455 2.49211
460 3.19975
465 2.08433
470 2.17929
475 1.69586
480 1.269
485 2.48818
490 2.89115
495 2.24621
500 1.48501
505 1.65297
510 1.73204
515 1.70879
520 1.45712
525 1.84223
530 2.11014
535 2.94955
540 2.68225
545 2.05407
550 1.59213
555 1.93381
560 2.54357
565 1.75896
570 1.42866
575 1.67475
580 1.42473
585 1.046
590 1.94683
595 1.62224
600 0.184605
Ex : 273
200 2.28939
205 1.60455
210 1.33409
215 1.21411
220 1.51337
225 1.97457
230 2.01237
235 1.68965
240 1.27936
245 2.10092
250 1.36638
255 1.79835
260 1.55817
265 1.61108
270 1.59281
275 1.24095
280 0.989466
285 1.68871
290 1.02251
295 0.931929
300 1.62416
305 1.30152
310 1.44195
315 1.50234
320 1.54242
325 1.32532
330 1.85647
335 1.59116
340 2.33261
345 1.53777
350 1.65869
355 1.43527
360 1.64285
365 1.50497
370 2.0829
375 1.49185
380 1.33396
385 1.6016
390 1.47587
395 1.41631
400 1.78827
405 2.03702
410 1.7359
415 1.74839
420 1.66304
425 1.6039
430 1.16196
435 1.70919
440 1.34219
445 1.70076
450 1.93012
455 1.76042
460 1.42422
465 1.3129
470 1.18837
475 1.83817
480 1.31319
485 1.65341
490 1.64896
495 1.39307
500 1.527
505 1.50497
510 1.25742
515 1.37435
520 1.96589
525 2.29746
530 1.41274
535 2.12159
540 2.58272
545 1.68461
550 2.54887
555 2.60306
560 2.21728
565 1.47887
570 1.83319
575 2.04345
580 2.23642
585 1.93705
590 2.20942
595 1.65164
600 4.40797
Ex : 278
200 0.742277
205 1.52877
210 1.04846
215 1.25464
220 1.06531
225 1.53518
230 1.0932
235 1.55663
240 1.2657
245 1.11221
250 0.904046
255 1.25518
260 1.26572
265 0.939984
270 1.14664
275 1.64813
280 1.11464
285 1.26547
290 0.961565
295 0.969814
300 1.70821
305 1.40564
310 1.13233
315 0.788047
320 1.19704
325 1.24338
330 1.57341
335 1.45981
340 2.64216
345 1.14655
350 1.28074
355 1.95103
360 1.5
365 1.17001
370 1.32823
375 1.81189
380 1.22933
385 1.62909
390 1.5828
395 1.94701
400 1.52804
405 1.15504
410 1.29497
415 1.51489
420 1.2766
425 1.75712
430 1.29894
435 1.22992
440 1.3518
445 1.11206
450 1.43176
455 1.70689
460 1.72524
465 1.37458
470 1.90516
475 1.00923
480 1.25436
485 1.41976
490 1.32815
495 1.59221
500 1.24432
505 1.17315
510 1.17028
515 1.01938
520 1.42746
525 1.32933
530 1.32368
535 1.16197
540 1.21467
545 1.30337
550 1.84356
555 1.39243
560 1.38215
565 1.48307
570 1.33269
575 1.73556
580 1.1183
585 1.16077
590 1.87394
595 1.17072
600 1.29928
Ex : 283
200 1.10699
205 0.882042
210 1.03264
215 1.30105
220 0.949797
225 1.00862
230 0.930032
235 1.33847
240 0.853811
245 1.57005
250 1.0558
255 1.25122
260 1.05839
265 1.22691
270 0.894964
275 1.24275
280 0.775253
285 1.12461
290 0.962588
295 1.03976
300 1.0823
305 0.999634
310 1.09102
315 0.943437
320 0.901864
325 0.964846
330 1.28508
335 1.29229
340 1.1544
345 1.27059
350 0.927412
355 1.29875
360 1.74049
365 1.83776
370 1.3592
375 1.52627
380 1.3466
385 0.895838
390 1.20889
395 1.07113
400 1.73138
405 1.52794
410 1.18883
415 1.3569
420 1.51178
425 1.18587
430 1.24532
435 1.01298
440 1.2755
445 1.42198
450 1.07059
455 1.52161
460 1.02414
465 0.913153
470 1.06938
475 1.54769
480 1.04921
485 1.13993
490 1.01333
495 0.956104
500 1.6375
505 0.804197
510 1.07151
515 1.06122
520 0.983015
525 1.0556
530 1.35016
535 1.42207
540 1.33627
545 0.90621
550 1.25181
555 1.95972
560 1.32093
565 1.28041
570 0.970036
575 1.27963
580 1.14654
585 1.3632
590 1.15846
595 0.716513
600 3.48788
Ex : 288
200 0.630779
205 0.659097
210 1.07321
215 0.811823
220 0.8803
225 1.21879
230 0.960147
235 0.804901
240 0.861761
245 0.883357
250 0.771791
255 0.762172
260 1.11729
265 1.35298
270 1.05537
275 0.860236
280 1.1539
285 1.08011
290 0.888589
295 1.05897
300 0.871454
305 0.812679
310 0.748118
315 1.03323
320 0.969381
325 1.40574
330 0.892832
335 0.849589
340 0.7647
345 1.09316
350 0.992024
355 0.799438
360 0.985876
365 1.3361
370 0.905832
375 0.90491
380 0.876093
385 0.900313
390 1.23397
395 1.94273
400 1.14484
405 0.741304
410 0.885339
415 1.05445
420 0.899699
425 0.875708
430 1.04512
435 0.94777
440 1.25921
445 0.903358
450 1.30636
455 0.993543
460 1.34674
465 1.50225
470 1.65556
475 0.984349
480 0.949772
485 0.993739
490 0.922368
495 1.2456
500 1.19244
505 0.815605
510 0.992033
515 0.770623
520 0.899777
525 0.847546
530 1.07374
535 0.929266
540 0.765109
545 0.960765
550 1.01454
555 0.990153
560 0.753851
565 0.979053
570 0.893964
575 1.06958
580 1.37962
585 1.69104
590 0.986188
595 0.857787
600 0.297009
Ex : 293
200 1.0072
205 0.612788
210 0.701747
215 0.68047
220 0.714921
225 0.803344
230 0.604532
235 0.647792
240 0.774103
245 0.547363
250 0.66723
255 0.914665
260 0.698104
265 0.69106
270 0.667124
275 0.778592
280 0.762043
285 1.14029
290 0.874412
295 0.679834
300 0.645791
305 0.735941
310 0.790766
315 0.955354
320 0.584035
325 0.88242
330 0.758792
335 0.746872
340 0.774261
345 1.3019
350 0.947626
355 0.835344
360 0.827221
365 0.711987
370 1.13296
375 0.810586
380 1.37236
385 1.12882
390 0.967945
395 1.27061
400 0.946134
405 0.931191
410 1.20408
415 1.27512
420 1.27354
425 1.01778
430 1.07159
435 0.685509
440 0.916259
445 0.933296
450 0.894862
455 0.774188
460 0.705841
465 0.845531
470 1.00561
475 0.700316
480 0.613451
485 0.564509
490 0.900307
495 1.08414
500 0.900807
505 0.864894
510 0.925946
515 0.888159
520 0.795886
525 0.568634
530 0.861732
535 1.03319
540 1.0795
545 0.888618
550 1.01011
555 0.63221
560 0.792938
565 0.704329
570 0.719257
575 0.865904
580 1.22647
585 1.03876
590 0.869037
595 0.558286
600 1.27948
Ex : 298
200 0.812361
205 0.794122
210 0.777027
215 0.496611
220 0.702363
225 0.737264
230 0.674432
235 0.610461
240 0.613873
245 0.565052
250 0.761883
255 0.578369
260 0.504084
265 0.666048
270 0.738531
275 1.01248
280 0.761765
285 0.831162
290 0.481364
295 0.708358
300 0.840725
305 0.526906
310 0.6497
315 0.779377
320 0.675343
325 0.629477
330 0.697802
335 0.958419
340 0.559744
345 0.412061
350 0.82627
355 0.736584
360 0.637298
365 0.88004
370 0.851233
375 0.576995
380 0.814609
385 1.05823
390 0.919485
395 0.666636
400 0.576933
405 0.923501
410 0.857664
415 0.687056
420 1.16168
425 1.19072
430 1.1694
435 0.80314
440 0.884693
445 0.882783
450 0.886785
455 0.886258
460 0.882844
465 0.69539
470 1.00598
475 0.882547
480 0.916534
485 0.858683
490 0.930318
495 0.836153
500 0.759301
505 0.574431
510 0.857423
515 0.839593
520 0.561608
525 0.84019
530 0.752885
535 0.480966
540 0.569753
545 0.58921
550 0.701704
555 0.549112
560 0.809247
565 0.773075
570 0.822359
575 0.579397
580 0.593799
585 0.906165
590 1.03634
595 0.83992
600 1.80234
Ex : 303
200 0.459565
205 0.581239
210 0.692936
215 0.477991
220 0.672732
225 0.724658
230 0.529394
235 0.701712
240 0.641196
245 0.548353
250 0.621981
255 0.797404
260 0.702401
265 0.574386
270 0.401879
275 0.442888
280 0.546492
285 0.517276
290 0.702553
295 0.640296
300 0.855665
305 0.45248
310 0.402483
315 0.608206
320 0.529223
325 0.591388
330 0.739626
335 0.666876
340 0.810568
345 0.597494
350 0.734468
355 0.935592
360 0.836464
365 0.845964
370 0.697213
375 0.540499
380 0.657541
385 0.705547
390 0.814095
395 0.727835
400 0.806737
405 0.755592
410 0.547584
415 0.593687
420 0.820107
425 0.840258
430 0.723259
435 1.01865
440 0.828404
445 0.693131
450 0.939503
455 0.70536
460 1.06324
465 0.73041
470 0.814715
475 0.642554
480 0.506352
485 0.49343
490 0.728958
495 0.553596
500 0.594167
505 0.494215
510 0.422333
515 0.524131
520 0.691008
525 0.445567
530 0.537281
535 0.545319
540 0.661057
545 0.424517
550 0.565377
555 0.436745
560 0.628566
565 0.569187
570 0.47928
575 0.613287
580 0.397923
585 0.556181
590 0.551622
595 1.21321
600 0.138059
Ex : 308
200 0.368421
205 0.443248
210 0.454306
215 0.568676
220 0.440343
225 0.66592
230 0.405678
235 0.378338
240 0.608884
245 0.508127
250 0.435157
255 0.33793
260 0.415759
265 0.287446
270 0.52474
275 0.700285
280 0.470107
285 0.387281
290 0.468146
295 0.490942
300 0.343868
305 0.572671
310 0.564842
315 0.498908
320 0.470862
325 0.736305
330 0.656091
335 0.620484
340 0.680832
345 0.610179
350 0.675995
355 0.613559
360 0.488926
365 0.521025
370 0.450254
375 0.826057
380 0.731898
385 0.629255
390 0.872634
395 0.794754
400 0.757817
405 0.685969
410 0.870786
415 0.89649
420 0.727069
425 0.975317
430 0.812213
435 1.01429
440 0.982979
445 0.733918
450 0.671888
455 0.700704
460 0.587545
465 0.694614
470 0.590972
475 0.640856
480 0.610325
485 0.551165
490 0.744604
495 0.573893
500 0.602484
505 0.73756
510 0.539972
515 0.466909
520 0.612281
525 0.456988
530 0.534557
535 0.701237
540 0.542749
545 0.407104
550 0.520732
555 0.452683
560 0.378507
565 0.660169
570 0.477834
575 0.463393
580 0.52718
585 0.434935
590 0.594029
595 0.432252
600 0.0491886
Ex : 313
200 0.604498
205 0.456738
210 0.504109
215 0.506322
220 0.452107
225 0.464161
230 0.439361
235 0.415223
240 0.730029
245 0.400529
250 0.373257
255 0.521164
260 0.521558
265 0.463383
270 0.696559
275 0.347299
280 0.509364
285 0.513718
290 0.607611
295 0.554058
300 0.436705
305 0.571213
310 0.540487
315 0.462445
320 0.483526
325 0.368657
330 0.476582
335 0.669451
340 0.488356
345 0.507395
350 0.629475
355 0.540608
360 0.589053
365 0.853906
370 0.752052
375 0.902813
380 0.838823
385 1.00637
390 1.03673
395 1.04498
400 1.21975
405 1.01135
410 1.1493
415 0.801807
420 1.0111
425 1.01851
430 1.05356
435 0.983994
440 1.20139
445 1.16911
450 0.790547
455 0.821435
460 0.848648
465 0.999001
470 0.807024
475 0.715292
480 0.732765
485 0.772477
490 0.757303
495 0.667208
500 0.625036
505 0.651937
510 0.553667
515 0.665066
520 0.592568
525 0.774186
530 0.51606
535 0.468836
540 0.484138
545 0.402321
550 0.589952
555 0.51091
560 0.452838
565 0.3772
570 0.453248
575 0.698369
580 0.389508
585 0.525177
590 0.463654
595 0.559896
600 0.688601
Ex : 318
200 0.337759
205 0.645597
210 0.480272
215 0.511773
220 0.537628
225 0.379176
230 0.399356
235 0.475285
240 0.382625
245 0.33704
250 0.553123
255 0.463902
260 0.335283
265 0.371784
270 0.530614
275 0.414386
280 0.307621
285 0.256735
290 0.392216
295 0.324875
300 0.593234
305 0.36648
310 0.712531
315 0.594887
320 0.639064
325 0.560657
330 0.544304
335 0.743048
340 0.923132
345 1.574
350 1.92374
355 2.37034
360 2.87736
365 3.75788
370 4.38821
375 4.93582
380 5.23129
385 5.79108
390 6.19309
395 6.64662
400 6.92117
405 7.62471
410 7.73693
415 7.81588
420 6.81471
425 7.21305
430 7.31614
435 7.00561
440 6.86105
445 6.73163
450 6.62991
455 5.54933
460 5.31857
465 4.99046
470 4.8402
475 4.17371
480 3.85952
485 3.60554
490 3.43139
495 2.8385
500 2.53332
505 2.35387
510 2.13863
515 1.87809
520 1.65208
525 1.38849
530 1.05044
535 1.0951
540 1.1156
545 0.910736
550 0.657605
555 0.698186
560 0.808474
565 0.58378
570 0.504195
575 0.420313
580 0.351256
585 0.65484
590 0.369524
595 0.480864
600 2.15572
Ex : 323
200 0.312589
205 0.437014
210 0.269438
215 0.418481
220 0.422692
225 0.35674
230 0.302874
235 0.324973
240 0.253907
245 0.291949
250 0.278701
255 0.34154
260 0.377944
265 0.446405
270 0.400611
275 0.40612
280 0.363727
285 0.347277
290 0.314664
295 0.341817
300 0.278577
305 0.527063
310 0.294045
315 1.92154
320 8.42146
325 4.27307
330 1.88965
335 2.99311
340 3.67167
345 5.71091
350 7.93691
355 11.2721
360 13.6004
365 15.7537
370 18.3285
375 21.507
380 23.543
385 27.2264
390 28.3292
395 29.704
400 30.6523
405 31.3621
410 31.6691
415 32.6413
420 31.4291
425 30.4975
430 29.907
435 29.1113
440 28.0718
445 27.2619
450 26.2182
455 23.77
460 22.7865
465 20.9648
470 19.6325
475 17.4665
480 15.8177
485 14.831
490 12.8595
495 12.1452
500 10.3886
505 8.94585
510 7.78845
515 6.97529
520 6.00436
525 5.35667
530 4.5301
535 3.71285
540 3.35354
545 2.87878
550 2.72467
555 2.1624
560 1.94405
565 1.61847
570 1.36269
575 1.15326
580 1.02502
585 0.891992
590 0.765149
595 0.555716
600 0.341263
Ex : 328
200 0.259315
205 0.289559
210 0.394787
215 0.283218
220 0.423465
225 0.429168
230 0.390922
235 0.28883
240 0.325281
245 0.363212
250 0.266156
255 0.345183
260 0.28404
265 0.311023
270 0.267608
275 0.454471
280 0.379327
285 0.336606
290 0.299435
295 0.458846
300 0.274811
305 0.28783
310 0.204664
315 0.807005
320 21.7586
325 52.3527
330 17.538
335 5.21736
340 5.52204
345 7.10295
350 9.18231
355 13.0096
360 17.4788
365 19.1801
370 21.4701
375 24.6512
380 26.823
385 28.7965
390 32.2707
395 34.7679
400 36.2738
405 35.9046
410 36.6909
415 36.536
420 35.3525
425 35.0921
430 32.8228
435 32.3008
440 30.9463
445 29.3263
450 27.3862
455 26.4821
460 24.9796
465 23.8364
470 21.0926
475 19.9256
480 18.0795
485 16.2749
490 15.3507
495 13.1427
500 11.6168
505 10.2812
510 9.20783
515 8.03083
520 6.94045
525 6.19958
530 5.28931
535 4.90095
540 4.21981
545 3.34023
550 2.73212
555 2.929
560 2.63698
565 2.00609
570 1.55664
575 1.32736
580 1.05369
585 0.917489
590 0.735613
595 0.776754
600 0.0883917
Ex : 333
200 0.278153
205 0.323117
210 0.241278
215 0.331135
220 0.423441
225 0.335552
230 0.345686
235 0.313362
240 0.329211
245 0.254528
250 0.294566
255 0.239901
260 0.263436
265 0.297342
270 0.245457
275 0.276618
280 0.237241
285 0.255828
290 0.403233
295 0.378365
300 0.342914
305 0.343817
310 0.281776
315 0.34468
320 3.22046
325 62.2072
330 107.536
335 30.0016
340 6.96183
345 5.2497
350 5.76922
355 7.00695
360 9.88281
365 14.5477
370 14.9919
375 15.8966
380 16.137
385 17.6084
390 18.8707
395 20.2852
400 20.6785
405 20.6049
410 21.0174
415 20.5454
420 20.1445
425 20.1978
430 18.6128
435 17.7421
440 17.4937
445 16.3876
450 15.7793
455 14.9992
460 14.2607
465 12.7378
470 11.8444
475 11.3019
480 10.0564
485 9.19877
490 8.56863
495 7.69678
500 7.18698
505 6.12888
510 5.44926
515 4.54384
520 4.09434
525 3.88013
530 3.23012
535 2.91166
540 2.74756
545 2.52524
550 2.03424
555 1.83047
560 1.87041
565 1.39566
570 1.24247
575 1.05747
580 0.887963
585 0.757712
590 0.592946
595 0.437058
600 0.763021
Ex : 338
200 0.315095
205 0.193861
210 0.168216
215 0.271759
220 0.214429
225 0.179408
230 0.213518
235 0.179104
240 0.385455
245 0.26557
250 0.227627
255 0.248836
260 0.339426
265 0.179377
270 0.332748
275 0.270911
280 0.37713
285 0.248059
290 0.206854
295 0.36493
300 0.303857
305 0.260544
310 0.27091
315 0.264521
320 0.379164
325 6.5691
330 98.7195
335 142.58
340 36.8998
345 6.6725
350 4.06219
355 4.04547
360 4.10064
365 5.98656
370 10.6542
375 10.7886
380 8.86253
385 8.18117
390 9.03625
395 10.2245
400 10.9524
405 10.9717
410 10.4361
415 10.9824
420 11.2582
425 10.6943
430 10.4173
435 9.92907
440 9.59597
445 9.18359
450 8.87225
455 8.94366
460 7.50393
465 7.51082
470 7.08879
475 6.01375
480 5.84805
485 5.64425
490 5.38374
495 4.49981
500 4.31274
505 3.77591
510 3.27468
515 3.07674
520 2.89117
525 2.33524
530 2.16662
535 1.74734
540 1.79644
545 1.72501
550 1.58756
555 1.50027
560 1.2808
565 1.18118
570 1.05524
575 0.835527
580 0.628706
585 0.566892
590 0.632395
595 0.692291
600 0.0787801
Ex : 343
200 0.251079
205 0.210276
210 0.288839
215 0.240037
220 0.255069
225 0.15927
230 0.23251
235 0.181261
240 0.21308
245 0.299828
250 0.31542
255 0.315195
260 0.304057
265 0.37197
270 0.272998
275 0.208478
280 0.18774
285 0.246443
290 0.226034
295 0.198305
300 0.26255
305 0.235575
310 0.251152
315 0.340597
320 0.280818
325 0.316669
330 7.93632
335 112.077
340 170.502
345 41.4555
350 6.86312
355 3.37862
360 2.82361
365 2.26903
370 3.49625
375 7.34745
380 8.21101
385 6.62444
390 6.47401
395 6.67758
400 7.63046
405 7.03179
410 7.38703
415 7.83744
420 8.12352
425 8.22677
430 7.27215
435 6.98783
440 7.44689
445 7.18757
450 6.92044
455 6.38094
460 6.16726
465 5.93889
470 5.72421
475 5.06801
480 5.04269
485 4.70946
490 4.34056
495 3.79295
500 3.63773
505 3.32892
510 2.9027
515 2.59327
520 2.29748
525 2.02356
530 2.1291
535 1.67044
540 1.79769
545 1.42533
550 1.56221
555 1.23653
560 1.13254
565 1.18916
570 1.08438
575 0.856441
580 0.752574
585 0.500868
590 0.46216
595 0.478484
600 1.0715
Ex : 348
200 0.207564
205 0.213247
210 0.259663
215 0.280989
220 0.19705
225 0.219138
230 0.170314
235 0.335155
240 0.323837
245 0.194068
250 0.277306
255 0.266962
260 0.301321
265 0.20966
270 0.197956
275 0.285366
280 0.254486
285 0.215963
290 0.196307
295 0.180486
300 0.207759
305 0.23182
310 0.233784
315 0.344477
320 0.282764
325 0.352546
330 0.323969
335 7.60964
340 110.677
345 168.595
350 43.288
355 6.58707
360 2.68202
365 2.59646
370 2.08582
375 2.64085
380 5.34329
385 7.75554
390 6.68772
395 6.83652
400 6.57042
405 6.46629
410 6.89354
415 7.52836
420 7.77488
425 7.42395
430 7.46193
435 7.25374
440 7.03663
445 7.15028
450 7.01144
455 6.60641
460 6.36827
465 5.65855
470 5.30851
475 5.21607
480 4.7188
485 4.71816
490 4.44252
495 4.09137
500 3.89054
505 3.46811
510 3.15457
515 2.69377
520 2.42143
525 2.23037
530 2.00133
535 1.86338
540 1.75239
545 1.55481
550 1.42107
555 1.20776
560 1.03845
565 1.13412
570 1.04682
575 0.808291
580 0.745794
585 0.644458
590 0.395473
595 0.431797
600 0.41793
Ex : 353
200 0.267437
205 0.16277
210 0.19569
215 0.246569
220 0.139215
225 0.160636
230 0.230345
235 0.150658
240 0.229916
245 0.139855
250 0.283603
255 0.172354
260 0.240827
265 0.291332
270 0.19717
275 0.187847
280 0.18235
285 0.263777
290 0.178083
295 0.233887
300 0.189709
305 0.221781
310 0.164267
315 0.274804
320 0.300302
325 0.190397
330 0.212293
335 0.365405
340 7.24404
345 109.997
350 160.73
355 40.2006
360 6.02195
365 2.54922
370 2.20387
375 2.26255
380 2.05122
385 4.71727
390 8.99309
395 9.22428
400 8.249
405 7.38358
410 7.51716
415 8.40127
420 8.77588
425 8.60012
430 8.48243
435 7.93995
440 8.1944
445 7.89146
450 7.25264
455 7.08134
460 6.83163
465 6.2333
470 5.92336
475 5.78685
480 5.34361
485 4.92391
490 4.5935
495 4.31062
500 4.11247
505 3.57869
510 3.441
515 3.03515
520 2.60983
525 2.36476
530 2.26036
535 2.16474
540 1.88586
545 1.52337
550 1.64003
555 1.18535
560 1.36815
565 1.10114
570 0.919971
575 0.833283
580 0.639984
585 0.554304
590 0.557311
595 0.484821
600 0.303308
Ex : 358
200 0.149488
205 0.227681
210 0.20858
215 0.164144
220 0.254096
225 0.205273
230 0.165649
235 0.257151
240 0.230581
245 0.205886
250 0.16038
255 0.19228
260 0.176376
265 0.188312
270 0.198466
275 0.186276
280 0.214239
285 0.181882
290 0.19116
295 0.26843
300 0.245853
305 0.222881
310 0.208313
315 0.232611
320 0.175926
325 0.224372
330 0.266019
335 0.452306
340 0.417225
345 8.20882
350 124.872
355 182.267
360 43.996
365 6.40469
370 2.70071
375 2.84315
380 2.32131
385 2.36595
390 5.22204
395 10.0271
400 10.4218
405 8.3007
410 7.68347
415 8.45141
420 8.7691
425 8.77987
430 8.42526
435 8.23987
440 8.05558
445 7.88058
450 8.12651
455 7.33093
460 6.94041
465 6.60839
470 6.41229
475 6.29594
480 5.9087
485 5.04625
490 4.92818
495 4.54212
500 4.08076
505 3.95343
510 3.35759
515 3.20502
520 2.85431
525 2.48697
530 2.4647
535 2.12816
540 1.97567
545 1.59216
550 1.54656
555 1.33162
560 1.15035
565 1.08415
570 0.92126
575 0.840286
580 0.786627
585 0.711787
590 0.539489
595 0.441242
600 0.248193
Ex : 363
200 0.165799
205 0.194057
210 0.242762
215 0.183864
220 0.209098
225 0.194511
230 0.22483
235 0.138338
240 0.194814
245 0.110779
250 0.163357
255 0.164059
260 0.23596
265 0.305847
270 0.16148
275 0.187786
280 0.188506
285 0.193156
290 0.220791
295 0.156083
300 0.175321
305 0.192336
310 0.18102
315 0.195182
320 0.221058
325 0.167549
330 0.184161
335 0.273357
340 0.364107
345 0.434157
350 6.67582
355 108.044
360 164.735
365 43.5749
370 6.14059
375 2.391
380 2.43272
385 2.36404
390 3.30991
395 5.78887
400 9.48839
405 10.0661
410 8.62242
415 8.41046
420 8.01607
425 8.31378
430 7.98411
435 7.62594
440 7.67293
445 8.13639
450 7.80604
455 7.28004
460 6.92037
465 6.48046
470 6.38885
475 6.19491
480 5.62845
485 5.46749
490 5.23205
495 4.7684
500 4.13426
505 3.84395
510 3.82859
515 3.3611
520 2.98825
525 2.61844
530 2.41351
535 1.98174
540 1.90234
545 1.77114
550 1.63399
555 1.33941
560 1.19162
565 1.25674
570 1.09932
575 0.823307
580 0.759715
585 0.538415
590 0.541349
595 0.409517
600 0.0864806
Ex : 368
200 0.214381
205 0.209675
210 0.209021
215 0.175687
220 0.186033
225 0.211092
230 0.159065
235 0.137229
240 0.223828
245 0.309653
250 0.151989
255 0.21
260 0.159296
265 0.154034
270 0.171513
275 0.148809
280 0.226064
285 0.140338
290 0.197333
295 0.166389
300 0.153045
305 0.169886
310 0.184559
315 0.187947
320 0.233662
325 0.216937
330 0.151472
335 0.253039
340 0.247596
345 0.346089
350 0.414815
355 5.44859
360 103.12
365 177.776
370 48.4249
375 6.92121
380 2.49019
385 2.86874
390 4.13548
395 5.61542
400 6.86478
405 9.08231
410 10.9128
415 10.6702
420 10.4646
425 9.21811
430 8.59457
435 8.48172
440 8.29143
445 8.26611
450 8.31413
455 7.70975
460 7.37581
465 7.05959
470 6.73156
475 6.16483
480 6.3037
485 5.84031
490 5.1764
495 4.97013
500 4.45793
505 4.14734
510 3.87273
515 3.54509
520 3.06787
525 2.75065
530 2.52734
535 2.17573
540 2.00589
545 1.75811
550 1.70209
555 1.543
560 1.40381
565 1.13735
570 1.05086
575 0.884396
580 0.697846
585 0.572447
590 0.397912
595 0.405543
600 0.73772
Ex : 373
200 0.223515
205 0.125391
210 0.128549
215 0.212928
220 0.210326
225 0.187633
230 0.151252
235 0.212675
240 0.146852
245 0.171348
250 0.158681
255 0.160298
260 0.117253
265 0.176621
270 0.157791
275 0.118035
280 0.165446
285 0.0961882
290 0.129812
295 0.165154
300 0.14937
305 0.127785
310 0.171155
315 0.14194
320 0.131821
325 0.229432
330 0.130351
335 0.168923
340 0.237757
345 0.21339
350 0.251876
355 0.350397
360 6.10052
365 97.6204
370 163.283
375 46.0488
380 6.93748
385 2.98505
390 4.98843
395 7.03239
400 7.93049
405 7.81359
410 10.1455
415 13.379
420 12.5457
425 11.4856
430 9.85463
435 9.3714
440 9.14007
445 9.23658
450 9.09465
455 8.3894
460 7.94722
465 7.61696
470 7.35483
475 6.68366
480 6.60499
485 5.89758
490 5.43174
495 5.10821
500 4.61987
505 4.54143
510 3.84677
515 3.41889
520 3.118
525 2.88009
530 2.51658
535 2.23967
540 2.12313
545 1.79216
550 1.67905
555 1.48489
560 1.41672
565 1.22978
570 1.05387
575 0.969986
580 0.712424
585 0.611234
590 0.463311
595 0.429441
600 0.196569
Ex : 378
200 0.170263
205 0.154839
210 0.164499
215 0.151532
220 0.12208
225 0.152152
230 0.121527
235 0.132579
240 0.137791
245 0.150508
250 0.155827
255 0.253187
260 0.227309
265 0.187251
270 0.17447
275 0.122774
280 0.0964414
285 0.183361
290 0.127467
295 0.152545
300 0.172785
305 0.101011
310 0.159634
315 0.183751
320 0.198468
325 0.127675
330 0.173001
335 0.224945
340 0.246972
345 0.151734
350 0.139217
355 0.252599
360 0.293087
365 5.71391
370 98.6237
375 163.173
380 45.4251
385 7.14618
390 4.27329
395 6.19285
400 7.29818
405 7.20262
410 7.29414
415 9.42448
420 12.2412
425 12.1289
430 10.4422
435 9.0107
440 8.47565
445 8.7105
450 8.398
455 7.76985
460 7.63553
465 7.01593
470 6.75655
475 6.37611
480 6.19581
485 5.98168
490 5.48567
495 4.987
500 4.53897
505 4.01482
510 3.69451
515 3.62367
520 3.19369
525 2.87592
530 2.71284
535 2.3394
540 2.02247
545 1.78013
550 1.69922
555 1.61606
560 1.46056
565 1.20089
570 1.13557
575 0.866657
580 0.838871
585 0.538298
590 0.384501
595 0.405497
600 0.243892
Ex : 383
200 0.174499
205 0.160356
210 0.158086
215 0.156668
220 0.214167
225 0.122446
230 0.171927
235 0.139002
240 0.126614
245 0.113053
250 0.193893
255 0.127333
260 0.162637
265 0.142509
270 0.210778
275 0.218559
280 0.160947
285 0.165285
290 0.135812
295 0.156822
300 0.126361
305 0.158626
310 0.149124
315 0.144576
320 0.161186
325 0.226704
330 0.173078
335 0.212999
340 0.158368
345 0.157503
350 0.199762
355 0.153464
360 0.262571
365 0.313057
370 5.29542
375 100.485
380 178.246
385 49.7338
390 8.49069
395 5.04895
400 5.46258
405 5.91006
410 5.90563
415 6.18954
420 7.58565
425 9.88845
430 10.5111
435 8.83369
440 8.22208
445 7.42476
450 6.91944
455 6.91385
460 6.52314
465 6.24078
470 6.16351
475 5.92494
480 5.68353
485 5.57157
490 5.3389
495 4.78894
500 4.46073
505 4.09516
510 3.89772
515 3.34204
520 3.17048
525 2.96079
530 2.55905
535 2.32572
540 1.99771
545 1.77588
550 1.80871
555 1.44975
560 1.43256
565 1.15542
570 1.05791
575 0.847339
580 0.706087
585 0.578323
590 0.454462
595 0.397251
600 0.31492
Ex : 388
200 0.182882
205 0.142564
210 0.157865
215 0.122285
220 0.119283
225 0.14014
230 0.12424
235 0.150001
240 0.18597
245 0.158626
250 0.174639
255 0.166958
260 0.161113
265 0.16535
270 0.158862
275 0.126421
280 0.156419
285 0.133777
290 0.124754
295 0.10465
300 0.109593
305 0.104145
310 0.170465
315 0.170743
320 0.164319
325 0.129494
330 0.144476
335 0.226912
340 0.189528
345 0.134587
350 0.15723
355 0.174186
360 0.170463
365 0.272137
370 0.345669
375 5.60649
380 105.176
385 185.494
390 51.896
395 10.4483
400 5.8119
405 5.71318
410 6.4587
415 7.06819
420 7.33479
425 7.75185
430 8.87506
435 10.2284
440 8.85889
445 8.18886
450 7.34898
455 6.75832
460 6.37273
465 6.37254
470 6.26978
475 6.0042
480 5.62201
485 5.32504
490 5.14887
495 4.63625
500 4.37802
505 4.05296
510 3.81613
515 3.40585
520 3.23106
525 2.87295
530 2.47629
535 2.27851
540 2.00575
545 2.0061
550 1.72684
555 1.47525
560 1.32652
565 1.0964
570 0.989332
575 0.80285
580 0.633145
585 0.519187
590 0.447873
595 0.454697
600 0.205574
Ex : 393
200 0.152096
205 0.120678
210 0.0928675
215 0.156467
220 0.143513
225 0.103839
230 0.136551
235 0.139245
240 0.101561
245 0.148183
250 0.113403
255 0.107776
260 0.165866
265 0.130943
270 0.100371
275 0.124561
280 0.214022
285 0.204197
290 0.140708
295 0.106985
300 0.153352
305 0.137895
310 0.14588
315 0.15152
320 0.172292
325 0.203645
330 0.199246
335 0.223647
340 0.108113
345 0.102346
350 0.219174
355 0.184621
360 0.166661
365 0.203894
370 0.252318
375 0.27365
380 5.17569
385 98.6022
390 169.41
395 52.0822
400 11.9526
405 6.96592
410 7.44036
415 8.1447
420 8.60772
425 8.29222
430 8.02521
435 8.75069
440 10.7848
445 9.51049
450 8.44807
455 7.70417
460 6.70835
465 6.2025
470 6.05443
475 5.90519
480 5.72445
485 5.43211
490 5.01584
495 4.65937
500 4.29725
505 3.84802
510 3.80052
515 3.30047
520 3.08359
525 2.61539
530 2.49861
535 2.32386
540 2.0758
545 1.8597
550 1.7594
555 1.39989
560 1.34829
565 1.2385
570 0.965088
575 0.867147
580 0.699246
585 0.48379
590 0.463101
595 0.417724
600 0.477886
Ex : 398
200 0.15366
205 0.155008
210 0.114546
215 0.158936
220 0.183618
225 0.136531
230 0.12555
235 0.112345
240 0.105471
245 0.138231
250 0.128576
255 0.122436
260 0.111353
265 0.0648436
270 0.134402
275 0.090123
280 0.0706196
285 0.137114
290 0.153938
295 0.138117
300 0.13195
305 0.18662
310 0.160491
315 0.141608
320 0.147901
325 0.179841
330 0.178402
335 0.152402
340 0.161976
345 0.171808
350 0.146979
355 0.177111
360 0.169558
365 0.196969
370 0.20849
375 0.231195
380 0.371454
385 5.01501
390 99.6247
395 170.729
400 49.0066
405 10.8136
410 6.44359
415 6.92753
420 7.41593
425 7.531
430 7.03003
435 6.55644
440 7.24392
445 9.0394
450 8.95019
455 7.55164
460 6.571
465 6.00771
470 5.71196
475 5.31949
480 5.01201
485 4.96608
490 4.60018
495 4.13485
500 4.00703
505 3.78279
510 3.3863
515 3.23567
520 2.84294
525 2.57805
530 2.36368
535 2.27819
540 2.03166
545 1.68107
550 1.61834
555 1.38774
560 1.22056
565 1.20596
570 1.00978
575 0.793212
580 0.690364
585 0.541143
590 0.390162
595 0.331455
600 0.107047
Ex : 403
200 0.10726
205 0.125768
210 0.114346
215 0.126966
220 0.110898
225 0.0811482
230 0.132422
235 0.127105
240 0.117412
245 0.105097
250 0.0985624
255 0.10894
260 0.139163
265 0.136077
270 0.171942
275 0.177973
280 0.089418
285 0.0844667
290 0.0745359
295 0.166363
300 0.14873
305 0.145846
310 0.216
315 0.179778
320 0.138662
325 0.151481
330 0.133531
335 0.141172
340 0.159872
345 0.135758
350 0.116914
355 0.167873
360 0.141469
365 0.179189
370 0.227786
375 0.220912
380 0.2842
385 0.482611
390 6.46379
395 105.432
400 166.646
405 47.1377
410 8.42442
415 4.35564
420 4.6266
425 4.85185
430 4.42642
435 4.33835
440 4.25726
445 4.92676
450 6.9969
455 7.24267
460 6.0341
465 5.02351
470 4.81028
475 4.43458
480 4.33593
485 4.09861
490 3.81823
495 3.87169
500 3.72892
505 3.38783
510 3.31408
515 2.98413
520 2.67674
525 2.37686
530 2.28273
535 2.07355
540 1.88133
545 1.80371
550 1.55843
555 1.49205
560 1.25183
565 1.07239
570 0.883873
575 0.782001
580 0.699898
585 0.499803
590 0.388869
595 0.35759
600 0.137811
Ex : 408
200 0.161764
205 0.136781
210 0.142528
215 0.136006
220 0.117026
225 0.142188
230 0.104852
235 0.111033
240 0.126253
245 0.104731
250 0.128083
255 0.0974609
260 0.0977507
265 0.117644
270 0.132912
275 0.136453
280 0.142242
285 0.112341
290 0.109615
295 0.144654
300 0.115744
305 0.128564
310 0.10427
315 0.159854
320 0.167982
325 0.177053
330 0.121139
335 0.138232
340 0.123778
345 0.178409
350 0.144758
355 0.130817
360 0.182737
365 0.169528
370 0.182123
375 0.158961
380 0.21763
385 0.243446
390 0.427195
395 6.43773
400 117.031
405 176.266
410 47.8119
415 7.6043
420 3.27983
425 2.85467
430 3.0338
435 3.00406
440 2.91889
445 3.05606
450 3.28767
455 4.87535
460 6.33053
465 5.01285
470 4.37117
475 4.07196
480 3.8723
485 3.58269
490 3.40991
495 3.49598
500 3.1862
505 3.0298
510 2.92451
515 2.78302
520 2.52363
525 2.34806
530 2.16161
535 2.01356
540 1.74701
545 1.82335
550 1.49162
555 1.38795
560 1.21178
565 0.994127
570 0.864766
575 0.825423
580 0.634175
585 0.502767
590 0.479429
595 0.368926
600 0.823398
Ex : 413
200 0.104117
205 0.115652
210 0.122799
215 0.130816
220 0.185807
225 0.109622
230 0.109687
235 0.117002
240 0.121182
245 0.121288
250 0.115906
255 0.110685
260 0.135252
265 0.119976
270 0.130268
275 0.120536
280 0.134724
285 0.138598
290 0.11738
295 0.116733
300 0.129561
305 0.118686
310 0.137907
315 0.166726
320 0.124144
325 0.150603
330 0.137839
335 0.164621
340 0.121349
345 0.136606
350 0.13546
355 0.124184
360 0.129168
365 0.169576
370 0.111188
375 0.156887
380 0.181425
385 0.17681
390 0.245223
395 0.438515
400 6.94992
405 113.7
410 178.587
415 46.714
420 6.90714
425 2.4025
430 2.03572
435 2.24738
440 2.44531
445 2.11169
450 2.04865
455 2.43587
460 3.6506
465 5.47097
470 4.90807
475 3.90334
480 3.46868
485 3.16054
490 3.21269
495 3.11574
500 2.89595
505 2.77953
510 2.64707
515 2.59224
520 2.27937
525 2.28179
530 1.96239
535 1.8293
540 1.59968
545 1.66098
550 1.33427
555 1.31552
560 1.13274
565 0.997544
570 0.913874
575 0.743531
580 0.624687
585 0.486296
590 0.370283
595 0.302856
600 0.14967
Ex : 418
200 0.120813
205 0.111056
210 0.111778
215 0.0988026
220 0.100681
225 0.104731
230 0.132251
235 0.205041
240 0.13796
245 0.0974919
250 0.0939615
255 0.149408
260 0.134826
265 0.174962
270 0.117112
275 0.155049
280 0.105803
285 0.116563
290 0.0831408
295 0.100496
300 0.125875
305 0.0916434
310 0.101938
315 0.212776
320 0.157883
325 0.17438
330 0.126228
335 0.13507
340 0.147469
345 0.161267
350 0.119314
355 0.149922
360 0.169792
365 0.148857
370 0.166994
375 0.155969
380 0.16936
385 0.170829
390 0.152718
395 0.218901
400 0.408674
405 6.16709
410 114.792
415 185.282
420 50.0072
425 6.84619
430 1.97981
435 1.38866
440 1.84001
445 1.80533
450 1.57752
455 1.70622
460 2.00029
465 2.67856
470 4.67775
475 4.93425
480 3.68288
485 3.30708
490 2.93937
495 2.82827
500 2.60039
505 2.6974
510 2.55406
515 2.26252
520 2.10392
525 2.03903
530 1.87906
535 1.75078
540 1.54546
545 1.34718
550 1.27942
555 1.17468
560 1.14646
565 0.907495
570 0.887853
575 0.708687
580 0.531443
585 0.494759
590 0.406942
595 0.349195
600 0.217561
Ex : 423
200 0.0660217
205 0.119574
210 0.106629
215 0.0997307
220 0.118923
225 0.147276
230 0.123032
235 0.0956436
240 0.104037
245 0.156407
250 0.156118
255 0.113759
260 0.137456
265 0.106761
270 0.124055
275 0.194832
280 0.107675
285 0.112745
290 0.177524
295 0.0980462
300 0.108904
305 0.102954
310 0.109997
315 0.0945052
320 0.0951118
325 0.168187
330 0.170627
335 0.101935
340 0.113819
345 0.124983
350 0.157959
355 0.140795
360 0.113549
365 0.157121
370 0.123775
375 0.168552
380 0.124583
385 0.160397
390 0.154177
395 0.20213
400 0.339861
405 0.30539
410 6.67294
415 118.12
420 182.814
425 47.2847
430 6.40061
435 1.72421
440 1.27804
445 1.6301
450 1.7496
455 1.46594
460 1.46613
465 1.68449
470 2.14872
475 4.17594
480 4.80613
485 3.75752
490 3.01018
495 2.86445
500 2.4657
505 2.29882
510 2.26298
515 2.22945
520 2.18145
525 2.00046
530 1.90489
535 1.69253
540 1.64016
545 1.48176
550 1.25454
555 1.14431
560 1.09043
565 0.914226
570 0.858324
575 0.675748
580 0.602501
585 0.481792
590 0.376674
595 0.327567
600 0.118102
Ex : 428
200 0.0852542
205 0.146723
210 0.123901
215 0.124145
220 0.107427
225 0.133058
230 0.106988
235 0.147032
240 0.122825
245 0.1345
250 0.105923
255 0.122511
260 0.138958
265 0.0781307
270 0.117594
275 0.105984
280 0.155432
285 0.13827
290 0.108488
295 0.113757
300 0.130847
305 0.14932
310 0.149661
315 0.182618
320 0.132893
325 0.113936
330 0.125046
335 0.0959873
340 0.15574
345 0.159814
350 0.193967
355 0.187002
360 0.158066
365 0.17324
370 0.154158
375 0.166225
380 0.162754
385 0.146906
390 0.180509
395 0.244246
400 0.249878
405 0.266654
410 0.301466
415 6.42671
420 113.324
425 185.23
430 49.875
435 6.63939
440 1.76643
445 1.3355
450 1.4834
455 1.63144
460 1.46998
465 1.49095
470 1.60054
475 1.85303
480 3.35199
485 4.78881
490 3.69034
495 2.9786
500 2.7233
505 2.45205
510 2.15692
515 1.91953
520 1.91345
525 1.80847
530 1.726
535 1.57517
540 1.50955
545 1.31169
550 1.19918
555 1.1593
560 0.983769
565 0.953357
570 0.744953
575 0.67713
580 0.547924
585 0.417101
590 0.429076
595 0.300423
600 0.333501
Ex : 433
200 0.164525
205 0.149957
210 0.144308
215 0.139117
220 0.149876
225 0.118425
230 0.144525
235 0.120656
240 0.0847208
245 0.136925
250 0.151433
255 0.135189
260 0.120888
265 0.123776
270 0.147044
275 0.151399
280 0.107445
285 0.169552
290 0.110752
295 0.171422
300 0.125069
305 0.120107
310 0.130615
315 0.110045
320 0.151005
325 0.124808
330 0.150944
335 0.158048
340 0.131904
345 0.167281
350 0.188722
355 0.121034
360 0.157097
365 0.185422
370 0.12528
375 0.12422
380 0.129728
385 0.146638
390 0.152316
395 0.123857
400 0.154901
405 0.181939
410 0.267117
415 0.328099
420 8.30517
425 134.607
430 205.621
435 54.0891
440 7.26376
445 1.74495
450 1.07411
455 1.5338
460 1.60342
465 1.50243
470 1.3665
475 1.43944
480 1.75494
485 2.53129
490 4.48974
495 3.88792
500 2.70563
505 2.72345
510 2.21883
515 1.98043
520 1.84918
525 1.6577
530 1.75827
535 1.60579
540 1.46672
545 1.31973
550 1.18966
555 1.16915
560 1.09254
565 1.02015
570 0.800431
575 0.673245
580 0.564178
585 0.521233
590 0.412516
595 0.354971
600 0.560301
Ex : 438
200 0.118125
205 0.0937357
210 0.0674621
215 0.149433
220 0.116495
225 0.127221
230 0.122309
235 0.0852464
240 0.0754416
245 0.0824118
250 0.14162
255 0.168099
260 0.0882004
265 0.0892565
270 0.136446
275 0.161916
280 0.189551
285 0.143575
290 0.123625
295 0.12147
300 0.165128
305 0.123872
310 0.163111
315 0.137736
320 0.150225
325 0.123057
330 0.146689
335 0.134684
340 0.204633
345 0.163599
350 0.138997
355 0.126478
360 0.107874
365 0.131518
370 0.118419
375 0.173748
380 0.155556
385 0.196327
390 0.222603
395 0.137442
400 0.198337
405 0.194747
410 0.165098
415 0.244659
420 0.347264
425 8.22973
430 130.877
435 213.52
440 54.1885
445 7.21606
450 1.82197
455 1.11626
460 1.43472
465 1.66921
470 1.56602
475 1.56049
480 1.4946
485 1.74526
490 2.17974
495 3.79764
500 3.97978
505 2.71821
510 2.43573
515 2.0641
520 1.84809
525 1.71215
530 1.56645
535 1.54194
540 1.42431
545 1.27604
550 1.03805
555 1.0327
560 1.07691
565 0.840391
570 0.751861
575 0.663365
580 0.551509
585 0.432112
590 0.448918
595 0.305013
600 0.402734
Ex : 443
200 0.117614
205 0.0835989
210 0.10987
215 0.0888372
220 0.138178
225 0.13943
230 0.1224
235 0.144632
240 0.127704
245 0.1707
250 0.112185
255 0.114326
260 0.104028
265 0.14524
270 0.140481
275 0.127303
280 0.0899052
285 0.12493
290 0.133562
295 0.139612
300 0.111098
305 0.122895
310 0.130464
315 0.151944
320 0.127162
325 0.12873
330 0.111673
335 0.144756
340 0.131516
345 0.156336
350 0.147189
355 0.15701
360 0.136023
365 0.158131
370 0.154955
375 0.0983519
380 0.176714
385 0.138294
390 0.165448
395 0.18438
400 0.160562
405 0.158561
410 0.205048
415 0.165424
420 0.242343
425 0.350297
430 8.44462
435 145.15
440 227.34
445 59.5719
450 7.83896
455 1.86418
460 1.12073
465 1.44949
470 1.66023
475 1.47306
480 1.34123
485 1.42838
490 1.46753
495 1.84996
500 3.26048
505 4.22152
510 2.86797
515 2.29407
520 2.02368
525 1.79537
530 1.51939
535 1.44364
540 1.36765
545 1.29204
550 1.14465
555 1.20013
560 0.99419
565 0.829584
570 0.753782
575 0.536743
580 0.485615
585 0.377851
590 0.411439
595 0.361165
600 0.244001
Ex : 448
200 0.192256
205 0.113439
210 0.138729
215 0.13878
220 0.119626
225 0.108432
230 0.106324
235 0.123379
240 0.116234
245 0.119838
250 0.126366
255 0.106527
260 0.144893
265 0.113124
270 0.157587
275 0.133017
280 0.130014
285 0.118436
290 0.135861
295 0.134833
300 0.147313
305 0.142959
310 0.104255
315 0.154786
320 0.103705
325 0.142276
330 0.170042
335 0.136734
340 0.0908048
345 0.177634
350 0.202887
355 0.186103
360 0.116067
365 0.11121
370 0.176494
375 0.161636
380 0.143842
385 0.127215
390 0.160615
395 0.193366
400 0.19112
405 0.181348
410 0.149468
415 0.168115
420 0.171372
425 0.231543
430 0.352706
435 9.76573
440 157.833
445 241.075
450 60.9519
455 7.90506
460 1.92169
465 1.3296
470 1.49541
475 1.67491
480 1.6115
485 1.44357
490 1.52904
495 1.50483
500 1.70418
505 2.63727
510 3.77342
515 3.0771
520 2.34398
525 1.85501
530 1.66239
535 1.50487
540 1.42758
545 1.17832
550 1.20725
555 1.12596
560 0.962125
565 0.865517
570 0.78093
575 0.669733
580 0.558623
585 0.502617
590 0.432608
595 0.385084
600 0.187046
Ex : 453
200 0.0828092
205 0.123529
210 0.153469
215 0.161563
220 0.166496
225 0.123139
230 0.120122
235 0.146028
240 0.159536
245 0.164041
250 0.157826
255 0.156015
260 0.105898
265 0.126329
270 0.150232
275 0.140384
280 0.134136
285 0.114611
290 0.148308
295 0.131936
300 0.0886254
305 0.159911
310 0.154712
315 0.116972
320 0.0934013
325 0.146639
330 0.118747
335 0.156665
340 0.140687
345 0.109294
350 0.199193
355 0.168353
360 0.163018
365 0.14229
370 0.120597
375 0.167239
380 0.18686
385 0.200164
390 0.186119
395 0.167545
400 0.145256
405 0.185809
410 0.179158
415 0.137596
420 0.151782
425 0.172156
430 0.265459
435 0.39879
440 11.0825
445 191.746
450 287.653
455 68.4204
460 8.87503
465 2.16912
470 1.27676
475 1.35965
480 1.74364
485 1.66393
490 1.47807
495 1.44322
500 1.61424
505 1.50935
510 1.95527
515 3.40389
520 3.31041
525 2.22996
530 1.84924
535 1.69261
540 1.39683
545 1.22861
550 1.16477
555 1.09411
560 1.00463
565 0.79389
570 0.753334
575 0.656775
580 0.562151
585 0.459044
590 0.480058
595 0.321139
600 0.402767
Ex : 458
200 0.161926
205 0.194654
210 0.108747
215 0.127193
220 0.167765
225 0.111253
230 0.106778
235 0.126976
240 0.139058
245 0.174672
250 0.183363
255 0.125979
260 0.142753
265 0.136682
270 0.147496
275 0.17284
280 0.151839
285 0.11495
290 0.213165
295 0.138483
300 0.0718239
305 0.124096
310 0.133406
315 0.113153
320 0.127626
325 0.178643
330 0.201303
335 0.117944
340 0.11684
345 0.145903
350 0.147704
355 0.126591
360 0.134661
365 0.163671
370 0.121336
375 0.189681
380 0.154988
385 0.174756
390 0.130964
395 0.164083
400 0.156544
405 0.177793
410 0.150585
415 0.231196
420 0.224303
425 0.172173
430 0.213395
435 0.261641
440 0.338976
445 10.6605
450 171.129
455 259.041
460 64.32
465 8.49607
470 2.10364
475 1.26962
480 1.33244
485 1.67316
490 1.66655
495 1.46333
500 1.34342
505 1.32854
510 1.42832
515 1.57638
520 2.77771
525 3.41343
530 2.44698
535 1.91426
540 1.69027
545 1.54546
550 1.24852
555 1.11184
560 1.04149
565 1.00403
570 0.836285
575 0.681504
580 0.52648
585 0.544968
590 0.468229
595 0.411114
600 0.303696
Ex : 463
200 0.133497
205 0.106553
210 0.132266
215 0.1731
220 0.142586
225 0.141779
230 0.152603
235 0.156693
240 0.108256
245 0.132747
250 0.164229
255 0.131671
260 0.14569
265 0.160014
270 0.118501
275 0.140805
280 0.12671
285 0.107816
290 0.109153
295 0.178935
300 0.133245
305 0.141994
310 0.161021
315 0.133597
320 0.136694
325 0.141244
330 0.132016
335 0.10321
340 0.174058
345 0.13115
350 0.118594
355 0.120604
360 0.166219
365 0.122848
370 0.123812
375 0.101551
380 0.10743
385 0.162392
390 0.17898
395 0.157918
400 0.144571
405 0.171062
410 0.149479
415 0.158179
420 0.207075
425 0.105376
430 0.201523
435 0.207987
440 0.269151
445 0.342657
450 11.687
455 195.141
460 280.407
465 68.6662
470 8.92163
475 2.08284
480 1.35833
485 1.2954
490 1.65855
495 1.77341
500 1.45436
505 1.31693
510 1.20067
515 1.27287
520 1.45531
525 2.16559
530 3.19027
535 2.84584
540 2.0454
545 1.53232
550 1.42107
555 1.20801
560 1.11908
565 1.00162
570 0.853107
575 0.799793
580 0.755488
585 0.491696
590 0.447985
595 0.374482
600 0.296963
Ex : 468
200 0.109904
205 0.130231
210 0.0991426
215 0.113856
220 0.092586
225 0.118718
230 0.118404
235 0.101775
240 0.114284
245 0.131559
250 0.104928
255 0.132437
260 0.113776
265 0.111267
270 0.120993
275 0.152231
280 0.115688
285 0.11777
290 0.117314
295 0.159316
300 0.114065
305 0.10106
310 0.167023
315 0.10739
320 0.129424
325 0.167476
330 0.148545
335 0.123858
340 0.157569
345 0.151059
350 0.134827
355 0.159142
360 0.134146
365 0.161193
370 0.122319
375 0.151994
380 0.147274
385 0.142785
390 0.146634
395 0.135409
400 0.155033
405 0.145631
410 0.186637
415 0.170209
420 0.116941
425 0.161817
430 0.178484
435 0.227155
440 0.251879
445 0.280556
450 0.479178
455 13.5567
460 230.121
465 377.721
470 88.6145
475 11.1801
480 2.4518
485 1.4097
490 1.29661
495 1.6088
500 1.64253
505 1.36091
510 1.26132
515 1.37303
520 1.43807
525 1.44423
530 1.77474
535 2.98399
540 2.97004
545 1.90947
550 1.55363
555 1.43607
560 1.22108
565 1.08385
570 0.894492
575 0.754502
580 0.564923
585 0.560711
590 0.402629
595 0.450707
600 0.65497
Ex : 473
200 0.113909
205 0.103543
210 0.131252
215 0.117387
220 0.115058
225 0.163699
230 0.138141
235 0.160646
240 0.184589
245 0.144447
250 0.14404
255 0.117595
260 0.13135
265 0.124032
270 0.141992
275 0.14911
280 0.135825
285 0.144779
290 0.156053
295 0.103091
300 0.113054
305 0.128531
310 0.125149
315 0.0948947
320 0.0920467
325 0.190202
330 0.110987
335 0.127283
340 0.121623
345 0.120642
350 0.161225
355 0.115632
360 0.141872
365 0.129083
370 0.125311
375 0.114107
380 0.117244
385 0.101161
390 0.10846
395 0.178862
400 0.169757
405 0.134181
410 0.115292
415 0.134655
420 0.177898
425 0.20819
430 0.205221
435 0.250748
440 0.230232
445 0.260517
450 0.289085
455 0.503071
460 18.8774
465 268.724
470 340.418
475 81.7953
480 10.4794
485 2.31273
490 1.41294
495 1.13747
500 1.53615
505 1.55739
510 1.42392
515 1.22286
520 1.18866
525 1.353
530 1.32942
535 1.56347
540 2.39481
545 3.01754
550 1.98842
555 1.58356
560 1.35817
565 1.3329
570 1.02314
575 0.760825
580 0.646773
585 0.553561
590 0.416173
595 0.366716
600 0.349865
Ex : 478
200 0.199088
205 0.162672
210 0.217306
215 0.135971
220 0.123133
225 0.102677
230 0.163371
235 0.13038
240 0.131317
245 0.155619
250 0.180771
255 0.245033
260 0.215948
265 0.159775
270 0.216208
275 0.179039
280 0.123514
285 0.175801
290 0.168699
295 0.207709
300 0.189351
305 0.13302
310 0.185229
315 0.158486
320 0.209078
325 0.193173
330 0.154276
335 0.170665
340 0.158288
345 0.196738
350 0.153127
355 0.183119
360 0.167416
365 0.13842
370 0.166593
375 0.182182
380 0.131377
385 0.115914
390 0.175852
395 0.126021
400 0.20627
405 0.187984
410 0.150627
415 0.199446
420 0.14259
425 0.16018
430 0.199129
435 0.191131
440 0.214917
445 0.286413
450 0.292343
455 0.294776
460 0.651202
465 17.0484
470 218.862
475 312.526
480 81.8517
485 10.5029
490 2.36301
495 1.29243
500 1.09967
505 1.31492
510 1.49219
515 1.38157
520 1.36384
525 1.32527
530 1.29462
535 1.37343
540 1.36602
545 1.83717
550 2.63915
555 2.39726
560 1.51798
565 1.41725
570 1.12015
575 0.961814
580 0.634564
585 0.495585
590 0.471545
595 0.442181
600 0.277311
Ex : 483
200 0.141093
205 0.151494
210 0.138403
215 0.154058
220 0.187564
225 0.181913
230 0.162209
235 0.139536
240 0.167051
245 0.181372
250 0.194376
255 0.211278
260 0.152413
265 0.142178
270 0.140915
275 0.175665
280 0.16899
285 0.171019
290 0.158953
295 0.155888
300 0.2032
305 0.180867
310 0.126759
315 0.200304
320 0.190859
325 0.194807
330 0.13415
335 0.17555
340 0.142717
345 0.217902
350 0.190168
355 0.144044
360 0.131769
365 0.212535
370 0.163218
375 0.233467
380 0.22333
385 0.194243
390 0.198683
395 0.210845
400 0.182091
405 0.197477
410 0.186758
415 0.213039
420 0.168023
425 0.201231
430 0.228451
435 0.191885
440 0.211611
445 0.178559
450 0.269174
455 0.274394
460 0.423074
465 0.574309
470 16.9366
475 269.442
480 386.612
485 86.7387
490 11.0316
495 2.38915
500 1.27676
505 1.0687
510 1.37573
515 1.52608
520 1.36
525 1.33666
530 1.24742
535 1.25464
540 1.14773
545 1.24749
550 1.41622
555 2.25746
560 2.46029
565 1.54837
570 1.16522
575 0.975321
580 0.856595
585 0.614809
590 0.479161
595 0.462634
600 0.889956
Ex : 488
200 0.152462
205 0.161361
210 0.203775
215 0.139384
220 0.111696
225 0.131941
230 0.227318
235 0.172524
240 0.211672
245 0.135352
250 0.173312
255 0.145199
260 0.134281
265 0.13554
270 0.208297
275 0.168416
280 0.160814
285 0.151889
290 0.125997
295 0.16648
300 0.148315
305 0.216928
310 0.222967
315 0.161605
320 0.150357
325 0.163776
330 0.159943
335 0.206216
340 0.264473
345 0.138752
350 0.145844
355 0.135954
360 0.216586
365 0.144654
370 0.178143
375 0.160868
380 0.145233
385 0.163643
390 0.197898
395 0.171993
400 0.246988
405 0.181387
410 0.173508
415 0.157038
420 0.147391
425 0.260027
430 0.179498
435 0.278923
440 0.223277
445 0.20768
450 0.221243
455 0.31892
460 0.381203
465 0.50826
470 0.634899
475 20.4378
480 275.476
485 360.052
490 82.995
495 10.5712
500 2.36099
505 1.25916
510 1.15599
515 1.28109
520 1.43764
525 1.48833
530 1.28353
535 1.24885
540 1.15956
545 1.21836
550 1.21835
555 1.28289
560 1.85137
565 2.23177
570 1.53364
575 1.07332
580 0.809378
585 0.68337
590 0.457229
595 0.424068
600 0.515219
Ex : 493
200 0.204087
205 0.149525
210 0.159949
215 0.15294
220 0.153104
225 0.134475
230 0.111423
235 0.123817
240 0.153013
245 0.154846
250 0.191483
255 0.153085
260 0.186759
265 0.119515
270 0.129866
275 0.146917
280 0.205048
285 0.208448
290 0.239139
295 0.157719
300 0.162771
305 0.15887
310 0.149419
315 0.168915
320 0.216388
325 0.227603
330 0.192246
335 0.18036
340 0.177107
345 0.151717
350 0.189587
355 0.137061
360 0.148826
365 0.180883
370 0.186435
375 0.174679
380 0.151463
385 0.154134
390 0.179662
395 0.177373
400 0.173923
405 0.213616
410 0.160965
415 0.209535
420 0.26125
425 0.14462
430 0.177008
435 0.274551
440 0.187792
445 0.213303
450 0.237381
455 0.267077
460 0.244824
465 0.38885
470 0.408495
475 0.655429
480 18.3528
485 391.583
490 565.549
495 118.152
500 14.5069
505 2.85983
510 1.40838
515 1.10918
520 1.23654
525 1.50442
530 1.39769
535 1.41933
540 1.31821
545 1.1815
550 1.17148
555 1.17038
560 1.13366
565 1.38944
570 2.11552
575 1.78909
580 1.02941
585 0.680589
590 0.665984
595 0.466186
600 0.584772
Ex : 498
200 0.165891
205 0.210259
210 0.118452
215 0.190915
220 0.217407
225 0.28236
230 0.219511
235 0.21343
240 0.167266
245 0.135309
250 0.181892
255 0.183919
260 0.221609
265 0.178819
270 0.164959
275 0.183942
280 0.272287
285 0.159063
290 0.20849
295 0.184982
300 0.258267
305 0.195851
310 0.21469
315 0.146794
320 0.16273
325 0.214793
330 0.239534
335 0.176746
340 0.16216
345 0.189219
350 0.190164
355 0.174269
360 0.241426
365 0.199668
370 0.253855
375 0.177565
380 0.230579
385 0.182101
390 0.23087
395 0.214724
400 0.215309
405 0.200461
410 0.210372
415 0.205922
420 0.268561
425 0.171216
430 0.226309
435 0.234074
440 0.190022
445 0.236018
450 0.217592
455 0.289894
460 0.316316
465 0.322834
470 0.369729
475 0.513011
480 0.817817
485 26.5993
490 384.959
495 480.816
500 114.274
505 14.1218
510 2.74371
515 1.61609
520 1.20789
525 1.32293
530 1.53776
535 1.52098
540 1.30655
545 1.12021
550 1.04509
555 1.00062
560 1.02994
565 0.990272
570 1.09048
575 1.38323
580 1.63175
585 0.936093
590 0.646683
595 0.536011
600 1.26106
Ex : 503
200 0.220823
205 0.180623
210 0.201678
215 0.177174
220 0.176134
225 0.213337
230 0.179627
235 0.286536
240 0.183702
245 0.19008
250 0.208214
255 0.205133
260 0.164535
265 0.164939
270 0.172605
275 0.13626
280 0.144586
285 0.209802
290 0.243247
295 0.226544
300 0.182737
305 0.187457
310 0.164739
315 0.176361
320 0.222261
325 0.236258
330 0.225916
335 0.193614
340 0.209876
345 0.219942
350 0.175361
355 0.190095
360 0.153078
365 0.196977
370 0.191987
375 0.183783
380 0.228498
385 0.188004
390 0.217641
395 0.171596
400 0.264769
405 0.203485
410 0.180416
415 0.208533
420 0.151338
425 0.229246
430 0.27979
435 0.198899
440 0.170677
445 0.235913
450 0.262184
455 0.295274
460 0.325548
465 0.295024
470 0.332327
475 0.329463
480 0.470476
485 0.669653
490 18.1836
495 301.52
500 433.756
505 101.553
510 12.8094
515 2.46707
520 1.36552
525 1.05058
530 1.20703
535 1.45724
540 1.29132
545 1.24475
550 1.23177
555 0.987483
560 0.972298
565 0.912116
570 0.822883
575 0.814067
580 1.1083
585 1.31874
590 0.908455
595 0.559919
600 0.175943
Ex : 508
200 0.292688
205 0.264095
210 0.186187
215 0.156432
220 0.1574
225 0.185514
230 0.172447
235 0.216773
240 0.164676
245 0.250938
250 0.195837
255 0.15876
260 0.211376
265 0.167137
270 0.164488
275 0.173912
280 0.175861
285 0.266638
290 0.268172
295 0.239545
300 0.248497
305 0.208401
310 0.195826
315 0.216078
320 0.267082
325 0.225635
330 0.251111
335 0.20277
340 0.172449
345 0.143822
350 0.166867
355 0.178579
360 0.174147
365 0.270235
370 0.199391
375 0.170939
380 0.243086
385 0.194996
390 0.234635
395 0.218772
400 0.207148
405 0.192346
410 0.235382
415 0.20137
420 0.267596
425 0.314141
430 0.245103
435 0.199087
440 0.182036
445 0.310861
450 0.263876
455 0.313052
460 0.349633
465 0.323049
470 0.279304
475 0.314794
480 0.481975
485 0.685666
490 0.809488
495 28.8455
500 341.342
505 479.938
510 118.65
515 14.6487
520 2.81746
525 1.53184
530 1.29405
535 1.17312
540 1.2273
545 1.33034
550 1.18769
555 1.25531
560 1.00571
565 0.927434
570 0.814308
575 0.678063
580 0.735822
585 0.726186
590 0.99075
595 0.925121
600 1.01171
Ex : 513
200 0.186135
205 0.343347
210 0.243511
215 0.237229
220 0.274564
225 0.204559
230 0.206233
235 0.201403
240 0.215494
245 0.230278
250 0.171976
255 0.175865
260 0.202349
265 0.178814
270 0.235944
275 0.280448
280 0.240357
285 0.271606
290 0.251639
295 0.215623
300 0.184123
305 0.198233
310 0.173053
315 0.223249
320 0.223035
325 0.204487
330 0.280485
335 0.260705
340 0.242692
345 0.208841
350 0.189457
355 0.170615
360 0.168732
365 0.219925
370 0.169656
375 0.152167
380 0.214514
385 0.27369
390 0.222326
395 0.174684
400 0.169541
405 0.27839
410 0.20716
415 0.240795
420 0.208255
425 0.236202
430 0.27359
435 0.183271
440 0.221477
445 0.231971
450 0.262572
455 0.24953
460 0.248154
465 0.293047
470 0.303554
475 0.261969
480 0.323693
485 0.372724
490 0.488334
495 0.697539
500 20.6235
505 320.25
510 508.823
515 124.039
520 15.4639
525 2.75709
530 1.3507
535 1.18255
540 1.06779
545 1.19416
550 1.20208
555 1.10815
560 1.02609
565 0.97668
570 0.799075
575 0.695148
580 0.626064
585 0.637911
590 0.466372
595 0.772473
600 0.574286
Ex : 518
200 0.238531
205 0.210493
210 0.220367
215 0.223528
220 0.225846
225 0.211565
230 0.211428
235 0.255891
240 0.223505
245 0.23751
250 0.160528
255 0.222292
260 0.185232
265 0.198462
270 0.231432
275 0.209281
280 0.227721
285 0.243072
290 0.231777
295 0.327552
300 0.331792
305 0.221004
310 0.16763
315 0.168559
320 0.211919
325 0.259915
330 0.182547
335 0.221778
340 0.292057
345 0.190902
350 0.245641
355 0.254218
360 0.216909
365 0.192994
370 0.198531
375 0.214908
380 0.180376
385 0.216325
390 0.233261
395 0.22867
400 0.231561
405 0.286987
410 0.247254
415 0.231878
420 0.17268
425 0.224089
430 0.228411
435 0.302778
440 0.253941
445 0.297851
450 0.233458
455 0.304545
460 0.191567
465 0.272408
470 0.363848
475 0.280552
480 0.339555
485 0.344532
490 0.389505
495 0.516021
500 0.90408
505 23.6448
510 296.528
515 406.496
520 97.3909
525 12.3022
530 2.43092
535 1.26203
540 1.2587
545 1.03684
550 1.03436
555 1.01367
560 0.967142
565 0.828116
570 0.854189
575 0.657587
580 0.563029
585 0.605289
590 0.406772
595 0.457186
600 0.849609
Ex : 523
200 0.221059
205 0.151081
210 0.231537
215 0.203924
220 0.185106
225 0.197779
230 0.33961
235 0.204363
240 0.234387
245 0.170364
250 0.178672
255 0.245478
260 0.25628
265 0.28307
270 0.266524
275 0.145339
280 0.207942
285 0.221878
290 0.224022
295 0.170321
300 0.176006
305 0.242886
310 0.255917
315 0.249413
320 0.250064
325 0.221128
330 0.224654
335 0.24196
340 0.257997
345 0.268857
350 0.269506
355 0.272151
360 0.229734
365 0.210581
370 0.180377
375 0.137206
380 0.202865
385 0.18219
390 0.154734
395 0.226096
400 0.15878
405 0.218817
410 0.208863
415 0.214058
420 0.149496
425 0.309341
430 0.311303
435 0.181235
440 0.24506
445 0.298939
450 0.246381
455 0.386364
460 0.236875
465 0.235764
470 0.278778
475 0.269527
480 0.317437
485 0.310037
490 0.353268
495 0.515699
500 0.507265
505 0.817253
510 17.8266
515 295.854
520 660.637
525 173.905
530 21.1966
535 3.5879
540 1.57528
545 1.09487
550 0.832302
555 0.992748
560 1.13897
565 1.0302
570 0.925295
575 0.653714
580 0.609152
585 0.536236
590 0.529922
595 0.411173
600 0.355224
Ex : 528
200 0.198379
205 0.226175
210 0.210653
215 0.175146
220 0.184047
225 0.188829
230 0.177967
235 0.253321
240 0.202966
245 0.209449
250 0.283956
255 0.24505
260 0.211913
265 0.198894
270 0.18589
275 0.294861
280 0.256107
285 0.188278
290 0.315395
295 0.252845
300 0.252945
305 0.187124
310 0.173442
315 0.2501
320 0.207863
325 0.228013
330 0.17652
335 0.202069
340 0.16929
345 0.223199
350 0.229109
355 0.258905
360 0.305079
365 0.346302
370 0.249415
375 0.237335
380 0.325714
385 0.2781
390 0.229663
395 0.239196
400 0.195256
405 0.27169
410 0.314567
415 0.211954
420 0.188387
425 0.320638
430 0.228131
435 0.206666
440 0.256103
445 0.173354
450 0.293967
455 0.241331
460 0.190571
465 0.234453
470 0.252915
475 0.32062
480 0.283011
485 0.305141
490 0.231309
495 0.350469
500 0.517532
505 0.553755
510 0.708905
515 19.4669
520 335.874
525 538.145
530 136.352
535 16.7698
540 2.88711
545 1.24436
550 0.917275
555 0.736024
560 0.882635
565 1.03548
570 0.87445
575 0.739575
580 0.670807
585 0.615154
590 0.565979
595 0.399885
600 0.0455053
Ex : 533
200 0.248162
205 0.185211
210 0.168851
215 0.212337
220 0.270257
225 0.272385
230 0.261284
235 0.187762
240 0.207304
245 0.182607
250 0.159709
255 0.257153
260 0.1826
265 0.258633
270 0.288917
275 0.272636
280 0.171557
285 0.19812
290 0.282939
295 0.184482
300 0.242964
305 0.257524
310 0.193392
315 0.196399
320 0.211273
325 0.220072
330 0.15934
335 0.29285
340 0.217877
345 0.216869
350 0.221143
355 0.290738
360 0.318896
365 0.236109
370 0.243151
375 0.226323
380 0.322567
385 0.239426
390 0.249964
395 0.215748
400 0.206953
405 0.220236
410 0.278806
415 0.208368
420 0.233922
425 0.261196
430 0.225946
435 0.243995
440 0.233555
445 0.284028
450 0.287488
455 0.30804
460 0.263784
465 0.250149
470 0.292704
475 0.34117
480 0.272153
485 0.282022
490 0.382139
495 0.428319
500 0.357838
505 0.453413
510 0.577177
515 0.94943
520 28.5858
525 425.861
530 540.724
535 136.724
540 16.8503
545 2.83589
550 1.17549
555 0.975688
560 0.855089
565 0.857546
570 0.777794
575 0.673195
580 0.653467
585 0.619984
590 0.547318
595 0.48666
600 0.0553801
Ex : 538
200 0.222936
205 0.263382
210 0.229965
215 0.228945
220 0.181285
225 0.260073
230 0.21017
235 0.175273
240 0.256397
245 0.25986
250 0.181954
255 0.218237
260 0.34045
265 0.237461
270 0.175029
275 0.241526
280 0.384677
285 0.26228
290 0.22831
295 0.270665
300 0.262798
305 0.27961
310 0.226793
315 0.190534
320 0.229527
325 0.241106
330 0.253027
335 0.23415
340 0.271788
345 0.244267
350 0.26421
355 0.252561
360 0.254901
365 0.22543
370 0.237571
375 0.17269
380 0.32004
385 0.306825
390 0.339537
395 0.22908
400 0.250347
405 0.263035
410 0.203027
415 0.220409
420 0.225378
425 0.233428
430 0.181286
435 0.318757
440 0.240481
445 0.209661
450 0.271027
455 0.254602
460 0.2942
465 0.279583
470 0.234081
475 0.365106
480 0.277102
485 0.268885
490 0.310476
495 0.277463
500 0.353331
505 0.360886
510 0.442263
515 0.472554
520 0.689114
525 16.2437
530 313.548
535 547.025
540 154.713
545 19.099
550 3.07026
555 1.19544
560 0.940097
565 0.791282
570 0.623636
575 0.654335
580 0.639304
585 0.516599
590 0.526644
595 0.517211
600 0.317532
Ex : 543
200 0.283165
205 0.225889
210 0.220991
215 0.199266
220 0.216518
225 0.209294
230 0.232405
235 0.219049
240 0.234759
245 0.203082
250 0.177661
255 0.226344
260 0.259309
265 0.274828
270 0.257459
275 0.207249
280 0.249422
285 0.265538
290 0.269856
295 0.226153
300 0.273792
305 0.317772
310 0.375413
315 0.302178
320 0.273669
325 0.283183
330 0.249739
335 0.23611
340 0.260855
345 0.213118
350 0.235163
355 0.138273
360 0.25671
365 0.219155
370 0.226017
375 0.251464
380 0.223039
385 0.245935
390 0.188592
395 0.213085
400 0.345093
405 0.307383
410 0.191084
415 0.265789
420 0.235515
425 0.240357
430 0.285092
435 0.2249
440 0.225915
445 0.274156
450 0.28849
455 0.204641
460 0.242315
465 0.316564
470 0.245691
475 0.309671
480 0.305435
485 0.295682
490 0.381585
495 0.320398
500 0.368463
505 0.292123
510 0.401929
515 0.507577
520 0.603081
525 0.852772
530 16.7568
535 430.905
540 638.915
545 157.396
550 19.4961
555 2.94191
560 1.13344
565 0.878396
570 0.677501
575 0.612157
580 0.625005
585 0.685327
590 0.624258
595 0.470706
600 0.595133
Ex : 548
200 0.255498
205 0.280419
210 0.231782
215 0.349426
220 0.245669
225 0.321668
230 0.306191
235 0.245273
240 0.32529
245 0.308878
250 0.286789
255 0.24969
260 0.272708
265 0.277958
270 0.248584
275 0.291231
280 0.269099
285 0.188191
290 0.168454
295 0.194092
300 0.245787
305 0.232013
310 0.203205
315 0.296995
320 0.269204
325 0.260745
330 0.257119
335 0.195899
340 0.23468
345 0.210437
350 0.243118
355 0.243033
360 0.191019
365 0.243167
370 0.240725
375 0.212311
380 0.340696
385 0.357677
390 0.270396
395 0.215996
400 0.337371
405 0.293436
410 0.306723
415 0.388925
420 0.198208
425 0.240633
430 0.260144
435 0.232526
440 0.203338
445 0.334271
450 0.425715
455 0.293189
460 0.287936
465 0.290964
470 0.327704
475 0.276606
480 0.221949
485 0.334038
490 0.345989
495 0.378785
500 0.376697
505 0.399573
510 0.327794
515 0.368167
520 0.500323
525 0.672183
530 0.827332
535 18.4654
540 334.595
545 542.029
550 148.887
555 18.1925
560 2.80626
565 1.23186
570 0.899059
575 0.772168
580 0.600592
585 0.454583
590 0.640606
595 0.426944
600 1.81075
Ex : 553
200 0.219086
205 0.29381
210 0.326268
215 0.234243
220 0.205118
225 0.320406
230 0.233116
235 0.222209
240 0.237381
245 0.25887
250 0.264221
255 0.271113
260 0.220628
265 0.236036
270 0.213041
275 0.221164
280 0.184095
285 0.229402
290 0.212812
295 0.207229
300 0.213661
305 0.239302
310 0.307236
315 0.325723
320 0.299978
325 0.352504
330 0.271385
335 0.345394
340 0.345303
345 0.29444
350 0.205437
355 0.311724
360 0.295858
365 0.299204
370 0.273958
375 0.203105
380 0.240099
385 0.288446
390 0.473069
395 0.344831
400 0.295563
405 0.231747
410 0.282708
415 0.192759
420 0.297844
425 0.235157
430 0.297967
435 0.252282
440 0.304139
445 0.309476
450 0.197092
455 0.378777
460 0.241476
465 0.335118
470 0.333371
475 0.269866
480 0.270342
485 0.29741
490 0.37565
495 0.42047
500 0.329782
505 0.315409
510 0.362211
515 0.310364
520 0.383786
525 0.392538
530 0.5963
535 0.730984
540 15.6499
545 319.787
550 604.037
555 159.36
560 19.404
565 3.07962
570 0.982971
575 0.742555
580 0.547067
585 0.540034
590 0.500027
595 0.423426
600 0.310954
Ex : 558
200 0.319219
205 0.20159
210 0.288904
215 0.264625
220 0.23182
225 0.293858
230 0.313996
235 0.277098
240 0.252248
245 0.261652
250 0.277124
255 0.270317
260 0.259142
265 0.240557
270 0.269241
275 0.242998
280 0.238537
285 0.286005
290 0.288418
295 0.187807
300 0.200125
305 0.309536
310 0.397412
315 0.297126
320 0.29539
325 0.308345
330 0.280903
335 0.301524
340 0.302276
345 0.292745
350 0.348194
355 0.296362
360 0.213271
365 0.266383
370 0.220942
375 0.24083
380 0.248989
385 0.267129
390 0.270703
395 0.279337
400 0.284365
405 0.255033
410 0.304855
415 0.269961
420 0.211277
425 0.2393
430 0.22748
435 0.234985
440 0.2988
445 0.288779
450 0.203113
455 0.347581
460 0.366669
465 0.318225
470 0.311681
475 0.239819
480 0.35472
485 0.392572
490 0.350216
495 0.281498
500 0.274354
505 0.268599
510 0.320712
515 0.448514
520 0.480071
525 0.35966
530 0.495391
535 0.528057
540 0.725414
545 15.8559
550 345.414
555 559.358
560 150.291
565 18.317
570 2.77192
575 0.913082
580 0.712517
585 0.464628
590 0.407869
595 0.459338
600 0.163046
Ex : 563
200 0.31275
205 0.342256
210 0.201651
215 0.341847
220 0.271743
225 0.235442
230 0.24254
235 0.221116
240 0.239138
245 0.262958
250 0.29266
255 0.329062
260 0.304326
265 0.313164
270 0.283598
275 0.458725
280 0.217272
285 0.202525
290 0.168963
295 0.260329
300 0.224732
305 0.221306
310 0.283167
315 0.301568
320 0.439428
325 0.180881
330 0.359407
335 0.24723
340 0.3348
345 0.305127
350 0.284179
355 0.345663
360 0.324667
365 0.217574
370 0.390189
375 0.381934
380 0.343857
385 0.301437
390 0.290032
395 0.308238
400 0.247349
405 0.342709
410 0.34352
415 0.278721
420 0.248526
425 0.344005
430 0.324954
435 0.330093
440 0.278303
445 0.438389
450 0.255044
455 0.336041
460 0.378956
465 0.257353
470 0.331238
475 0.332654
480 0.245749
485 0.284092
490 0.263995
495 0.334364
500 0.313563
505 0.347566
510 0.273203
515 0.365807
520 0.33929
525 0.384494
530 0.357323
535 0.461924
540 0.582824
545 0.818532
550 20.6072
555 316.425
560 516.633
565 141.68
570 17.1535
575 2.46458
580 0.8164
585 0.705233
590 0.482491
595 0.443099
600 0.327702
Ex : 568
200 0.359756
205 0.229333
210 0.292737
215 0.33809
220 0.253542
225 0.250778
230 0.22824
235 0.254403
240 0.232092
245 0.321631
250 0.250052
255 0.270668
260 0.240964
265 0.2244
270 0.194427
275 0.342351
280 0.307348
285 0.339646
290 0.372189
295 0.245832
300 0.218207
305 0.342537
310 0.288913
315 0.306341
320 0.277654
325 0.207037
330 0.397391
335 0.453808
340 0.364395
345 0.272169
350 0.33042
355 0.29969
360 0.261781
365 0.354571
370 0.276597
375 0.253163
380 0.405103
385 0.35005
390 0.293211
395 0.269932
400 0.318849
405 0.207838
410 0.327594
415 0.388031
420 0.425303
425 0.365753
430 0.310172
435 0.363585
440 0.340977
445 0.328333
450 0.406615
455 0.280823
460 0.315688
465 0.339715
470 0.335655
475 0.324611
480 0.344704
485 0.338632
490 0.362822
495 0.353761
500 0.407226
505 0.404935
510 0.282383
515 0.27952
520 0.293883
525 0.297543
530 0.345087
535 0.58698
540 0.48356
545 0.492736
550 0.686443
555 11.9067
560 237.918
565 485.902
570 179.568
575 21.7608
580 3.09261
585 0.816481
590 0.622972
595 0.529099
600 1.02074
Ex : 573
200 0.403748
205 0.387053
210 0.300615
215 0.185422
220 0.191812
225 0.273267
230 0.236268
235 0.256263
240 0.32783
245 0.275445
250 0.344073
255 0.285423
260 0.320076
265 0.265563
270 0.20365
275 0.332927
280 0.256348
285 0.312101
290 0.230912
295 0.278678
300 0.378263
305 0.330263
310 0.235703
315 0.337766
320 0.388552
325 0.228273
330 0.239796
335 0.328395
340 0.284846
345 0.284237
350 0.243573
355 0.312684
360 0.287843
365 0.284338
370 0.323934
375 0.301676
380 0.35935
385 0.303331
390 0.396928
395 0.274879
400 0.263315
405 0.217549
410 0.33986
415 0.250221
420 0.240025
425 0.353196
430 0.289543
435 0.371277
440 0.265021
445 0.31117
450 0.30639
455 0.240604
460 0.368519
465 0.38033
470 0.363667
475 0.367305
480 0.345169
485 0.331167
490 0.229898
495 0.324693
500 0.298518
505 0.377818
510 0.408258
515 0.45553
520 0.465642
525 0.354639
530 0.380309
535 0.421506
540 0.341681
545 0.428067
550 0.609484
555 0.677216
560 9.55091
565 213.633
570 455.521
575 158.32
580 19.4759
585 2.8651
590 0.793741
595 0.542795
600 0.35132
Ex : 578
200 0.272285
205 0.354924
210 0.332845
215 0.338124
220 0.237603
225 0.192172
230 0.359511
235 0.258636
240 0.230605
245 0.231273
250 0.175869
255 0.335172
260 0.276586
265 0.196878
270 0.340015
275 0.38179
280 0.315769
285 0.191924
290 0.306043
295 0.247382
300 0.27004
305 0.324494
310 0.312685
315 0.355989
320 0.239013
325 0.397748
330 0.352988
335 0.440254
340 0.299136
345 0.309646
350 0.268395
355 0.243029
360 0.193311
365 0.300403
370 0.390114
375 0.229724
380 0.326808
385 0.374439
390 0.225454
395 0.258845
400 0.303981
405 0.336426
410 0.140723
415 0.391825
420 0.365072
425 0.354576
430 0.31218
435 0.290677
440 0.251922
445 0.381392
450 0.359077
455 0.268101
460 0.279618
465 0.257604
470 0.240192
475 0.317484
480 0.286897
485 0.341117
490 0.300934
495 0.398846
500 0.289762
505 0.36262
510 0.322218
515 0.314497
520 0.326805
525 0.390571
530 0.336791
535 0.334736
540 0.354469
545 0.418678
550 0.417339
555 0.509934
560 0.632119
565 8.74201
570 217.317
575 553.94
580 215.83
585 26.0373
590 3.56102
595 0.889648
600 0.191667
Ex : 583
200 0.422193
205 0.404576
210 0.273628
215 0.277906
220 0.325693
225 0.264438
230 0.228935
235 0.185655
240 0.311878
245 0.256524
250 0.29142
255 0.308401
260 0.247151
265 0.399787
270 0.225319
275 0.227332
280 0.318155
285 0.276856
290 0.408502
295 0.234419
300 0.266832
305 0.324974
310 0.275437
315 0.291992
320 0.341337
325 0.291241
330 0.300576
335 0.300169
340 0.310995
345 0.32747
350 0.316589
355 0.340682
360 0.294977
365 0.444049
370 0.292816
375 0.422466
380 0.330897
385 0.310869
390 0.265818
395 0.371916
400 0.306475
405 0.298157
410 0.485405
415 0.29051
420 0.302645
425 0.297129
430 0.331715
435 0.279089
440 0.309041
445 0.378955
450 0.237064
455 0.356452
460 0.263521
465 0.27992
470 0.278812
475 0.28082
480 0.317108
485 0.332324
490 0.197624
495 0.361637
500 0.353337
505 0.319814
510 0.293483
515 0.291985
520 0.278908
525 0.331242
530 0.426745
535 0.362123
540 0.408271
545 0.439128
550 0.400382
555 0.367953
560 0.505172
565 0.632349
570 8.99603
575 325.904
580 702.106
585 199.973
590 24.0312
595 3.28257
600 0.656637
Ex : 588
200 0.261819
205 0.365044
210 0.259845
215 0.278288
220 0.362599
225 0.406405
230 0.411027
235 0.362574
240 0.225203
245 0.232985
250 0.393344
255 0.380581
260 0.456911
265 0.301879
270 0.311778
275 0.231731
280 0.287532
285 0.505291
290 0.400078
295 0.26639
300 0.342632
305 0.306634
310 0.303097
315 0.355887
320 0.347503
325 0.242386
330 0.422732
335 0.234119
340 0.247964
345 0.283255
350 0.319634
355 0.305741
360 0.401476
365 0.302316
370 0.357434
375 0.313388
380 0.33905
385 0.354441
390 0.22049
395 0.334075
400 0.215837
405 0.257564
410 0.277636
415 0.327404
420 0.303134
425 0.471811
430 0.232926
435 0.31698
440 0.397264
445 0.304067
450 0.448204
455 0.340103
460 0.300072
465 0.343913
470 0.323315
475 0.365238
480 0.335645
485 0.227036
490 0.238684
495 0.351468
500 0.322011
505 0.265058
510 0.356096
515 0.43131
520 0.32535
525 0.247369
530 0.315844
535 0.526903
540 0.297042
545 0.337692
550 0.322259
555 0.37193
560 0.331314
565 0.59862
570 0.66921
575 10.6697
580 237.006
585 488.887
590 152.647
595 18.1089
600 2.7029
Ex : 593
200 0.582114
205 0.340692
210 0.279619
215 0.235409
220 0.247745
225 0.502779
230 0.33226
235 0.386756
240 0.24708
245 0.236277
250 0.295142
255 0.31398
260 0.226313
265 0.361674
270 0.363838
275 0.290518
280 0.257305
285 0.213487
290 0.218406
295 0.252429
300 0.292395
305 0.274542
310 0.255836
315 0.377014
320 0.173199
325 0.330398
330 0.248345
335 0.31117
340 0.305131
345 0.318052
350 0.287199
355 0.378138
360 0.371147
365 0.267165
370 0.293148
375 0.318022
380 0.331163
385 0.232198
390 0.284318
395 0.320852
400 0.346564
405 0.281449
410 0.270062
415 0.530182
420 0.358774
425 0.317227
430 0.257408
435 0.30694
440 0.238047
445 0.360458
450 0.379669
455 0.428262
460 0.432788
465 0.345183
470 0.40061
475 0.398508
480 0.307124
485 0.34879
490 0.444968
495 0.298167
500 0.272474
505 0.279537
510 0.340361
515 0.302873
520 0.405138
525 0.301908
530 0.375538
535 0.382196
540 0.310391
545 0.386982
550 0.410022
555 0.49883
560 0.358004
565 0.403292
570 0.558613
575 0.615346
580 7.04938
585 191.74
590 524.206
595 182.357
600 26.2634
Ex : 598
200 0.203887
205 0.386824
210 0.224672
215 0.197527
220 0.254801
225 0.307961
230 0.389425
235 0.28689
240 0.208783
245 0.306469
250 0.295474
255 0.269721
260 0.338084
265 0.271255
270 0.293844
275 0.278993
280 0.408251
285 0.424538
290 0.24597
295 0.256467
300 0.298863
305 0.248796
310 0.213843
315 0.214021
320 0.370653
325 0.374631
330 0.409155
335 0.448239
340 0.375311
345 0.414764
350 0.360655
355 0.336554
360 0.24197
365 0.258202
370 0.290874
375 0.485669
380 0.403293
385 0.304914
390 0.297091
395 0.3678
400 0.308649
405 0.281977
410 0.27594
415 0.339421
420 0.313728
425 0.338902
430 0.322778
435 0.451197
440 0.421875
445 0.372727
450 0.311591
455 0.268185
460 0.290851
465 0.239366
470 0.337593
475 0.301467
480 0.299866
485 0.355202
490 0.241579
495 0.271725
500 0.297419
505 0.335517
510 0.321345
515 0.329961
520 0.330287
525 0.27563
530 0.321034
535 0.282347
540 0.35133
545 0.355637
550 0.505802
555 0.382477
560 0.384012
565 0.406108
570 0.692386
575 0.618793
580 0.701874
585 14.8431
590 206.191
595 441.974
600 280.085
Ex : 603
200 0.233923
205 0.303157
210 0.253783
215 0.22247
220 0.313541
225 0.307286
230 0.236745
235 0.390601
240 0.306983
245 0.348859
250 0.344201
255 0.351239
260 0.437203
265 0.338437
270 0.333914
275 0.260768
280 0.296528
285 0.343976
290 0.339801
295 0.259608
300 0.232616
305 0.338749
310 0.196142
315 0.359789
320 0.466702
325 0.324389
330 0.323337
335 0.256393
340 0.358656
345 0.317286
350 0.337269
355 0.391714
360 0.398814
365 0.316371
370 0.353526
375 0.344525
380 0.338486
385 0.53603
390 0.524554
395 0.565896
400 0.318796
405 0.279193
410 0.34697
415 0.244606
420 0.229632
425 0.324611
430 0.270077
435 0.434692
440 0.377317
445 0.362689
450 0.247839
455 0.317149
460 0.413221
465 0.362839
470 0.361976
475 0.355702
480 0.321007
485 0.323683
490 0.424766
495 0.362835
500 0.395215
505 0.353317
510 0.398133
515 0.372944
520 0.280095
525 0.352879
530 0.355853
535 0.36321
540 0.400787
545 0.471945
550 0.220881
555 0.236875
560 0.334631
565 0.458363
570 0.517313
575 0.479776
580 0.408102
585 0.663992
590 11.4139
595 220.327
600 496.965
