File format V 1.0
jeu. 12. janv. 20:52:59 2017
Operator : 
Comments : 

=============================================
SpectroFluorometer parameters
Mode : 3D measurement
Data : Fluorescence
Phospho. : Ordinary
Spectrum : Fluorescence

Scan speed : 2400 nm/mn
Response : 100 ms
PM Voltage : 700 V
Shutter : On

Lambda Ex. Start : 203
Lambda Ex. End : 603
Lambda Ex. Step : 5
Ex. Slit : 5 nm

Lambda Em. Start : 200
Lambda Em. End : 600
Lambda Em. Step : 5
Em. Slit : 5 nm

Repetition : 1
Decal lambda em : 10
=============================================
DATA
Ex : 203
200 8.46445
205 8.24884
210 6.69674
215 6.11527
220 8.84405
225 7.85057
230 8.71929
235 6.96558
240 7.29432
245 6.66242
250 7.88523
255 6.72093
260 4.7549
265 10.153
270 12.9873
275 8.74889
280 9.06127
285 6.14695
290 5.62049
295 8.73627
300 9.44718
305 4.79894
310 8.03855
315 9.2606
320 7.86678
325 7.60991
330 6.86944
335 11.3091
340 6.74811
345 5.19893
350 7.30698
355 9.03469
360 7.05251
365 8.83404
370 9.38598
375 5.65906
380 10.0142
385 8.20801
390 8.25167
395 7.2771
400 11.2201
405 9.07801
410 8.3307
415 9.96876
420 5.7506
425 7.77315
430 7.24871
435 8.88285
440 5.51911
445 8.79842
450 12.2822
455 9.15517
460 8.15286
465 7.63046
470 9.49805
475 7.83202
480 7.17648
485 9.30623
490 11.6675
495 8.03204
500 8.31404
505 7.43394
510 10.0166
515 9.54508
520 6.45334
525 6.68698
530 7.21079
535 6.42088
540 7.84689
545 6.48549
550 9.84097
555 10.3265
560 8.66187
565 7.33611
570 8.18852
575 5.98318
580 7.9358
585 10.6513
590 11.1787
595 12.1226
600 27.0794
Ex : 208
200 10.5951
205 9.17291
210 7.29219
215 6.96791
220 8.17504
225 9.93159
230 6.25626
235 7.10054
240 11.761
245 6.50164
250 5.98792
255 6.7217
260 6.64493
265 9.1249
270 8.27642
275 6.08926
280 7.10019
285 6.99804
290 7.66336
295 6.26672
300 8.94477
305 9.36618
310 7.13121
315 8.18957
320 7.04026
325 10.8627
330 9.136
335 11.8691
340 9.63645
345 9.21751
350 6.20697
355 7.60313
360 13.2989
365 7.71679
370 6.87014
375 6.92762
380 9.16929
385 10.9645
390 7.92154
395 6.0431
400 7.66059
405 9.81686
410 6.98336
415 7.62859
420 8.49029
425 5.20637
430 8.24203
435 8.83669
440 7.78977
445 7.27977
450 6.71592
455 7.34807
460 9.21036
465 8.44373
470 9.00913
475 7.21064
480 12.9096
485 7.09827
490 9.84878
495 7.60474
500 6.90691
505 5.8389
510 7.26769
515 8.20779
520 7.0011
525 6.67904
530 9.39723
535 9.86258
540 8.60634
545 7.45174
550 7.0905
555 7.39906
560 6.84437
565 7.03663
570 8.79439
575 8.65624
580 11.5152
585 9.60887
590 9.41698
595 11.6799
600 14.4006
Ex : 213
200 7.05116
205 9.80318
210 7.07839
215 6.35904
220 7.12771
225 10.601
230 8.52589
235 6.93195
240 7.42327
245 7.95433
250 7.82407
255 5.8582
260 9.66907
265 8.5599
270 8.35068
275 6.58584
280 7.26999
285 7.743
290 7.17186
295 5.07971
300 5.82741
305 6.88698
310 9.50106
315 6.84151
320 8.20999
325 5.5661
330 9.48341
335 7.85079
340 8.56063
345 10.3705
350 9.05046
355 8.43206
360 8.35779
365 7.09309
370 8.43642
375 7.08102
380 6.53631
385 7.90763
390 7.31565
395 8.10847
400 6.61723
405 7.50465
410 10.8523
415 8.24785
420 9.04881
425 9.86748
430 6.45264
435 7.92842
440 6.51753
445 6.73872
450 9.82992
455 7.18211
460 10.2421
465 8.60426
470 7.55919
475 6.06767
480 7.41719
485 6.9956
490 9.24877
495 7.61632
500 6.42108
505 6.12848
510 9.12864
515 8.46302
520 8.39802
525 6.3781
530 8.53931
535 7.33371
540 7.75596
545 8.56848
550 8.69049
555 9.02962
560 9.19266
565 11.0004
570 7.96221
575 6.12438
580 8.24257
585 10.5296
590 6.35354
595 10.6116
600 4.90008
Ex : 218
200 6.81905
205 6.4843
210 7.45716
215 4.91747
220 6.09836
225 7.30058
230 5.67238
235 9.11107
240 10.0953
245 6.59324
250 7.70452
255 7.55769
260 6.65573
265 6.9988
270 7.38732
275 6.45855
280 6.79
285 5.74618
290 8.39177
295 5.03409
300 5.85664
305 4.97718
310 10.1253
315 5.88421
320 10.6563
325 4.79028
330 8.41119
335 5.92502
340 8.12429
345 13.9793
350 7.92862
355 6.26299
360 7.62841
365 8.05218
370 10.209
375 5.17057
380 6.77922
385 7.9708
390 8.33907
395 8.96754
400 5.90876
405 11.6507
410 9.07253
415 5.89802
420 7.10435
425 7.76849
430 9.44466
435 11.2514
440 7.76967
445 7.16319
450 8.77298
455 10.0454
460 11.7326
465 8.02889
470 6.5509
475 4.99611
480 11.8742
485 10.3387
490 8.7156
495 10.3975
500 6.45611
505 6.66194
510 6.54663
515 9.19229
520 8.32706
525 7.66037
530 7.36102
535 8.56732
540 10.2801
545 5.48806
550 9.97937
555 10.9622
560 6.16687
565 7.35247
570 9.39101
575 9.16266
580 5.66705
585 8.25659
590 8.483
595 7.00529
600 12.3178
Ex : 223
200 5.86977
205 11.8527
210 9.78546
215 8.22862
220 8.18602
225 8.72854
230 7.40973
235 8.00323
240 8.57981
245 7.54634
250 5.83111
255 7.02111
260 6.85268
265 7.65805
270 6.88467
275 10.1994
280 6.76759
285 7.05412
290 6.74551
295 7.42743
300 7.32256
305 8.80499
310 6.1137
315 7.00566
320 5.88547
325 9.67672
330 11.4979
335 7.80187
340 6.98772
345 8.52012
350 7.52747
355 8.50942
360 9.2679
365 6.48365
370 8.99952
375 16.6297
380 10.1014
385 8.8687
390 7.36856
395 8.27615
400 6.22341
405 5.45103
410 10.4685
415 7.31565
420 5.06978
425 6.42254
430 11.4083
435 6.03524
440 7.88562
445 5.37628
450 6.86121
455 8.71058
460 7.1167
465 7.38325
470 5.80457
475 6.69231
480 7.41614
485 7.68275
490 6.48954
495 10.7736
500 7.65415
505 5.90608
510 5.83121
515 8.74197
520 7.27041
525 6.74565
530 8.68707
535 6.07058
540 7.02756
545 9.75077
550 9.43417
555 7.86352
560 6.16428
565 7.69851
570 8.47711
575 6.68824
580 7.74523
585 6.44321
590 7.16125
595 5.14705
600 10.1124
Ex : 228
200 9.94222
205 7.40998
210 6.18106
215 5.38874
220 5.71775
225 5.19957
230 6.92329
235 7.65875
240 8.22664
245 6.47889
250 5.10133
255 5.9095
260 10.3449
265 6.52315
270 6.33074
275 6.52698
280 5.91924
285 6.21337
290 8.89574
295 6.50184
300 9.15698
305 5.68131
310 8.55113
315 7.45779
320 6.86916
325 7.73727
330 7.9323
335 9.78457
340 7.68958
345 8.88763
350 8.12921
355 12.4578
360 9.26205
365 7.63553
370 7.47267
375 6.31656
380 8.32699
385 6.32645
390 5.71106
395 8.29191
400 10.2171
405 6.13593
410 8.03992
415 13.0838
420 11.7957
425 9.35916
430 8.63733
435 7.25154
440 9.32094
445 5.48403
450 4.41162
455 9.19764
460 4.89823
465 6.04103
470 5.48135
475 10.1159
480 6.18729
485 7.88565
490 6.93198
495 7.78
500 8.45499
505 9.58891
510 9.07857
515 9.10403
520 8.35277
525 7.77134
530 9.93922
535 7.18677
540 8.76546
545 12.4571
550 11.0535
555 10.1691
560 5.99105
565 9.55594
570 7.48498
575 6.49124
580 5.90563
585 9.95406
590 10.697
595 9.35627
600 11.9524
Ex : 233
200 4.86307
205 6.3672
210 6.10187
215 6.30073
220 8.11024
225 6.63875
230 4.77319
235 6.79962
240 6.62709
245 7.54585
250 5.71938
255 7.72564
260 7.12232
265 6.55059
270 9.17017
275 8.67972
280 7.19501
285 8.10492
290 5.57488
295 9.81624
300 8.35625
305 5.73185
310 6.34028
315 5.24933
320 6.39621
325 6.63012
330 5.82126
335 5.52557
340 5.88436
345 10.2652
350 6.68713
355 7.83904
360 6.85278
365 10.9409
370 8.29727
375 8.42987
380 7.0686
385 8.5728
390 7.73809
395 5.82726
400 3.79204
405 6.44696
410 5.05295
415 6.66719
420 5.74883
425 5.6799
430 7.38229
435 5.19162
440 6.66109
445 7.85141
450 6.0649
455 7.86732
460 5.75256
465 6.36163
470 7.02123
475 6.25197
480 8.11049
485 7.04439
490 7.32598
495 6.84528
500 7.90389
505 6.43243
510 8.46411
515 5.75709
520 4.65441
525 7.02206
530 7.61815
535 13.8506
540 8.08916
545 6.55566
550 8.95286
555 9.80605
560 8.92556
565 6.51526
570 6.80289
575 10.6885
580 6.60507
585 7.42267
590 8.24914
595 6.29447
600 4.97007
Ex : 238
200 5.43396
205 5.34
210 6.00708
215 6.98966
220 5.68593
225 7.18648
230 6.92275
235 4.49175
240 6.75045
245 6.20218
250 5.90622
255 7.37402
260 7.87559
265 6.13163
270 8.13242
275 6.73696
280 5.56952
285 6.67921
290 4.85235
295 5.47514
300 5.01932
305 5.17512
310 7.30749
315 5.3165
320 5.81017
325 6.96307
330 8.70165
335 11.4031
340 6.63216
345 5.85369
350 5.97027
355 7.83379
360 5.66519
365 9.3082
370 7.61178
375 9.34843
380 6.27905
385 7.0837
390 7.97425
395 8.50248
400 6.45506
405 6.96321
410 8.15895
415 4.73733
420 7.06253
425 6.77263
430 11.4552
435 9.42883
440 7.71407
445 7.5867
450 7.71095
455 5.32291
460 6.63406
465 8.54501
470 6.89929
475 8.32973
480 6.91811
485 5.287
490 7.47417
495 7.00263
500 6.71409
505 5.67715
510 4.78617
515 8.47617
520 5.17317
525 6.85946
530 9.00911
535 7.91144
540 7.26287
545 6.35202
550 6.20534
555 6.77077
560 7.30227
565 6.45164
570 6.24525
575 3.99175
580 7.60594
585 7.22658
590 7.61214
595 9.11448
600 4.40477
Ex : 243
200 5.27599
205 5.40092
210 4.43927
215 6.75997
220 3.83444
225 5.91296
230 4.8529
235 5.17115
240 6.47561
245 9.39723
250 6.61145
255 5.09811
260 4.22903
265 6.82246
270 6.49641
275 5.34814
280 4.21411
285 7.42555
290 4.16903
295 5.24016
300 4.95055
305 4.56655
310 7.3977
315 5.83622
320 4.9768
325 8.01836
330 4.19736
335 4.33896
340 5.08239
345 4.03362
350 9.24187
355 7.3144
360 7.87484
365 7.56138
370 7.60069
375 5.59763
380 5.83705
385 6.24637
390 5.92218
395 6.30131
400 6.79026
405 7.05699
410 6.24126
415 9.59196
420 10.3575
425 6.61487
430 6.38219
435 4.34367
440 7.08236
445 6.14163
450 6.49448
455 4.24507
460 4.56862
465 4.37229
470 5.63816
475 7.72807
480 3.84057
485 5.1367
490 4.5096
495 6.19861
500 6.28458
505 8.45315
510 6.82867
515 6.69728
520 5.89099
525 9.70839
530 8.46087
535 8.15162
540 8.06172
545 5.46428
550 6.24982
555 5.71347
560 4.85097
565 5.56018
570 6.38539
575 5.0438
580 4.90722
585 5.49034
590 7.05965
595 3.4244
600 0.389683
Ex : 248
200 4.3323
205 4.3749
210 4.44747
215 4.72781
220 6.78069
225 4.73957
230 6.01719
235 4.3465
240 5.86522
245 4.59088
250 4.83962
255 5.48662
260 3.81631
265 4.02313
270 3.65246
275 3.91735
280 3.2145
285 7.01504
290 4.87863
295 5.61142
300 4.94873
305 4.98109
310 5.57362
315 5.01708
320 5.48811
325 3.48807
330 6.33397
335 5.10132
340 6.85355
345 5.43865
350 6.51944
355 7.73155
360 5.51556
365 5.93937
370 5.96058
375 4.9445
380 7.30827
385 5.38352
390 5.48674
395 6.67964
400 7.01775
405 5.13757
410 5.2763
415 4.37499
420 3.81057
425 3.32667
430 5.64333
435 5.91696
440 6.51422
445 8.7474
450 4.81312
455 5.25534
460 5.21288
465 4.45194
470 5.04174
475 4.79174
480 4.22959
485 5.09684
490 7.34218
495 5.73847
500 4.13949
505 3.85499
510 4.66069
515 4.26036
520 4.51987
525 5.79924
530 6.04617
535 5.93912
540 4.68434
545 4.31456
550 4.41285
555 3.43907
560 5.07832
565 6.09566
570 6.48745
575 5.8266
580 5.54522
585 4.65598
590 5.59902
595 5.21354
600 5.9105
Ex : 253
200 2.80964
205 4.17649
210 3.0303
215 5.1594
220 3.64917
225 4.49042
230 4.37741
235 6.74059
240 3.25654
245 3.77707
250 4.54928
255 5.37928
260 4.49185
265 4.54675
270 4.67178
275 4.36796
280 4.39169
285 4.52227
290 3.63977
295 3.6659
300 5.40945
305 4.28566
310 4.17157
315 6.164
320 4.5833
325 3.76798
330 3.20586
335 4.64543
340 4.04845
345 3.27716
350 4.31689
355 4.30998
360 4.95556
365 4.95743
370 5.92237
375 3.28205
380 4.01703
385 5.04989
390 3.72337
395 5.03669
400 3.3446
405 5.70245
410 4.22538
415 4.51747
420 5.62504
425 3.58203
430 4.12593
435 4.57078
440 6.88449
445 4.44909
450 6.00804
455 4.28851
460 4.61604
465 4.98703
470 4.5141
475 4.02693
480 4.34536
485 4.24631
490 5.20431
495 6.58214
500 5.14739
505 5.81989
510 4.99306
515 3.63064
520 5.01957
525 5.016
530 4.79823
535 5.57387
540 4.5345
545 3.27438
550 4.19836
555 5.50185
560 4.70075
565 5.95191
570 3.86309
575 6.15986
580 3.18373
585 4.47716
590 4.81584
595 3.58709
600 8.1871
Ex : 258
200 4.77339
205 3.4558
210 4.38117
215 4.28403
220 4.20733
225 3.61099
230 2.96086
235 2.84346
240 2.77101
245 3.45327
250 3.86689
255 4.34799
260 3.57425
265 3.96304
270 5.75514
275 3.2916
280 4.16386
285 4.39767
290 2.87294
295 3.23669
300 2.27863
305 3.45266
310 3.38885
315 3.58078
320 2.34745
325 2.62047
330 4.22739
335 3.71804
340 3.74683
345 3.95821
350 4.39213
355 3.93173
360 2.62972
365 3.58065
370 3.16925
375 3.09311
380 4.26879
385 3.59122
390 3.21498
395 3.17527
400 2.80494
405 3.7238
410 4.68535
415 5.29069
420 3.53466
425 2.82626
430 3.81979
435 3.85206
440 4.56253
445 2.77155
450 3.79332
455 3.03958
460 3.07083
465 3.75262
470 4.92895
475 2.90382
480 2.82079
485 3.83044
490 4.33593
495 3.63213
500 3.65333
505 3.31587
510 4.17535
515 3.29371
520 3.51846
525 3.08523
530 3.23834
535 4.22479
540 3.94352
545 3.9682
550 3.6605
555 2.74307
560 4.86427
565 2.89274
570 4.33883
575 3.09403
580 3.90778
585 2.69111
590 3.3341
595 3.67155
600 3.64037
Ex : 263
200 4.57686
205 3.21313
210 4.80256
215 3.42261
220 2.84062
225 2.56692
230 2.82813
235 2.50213
240 2.15411
245 2.91717
250 2.44383
255 3.33885
260 2.88759
265 2.2698
270 2.13705
275 2.81181
280 2.74365
285 2.35798
290 2.70283
295 2.54516
300 2.30928
305 2.15902
310 2.77684
315 2.93044
320 2.75241
325 2.37661
330 1.69481
335 3.27596
340 3.661
345 3.24352
350 3.3914
355 3.14697
360 3.08088
365 3.00033
370 2.98074
375 2.81
380 3.60004
385 2.92703
390 3.56001
395 3.04172
400 3.34054
405 2.81979
410 2.78222
415 2.12516
420 3.01623
425 3.10707
430 2.58018
435 2.32263
440 4.00362
445 3.36098
450 2.62931
455 3.47798
460 3.93471
465 3.49826
470 2.48476
475 2.4323
480 3.36952
485 3.23444
490 3.73711
495 3.52099
500 3.45332
505 2.9491
510 3.29404
515 3.86483
520 3.67364
525 3.6359
530 4.5003
535 3.97008
540 3.11776
545 2.75424
550 2.44327
555 2.36471
560 2.8273
565 2.2886
570 2.72408
575 2.35473
580 2.12013
585 3.20767
590 4.16451
595 2.6498
600 4.98576
Ex : 268
200 2.16733
205 2.09141
210 2.21381
215 2.04928
220 1.77664
225 2.78109
230 2.53556
235 1.86907
240 2.19864
245 1.94846
250 1.76517
255 1.79037
260 2.81769
265 1.99525
270 1.99946
275 1.628
280 2.48751
285 2.1155
290 2.52468
295 2.86921
300 1.77378
305 2.06407
310 2.27454
315 3.14318
320 2.44736
325 2.21356
330 1.32529
335 2.32647
340 1.62795
345 2.18885
350 2.93743
355 2.28768
360 1.84918
365 2.47283
370 1.58664
375 2.25432
380 2.04051
385 2.10929
390 4.23841
395 3.01381
400 2.75244
405 2.59082
410 2.09115
415 2.62262
420 1.83208
425 3.03304
430 2.46377
435 2.90334
440 3.14102
445 2.83905
450 2.21128
455 2.21858
460 2.00137
465 2.27811
470 2.3228
475 2.67789
480 2.80286
485 2.47982
490 2.06994
495 2.65816
500 2.27341
505 2.90427
510 2.90628
515 2.56197
520 2.2565
525 3.48168
530 3.91273
535 3.55347
540 2.42713
545 2.14862
550 2.30832
555 2.10825
560 2.43097
565 1.87912
570 2.49367
575 2.86405
580 2.63314
585 3.28893
590 2.94153
595 1.96752
600 1.65546
Ex : 273
200 1.84444
205 1.60755
210 2.28755
215 1.77492
220 1.49749
225 1.24734
230 1.43834
235 1.52781
240 1.43422
245 1.83842
250 1.60085
255 1.60453
260 2.35233
265 2.14543
270 2.18379
275 2.05181
280 1.21088
285 1.70326
290 2.12127
295 1.66027
300 1.44049
305 2.09851
310 1.27925
315 2.00699
320 1.43888
325 1.8262
330 2.17579
335 1.8723
340 2.23621
345 2.97357
350 2.58694
355 1.69932
360 2.24728
365 2.15173
370 2.46326
375 2.20951
380 2.52752
385 2.41509
390 2.46594
395 1.78668
400 1.42567
405 1.66659
410 2.34296
415 2.06799
420 2.82988
425 2.31385
430 2.25702
435 1.71754
440 1.58626
445 2.34991
450 1.66708
455 1.43862
460 2.31812
465 2.25557
470 2.01768
475 2.1754
480 2.03054
485 1.76144
490 1.96419
495 1.85731
500 1.689
505 1.61278
510 2.34736
515 1.82807
520 2.06429
525 2.3668
530 1.56877
535 1.54556
540 2.27453
545 2.08202
550 2.65806
555 1.363
560 3.02431
565 1.48755
570 1.99145
575 2.10587
580 1.79123
585 1.24307
590 1.49408
595 1.50692
600 0.382482
Ex : 278
200 0.964348
205 1.58781
210 1.35157
215 1.82191
220 1.34785
225 1.37298
230 1.67396
235 1.51151
240 1.52963
245 1.52632
250 1.29382
255 1.51379
260 1.50592
265 1.3687
270 1.97814
275 1.66156
280 1.84603
285 1.63402
290 1.29863
295 1.80292
300 1.34355
305 1.25653
310 1.73736
315 1.48788
320 2.06696
325 1.72035
330 2.71853
335 1.65298
340 1.19018
345 1.50858
350 1.82965
355 2.09652
360 1.77335
365 1.22312
370 1.48685
375 2.13686
380 1.50367
385 1.4016
390 2.47154
395 2.21653
400 1.89422
405 1.67135
410 1.63963
415 1.28538
420 1.81097
425 1.82749
430 1.77813
435 1.91383
440 1.81327
445 1.82306
450 2.41944
455 1.88596
460 2.2327
465 1.59448
470 1.64321
475 2.32356
480 2.50345
485 1.53801
490 1.38921
495 1.31852
500 1.37679
505 1.54074
510 1.29558
515 1.68924
520 3.1019
525 1.9326
530 1.28289
535 1.10777
540 1.74707
545 1.74311
550 1.97156
555 2.2116
560 1.08229
565 1.445
570 1.47835
575 1.20631
580 1.2123
585 0.812968
590 2.14618
595 1.50899
600 0.171717
Ex : 283
200 1.11712
205 1.61571
210 1.21777
215 1.12419
220 1.04209
225 1.2087
230 1.09909
235 0.906863
240 1.34559
245 1.57158
250 1.57883
255 1.2405
260 1.56544
265 1.77093
270 1.51347
275 1.47794
280 1.20774
285 1.16412
290 1.24364
295 0.965455
300 1.50651
305 1.0373
310 1.54359
315 0.676153
320 1.10109
325 1.17204
330 1.25916
335 1.40374
340 1.11762
345 1.07905
350 1.67879
355 1.26795
360 1.64139
365 1.81292
370 1.55328
375 1.32712
380 1.49742
385 1.81901
390 1.73521
395 1.39736
400 1.56445
405 1.1467
410 1.75313
415 1.23705
420 1.53093
425 1.41165
430 1.42152
435 1.52973
440 1.61596
445 1.29559
450 2.11729
455 1.60111
460 1.55892
465 1.78683
470 1.45759
475 1.59041
480 1.41006
485 1.76489
490 1.57858
495 1.41509
500 2.05343
505 1.39734
510 0.901792
515 1.23354
520 1.37593
525 1.56704
530 1.28127
535 1.18828
540 1.29103
545 1.12068
550 1.35682
555 2.19332
560 1.9829
565 1.55135
570 1.47885
575 1.04331
580 0.909033
585 1.43078
590 1.09587
595 1.54968
600 1.66288
Ex : 288
200 0.934568
205 0.722075
210 0.795643
215 1.11157
220 1.41662
225 1.04357
230 1.12174
235 1.03579
240 1.52287
245 1.15613
250 1.05777
255 0.928444
260 1.51455
265 1.17566
270 0.872105
275 1.25605
280 1.05375
285 1.73882
290 1.20125
295 1.15345
300 0.852843
305 1.11064
310 1.06709
315 0.985576
320 0.955183
325 0.997102
330 1.55836
335 1.25626
340 1.24687
345 1.41684
350 1.19568
355 1.37068
360 1.41656
365 1.28427
370 1.46909
375 1.27369
380 1.18373
385 1.31796
390 1.21551
395 1.26716
400 1.0271
405 1.25204
410 1.51936
415 1.42447
420 1.29507
425 1.14749
430 1.39643
435 1.33125
440 0.982375
445 1.5337
450 1.25469
455 1.2006
460 1.097
465 1.33369
470 1.05104
475 1.21639
480 1.32112
485 1.169
490 1.10368
495 0.920735
500 1.1125
505 0.915178
510 1.17458
515 1.01214
520 1.17089
525 1.09334
530 1.01612
535 1.22916
540 1.24088
545 0.916774
550 1.07443
555 1.06795
560 1.42883
565 1.82319
570 1.83877
575 1.62356
580 1.38679
585 1.03082
590 1.0274
595 1.26406
600 3.85632
Ex : 293
200 0.775962
205 1.06049
210 0.841484
215 0.82278
220 1.25932
225 0.946223
230 0.813914
235 1.03644
240 0.826718
245 0.812571
250 0.755844
255 0.637782
260 0.781072
265 0.752013
270 0.993292
275 1.05779
280 0.93327
285 0.61751
290 1.24453
295 1.05447
300 0.996393
305 0.885331
310 0.720621
315 0.89459
320 0.937203
325 1.27374
330 0.89201
335 0.828863
340 0.917393
345 0.980229
350 1.03061
355 0.906764
360 1.03428
365 0.82384
370 1.03402
375 1.29224
380 1.1888
385 1.18274
390 1.10225
395 1.79927
400 1.35398
405 0.908304
410 1.23253
415 1.37775
420 1.13962
425 1.31536
430 1.14962
435 1.19874
440 1.28129
445 1.51834
450 1.14751
455 1.24905
460 1.2603
465 1.33597
470 1.24534
475 1.03819
480 0.890466
485 0.850441
490 0.825932
495 1.24081
500 1.32202
505 1.0669
510 0.956468
515 1.25964
520 0.750877
525 0.886961
530 1.04553
535 1.06878
540 0.636541
545 0.526803
550 0.817764
555 0.748426
560 0.847661
565 0.689596
570 1.76254
575 0.826647
580 1.36996
585 1.81753
590 0.966231
595 0.852574
600 0.229008
Ex : 298
200 0.91065
205 0.668715
210 0.740344
215 0.87608
220 0.814571
225 1.17254
230 0.777569
235 0.929539
240 0.806394
245 0.763293
250 0.65778
255 0.844621
260 0.846729
265 0.795162
270 0.979121
275 0.864998
280 0.573859
285 0.896573
290 0.769494
295 0.909745
300 0.629785
305 0.745101
310 0.658335
315 1.11314
320 0.623532
325 0.868742
330 0.701412
335 0.809514
340 0.935241
345 0.847845
350 0.865739
355 1.01544
360 1.35182
365 1.0176
370 1.17026
375 1.02344
380 1.06623
385 1.18599
390 0.98656
395 1.53108
400 1.25265
405 1.04984
410 0.998384
415 0.987643
420 1.04201
425 1.43243
430 1.07002
435 1.26681
440 0.984378
445 1.09472
450 1.13952
455 0.97043
460 1.04587
465 1.43762
470 1.159
475 0.989415
480 1.1912
485 1.09372
490 0.915888
495 0.991636
500 0.998643
505 1.08798
510 0.904281
515 0.902836
520 0.916848
525 0.967814
530 0.670035
535 1.00515
540 0.726632
545 0.846293
550 1.13704
555 0.79578
560 1.07419
565 1.0722
570 0.651459
575 0.647943
580 0.712909
585 0.961665
590 1.13359
595 1.34773
600 0.253692
Ex : 303
200 0.684628
205 0.788695
210 0.67623
215 0.644842
220 0.630655
225 0.591831
230 0.600972
235 0.608713
240 0.81222
245 0.806702
250 0.585819
255 0.702163
260 0.590972
265 0.63981
270 0.604671
275 0.544602
280 0.497661
285 0.548614
290 0.909449
295 0.780719
300 0.982783
305 0.671102
310 0.745486
315 0.48914
320 0.76912
325 0.670097
330 0.6008
335 0.734508
340 0.704706
345 0.787319
350 0.744858
355 0.733068
360 0.688513
365 0.776614
370 0.512074
375 0.819494
380 0.855803
385 0.884619
390 0.87958
395 1.16769
400 1.17218
405 1.01214
410 0.813612
415 0.994735
420 1.15875
425 1.56121
430 0.90386
435 0.91784
440 0.879963
445 1.12721
450 0.777683
455 0.755183
460 1.2366
465 0.951337
470 0.733628
475 1.19194
480 1.11197
485 0.951249
490 0.711051
495 0.832514
500 0.796781
505 0.713447
510 0.799427
515 0.842934
520 0.791824
525 0.520005
530 0.593806
535 0.98682
540 0.910722
545 0.864242
550 1.06734
555 0.655803
560 0.754402
565 0.577447
570 0.588399
575 0.571933
580 0.746968
585 0.676506
590 0.71335
595 1.19771
600 0.717412
Ex : 308
200 0.618407
205 0.730061
210 0.69601
215 0.513087
220 0.690069
225 0.570829
230 0.630065
235 0.614677
240 0.499015
245 0.547545
250 0.645313
255 0.708372
260 0.792357
265 0.390701
270 0.675395
275 0.685775
280 0.720175
285 0.602648
290 0.695843
295 0.439763
300 0.792563
305 0.881796
310 0.549487
315 0.571586
320 0.575842
325 0.589671
330 0.635823
335 0.679094
340 0.681705
345 1.01327
350 0.698133
355 0.731156
360 0.913189
365 0.877354
370 0.75238
375 0.752895
380 0.80283
385 1.20751
390 1.19685
395 0.898737
400 1.01708
405 0.876526
410 1.14677
415 0.986504
420 0.922887
425 0.969633
430 1.01025
435 1.04128
440 0.944752
445 0.773932
450 1.05229
455 0.802271
460 0.838305
465 1.10798
470 0.954925
475 0.725613
480 0.832318
485 0.816029
490 0.726963
495 0.766861
500 0.575909
505 0.608305
510 0.843056
515 0.688897
520 0.882747
525 0.572008
530 0.751436
535 0.510143
540 0.530941
545 0.779397
550 0.696181
555 0.547138
560 0.646589
565 0.696542
570 0.799536
575 0.840707
580 0.726505
585 0.575935
590 0.607485
595 0.516204
600 0.328456
Ex : 313
200 0.422356
205 0.484852
210 0.501801
215 0.575664
220 0.491036
225 0.533417
230 0.525944
235 0.372644
240 0.466054
245 0.49505
250 0.282256
255 0.465194
260 0.581845
265 0.633631
270 0.531897
275 0.569014
280 0.602794
285 0.533454
290 0.503129
295 0.537578
300 0.59698
305 0.607939
310 0.853874
315 0.698066
320 0.602722
325 0.702206
330 0.475186
335 0.649497
340 0.63295
345 0.803613
350 0.816351
355 0.763165
360 0.806052
365 0.956367
370 1.11657
375 0.978538
380 0.971855
385 1.05472
390 1.0675
395 1.14634
400 0.987122
405 1.20761
410 0.878073
415 1.42183
420 1.16441
425 1.22545
430 1.03979
435 1.31023
440 1.32384
445 0.937221
450 1.16908
455 1.06471
460 1.30195
465 1.30276
470 1.13088
475 0.890927
480 0.921822
485 0.802891
490 0.646115
495 0.775615
500 0.908432
505 0.678116
510 0.637987
515 0.827475
520 0.676108
525 0.52004
530 0.575972
535 0.393124
540 0.634632
545 0.635063
550 0.571907
555 0.560836
560 0.58756
565 0.686069
570 0.61136
575 0.652195
580 0.629712
585 0.643552
590 0.489334
595 0.545896
600 1.09603
Ex : 318
200 0.486241
205 0.482209
210 0.457366
215 0.459532
220 0.571817
225 0.422133
230 0.449979
235 0.463588
240 0.296629
245 0.390796
250 0.412487
255 0.630355
260 0.466618
265 0.411193
270 0.491937
275 0.614679
280 0.446663
285 0.474403
290 0.425534
295 0.399924
300 0.473357
305 0.448617
310 0.575534
315 0.853711
320 0.53423
325 0.532556
330 0.738674
335 0.883403
340 1.09371
345 1.17084
350 1.77336
355 2.30845
360 2.68468
365 3.5446
370 3.92051
375 4.63403
380 5.30027
385 5.78448
390 6.49848
395 6.68477
400 7.15462
405 7.07462
410 6.68326
415 6.63919
420 6.93551
425 6.6006
430 6.45065
435 5.88364
440 6.35741
445 6.17791
450 5.26306
455 5.09002
460 5.17963
465 4.8709
470 4.16229
475 3.82175
480 3.82335
485 3.37811
490 2.79682
495 2.78436
500 2.46667
505 2.21045
510 1.84976
515 1.93966
520 1.52436
525 1.20533
530 1.13136
535 0.978023
540 1.24242
545 0.988606
550 0.854555
555 0.753586
560 0.573963
565 0.627409
570 0.719821
575 0.736797
580 0.73739
585 0.50085
590 0.444392
595 0.504165
600 0.0573721
Ex : 323
200 0.329251
205 0.263966
210 0.515828
215 0.396618
220 0.383498
225 0.542732
230 0.404085
235 0.561915
240 0.344561
245 0.432294
250 0.403717
255 0.26466
260 0.485519
265 0.478553
270 0.4077
275 0.471372
280 0.479729
285 0.508187
290 0.341872
295 0.426244
300 0.384555
305 0.36592
310 0.49406
315 2.09647
320 7.69229
325 3.86802
330 1.94607
335 2.63317
340 3.43184
345 5.0509
350 7.24466
355 9.74027
360 12.258
365 14.695
370 18.2364
375 20.4837
380 23.1015
385 25.4379
390 27.4514
395 29.6837
400 29.1569
405 31.3691
410 31.0329
415 30.5489
420 29.9137
425 29.7192
430 28.8869
435 27.6811
440 26.3523
445 26.463
450 24.5825
455 22.322
460 21.5165
465 19.5303
470 17.5368
475 16.6477
480 15.6246
485 13.9054
490 11.6843
495 11.0099
500 10.117
505 9.08383
510 7.84273
515 5.95945
520 5.36983
525 4.8256
530 4.02419
535 3.65665
540 3.33874
545 2.90611
550 2.50245
555 2.24613
560 1.84385
565 1.71222
570 1.41867
575 1.27505
580 1.09971
585 0.771619
590 0.781657
595 0.695526
600 0.687587
Ex : 328
200 0.221
205 0.371018
210 0.366118
215 0.475753
220 0.286598
225 0.356115
230 0.384954
235 0.358389
240 0.294694
245 0.339136
250 0.431346
255 0.351161
260 0.427567
265 0.38928
270 0.386265
275 0.467082
280 0.432158
285 0.391255
290 0.349859
295 0.426377
300 0.347501
305 0.511162
310 0.350554
315 0.807807
320 18.5164
325 45.9859
330 16.1264
335 4.98917
340 5.49888
345 6.70304
350 8.7911
355 12.4052
360 17.3551
365 19.8535
370 21.7495
375 24.7544
380 26.9307
385 29.6878
390 32.823
395 33.943
400 34.7817
405 35.8187
410 36.5575
415 36.3142
420 35.2654
425 33.2542
430 32.9952
435 31.6413
440 30.9031
445 28.7292
450 27.9126
455 26.2856
460 24.754
465 22.5312
470 21.1542
475 20.0286
480 18.1297
485 16.2081
490 14.6946
495 13.0768
500 11.0959
505 9.79668
510 9.51501
515 7.81991
520 6.27615
525 5.81161
530 5.12026
535 4.71423
540 3.8011
545 3.68895
550 2.92255
555 2.74712
560 2.24207
565 1.72811
570 1.48688
575 1.36464
580 1.32145
585 1.12144
590 0.787375
595 0.800528
600 1.33657
Ex : 333
200 0.216358
205 0.394827
210 0.370109
215 0.415026
220 0.292142
225 0.233999
230 0.289995
235 0.412529
240 0.281655
245 0.34884
250 0.315567
255 0.438857
260 0.282702
265 0.47449
270 0.264087
275 0.385024
280 0.255419
285 0.35064
290 0.428093
295 0.403512
300 0.285055
305 0.564546
310 0.394075
315 0.397469
320 3.26321
325 56.4625
330 98.3931
335 28.176
340 6.41715
345 5.27144
350 6.18884
355 7.21631
360 9.63214
365 13.694
370 14.9827
375 15.7625
380 15.6456
385 16.3865
390 17.8512
395 19.4301
400 19.3761
405 19.5181
410 19.5607
415 19.5272
420 19.504
425 18.9124
430 17.8688
435 17.5231
440 16.9539
445 16.4938
450 15.6586
455 14.8758
460 14.0174
465 13.1191
470 12.0559
475 11.1184
480 10.0886
485 9.42881
490 8.59354
495 7.65555
500 6.89809
505 6.24906
510 5.16773
515 4.98772
520 3.97803
525 3.83994
530 3.39256
535 3.01335
540 2.37599
545 2.35238
550 2.03401
555 1.53585
560 1.66034
565 1.23884
570 1.299
575 0.874633
580 0.850952
585 0.710629
590 0.759963
595 0.495632
600 1.86543
Ex : 338
200 0.25784
205 0.355135
210 0.323979
215 0.257225
220 0.37061
225 0.350563
230 0.359392
235 0.369321
240 0.271684
245 0.395247
250 0.334408
255 0.480135
260 0.379959
265 0.303914
270 0.246314
275 0.289888
280 0.341728
285 0.433123
290 0.306809
295 0.369477
300 0.286896
305 0.255783
310 0.467625
315 0.305129
320 0.485531
325 5.76603
330 89.9046
335 138.259
340 35.0383
345 6.58907
350 4.52161
355 3.86017
360 3.91425
365 5.79212
370 10.0704
375 10.6112
380 8.71249
385 8.6211
390 9.41099
395 9.30095
400 9.66328
405 9.79951
410 9.55741
415 9.72151
420 9.95397
425 9.41965
430 9.22671
435 8.51722
440 9.00931
445 8.71023
450 8.16268
455 8.0024
460 7.42128
465 6.66903
470 6.46504
475 6.12815
480 5.61063
485 5.27126
490 4.86397
495 4.54569
500 4.06417
505 3.92834
510 3.16001
515 3.12979
520 2.65105
525 2.35616
530 2.00993
535 1.79144
540 1.7186
545 1.53556
550 1.19526
555 1.25072
560 1.18586
565 1.1131
570 0.961801
575 0.875703
580 0.715383
585 0.474006
590 0.574127
595 0.55848
600 0.427293
Ex : 343
200 0.325989
205 0.277714
210 0.279304
215 0.160628
220 0.219148
225 0.327365
230 0.298744
235 0.329445
240 0.315188
245 0.307243
250 0.316871
255 0.337849
260 0.283585
265 0.312162
270 0.293301
275 0.214996
280 0.273742
285 0.237329
290 0.306968
295 0.285509
300 0.41083
305 0.291539
310 0.210794
315 0.265862
320 0.270588
325 0.444643
330 7.18767
335 104.098
340 154.328
345 37.973
350 6.36864
355 3.38074
360 3.06327
365 2.3578
370 3.49252
375 7.4813
380 8.29147
385 5.97217
390 5.39585
395 5.57087
400 5.57555
405 6.13701
410 6.60997
415 6.14965
420 6.49621
425 6.47806
430 5.94932
435 6.27029
440 6.31487
445 6.41775
450 6.14893
455 5.91384
460 5.66945
465 5.41205
470 5.01538
475 5.16987
480 4.34962
485 4.12508
490 4.24948
495 3.69793
500 3.66392
505 2.97645
510 2.89573
515 2.46708
520 2.62237
525 2.03118
530 1.71522
535 1.72385
540 1.81167
545 1.49391
550 1.34822
555 1.28348
560 0.967945
565 1.02233
570 1.01587
575 0.591978
580 0.530326
585 0.614515
590 0.557327
595 0.525839
600 1.15704
Ex : 348
200 0.263835
205 0.230531
210 0.23458
215 0.435701
220 0.347559
225 0.276906
230 0.279087
235 0.280834
240 0.246437
245 0.305198
250 0.261305
255 0.228242
260 0.283674
265 0.341681
270 0.269632
275 0.344685
280 0.213894
285 0.228111
290 0.297101
295 0.296412
300 0.21756
305 0.234013
310 0.299359
315 0.294925
320 0.224924
325 0.319058
330 0.406909
335 6.8819
340 106.026
345 159.13
350 41.4805
355 6.51744
360 2.83785
365 2.15428
370 1.95437
375 2.40027
380 5.49576
385 7.82955
390 5.74837
395 4.94187
400 4.32468
405 4.93402
410 5.12932
415 5.71754
420 5.63116
425 5.39158
430 5.63625
435 6.21392
440 6.3746
445 6.14703
450 5.90533
455 5.71822
460 5.61584
465 5.26991
470 5.2868
475 5.35085
480 4.48274
485 4.13071
490 4.03459
495 3.87069
500 3.47051
505 3.27665
510 3.08342
515 2.59839
520 2.39203
525 2.24787
530 1.88725
535 1.5564
540 1.62279
545 1.60658
550 1.449
555 1.21899
560 1.16687
565 0.870388
570 0.869942
575 0.761719
580 0.645196
585 0.569159
590 0.459576
595 0.619908
600 0.433832
Ex : 353
200 0.36493
205 0.239849
210 0.273822
215 0.326316
220 0.24442
225 0.211962
230 0.285542
235 0.216217
240 0.223213
245 0.248602
250 0.278042
255 0.217899
260 0.303616
265 0.283232
270 0.256985
275 0.278763
280 0.187147
285 0.24611
290 0.266619
295 0.283017
300 0.252288
305 0.27367
310 0.195613
315 0.361473
320 0.303323
325 0.313489
330 0.271954
335 0.355966
340 7.24082
345 110.259
350 158.902
355 40.2406
360 6.04302
365 2.58323
370 2.42027
375 2.27471
380 2.2012
385 4.80424
390 7.36152
395 6.61393
400 5.46584
405 5.04462
410 5.45992
415 5.47689
420 5.65744
425 5.9004
430 5.67407
435 6.14468
440 6.45969
445 6.22665
450 6.30765
455 5.79707
460 5.75387
465 5.57188
470 5.4
475 5.32663
480 4.72205
485 4.56078
490 4.20616
495 3.89563
500 3.65334
505 3.2187
510 3.01142
515 2.78268
520 2.2918
525 2.33667
530 2.11084
535 1.77574
540 1.60197
545 1.47396
550 1.30658
555 1.28122
560 1.17141
565 1.10709
570 0.844404
575 0.854119
580 0.727281
585 0.541676
590 0.426275
595 0.353551
600 0.516631
Ex : 358
200 0.252013
205 0.185195
210 0.377933
215 0.194477
220 0.207374
225 0.240558
230 0.242208
235 0.206906
240 0.305115
245 0.186216
250 0.209858
255 0.242618
260 0.210679
265 0.264403
270 0.377013
275 0.205214
280 0.243023
285 0.184524
290 0.255492
295 0.24027
300 0.227869
305 0.20406
310 0.229497
315 0.213978
320 0.207112
325 0.270226
330 0.2444
335 0.365359
340 0.336788
345 6.47429
350 105.096
355 160.548
360 41.4071
365 6.07174
370 2.44605
375 2.71878
380 2.1442
385 2.0717
390 3.87906
395 7.5848
400 7.27514
405 5.98437
410 5.4045
415 5.73993
420 5.56643
425 5.80064
430 6.18367
435 6.28992
440 6.62978
445 6.51273
450 6.77941
455 6.29457
460 6.15986
465 6.09738
470 5.81756
475 5.47006
480 5.29982
485 4.87411
490 4.42274
495 4.16907
500 3.67271
505 3.75554
510 3.20534
515 2.81826
520 2.71546
525 2.26085
530 2.01703
535 1.92825
540 1.78195
545 1.54431
550 1.46561
555 1.17429
560 1.08448
565 1.02468
570 0.82009
575 0.833384
580 0.654275
585 0.537511
590 0.548864
595 0.417578
600 0.283211
Ex : 363
200 0.166923
205 0.188463
210 0.177128
215 0.228039
220 0.216732
225 0.288919
230 0.236061
235 0.210399
240 0.196147
245 0.187034
250 0.292514
255 0.206291
260 0.191696
265 0.169176
270 0.176645
275 0.187704
280 0.218932
285 0.208925
290 0.178741
295 0.213146
300 0.19559
305 0.180617
310 0.161711
315 0.232438
320 0.332262
325 0.204305
330 0.234602
335 0.189173
340 0.356134
345 0.45023
350 6.37699
355 101.455
360 159.12
365 41.6042
370 6.10766
375 2.51803
380 2.40063
385 2.0755
390 2.15365
395 3.32348
400 6.47596
405 7.75015
410 6.77272
415 6.15819
420 6.2707
425 6.02986
430 6.3343
435 6.7909
440 6.91088
445 7.07812
450 6.86112
455 6.84598
460 6.82172
465 6.74616
470 6.61432
475 6.08114
480 5.78172
485 5.29579
490 4.75819
495 4.64965
500 4.19649
505 3.98212
510 3.6019
515 3.31867
520 2.842
525 2.59274
530 2.17514
535 1.99399
540 1.78603
545 1.57504
550 1.42754
555 1.44449
560 1.13439
565 1.10406
570 0.802055
575 0.856117
580 0.622785
585 0.616373
590 0.506177
595 0.362815
600 0.0412869
Ex : 368
200 0.196024
205 0.162125
210 0.184173
215 0.205605
220 0.220873
225 0.170589
230 0.301951
235 0.273249
240 0.224276
245 0.168413
250 0.178296
255 0.276658
260 0.173708
265 0.212858
270 0.325528
275 0.203238
280 0.225689
285 0.208894
290 0.203422
295 0.21051
300 0.279976
305 0.259891
310 0.270272
315 0.320603
320 0.255581
325 0.200416
330 0.248719
335 0.2756
340 0.296895
345 0.252065
350 0.448078
355 5.07909
360 96.2777
365 160.881
370 43.7504
375 6.37281
380 2.1727
385 2.44638
390 2.36223
395 2.56521
400 3.32466
405 6.18666
410 8.66796
415 7.54423
420 6.52616
425 6.28157
430 6.11976
435 6.59552
440 6.84144
445 6.75185
450 6.48825
455 6.39802
460 6.48356
465 6.27056
470 6.23627
475 6.025
480 5.49157
485 5.45149
490 5.1369
495 4.89532
500 4.47428
505 4.18463
510 3.58904
515 2.9805
520 2.85169
525 2.63849
530 2.2678
535 2.18256
540 1.78027
545 1.75197
550 1.57558
555 1.49745
560 1.30063
565 1.05081
570 0.897909
575 0.853118
580 0.672258
585 0.535646
590 0.44642
595 0.449553
600 0.252194
Ex : 373
200 0.231715
205 0.215085
210 0.187102
215 0.176202
220 0.273399
225 0.31444
230 0.245284
235 0.226803
240 0.228958
245 0.186001
250 0.225826
255 0.172664
260 0.165299
265 0.175484
270 0.1953
275 0.247322
280 0.277729
285 0.198089
290 0.192074
295 0.214092
300 0.221483
305 0.213983
310 0.205799
315 0.168697
320 0.177518
325 0.24252
330 0.20983
335 0.310995
340 0.237757
345 0.2661
350 0.254683
355 0.341815
360 5.94306
365 98.5987
370 158.855
375 42.9831
380 6.46659
385 2.46828
390 2.68489
395 3.0253
400 3.32805
405 3.68484
410 6.09296
415 8.90522
420 7.80512
425 6.79265
430 6.33816
435 6.48293
440 6.27576
445 6.76702
450 6.43819
455 6.32695
460 6.27735
465 6.01588
470 6.21423
475 5.76725
480 5.53433
485 5.14046
490 4.67844
495 4.41321
500 4.27263
505 3.83051
510 3.29712
515 3.23782
520 2.86193
525 2.82808
530 2.36933
535 2.23577
540 1.8193
545 1.65113
550 1.46981
555 1.38858
560 1.16291
565 1.0249
570 1.00124
575 0.739723
580 0.571301
585 0.610924
590 0.405528
595 0.2923
600 0.58616
Ex : 378
200 0.170354
205 0.22258
210 0.163083
215 0.201482
220 0.207594
225 0.198886
230 0.155769
235 0.143783
240 0.183779
245 0.191208
250 0.259779
255 0.219237
260 0.236176
265 0.206697
270 0.198464
275 0.198438
280 0.138929
285 0.187916
290 0.143321
295 0.187887
300 0.184334
305 0.157657
310 0.221252
315 0.214959
320 0.21879
325 0.163148
330 0.188283
335 0.159425
340 0.18176
345 0.216138
350 0.221793
355 0.318394
360 0.303256
365 5.38767
370 98.1432
375 161.85
380 43.906
385 6.73941
390 2.72071
395 3.30641
400 3.85144
405 3.65405
410 4.15959
415 6.04002
420 8.75968
425 8.07743
430 7.0931
435 6.83475
440 6.39172
445 6.28766
450 6.44804
455 6.35701
460 5.79617
465 5.99434
470 5.88115
475 5.70789
480 5.54555
485 4.88924
490 4.74886
495 4.52496
500 4.02193
505 3.82529
510 3.47606
515 3.15088
520 2.82522
525 2.64174
530 2.35336
535 2.02189
540 1.90521
545 1.54178
550 1.56406
555 1.23123
560 1.21705
565 1.01256
570 0.96694
575 0.755219
580 0.603731
585 0.496373
590 0.418714
595 0.395942
600 0.990588
Ex : 383
200 0.179619
205 0.169402
210 0.187817
215 0.209625
220 0.153657
225 0.174809
230 0.208911
235 0.193631
240 0.133197
245 0.194105
250 0.169382
255 0.164254
260 0.149072
265 0.192981
270 0.201577
275 0.192923
280 0.195382
285 0.300886
290 0.188924
295 0.170374
300 0.145173
305 0.135857
310 0.160071
315 0.16593
320 0.21624
325 0.176907
330 0.184209
335 0.147203
340 0.171318
345 0.256184
350 0.265625
355 0.199981
360 0.336656
365 0.395658
370 5.28494
375 94.6693
380 162.602
385 44.6605
390 6.86077
395 3.00823
400 3.21516
405 3.66018
410 4.27757
415 4.80022
420 5.46233
425 7.93661
430 8.49547
435 7.43415
440 7.14064
445 6.51106
450 6.4234
455 6.32479
460 6.16999
465 6.02488
470 6.01715
475 5.82996
480 5.56621
485 5.18351
490 5.00946
495 4.67756
500 4.18797
505 3.92348
510 3.3429
515 3.16486
520 2.90472
525 2.67972
530 2.423
535 2.1986
540 2.11414
545 1.7955
550 1.5682
555 1.27961
560 1.13688
565 1.03117
570 0.908987
575 0.760676
580 0.615887
585 0.58061
590 0.442674
595 0.420164
600 0.147445
Ex : 388
200 0.175286
205 0.192105
210 0.190639
215 0.171872
220 0.120121
225 0.136902
230 0.151604
235 0.110874
240 0.174985
245 0.172659
250 0.131753
255 0.150769
260 0.221416
265 0.206938
270 0.194327
275 0.209502
280 0.172039
285 0.109528
290 0.138719
295 0.218916
300 0.190959
305 0.15769
310 0.22815
315 0.23067
320 0.162291
325 0.143069
330 0.147927
335 0.304292
340 0.232415
345 0.213431
350 0.156638
355 0.27322
360 0.292556
365 0.345626
370 0.420629
375 5.62409
380 96.7422
385 159.906
390 44.5479
395 6.974
400 3.08574
405 3.36643
410 4.33516
415 4.56038
420 4.51612
425 4.85027
430 7.06799
435 8.35797
440 7.72959
445 7.23354
450 6.31864
455 5.83887
460 5.62546
465 5.80693
470 5.81289
475 5.62031
480 5.54138
485 5.03549
490 4.91609
495 4.2342
500 4.22359
505 3.90639
510 3.44485
515 3.05612
520 2.85512
525 2.66429
530 2.39979
535 2.05283
540 1.77783
545 1.74147
550 1.56307
555 1.35815
560 1.30224
565 1.12911
570 1.00539
575 0.824922
580 0.622182
585 0.562788
590 0.429055
595 0.384069
600 0.434179
Ex : 393
200 0.196087
205 0.141844
210 0.167577
215 0.202996
220 0.160738
225 0.154014
230 0.159658
235 0.192981
240 0.162953
245 0.157476
250 0.135749
255 0.105408
260 0.168908
265 0.138589
270 0.164378
275 0.126103
280 0.112707
285 0.14641
290 0.190358
295 0.234293
300 0.161092
305 0.177067
310 0.127483
315 0.161738
320 0.130355
325 0.183311
330 0.21764
335 0.194801
340 0.207217
345 0.186259
350 0.172525
355 0.238829
360 0.198585
365 0.215278
370 0.227716
375 0.330062
380 5.0293
385 92.8253
390 161.797
395 45.7484
400 7.42101
405 3.44183
410 3.95943
415 4.38003
420 4.26265
425 4.11754
430 4.17225
435 6.19958
440 8.26925
445 7.15292
450 6.29881
455 5.72813
460 5.03069
465 5.10324
470 5.19795
475 4.86294
480 4.70609
485 4.53071
490 4.29634
495 4.23003
500 3.98277
505 3.645
510 3.09291
515 2.9203
520 2.80837
525 2.45395
530 2.1097
535 1.89776
540 1.69011
545 1.63413
550 1.5274
555 1.28883
560 1.16275
565 1.09735
570 0.897015
575 0.661458
580 0.582635
585 0.433845
590 0.480659
595 0.332684
600 0.273754
Ex : 398
200 0.170878
205 0.170553
210 0.176776
215 0.248636
220 0.170216
225 0.147046
230 0.186113
235 0.16828
240 0.127871
245 0.139874
250 0.193593
255 0.145353
260 0.164696
265 0.162777
270 0.158656
275 0.153243
280 0.192228
285 0.138278
290 0.125033
295 0.164438
300 0.163924
305 0.138892
310 0.167903
315 0.18296
320 0.152155
325 0.136861
330 0.200218
335 0.124026
340 0.181321
345 0.138992
350 0.131981
355 0.12805
360 0.15643
365 0.168841
370 0.188328
375 0.199163
380 0.317155
385 5.05007
390 95.2297
395 162.918
400 45.3113
405 7.60134
410 3.80523
415 3.82386
420 4.01116
425 3.94099
430 3.94098
435 4.27097
440 5.30465
445 7.33419
450 7.15383
455 5.88097
460 5.34637
465 4.96861
470 4.62977
475 4.35112
480 4.24371
485 4.28172
490 3.85608
495 3.90635
500 3.66278
505 3.15515
510 2.98019
515 2.79634
520 2.51034
525 2.25168
530 2.04636
535 1.84662
540 1.6818
545 1.61403
550 1.38833
555 1.17841
560 1.01834
565 0.958683
570 0.736064
575 0.623735
580 0.602903
585 0.466075
590 0.37015
595 0.295033
600 0.539976
Ex : 403
200 0.183246
205 0.13367
210 0.188468
215 0.17769
220 0.129724
225 0.200525
230 0.215271
235 0.159233
240 0.174881
245 0.192334
250 0.186434
255 0.189748
260 0.133145
265 0.196491
270 0.150011
275 0.127221
280 0.107358
285 0.194266
290 0.132636
295 0.147435
300 0.132508
305 0.238115
310 0.166386
315 0.146043
320 0.107248
325 0.209535
330 0.193813
335 0.177541
340 0.144859
345 0.1471
350 0.184384
355 0.157995
360 0.151004
365 0.172506
370 0.172169
375 0.206925
380 0.229317
385 0.368684
390 5.35507
395 97.2571
400 161.943
405 45.3489
410 7.84745
415 3.79685
420 3.62955
425 3.94921
430 3.65827
435 3.92125
440 4.11905
445 4.79914
450 6.44705
455 7.04733
460 5.39239
465 5.13794
470 4.69094
475 4.35315
480 4.29349
485 3.9638
490 3.92846
495 3.60841
500 3.44581
505 3.29769
510 2.8407
515 2.82829
520 2.42369
525 2.2119
530 2.02149
535 1.80043
540 1.72442
545 1.56764
550 1.40293
555 1.29421
560 1.05789
565 0.911757
570 0.823886
575 0.645272
580 0.518062
585 0.511165
590 0.374083
595 0.423611
600 0.22968
Ex : 408
200 0.150028
205 0.191201
210 0.206264
215 0.128962
220 0.172508
225 0.182936
230 0.182198
235 0.199043
240 0.190587
245 0.167552
250 0.115799
255 0.1358
260 0.089022
265 0.158864
270 0.207953
275 0.137033
280 0.136084
285 0.105938
290 0.134893
295 0.12836
300 0.19341
305 0.146231
310 0.138347
315 0.197937
320 0.205447
325 0.181241
330 0.193501
335 0.143122
340 0.192204
345 0.204832
350 0.16785
355 0.117447
360 0.149732
365 0.180357
370 0.145583
375 0.132024
380 0.196523
385 0.315689
390 0.321635
395 5.33099
400 99.8337
405 164.01
410 44.7275
415 7.60919
420 3.37606
425 3.06551
430 3.45971
435 3.50952
440 3.55155
445 3.71102
450 4.00851
455 5.27149
460 6.6848
465 5.45982
470 5.02222
475 4.38639
480 3.81251
485 3.69243
490 3.55345
495 3.45326
500 3.19154
505 3.00057
510 2.57091
515 2.44343
520 2.36187
525 2.06597
530 1.9694
535 1.80482
540 1.5471
545 1.5068
550 1.22272
555 1.27907
560 0.988757
565 0.871841
570 0.746956
575 0.598738
580 0.474702
585 0.44345
590 0.379169
595 0.318845
600 0.157267
Ex : 413
200 0.129198
205 0.156653
210 0.162334
215 0.122978
220 0.160132
225 0.201458
230 0.160069
235 0.161706
240 0.133666
245 0.155681
250 0.160679
255 0.142838
260 0.165762
265 0.178435
270 0.181775
275 0.18603
280 0.167926
285 0.139719
290 0.137097
295 0.179285
300 0.182394
305 0.152208
310 0.130653
315 0.16841
320 0.133424
325 0.129914
330 0.135062
335 0.119583
340 0.163373
345 0.177454
350 0.153616
355 0.19793
360 0.158245
365 0.189117
370 0.164573
375 0.113731
380 0.207982
385 0.224046
390 0.246816
395 0.260406
400 5.98595
405 101.04
410 164.645
415 43.6813
420 6.87217
425 2.60778
430 2.304
435 3.01639
440 2.87365
445 2.71278
450 2.486
455 2.72095
460 4.0005
465 5.67317
470 4.98333
475 4.06335
480 3.71881
485 3.09334
490 3.0368
495 2.86179
500 2.77456
505 2.60537
510 2.38418
515 2.17922
520 2.05687
525 1.9204
530 1.80409
535 1.58183
540 1.46787
545 1.40441
550 1.31078
555 1.04042
560 0.893878
565 1.00798
570 0.742877
575 0.627549
580 0.516256
585 0.369723
590 0.316283
595 0.289637
600 0.103856
Ex : 418
200 0.155914
205 0.234752
210 0.142683
215 0.154422
220 0.141861
225 0.125559
230 0.134844
235 0.160917
240 0.146296
245 0.154722
250 0.165601
255 0.1216
260 0.119586
265 0.139658
270 0.133247
275 0.105758
280 0.16763
285 0.144717
290 0.147942
295 0.186879
300 0.127279
305 0.179154
310 0.129336
315 0.180986
320 0.18993
325 0.112856
330 0.157292
335 0.11459
340 0.135145
345 0.132872
350 0.206353
355 0.176452
360 0.123682
365 0.139452
370 0.132789
375 0.126542
380 0.148107
385 0.241911
390 0.225803
395 0.251662
400 0.390887
405 5.64796
410 101.364
415 169.045
420 45.4658
425 6.48261
430 2.00356
435 1.67458
440 2.14926
445 2.07659
450 1.77713
455 1.7582
460 1.97919
465 2.73687
470 4.66649
475 4.63788
480 3.57486
485 3.16935
490 2.90682
495 2.28884
500 2.43541
505 2.2111
510 2.1976
515 1.94173
520 1.72792
525 1.75463
530 1.55016
535 1.48585
540 1.41312
545 1.29325
550 1.09564
555 1.08636
560 0.941475
565 0.850255
570 0.683235
575 0.578821
580 0.493085
585 0.385954
590 0.340562
595 0.291487
600 0.378935
Ex : 423
200 0.123123
205 0.129899
210 0.138435
215 0.176345
220 0.171514
225 0.228994
230 0.177865
235 0.138168
240 0.118911
245 0.14586
250 0.199168
255 0.151048
260 0.161186
265 0.187538
270 0.112441
275 0.186822
280 0.136142
285 0.184585
290 0.153284
295 0.130095
300 0.121698
305 0.141398
310 0.117087
315 0.18276
320 0.141751
325 0.145829
330 0.137924
335 0.167266
340 0.162082
345 0.180852
350 0.197044
355 0.233533
360 0.243831
365 0.161531
370 0.138457
375 0.183872
380 0.123675
385 0.210729
390 0.213539
395 0.199167
400 0.241678
405 0.368828
410 5.74585
415 104.426
420 167.329
425 43.008
430 5.89236
435 1.72677
440 1.34694
445 1.63314
450 1.67631
455 1.49903
460 1.48578
465 1.77741
470 2.07703
475 3.70897
480 4.4248
485 3.37221
490 2.94854
495 2.43599
500 2.23868
505 2.04477
510 1.96965
515 1.7959
520 1.80133
525 1.81273
530 1.4779
535 1.38131
540 1.33414
545 1.16355
550 1.09248
555 1.01794
560 0.904905
565 0.765194
570 0.743694
575 0.530824
580 0.458309
585 0.425438
590 0.321562
595 0.373671
600 0.224976
Ex : 428
200 0.182864
205 0.144974
210 0.143008
215 0.157996
220 0.139948
225 0.140222
230 0.176214
235 0.141528
240 0.157977
245 0.143089
250 0.131872
255 0.155984
260 0.149249
265 0.158686
270 0.114995
275 0.152641
280 0.128569
285 0.125114
290 0.147338
295 0.13122
300 0.135135
305 0.141715
310 0.168078
315 0.132722
320 0.160026
325 0.116158
330 0.103636
335 0.122896
340 0.14201
345 0.115263
350 0.217326
355 0.19476
360 0.231288
365 0.153212
370 0.192583
375 0.259653
380 0.193376
385 0.180173
390 0.187005
395 0.184132
400 0.177234
405 0.237517
410 0.438675
415 6.5175
420 108.785
425 173.016
430 45.6472
435 6.18894
440 1.74854
445 1.2765
450 1.57068
455 1.64254
460 1.4489
465 1.39347
470 1.53189
475 1.73882
480 3.13028
485 4.5119
490 3.48987
495 2.60894
500 2.35304
505 1.93239
510 1.79873
515 1.68358
520 1.54505
525 1.49386
530 1.26416
535 1.35255
540 1.12868
545 1.09756
550 0.899279
555 0.89137
560 0.860786
565 0.809904
570 0.618098
575 0.581015
580 0.500495
585 0.470685
590 0.38611
595 0.295514
600 0.0336284
Ex : 433
200 0.178854
205 0.108353
210 0.147026
215 0.166445
220 0.16418
225 0.133159
230 0.157686
235 0.132171
240 0.153734
245 0.166015
250 0.151284
255 0.144214
260 0.15234
265 0.117733
270 0.166753
275 0.150788
280 0.160748
285 0.204757
290 0.145621
295 0.18492
300 0.154084
305 0.148552
310 0.121422
315 0.125946
320 0.157017
325 0.116868
330 0.159902
335 0.208858
340 0.125863
345 0.147011
350 0.163312
355 0.126806
360 0.156448
365 0.134183
370 0.127109
375 0.23199
380 0.187463
385 0.160309
390 0.21303
395 0.144307
400 0.222292
405 0.232096
410 0.313035
415 0.438429
420 7.06748
425 116.864
430 177.957
435 45.5704
440 6.20943
445 1.68817
450 1.1969
455 1.4863
460 1.58526
465 1.37862
470 1.22643
475 1.33882
480 1.63068
485 2.48451
490 4.08367
495 3.66293
500 2.69916
505 2.30219
510 1.97545
515 1.65078
520 1.51446
525 1.40954
530 1.26268
535 1.1099
540 1.06882
545 1.12228
550 1.07232
555 0.979976
560 0.797894
565 0.767565
570 0.650239
575 0.612506
580 0.484927
585 0.340164
590 0.304378
595 0.299951
600 0.0873056
Ex : 438
200 0.158903
205 0.145336
210 0.133708
215 0.179694
220 0.203168
225 0.171925
230 0.133744
235 0.159092
240 0.150277
245 0.155044
250 0.128647
255 0.155372
260 0.142167
265 0.139742
270 0.12515
275 0.141911
280 0.121507
285 0.14758
290 0.131509
295 0.140022
300 0.180046
305 0.18442
310 0.139326
315 0.191165
320 0.142048
325 0.188198
330 0.189213
335 0.144621
340 0.224121
345 0.1516
350 0.167555
355 0.166546
360 0.145784
365 0.180154
370 0.214985
375 0.248093
380 0.224971
385 0.151668
390 0.153566
395 0.142867
400 0.189522
405 0.22903
410 0.213933
415 0.266642
420 0.369445
425 6.66446
430 117.806
435 191.088
440 49.2607
445 6.69852
450 1.80221
455 1.07125
460 1.48415
465 1.71141
470 1.4976
475 1.38619
480 1.32183
485 1.44935
490 1.95494
495 3.39108
500 3.81268
505 2.6421
510 2.24647
515 1.83825
520 1.70155
525 1.44352
530 1.24158
535 1.2259
540 1.1732
545 1.04193
550 0.91534
555 0.906946
560 0.726463
565 0.776777
570 0.651196
575 0.559743
580 0.420596
585 0.391111
590 0.302373
595 0.27319
600 0.450179
Ex : 443
200 0.194582
205 0.168836
210 0.189848
215 0.179506
220 0.135889
225 0.15249
230 0.182195
235 0.143066
240 0.141596
245 0.147647
250 0.153184
255 0.199038
260 0.218067
265 0.217994
270 0.157411
275 0.124598
280 0.132613
285 0.173319
290 0.196426
295 0.162518
300 0.147511
305 0.158056
310 0.153157
315 0.178013
320 0.128973
325 0.100097
330 0.145227
335 0.144758
340 0.183693
345 0.160584
350 0.119317
355 0.174667
360 0.180293
365 0.168371
370 0.182347
375 0.181724
380 0.236877
385 0.242786
390 0.224342
395 0.221832
400 0.177008
405 0.194882
410 0.191906
415 0.267263
420 0.303815
425 0.383028
430 7.73324
435 128.7
440 197.983
445 50.8184
450 6.74676
455 1.88502
460 1.23383
465 1.39205
470 1.71063
475 1.52007
480 1.23036
485 1.28221
490 1.32979
495 1.56127
500 2.85318
505 3.65166
510 2.53538
515 1.81724
520 1.72004
525 1.4807
530 1.24997
535 1.18383
540 1.09957
545 1.01465
550 0.919869
555 0.820829
560 0.726926
565 0.753635
570 0.634657
575 0.502044
580 0.445614
585 0.415855
590 0.332309
595 0.278306
600 0.386739
Ex : 448
200 0.148104
205 0.14241
210 0.152201
215 0.125002
220 0.113834
225 0.17853
230 0.18728
235 0.190474
240 0.204493
245 0.157959
250 0.114967
255 0.125372
260 0.207801
265 0.150369
270 0.201185
275 0.12344
280 0.200046
285 0.148749
290 0.170362
295 0.147122
300 0.164607
305 0.132532
310 0.186676
315 0.173208
320 0.125136
325 0.168486
330 0.162861
335 0.189986
340 0.121163
345 0.195311
350 0.211746
355 0.171113
360 0.148568
365 0.190159
370 0.190186
375 0.184378
380 0.160273
385 0.187246
390 0.193633
395 0.164223
400 0.14359
405 0.224454
410 0.202286
415 0.222476
420 0.265274
425 0.240932
430 0.333185
435 8.11906
440 138.582
445 211.072
450 53.3887
455 7.04754
460 1.91796
465 1.19803
470 1.34139
475 1.7254
480 1.5787
485 1.28207
490 1.33245
495 1.34937
500 1.35979
505 2.26665
510 3.45923
515 2.84003
520 1.99304
525 1.76546
530 1.58572
535 1.24282
540 1.14191
545 1.09883
550 0.962953
555 0.90825
560 0.843776
565 0.687976
570 0.635632
575 0.513125
580 0.496778
585 0.472355
590 0.394486
595 0.289907
600 0.305894
Ex : 453
200 0.127437
205 0.184669
210 0.237758
215 0.160223
220 0.151116
225 0.114317
230 0.177487
235 0.171638
240 0.122691
245 0.148093
250 0.148974
255 0.176704
260 0.154479
265 0.189266
270 0.165446
275 0.173867
280 0.163593
285 0.20539
290 0.137526
295 0.199455
300 0.164031
305 0.185764
310 0.14069
315 0.20478
320 0.158019
325 0.202899
330 0.16781
335 0.204991
340 0.141643
345 0.127729
350 0.129054
355 0.121065
360 0.150523
365 0.173297
370 0.118329
375 0.133821
380 0.217644
385 0.175079
390 0.218263
395 0.159004
400 0.231971
405 0.192636
410 0.206833
415 0.214028
420 0.257777
425 0.28017
430 0.297947
435 0.387101
440 8.76383
445 148.894
450 218.823
455 52.5723
460 6.94171
465 1.90504
470 1.19172
475 1.24207
480 1.5947
485 1.41379
490 1.3297
495 1.19863
500 1.23548
505 1.41328
510 1.80236
515 3.33305
520 3.23451
525 2.0672
530 1.76195
535 1.54912
540 1.21535
545 1.16363
550 0.937813
555 0.888196
560 0.799258
565 0.7388
570 0.60797
575 0.611215
580 0.486229
585 0.372159
590 0.409662
595 0.30884
600 1.15265
Ex : 458
200 0.147097
205 0.159253
210 0.116943
215 0.130929
220 0.130118
225 0.144792
230 0.147378
235 0.191537
240 0.199508
245 0.158632
250 0.201435
255 0.170312
260 0.171238
265 0.1598
270 0.156886
275 0.155715
280 0.188856
285 0.154131
290 0.166746
295 0.158288
300 0.130312
305 0.172732
310 0.143419
315 0.175691
320 0.142185
325 0.21546
330 0.146288
335 0.123193
340 0.219635
345 0.157273
350 0.18306
355 0.203652
360 0.145213
365 0.130604
370 0.194479
375 0.176434
380 0.269534
385 0.235838
390 0.15792
395 0.130115
400 0.186997
405 0.187331
410 0.21927
415 0.162808
420 0.176359
425 0.172345
430 0.235649
435 0.331955
440 0.422729
445 9.44493
450 155.268
455 231.358
460 57.4204
465 7.62854
470 1.98878
475 1.13784
480 1.38623
485 1.58373
490 1.5984
495 1.35544
500 1.13157
505 1.14255
510 1.29247
515 1.57923
520 2.4022
525 3.12749
530 2.23286
535 1.54308
540 1.48179
545 1.27336
550 1.08416
555 0.898074
560 0.819861
565 0.717526
570 0.623251
575 0.596268
580 0.539079
585 0.404487
590 0.45452
595 0.331843
600 0.101269
Ex : 463
200 0.193544
205 0.180555
210 0.176782
215 0.151526
220 0.176101
225 0.171743
230 0.150701
235 0.163423
240 0.13851
245 0.219097
250 0.162663
255 0.120225
260 0.105492
265 0.197357
270 0.182954
275 0.163874
280 0.135114
285 0.120603
290 0.136479
295 0.170168
300 0.138877
305 0.179245
310 0.159186
315 0.172477
320 0.162553
325 0.159057
330 0.178076
335 0.152978
340 0.119374
345 0.204535
350 0.220267
355 0.154037
360 0.181111
365 0.167974
370 0.179239
375 0.157133
380 0.166773
385 0.175234
390 0.15639
395 0.1969
400 0.160831
405 0.165294
410 0.223408
415 0.177331
420 0.179801
425 0.226294
430 0.158143
435 0.213478
440 0.367815
445 0.452738
450 9.85441
455 163.051
460 252.849
465 62.5943
470 8.26935
475 2.03976
480 1.33415
485 1.28354
490 1.59839
495 1.5658
500 1.39858
505 1.16601
510 1.12623
515 1.12431
520 1.2253
525 1.97157
530 3.2532
535 2.51098
540 1.7814
545 1.48422
550 1.4866
555 0.974091
560 0.934771
565 0.780222
570 0.686998
575 0.615373
580 0.519461
585 0.436626
590 0.428291
595 0.321486
600 0.159371
Ex : 468
200 0.140198
205 0.153773
210 0.159693
215 0.177639
220 0.143919
225 0.146229
230 0.146326
235 0.145429
240 0.112329
245 0.16907
250 0.167046
255 0.116963
260 0.153538
265 0.12984
270 0.175207
275 0.157375
280 0.166933
285 0.154032
290 0.168858
295 0.142921
300 0.155596
305 0.144579
310 0.125798
315 0.174682
320 0.173478
325 0.149914
330 0.164994
335 0.0989994
340 0.186156
345 0.157461
350 0.160782
355 0.221807
360 0.21068
365 0.147434
370 0.164939
375 0.13078
380 0.144429
385 0.165535
390 0.175145
395 0.185082
400 0.174796
405 0.173966
410 0.166492
415 0.214629
420 0.165743
425 0.20427
430 0.178566
435 0.156686
440 0.218263
445 0.326486
450 0.391576
455 10.4035
460 167.634
465 265.026
470 64.4742
475 8.31659
480 1.96929
485 1.37944
490 1.07977
495 1.44871
500 1.51947
505 1.26075
510 1.09879
515 1.0598
520 1.19551
525 1.25407
530 1.6045
535 2.61732
540 2.70657
545 1.84776
550 1.38516
555 1.30915
560 1.00301
565 0.85187
570 0.740203
575 0.624414
580 0.539673
585 0.437153
590 0.384105
595 0.307517
600 0.11951
Ex : 473
200 0.158928
205 0.134018
210 0.138287
215 0.121821
220 0.131372
225 0.128988
230 0.149833
235 0.190197
240 0.154008
245 0.128186
250 0.19173
255 0.182367
260 0.171233
265 0.162487
270 0.120296
275 0.165517
280 0.14268
285 0.184802
290 0.194862
295 0.267723
300 0.175568
305 0.166603
310 0.134063
315 0.16312
320 0.131482
325 0.167574
330 0.147556
335 0.126038
340 0.156539
345 0.20569
350 0.214085
355 0.201982
360 0.160761
365 0.16329
370 0.204081
375 0.180125
380 0.174628
385 0.155114
390 0.247208
395 0.156485
400 0.193476
405 0.143421
410 0.199066
415 0.163853
420 0.173331
425 0.172546
430 0.192042
435 0.18677
440 0.190475
445 0.286502
450 0.346243
455 0.387674
460 12.0829
465 183.734
470 260.089
475 60.9986
480 7.95761
485 2.10775
490 1.25256
495 1.17104
500 1.53515
505 1.41064
510 1.3737
515 1.10141
520 1.10464
525 1.1825
530 1.21116
535 1.39687
540 2.30644
545 2.88619
550 2.07688
555 1.43198
560 1.27685
565 1.05598
570 0.764169
575 0.634238
580 0.545668
585 0.390541
590 0.416384
595 0.36267
600 0.205193
Ex : 478
200 0.229716
205 0.174537
210 0.150821
215 0.159965
220 0.145038
225 0.194415
230 0.288901
235 0.183934
240 0.200495
245 0.252802
250 0.194421
255 0.180012
260 0.190685
265 0.181521
270 0.15468
275 0.239172
280 0.161266
285 0.209913
290 0.237086
295 0.172562
300 0.167996
305 0.211572
310 0.225348
315 0.223065
320 0.176643
325 0.179188
330 0.219531
335 0.203367
340 0.179737
345 0.130061
350 0.164796
355 0.208197
360 0.276319
365 0.20409
370 0.21265
375 0.180202
380 0.231327
385 0.204753
390 0.211898
395 0.214987
400 0.212784
405 0.200637
410 0.24181
415 0.249993
420 0.188381
425 0.224098
430 0.244019
435 0.218259
440 0.195713
445 0.276785
450 0.310411
455 0.47742
460 0.591044
465 13.5704
470 191.378
475 266.254
480 64.9755
485 8.42725
490 2.07999
495 1.29465
500 1.03577
505 1.30613
510 1.40685
515 1.32178
520 1.2851
525 1.13443
530 1.13785
535 1.12257
540 1.11846
545 1.71686
550 2.40006
555 2.01499
560 1.33538
565 1.16033
570 1.02522
575 0.754425
580 0.58825
585 0.516057
590 0.436658
595 0.353841
600 0.304572
Ex : 483
200 0.181571
205 0.258162
210 0.230292
215 0.248551
220 0.224287
225 0.217137
230 0.261224
235 0.21002
240 0.1742
245 0.161287
250 0.135055
255 0.205801
260 0.157292
265 0.215357
270 0.170056
275 0.202134
280 0.205642
285 0.208927
290 0.243347
295 0.25475
300 0.21424
305 0.225313
310 0.212077
315 0.248816
320 0.253444
325 0.17417
330 0.198133
335 0.183372
340 0.186726
345 0.195436
350 0.189162
355 0.204515
360 0.200322
365 0.207483
370 0.213664
375 0.212527
380 0.183581
385 0.166508
390 0.165367
395 0.194505
400 0.187271
405 0.178331
410 0.189836
415 0.254306
420 0.236283
425 0.186578
430 0.222487
435 0.250608
440 0.23659
445 0.289974
450 0.359149
455 0.300512
460 0.396991
465 0.539728
470 10.8401
475 187.172
480 293.115
485 70.9513
490 9.20836
495 2.0129
500 1.31142
505 1.03404
510 1.28279
515 1.44001
520 1.31469
525 1.23352
530 1.27284
535 1.10475
540 1.14362
545 1.0941
550 1.25931
555 2.11459
560 2.31497
565 1.49388
570 1.06015
575 0.934851
580 0.75707
585 0.448359
590 0.393658
595 0.373475
600 0.493215
Ex : 488
200 0.177425
205 0.17914
210 0.205976
215 0.210974
220 0.227561
225 0.230635
230 0.191028
235 0.204975
240 0.21424
245 0.182704
250 0.197314
255 0.176068
260 0.165277
265 0.200877
270 0.206502
275 0.225962
280 0.236598
285 0.246097
290 0.162819
295 0.191331
300 0.184847
305 0.223663
310 0.155783
315 0.194073
320 0.263591
325 0.218015
330 0.183794
335 0.252379
340 0.280283
345 0.208906
350 0.323238
355 0.257846
360 0.222579
365 0.185088
370 0.213814
375 0.286481
380 0.192893
385 0.237036
390 0.220079
395 0.225398
400 0.319013
405 0.219415
410 0.214083
415 0.230573
420 0.223761
425 0.23264
430 0.178481
435 0.23315
440 0.216339
445 0.23681
450 0.263445
455 0.264167
460 0.341127
465 0.38774
470 0.555739
475 12.9087
480 204.79
485 283.422
490 67.4113
495 8.72673
500 1.87528
505 1.11989
510 0.905346
515 1.11443
520 1.41706
525 1.37794
530 1.14451
535 1.06476
540 1.03477
545 1.01535
550 1.01376
555 1.07532
560 1.65741
565 2.05546
570 1.48183
575 0.926731
580 0.861938
585 0.773061
590 0.502114
595 0.40811
600 0.30927
Ex : 493
200 0.179187
205 0.184725
210 0.204649
215 0.241412
220 0.180637
225 0.254981
230 0.165871
235 0.176034
240 0.204239
245 0.256877
250 0.155441
255 0.180505
260 0.173141
265 0.193395
270 0.162498
275 0.214112
280 0.174701
285 0.175235
290 0.200239
295 0.204187
300 0.263781
305 0.192164
310 0.184283
315 0.215466
320 0.209447
325 0.303167
330 0.250378
335 0.239348
340 0.199171
345 0.17584
350 0.184977
355 0.190377
360 0.233306
365 0.21796
370 0.182494
375 0.201299
380 0.231435
385 0.171217
390 0.235984
395 0.2341
400 0.225983
405 0.241793
410 0.190356
415 0.322661
420 0.24349
425 0.250751
430 0.256735
435 0.192253
440 0.286397
445 0.235274
450 0.251208
455 0.25683
460 0.297313
465 0.35471
470 0.439438
475 0.538822
480 11.5736
485 203.179
490 302.711
495 69.8372
500 8.94809
505 1.90254
510 1.16886
515 1.0644
520 1.11503
525 1.34573
530 1.3066
535 1.34
540 0.987648
545 0.986723
550 1.02129
555 0.976771
560 0.879867
565 1.25338
570 1.88919
575 1.62247
580 0.799105
585 0.625441
590 0.571864
595 0.469993
600 0.421057
Ex : 498
200 0.232931
205 0.196371
210 0.225753
215 0.222298
220 0.221776
225 0.239904
230 0.193314
235 0.231716
240 0.214618
245 0.221189
250 0.272543
255 0.248568
260 0.285877
265 0.250163
270 0.197646
275 0.269282
280 0.274449
285 0.270248
290 0.249155
295 0.248519
300 0.176145
305 0.299922
310 0.204752
315 0.223051
320 0.288111
325 0.299982
330 0.264536
335 0.23252
340 0.176858
345 0.22738
350 0.291186
355 0.182579
360 0.183603
365 0.255236
370 0.217383
375 0.27018
380 0.245427
385 0.222535
390 0.238916
395 0.266057
400 0.216593
405 0.278217
410 0.217902
415 0.2595
420 0.328331
425 0.244218
430 0.30708
435 0.275692
440 0.216888
445 0.289729
450 0.286907
455 0.249812
460 0.221946
465 0.359085
470 0.364348
475 0.461955
480 0.577537
485 14.6937
490 218.03
495 295.743
500 70.5173
505 9.05899
510 1.82858
515 1.24493
520 1.19335
525 1.22994
530 1.27795
535 1.41269
540 1.31723
545 0.977547
550 1.03476
555 0.87245
560 0.946619
565 0.832757
570 0.924174
575 1.30036
580 1.41963
585 0.950701
590 0.576936
595 0.490202
600 0.713892
Ex : 503
200 0.245919
205 0.23044
210 0.258741
215 0.275715
220 0.281412
225 0.240791
230 0.206607
235 0.351814
240 0.254162
245 0.276817
250 0.239014
255 0.20298
260 0.228729
265 0.239578
270 0.20919
275 0.20831
280 0.235941
285 0.290662
290 0.216052
295 0.203806
300 0.233974
305 0.229772
310 0.228415
315 0.241271
320 0.223545
325 0.250557
330 0.289138
335 0.292481
340 0.239256
345 0.223586
350 0.210085
355 0.191582
360 0.279657
365 0.279039
370 0.24439
375 0.281065
380 0.236805
385 0.174836
390 0.22747
395 0.208559
400 0.215813
405 0.197987
410 0.329145
415 0.204934
420 0.263614
425 0.256356
430 0.319632
435 0.320696
440 0.282437
445 0.217394
450 0.264273
455 0.372521
460 0.335949
465 0.395341
470 0.326241
475 0.445582
480 0.50079
485 0.638782
490 12.7435
495 207.832
500 296.421
505 68.8439
510 8.83892
515 2.07987
520 1.33796
525 1.147
530 1.07602
535 1.34249
540 1.26583
545 1.09912
550 0.880286
555 0.883544
560 0.840462
565 0.836366
570 0.742724
575 0.691199
580 1.00319
585 1.32053
590 0.82317
595 0.559151
600 1.01591
Ex : 508
200 0.292794
205 0.302447
210 0.305
215 0.273554
220 0.213583
225 0.201237
230 0.242144
235 0.244301
240 0.290329
245 0.207845
250 0.27484
255 0.30382
260 0.224323
265 0.211791
270 0.183961
275 0.248826
280 0.211518
285 0.301539
290 0.253843
295 0.20508
300 0.195261
305 0.282606
310 0.260673
315 0.235121
320 0.210225
325 0.246055
330 0.233363
335 0.386207
340 0.270031
345 0.265414
350 0.294474
355 0.21145
360 0.2968
365 0.245384
370 0.241645
375 0.303004
380 0.355215
385 0.209018
390 0.314196
395 0.233832
400 0.236153
405 0.221366
410 0.235017
415 0.252385
420 0.315482
425 0.258295
430 0.282664
435 0.291559
440 0.280412
445 0.345359
450 0.277156
455 0.293159
460 0.269114
465 0.34169
470 0.300332
475 0.364424
480 0.369658
485 0.518672
490 0.727349
495 13.8829
500 213.997
505 297.958
510 72.9275
515 9.40556
520 1.92072
525 1.15837
530 1.2089
535 1.05843
540 1.2167
545 1.43285
550 1.20317
555 0.993871
560 0.891193
565 0.655401
570 0.704679
575 0.561578
580 0.489341
585 0.732042
590 0.914943
595 0.810757
600 0.205566
Ex : 513
200 0.20082
205 0.261442
210 0.247558
215 0.299811
220 0.268961
225 0.203846
230 0.222331
235 0.192987
240 0.256802
245 0.254506
250 0.327312
255 0.271374
260 0.277043
265 0.224236
270 0.256393
275 0.299456
280 0.260616
285 0.279499
290 0.26761
295 0.233192
300 0.276022
305 0.288073
310 0.244618
315 0.287571
320 0.332669
325 0.255411
330 0.308704
335 0.269217
340 0.26732
345 0.23761
350 0.282828
355 0.21971
360 0.208625
365 0.236928
370 0.284304
375 0.304916
380 0.287035
385 0.225506
390 0.244711
395 0.271113
400 0.246185
405 0.244504
410 0.229708
415 0.296195
420 0.403527
425 0.364424
430 0.336571
435 0.281465
440 0.262087
445 0.297121
450 0.276779
455 0.409552
460 0.292115
465 0.362978
470 0.362282
475 0.330225
480 0.332815
485 0.391284
490 0.498736
495 0.584381
500 13.0362
505 210.322
510 300.622
515 74.1791
520 9.49318
525 2.14509
530 1.23551
535 1.11284
540 1.03725
545 1.03977
550 1.08891
555 1.09321
560 0.900214
565 0.77366
570 0.730761
575 0.503963
580 0.522724
585 0.581076
590 0.447641
595 0.876876
600 1.01484
Ex : 518
200 0.212332
205 0.223324
210 0.252596
215 0.191119
220 0.29015
225 0.304493
230 0.182864
235 0.227128
240 0.24567
245 0.254039
250 0.293423
255 0.227756
260 0.245097
265 0.333983
270 0.321648
275 0.316002
280 0.245311
285 0.259258
290 0.259128
295 0.203511
300 0.22194
305 0.225652
310 0.224925
315 0.224324
320 0.262508
325 0.254245
330 0.233338
335 0.288069
340 0.303941
345 0.29115
350 0.316778
355 0.306807
360 0.221258
365 0.233129
370 0.214484
375 0.262353
380 0.243889
385 0.260879
390 0.25996
395 0.235052
400 0.222812
405 0.296619
410 0.257721
415 0.283092
420 0.298309
425 0.25774
430 0.264598
435 0.258125
440 0.268029
445 0.305802
450 0.291222
455 0.290016
460 0.206924
465 0.242985
470 0.314063
475 0.34305
480 0.32844
485 0.316575
490 0.445706
495 0.397623
500 0.644273
505 12.9117
510 199.337
515 304.181
520 75.0158
525 9.54786
530 2.16482
535 1.13092
540 1.04003
545 0.985614
550 0.979642
555 0.980273
560 0.908258
565 0.777431
570 0.702197
575 0.548248
580 0.591348
585 0.590154
590 0.479931
595 0.388298
600 0.222276
Ex : 523
200 0.220303
205 0.191828
210 0.264853
215 0.266823
220 0.310195
225 0.337495
230 0.283488
235 0.274038
240 0.2294
245 0.246695
250 0.208536
255 0.310183
260 0.276723
265 0.237915
270 0.239061
275 0.290258
280 0.308705
285 0.264327
290 0.265759
295 0.357169
300 0.272604
305 0.230772
310 0.293495
315 0.219046
320 0.321132
325 0.277135
330 0.306751
335 0.235353
340 0.309281
345 0.313982
350 0.266168
355 0.300459
360 0.269353
365 0.333388
370 0.314635
375 0.261683
380 0.292086
385 0.276643
390 0.281219
395 0.316427
400 0.332487
405 0.292191
410 0.292783
415 0.382096
420 0.382455
425 0.304471
430 0.27371
435 0.270905
440 0.300933
445 0.357194
450 0.384084
455 0.354073
460 0.345524
465 0.344531
470 0.374691
475 0.304972
480 0.314845
485 0.255174
490 0.401323
495 0.428771
500 0.528091
505 0.644229
510 11.814
515 192.985
520 294.116
525 76.3345
530 9.772
535 2.04428
540 1.09822
545 0.979549
550 0.80276
555 0.78411
560 0.95433
565 0.906109
570 0.751208
575 0.55805
580 0.519206
585 0.555206
590 0.422109
595 0.380023
600 0.597668
Ex : 528
200 0.203097
205 0.25962
210 0.267042
215 0.260672
220 0.222181
225 0.255599
230 0.249739
235 0.252424
240 0.368284
245 0.263191
250 0.287099
255 0.292126
260 0.324946
265 0.339773
270 0.236679
275 0.22207
280 0.264021
285 0.241206
290 0.224298
295 0.435957
300 0.310513
305 0.206338
310 0.31715
315 0.299891
320 0.246625
325 0.273434
330 0.297433
335 0.270848
340 0.297343
345 0.325411
350 0.25593
355 0.287622
360 0.34854
365 0.344443
370 0.293819
375 0.295415
380 0.303098
385 0.321824
390 0.330255
395 0.313688
400 0.272976
405 0.319427
410 0.27811
415 0.339954
420 0.256666
425 0.308341
430 0.281654
435 0.273606
440 0.331637
445 0.30043
450 0.277926
455 0.229879
460 0.305628
465 0.294297
470 0.326622
475 0.346721
480 0.287536
485 0.361722
490 0.477964
495 0.433991
500 0.398941
505 0.562098
510 0.619111
515 11.1603
520 197.17
525 294.665
530 74.4907
535 9.5236
540 1.92159
545 1.04007
550 0.84603
555 0.821183
560 0.818258
565 0.81042
570 0.709016
575 0.642962
580 0.693887
585 0.448366
590 0.375062
595 0.430314
600 0.0489681
Ex : 533
200 0.309382
205 0.251992
210 0.28845
215 0.252649
220 0.275916
225 0.352697
230 0.279142
235 0.330924
240 0.290064
245 0.321415
250 0.223818
255 0.354421
260 0.235179
265 0.32072
270 0.307772
275 0.192324
280 0.275388
285 0.293284
290 0.260156
295 0.231177
300 0.321116
305 0.324292
310 0.293923
315 0.209526
320 0.386039
325 0.279511
330 0.282807
335 0.311441
340 0.233723
345 0.32185
350 0.336537
355 0.30437
360 0.344041
365 0.298075
370 0.272148
375 0.300055
380 0.262501
385 0.301225
390 0.292657
395 0.207283
400 0.256363
405 0.310945
410 0.271334
415 0.234578
420 0.256331
425 0.31492
430 0.243534
435 0.310718
440 0.350371
445 0.333056
450 0.310083
455 0.273798
460 0.268442
465 0.369318
470 0.375604
475 0.293285
480 0.35776
485 0.313885
490 0.329073
495 0.350258
500 0.4677
505 0.446252
510 0.468119
515 0.566611
520 11.519
525 187.32
530 286.503
535 74.4973
540 9.42912
545 2.00657
550 0.963714
555 0.811822
560 0.715204
565 0.650558
570 0.75186
575 0.618639
580 0.557883
585 0.45095
590 0.442581
595 0.460941
600 0.0524533
Ex : 538
200 0.384477
205 0.310333
210 0.274157
215 0.29373
220 0.292369
225 0.300881
230 0.344335
235 0.343055
240 0.305986
245 0.34844
250 0.258322
255 0.306299
260 0.391264
265 0.252009
270 0.216993
275 0.333022
280 0.266066
285 0.315909
290 0.329831
295 0.346871
300 0.278163
305 0.329035
310 0.325348
315 0.276621
320 0.311735
325 0.364547
330 0.26923
335 0.344451
340 0.315068
345 0.29853
350 0.273433
355 0.348548
360 0.322157
365 0.307659
370 0.293228
375 0.311608
380 0.311374
385 0.348946
390 0.247594
395 0.284332
400 0.275097
405 0.322923
410 0.376715
415 0.353218
420 0.309644
425 0.25693
430 0.222442
435 0.287985
440 0.354923
445 0.36935
450 0.30444
455 0.305823
460 0.309315
465 0.32065
470 0.308584
475 0.316311
480 0.408502
485 0.335328
490 0.394679
495 0.320801
500 0.364004
505 0.426898
510 0.448715
515 0.495195
520 0.682505
525 9.82955
530 174.002
535 283.876
540 76.7111
545 9.57602
550 1.71661
555 0.997637
560 0.749847
565 0.481445
570 0.520167
575 0.608534
580 0.628908
585 0.523818
590 0.431821
595 0.355107
600 2.62755
Ex : 543
200 0.252332
205 0.300985
210 0.251734
215 0.291398
220 0.215966
225 0.326325
230 0.292989
235 0.234489
240 0.291856
245 0.34711
250 0.362355
255 0.304866
260 0.363998
265 0.301863
270 0.34834
275 0.263065
280 0.212311
285 0.230694
290 0.28982
295 0.257543
300 0.299778
305 0.316879
310 0.233189
315 0.314077
320 0.287698
325 0.33402
330 0.291346
335 0.237944
340 0.285234
345 0.310271
350 0.228109
355 0.269682
360 0.270092
365 0.304539
370 0.249446
375 0.264542
380 0.296494
385 0.276082
390 0.308136
395 0.321754
400 0.29642
405 0.282848
410 0.300507
415 0.392778
420 0.310076
425 0.342478
430 0.338835
435 0.324774
440 0.264505
445 0.310317
450 0.292855
455 0.276932
460 0.443167
465 0.405428
470 0.401907
475 0.385841
480 0.433936
485 0.34205
490 0.363634
495 0.307523
500 0.333882
505 0.364392
510 0.335891
515 0.503527
520 0.509797
525 0.584582
530 9.3565
535 170.568
540 286.294
545 79.1246
550 9.95592
555 1.80405
560 0.866232
565 0.595693
570 0.545966
575 0.50792
580 0.540599
585 0.576878
590 0.54161
595 0.358837
600 0.7214
Ex : 548
200 0.341147
205 0.255556
210 0.271157
215 0.307651
220 0.295793
225 0.347168
230 0.399791
235 0.405087
240 0.317839
245 0.251986
250 0.222907
255 0.286412
260 0.31432
265 0.314124
270 0.312707
275 0.25765
280 0.286189
285 0.390582
290 0.371742
295 0.311918
300 0.28892
305 0.392611
310 0.31184
315 0.337325
320 0.297622
325 0.373537
330 0.282339
335 0.338314
340 0.306139
345 0.310312
350 0.331276
355 0.345275
360 0.324578
365 0.48076
370 0.373583
375 0.266581
380 0.367243
385 0.375265
390 0.449397
395 0.42998
400 0.370334
405 0.370834
410 0.288876
415 0.318467
420 0.305491
425 0.333848
430 0.281763
435 0.37124
440 0.258889
445 0.276477
450 0.368686
455 0.290347
460 0.367496
465 0.286227
470 0.378063
475 0.32729
480 0.299515
485 0.45268
490 0.318838
495 0.300222
500 0.311314
505 0.32536
510 0.444447
515 0.411283
520 0.41924
525 0.534013
530 0.582143
535 9.73318
540 164.248
545 271.653
550 76.2084
555 9.41389
560 1.67514
565 0.933823
570 0.768778
575 0.474942
580 0.421798
585 0.514694
590 0.4913
595 0.44317
600 0.224642
Ex : 553
200 0.316934
205 0.243906
210 0.321624
215 0.302014
220 0.466963
225 0.307975
230 0.268067
235 0.421642
240 0.26531
245 0.298934
250 0.24875
255 0.301738
260 0.333138
265 0.350505
270 0.343386
275 0.308855
280 0.259386
285 0.345121
290 0.263092
295 0.29585
300 0.25962
305 0.455071
310 0.348722
315 0.456109
320 0.267866
325 0.35439
330 0.270458
335 0.375662
340 0.29414
345 0.396483
350 0.387363
355 0.311956
360 0.297141
365 0.274818
370 0.314536
375 0.258181
380 0.313134
385 0.287218
390 0.316112
395 0.331374
400 0.424396
405 0.294372
410 0.314405
415 0.329405
420 0.328668
425 0.385161
430 0.291264
435 0.356372
440 0.375336
445 0.359742
450 0.285045
455 0.262641
460 0.505329
465 0.357243
470 0.342883
475 0.371843
480 0.339159
485 0.348412
490 0.337661
495 0.374211
500 0.459767
505 0.362212
510 0.343458
515 0.363448
520 0.317253
525 0.419724
530 0.489871
535 0.710526
540 8.2137
545 155.277
550 268.704
555 77.7161
560 9.66965
565 1.68567
570 0.601299
575 0.518167
580 0.355692
585 0.428478
590 0.53849
595 0.453122
600 0.0515635
Ex : 558
200 0.323753
205 0.296631
210 0.294471
215 0.295587
220 0.242909
225 0.357038
230 0.353195
235 0.34871
240 0.419721
245 0.333159
250 0.298886
255 0.351887
260 0.347395
265 0.419132
270 0.287186
275 0.276236
280 0.368993
285 0.303602
290 0.265927
295 0.4597
300 0.415328
305 0.424313
310 0.349974
315 0.322161
320 0.333983
325 0.260329
330 0.380443
335 0.326118
340 0.281298
345 0.334294
350 0.29566
355 0.470062
360 0.368099
365 0.27422
370 0.312768
375 0.318617
380 0.368455
385 0.295787
390 0.460147
395 0.354513
400 0.379302
405 0.456366
410 0.369064
415 0.293685
420 0.463818
425 0.333406
430 0.261686
435 0.36682
440 0.279608
445 0.300124
450 0.297378
455 0.402103
460 0.390378
465 0.416842
470 0.375465
475 0.463061
480 0.266721
485 0.337641
490 0.385971
495 0.437946
500 0.404496
505 0.441313
510 0.345194
515 0.334343
520 0.328731
525 0.483266
530 0.408389
535 0.537367
540 0.564224
545 7.44191
550 148.182
555 261.271
560 75.8785
565 9.43455
570 1.69286
575 0.701561
580 0.495942
585 0.442331
590 0.498832
595 0.517739
600 0.403846
Ex : 563
200 0.324731
205 0.482834
210 0.311153
215 0.247053
220 0.281296
225 0.280783
230 0.488867
235 0.311054
240 0.360777
245 0.279582
250 0.259197
255 0.455282
260 0.371289
265 0.407967
270 0.441741
275 0.370085
280 0.368834
285 0.241361
290 0.321011
295 0.399044
300 0.297211
305 0.328295
310 0.422699
315 0.347868
320 0.296585
325 0.31044
330 0.418319
335 0.32623
340 0.346301
345 0.352943
350 0.335653
355 0.410359
360 0.384123
365 0.388236
370 0.289894
375 0.326151
380 0.337793
385 0.371578
390 0.398405
395 0.308579
400 0.409155
405 0.319986
410 0.294889
415 0.232628
420 0.375967
425 0.354259
430 0.262131
435 0.367915
440 0.279555
445 0.370282
450 0.326381
455 0.353256
460 0.376414
465 0.318337
470 0.497062
475 0.349074
480 0.330107
485 0.473882
490 0.347386
495 0.336474
500 0.312387
505 0.347791
510 0.534967
515 0.448352
520 0.387505
525 0.429805
530 0.371566
535 0.520547
540 0.47088
545 0.541543
550 7.79913
555 146.051
560 255.43
565 73.7004
570 9.31137
575 1.6159
580 0.706248
585 0.660602
590 0.457835
595 0.508989
600 0.473671
Ex : 568
200 0.306481
205 0.352736
210 0.348764
215 0.360564
220 0.284423
225 0.41075
230 0.32817
235 0.35786
240 0.300024
245 0.42128
250 0.349056
255 0.295289
260 0.322375
265 0.360079
270 0.42351
275 0.389763
280 0.425464
285 0.369274
290 0.302917
295 0.340862
300 0.308231
305 0.397092
310 0.314053
315 0.385584
320 0.275719
325 0.356167
330 0.373304
335 0.446671
340 0.392678
345 0.315796
350 0.466382
355 0.442959
360 0.352001
365 0.401173
370 0.308618
375 0.287192
380 0.27128
385 0.307843
390 0.267894
395 0.312687
400 0.306733
405 0.368116
410 0.361027
415 0.357974
420 0.344531
425 0.373367
430 0.300998
435 0.483065
440 0.409941
445 0.333267
450 0.309372
455 0.462208
460 0.374409
465 0.37461
470 0.345776
475 0.425457
480 0.314168
485 0.354127
490 0.340773
495 0.380841
500 0.30096
505 0.419336
510 0.287872
515 0.333169
520 0.383385
525 0.44399
530 0.506958
535 0.401056
540 0.442715
545 0.589271
550 0.532075
555 5.7138
560 132.384
565 238.752
570 72.11
575 8.94606
580 1.47861
585 0.656322
590 0.403132
595 0.413769
600 0.109574
Ex : 573
200 0.346932
205 0.375276
210 0.301884
215 0.344503
220 0.293405
225 0.333661
230 0.251377
235 0.32185
240 0.321122
245 0.318895
250 0.467015
255 0.408609
260 0.387969
265 0.289914
270 0.38327
275 0.43298
280 0.32416
285 0.443427
290 0.284489
295 0.412854
300 0.362963
305 0.358963
310 0.383255
315 0.245648
320 0.251637
325 0.246827
330 0.341072
335 0.36444
340 0.313621
345 0.436511
350 0.334973
355 0.323737
360 0.333547
365 0.272585
370 0.310535
375 0.355464
380 0.292513
385 0.465568
390 0.515042
395 0.425324
400 0.400941
405 0.32948
410 0.294111
415 0.529034
420 0.452375
425 0.386746
430 0.359813
435 0.402095
440 0.393545
445 0.289162
450 0.344453
455 0.327811
460 0.282
465 0.344687
470 0.352925
475 0.456936
480 0.507859
485 0.385618
490 0.394811
495 0.462418
500 0.407103
505 0.314229
510 0.331299
515 0.365872
520 0.540352
525 0.55069
530 0.385481
535 0.367454
540 0.367111
545 0.397293
550 0.448804
555 0.688782
560 5.06602
565 112.956
570 222.442
575 69.1387
580 8.58648
585 1.47529
590 0.730303
595 0.514152
600 0.971298
Ex : 578
200 0.531462
205 0.322259
210 0.342403
215 0.328263
220 0.383799
225 0.344034
230 0.446462
235 0.359063
240 0.38173
245 0.379396
250 0.327403
255 0.420744
260 0.39355
265 0.338212
270 0.365872
275 0.365089
280 0.375114
285 0.381322
290 0.312345
295 0.316153
300 0.318213
305 0.321916
310 0.28567
315 0.469337
320 0.472331
325 0.342471
330 0.415521
335 0.452167
340 0.351507
345 0.385751
350 0.344915
355 0.346306
360 0.337551
365 0.388862
370 0.340561
375 0.381913
380 0.503
385 0.341445
390 0.352246
395 0.312751
400 0.286861
405 0.3678
410 0.269255
415 0.479001
420 0.453437
425 0.489592
430 0.383164
435 0.278012
440 0.322496
445 0.296688
450 0.389021
455 0.483285
460 0.514755
465 0.36165
470 0.34135
475 0.472534
480 0.402021
485 0.394265
490 0.418945
495 0.45357
500 0.404579
505 0.493598
510 0.491708
515 0.331768
520 0.3529
525 0.343073
530 0.289433
535 0.468194
540 0.426106
545 0.496054
550 0.490573
555 0.717917
560 0.636761
565 4.47464
570 100.753
575 197.144
580 60.2753
585 7.49643
590 1.25515
595 0.4058
600 0.365212
Ex : 583
200 0.296486
205 0.313849
210 0.395619
215 0.30494
220 0.390093
225 0.401674
230 0.404276
235 0.573377
240 0.419937
245 0.321568
250 0.285742
255 0.337779
260 0.371726
265 0.346947
270 0.350495
275 0.301303
280 0.304194
285 0.353732
290 0.329384
295 0.383994
300 0.31276
305 0.346028
310 0.358528
315 0.370525
320 0.328501
325 0.387242
330 0.291227
335 0.281189
340 0.430657
345 0.366198
350 0.470036
355 0.297612
360 0.280781
365 0.401965
370 0.454691
375 0.415944
380 0.392988
385 0.314441
390 0.340893
395 0.368474
400 0.355946
405 0.389338
410 0.385391
415 0.262168
420 0.370681
425 0.28528
430 0.3433
435 0.44415
440 0.356084
445 0.426413
450 0.335838
455 0.358601
460 0.488496
465 0.275117
470 0.355067
475 0.397628
480 0.439872
485 0.324901
490 0.35381
495 0.414979
500 0.425819
505 0.417954
510 0.389364
515 0.285528
520 0.399039
525 0.319168
530 0.392655
535 0.306341
540 0.328829
545 0.411479
550 0.408133
555 0.514315
560 0.591134
565 0.535838
570 3.81814
575 89.8714
580 168.999
585 49.6202
590 6.25968
595 1.212
600 0.559333
Ex : 588
200 0.302755
205 0.298724
210 0.299627
215 0.285907
220 0.410316
225 0.347892
230 0.353469
235 0.381141
240 0.427664
245 0.371551
250 0.342049
255 0.271689
260 0.265227
265 0.279412
270 0.32476
275 0.301078
280 0.38926
285 0.382906
290 0.243294
295 0.349997
300 0.278013
305 0.312814
310 0.37229
315 0.263192
320 0.320437
325 0.242834
330 0.224243
335 0.375035
340 0.321715
345 0.305092
350 0.383967
355 0.339095
360 0.282477
365 0.300465
370 0.391756
375 0.374913
380 0.4224
385 0.381957
390 0.35051
395 0.412177
400 0.523717
405 0.400339
410 0.339379
415 0.30407
420 0.336582
425 0.395467
430 0.323493
435 0.368662
440 0.351047
445 0.373456
450 0.354584
455 0.428055
460 0.367212
465 0.28488
470 0.504908
475 0.373176
480 0.357887
485 0.371484
490 0.322681
495 0.385433
500 0.298278
505 0.329395
510 0.400722
515 0.384654
520 0.278915
525 0.417032
530 0.444021
535 0.395112
540 0.26472
545 0.339332
550 0.28068
555 0.338557
560 0.324364
565 0.429835
570 0.42295
575 3.36307
580 73.8884
585 143.059
590 42.9779
595 5.40621
600 0.615207
Ex : 593
200 0.223609
205 0.273398
210 0.405198
215 0.407975
220 0.399416
225 0.291964
230 0.189641
235 0.31571
240 0.44439
245 0.369353
250 0.374815
255 0.309963
260 0.366033
265 0.400517
270 0.335987
275 0.332047
280 0.342338
285 0.24189
290 0.265979
295 0.402387
300 0.33462
305 0.492272
310 0.309129
315 0.288652
320 0.385399
325 0.41852
330 0.545239
335 0.291667
340 0.247317
345 0.36041
350 0.4035
355 0.443263
360 0.457143
365 0.2992
370 0.418554
375 0.300104
380 0.418141
385 0.316449
390 0.369293
395 0.316147
400 0.310835
405 0.261101
410 0.36856
415 0.333341
420 0.504154
425 0.328732
430 0.452268
435 0.369705
440 0.297679
445 0.338351
450 0.417874
455 0.54664
460 0.4103
465 0.368743
470 0.475731
475 0.373649
480 0.449995
485 0.460078
490 0.347756
495 0.32749
500 0.442212
505 0.326572
510 0.358883
515 0.389998
520 0.461492
525 0.393144
530 0.399761
535 0.54103
540 0.388189
545 0.338503
550 0.330215
555 0.382256
560 0.580828
565 0.531484
570 0.371962
575 0.519698
580 3.25624
585 66.3598
590 127.045
595 39.4198
600 5.19479
Ex : 598
200 0.335306
205 0.308152
210 0.418849
215 0.282848
220 0.373788
225 0.379767
230 0.313183
235 0.318512
240 0.440282
245 0.339529
250 0.391594
255 0.2647
260 0.260963
265 0.354782
270 0.347386
275 0.410752
280 0.343971
285 0.393025
290 0.516654
295 0.269945
300 0.35829
305 0.329102
310 0.384052
315 0.371646
320 0.462381
325 0.366274
330 0.455354
335 0.332919
340 0.369899
345 0.393862
350 0.357352
355 0.429287
360 0.520478
365 0.346079
370 0.364463
375 0.352668
380 0.309247
385 0.32633
390 0.35924
395 0.430816
400 0.483638
405 0.30236
410 0.391438
415 0.359851
420 0.393994
425 0.339904
430 0.451597
435 0.378701
440 0.447343
445 0.445071
450 0.446008
455 0.356364
460 0.491839
465 0.414289
470 0.344267
475 0.393691
480 0.406731
485 0.308277
490 0.426962
495 0.230539
500 0.351337
505 0.361483
510 0.354975
515 0.392381
520 0.372623
525 0.292078
530 0.512028
535 0.466398
540 0.414263
545 0.362931
550 0.397578
555 0.347475
560 0.406778
565 0.497412
570 0.404678
575 0.456706
580 0.373969
585 2.95925
590 58.0445
595 109.386
600 72.4008
Ex : 603
200 0.347284
205 0.375084
210 0.371521
215 0.560433
220 0.404703
225 0.411248
230 0.443152
235 0.495528
240 0.325802
245 0.469868
250 0.330767
255 0.404972
260 0.424401
265 0.374481
270 0.3752
275 0.372026
280 0.336694
285 0.402496
290 0.264882
295 0.242196
300 0.254446
305 0.406399
310 0.288684
315 0.294163
320 0.208846
325 0.417885
330 0.321325
335 0.378737
340 0.491759
345 0.414121
350 0.339696
355 0.339605
360 0.460283
365 0.462494
370 0.407702
375 0.387993
380 0.311868
385 0.344836
390 0.337078
395 0.371162
400 0.443573
405 0.37528
410 0.365056
415 0.402273
420 0.386931
425 0.487742
430 0.346772
435 0.438279
440 0.422995
445 0.446875
450 0.542472
455 0.384606
460 0.386534
465 0.496262
470 0.565975
475 0.377398
480 0.396629
485 0.357433
490 0.344005
495 0.292099
500 0.340049
505 0.311735
510 0.358078
515 0.387102
520 0.48499
525 0.454417
530 0.457939
535 0.460715
540 0.481913
545 0.398647
550 0.434035
555 0.468961
560 0.455775
565 0.501208
570 0.428234
575 0.501519
580 0.524437
585 0.422771
590 2.4625
595 49.7375
600 109.477
