File format V 1.0
ven. 13. janv. 11:55:21 2017
Operator : 
Comments : 

=============================================
SpectroFluorometer parameters
Mode : 3D measurement
Data : Fluorescence
Phospho. : Ordinary
Spectrum : Fluorescence

Scan speed : 2400 nm/mn
Response : 100 ms
PM Voltage : 700 V
Shutter : On

Lambda Ex. Start : 203
Lambda Ex. End : 603
Lambda Ex. Step : 5
Ex. Slit : 5 nm

Lambda Em. Start : 200
Lambda Em. End : 600
Lambda Em. Step : 5
Em. Slit : 5 nm

Repetition : 1
Decal lambda em : 10
=============================================
DATA
Ex : 203
200 3.315
205 5.2581
210 3.36384
215 3.73021
220 3.76412
225 6.2404
230 4.03446
235 6.63969
240 5.47631
245 5.80613
250 5.97794
255 4.72222
260 6.26463
265 5.96159
270 5.13033
275 4.74247
280 5.79076
285 4.21714
290 3.71369
295 3.14315
300 2.90448
305 5.25489
310 4.4857
315 5.07981
320 6.13316
325 5.23691
330 5.61322
335 4.60878
340 7.52057
345 4.98109
350 5.39778
355 5.37533
360 5.29717
365 8.63682
370 3.21425
375 9.43633
380 4.51334
385 4.98893
390 7.6305
395 4.91502
400 4.67412
405 5.38177
410 6.32677
415 4.68823
420 6.60849
425 5.82833
430 6.8801
435 7.08726
440 6.90251
445 4.96569
450 6.15565
455 7.57068
460 4.55333
465 5.29854
470 6.70841
475 6.42477
480 6.25556
485 6.43508
490 5.77651
495 4.31795
500 5.07712
505 7.35856
510 5.64177
515 5.95046
520 4.24219
525 6.62405
530 7.04678
535 3.86333
540 3.49915
545 4.16146
550 3.77552
555 3.38365
560 8.6548
565 4.0233
570 6.30945
575 5.56257
580 6.50921
585 5.18465
590 6.12219
595 3.17031
600 0.360769
Ex : 208
200 1.51802
205 3.48749
210 2.64191
215 4.14233
220 5.14883
225 5.58394
230 3.67821
235 4.85393
240 5.3044
245 4.26403
250 6.29077
255 5.14688
260 5.93274
265 5.92318
270 4.29093
275 5.31702
280 4.50776
285 4.51109
290 4.73506
295 4.65787
300 4.43977
305 4.11177
310 5.86239
315 4.6811
320 3.14274
325 5.45111
330 6.80244
335 4.77744
340 4.8852
345 6.33183
350 10.7862
355 3.72414
360 4.92195
365 7.08292
370 4.91209
375 6.01286
380 5.67086
385 4.03527
390 6.54055
395 6.83804
400 7.0063
405 4.13359
410 3.95955
415 4.43632
420 7.58603
425 3.86047
430 9.02014
435 6.80662
440 5.8501
445 5.14597
450 5.8286
455 5.56425
460 5.89366
465 3.95777
470 7.58388
475 4.36418
480 5.78686
485 3.58217
490 6.30132
495 4.14428
500 5.32421
505 4.5229
510 7.94614
515 6.34512
520 7.51028
525 8.25576
530 6.9108
535 4.66782
540 5.60347
545 4.13771
550 7.15724
555 4.80695
560 6.23917
565 4.01672
570 6.77963
575 4.70968
580 5.75374
585 3.99835
590 5.11337
595 6.17246
600 0.702403
Ex : 213
200 1.76682
205 4.21882
210 3.46885
215 4.87575
220 5.9291
225 2.36458
230 3.46751
235 3.9898
240 2.79645
245 4.43696
250 5.40857
255 5.31193
260 3.88475
265 3.88703
270 3.27055
275 4.40651
280 5.47379
285 5.96102
290 4.70737
295 3.80947
300 4.32014
305 3.17949
310 5.70164
315 4.75379
320 3.19957
325 4.13158
330 3.46284
335 7.4387
340 5.44099
345 6.43249
350 6.45052
355 7.33916
360 5.57677
365 3.58286
370 5.65577
375 5.85683
380 7.32005
385 8.94922
390 5.57296
395 6.06272
400 7.06711
405 4.07567
410 4.82756
415 4.30194
420 4.63839
425 6.73974
430 4.6363
435 6.40452
440 6.93224
445 4.57319
450 5.39027
455 8.18287
460 6.49867
465 3.87704
470 8.52888
475 7.55787
480 6.49704
485 5.37292
490 4.71011
495 4.13701
500 4.49749
505 2.85939
510 4.08239
515 4.44396
520 7.32266
525 4.90012
530 5.68463
535 6.67774
540 4.80186
545 5.11038
550 6.47543
555 5.35425
560 4.04177
565 5.38178
570 5.26824
575 7.92773
580 4.99331
585 5.88968
590 5.22112
595 4.50032
600 0.51212
Ex : 218
200 3.51675
205 4.23613
210 5.63339
215 6.27731
220 5.8391
225 4.33166
230 5.78821
235 5.53694
240 6.53957
245 4.89534
250 4.0673
255 3.82779
260 5.36482
265 8.54645
270 5.23768
275 8.54218
280 4.95786
285 4.81091
290 6.97136
295 3.74298
300 5.88866
305 4.48481
310 3.608
315 5.48
320 5.019
325 5.4406
330 5.28768
335 5.58264
340 4.29243
345 5.81859
350 5.10238
355 5.33245
360 4.5813
365 6.16006
370 5.43623
375 5.94409
380 8.53321
385 5.31302
390 5.92615
395 4.6863
400 4.84585
405 7.25633
410 4.55842
415 8.49456
420 5.1684
425 6.46974
430 3.38648
435 4.78685
440 5.45421
445 4.04595
450 4.04357
455 4.32721
460 4.90302
465 5.30357
470 6.54811
475 6.67458
480 4.56979
485 7.31286
490 6.87815
495 7.70292
500 5.89838
505 5.37943
510 4.40265
515 4.18904
520 3.43592
525 3.89922
530 3.31703
535 4.29014
540 4.96063
545 5.63812
550 5.31038
555 4.48672
560 4.09487
565 7.31513
570 4.69645
575 6.87688
580 4.89677
585 3.82377
590 5.98755
595 7.7968
600 7.26791
Ex : 223
200 4.8199
205 3.55081
210 4.09588
215 6.9664
220 3.29932
225 4.94913
230 3.89056
235 4.9121
240 4.5971
245 5.46847
250 4.46104
255 3.23382
260 5.85632
265 3.49904
270 3.57232
275 5.66808
280 4.61666
285 3.80728
290 3.84295
295 4.21733
300 7.88944
305 5.72357
310 5.00815
315 6.03275
320 9.99164
325 4.21142
330 7.50587
335 4.2805
340 4.18783
345 8.18005
350 7.65757
355 5.68099
360 4.70521
365 6.08652
370 4.5414
375 6.43435
380 5.70923
385 6.69427
390 5.44539
395 5.90422
400 4.84391
405 4.4411
410 5.97465
415 4.4613
420 5.30238
425 4.12359
430 6.7137
435 4.13902
440 4.78607
445 5.49619
450 4.15012
455 6.31869
460 6.14495
465 3.51328
470 6.26206
475 5.5743
480 5.95576
485 6.64177
490 4.93241
495 2.22919
500 4.64811
505 5.30709
510 4.63553
515 6.45731
520 4.61405
525 3.06358
530 2.7061
535 4.84864
540 7.19199
545 5.58337
550 3.60775
555 5.41304
560 4.79443
565 2.0368
570 3.6371
575 6.05782
580 4.85702
585 4.03033
590 3.94015
595 3.18442
600 13.36
Ex : 228
200 4.09375
205 4.8266
210 5.00023
215 6.03945
220 3.97578
225 4.26427
230 5.80248
235 4.45475
240 3.88508
245 3.76438
250 4.15696
255 4.12613
260 7.2403
265 3.00935
270 5.68762
275 4.2043
280 5.14497
285 4.1426
290 2.57276
295 3.0984
300 5.42962
305 3.38169
310 3.91648
315 5.10889
320 5.63931
325 5.73635
330 3.28002
335 4.02833
340 8.66596
345 4.33608
350 4.10821
355 6.68839
360 5.34804
365 4.38868
370 5.3872
375 5.99722
380 6.09954
385 8.73651
390 3.98512
395 6.27886
400 8.16352
405 5.53407
410 5.12833
415 4.41296
420 4.69221
425 6.91769
430 4.88435
435 4.64041
440 4.40988
445 7.37093
450 7.45351
455 5.80268
460 4.9951
465 5.99448
470 7.98745
475 6.37453
480 4.39452
485 8.05819
490 5.46642
495 7.46194
500 4.45615
505 4.23497
510 4.38463
515 5.28273
520 5.70065
525 5.50193
530 4.86446
535 4.94277
540 2.70547
545 5.90328
550 4.25386
555 5.83857
560 3.45535
565 4.41673
570 4.0643
575 4.41921
580 4.67021
585 3.8127
590 5.54932
595 4.47698
600 0.509464
Ex : 233
200 5.24893
205 5.82206
210 5.23685
215 3.44852
220 3.21078
225 4.20686
230 2.39635
235 2.61011
240 3.1555
245 3.17581
250 3.27434
255 4.44915
260 4.4133
265 5.34551
270 4.1139
275 3.58142
280 4.00027
285 5.45675
290 3.91961
295 4.17236
300 3.56505
305 4.29429
310 3.48872
315 5.40296
320 6.78149
325 4.89332
330 3.76654
335 3.59805
340 5.11198
345 5.2615
350 3.7541
355 7.02979
360 6.03731
365 5.09142
370 5.52546
375 5.3512
380 4.98762
385 5.56048
390 4.32273
395 6.07757
400 4.89061
405 6.90518
410 3.78014
415 5.12475
420 4.27209
425 5.62069
430 5.11884
435 3.67295
440 5.56692
445 6.79205
450 7.52139
455 3.94635
460 5.68345
465 4.50316
470 4.10251
475 7.19135
480 6.68327
485 4.53268
490 5.43537
495 4.85655
500 4.29133
505 7.90835
510 4.4179
515 3.85229
520 5.74419
525 2.73496
530 5.27629
535 7.46942
540 5.81427
545 5.01447
550 5.0469
555 3.63339
560 3.72527
565 9.18386
570 4.37943
575 4.52241
580 5.55737
585 4.90481
590 5.78356
595 6.76848
600 1.83367
Ex : 238
200 3.36402
205 4.57412
210 2.85656
215 3.72444
220 2.23099
225 3.74287
230 2.74967
235 4.76137
240 4.07972
245 6.23145
250 3.17476
255 4.10263
260 3.33318
265 4.0021
270 6.848
275 2.38241
280 4.73815
285 3.42286
290 4.24731
295 4.47307
300 3.23921
305 4.87986
310 4.44646
315 4.3646
320 3.84839
325 2.80355
330 4.33222
335 2.96926
340 5.11492
345 4.56997
350 5.18369
355 4.17657
360 5.87896
365 4.0051
370 3.71437
375 3.691
380 5.48404
385 4.0877
390 4.81031
395 4.29136
400 4.92939
405 5.89596
410 5.63298
415 3.87773
420 4.32132
425 5.23491
430 4.8982
435 2.76761
440 3.86323
445 3.82909
450 5.67271
455 5.71362
460 6.03396
465 5.21224
470 3.93654
475 3.30782
480 3.84314
485 4.43723
490 4.31977
495 6.13942
500 4.23648
505 5.80285
510 4.90776
515 6.8714
520 6.57635
525 2.49253
530 3.37463
535 4.21144
540 3.72752
545 3.84479
550 3.29494
555 4.53805
560 5.22925
565 4.80536
570 3.41744
575 4.67924
580 6.65665
585 5.78769
590 5.74747
595 4.48618
600 0.51051
Ex : 243
200 3.04082
205 2.80337
210 3.95036
215 2.72568
220 2.12721
225 2.75509
230 5.75778
235 2.17356
240 3.29684
245 2.96731
250 3.05891
255 3.81544
260 4.24885
265 4.25217
270 3.0736
275 3.65682
280 3.45153
285 3.2865
290 3.74285
295 4.1908
300 5.01439
305 4.71537
310 3.05217
315 3.11751
320 3.42382
325 1.78606
330 3.75124
335 3.93876
340 2.56288
345 4.95816
350 3.25339
355 2.87637
360 4.95229
365 3.95765
370 3.16954
375 2.27016
380 3.44061
385 4.43924
390 3.38225
395 4.46518
400 3.07811
405 3.92513
410 3.29606
415 2.57993
420 5.06448
425 4.55672
430 5.0315
435 4.17043
440 3.9572
445 6.72239
450 4.00399
455 3.36008
460 4.67025
465 3.7971
470 3.02718
475 3.10048
480 4.31725
485 3.78552
490 2.89245
495 4.22061
500 6.63067
505 4.90305
510 4.72249
515 4.94725
520 3.92154
525 3.70182
530 7.12019
535 4.82278
540 3.4305
545 4.08032
550 4.91971
555 3.19692
560 3.15472
565 2.26727
570 3.32679
575 3.36273
580 2.97099
585 2.95613
590 4.95099
595 4.30343
600 1.70824
Ex : 248
200 2.44928
205 3.03549
210 2.38237
215 3.38883
220 4.40805
225 2.71179
230 3.5033
235 2.863
240 4.83524
245 4.84471
250 2.71934
255 2.28412
260 2.75065
265 3.10776
270 2.75794
275 1.93123
280 3.48928
285 3.07371
290 3.88919
295 3.49079
300 2.3758
305 3.04272
310 2.27738
315 3.27061
320 4.37353
325 2.59355
330 3.91519
335 3.05581
340 3.1857
345 3.83499
350 3.41446
355 8.42864
360 4.90315
365 3.44012
370 2.20847
375 3.70099
380 3.42573
385 3.6764
390 3.23859
395 4.69374
400 2.37491
405 3.35294
410 3.66399
415 4.67594
420 4.27328
425 4.53518
430 2.82022
435 4.96269
440 2.31585
445 3.53258
450 3.56208
455 3.65653
460 3.26349
465 3.51966
470 3.87697
475 3.75634
480 3.60521
485 2.40626
490 3.55251
495 3.22326
500 2.71497
505 3.29449
510 2.90112
515 6.01134
520 2.95055
525 3.85058
530 3.25287
535 4.35261
540 3.17261
545 2.3144
550 2.50335
555 2.9489
560 1.98737
565 2.88477
570 3.13024
575 3.85922
580 3.0951
585 2.41557
590 4.05333
595 3.03072
600 2.11729
Ex : 253
200 2.02525
205 1.65667
210 3.08659
215 2.30986
220 5.27702
225 4.21843
230 3.4868
235 2.94914
240 3.67136
245 3.68084
250 2.01672
255 4.00896
260 3.36413
265 2.24273
270 2.19223
275 2.91244
280 2.09936
285 2.77697
290 1.57619
295 1.62972
300 2.7623
305 3.09924
310 2.32302
315 2.71656
320 3.79969
325 2.55793
330 2.91613
335 2.33441
340 2.71733
345 2.8985
350 2.42164
355 2.4482
360 1.92995
365 2.93642
370 3.86778
375 2.75275
380 3.41723
385 2.70358
390 4.36589
395 2.4676
400 4.99249
405 3.1065
410 3.7368
415 4.69634
420 3.6826
425 2.94755
430 2.81545
435 2.6031
440 3.10442
445 2.17267
450 2.82242
455 4.51573
460 2.72283
465 3.89121
470 3.54676
475 2.94076
480 3.55883
485 3.14457
490 2.52836
495 3.06017
500 2.37449
505 3.80156
510 2.25999
515 2.40709
520 3.12596
525 2.65488
530 3.3251
535 3.88963
540 1.94375
545 3.47515
550 2.55558
555 1.92895
560 3.1713
565 3.80422
570 3.84512
575 2.83604
580 2.87392
585 4.03902
590 2.91214
595 2.75323
600 2.60267
Ex : 258
200 2.08806
205 1.29889
210 1.59334
215 2.66453
220 2.1468
225 1.58988
230 1.89221
235 1.69709
240 2.10774
245 1.58695
250 1.64265
255 2.03273
260 2.60169
265 1.49763
270 3.10852
275 2.22482
280 1.96759
285 1.75203
290 2.83784
295 3.37881
300 2.39298
305 1.55767
310 2.79427
315 1.76418
320 1.57166
325 3.09945
330 2.36179
335 1.95418
340 2.95
345 2.49537
350 2.12108
355 1.74015
360 2.48443
365 2.71978
370 2.30479
375 1.93562
380 2.04521
385 2.0503
390 3.27808
395 3.28355
400 2.68604
405 2.4528
410 2.85038
415 3.36327
420 2.58051
425 2.53295
430 2.55177
435 2.67104
440 2.63886
445 2.12718
450 1.74124
455 3.41909
460 2.56812
465 3.11344
470 2.68125
475 2.65587
480 3.16438
485 2.55104
490 2.16117
495 3.97016
500 2.50014
505 2.05153
510 3.18382
515 2.5787
520 1.97614
525 1.87948
530 3.0668
535 3.48547
540 2.7227
545 1.67712
550 1.55532
555 3.31224
560 2.60065
565 3.00379
570 2.05939
575 1.87312
580 3.02621
585 2.21564
590 1.50324
595 1.25957
600 3.4666
Ex : 263
200 1.56757
205 1.27268
210 1.76503
215 2.18319
220 1.28969
225 1.62662
230 1.09914
235 1.16349
240 0.627126
245 1.34145
250 1.66358
255 2.40835
260 1.67148
265 0.799743
270 1.36737
275 1.45602
280 2.30843
285 1.56009
290 1.91409
295 2.02353
300 1.78184
305 1.1818
310 1.8649
315 1.56432
320 1.35106
325 1.23248
330 1.90836
335 2.15083
340 2.81332
345 2.34616
350 1.79314
355 2.34952
360 2.43963
365 1.90161
370 1.86905
375 2.93531
380 1.69345
385 2.12218
390 2.21116
395 2.6355
400 2.42419
405 2.55998
410 2.27493
415 2.23458
420 2.26799
425 2.69623
430 3.18912
435 2.7915
440 2.14634
445 1.8216
450 1.63538
455 1.90688
460 2.22939
465 1.9673
470 2.79654
475 2.67489
480 2.27992
485 3.59441
490 2.5519
495 2.32896
500 2.26427
505 1.57184
510 2.02643
515 1.89875
520 2.88583
525 2.78412
530 1.60059
535 1.31648
540 2.18253
545 1.81175
550 1.45195
555 2.09594
560 2.47471
565 1.6823
570 1.23114
575 2.01415
580 1.83009
585 1.81915
590 1.50734
595 1.41164
600 0.16064
Ex : 268
200 1.39097
205 1.47458
210 1.37831
215 1.23344
220 1.26516
225 1.81245
230 2.01684
235 1.04177
240 1.07646
245 1.04831
250 1.3418
255 1.49272
260 1.54803
265 1.78962
270 1.40676
275 1.49278
280 0.869152
285 0.792505
290 0.946998
295 1.1143
300 1.03102
305 1.16991
310 0.9436
315 1.34897
320 1.50022
325 1.82089
330 1.72561
335 1.41206
340 1.54326
345 2.10185
350 2.17895
355 2.0499
360 1.49592
365 1.88133
370 2.09685
375 2.87784
380 1.79125
385 3.07999
390 2.80943
395 1.34589
400 1.89178
405 2.41774
410 2.15564
415 1.65026
420 2.18987
425 1.79414
430 1.41753
435 2.32697
440 2.03948
445 1.94006
450 2.12678
455 1.64788
460 1.7046
465 2.16661
470 1.37495
475 1.57825
480 1.34948
485 1.64975
490 1.61232
495 1.53604
500 1.39653
505 1.6678
510 1.9988
515 1.67969
520 1.57308
525 1.87241
530 2.71376
535 2.42033
540 2.13382
545 2.07363
550 1.39564
555 1.44028
560 0.899764
565 2.08694
570 1.25634
575 1.20165
580 1.11905
585 1.40492
590 2.1787
595 1.50555
600 0.36826
Ex : 273
200 2.04024
205 1.27519
210 0.849599
215 1.00021
220 0.98801
225 1.19312
230 1.41205
235 0.710151
240 0.486687
245 1.13155
250 1.32194
255 1.21552
260 1.04818
265 1.15136
270 1.00267
275 1.76291
280 1.51286
285 1.08036
290 1.721
295 0.96862
300 0.676335
305 0.926243
310 1.14879
315 1.16846
320 0.910562
325 0.995332
330 1.57109
335 0.876978
340 1.57159
345 1.09047
350 1.14945
355 1.8978
360 2.14281
365 1.52351
370 1.83951
375 1.36112
380 1.26174
385 1.58548
390 1.69989
395 1.68657
400 1.83734
405 1.53022
410 1.51913
415 1.82154
420 1.36901
425 1.71554
430 1.53009
435 1.52478
440 1.39524
445 1.82681
450 1.77607
455 1.40411
460 1.73311
465 1.43553
470 1.32062
475 1.58261
480 1.63503
485 1.79601
490 1.2425
495 1.19714
500 1.03631
505 1.15443
510 1.59137
515 0.929362
520 1.38341
525 0.906738
530 1.42746
535 1.13991
540 1.8285
545 1.63887
550 1.3472
555 0.638261
560 0.704063
565 1.1785
570 0.911798
575 1.59056
580 1.37687
585 0.730856
590 0.82076
595 1.47632
600 1.62137
Ex : 278
200 0.864575
205 0.701153
210 0.813017
215 0.942642
220 1.51517
225 1.20768
230 1.21076
235 1.11995
240 0.930592
245 0.631612
250 1.1909
255 0.61073
260 1.25967
265 1.23188
270 1.13621
275 1.18988
280 0.864127
285 0.969518
290 1.19652
295 1.0752
300 0.739667
305 0.553074
310 0.89688
315 0.782703
320 1.26461
325 1.54849
330 1.08769
335 1.43155
340 1.34124
345 0.899463
350 1.37487
355 1.15055
360 1.77132
365 1.08853
370 1.43025
375 1.05197
380 1.2267
385 1.14401
390 1.65433
395 1.91718
400 1.50692
405 1.21474
410 1.48487
415 1.48773
420 2.06448
425 1.47471
430 1.29241
435 1.29543
440 1.26651
445 1.09583
450 1.7792
455 1.16404
460 1.17652
465 1.19266
470 1.48305
475 1.82532
480 1.18194
485 0.899098
490 1.19934
495 1.74458
500 0.95716
505 1.06617
510 1.38968
515 1.12415
520 0.852455
525 1.16015
530 1.11399
535 0.937857
540 0.798692
545 1.115
550 1.3638
555 2.03477
560 1.46967
565 1.12966
570 0.916536
575 0.98222
580 0.634716
585 0.656231
590 0.515148
595 0.723275
600 0.0823059
Ex : 283
200 0.82514
205 0.941625
210 0.878583
215 0.766653
220 0.638243
225 0.688573
230 0.896931
235 0.910993
240 0.542351
245 0.46202
250 0.718322
255 0.761561
260 0.875723
265 0.770295
270 0.863555
275 0.982598
280 1.34387
285 1.10382
290 0.888696
295 0.620174
300 0.622645
305 0.54165
310 0.565348
315 0.672304
320 0.535017
325 0.927713
330 0.913617
335 1.09597
340 0.845187
345 0.820744
350 1.08786
355 1.1554
360 1.13306
365 0.871667
370 1.43726
375 1.32603
380 1.40404
385 1.08513
390 1.405
395 1.1263
400 1.24621
405 1.35033
410 1.18715
415 1.50611
420 1.53007
425 1.37096
430 1.68678
435 1.38755
440 1.07544
445 1.14008
450 1.42175
455 1.31095
460 1.33729
465 1.12713
470 1.33052
475 0.971618
480 1.52534
485 1.23262
490 1.05925
495 0.815674
500 0.930868
505 0.768569
510 0.578533
515 1.1159
520 0.74607
525 0.782456
530 0.840511
535 0.729897
540 0.653209
545 0.689959
550 1.21123
555 1.3505
560 1.6781
565 1.34841
570 1.02977
575 0.554285
580 1.01682
585 0.564189
590 0.763242
595 0.466387
600 1.64824
Ex : 288
200 0.794721
205 0.470014
210 0.330588
215 0.591171
220 0.632072
225 0.680444
230 0.56737
235 0.506106
240 0.481316
245 0.566325
250 0.957956
255 0.775863
260 0.622285
265 0.469218
270 0.732591
275 0.656297
280 0.823464
285 1.06994
290 0.577071
295 0.552714
300 0.562374
305 0.529345
310 0.681355
315 0.721341
320 0.34418
325 0.564907
330 0.575148
335 0.832496
340 1.02548
345 0.881768
350 1.09804
355 0.912516
360 0.906017
365 1.16037
370 1.00664
375 1.32968
380 1.23312
385 0.967275
390 1.0818
395 0.957972
400 1.44539
405 1.51664
410 1.18866
415 1.11796
420 1.24881
425 1.17899
430 1.18366
435 1.16476
440 1.24756
445 1.581
450 1.12344
455 0.789128
460 0.854347
465 1.08996
470 0.983113
475 1.08979
480 1.2319
485 0.722787
490 0.940826
495 0.898835
500 0.739848
505 0.96778
510 0.54439
515 0.606704
520 0.935888
525 0.560537
530 0.630539
535 0.730001
540 0.925844
545 0.704385
550 0.750726
555 0.883221
560 0.961435
565 1.10846
570 1.33318
575 1.07558
580 0.713025
585 0.672984
590 0.662912
595 0.450329
600 1.10625
Ex : 293
200 0.510204
205 0.473509
210 0.710743
215 0.607788
220 0.42702
225 0.511443
230 0.67994
235 0.587871
240 0.420215
245 0.4676
250 0.533705
255 0.479293
260 0.33589
265 0.431301
270 0.468553
275 0.412784
280 0.692458
285 1.0848
290 0.933306
295 0.534091
300 0.360171
305 0.367553
310 0.719772
315 0.82347
320 0.542658
325 0.576667
330 0.804051
335 0.766808
340 0.953353
345 0.796866
350 0.660701
355 0.876143
360 0.915117
365 1.02561
370 0.828106
375 0.951361
380 0.974625
385 1.28398
390 1.37486
395 1.12577
400 1.34954
405 1.25518
410 1.44898
415 1.14172
420 1.21819
425 0.867763
430 0.806896
435 1.17743
440 0.975236
445 1.13619
450 1.05764
455 1.13513
460 1.13596
465 0.863995
470 0.973373
475 0.603795
480 1.0192
485 0.918992
490 0.78221
495 1.34772
500 0.969888
505 0.743116
510 0.671797
515 0.735969
520 0.539806
525 0.589673
530 0.73356
535 0.661397
540 0.871822
545 0.425139
550 0.601813
555 0.521621
560 0.464607
565 0.562987
570 0.558278
575 0.961277
580 1.49933
585 1.37791
590 0.867449
595 0.865423
600 0.0984818
Ex : 298
200 0.422892
205 0.416732
210 0.640548
215 0.420438
220 0.38905
225 0.379234
230 0.352494
235 0.466276
240 0.401294
245 0.666394
250 0.335569
255 0.367425
260 0.272331
265 0.285399
270 0.326195
275 0.613992
280 0.533518
285 0.539194
290 0.82768
295 1.05292
300 0.405916
305 0.38578
310 0.516154
315 0.266687
320 0.443111
325 0.566437
330 0.533739
335 0.953497
340 0.862671
345 0.763015
350 0.943376
355 0.80627
360 0.870371
365 0.901769
370 0.711132
375 0.933342
380 0.94385
385 1.04229
390 1.08879
395 0.995698
400 0.858209
405 0.956626
410 0.9694
415 0.911878
420 0.811261
425 1.12558
430 0.840186
435 0.928433
440 0.958847
445 1.18608
450 0.955139
455 1.06787
460 0.740813
465 0.961636
470 0.945378
475 0.590121
480 0.668854
485 0.842466
490 0.609097
495 0.806851
500 0.886839
505 0.500117
510 0.714968
515 0.50433
520 0.595457
525 0.499411
530 0.446277
535 0.568998
540 0.44714
545 0.525456
550 0.681924
555 0.374935
560 0.75295
565 0.914301
570 0.74789
575 0.523985
580 0.642961
585 1.16117
590 1.15272
595 1.22174
600 0.139029
Ex : 303
200 0.270106
205 0.309938
210 0.418193
215 0.503341
220 0.549126
225 0.284039
230 0.378058
235 0.298391
240 0.286435
245 0.285123
250 0.205149
255 0.409311
260 0.258701
265 0.427594
270 0.390048
275 0.391235
280 0.315766
285 0.478362
290 0.491963
295 0.722484
300 0.761338
305 0.847206
310 0.315676
315 0.50164
320 0.481053
325 0.448239
330 0.497508
335 0.615791
340 0.640307
345 0.497595
350 0.760512
355 0.605117
360 0.829085
365 0.622693
370 0.877113
375 1.07286
380 0.883279
385 0.753736
390 1.24682
395 1.14258
400 0.986673
405 0.925733
410 0.92234
415 0.990826
420 1.08104
425 0.987419
430 1.04682
435 1.07308
440 0.965349
445 1.10919
450 0.969212
455 0.792168
460 1.00183
465 1.06693
470 1.24459
475 1.04536
480 0.717028
485 0.615205
490 0.666524
495 0.603117
500 0.575035
505 0.746641
510 0.642383
515 0.444472
520 0.360058
525 0.603605
530 0.661745
535 0.588619
540 0.369028
545 0.590901
550 0.42864
555 0.389289
560 0.405495
565 0.660601
570 0.314616
575 0.248572
580 0.392757
585 0.475262
590 0.54794
595 0.749983
600 1.77335
Ex : 308
200 0.321086
205 0.269034
210 0.30416
215 0.406735
220 0.443386
225 0.349416
230 0.436356
235 0.427304
240 0.250669
245 0.271583
250 0.19206
255 0.184785
260 0.213887
265 0.290023
270 0.288536
275 0.224924
280 0.347959
285 0.272574
290 0.25168
295 0.30595
300 0.665537
305 0.706673
310 0.328601
315 0.431953
320 0.374008
325 0.444177
330 0.635589
335 0.716894
340 0.55483
345 0.57229
350 0.549614
355 0.611512
360 0.902091
365 0.933932
370 0.817971
375 0.777647
380 1.03703
385 1.06531
390 1.10062
395 0.887767
400 1.10454
405 1.05174
410 1.0889
415 1.01041
420 0.969928
425 0.929795
430 0.983687
435 0.964959
440 0.887087
445 0.878811
450 0.761921
455 0.843558
460 0.901661
465 1.10304
470 0.899915
475 0.971506
480 0.695949
485 0.812053
490 0.655739
495 0.741341
500 0.755378
505 0.604899
510 0.627798
515 0.512456
520 0.455406
525 0.531061
530 0.40669
535 0.510214
540 0.480584
545 0.471237
550 0.454492
555 0.468722
560 0.323786
565 0.477713
570 0.375781
575 0.393828
580 0.491768
585 0.392046
590 0.316859
595 0.433993
600 0.411357
Ex : 313
200 0.263035
205 0.288095
210 0.372595
215 0.460323
220 0.323124
225 0.254244
230 0.36103
235 0.451878
240 0.33773
245 0.318982
250 0.332732
255 0.180456
260 0.27355
265 0.400553
270 0.216888
275 0.429995
280 0.290766
285 0.351817
290 0.268674
295 0.267618
300 0.231662
305 0.627696
310 0.782052
315 0.404882
320 0.404509
325 0.619228
330 0.597441
335 0.668644
340 0.501509
345 0.778645
350 0.84027
355 0.737955
360 1.05883
365 0.947407
370 1.10832
375 1.25105
380 1.49973
385 1.49077
390 1.70208
395 1.90485
400 1.86012
405 1.97838
410 1.63794
415 1.81572
420 1.78801
425 1.93317
430 1.83865
435 1.59329
440 1.66647
445 1.70666
450 1.62708
455 1.59787
460 1.4096
465 1.43764
470 1.23741
475 1.21154
480 1.03109
485 0.828374
490 1.02195
495 0.924852
500 0.746356
505 0.935574
510 0.732401
515 0.691228
520 0.62099
525 0.525296
530 0.589718
535 0.634974
540 0.459614
545 0.567567
550 0.427444
555 0.422204
560 0.434206
565 0.356033
570 0.276957
575 0.277917
580 0.364673
585 0.382605
590 0.379793
595 0.385285
600 0.240778
Ex : 318
200 0.220273
205 0.34552
210 0.299016
215 0.430297
220 0.301275
225 0.292943
230 0.255649
235 0.234206
240 0.265059
245 0.320459
250 0.233015
255 0.392023
260 0.328707
265 0.297525
270 0.246657
275 0.273017
280 0.215338
285 0.317516
290 0.256634
295 0.275913
300 0.242355
305 0.410509
310 0.827462
315 1.56868
320 0.68792
325 0.751408
330 0.854282
335 1.37436
340 1.88221
345 2.68149
350 3.57914
355 4.20185
360 5.03145
365 5.8519
370 7.33854
375 8.39399
380 9.09502
385 11.2495
390 10.9758
395 12.5723
400 12.8363
405 12.8114
410 13.7212
415 13.4067
420 13.0941
425 13.124
430 12.8561
435 12.0807
440 10.9025
445 10.9235
450 10.5114
455 10.2642
460 9.07979
465 8.50108
470 7.96484
475 7.06082
480 6.34146
485 5.86226
490 5.40353
495 4.60421
500 4.34801
505 3.45736
510 3.08731
515 2.83195
520 2.44143
525 1.90932
530 1.83045
535 1.67743
540 1.59383
545 1.45156
550 1.213
555 0.952052
560 0.784227
565 0.748356
570 0.524097
575 0.504815
580 0.389166
585 0.412126
590 0.34028
595 0.371688
600 0.148256
Ex : 323
200 0.280984
205 0.199446
210 0.182636
215 0.204911
220 0.26417
225 0.249345
230 0.309259
235 0.285543
240 0.177962
245 0.181715
250 0.2212
255 0.398485
260 0.169497
265 0.358427
270 0.266647
275 0.224188
280 0.321465
285 0.316132
290 0.366934
295 0.312786
300 0.244112
305 0.213915
310 0.248274
315 5.47281
320 23.7434
325 11.1167
330 3.68756
335 3.94242
340 5.03247
345 6.77341
350 9.95894
355 13.5746
360 16.0338
365 19.1301
370 23.0852
375 25.6138
380 29.1374
385 32.446
390 35.0018
395 36.7468
400 39.5515
405 40.2573
410 40.6666
415 40.6276
420 39.8936
425 39.2163
430 37.9309
435 36.7113
440 36.039
445 33.6244
450 31.5884
455 29.7271
460 29.0037
465 26.2352
470 24.4755
475 22.3218
480 20.5245
485 18.3191
490 16.1282
495 15.3759
500 13.3338
505 11.7254
510 9.52393
515 8.81054
520 7.73478
525 6.7954
530 5.48911
535 5.22615
540 4.43692
545 3.44586
550 3.32706
555 2.53551
560 2.25339
565 2.08743
570 1.51132
575 0.902268
580 1.10341
585 0.715681
590 0.689982
595 0.538046
600 0.103834
Ex : 328
200 0.229818
205 0.284968
210 0.285868
215 0.217976
220 0.210054
225 0.161076
230 0.191488
235 0.142011
240 0.201632
245 0.227279
250 0.269915
255 0.337957
260 0.253081
265 0.28269
270 0.255635
275 0.360062
280 0.236258
285 0.176726
290 0.228939
295 0.195323
300 0.194082
305 0.229471
310 0.390043
315 1.79634
320 60.0449
325 159.623
330 54.5254
335 10.5667
340 6.64127
345 6.76475
350 9.37436
355 13.6349
360 18.4409
365 20.1502
370 22.5999
375 24.8428
380 28.4942
385 30.6406
390 34.2414
395 35.8617
400 36.3865
405 37.8273
410 38.0461
415 38.2048
420 38.5062
425 36.2495
430 35.7207
435 34.9777
440 33.415
445 31.3832
450 30.383
455 29.5386
460 27.8179
465 25.5734
470 23.0924
475 21.5867
480 20.8041
485 17.6426
490 16.7624
495 14.9309
500 13.0413
505 11.7168
510 10.0384
515 9.10586
520 8.07236
525 7.19203
530 6.01243
535 5.27182
540 4.76049
545 4.0084
550 3.40556
555 3.02038
560 2.37606
565 2.45363
570 2.06467
575 1.6199
580 1.06642
585 0.919536
590 0.815094
595 0.658085
600 0.0907126
Ex : 333
200 0.18529
205 0.229027
210 0.234182
215 0.166469
220 0.19449
225 0.252084
230 0.187336
235 0.231624
240 0.15884
245 0.242332
250 0.187609
255 0.329181
260 0.289168
265 0.257979
270 0.21968
275 0.225992
280 0.180722
285 0.289773
290 0.201182
295 0.219601
300 0.248192
305 0.295191
310 0.273442
315 0.363763
320 12.9262
325 222.659
330 381.88
335 109.211
340 16.57
345 6.87126
350 6.51515
355 7.2047
360 9.75162
365 14.4657
370 14.9635
375 15.2179
380 15.4493
385 16.9904
390 17.5916
395 18.8971
400 20.2196
405 20.4725
410 22.5169
415 22.3027
420 21.6609
425 21.3028
430 21.0227
435 20.651
440 20.3813
445 19.7309
450 19.471
455 17.8779
460 17.7074
465 16.713
470 15.1237
475 14.3142
480 12.9405
485 12.5064
490 11.7214
495 10.2869
500 9.76522
505 8.10588
510 7.92147
515 6.60766
520 6.25259
525 5.8295
530 4.84664
535 4.55503
540 3.71552
545 3.30429
550 2.86407
555 2.53516
560 2.1084
565 2.15039
570 1.82819
575 1.33135
580 1.18575
585 0.870525
590 0.829335
595 0.569042
600 0.812156
Ex : 338
200 0.250606
205 0.215931
210 0.15552
215 0.222194
220 0.196593
225 0.175913
230 0.178866
235 0.214298
240 0.157471
245 0.21661
250 0.168504
255 0.192412
260 0.175224
265 0.223739
270 0.209016
275 0.187737
280 0.219866
285 0.1857
290 0.266492
295 0.345249
300 0.234336
305 0.373669
310 0.395256
315 0.30079
320 0.461912
325 29.6831
330 370.794
335 522.608
340 138.908
345 18.8817
350 5.84583
355 4.54786
360 4.1765
365 6.2326
370 10.7124
375 11.0467
380 9.82371
385 9.04713
390 9.50021
395 10.607
400 10.4659
405 11.3387
410 12.8002
415 13.404
420 13.7468
425 13.2797
430 13.0561
435 13.9546
440 14.0694
445 14.5112
450 13.2811
455 12.9965
460 12.4163
465 12.4464
470 11.983
475 11.917
480 11.2386
485 10.819
490 9.89795
495 8.99642
500 8.12991
505 7.62184
510 7.1843
515 6.52147
520 5.59732
525 5.22369
530 4.5256
535 4.08782
540 3.72996
545 3.66615
550 3.26175
555 2.73933
560 2.54524
565 2.05276
570 1.74421
575 1.21513
580 1.22448
585 0.934225
590 0.808705
595 0.64332
600 1.04997
Ex : 343
200 0.188081
205 0.126553
210 0.211697
215 0.207404
220 0.146159
225 0.144
230 0.160913
235 0.21273
240 0.161996
245 0.1992
250 0.152914
255 0.126661
260 0.259796
265 0.26989
270 0.232876
275 0.282477
280 0.255675
285 0.245595
290 0.30815
295 0.156132
300 0.193087
305 0.223434
310 0.25458
315 0.215949
320 0.447496
325 0.746096
330 36.0203
335 431.152
340 588.246
345 149.414
350 20.0145
355 5.28156
360 3.46326
365 3.09948
370 4.10058
375 8.2281
380 9.60373
385 7.70023
390 6.61488
395 6.89013
400 7.59441
405 8.67128
410 10.3571
415 11.9103
420 11.6203
425 11.6548
430 12.3893
435 12.7656
440 13.241
445 13.4372
450 13.2008
455 12.4327
460 12.9022
465 12.7528
470 12.6721
475 12.6981
480 11.4044
485 11.1275
490 10.4256
495 9.92831
500 9.3456
505 8.22183
510 7.98302
515 6.88831
520 6.23315
525 5.99476
530 5.43438
535 4.81754
540 4.38171
545 3.71943
550 3.40371
555 2.80243
560 2.64135
565 2.23716
570 2.18235
575 1.56559
580 1.34522
585 1.24715
590 0.954592
595 0.656377
600 0.966689
Ex : 348
200 0.167153
205 0.24431
210 0.160628
215 0.11212
220 0.195626
225 0.168375
230 0.246051
235 0.137944
240 0.171512
245 0.187561
250 0.163001
255 0.24284
260 0.208695
265 0.181392
270 0.171374
275 0.256905
280 0.259049
285 0.247849
290 0.203346
295 0.150392
300 0.322889
305 0.231969
310 0.280083
315 0.312277
320 0.295193
325 0.482433
330 0.760976
335 36.2361
340 435.771
345 614.082
350 164.858
355 21.3565
360 5.09176
365 3.12898
370 2.5535
375 3.11688
380 6.13272
385 8.70872
390 7.33871
395 6.06916
400 6.26896
405 7.60906
410 9.66323
415 11.81
420 11.6389
425 12.0364
430 12.9342
435 14.3194
440 14.6074
445 15.1302
450 14.2921
455 14.422
460 14.8749
465 14.6143
470 14.4011
475 14.0915
480 13.6479
485 12.7793
490 12.1416
495 11.3089
500 10.475
505 10.036
510 9.14546
515 8.41461
520 7.51789
525 6.62018
530 5.98224
535 5.51802
540 4.9588
545 4.43958
550 4.04381
555 3.40251
560 3.0415
565 2.57868
570 2.17529
575 1.83646
580 1.5351
585 1.20306
590 0.812866
595 0.873251
600 0.416655
Ex : 353
200 0.150805
205 0.138673
210 0.138714
215 0.221056
220 0.194347
225 0.203992
230 0.246471
235 0.181401
240 0.255244
245 0.255511
250 0.185054
255 0.189743
260 0.159252
265 0.153245
270 0.222416
275 0.202286
280 0.122102
285 0.163998
290 0.199973
295 0.197738
300 0.188855
305 0.223249
310 0.298308
315 0.250203
320 0.261122
325 0.305027
330 0.532941
335 0.937181
340 37.9508
345 443.296
350 599.312
355 155.248
360 20.0883
365 4.45846
370 2.93826
375 2.55812
380 2.74178
385 5.40562
390 8.37042
395 7.55254
400 7.41394
405 8.41152
410 10.0441
415 11.4542
420 11.7839
425 12.171
430 12.9887
435 14.0241
440 14.9247
445 15.5927
450 15.5923
455 15.3365
460 14.8704
465 15.5492
470 15.2921
475 15.1966
480 14.7392
485 14.4615
490 13.7443
495 12.7165
500 12.1499
505 11.1171
510 10.4817
515 9.03015
520 8.34962
525 8.02863
530 6.73284
535 6.51452
540 5.91482
545 5.08459
550 4.59262
555 4.15553
560 3.63905
565 3.09177
570 2.69499
575 2.05736
580 1.5583
585 1.30499
590 0.966231
595 0.822028
600 1.33725
Ex : 358
200 0.160635
205 0.167291
210 0.128927
215 0.150302
220 0.151353
225 0.165791
230 0.15285
235 0.122926
240 0.268153
245 0.275537
250 0.164906
255 0.119599
260 0.138524
265 0.254383
270 0.154905
275 0.169461
280 0.181691
285 0.214792
290 0.239607
295 0.265699
300 0.193311
305 0.238603
310 0.211396
315 0.245326
320 0.295732
325 0.258299
330 0.334391
335 0.597689
340 0.905999
345 34.502
350 421.952
355 598.089
360 157.031
365 20.1988
370 4.68526
375 3.68764
380 2.93212
385 2.94683
390 4.77787
395 8.82063
400 9.46517
405 10.0038
410 10.8518
415 12.2597
420 12.9865
425 13.2063
430 13.8136
435 14.8957
440 16.1996
445 16.9554
450 16.9477
455 16.276
460 16.5024
465 16.8264
470 16.9721
475 16.4544
480 15.889
485 15.5084
490 14.9849
495 14.1536
500 13.5586
505 12.4296
510 11.4251
515 10.3834
520 9.52996
525 8.5893
530 7.79411
535 7.04441
540 6.42895
545 5.71484
550 5.42288
555 4.55902
560 4.08228
565 3.17315
570 2.76471
575 2.02942
580 1.77484
585 1.44586
590 0.988273
595 0.921443
600 1.33804
Ex : 363
200 0.232114
205 0.131734
210 0.134223
215 0.154284
220 0.138933
225 0.128645
230 0.128002
235 0.131915
240 0.194877
245 0.135351
250 0.21698
255 0.201468
260 0.154787
265 0.135523
270 0.141888
275 0.0934266
280 0.194693
285 0.158672
290 0.29282
295 0.0936021
300 0.144771
305 0.196636
310 0.187736
315 0.201164
320 0.189101
325 0.226076
330 0.243125
335 0.348012
340 0.469544
345 0.733101
350 31.4407
355 409.006
360 593.957
365 162.942
370 20.5843
375 4.73373
380 3.54767
385 3.10655
390 3.24148
395 4.41679
400 8.89684
405 11.9011
410 13.9457
415 14.6801
420 14.5378
425 14.8049
430 15.6737
435 17.7558
440 18.9088
445 19.1262
450 19.2771
455 19.3104
460 19.4142
465 19.2646
470 20.1001
475 19.7125
480 18.3036
485 17.7505
490 17.18
495 16.4355
500 15.5321
505 14.54
510 13.1902
515 12.1226
520 11.1354
525 10.0098
530 8.87369
535 8.02218
540 7.18268
545 6.32822
550 5.70182
555 5.07089
560 4.34932
565 3.85441
570 3.25196
575 2.55758
580 2.00729
585 1.61007
590 1.17402
595 0.926712
600 0.66861
Ex : 368
200 0.127874
205 0.166509
210 0.125516
215 0.104758
220 0.17186
225 0.251308
230 0.132431
235 0.13882
240 0.135227
245 0.166061
250 0.122417
255 0.138919
260 0.149385
265 0.133109
270 0.110884
275 0.144639
280 0.140391
285 0.14476
290 0.191369
295 0.167286
300 0.109079
305 0.233426
310 0.204788
315 0.19044
320 0.177962
325 0.189706
330 0.225618
335 0.216291
340 0.423252
345 0.546802
350 0.784407
355 24.7703
360 374.519
365 576.943
370 161.167
375 20.7462
380 4.43853
385 3.43475
390 3.24575
395 3.08731
400 4.72892
405 9.74901
410 14.5614
415 15.1814
420 14.7928
425 14.1878
430 14.4393
435 16.4554
440 18.3495
445 18.642
450 18.6356
455 18.7652
460 19.085
465 19.8628
470 19.9635
475 20.4121
480 19.8504
485 19.6207
490 18.8076
495 17.9227
500 17.1089
505 16.049
510 14.8276
515 13.1884
520 12.1879
525 11.2944
530 10.0852
535 9.23775
540 8.63938
545 7.34256
550 6.38372
555 5.86309
560 5.07984
565 4.3397
570 3.49818
575 2.84881
580 2.45053
585 1.66647
590 1.22375
595 1.03915
600 1.20959
Ex : 373
200 0.0922551
205 0.140107
210 0.0865872
215 0.106087
220 0.144652
225 0.101797
230 0.11003
235 0.178078
240 0.111871
245 0.13994
250 0.154933
255 0.118641
260 0.104512
265 0.147055
270 0.180668
275 0.149691
280 0.130283
285 0.182058
290 0.156878
295 0.120313
300 0.174128
305 0.154377
310 0.146804
315 0.130098
320 0.197559
325 0.188865
330 0.195915
335 0.208534
340 0.277962
345 0.35307
350 0.505779
355 0.794839
360 28.2213
365 375.537
370 572.019
375 159.705
380 20.6395
385 4.66917
390 3.29299
395 3.59956
400 4.13436
405 6.04127
410 10.6248
415 14.9979
420 14.5605
425 13.3452
430 13.046
435 14.7398
440 15.8846
445 16.6676
450 16.9297
455 17.3592
460 17.9555
465 18.7494
470 19.5921
475 19.6309
480 19.2478
485 19.1179
490 18.7836
495 18.0093
500 17.8446
505 16.357
510 15.0465
515 14.0841
520 12.7473
525 11.3505
530 10.782
535 9.75509
540 8.90989
545 7.80283
550 6.93351
555 6.28465
560 5.41739
565 4.48241
570 4.05859
575 3.26234
580 2.51669
585 1.82924
590 1.46278
595 1.27535
600 0.650988
Ex : 378
200 0.101441
205 0.112203
210 0.16608
215 0.121052
220 0.150202
225 0.171104
230 0.118727
235 0.094868
240 0.1202
245 0.125683
250 0.150458
255 0.131858
260 0.137545
265 0.187669
270 0.104868
275 0.196659
280 0.155221
285 0.175453
290 0.115746
295 0.127209
300 0.13256
305 0.123699
310 0.140627
315 0.116453
320 0.189947
325 0.135681
330 0.149828
335 0.229436
340 0.221697
345 0.213427
350 0.398345
355 0.544485
360 0.842494
365 26.179
370 378.822
375 587.437
380 165.229
385 21.9638
390 5.35729
395 4.02356
400 4.92002
405 6.62697
410 9.41323
415 12.947
420 16.03
425 15.6576
430 14.9379
435 15.9751
440 16.9042
445 17.6578
450 17.7956
455 17.5003
460 18.1588
465 19.0919
470 19.1711
475 19.3867
480 19.5914
485 19.023
490 18.1977
495 17.5988
500 16.7197
505 16.0367
510 14.7621
515 13.58
520 12.3176
525 11.6227
530 9.73069
535 9.18609
540 8.33421
545 7.41794
550 6.65233
555 5.74579
560 5.17414
565 4.41112
570 3.66323
575 2.98728
580 2.37953
585 1.80625
590 1.50797
595 1.07845
600 1.00163
Ex : 383
200 0.0972872
205 0.114478
210 0.0883738
215 0.110217
220 0.115221
225 0.128475
230 0.0948167
235 0.135763
240 0.110745
245 0.135505
250 0.150083
255 0.106402
260 0.121415
265 0.142598
270 0.125457
275 0.116576
280 0.123623
285 0.151978
290 0.115771
295 0.159675
300 0.105551
305 0.134437
310 0.128844
315 0.101304
320 0.14146
325 0.125341
330 0.163482
335 0.169724
340 0.259296
345 0.234468
350 0.258544
355 0.336126
360 0.42836
365 0.721018
370 24.6574
375 374.442
380 592.002
385 166.099
390 21.8486
395 5.18262
400 4.76577
405 7.11356
410 10.098
415 12.5801
420 13.894
425 15.6947
430 17.3714
435 18.1376
440 19.2409
445 19.4671
450 18.9553
455 19.0546
460 19.6038
465 20.5307
470 20.8504
475 20.938
480 20.4488
485 19.8021
490 19.0952
495 18.4758
500 17.2329
505 16.2268
510 15.4314
515 13.7241
520 12.9538
525 11.9833
530 10.5655
535 9.30974
540 8.21101
545 7.58781
550 6.69916
555 6.08603
560 5.24994
565 4.42863
570 3.72249
575 3.05036
580 2.33327
585 1.84389
590 1.36295
595 1.16143
600 0.756696
Ex : 388
200 0.120273
205 0.124778
210 0.12667
215 0.0970309
220 0.088481
225 0.122023
230 0.125419
235 0.0688946
240 0.125031
245 0.182203
250 0.110401
255 0.150365
260 0.110264
265 0.11348
270 0.106287
275 0.11676
280 0.143884
285 0.130277
290 0.11074
295 0.126948
300 0.198116
305 0.132489
310 0.184743
315 0.145274
320 0.168211
325 0.157903
330 0.157183
335 0.157771
340 0.208305
345 0.205791
350 0.264166
355 0.334016
360 0.382609
365 0.522496
370 0.908908
375 26.2693
380 378.73
385 582.25
390 163.365
395 21.4612
400 5.87692
405 6.87204
410 10.0111
415 11.7027
420 12.2611
425 12.5947
430 15.3532
435 18.6357
440 19.1913
445 19.1485
450 18.3254
455 18.2174
460 18.8915
465 20.1379
470 20.1585
475 20.4291
480 20.2862
485 19.6669
490 19.3151
495 18.3135
500 17.5788
505 16.6284
510 15.348
515 14.0574
520 13.27
525 11.7329
530 10.7229
535 9.71939
540 8.84133
545 7.45574
550 7.11677
555 6.11102
560 5.32908
565 4.53767
570 3.95064
575 3.11309
580 2.48801
585 1.81544
590 1.39739
595 1.08425
600 1.26327
Ex : 393
200 0.190366
205 0.103129
210 0.113137
215 0.0887057
220 0.101467
225 0.11526
230 0.105025
235 0.118468
240 0.111007
245 0.0815208
250 0.0964931
255 0.147379
260 0.0996899
265 0.0927053
270 0.116949
275 0.120683
280 0.128875
285 0.165207
290 0.133114
295 0.153222
300 0.108063
305 0.0779362
310 0.11104
315 0.140904
320 0.159749
325 0.111472
330 0.177508
335 0.176453
340 0.212237
345 0.182664
350 0.252366
355 0.307919
360 0.391766
365 0.306581
370 0.398171
375 0.80593
380 22.4514
385 365.281
390 583.566
395 164.377
400 22.0172
405 7.03223
410 8.03826
415 9.43321
420 9.81806
425 9.7025
430 10.7263
435 13.7382
440 16.9661
445 17.2535
450 16.0262
455 15.8144
460 16.6206
465 17.6096
470 18.4684
475 19.0782
480 19.0285
485 18.9757
490 18.1463
495 17.4916
500 17.1764
505 16.408
510 15.4188
515 14.552
520 12.9246
525 11.9693
530 10.918
535 9.73404
540 8.81572
545 7.92813
550 6.80966
555 6.21253
560 5.48328
565 4.65893
570 3.98356
575 3.11346
580 2.62681
585 1.95242
590 1.65889
595 1.2798
600 1.03501
Ex : 398
200 0.123252
205 0.114277
210 0.103553
215 0.135686
220 0.148639
225 0.155003
230 0.0683627
235 0.133143
240 0.08905
245 0.119928
250 0.113613
255 0.0950074
260 0.0865865
265 0.0822262
270 0.115164
275 0.0983784
280 0.154632
285 0.117285
290 0.112821
295 0.0831873
300 0.107378
305 0.108974
310 0.109901
315 0.145144
320 0.129575
325 0.137178
330 0.169166
335 0.164548
340 0.159311
345 0.171234
350 0.201314
355 0.176678
360 0.27687
365 0.232537
370 0.280863
375 0.512837
380 0.791174
385 22.6445
390 370.01
395 587.514
400 162.917
405 23.0257
410 8.89669
415 8.76438
420 9.2174
425 9.08032
430 9.13984
435 10.941
440 13.232
445 16.3398
450 16.662
455 16.1334
460 16.747
465 16.8539
470 18.1369
475 18.4228
480 18.1394
485 18.3279
490 18.1532
495 18.1007
500 17.2166
505 16.6174
510 14.9671
515 14.4666
520 13.111
525 12.1024
530 11.2016
535 9.91592
540 9.14368
545 8.11521
550 7.36284
555 6.4655
560 5.55766
565 4.8165
570 4.02572
575 3.38054
580 2.51807
585 2.00018
590 1.50695
595 1.26561
600 1.30244
Ex : 403
200 0.125255
205 0.110607
210 0.104434
215 0.110294
220 0.123134
225 0.184697
230 0.0919347
235 0.130567
240 0.122005
245 0.0862149
250 0.073325
255 0.101845
260 0.0789165
265 0.0924623
270 0.128286
275 0.0957494
280 0.131433
285 0.0930954
290 0.118765
295 0.10945
300 0.154769
305 0.138398
310 0.137411
315 0.113493
320 0.149344
325 0.138842
330 0.122749
335 0.158005
340 0.13559
345 0.142715
350 0.194465
355 0.190976
360 0.254566
365 0.209893
370 0.27577
375 0.388264
380 0.461031
385 0.762269
390 24.8536
395 370.872
400 572.235
405 162.752
410 25.687
415 10.9098
420 9.82809
425 9.74433
430 10.0378
435 11.9219
440 13.1382
445 14.3929
450 16.7497
455 18.1694
460 17.4232
465 18.3319
470 18.5012
475 19.2055
480 18.9267
485 18.7282
490 18.896
495 18.4736
500 18.0328
505 17.1313
510 15.7946
515 14.4357
520 12.9349
525 12.5881
530 11.3644
535 10.209
540 9.43979
545 8.21676
550 7.5887
555 6.54281
560 5.70441
565 4.95919
570 3.98733
575 3.25627
580 2.47709
585 1.944
590 1.53644
595 1.28471
600 0.98656
Ex : 408
200 0.0864087
205 0.115731
210 0.0641821
215 0.101496
220 0.0589264
225 0.133701
230 0.0964732
235 0.123912
240 0.131331
245 0.0962434
250 0.114993
255 0.136686
260 0.11124
265 0.106192
270 0.114725
275 0.0851298
280 0.0717275
285 0.125044
290 0.0893684
295 0.124345
300 0.0840176
305 0.138236
310 0.134163
315 0.153274
320 0.0812301
325 0.0893118
330 0.0982937
335 0.148519
340 0.178984
345 0.210481
350 0.237527
355 0.156286
360 0.195258
365 0.188519
370 0.203847
375 0.223218
380 0.316894
385 0.478945
390 0.851058
395 23.8887
400 376.82
405 586.731
410 162.314
415 26.4927
420 11.0041
425 8.84807
430 9.5538
435 11.1285
440 12.2608
445 13.2016
450 13.6612
455 15.9041
460 18.6947
465 18.7662
470 18.5528
475 19.0665
480 18.638
485 18.4246
490 18.116
495 18.072
500 17.7006
505 16.5098
510 15.8535
515 14.7133
520 13.647
525 12.1559
530 11.1747
535 10.0356
540 9.05514
545 8.14865
550 7.12218
555 6.4026
560 5.60289
565 5.30019
570 3.96034
575 3.152
580 2.54086
585 1.84952
590 1.56668
595 1.21787
600 1.17047
Ex : 413
200 0.0897018
205 0.169432
210 0.112094
215 0.124386
220 0.0823132
225 0.12345
230 0.104499
235 0.105812
240 0.128395
245 0.107089
250 0.0693031
255 0.100826
260 0.106625
265 0.13456
270 0.0782048
275 0.103726
280 0.113234
285 0.108055
290 0.154143
295 0.0933299
300 0.105571
305 0.104794
310 0.110716
315 0.107351
320 0.127392
325 0.16441
330 0.131705
335 0.0920084
340 0.0998479
345 0.124183
350 0.177439
355 0.124493
360 0.210887
365 0.217213
370 0.19222
375 0.197934
380 0.344067
385 0.311036
390 0.532501
395 0.897203
400 26.6178
405 389.087
410 612.485
415 162.033
420 23.8865
425 8.00181
430 6.45612
435 7.61259
440 8.75745
445 9.30535
450 10.0391
455 10.9154
460 13.4197
465 16.4118
470 17.0563
475 16.8438
480 17.1157
485 16.8064
490 16.8464
495 16.7089
500 16.46
505 15.5711
510 14.5017
515 13.8243
520 12.8693
525 11.4934
530 10.5819
535 9.69772
540 8.94654
545 8.27659
550 7.00892
555 6.04869
560 5.65197
565 4.7409
570 3.90244
575 3.06834
580 2.42094
585 1.94527
590 1.52452
595 1.20797
600 1.45646
Ex : 418
200 0.0992039
205 0.117431
210 0.0880318
215 0.101364
220 0.0969903
225 0.134506
230 0.110554
235 0.0856349
240 0.115764
245 0.106121
250 0.1222
255 0.0768105
260 0.0959603
265 0.112685
270 0.135102
275 0.107855
280 0.104325
285 0.126044
290 0.0963056
295 0.13222
300 0.100391
305 0.105846
310 0.0739385
315 0.120746
320 0.126965
325 0.117876
330 0.116999
335 0.140878
340 0.152484
345 0.145904
350 0.123018
355 0.159859
360 0.123338
365 0.163801
370 0.188368
375 0.209427
380 0.235031
385 0.211269
390 0.379311
395 0.575798
400 1.0185
405 25.3706
410 385.465
415 593.343
420 163.018
425 21.95
430 5.78881
435 4.45692
440 5.16745
445 5.66187
450 6.33499
455 7.54539
460 9.00706
465 11.0328
470 14.058
475 15.1692
480 14.6062
485 14.8578
490 14.7119
495 14.6956
500 14.3212
505 13.7172
510 12.6986
515 12.5866
520 11.6309
525 10.7251
530 9.84007
535 9.10798
540 8.13783
545 7.39547
550 6.85793
555 5.73323
560 5.42381
565 4.29813
570 3.81353
575 3.08163
580 2.4042
585 1.73265
590 1.41139
595 1.13635
600 0.705345
Ex : 423
200 0.101135
205 0.121232
210 0.102938
215 0.142996
220 0.0910217
225 0.102298
230 0.0887601
235 0.0887491
240 0.162561
245 0.102036
250 0.11186
255 0.109024
260 0.122296
265 0.110425
270 0.144436
275 0.0918786
280 0.143532
285 0.0531511
290 0.0956676
295 0.104347
300 0.139291
305 0.136988
310 0.144585
315 0.108393
320 0.113803
325 0.125945
330 0.224489
335 0.138115
340 0.129194
345 0.131452
350 0.136717
355 0.144786
360 0.136999
365 0.15777
370 0.153023
375 0.195363
380 0.202513
385 0.201487
390 0.262643
395 0.350446
400 0.615203
405 0.883081
410 25.9732
415 404.511
420 601.555
425 158.593
430 20.6
435 4.53944
440 3.0725
445 3.77826
450 4.9536
455 5.9804
460 7.13907
465 8.27174
470 10.0392
475 12.4348
480 14.1118
485 13.7056
490 13.666
495 13.5932
500 13.2879
505 12.5342
510 11.9333
515 11.2408
520 10.3998
525 9.84899
530 8.97034
535 8.29571
540 7.59367
545 6.94135
550 6.25145
555 5.49114
560 4.8081
565 4.01393
570 3.45379
575 2.72537
580 2.09767
585 1.65457
590 1.29001
595 1.02213
600 0.477792
Ex : 428
200 0.0727475
205 0.13986
210 0.0916455
215 0.143751
220 0.0814964
225 0.106282
230 0.11682
235 0.119803
240 0.135478
245 0.093159
250 0.128586
255 0.164615
260 0.0997913
265 0.105062
270 0.126478
275 0.135531
280 0.10585
285 0.148406
290 0.131766
295 0.145462
300 0.122317
305 0.142941
310 0.129275
315 0.137369
320 0.117587
325 0.100495
330 0.110651
335 0.108854
340 0.135755
345 0.100239
350 0.15516
355 0.153348
360 0.141677
365 0.153901
370 0.175051
375 0.163098
380 0.160322
385 0.23462
390 0.260173
395 0.273677
400 0.425784
405 0.535691
410 0.999351
415 29.6198
420 430.532
425 640.282
430 170.146
435 21.6299
440 4.53356
445 3.1649
450 4.00532
455 5.30735
460 5.99532
465 7.22409
470 8.09597
475 9.23396
480 11.28
485 13.6263
490 13.1342
495 12.5056
500 12.3184
505 11.4341
510 10.7255
515 10.0165
520 9.52756
525 8.85838
530 8.02804
535 7.54154
540 6.92313
545 6.10824
550 5.79192
555 4.95284
560 4.37294
565 3.88999
570 3.2745
575 2.70209
580 1.937
585 1.5527
590 1.10235
595 0.981166
600 0.686805
Ex : 433
200 0.0841338
205 0.105651
210 0.120746
215 0.107615
220 0.0870831
225 0.0693004
230 0.0907944
235 0.0935232
240 0.146734
245 0.0928872
250 0.0975036
255 0.136648
260 0.12208
265 0.1414
270 0.0878212
275 0.118812
280 0.137651
285 0.0853951
290 0.146233
295 0.0921462
300 0.104954
305 0.100092
310 0.0806961
315 0.111773
320 0.0799535
325 0.0975468
330 0.108977
335 0.0886084
340 0.0851404
345 0.145731
350 0.153932
355 0.16676
360 0.16857
365 0.138472
370 0.15695
375 0.2059
380 0.184428
385 0.184932
390 0.182094
395 0.20731
400 0.217253
405 0.395323
410 0.533168
415 0.900906
420 31.5647
425 447.529
430 638.464
435 166.525
440 21.1045
445 4.83043
450 3.59597
455 4.62447
460 5.7642
465 6.22281
470 7.01482
475 8.05334
480 8.92878
485 10.0212
490 12.1162
495 11.9947
500 10.9848
505 10.2558
510 9.6856
515 8.80902
520 8.51998
525 7.74101
530 7.13732
535 6.43948
540 5.89772
545 5.66448
550 4.95121
555 4.50854
560 3.73565
565 3.36369
570 2.67131
575 2.34524
580 1.84808
585 1.48504
590 1.03516
595 0.864596
600 0.797866
Ex : 438
200 0.0980548
205 0.0843744
210 0.121378
215 0.143771
220 0.120993
225 0.0897248
230 0.125843
235 0.11989
240 0.113715
245 0.115314
250 0.0805854
255 0.13846
260 0.135159
265 0.120168
270 0.0894101
275 0.120463
280 0.110694
285 0.0890689
290 0.0848501
295 0.119848
300 0.0994159
305 0.0770975
310 0.106212
315 0.112791
320 0.114627
325 0.0936017
330 0.0959386
335 0.104997
340 0.170191
345 0.14146
350 0.126467
355 0.149313
360 0.137644
365 0.175183
370 0.179032
375 0.172786
380 0.191635
385 0.173916
390 0.197611
395 0.201081
400 0.232044
405 0.266596
410 0.313974
415 0.538692
420 0.932315
425 31.0253
430 450.47
435 683.906
440 179.011
445 23.067
450 5.47339
455 4.20429
460 4.92678
465 5.9297
470 6.50002
475 6.95121
480 7.34024
485 7.68465
490 8.53164
495 10.596
500 10.3849
505 9.53148
510 8.80661
515 8.28867
520 7.31776
525 6.67019
530 6.43202
535 5.79531
540 5.24256
545 4.8741
550 4.48626
555 3.80836
560 3.59635
565 2.93302
570 2.54007
575 2.04071
580 1.62775
585 1.2811
590 1.07481
595 0.839653
600 0.573865
Ex : 443
200 0.141759
205 0.103445
210 0.142747
215 0.114521
220 0.186575
225 0.115572
230 0.098589
235 0.169222
240 0.146552
245 0.105305
250 0.12193
255 0.0639851
260 0.133247
265 0.126322
270 0.12316
275 0.104405
280 0.121646
285 0.134412
290 0.136155
295 0.0922079
300 0.175423
305 0.107956
310 0.0748186
315 0.145613
320 0.0927636
325 0.142886
330 0.139059
335 0.171948
340 0.120951
345 0.174456
350 0.148777
355 0.134901
360 0.129255
365 0.115995
370 0.126434
375 0.124187
380 0.129848
385 0.123078
390 0.174534
395 0.168192
400 0.16399
405 0.18903
410 0.278507
415 0.454087
420 0.593302
425 0.924371
430 36.0057
435 489.892
440 713.568
445 187.008
450 24.2153
455 5.72728
460 4.35499
465 4.80296
470 5.50246
475 5.86705
480 5.9559
485 6.51622
490 6.74613
495 7.10203
500 8.4279
505 9.3292
510 8.26127
515 7.39566
520 6.52932
525 5.66004
530 5.09605
535 4.7272
540 4.44067
545 4.15973
550 3.73611
555 3.47692
560 3.05099
565 2.30737
570 2.29181
575 1.65384
580 1.47561
585 1.19327
590 0.993568
595 0.745351
600 0.568202
Ex : 448
200 0.0774698
205 0.091568
210 0.0918404
215 0.0964293
220 0.143376
225 0.091859
230 0.10195
235 0.129072
240 0.103637
245 0.148515
250 0.138975
255 0.108667
260 0.115024
265 0.0872612
270 0.061053
275 0.152165
280 0.0860342
285 0.119895
290 0.152578
295 0.126806
300 0.0944733
305 0.135736
310 0.109508
315 0.149765
320 0.140561
325 0.10596
330 0.131961
335 0.101254
340 0.1226
345 0.178362
350 0.139414
355 0.12511
360 0.131072
365 0.175979
370 0.16427
375 0.148363
380 0.220354
385 0.19881
390 0.207372
395 0.192753
400 0.171037
405 0.245412
410 0.249157
415 0.264346
420 0.333434
425 0.520597
430 0.898106
435 38.0065
440 527.37
445 748.954
450 194.645
455 25.3084
460 6.11503
465 4.10038
470 4.39041
475 4.70896
480 5.19486
485 5.26137
490 5.15139
495 5.26507
500 5.49774
505 6.42984
510 7.34778
515 6.59576
520 5.57046
525 5.00024
530 4.85191
535 3.9955
540 3.48778
545 3.55994
550 3.17373
555 2.72366
560 2.46606
565 2.12394
570 1.89991
575 1.40441
580 1.13841
585 0.933417
590 0.667056
595 0.606123
600 0.37528
Ex : 453
200 0.119361
205 0.113085
210 0.100417
215 0.106812
220 0.137219
225 0.0920538
230 0.0964314
235 0.104307
240 0.100699
245 0.0992793
250 0.100686
255 0.152989
260 0.112501
265 0.133892
270 0.110062
275 0.151101
280 0.10237
285 0.0949043
290 0.116516
295 0.127527
300 0.10095
305 0.0991979
310 0.101076
315 0.121687
320 0.169966
325 0.108253
330 0.119434
335 0.102493
340 0.148691
345 0.138178
350 0.143612
355 0.167297
360 0.141663
365 0.148379
370 0.149354
375 0.119434
380 0.124434
385 0.139595
390 0.17132
395 0.167883
400 0.193053
405 0.187184
410 0.246171
415 0.236532
420 0.233231
425 0.414276
430 0.531516
435 1.02986
440 38.7695
445 573.371
450 791.531
455 190.072
460 24.5973
465 5.63037
470 3.33913
475 3.49934
480 3.74099
485 4.05279
490 3.93842
495 3.93976
500 4.06482
505 4.06793
510 4.39895
515 5.56989
520 5.51577
525 4.3454
530 3.84366
535 3.55517
540 3.12861
545 2.80094
550 2.34728
555 2.34493
560 2.05387
565 1.82804
570 1.61964
575 1.30887
580 1.05462
585 0.830353
590 0.625674
595 0.519999
600 0.367235
Ex : 458
200 0.170586
205 0.136104
210 0.103751
215 0.083676
220 0.0917083
225 0.114964
230 0.108766
235 0.0948377
240 0.115948
245 0.0896057
250 0.0757796
255 0.100681
260 0.101773
265 0.141757
270 0.102223
275 0.0890046
280 0.127056
285 0.131955
290 0.101079
295 0.099255
300 0.121775
305 0.09588
310 0.129675
315 0.184016
320 0.0922689
325 0.0736359
330 0.0811047
335 0.16941
340 0.128822
345 0.130375
350 0.130683
355 0.163845
360 0.165384
365 0.136762
370 0.227646
375 0.184405
380 0.146195
385 0.157948
390 0.176127
395 0.200083
400 0.183343
405 0.161014
410 0.200793
415 0.239715
420 0.240158
425 0.384936
430 0.376227
435 0.613918
440 1.1218
445 43.225
450 588.507
455 857.286
460 214.409
465 27.3311
470 5.64614
475 2.97699
480 2.83285
485 3.00508
490 3.30346
495 2.8876
500 2.96261
505 3.01228
510 2.76843
515 3.10143
520 4.23168
525 4.73499
530 3.66401
535 3.09251
540 2.79517
545 2.42731
550 2.15774
555 1.97256
560 1.67052
565 1.52479
570 1.26416
575 1.03041
580 0.869322
585 0.767241
590 0.621862
595 0.436013
600 0.260897
Ex : 463
200 0.105451
205 0.106866
210 0.0754613
215 0.10334
220 0.0909629
225 0.0887137
230 0.0966841
235 0.113846
240 0.130007
245 0.076794
250 0.102677
255 0.0980286
260 0.132909
265 0.112767
270 0.1169
275 0.096366
280 0.0829397
285 0.105037
290 0.105629
295 0.126203
300 0.114331
305 0.117347
310 0.131949
315 0.174213
320 0.132938
325 0.14737
330 0.111833
335 0.143689
340 0.121822
345 0.134973
350 0.142685
355 0.102974
360 0.118691
365 0.131193
370 0.131395
375 0.160561
380 0.12815
385 0.201269
390 0.163407
395 0.176351
400 0.176864
405 0.130414
410 0.210805
415 0.198364
420 0.19707
425 0.276652
430 0.320154
435 0.496422
440 0.682169
445 1.23318
450 44.0457
455 626.347
460 886.273
465 217.826
470 27.2365
475 5.14236
480 2.66677
485 2.40531
490 2.65202
495 2.59811
500 2.43338
505 2.33521
510 2.21035
515 2.1205
520 2.34054
525 2.94556
530 4.13584
535 3.66512
540 2.66221
545 2.39589
550 2.20406
555 1.81563
560 1.40338
565 1.36194
570 1.25281
575 0.955433
580 0.829432
585 0.688374
590 0.572925
595 0.426506
600 0.0485348
Ex : 468
200 0.14088
205 0.114005
210 0.0825614
215 0.0723174
220 0.100681
225 0.114617
230 0.122078
235 0.104334
240 0.113112
245 0.0785597
250 0.0929551
255 0.0899733
260 0.0999594
265 0.101176
270 0.0997786
275 0.0629207
280 0.0860182
285 0.0761095
290 0.102613
295 0.158612
300 0.126651
305 0.0995053
310 0.117642
315 0.101272
320 0.103766
325 0.12933
330 0.129142
335 0.119711
340 0.115107
345 0.152759
350 0.109564
355 0.112932
360 0.16093
365 0.151543
370 0.104575
375 0.117324
380 0.13936
385 0.109921
390 0.147267
395 0.121309
400 0.14632
405 0.1362
410 0.149886
415 0.160786
420 0.19052
425 0.227533
430 0.211044
435 0.294982
440 0.400797
445 0.598351
450 1.04283
455 45.5996
460 606.439
465 908.022
470 224.256
475 27.5685
480 5.00719
485 2.28462
490 2.00749
495 2.25304
500 2.24188
505 2.15748
510 2.02335
515 1.93236
520 1.82603
525 1.88353
530 2.2779
535 3.34341
540 3.41358
545 2.60128
550 1.99096
555 1.88923
560 1.58474
565 1.44923
570 1.00239
575 0.867754
580 0.746134
585 0.753579
590 0.598136
595 0.492769
600 0.126874
Ex : 473
200 0.0886023
205 0.101842
210 0.0938521
215 0.120214
220 0.10546
225 0.124681
230 0.123027
235 0.125085
240 0.11324
245 0.0929675
250 0.107972
255 0.111681
260 0.130688
265 0.132614
270 0.123961
275 0.0830963
280 0.10867
285 0.0894461
290 0.121744
295 0.0652487
300 0.149376
305 0.124835
310 0.083865
315 0.148885
320 0.131964
325 0.122734
330 0.124485
335 0.126808
340 0.114378
345 0.105623
350 0.103424
355 0.167078
360 0.150355
365 0.117238
370 0.104134
375 0.148695
380 0.120433
385 0.130927
390 0.147589
395 0.151383
400 0.169872
405 0.185552
410 0.163247
415 0.195398
420 0.206247
425 0.210984
430 0.251075
435 0.267086
440 0.34499
445 0.449304
450 0.719446
455 1.17002
460 54.4419
465 687.783
470 887.311
475 208.815
480 25.773
485 4.579
490 2.17786
495 1.89216
500 1.87237
505 1.98109
510 1.88934
515 1.7519
520 1.69958
525 1.7939
530 1.77063
535 1.94921
540 2.8658
545 3.35861
550 2.54061
555 1.96501
560 1.83554
565 1.43374
570 1.16511
575 0.830834
580 0.772155
585 0.62619
590 0.558919
595 0.431419
600 0.367613
Ex : 478
200 0.206042
205 0.18514
210 0.159638
215 0.122122
220 0.139534
225 0.168146
230 0.123238
235 0.110979
240 0.118101
245 0.119697
250 0.177858
255 0.163709
260 0.160766
265 0.13232
270 0.149033
275 0.0950921
280 0.124403
285 0.132202
290 0.104915
295 0.120362
300 0.168685
305 0.117646
310 0.111219
315 0.146348
320 0.125471
325 0.0873718
330 0.0969462
335 0.191768
340 0.175759
345 0.173434
350 0.147345
355 0.150379
360 0.123709
365 0.129637
370 0.166761
375 0.147535
380 0.154204
385 0.174697
390 0.148501
395 0.219723
400 0.192962
405 0.213391
410 0.234462
415 0.167329
420 0.18006
425 0.232991
430 0.238253
435 0.283661
440 0.311976
445 0.441255
450 0.503691
455 0.728386
460 1.27243
465 57.2591
470 685.326
475 892.917
480 219.911
485 27.0259
490 4.75228
495 1.98084
500 1.6381
505 1.84356
510 1.90641
515 1.72752
520 1.5248
525 1.66775
530 1.71856
535 1.59674
540 1.66309
545 2.10006
550 2.76409
555 2.44888
560 1.91945
565 1.48884
570 1.28335
575 1.11624
580 0.784909
585 0.713714
590 0.565715
595 0.550797
600 0.0626786
Ex : 483
200 0.100539
205 0.201839
210 0.120253
215 0.155293
220 0.102362
225 0.102374
230 0.0871348
235 0.0799827
240 0.0758467
245 0.104093
250 0.104244
255 0.137075
260 0.118994
265 0.113381
270 0.131176
275 0.122445
280 0.148433
285 0.144347
290 0.161122
295 0.120782
300 0.078971
305 0.123784
310 0.121359
315 0.159417
320 0.0802342
325 0.101886
330 0.135877
335 0.140116
340 0.20237
345 0.158157
350 0.156715
355 0.119228
360 0.126999
365 0.112796
370 0.14135
375 0.162163
380 0.176276
385 0.156705
390 0.181418
395 0.198064
400 0.190378
405 0.213863
410 0.168711
415 0.174711
420 0.168064
425 0.223457
430 0.182033
435 0.331204
440 0.391935
445 0.342403
450 0.375284
455 0.428527
460 0.787514
465 1.40254
470 44.3995
475 657.228
480 949.221
485 230.969
490 28.2115
495 4.77477
500 1.86447
505 1.39144
510 1.51896
515 1.76763
520 1.72741
525 1.62097
530 1.6069
535 1.67149
540 1.60311
545 1.68645
550 1.75013
555 2.64161
560 2.62054
565 1.78218
570 1.37964
575 1.30354
580 1.02171
585 0.718668
590 0.59245
595 0.491281
600 0.408548
Ex : 488
200 0.158954
205 0.175243
210 0.106004
215 0.18575
220 0.166498
225 0.102759
230 0.154113
235 0.116605
240 0.136181
245 0.109207
250 0.173622
255 0.165453
260 0.149377
265 0.116166
270 0.119481
275 0.126449
280 0.196397
285 0.151623
290 0.083124
295 0.163828
300 0.152532
305 0.19861
310 0.161581
315 0.128232
320 0.109429
325 0.115716
330 0.158637
335 0.196639
340 0.21845
345 0.179067
350 0.152365
355 0.150495
360 0.153648
365 0.157881
370 0.14392
375 0.185304
380 0.161718
385 0.170555
390 0.187011
395 0.144568
400 0.25094
405 0.18792
410 0.188472
415 0.219477
420 0.264933
425 0.288367
430 0.227594
435 0.204624
440 0.216872
445 0.287347
450 0.376018
455 0.481023
460 0.678893
465 0.876353
470 1.3204
475 53.2372
480 705.232
485 925.234
490 220.016
495 26.7316
500 4.68502
505 2.01904
510 1.50052
515 1.61216
520 1.67097
525 1.63008
530 1.62992
535 1.59004
540 1.53653
545 1.38721
550 1.35443
555 1.46561
560 2.0697
565 2.48347
570 1.89107
575 1.18911
580 0.902033
585 0.77989
590 0.585536
595 0.506622
600 0.211033
Ex : 493
200 0.131417
205 0.103535
210 0.13454
215 0.146363
220 0.105284
225 0.150231
230 0.112704
235 0.10697
240 0.136381
245 0.106622
250 0.198524
255 0.131833
260 0.123092
265 0.129477
270 0.183335
275 0.164651
280 0.126637
285 0.124843
290 0.115291
295 0.101096
300 0.154521
305 0.139805
310 0.129067
315 0.124234
320 0.121234
325 0.171954
330 0.240019
335 0.17928
340 0.131611
345 0.118138
350 0.21686
355 0.159475
360 0.0940387
365 0.20085
370 0.119812
375 0.174828
380 0.119709
385 0.192318
390 0.193481
395 0.165844
400 0.177885
405 0.153875
410 0.185829
415 0.171709
420 0.212453
425 0.207895
430 0.220828
435 0.232443
440 0.293582
445 0.258097
450 0.263321
455 0.31757
460 0.408604
465 0.609353
470 0.848037
475 1.21338
480 48.6428
485 695.202
490 979.62
495 227.513
500 27.7112
505 4.54763
510 1.88717
515 1.40853
520 1.42332
525 1.79833
530 1.84951
535 1.49205
540 1.36257
545 1.33518
550 1.38177
555 1.45485
560 1.21594
565 1.57833
570 2.16421
575 1.72296
580 1.05068
585 0.793259
590 0.732202
595 0.616144
600 0.425939
Ex : 498
200 0.113023
205 0.136902
210 0.199704
215 0.156947
220 0.21428
225 0.168506
230 0.128923
235 0.183612
240 0.201181
245 0.147229
250 0.113548
255 0.112384
260 0.138562
265 0.132018
270 0.146101
275 0.100625
280 0.159047
285 0.149878
290 0.129075
295 0.150931
300 0.136971
305 0.156211
310 0.1684
315 0.18927
320 0.162618
325 0.165595
330 0.170965
335 0.154212
340 0.17159
345 0.151556
350 0.162397
355 0.156718
360 0.151696
365 0.109991
370 0.133711
375 0.229029
380 0.181003
385 0.206816
390 0.201899
395 0.220623
400 0.19518
405 0.216243
410 0.177141
415 0.224303
420 0.173778
425 0.206565
430 0.227524
435 0.200733
440 0.24484
445 0.24505
450 0.271154
455 0.32721
460 0.464579
465 0.428687
470 0.533349
475 0.836907
480 1.3299
485 57.3801
490 719.186
495 928.477
500 219.547
505 26.6791
510 4.42203
515 1.85058
520 1.45716
525 1.52122
530 1.59998
535 1.59854
540 1.59471
545 1.47848
550 1.20216
555 1.31894
560 1.15272
565 1.20554
570 1.0836
575 1.51061
580 1.76513
585 1.07149
590 0.743688
595 0.58445
600 0.535675
Ex : 503
200 0.125543
205 0.129303
210 0.119809
215 0.188337
220 0.204863
225 0.131999
230 0.15777
235 0.108725
240 0.156337
245 0.128942
250 0.144953
255 0.129742
260 0.12086
265 0.158517
270 0.14538
275 0.12961
280 0.152265
285 0.19785
290 0.154574
295 0.193458
300 0.159879
305 0.156457
310 0.132308
315 0.164913
320 0.137543
325 0.164059
330 0.15661
335 0.195951
340 0.169107
345 0.21099
350 0.159615
355 0.172056
360 0.201212
365 0.153543
370 0.172504
375 0.168907
380 0.202008
385 0.240993
390 0.237981
395 0.228303
400 0.181945
405 0.183205
410 0.181077
415 0.218231
420 0.163615
425 0.183514
430 0.228369
435 0.257159
440 0.198006
445 0.271134
450 0.206677
455 0.243301
460 0.32356
465 0.427573
470 0.515228
475 0.514117
480 0.777155
485 1.33757
490 51.5909
495 728.885
500 968.945
505 224.183
510 27.4877
515 4.51003
520 1.94086
525 1.46565
530 1.31629
535 1.70211
540 1.54707
545 1.47243
550 1.47078
555 1.24625
560 1.27953
565 1.31189
570 1.0234
575 0.741587
580 1.19595
585 1.17289
590 0.848959
595 0.65949
600 0.421652
Ex : 508
200 0.315003
205 0.160955
210 0.181777
215 0.200825
220 0.121667
225 0.199906
230 0.128696
235 0.12415
240 0.235533
245 0.131582
250 0.155666
255 0.0952178
260 0.153595
265 0.138417
270 0.244066
275 0.152735
280 0.131079
285 0.146599
290 0.164969
295 0.162503
300 0.163344
305 0.218394
310 0.211145
315 0.164847
320 0.178779
325 0.128933
330 0.11977
335 0.205149
340 0.13468
345 0.167108
350 0.174877
355 0.166068
360 0.158496
365 0.17511
370 0.115387
375 0.167333
380 0.211657
385 0.226535
390 0.161848
395 0.13255
400 0.210893
405 0.166449
410 0.20729
415 0.175193
420 0.208312
425 0.24742
430 0.190244
435 0.194829
440 0.225766
445 0.267259
450 0.236184
455 0.237254
460 0.275679
465 0.450024
470 0.473278
475 0.530931
480 0.684173
485 0.829029
490 1.43855
495 53.8377
500 696.21
505 931.252
510 225.62
515 27.4946
520 4.47377
525 2.04318
530 1.5806
535 1.43347
540 1.41725
545 1.40214
550 1.3588
555 1.4607
560 1.13756
565 1.00989
570 0.900001
575 0.850021
580 0.849365
585 0.947281
590 0.977326
595 0.924032
600 1.08528
Ex : 513
200 0.104463
205 0.150651
210 0.165697
215 0.186004
220 0.124599
225 0.163235
230 0.128586
235 0.157164
240 0.184224
245 0.186173
250 0.160035
255 0.143258
260 0.141125
265 0.134582
270 0.162228
275 0.120101
280 0.160362
285 0.150519
290 0.160448
295 0.124768
300 0.198114
305 0.165807
310 0.153294
315 0.188918
320 0.279544
325 0.223645
330 0.157453
335 0.175992
340 0.174158
345 0.218527
350 0.155808
355 0.172036
360 0.18811
365 0.140955
370 0.216614
375 0.154608
380 0.205828
385 0.248827
390 0.290466
395 0.223643
400 0.213317
405 0.190174
410 0.23548
415 0.184041
420 0.167923
425 0.208545
430 0.190584
435 0.234216
440 0.22824
445 0.250985
450 0.229194
455 0.26359
460 0.259551
465 0.272309
470 0.288792
475 0.36391
480 0.417625
485 0.650833
490 0.751712
495 1.19262
500 49.3257
505 680.942
510 931.114
515 234.237
520 28.5856
525 4.5677
530 2.07569
535 1.50343
540 1.42694
545 1.48533
550 1.57262
555 1.25187
560 1.1761
565 1.16527
570 1.00784
575 0.780068
580 0.700774
585 0.630491
590 0.651485
595 0.748693
600 0.259943
Ex : 518
200 0.216782
205 0.145652
210 0.205494
215 0.173699
220 0.209844
225 0.197105
230 0.115303
235 0.195553
240 0.166851
245 0.139767
250 0.207567
255 0.171287
260 0.172826
265 0.194227
270 0.170524
275 0.116136
280 0.145507
285 0.110837
290 0.158907
295 0.182458
300 0.16998
305 0.17788
310 0.204739
315 0.212764
320 0.182976
325 0.16324
330 0.174499
335 0.156516
340 0.162447
345 0.135957
350 0.217908
355 0.180396
360 0.176498
365 0.132994
370 0.135778
375 0.218533
380 0.188831
385 0.242628
390 0.269948
395 0.216957
400 0.218093
405 0.180405
410 0.233892
415 0.211686
420 0.193667
425 0.197734
430 0.273587
435 0.271125
440 0.25983
445 0.258536
450 0.279304
455 0.316055
460 0.277126
465 0.314376
470 0.335494
475 0.397927
480 0.401938
485 0.438224
490 0.655191
495 0.726911
500 1.23234
505 48.7786
510 650.442
515 914.108
520 226.014
525 27.6502
530 4.60955
535 1.98926
540 1.47749
545 1.27721
550 1.39125
555 1.52485
560 1.2062
565 1.2064
570 0.89302
575 0.779605
580 0.573638
585 0.656046
590 0.462144
595 0.476889
600 1.07881
Ex : 523
200 0.145781
205 0.142131
210 0.116529
215 0.200015
220 0.177086
225 0.12696
230 0.130821
235 0.144036
240 0.179337
245 0.159172
250 0.140972
255 0.144368
260 0.197804
265 0.184478
270 0.135901
275 0.173109
280 0.166816
285 0.235281
290 0.162361
295 0.119787
300 0.135219
305 0.109258
310 0.195263
315 0.185898
320 0.240347
325 0.25245
330 0.182934
335 0.170076
340 0.115755
345 0.198007
350 0.151628
355 0.213304
360 0.19773
365 0.211653
370 0.239853
375 0.218153
380 0.186127
385 0.183784
390 0.230992
395 0.228234
400 0.181047
405 0.19625
410 0.235569
415 0.22924
420 0.210966
425 0.18409
430 0.196
435 0.297858
440 0.232108
445 0.229189
450 0.205424
455 0.226092
460 0.348401
465 0.323407
470 0.303511
475 0.272734
480 0.354186
485 0.37368
490 0.509042
495 0.652988
500 0.798715
505 1.12686
510 46.2177
515 634.825
520 900.43
525 230.52
530 28.0758
535 4.74701
540 1.88221
545 1.60286
550 1.41413
555 1.38042
560 1.29266
565 1.19245
570 0.923752
575 0.690379
580 0.666098
585 0.540012
590 0.500187
595 0.493294
600 0.148723
Ex : 528
200 0.222427
205 0.159838
210 0.194596
215 0.180077
220 0.146078
225 0.248097
230 0.176579
235 0.153782
240 0.161452
245 0.139858
250 0.143974
255 0.147417
260 0.155679
265 0.200092
270 0.187537
275 0.161499
280 0.170553
285 0.19215
290 0.170278
295 0.19904
300 0.161088
305 0.206051
310 0.234292
315 0.18635
320 0.0997456
325 0.128475
330 0.159216
335 0.219048
340 0.178344
345 0.180795
350 0.195741
355 0.232229
360 0.224496
365 0.280596
370 0.272695
375 0.187446
380 0.209377
385 0.192382
390 0.188227
395 0.265856
400 0.210647
405 0.244501
410 0.209434
415 0.183341
420 0.174651
425 0.288987
430 0.208819
435 0.271546
440 0.241521
445 0.313098
450 0.270733
455 0.262178
460 0.275135
465 0.349044
470 0.286528
475 0.275981
480 0.321406
485 0.346658
490 0.402066
495 0.405949
500 0.527221
505 0.798937
510 1.25184
515 41.7944
520 611.432
525 883.305
530 223.149
535 27.31
540 4.48761
545 1.94171
550 1.57864
555 1.20739
560 0.981306
565 1.13271
570 0.932656
575 0.935317
580 0.774478
585 0.743663
590 0.492225
595 0.48692
600 0.307278
Ex : 533
200 0.230516
205 0.242179
210 0.220246
215 0.126299
220 0.216236
225 0.275622
230 0.219597
235 0.162974
240 0.187708
245 0.130395
250 0.228402
255 0.204592
260 0.186358
265 0.267067
270 0.212625
275 0.183287
280 0.114845
285 0.18605
290 0.198277
295 0.150984
300 0.11979
305 0.164863
310 0.196114
315 0.122678
320 0.176306
325 0.170066
330 0.198259
335 0.221593
340 0.170421
345 0.17398
350 0.136917
355 0.157111
360 0.217741
365 0.262871
370 0.133268
375 0.230051
380 0.262138
385 0.270063
390 0.173497
395 0.178901
400 0.205542
405 0.145048
410 0.183254
415 0.211507
420 0.232713
425 0.253312
430 0.195712
435 0.252007
440 0.236046
445 0.272049
450 0.308876
455 0.275439
460 0.292126
465 0.32178
470 0.266135
475 0.336263
480 0.270044
485 0.279726
490 0.331946
495 0.439066
500 0.357508
505 0.495447
510 0.919036
515 1.28402
520 40.83
525 577.427
530 847.836
535 220.204
540 26.907
545 4.51636
550 1.79349
555 1.45578
560 1.10906
565 1.07671
570 0.936307
575 0.921084
580 0.677863
585 0.533571
590 0.398309
595 0.369064
600 0.305974
Ex : 538
200 0.164054
205 0.233474
210 0.155877
215 0.174244
220 0.16326
225 0.206335
230 0.204058
235 0.131795
240 0.195079
245 0.137563
250 0.171769
255 0.205384
260 0.205097
265 0.129247
270 0.100466
275 0.128985
280 0.138986
285 0.117531
290 0.208616
295 0.112173
300 0.216487
305 0.242572
310 0.195409
315 0.16345
320 0.184603
325 0.127614
330 0.184419
335 0.271025
340 0.237603
345 0.220233
350 0.20361
355 0.134106
360 0.18913
365 0.172241
370 0.185589
375 0.171268
380 0.238194
385 0.216864
390 0.172963
395 0.231885
400 0.262173
405 0.242072
410 0.212031
415 0.184087
420 0.259393
425 0.239519
430 0.18993
435 0.242755
440 0.267322
445 0.288916
450 0.291256
455 0.280665
460 0.179736
465 0.247379
470 0.276754
475 0.377574
480 0.266159
485 0.349405
490 0.281569
495 0.396172
500 0.443197
505 0.453392
510 0.5237
515 0.768395
520 1.08084
525 33.7548
530 558.923
535 860.814
540 230.379
545 28.1984
550 4.55915
555 1.73756
560 1.2388
565 0.918505
570 0.856052
575 0.763473
580 0.8004
585 0.637944
590 0.442636
595 0.419017
600 0.150502
Ex : 543
200 0.164674
205 0.1628
210 0.186305
215 0.183146
220 0.175744
225 0.189751
230 0.154457
235 0.162657
240 0.166668
245 0.169873
250 0.185128
255 0.169545
260 0.153861
265 0.146015
270 0.244868
275 0.149082
280 0.150869
285 0.134063
290 0.220324
295 0.208866
300 0.125493
305 0.188258
310 0.191216
315 0.291846
320 0.131426
325 0.174408
330 0.260868
335 0.233789
340 0.237617
345 0.177493
350 0.204615
355 0.155959
360 0.155775
365 0.197574
370 0.215748
375 0.234353
380 0.276485
385 0.338731
390 0.291387
395 0.2968
400 0.235326
405 0.23221
410 0.241487
415 0.219079
420 0.246242
425 0.253978
430 0.274377
435 0.241346
440 0.221011
445 0.216073
450 0.235156
455 0.256441
460 0.313226
465 0.336752
470 0.233967
475 0.192959
480 0.232612
485 0.363302
490 0.243859
495 0.355025
500 0.347788
505 0.36526
510 0.423696
515 0.462429
520 0.752572
525 1.03317
530 30.7234
535 519.656
540 817.805
545 223.711
550 27.2281
555 4.30512
560 1.42052
565 1.10079
570 0.727779
575 0.717479
580 0.557769
585 0.52675
590 0.435095
595 0.400306
600 0.0604893
Ex : 548
200 0.307374
205 0.204724
210 0.212713
215 0.190897
220 0.176006
225 0.143321
230 0.225464
235 0.184703
240 0.231122
245 0.170649
250 0.273818
255 0.212866
260 0.121306
265 0.257541
270 0.215638
275 0.182996
280 0.205783
285 0.228342
290 0.149661
295 0.16332
300 0.192435
305 0.299595
310 0.175293
315 0.178618
320 0.171167
325 0.152175
330 0.185735
335 0.128746
340 0.180944
345 0.286931
350 0.230795
355 0.191944
360 0.177949
365 0.223859
370 0.266696
375 0.362937
380 0.210682
385 0.203157
390 0.250742
395 0.269531
400 0.265581
405 0.253011
410 0.261046
415 0.239324
420 0.205532
425 0.305836
430 0.194657
435 0.240802
440 0.227231
445 0.244302
450 0.269615
455 0.267379
460 0.345269
465 0.306517
470 0.33155
475 0.259648
480 0.258086
485 0.240652
490 0.349294
495 0.372182
500 0.325482
505 0.279233
510 0.358187
515 0.41432
520 0.714752
525 0.714181
530 0.959167
535 34.1735
540 521.262
545 808.236
550 223.094
555 27.058
560 4.10167
565 1.2793
570 0.82341
575 0.520793
580 0.426439
585 0.523524
590 0.449352
595 0.396679
600 0.419088
Ex : 553
200 0.164228
205 0.226908
210 0.146017
215 0.165455
220 0.134189
225 0.211825
230 0.217363
235 0.172541
240 0.190329
245 0.142402
250 0.201887
255 0.303482
260 0.217888
265 0.191636
270 0.203202
275 0.249321
280 0.190572
285 0.242481
290 0.130994
295 0.214674
300 0.157974
305 0.176834
310 0.177125
315 0.174896
320 0.207529
325 0.266249
330 0.247335
335 0.189884
340 0.207313
345 0.247296
350 0.185416
355 0.198087
360 0.114881
365 0.2169
370 0.234298
375 0.262503
380 0.260608
385 0.232771
390 0.169225
395 0.266832
400 0.2027
405 0.333505
410 0.256874
415 0.267323
420 0.191204
425 0.244668
430 0.26329
435 0.245213
440 0.259595
445 0.209494
450 0.239133
455 0.266025
460 0.240947
465 0.281145
470 0.307735
475 0.292422
480 0.293524
485 0.201035
490 0.266437
495 0.23631
500 0.336593
505 0.299605
510 0.271242
515 0.256369
520 0.452043
525 0.599032
530 0.610269
535 0.999935
540 28.401
545 500.379
550 863.31
555 238.548
560 28.871
565 4.17529
570 1.0319
575 0.869638
580 0.512058
585 0.362784
590 0.406592
595 0.508531
600 0.699969
Ex : 558
200 0.263327
205 0.244052
210 0.182463
215 0.16509
220 0.199336
225 0.20725
230 0.235231
235 0.207398
240 0.286691
245 0.219882
250 0.263675
255 0.216472
260 0.230021
265 0.201618
270 0.153733
275 0.179919
280 0.124941
285 0.162984
290 0.216138
295 0.201212
300 0.216265
305 0.161742
310 0.189971
315 0.187634
320 0.127452
325 0.271327
330 0.152502
335 0.200572
340 0.158291
345 0.169368
350 0.287244
355 0.301428
360 0.19877
365 0.243713
370 0.197867
375 0.272074
380 0.214804
385 0.233184
390 0.200091
395 0.199696
400 0.223774
405 0.237643
410 0.186737
415 0.153071
420 0.245236
425 0.235244
430 0.211918
435 0.255163
440 0.263777
445 0.299903
450 0.257608
455 0.256148
460 0.2523
465 0.229321
470 0.234776
475 0.221472
480 0.305832
485 0.320354
490 0.26525
495 0.388861
500 0.226909
505 0.418848
510 0.376877
515 0.265415
520 0.363639
525 0.415892
530 0.451251
535 0.612365
540 0.878867
545 26.7343
550 476.71
555 774.487
560 218.579
565 26.4081
570 3.67103
575 0.990815
580 0.802326
585 0.506432
590 0.409691
595 0.400269
600 0.380577
Ex : 563
200 0.303204
205 0.175025
210 0.175377
215 0.13136
220 0.166853
225 0.175717
230 0.257353
235 0.190512
240 0.189697
245 0.247434
250 0.255752
255 0.454584
260 0.242323
265 0.23224
270 0.135888
275 0.150124
280 0.18089
285 0.190499
290 0.260703
295 0.245831
300 0.142551
305 0.152323
310 0.142277
315 0.208908
320 0.209076
325 0.122678
330 0.208604
335 0.219997
340 0.203273
345 0.182511
350 0.190891
355 0.208696
360 0.273448
365 0.249007
370 0.221528
375 0.238382
380 0.219334
385 0.221369
390 0.144596
395 0.207126
400 0.317746
405 0.281121
410 0.286115
415 0.272817
420 0.258606
425 0.207315
430 0.282315
435 0.276587
440 0.182412
445 0.240829
450 0.236557
455 0.246956
460 0.328305
465 0.278796
470 0.305722
475 0.367268
480 0.291244
485 0.206329
490 0.309966
495 0.231593
500 0.304598
505 0.292771
510 0.284284
515 0.273762
520 0.235424
525 0.424565
530 0.369484
535 0.428178
540 0.567749
545 0.992249
550 24.9182
555 427.505
560 698.23
565 201.401
570 24.3261
575 3.42841
580 0.788979
585 0.425841
590 0.381712
595 0.30206
600 0.684256
Ex : 568
200 0.192278
205 0.167074
210 0.130585
215 0.211486
220 0.244405
225 0.260234
230 0.163917
235 0.199897
240 0.23508
245 0.245771
250 0.237938
255 0.136634
260 0.148949
265 0.151034
270 0.219875
275 0.219489
280 0.158571
285 0.221988
290 0.291358
295 0.216173
300 0.150923
305 0.172343
310 0.189514
315 0.232025
320 0.203035
325 0.242305
330 0.242982
335 0.209482
340 0.289825
345 0.260759
350 0.224583
355 0.219409
360 0.275655
365 0.254897
370 0.191574
375 0.322578
380 0.270044
385 0.255872
390 0.24482
395 0.249968
400 0.31559
405 0.284184
410 0.193188
415 0.225366
420 0.245807
425 0.269096
430 0.234325
435 0.281565
440 0.204327
445 0.255692
450 0.269652
455 0.321039
460 0.25124
465 0.333197
470 0.28071
475 0.273396
480 0.196148
485 0.390276
490 0.281931
495 0.263598
500 0.230179
505 0.202098
510 0.348613
515 0.380924
520 0.271764
525 0.325164
530 0.302387
535 0.348494
540 0.480949
545 0.541276
550 0.767065
555 19.4938
560 393.424
565 703.764
570 213.343
575 25.9105
580 3.41545
585 0.882409
590 0.434437
595 0.327489
600 2.10899
Ex : 573
200 0.217273
205 0.202619
210 0.270121
215 0.179081
220 0.187249
225 0.166396
230 0.165515
235 0.19693
240 0.200418
245 0.30245
250 0.213748
255 0.168414
260 0.155186
265 0.158338
270 0.14336
275 0.266397
280 0.281297
285 0.220015
290 0.182419
295 0.200419
300 0.203006
305 0.172688
310 0.283283
315 0.204344
320 0.239679
325 0.223295
330 0.189602
335 0.185454
340 0.164404
345 0.235564
350 0.280394
355 0.230796
360 0.32542
365 0.314405
370 0.133803
375 0.264123
380 0.265855
385 0.416654
390 0.320761
395 0.22882
400 0.204513
405 0.341861
410 0.275233
415 0.218333
420 0.236512
425 0.32046
430 0.257586
435 0.202352
440 0.184946
445 0.269828
450 0.242602
455 0.228952
460 0.229154
465 0.24545
470 0.248913
475 0.264265
480 0.192172
485 0.355924
490 0.2563
495 0.327663
500 0.253399
505 0.299898
510 0.244029
515 0.277826
520 0.364067
525 0.318181
530 0.375262
535 0.470339
540 0.520965
545 0.475097
550 0.620812
555 0.823948
560 16.6953
565 354.401
570 679.291
575 202.464
580 24.5898
585 3.25799
590 0.765232
595 0.433582
600 0.566788
Ex : 578
200 0.244979
205 0.15226
210 0.302402
215 0.273787
220 0.244327
225 0.268224
230 0.191731
235 0.168192
240 0.231447
245 0.225119
250 0.170051
255 0.287496
260 0.176397
265 0.17191
270 0.167263
275 0.205951
280 0.336594
285 0.178022
290 0.203414
295 0.164467
300 0.313044
305 0.196231
310 0.234316
315 0.286355
320 0.259044
325 0.205369
330 0.208039
335 0.227091
340 0.239653
345 0.218935
350 0.161185
355 0.291817
360 0.217511
365 0.26211
370 0.232866
375 0.272782
380 0.256597
385 0.256574
390 0.199666
395 0.161172
400 0.1974
405 0.206667
410 0.403257
415 0.36102
420 0.348774
425 0.282184
430 0.265237
435 0.323583
440 0.278208
445 0.246937
450 0.227327
455 0.267507
460 0.286732
465 0.224506
470 0.200857
475 0.254365
480 0.377789
485 0.354733
490 0.245192
495 0.240978
500 0.294978
505 0.364466
510 0.291844
515 0.31573
520 0.308461
525 0.287444
530 0.399369
535 0.30974
540 0.303616
545 0.289213
550 0.573803
555 0.54353
560 0.642312
565 14.6373
570 298.566
575 537.982
580 163.657
585 19.8238
590 2.68989
595 0.794457
600 0.139984
Ex : 583
200 0.29659
205 0.254962
210 0.191099
215 0.250173
220 0.192106
225 0.381414
230 0.203868
235 0.318551
240 0.183322
245 0.223852
250 0.239136
255 0.214203
260 0.221745
265 0.21566
270 0.19188
275 0.284592
280 0.285328
285 0.260962
290 0.288335
295 0.196246
300 0.195143
305 0.263093
310 0.161268
315 0.174847
320 0.214238
325 0.146349
330 0.346249
335 0.258499
340 0.209388
345 0.167789
350 0.25058
355 0.270826
360 0.22707
365 0.240249
370 0.169749
375 0.231969
380 0.38151
385 0.194784
390 0.242172
395 0.343714
400 0.275966
405 0.279179
410 0.245473
415 0.205175
420 0.349393
425 0.224572
430 0.272087
435 0.331378
440 0.227029
445 0.331167
450 0.242669
455 0.344105
460 0.262777
465 0.315916
470 0.270936
475 0.277804
480 0.263
485 0.348823
490 0.332375
495 0.336751
500 0.279684
505 0.238708
510 0.3827
515 0.236216
520 0.240558
525 0.223538
530 0.253889
535 0.254913
540 0.414582
545 0.430042
550 0.347003
555 0.461992
560 0.56278
565 0.760238
570 12.2234
575 258.853
580 450.786
585 133.728
590 16.1122
595 2.19864
600 0.8495
Ex : 588
200 0.146465
205 0.239076
210 0.168655
215 0.232676
220 0.258531
225 0.116547
230 0.216354
235 0.261045
240 0.239912
245 0.152874
250 0.169526
255 0.208142
260 0.342732
265 0.211271
270 0.254196
275 0.254004
280 0.201278
285 0.224994
290 0.21466
295 0.148167
300 0.257013
305 0.217263
310 0.17289
315 0.226076
320 0.188
325 0.162727
330 0.149616
335 0.196352
340 0.229254
345 0.265632
350 0.234581
355 0.212791
360 0.15607
365 0.263433
370 0.233231
375 0.161693
380 0.196634
385 0.243229
390 0.198318
395 0.352224
400 0.269136
405 0.200794
410 0.305819
415 0.291811
420 0.245436
425 0.302368
430 0.278835
435 0.217708
440 0.210448
445 0.258066
450 0.325077
455 0.255123
460 0.217142
465 0.238777
470 0.250595
475 0.285656
480 0.25646
485 0.200607
490 0.322377
495 0.256481
500 0.296176
505 0.275537
510 0.340221
515 0.246357
520 0.200399
525 0.259697
530 0.390937
535 0.379841
540 0.349557
545 0.319338
550 0.412361
555 0.386504
560 0.494397
565 0.50626
570 0.628912
575 10.6728
580 221.056
585 387.389
590 115.435
595 14.0221
600 2.18221
Ex : 593
200 0.198804
205 0.176173
210 0.13404
215 0.267781
220 0.178822
225 0.206698
230 0.211161
235 0.18895
240 0.190775
245 0.178098
250 0.183417
255 0.176727
260 0.154153
265 0.231336
270 0.206005
275 0.194689
280 0.204899
285 0.288155
290 0.151979
295 0.227236
300 0.266638
305 0.16546
310 0.192658
315 0.213869
320 0.187969
325 0.235666
330 0.30737
335 0.213257
340 0.286919
345 0.341437
350 0.29387
355 0.242952
360 0.225084
365 0.46839
370 0.249102
375 0.201142
380 0.161911
385 0.313718
390 0.32588
395 0.215328
400 0.189917
405 0.3516
410 0.337845
415 0.238608
420 0.23362
425 0.278977
430 0.382379
435 0.299348
440 0.29364
445 0.217953
450 0.239733
455 0.228993
460 0.251039
465 0.364383
470 0.367791
475 0.30209
480 0.418674
485 0.279095
490 0.263834
495 0.239986
500 0.348372
505 0.291735
510 0.362104
515 0.249447
520 0.217628
525 0.245546
530 0.227036
535 0.293547
540 0.256014
545 0.242446
550 0.217317
555 0.263942
560 0.277231
565 0.347455
570 0.482479
575 0.601749
580 9.00749
585 196.742
590 342.787
595 101.294
600 16.3502
Ex : 598
200 0.209954
205 0.233559
210 0.405992
215 0.198248
220 0.245984
225 0.24114
230 0.255513
235 0.24637
240 0.239899
245 0.258275
250 0.256536
255 0.193589
260 0.218053
265 0.182827
270 0.225248
275 0.232192
280 0.239888
285 0.21402
290 0.286495
295 0.192351
300 0.190956
305 0.256942
310 0.288512
315 0.178103
320 0.106527
325 0.250932
330 0.282097
335 0.219676
340 0.190822
345 0.207436
350 0.1652
355 0.198217
360 0.306788
365 0.375275
370 0.236652
375 0.397299
380 0.307532
385 0.265797
390 0.224544
395 0.283716
400 0.321603
405 0.247606
410 0.358643
415 0.294741
420 0.210849
425 0.288813
430 0.33038
435 0.313304
440 0.248389
445 0.262784
450 0.25103
455 0.304304
460 0.351215
465 0.379937
470 0.33485
475 0.285705
480 0.216627
485 0.222782
490 0.242938
495 0.345748
500 0.240539
505 0.180904
510 0.252029
515 0.186998
520 0.291774
525 0.342797
530 0.250075
535 0.366913
540 0.303009
545 0.300529
550 0.230582
555 0.333753
560 0.281332
565 0.298385
570 0.417971
575 0.51429
580 0.420916
585 8.7203
590 172.504
595 287.718
600 187.164
Ex : 603
200 0.274514
205 0.253585
210 0.172451
215 0.223492
220 0.185225
225 0.29332
230 0.199064
235 0.19755
240 0.172784
245 0.30469
250 0.228081
255 0.193183
260 0.156064
265 0.175852
270 0.203186
275 0.324113
280 0.148475
285 0.197616
290 0.192009
295 0.271189
300 0.440707
305 0.218462
310 0.216992
315 0.318796
320 0.188209
325 0.165423
330 0.228408
335 0.294544
340 0.252192
345 0.233207
350 0.1772
355 0.258812
360 0.211397
365 0.239414
370 0.293688
375 0.214992
380 0.236364
385 0.224344
390 0.257872
395 0.232007
400 0.312137
405 0.257823
410 0.351029
415 0.369618
420 0.327836
425 0.267379
430 0.164938
435 0.312451
440 0.263543
445 0.38613
450 0.405858
455 0.28163
460 0.330515
465 0.277728
470 0.317574
475 0.389627
480 0.344812
485 0.274155
490 0.235272
495 0.33156
500 0.297137
505 0.294649
510 0.379556
515 0.267318
520 0.27928
525 0.374376
530 0.352335
535 0.217229
540 0.189069
545 0.32159
550 0.33135
555 0.334411
560 0.350218
565 0.25313
570 0.333432
575 0.278702
580 0.383364
585 0.57804
590 7.7609
595 148.576
600 279.829
