File format V 1.0
ven. 13. janv. 04:46:10 2017
Operator : 
Comments : 

=============================================
SpectroFluorometer parameters
Mode : 3D measurement
Data : Fluorescence
Phospho. : Ordinary
Spectrum : Fluorescence

Scan speed : 2400 nm/mn
Response : 100 ms
PM Voltage : 700 V
Shutter : On

Lambda Ex. Start : 203
Lambda Ex. End : 603
Lambda Ex. Step : 5
Ex. Slit : 5 nm

Lambda Em. Start : 200
Lambda Em. End : 600
Lambda Em. Step : 5
Em. Slit : 5 nm

Repetition : 1
Decal lambda em : 10
=============================================
DATA
Ex : 203
200 4.0198
205 5.79247
210 9.12262
215 4.5105
220 5.27985
225 4.4659
230 5.10802
235 4.53828
240 6.68224
245 5.14503
250 4.93397
255 5.78217
260 6.06295
265 4.59691
270 4.15871
275 4.91331
280 3.96127
285 7.99958
290 4.35621
295 6.13716
300 5.39654
305 5.12455
310 3.82137
315 7.60155
320 7.45083
325 6.8614
330 8.44411
335 5.66146
340 8.21174
345 7.46129
350 5.63889
355 6.95644
360 5.49235
365 6.82425
370 7.24991
375 7.01996
380 7.96667
385 6.66035
390 6.56127
395 6.58413
400 4.6231
405 3.6732
410 5.23726
415 8.30044
420 7.42271
425 3.49907
430 7.27478
435 4.52036
440 6.18692
445 7.94572
450 5.03981
455 8.76579
460 6.34741
465 7.63633
470 7.92453
475 6.0546
480 6.24866
485 8.88484
490 5.93258
495 7.47333
500 5.52943
505 5.28283
510 4.43451
515 6.75943
520 8.21493
525 4.95683
530 7.60157
535 6.71479
540 4.52284
545 4.80093
550 5.79821
555 7.31937
560 4.62977
565 5.70211
570 7.07064
575 5.50235
580 9.056
585 8.8416
590 7.95877
595 4.65852
600 0.530122
Ex : 208
200 4.24747
205 6.67335
210 5.2423
215 5.83509
220 5.34887
225 4.70577
230 7.05929
235 4.4901
240 5.71383
245 7.49294
250 5.5246
255 3.09084
260 9.61901
265 4.91818
270 5.33154
275 6.77142
280 5.7512
285 4.72926
290 4.19323
295 5.65673
300 3.93889
305 3.60686
310 7.18755
315 4.65366
320 5.15555
325 7.7484
330 8.8214
335 5.64789
340 9.78916
345 5.4762
350 6.66507
355 5.55145
360 4.10197
365 5.19878
370 6.29875
375 6.40224
380 4.80509
385 7.75709
390 7.5468
395 6.05187
400 6.16002
405 5.61421
410 6.17872
415 5.94716
420 4.70456
425 5.63799
430 5.29858
435 6.04048
440 7.52071
445 6.13961
450 5.83051
455 5.72371
460 10.6528
465 6.62841
470 5.31075
475 5.58707
480 6.61538
485 8.05879
490 7.66085
495 4.99221
500 5.71407
505 6.17064
510 6.6019
515 10.9186
520 8.34555
525 4.95343
530 8.9439
535 7.27479
540 6.68391
545 6.73917
550 7.77331
555 5.07684
560 5.56626
565 6.24143
570 4.95081
575 5.5428
580 10.4625
585 7.65818
590 6.37631
595 6.87715
600 25.0055
Ex : 213
200 7.53623
205 5.15568
210 4.65991
215 4.265
220 5.4245
225 6.94137
230 7.66119
235 7.86388
240 5.23512
245 8.06749
250 4.79945
255 6.857
260 6.04854
265 4.16462
270 4.88789
275 6.19381
280 4.1095
285 4.69855
290 6.74631
295 6.50732
300 4.71088
305 7.26391
310 8.00777
315 5.99765
320 7.8958
325 6.89488
330 5.87698
335 6.07121
340 3.76361
345 4.15603
350 6.20925
355 5.82028
360 9.11597
365 6.00763
370 7.03201
375 5.88376
380 7.65741
385 6.11978
390 6.06928
395 6.58371
400 8.46873
405 6.56503
410 5.70117
415 7.72111
420 6.49691
425 6.18315
430 7.97751
435 6.83225
440 4.93156
445 3.88337
450 5.87585
455 7.72353
460 6.07853
465 8.40127
470 4.98462
475 6.7251
480 4.20441
485 7.47456
490 6.05493
495 4.30698
500 6.62045
505 8.54795
510 6.18327
515 5.92757
520 4.27148
525 5.1948
530 7.37038
535 4.88256
540 5.56945
545 6.36033
550 8.54697
555 8.27869
560 9.60806
565 4.7417
570 9.97681
575 9.85627
580 4.94145
585 6.05028
590 5.15786
595 4.57052
600 0.520108
Ex : 218
200 3.54955
205 6.14814
210 6.68151
215 6.39107
220 4.96901
225 7.17471
230 6.90911
235 8.39894
240 4.97929
245 8.01682
250 6.53048
255 4.13366
260 6.72046
265 5.93358
270 5.29738
275 7.31612
280 6.99475
285 5.8657
290 5.14364
295 5.78302
300 5.69615
305 4.59777
310 6.28153
315 7.82544
320 7.83954
325 5.10829
330 6.95251
335 7.55615
340 5.16256
345 5.49383
350 5.27671
355 5.5946
360 6.17542
365 4.30499
370 7.69511
375 7.0709
380 5.63278
385 5.64029
390 6.23892
395 6.28039
400 6.9017
405 6.07376
410 10.448
415 5.6459
420 4.26897
425 5.15368
430 6.62318
435 5.99985
440 5.52677
445 8.40971
450 5.78281
455 9.76772
460 5.1639
465 6.71966
470 4.09001
475 6.11607
480 6.95401
485 4.99663
490 5.50717
495 5.72135
500 8.3948
505 7.65822
510 5.9693
515 6.21806
520 5.22549
525 5.19691
530 8.05027
535 3.83199
540 7.57887
545 6.13068
550 8.6823
555 9.86289
560 3.43909
565 6.57327
570 7.3122
575 6.45144
580 5.16939
585 8.27764
590 7.35245
595 8.40285
600 8.26739
Ex : 223
200 4.31556
205 5.76748
210 7.51529
215 5.31073
220 7.85179
225 5.24131
230 6.96678
235 5.53461
240 5.04487
245 5.82474
250 5.14897
255 3.86407
260 3.64853
265 7.5299
270 6.67802
275 6.36559
280 5.13155
285 5.29292
290 7.25683
295 6.91793
300 6.01158
305 4.43147
310 6.40577
315 7.07147
320 6.17732
325 6.4958
330 4.79666
335 5.1104
340 5.93085
345 6.90603
350 4.93398
355 6.70637
360 5.77562
365 5.36644
370 7.60325
375 4.8406
380 4.32331
385 6.79387
390 5.50664
395 6.77441
400 7.1128
405 6.0835
410 7.11093
415 4.80122
420 4.019
425 6.4451
430 9.50218
435 7.2726
440 5.93535
445 5.92819
450 5.80962
455 6.35814
460 7.84299
465 9.3638
470 7.16881
475 7.78066
480 8.60975
485 8.92647
490 7.88081
495 7.66757
500 6.04962
505 6.04956
510 8.36885
515 5.25063
520 5.62448
525 5.04337
530 6.32806
535 6.87164
540 5.96605
545 4.13044
550 9.94985
555 6.5484
560 7.17434
565 5.62143
570 5.76673
575 4.0858
580 5.81842
585 5.08172
590 8.10281
595 6.07969
600 1.13495
Ex : 228
200 4.05882
205 6.87767
210 6.99399
215 5.05791
220 6.32062
225 6.27818
230 6.97616
235 7.06195
240 7.59123
245 6.18913
250 5.11126
255 8.96365
260 4.57262
265 5.06314
270 6.10703
275 7.20453
280 4.97966
285 4.57644
290 4.73123
295 5.09818
300 4.61219
305 6.01015
310 7.0395
315 5.8781
320 4.17362
325 4.54763
330 5.9455
335 6.24539
340 4.84632
345 5.32715
350 7.6639
355 4.80992
360 3.76748
365 7.11628
370 5.29887
375 6.52017
380 5.48553
385 6.02772
390 5.65742
395 5.04058
400 3.98414
405 6.74665
410 5.54383
415 5.56829
420 5.04489
425 8.74686
430 6.4704
435 7.42544
440 4.86513
445 4.7046
450 5.23341
455 4.10296
460 6.59682
465 5.49226
470 6.05399
475 8.23246
480 3.37082
485 5.13725
490 7.08214
495 5.48831
500 4.51469
505 6.35004
510 5.52615
515 5.48223
520 8.04776
525 6.95454
530 6.63015
535 4.9277
540 6.59977
545 5.76374
550 6.09256
555 4.38923
560 4.69098
565 5.78138
570 6.96862
575 8.25873
580 6.1154
585 4.65537
590 6.66631
595 5.09936
600 51.3471
Ex : 233
200 5.77686
205 5.62783
210 5.87812
215 6.44451
220 3.61985
225 6.74557
230 7.65009
235 7.94906
240 7.90408
245 7.08386
250 4.9209
255 3.78591
260 5.05838
265 6.84636
270 6.10422
275 3.55592
280 4.85839
285 7.15356
290 5.58058
295 3.93039
300 5.25595
305 6.17598
310 7.07287
315 5.18565
320 4.85687
325 6.53081
330 6.80607
335 3.43312
340 6.3845
345 5.90971
350 5.33958
355 3.95019
360 6.31123
365 4.98076
370 5.51888
375 4.26374
380 5.14503
385 6.44927
390 5.4714
395 5.49851
400 7.51476
405 6.62845
410 6.71534
415 7.02548
420 5.05544
425 5.22503
430 7.0725
435 5.45376
440 4.45705
445 4.77642
450 5.56659
455 6.93312
460 6.25516
465 7.81225
470 6.82886
475 5.85399
480 5.4332
485 5.25238
490 5.36756
495 6.58008
500 4.42321
505 6.26546
510 6.8596
515 5.78324
520 4.24531
525 9.75619
530 7.39456
535 7.34272
540 5.74473
545 3.71516
550 4.49931
555 5.28045
560 4.16457
565 5.45086
570 3.60482
575 4.84123
580 5.95378
585 4.3029
590 6.67064
595 5.94433
600 4.22126
Ex : 238
200 6.51527
205 3.86327
210 3.86507
215 3.48962
220 6.51873
225 3.9901
230 5.74606
235 6.55585
240 4.80355
245 4.70285
250 6.11225
255 4.76061
260 7.73284
265 4.63845
270 6.8994
275 3.36624
280 4.92443
285 4.24313
290 4.59549
295 5.74671
300 5.49506
305 4.33876
310 3.19735
315 5.16181
320 4.99166
325 3.64388
330 6.2593
335 4.56074
340 4.26911
345 5.77841
350 5.23935
355 5.55474
360 4.24457
365 5.59469
370 3.34683
375 4.88088
380 6.40576
385 4.23817
390 6.52043
395 4.89608
400 4.68473
405 4.15233
410 3.55216
415 6.78908
420 3.51404
425 4.46742
430 5.1045
435 3.62479
440 5.9858
445 6.83923
450 6.27557
455 4.37352
460 4.58104
465 5.9975
470 5.88062
475 7.07113
480 7.42592
485 5.21942
490 5.46109
495 3.71261
500 4.90681
505 3.64054
510 5.88732
515 5.4396
520 3.98922
525 5.3863
530 5.04739
535 5.46192
540 4.65565
545 7.26287
550 4.07238
555 5.90583
560 4.38743
565 4.83993
570 5.82227
575 5.46499
580 6.47578
585 6.33564
590 6.86249
595 6.83552
600 15.2525
Ex : 243
200 5.64384
205 6.1581
210 5.2968
215 3.48513
220 4.5796
225 3.80799
230 5.94714
235 5.20074
240 5.39429
245 5.26334
250 4.76285
255 3.25887
260 4.25065
265 3.86544
270 2.53256
275 4.35199
280 3.38871
285 3.44303
290 4.408
295 5.35037
300 3.65704
305 4.26336
310 3.00481
315 2.38353
320 4.23498
325 2.57105
330 3.03175
335 5.59738
340 5.01493
345 5.20645
350 5.17748
355 4.27246
360 5.32003
365 3.76874
370 4.06418
375 6.53221
380 5.60946
385 4.27022
390 4.82301
395 2.27541
400 2.83209
405 3.98227
410 4.64003
415 5.25745
420 6.24703
425 5.03449
430 3.26
435 3.66049
440 5.67839
445 4.56557
450 3.56931
455 6.68294
460 6.89265
465 6.18437
470 5.45174
475 6.83612
480 4.93122
485 4.39436
490 3.54752
495 4.27076
500 6.25698
505 3.58915
510 4.49398
515 2.72539
520 6.67497
525 5.63824
530 4.66009
535 4.39378
540 3.89263
545 3.07164
550 5.51906
555 6.16058
560 4.49473
565 6.18689
570 3.98391
575 5.24381
580 6.67091
585 4.91633
590 3.94452
595 5.39583
600 0.614025
Ex : 248
200 5.12464
205 2.98285
210 3.64042
215 3.49022
220 3.47803
225 5.61713
230 5.07023
235 4.12994
240 3.62213
245 3.36179
250 3.08942
255 2.93588
260 4.31523
265 4.14119
270 4.61563
275 4.73132
280 2.55077
285 2.98929
290 2.65955
295 4.51548
300 2.57129
305 4.75832
310 4.53077
315 4.92563
320 3.72822
325 5.38864
330 5.36698
335 4.47757
340 2.77276
345 3.27655
350 3.70947
355 5.80548
360 3.35385
365 4.50914
370 3.80766
375 4.19382
380 3.58169
385 3.71947
390 6.02354
395 4.85222
400 5.39501
405 4.6846
410 7.21453
415 3.88075
420 5.61848
425 4.33188
430 3.2589
435 3.92877
440 3.1688
445 5.80328
450 4.64831
455 4.23393
460 4.34576
465 3.53517
470 5.33971
475 3.49778
480 3.35386
485 7.0544
490 4.2576
495 3.46193
500 3.15543
505 3.6423
510 4.88917
515 3.16346
520 4.31098
525 3.90803
530 3.73903
535 3.29106
540 2.71303
545 4.08882
550 4.53817
555 4.38448
560 3.4713
565 5.40102
570 4.93027
575 3.34817
580 3.42997
585 3.41335
590 3.72566
595 4.5169
600 0.514006
Ex : 253
200 2.68123
205 3.21989
210 2.89709
215 3.65628
220 2.74539
225 2.94095
230 2.84933
235 3.15791
240 4.16034
245 3.82468
250 2.45381
255 3.77906
260 2.46561
265 3.02199
270 3.45931
275 5.25078
280 2.69013
285 3.14337
290 2.67721
295 2.39952
300 2.95666
305 2.85977
310 4.74968
315 4.46933
320 3.23129
325 2.05495
330 3.55154
335 2.67491
340 3.57464
345 4.11776
350 3.26999
355 3.66572
360 4.31411
365 2.25882
370 2.87237
375 2.23955
380 5.55841
385 4.012
390 3.41282
395 4.51357
400 3.76228
405 3.57708
410 3.94495
415 3.16988
420 2.31912
425 4.16895
430 3.00895
435 4.73242
440 3.73504
445 4.02424
450 2.65555
455 2.90596
460 5.27298
465 2.98441
470 4.35877
475 4.79034
480 4.22264
485 3.85258
490 3.52712
495 3.67369
500 3.98082
505 4.20542
510 3.61974
515 3.30304
520 4.39142
525 3.16997
530 5.24645
535 3.39094
540 3.14834
545 4.60532
550 3.77199
555 3.86159
560 4.48908
565 2.98823
570 2.92389
575 4.49855
580 2.33619
585 2.80238
590 2.71075
595 2.6489
600 0.498369
Ex : 258
200 2.19921
205 2.30447
210 3.2757
215 2.76028
220 3.81805
225 3.89472
230 2.53623
235 3.24142
240 3.30165
245 2.44841
250 2.89894
255 2.81892
260 2.14373
265 2.14811
270 1.73613
275 3.56811
280 2.86649
285 2.35798
290 2.3475
295 3.59311
300 3.86418
305 2.47727
310 2.62221
315 3.10836
320 3.01233
325 3.21544
330 2.96277
335 3.12767
340 2.76159
345 3.28543
350 3.72603
355 4.15117
360 2.89418
365 1.62036
370 2.05344
375 3.67803
380 2.54436
385 2.70663
390 3.24322
395 4.09836
400 4.18769
405 2.78838
410 4.27664
415 3.08276
420 2.98944
425 2.73202
430 3.98337
435 3.46782
440 2.01634
445 3.7305
450 3.62248
455 2.30573
460 3.43975
465 2.81299
470 2.78118
475 4.63832
480 3.4278
485 2.36002
490 3.4215
495 4.58745
500 2.63877
505 2.91486
510 3.70575
515 4.56899
520 3.25993
525 2.15773
530 2.97642
535 2.56775
540 2.09384
545 2.86188
550 3.00259
555 3.56197
560 3.85872
565 3.74289
570 2.68024
575 2.47556
580 2.17455
585 4.85166
590 3.12228
595 2.4207
600 6.33119
Ex : 263
200 1.75
205 1.94
210 1.65865
215 3.21201
220 1.61076
225 1.74578
230 1.45437
235 2.69834
240 1.89222
245 2.1252
250 1.92634
255 1.55846
260 1.91116
265 2.06821
270 3.68864
275 2.15712
280 2.57085
285 2.30109
290 1.5242
295 1.81154
300 2.75686
305 2.62154
310 2.18114
315 1.9948
320 1.6882
325 1.60395
330 1.82916
335 2.1616
340 2.46723
345 2.5524
350 3.13687
355 2.0409
360 2.07538
365 2.40644
370 2.73225
375 3.02619
380 3.52889
385 2.02024
390 1.93994
395 2.2476
400 2.87197
405 3.29292
410 3.17938
415 2.38094
420 1.99355
425 2.56708
430 3.18123
435 2.22979
440 2.45692
445 2.64568
450 4.33935
455 2.38149
460 2.52416
465 2.91788
470 2.48509
475 2.10299
480 2.37857
485 3.02081
490 2.47929
495 3.35067
500 1.76562
505 2.36849
510 1.9259
515 2.64584
520 3.08839
525 2.9856
530 2.33481
535 3.02745
540 2.3954
545 1.91715
550 1.54311
555 2.56175
560 2.30549
565 2.62075
570 3.47513
575 2.51314
580 2.71533
585 2.0171
590 2.03095
595 2.21136
600 0.441545
Ex : 268
200 1.46085
205 1.6335
210 1.68056
215 2.15404
220 2.20484
225 2.2394
230 1.77539
235 1.45749
240 1.42238
245 1.27975
250 2.15131
255 0.830646
260 1.24694
265 1.04516
270 1.5385
275 1.43797
280 1.23641
285 2.35736
290 1.85184
295 1.83937
300 1.92619
305 1.47884
310 1.91112
315 2.55623
320 1.67558
325 1.54692
330 1.8327
335 1.53203
340 1.62625
345 1.96438
350 2.46054
355 2.01032
360 2.1593
365 2.16429
370 1.7454
375 2.40382
380 2.59757
385 2.61123
390 1.90523
395 2.07125
400 1.98194
405 1.81241
410 3.66798
415 2.01211
420 1.64349
425 1.52843
430 1.82454
435 1.79565
440 2.87554
445 2.60456
450 1.93908
455 2.92525
460 1.73623
465 2.03567
470 1.90496
475 1.94911
480 2.34224
485 1.70248
490 1.72215
495 1.78327
500 2.31278
505 2.27573
510 1.72711
515 1.82664
520 1.27201
525 2.4063
530 2.305
535 2.81658
540 1.40443
545 1.57936
550 1.38808
555 1.60452
560 1.48982
565 1.10873
570 2.34168
575 1.49055
580 1.77317
585 1.37649
590 1.21031
595 1.51474
600 0.172371
Ex : 273
200 0.847265
205 1.71802
210 1.04314
215 1.01421
220 1.06612
225 1.84552
230 1.32364
235 1.23077
240 1.1193
245 1.16128
250 0.859243
255 0.974799
260 1.09145
265 1.05379
270 1.21128
275 1.22376
280 0.951304
285 1.23122
290 1.97017
295 1.30692
300 1.52182
305 1.49828
310 1.19727
315 1.60727
320 1.96088
325 1.16571
330 1.1741
335 1.81031
340 1.16661
345 1.4916
350 1.87584
355 2.16571
360 2.47598
365 1.61851
370 1.2241
375 2.03438
380 2.25937
385 2.15531
390 1.62484
395 2.13417
400 2.39997
405 1.85568
410 2.1375
415 1.84685
420 1.71484
425 1.48084
430 1.62181
435 1.94038
440 1.9073
445 1.06948
450 1.80063
455 1.26667
460 1.49062
465 1.73816
470 1.29296
475 1.47644
480 1.95066
485 1.75026
490 1.76857
495 1.74377
500 1.20442
505 0.982432
510 1.37952
515 1.20678
520 2.16083
525 1.94562
530 1.51778
535 1.58508
540 1.75512
545 1.49765
550 1.77274
555 1.27093
560 1.31545
565 1.35042
570 1.38208
575 1.39628
580 1.50492
585 1.06578
590 1.19122
595 1.22995
600 1.46927
Ex : 278
200 1.38856
205 1.19847
210 0.814158
215 1.40654
220 1.12231
225 0.949622
230 1.22423
235 1.18204
240 1.05745
245 0.934476
250 1.123
255 1.00002
260 1.44853
265 1.5637
270 1.14891
275 1.8482
280 0.989962
285 1.18531
290 1.0643
295 1.18302
300 1.20727
305 0.821361
310 0.787483
315 1.10702
320 1.47649
325 1.58038
330 1.12153
335 1.1009
340 1.36027
345 1.5421
350 1.83857
355 1.03284
360 1.21302
365 0.979892
370 1.13334
375 1.72628
380 2.43584
385 1.66453
390 1.27561
395 1.01914
400 1.03875
405 1.82556
410 1.6912
415 1.21907
420 1.35774
425 1.24653
430 1.75769
435 1.39447
440 2.00842
445 1.59481
450 1.53763
455 1.66228
460 1.18103
465 1.47447
470 1.0912
475 1.65433
480 1.65034
485 1.64093
490 1.35918
495 1.17222
500 0.893218
505 1.79097
510 1.01215
515 0.971329
520 1.2244
525 1.00228
530 0.819881
535 1.44338
540 1.34327
545 1.17253
550 1.96603
555 1.26021
560 1.23718
565 1.2611
570 1.01046
575 1.67775
580 0.839063
585 0.700524
590 1.21412
595 0.710518
600 0.0808542
Ex : 283
200 1.63402
205 1.22145
210 1.06083
215 0.738821
220 0.595074
225 0.898011
230 1.13738
235 1.22946
240 1.35973
245 0.710205
250 1.42507
255 0.689152
260 1.04912
265 0.746417
270 1.10092
275 1.0599
280 1.23989
285 0.795562
290 1.06034
295 1.03826
300 0.692778
305 0.635841
310 0.455785
315 0.967971
320 0.920081
325 0.803353
330 0.644487
335 0.506652
340 1.32731
345 0.83004
350 1.07196
355 1.17308
360 0.973526
365 1.0111
370 1.5734
375 1.30323
380 1.36627
385 1.72318
390 1.65236
395 1.44788
400 1.32602
405 0.955896
410 1.45681
415 1.43188
420 1.33022
425 1.44482
430 1.29707
435 1.14788
440 1.26161
445 1.13448
450 1.32098
455 1.33553
460 1.34317
465 1.22437
470 0.981351
475 1.07215
480 0.977652
485 1.00255
490 1.26761
495 1.07672
500 1.54007
505 0.782173
510 1.18195
515 1.60252
520 1.08699
525 0.802734
530 0.984626
535 0.848317
540 0.987869
545 1.3319
550 1.14576
555 1.49249
560 1.31017
565 1.64568
570 0.818989
575 1.05081
580 0.597207
585 1.02209
590 0.71115
595 0.866672
600 0.385337
Ex : 288
200 1.04833
205 0.539077
210 0.637511
215 0.536444
220 0.560764
225 0.989745
230 0.774184
235 0.997384
240 1.10658
245 0.840367
250 1.32313
255 0.823911
260 0.79464
265 0.534058
270 0.85297
275 0.678402
280 0.724218
285 1.13529
290 0.535677
295 0.724807
300 1.10737
305 0.951285
310 0.647773
315 0.786205
320 0.776956
325 0.797805
330 0.621969
335 0.906019
340 0.660388
345 0.593877
350 0.994116
355 0.965766
360 0.637705
365 0.84487
370 0.934587
375 1.03359
380 1.25966
385 1.09056
390 1.22677
395 1.10211
400 1.28932
405 1.20588
410 1.54229
415 1.39055
420 1.04974
425 0.985931
430 1.0519
435 0.981054
440 0.887068
445 0.766944
450 1.50435
455 0.965625
460 0.924741
465 0.840867
470 0.711062
475 0.721817
480 0.969956
485 0.768731
490 0.831333
495 1.27087
500 1.14013
505 0.89295
510 0.881091
515 1.34182
520 1.06603
525 0.912715
530 0.555346
535 0.69796
540 0.62961
545 0.901559
550 0.894782
555 0.797405
560 0.656852
565 0.97271
570 1.27899
575 1.05334
580 1.07093
585 0.982766
590 0.750526
595 0.679585
600 0.0773341
Ex : 293
200 1.06871
205 0.556999
210 0.847018
215 0.696146
220 0.755029
225 0.910242
230 0.739258
235 0.95629
240 0.747766
245 0.412792
250 0.783823
255 0.821061
260 0.689042
265 0.772256
270 0.515043
275 0.576316
280 0.776265
285 0.787706
290 1.00512
295 0.92775
300 0.854736
305 0.638254
310 0.379079
315 0.545107
320 0.740623
325 0.594766
330 1.09641
335 0.989157
340 0.663249
345 1.01046
350 1.46095
355 0.882727
360 0.744588
365 0.582081
370 1.03903
375 1.18123
380 1.16007
385 1.11502
390 1.17049
395 1.58615
400 1.24729
405 1.21195
410 1.51746
415 1.03039
420 1.22942
425 0.893946
430 0.867148
435 0.810285
440 0.938254
445 0.696821
450 1.14733
455 1.03664
460 0.871216
465 0.82152
470 1.01061
475 0.952754
480 0.917267
485 0.883098
490 0.742196
495 1.21285
500 0.956122
505 0.760028
510 1.21297
515 0.706437
520 0.880656
525 0.475918
530 0.595752
535 0.732675
540 0.76938
545 0.769248
550 0.577652
555 0.655172
560 0.591244
565 0.817146
570 0.957422
575 0.613194
580 1.29946
585 1.06529
590 0.552095
595 0.517732
600 1.00169
Ex : 298
200 0.532599
205 0.73145
210 0.546722
215 0.395034
220 0.470078
225 0.737261
230 0.523429
235 0.476694
240 0.543282
245 0.402186
250 0.611909
255 0.973553
260 0.53596
265 0.408021
270 0.511924
275 0.558104
280 0.308538
285 0.629742
290 0.600539
295 0.636378
300 0.915353
305 0.826985
310 0.324931
315 0.397083
320 0.419257
325 0.924036
330 0.853334
335 0.732631
340 0.94204
345 0.848807
350 0.731665
355 0.967494
360 0.640308
365 0.704963
370 0.742605
375 1.05239
380 1.15855
385 1.34845
390 1.12386
395 0.953347
400 1.25742
405 1.09217
410 1.21518
415 1.03434
420 1.12094
425 1.12286
430 0.950709
435 1.30043
440 1.03774
445 0.933635
450 0.893193
455 0.861302
460 1.13784
465 0.863811
470 0.834688
475 1.08862
480 0.732284
485 0.94665
490 0.665647
495 0.735084
500 0.738156
505 0.854818
510 0.617223
515 0.693978
520 0.584585
525 0.508433
530 0.694086
535 0.648488
540 0.901473
545 0.53785
550 0.672435
555 0.765702
560 0.414644
565 0.527804
570 0.455373
575 0.465171
580 0.637536
585 0.976807
590 1.46173
595 0.915383
600 0.645736
Ex : 303
200 0.477194
205 0.58961
210 0.467548
215 0.487257
220 0.571943
225 0.594881
230 0.393826
235 0.432231
240 0.402514
245 0.489078
250 0.391171
255 0.555097
260 0.617473
265 0.590072
270 0.474313
275 0.604423
280 0.56956
285 0.555856
290 0.496294
295 0.603898
300 0.473696
305 0.488285
310 0.456897
315 0.438419
320 0.435956
325 0.629131
330 0.396557
335 0.949977
340 0.612643
345 0.620628
350 0.644819
355 1.02865
360 0.682718
365 0.788022
370 0.792549
375 1.16411
380 1.03997
385 0.912542
390 1.06364
395 0.938835
400 0.738423
405 0.807865
410 0.935266
415 0.963803
420 1.0093
425 0.906557
430 0.815026
435 0.865193
440 0.786235
445 0.853428
450 0.968435
455 0.798671
460 0.650083
465 0.867562
470 0.727037
475 0.780171
480 0.564296
485 0.731865
490 0.748454
495 0.748625
500 0.546948
505 0.714003
510 0.495317
515 0.796939
520 0.480563
525 0.620071
530 0.491889
535 0.621549
540 0.598078
545 0.530262
550 0.471231
555 0.558955
560 0.390483
565 0.363579
570 0.552277
575 0.59074
580 0.492943
585 0.414164
590 0.373626
595 0.898447
600 0.130373
Ex : 308
200 0.452212
205 0.478586
210 0.374219
215 0.339576
220 0.439494
225 0.332426
230 0.371555
235 0.36046
240 0.348514
245 0.446704
250 0.430893
255 0.424564
260 0.374889
265 0.36098
270 0.528385
275 0.353016
280 0.437405
285 0.511908
290 0.429741
295 0.42686
300 0.699343
305 0.608543
310 0.365955
315 0.502398
320 0.503915
325 0.697363
330 0.594873
335 0.627671
340 0.592935
345 0.597741
350 0.701325
355 0.841622
360 0.829713
365 0.724761
370 0.601683
375 0.871965
380 1.20317
385 0.911071
390 0.982337
395 0.862091
400 0.740518
405 0.89133
410 0.919046
415 1.1619
420 0.91374
425 1.19361
430 1.06013
435 0.786645
440 1.09788
445 0.876491
450 0.95841
455 0.859461
460 0.92075
465 0.700477
470 0.717441
475 0.575527
480 0.696084
485 0.736245
490 0.504541
495 0.626262
500 0.396168
505 0.663181
510 0.516456
515 0.576098
520 0.510311
525 0.455232
530 0.447224
535 0.498544
540 0.486002
545 0.412003
550 0.753876
555 0.52273
560 0.52917
565 0.381572
570 0.299883
575 0.308082
580 0.363661
585 0.488702
590 0.46076
595 0.550229
600 0.062614
Ex : 313
200 0.487437
205 0.358408
210 0.312836
215 0.29401
220 0.253426
225 0.410796
230 0.452902
235 0.352578
240 0.371063
245 0.257206
250 0.35532
255 0.384145
260 0.205728
265 0.327169
270 0.349482
275 0.39272
280 0.311445
285 0.261633
290 0.467593
295 0.465331
300 0.419685
305 0.569737
310 0.711552
315 0.456339
320 0.417522
325 0.316075
330 0.484236
335 0.486905
340 0.53122
345 0.642601
350 0.715558
355 0.816354
360 1.08233
365 1.03179
370 1.15674
375 1.52155
380 1.37745
385 1.637
390 1.56573
395 1.77181
400 1.64386
405 1.72118
410 1.71139
415 1.80918
420 1.49622
425 1.73788
430 1.6959
435 1.84331
440 1.62743
445 1.56056
450 1.65635
455 1.29947
460 1.1743
465 1.09202
470 1.25296
475 0.978996
480 1.10329
485 1.01441
490 0.967748
495 1.02018
500 0.953604
505 0.931233
510 0.764111
515 0.577346
520 0.630077
525 0.672449
530 0.481933
535 0.765187
540 0.789395
545 0.502795
550 0.608919
555 0.493255
560 0.361663
565 0.423926
570 0.382578
575 0.631273
580 0.498195
585 0.490806
590 0.40933
595 0.472117
600 0.762688
Ex : 318
200 0.633684
205 0.327101
210 0.35698
215 0.549719
220 0.317764
225 0.324376
230 0.292211
235 0.35429
240 0.442243
245 0.369867
250 0.393758
255 0.315775
260 0.313256
265 0.30165
270 0.359323
275 0.406087
280 0.229023
285 0.394861
290 0.41102
295 0.374875
300 0.246155
305 0.422955
310 0.66838
315 1.46016
320 0.808635
325 0.834629
330 0.972412
335 1.31472
340 1.68439
345 2.55302
350 3.50603
355 4.77685
360 5.55961
365 6.60456
370 7.50973
375 9.25348
380 10.1914
385 11.3224
390 12.1885
395 12.7095
400 13.1917
405 13.8381
410 14.2941
415 13.626
420 13.0471
425 12.5071
430 12.2013
435 11.6203
440 11.0255
445 10.8292
450 9.59461
455 9.62344
460 8.76904
465 7.95081
470 7.09064
475 7.08446
480 6.47419
485 5.3824
490 4.93151
495 4.86702
500 4.503
505 3.76373
510 2.92796
515 2.50022
520 2.48113
525 2.18974
530 1.98766
535 1.75546
540 1.6499
545 1.30691
550 1.42091
555 0.867514
560 1.05689
565 0.939009
570 0.683558
575 0.507959
580 0.356111
585 0.440738
590 0.466171
595 0.49333
600 0.056139
Ex : 323
200 0.312866
205 0.34717
210 0.247116
215 0.278397
220 0.287723
225 0.268143
230 0.522826
235 0.270336
240 0.285762
245 0.318898
250 0.251089
255 0.136422
260 0.380592
265 0.377078
270 0.430847
275 0.341989
280 0.492638
285 0.398115
290 0.344194
295 0.307772
300 0.380051
305 0.282267
310 0.369442
315 5.35738
320 22.9262
325 9.26645
330 3.00961
335 3.45216
340 4.67616
345 6.60516
350 9.32298
355 13.9453
360 16.6732
365 19.161
370 22.1903
375 26.6036
380 29.0139
385 32.6636
390 34.6376
395 37.9492
400 39.0141
405 39.4244
410 39.0096
415 39.191
420 38.5939
425 37.9814
430 34.9493
435 34.3437
440 32.6974
445 32.5454
450 29.6152
455 27.3452
460 25.7864
465 24.6921
470 21.8075
475 21.1364
480 18.7911
485 16.5034
490 15.1902
495 14.0817
500 12.7171
505 10.8823
510 9.94428
515 8.29064
520 7.15432
525 6.16202
530 5.1952
535 5.05118
540 3.83723
545 3.55738
550 2.9251
555 2.62971
560 2.20652
565 2.1079
570 1.39762
575 1.39286
580 1.28585
585 0.873255
590 0.670739
595 0.528709
600 0.0601651
Ex : 328
200 0.304485
205 0.361265
210 0.273221
215 0.304363
220 0.294608
225 0.325621
230 0.242886
235 0.310173
240 0.249012
245 0.271127
250 0.196555
255 0.29625
260 0.413351
265 0.359439
270 0.192423
275 0.368171
280 0.203402
285 0.215948
290 0.291036
295 0.403106
300 0.405969
305 0.391317
310 0.359246
315 1.47687
320 45.124
325 100.091
330 31.133
335 6.79015
340 5.50505
345 7.56258
350 9.29757
355 12.9563
360 17.2714
365 20.0107
370 22.1212
375 25.3946
380 28.5075
385 30.6066
390 33.0559
395 34.5754
400 35.7701
405 38.0038
410 37.4656
415 36.9618
420 35.4835
425 34.6161
430 33.4903
435 32.9377
440 31.288
445 29.2072
450 28.2457
455 26.4955
460 25.5013
465 22.3634
470 21.1111
475 19.8292
480 18.1351
485 16.2392
490 14.7905
495 13.8704
500 12.1661
505 11.34
510 10.0804
515 8.56075
520 7.02726
525 6.57525
530 5.65076
535 4.31437
540 4.20777
545 3.88819
550 3.68777
555 3.15328
560 2.54969
565 1.97607
570 1.80968
575 1.4752
580 1.06124
585 0.988041
590 0.797754
595 0.666804
600 1.09781
Ex : 333
200 0.19395
205 0.28524
210 0.231079
215 0.339154
220 0.31022
225 0.260834
230 0.457718
235 0.339285
240 0.243066
245 0.30341
250 0.300491
255 0.271165
260 0.254126
265 0.286673
270 0.2869
275 0.287708
280 0.302031
285 0.263879
290 0.346542
295 0.240046
300 0.209931
305 0.336156
310 0.29165
315 0.319016
320 6.50264
325 115.699
330 196.513
335 50.8294
340 9.32281
345 5.69494
350 5.85598
355 6.50607
360 9.74916
365 14.543
370 15.0876
375 14.8814
380 15.3223
385 16.9697
390 17.7759
395 19.0125
400 19.6262
405 20.3142
410 21.049
415 21.4014
420 20.8596
425 20.3
430 19.2686
435 19.8497
440 19.109
445 18.1665
450 16.9122
455 16.1791
460 14.9583
465 14.1563
470 13.5216
475 12.5354
480 11.7058
485 11.0108
490 9.81135
495 9.47409
500 8.60126
505 7.49069
510 6.5898
515 6.21496
520 5.49162
525 4.46749
530 3.95846
535 4.14153
540 3.38555
545 2.91285
550 2.55092
555 2.38225
560 2.09258
565 1.81698
570 1.37221
575 1.04287
580 0.969725
585 1.0204
590 0.852317
595 0.621875
600 0.177111
Ex : 338
200 0.206388
205 0.225229
210 0.210582
215 0.210524
220 0.239191
225 0.318007
230 0.248701
235 0.259498
240 0.175233
245 0.261988
250 0.212106
255 0.328619
260 0.210794
265 0.232405
270 0.219365
275 0.246904
280 0.299903
285 0.28504
290 0.342443
295 0.232698
300 0.28495
305 0.222183
310 0.324195
315 0.255109
320 0.406864
325 10.9964
330 167.221
335 244.404
340 60.7415
345 9.64881
350 4.39585
355 4.09887
360 3.77218
365 5.62874
370 10.0038
375 10.5819
380 9.14479
385 8.81526
390 9.64275
395 10.0224
400 11.0928
405 12.016
410 12.6289
415 13.0792
420 13.2217
425 12.6122
430 12.6499
435 12.9027
440 13.2246
445 12.5889
450 11.8772
455 11.5481
460 10.8397
465 10.3332
470 9.81837
475 9.98477
480 9.29177
485 8.05123
490 8.23111
495 7.46283
500 6.65224
505 6.49166
510 5.84343
515 5.17547
520 4.60925
525 4.28854
530 4.14512
535 3.52151
540 2.99606
545 2.75127
550 2.42355
555 2.35117
560 2.08596
565 1.65764
570 1.42954
575 1.32219
580 0.908423
585 0.793008
590 0.845415
595 0.651928
600 0.507586
Ex : 343
200 0.22247
205 0.363108
210 0.197734
215 0.194993
220 0.27468
225 0.252169
230 0.249456
235 0.246458
240 0.289795
245 0.35579
250 0.13848
255 0.191381
260 0.222418
265 0.249066
270 0.191688
275 0.315786
280 0.292572
285 0.217175
290 0.239953
295 0.193549
300 0.287644
305 0.273379
310 0.303897
315 0.320225
320 0.256497
325 0.482966
330 12.1402
335 189.027
340 273.514
345 65.7208
350 9.43617
355 3.59815
360 3.05755
365 2.87323
370 3.53192
375 7.88866
380 8.89855
385 7.71064
390 6.75114
395 6.99342
400 7.51285
405 8.61751
410 9.63188
415 11.0635
420 11.3466
425 11.1964
430 11.3949
435 11.761
440 12.1785
445 11.983
450 11.9725
455 11.6054
460 11.0285
465 10.8903
470 10.8962
475 10.2281
480 9.53543
485 8.63826
490 8.32494
495 7.48201
500 7.25112
505 6.69124
510 5.88899
515 5.73707
520 4.92755
525 4.46536
530 4.26238
535 3.72677
540 3.573
545 2.98071
550 2.99537
555 2.4906
560 1.93336
565 1.85838
570 1.53842
575 1.20257
580 1.02519
585 0.832224
590 0.615526
595 0.618993
600 0.465638
Ex : 348
200 0.179615
205 0.184915
210 0.153169
215 0.163774
220 0.181661
225 0.212188
230 0.150276
235 0.276979
240 0.202827
245 0.284682
250 0.162585
255 0.231782
260 0.255714
265 0.218219
270 0.318178
275 0.213947
280 0.206561
285 0.389106
290 0.26058
295 0.222608
300 0.321522
305 0.211594
310 0.216846
315 0.29476
320 0.273849
325 0.344235
330 0.402977
335 12.9428
340 192.465
345 283.797
350 72.9847
355 10.344
360 3.39775
365 2.81296
370 2.28782
375 3.03476
380 5.94957
385 8.59904
390 7.95855
395 7.41446
400 7.27106
405 8.27822
410 10.0019
415 11.3179
420 11.9018
425 11.9148
430 11.6534
435 13.0297
440 13.5668
445 13.4319
450 12.9867
455 12.383
460 12.6232
465 12.3714
470 12.0442
475 11.6165
480 11.2439
485 10.2402
490 10.177
495 9.1764
500 8.53148
505 8.16479
510 7.43281
515 6.95714
520 6.09461
525 5.58276
530 4.89806
535 4.15036
540 3.95289
545 3.5887
550 3.3303
555 2.99195
560 2.60503
565 2.20997
570 1.95054
575 1.54872
580 1.17296
585 0.994624
590 0.888744
595 0.669097
600 0.327779
Ex : 353
200 0.21304
205 0.137943
210 0.178616
215 0.247257
220 0.200907
225 0.238337
230 0.240796
235 0.245279
240 0.249097
245 0.221627
250 0.142691
255 0.173844
260 0.280082
265 0.226052
270 0.227344
275 0.226807
280 0.165762
285 0.255055
290 0.222923
295 0.181078
300 0.192734
305 0.248027
310 0.255384
315 0.186403
320 0.251787
325 0.382769
330 0.343005
335 0.432713
340 13.3529
345 198.707
350 287.385
355 71.3115
360 9.74955
365 3.1196
370 2.68128
375 2.35444
380 2.58812
385 5.16792
390 9.18845
395 9.01124
400 8.50666
405 8.33344
410 10.7687
415 11.8902
420 11.8812
425 12.0873
430 12.1479
435 13.263
440 13.8407
445 14.6085
450 13.9565
455 13.7742
460 13.1527
465 13.4667
470 13.0525
475 12.8773
480 12.2731
485 11.4924
490 10.7067
495 10.3012
500 9.81327
505 8.7892
510 8.15073
515 7.49481
520 7.02447
525 6.14075
530 5.62576
535 4.57716
540 4.53419
545 3.98449
550 3.6762
555 3.28096
560 2.64103
565 2.40813
570 1.92828
575 1.57961
580 1.34961
585 1.01176
590 0.919021
595 0.787046
600 0.331943
Ex : 358
200 0.183477
205 0.213591
210 0.170988
215 0.24056
220 0.204234
225 0.190449
230 0.213874
235 0.128591
240 0.325509
245 0.217567
250 0.199581
255 0.208666
260 0.191897
265 0.207718
270 0.22674
275 0.28621
280 0.226983
285 0.200003
290 0.165401
295 0.331112
300 0.202159
305 0.190115
310 0.201791
315 0.188872
320 0.205067
325 0.298337
330 0.291767
335 0.306748
340 0.490768
345 12.8197
350 192.348
355 290.663
360 73.291
365 10.0907
370 2.95761
375 2.98001
380 2.82001
385 2.91497
390 5.29157
395 9.52392
400 10.0548
405 9.86649
410 10.6615
415 11.9414
420 12.9718
425 12.9032
430 13.0466
435 14.2658
440 15.4809
445 15.9411
450 14.7602
455 14.0192
460 14.0426
465 13.7299
470 14.0614
475 13.8429
480 13.1189
485 12.2464
490 12.1321
495 11.4994
500 10.5073
505 10.0336
510 8.87436
515 8.1705
520 7.30708
525 6.65919
530 5.99285
535 5.58333
540 5.03673
545 4.45295
550 3.76007
555 3.69687
560 3.0672
565 2.60921
570 2.38632
575 1.75979
580 1.46898
585 1.15009
590 0.943702
595 0.694774
600 0.856848
Ex : 363
200 0.183157
205 0.176021
210 0.162503
215 0.163563
220 0.215407
225 0.218577
230 0.14022
235 0.18338
240 0.169797
245 0.155532
250 0.164466
255 0.151168
260 0.204155
265 0.136772
270 0.184815
275 0.157817
280 0.286946
285 0.21519
290 0.232194
295 0.147595
300 0.156878
305 0.247945
310 0.191801
315 0.254471
320 0.261172
325 0.259711
330 0.257198
335 0.375279
340 0.387463
345 0.417401
350 10.7832
355 188.671
360 291.749
365 76.4434
370 10.2488
375 3.15416
380 2.84853
385 2.92416
390 3.48482
395 5.30818
400 9.08441
405 12.1005
410 14.1994
415 15.0529
420 14.7203
425 14.1518
430 14.9371
435 16.4853
440 17.4502
445 17.927
450 17.0028
455 16.5978
460 16.5944
465 16.1416
470 16.382
475 15.9895
480 15.1533
485 14.4708
490 13.8377
495 12.9289
500 12.3675
505 11.031
510 10.5862
515 9.29725
520 8.6402
525 7.65913
530 6.68703
535 6.32275
540 5.48734
545 5.02912
550 4.278
555 3.7637
560 3.53908
565 2.96093
570 2.41597
575 1.90551
580 1.37071
585 1.10738
590 0.999838
595 0.740884
600 1.05346
Ex : 368
200 0.144084
205 0.122966
210 0.179026
215 0.227483
220 0.188137
225 0.113589
230 0.122929
235 0.152265
240 0.170688
245 0.173076
250 0.140751
255 0.132815
260 0.192236
265 0.163135
270 0.185728
275 0.158644
280 0.168179
285 0.140458
290 0.169633
295 0.172394
300 0.214432
305 0.176113
310 0.167512
315 0.139169
320 0.275233
325 0.228572
330 0.305292
335 0.275849
340 0.316771
345 0.299346
350 0.460232
355 9.64683
360 180.263
365 299.38
370 80.6569
375 11.0829
380 3.21957
385 3.21518
390 4.00239
395 4.77474
400 5.91324
405 10.386
410 15.2369
415 16.0527
420 15.9241
425 14.5006
430 14.8884
435 16.3193
440 17.5202
445 17.7193
450 17.2481
455 17.285
460 17.4862
465 17.1259
470 17.8233
475 16.9714
480 16.0886
485 14.8
490 14.6292
495 14.046
500 13.1456
505 12.9692
510 11.5613
515 10.0644
520 8.97498
525 8.24057
530 7.59185
535 6.80529
540 6.26296
545 5.57689
550 4.97027
555 4.38842
560 3.96036
565 3.2746
570 2.78279
575 2.07052
580 1.65482
585 1.47146
590 1.041
595 0.868364
600 0.613386
Ex : 373
200 0.160664
205 0.159594
210 0.175725
215 0.16484
220 0.134346
225 0.116863
230 0.160301
235 0.121543
240 0.163292
245 0.176452
250 0.117059
255 0.236806
260 0.185132
265 0.15816
270 0.141665
275 0.176319
280 0.158458
285 0.118331
290 0.149503
295 0.233949
300 0.175235
305 0.166066
310 0.148613
315 0.138233
320 0.148809
325 0.154739
330 0.175562
335 0.189211
340 0.23225
345 0.241047
350 0.296706
355 0.406863
360 11.3281
365 189.29
370 301.792
375 82.1401
380 11.5173
385 3.77418
390 4.53151
395 5.55176
400 5.72914
405 7.54245
410 12.1187
415 16.6596
420 15.5229
425 14.8197
430 13.9005
435 14.7992
440 16.5463
445 16.6024
450 15.9702
455 15.5996
460 16.3044
465 16.4451
470 16.2625
475 16.2022
480 15.8308
485 15.7038
490 14.2599
495 13.6729
500 13.5446
505 12.5875
510 11.538
515 10.7084
520 9.68543
525 8.83405
530 7.527
535 7.1065
540 6.56759
545 5.82901
550 5.12117
555 4.67591
560 4.21395
565 3.45731
570 2.90601
575 2.36015
580 1.74188
585 1.2971
590 1.09417
595 0.866349
600 2.02126
Ex : 378
200 0.112375
205 0.1148
210 0.13082
215 0.130571
220 0.143754
225 0.154973
230 0.138029
235 0.198282
240 0.127009
245 0.149132
250 0.139248
255 0.140799
260 0.104739
265 0.134969
270 0.14162
275 0.15747
280 0.158757
285 0.16286
290 0.165224
295 0.122534
300 0.131272
305 0.119492
310 0.11887
315 0.210918
320 0.124355
325 0.161486
330 0.204764
335 0.139824
340 0.151451
345 0.247749
350 0.273114
355 0.341633
360 0.488116
365 10.6233
370 190.8
375 315.542
380 85.5477
385 12.2506
390 4.48714
395 5.22329
400 5.95644
405 7.26262
410 10.138
415 13.3163
420 16.3987
425 15.5448
430 15.1244
435 16.0104
440 16.3943
445 16.6186
450 15.8714
455 15.8547
460 15.5749
465 16.0788
470 16.155
475 15.6391
480 15.6265
485 14.8169
490 14.2311
495 13.6513
500 12.9444
505 12.4237
510 11.1074
515 10.3471
520 9.40734
525 8.51402
530 7.77551
535 6.78738
540 6.11184
545 5.59336
550 5.16758
555 4.29511
560 3.75597
565 3.15981
570 2.69093
575 2.20607
580 1.84892
585 1.47326
590 1.07781
595 0.869765
600 0.9307
Ex : 383
200 0.125397
205 0.108799
210 0.137965
215 0.123804
220 0.107532
225 0.126265
230 0.14074
235 0.177788
240 0.12109
245 0.0882864
250 0.138845
255 0.184549
260 0.106085
265 0.133325
270 0.136045
275 0.160142
280 0.117872
285 0.0848882
290 0.182325
295 0.131827
300 0.140599
305 0.188051
310 0.120303
315 0.184502
320 0.152341
325 0.131169
330 0.196308
335 0.220773
340 0.144047
345 0.220785
350 0.244755
355 0.258486
360 0.288138
365 0.552461
370 10.5956
375 191.766
380 324.938
385 89.773
390 13.3198
395 5.09516
400 5.40791
405 7.594
410 10.6866
415 12.76
420 14.0251
425 16.03
430 17.0592
435 17.4565
440 17.6496
445 17.6319
450 17.177
455 16.3859
460 16.5189
465 16.8553
470 17.1886
475 16.5822
480 16.2039
485 14.8782
490 14.4738
495 14.0802
500 13.0236
505 12.4297
510 11.6028
515 10.4546
520 9.61361
525 8.52272
530 7.8485
535 6.98101
540 6.30094
545 5.69538
550 5.08364
555 4.39251
560 3.91318
565 3.27795
570 2.8823
575 2.29608
580 1.84006
585 1.37249
590 1.16011
595 0.91884
600 1.00828
Ex : 388
200 0.12185
205 0.145943
210 0.127232
215 0.113044
220 0.123842
225 0.106859
230 0.108339
235 0.124746
240 0.163118
245 0.176418
250 0.136853
255 0.143628
260 0.125626
265 0.19279
270 0.129414
275 0.0894037
280 0.131185
285 0.152793
290 0.116744
295 0.100898
300 0.200191
305 0.1138
310 0.165554
315 0.192182
320 0.180296
325 0.144707
330 0.204635
335 0.188231
340 0.216344
345 0.156198
350 0.179504
355 0.207964
360 0.244654
365 0.360851
370 0.519932
375 11.4058
380 197.43
385 325.14
390 89.6488
395 14.0486
400 5.80429
405 7.62569
410 10.8242
415 12.5615
420 12.8839
425 12.8864
430 15.1317
435 17.6615
440 18.4928
445 17.7701
450 16.5075
455 16.3012
460 16.3729
465 16.4541
470 16.4416
475 16.6056
480 15.924
485 15.2153
490 15.0388
495 14.3971
500 13.6203
505 12.7629
510 11.6696
515 10.5254
520 9.96756
525 8.7387
530 7.98164
535 7.13313
540 6.50574
545 5.53209
550 5.42551
555 4.87321
560 3.98727
565 3.43483
570 2.79826
575 2.25272
580 1.67248
585 1.26796
590 0.962527
595 0.832551
600 0.378995
Ex : 393
200 0.121091
205 0.106419
210 0.152041
215 0.168719
220 0.124676
225 0.091109
230 0.103596
235 0.142345
240 0.128531
245 0.120421
250 0.136075
255 0.126575
260 0.190396
265 0.126546
270 0.14292
275 0.0880752
280 0.117885
285 0.143642
290 0.120903
295 0.0915492
300 0.148414
305 0.176044
310 0.160238
315 0.1311
320 0.156626
325 0.150194
330 0.170573
335 0.167481
340 0.149876
345 0.189858
350 0.213322
355 0.202921
360 0.17175
365 0.267645
370 0.385014
375 0.483268
380 9.66043
385 196.24
390 337.091
395 93.9203
400 14.9317
405 7.19318
410 8.95824
415 11.2042
420 11.4453
425 10.97
430 10.9948
435 13.7885
440 16.7578
445 16.2878
450 15.3953
455 14.61
460 14.4989
465 14.7078
470 14.9706
475 15.1747
480 14.6126
485 14.2591
490 14.017
495 13.2622
500 13.0231
505 12.3536
510 11.5097
515 10.6152
520 9.2648
525 8.54563
530 8.15392
535 7.29133
540 6.615
545 6.05006
550 5.45183
555 4.61434
560 3.94403
565 3.46944
570 2.7571
575 2.37371
580 1.84045
585 1.40802
590 1.16139
595 0.923254
600 0.568811
Ex : 398
200 0.108439
205 0.0773248
210 0.0947473
215 0.108864
220 0.0911153
225 0.0824753
230 0.105058
235 0.113638
240 0.160753
245 0.119911
250 0.131154
255 0.138519
260 0.164416
265 0.125927
270 0.147716
275 0.13207
280 0.100037
285 0.133664
290 0.167401
295 0.127573
300 0.129111
305 0.168083
310 0.129217
315 0.118777
320 0.121613
325 0.113701
330 0.141914
335 0.113221
340 0.175246
345 0.199393
350 0.14825
355 0.169023
360 0.163383
365 0.18002
370 0.277901
375 0.391172
380 0.492417
385 10.3175
390 203.539
395 347.114
400 96.1713
405 15.8821
410 8.43614
415 9.65332
420 9.8183
425 9.52773
430 9.59522
435 10.6407
440 13.0679
445 15.2705
450 15.1459
455 13.7721
460 13.442
465 14.0243
470 14.0357
475 13.9679
480 14.028
485 13.6709
490 13.5741
495 13.0775
500 13.0119
505 12.0245
510 11.3761
515 10.6135
520 9.48344
525 8.7383
530 7.94676
535 7.45072
540 6.41583
545 5.74421
550 5.2482
555 4.78632
560 4.18829
565 3.43067
570 3.02431
575 2.51162
580 1.9384
585 1.55546
590 1.28755
595 0.942367
600 0.389752
Ex : 403
200 0.14853
205 0.149275
210 0.0865661
215 0.119465
220 0.106573
225 0.153981
230 0.166212
235 0.191593
240 0.100001
245 0.162075
250 0.151309
255 0.113163
260 0.112613
265 0.12762
270 0.141932
275 0.12908
280 0.149944
285 0.10677
290 0.0926877
295 0.156315
300 0.164603
305 0.0958271
310 0.128283
315 0.145097
320 0.145574
325 0.107756
330 0.138467
335 0.094043
340 0.182035
345 0.145846
350 0.178656
355 0.182888
360 0.163124
365 0.184109
370 0.181046
375 0.303071
380 0.352147
385 0.558452
390 11.7192
395 213.031
400 351.271
405 98.5292
410 18.0038
415 9.89381
420 9.34414
425 9.17589
430 9.56944
435 10.6526
440 11.927
445 12.8954
450 13.9897
455 14.7215
460 14.6289
465 14.3411
470 14.2983
475 14.1415
480 14.1428
485 14.0822
490 13.5807
495 13.0862
500 12.4204
505 12.1776
510 11.3167
515 10.5748
520 9.61587
525 8.62998
530 8.23054
535 7.52023
540 6.5894
545 5.7998
550 5.24456
555 4.75954
560 4.18135
565 3.24124
570 2.96049
575 2.29716
580 1.79383
585 1.38527
590 1.15787
595 0.838507
600 0.592778
Ex : 408
200 0.102385
205 0.14327
210 0.0735602
215 0.114614
220 0.0926526
225 0.148652
230 0.146364
235 0.136252
240 0.131549
245 0.174078
250 0.112182
255 0.107837
260 0.126897
265 0.120484
270 0.139938
275 0.108835
280 0.150852
285 0.148083
290 0.122393
295 0.143441
300 0.0979931
305 0.155434
310 0.118154
315 0.114632
320 0.160236
325 0.149054
330 0.118487
335 0.12491
340 0.203154
345 0.17059
350 0.189242
355 0.177928
360 0.217422
365 0.159435
370 0.168603
375 0.233796
380 0.286077
385 0.368434
390 0.664953
395 11.6165
400 214.837
405 356.696
410 98.0397
415 18.3735
420 9.24458
425 8.15532
430 8.50893
435 9.68167
440 10.7229
445 11.113
450 11.1043
455 12.8663
460 14.468
465 14.2712
470 14.3931
475 14.0547
480 13.0804
485 13.0243
490 12.7779
495 12.5464
500 12.2579
505 11.6913
510 10.7565
515 10.0762
520 9.34172
525 8.82531
530 8.01999
535 7.03441
540 6.55836
545 5.78289
550 5.185
555 4.3594
560 4.13861
565 3.86741
570 2.98013
575 2.423
580 1.86772
585 1.43776
590 1.07195
595 0.939321
600 1.15231
Ex : 413
200 0.118172
205 0.1123
210 0.107423
215 0.102214
220 0.210775
225 0.138461
230 0.147454
235 0.111857
240 0.155992
245 0.15304
250 0.100333
255 0.0921165
260 0.182536
265 0.118023
270 0.0806457
275 0.123957
280 0.118507
285 0.212846
290 0.103132
295 0.170203
300 0.133559
305 0.12027
310 0.0824057
315 0.148069
320 0.137926
325 0.138615
330 0.146167
335 0.180706
340 0.140047
345 0.169552
350 0.130079
355 0.101898
360 0.106346
365 0.195313
370 0.207859
375 0.194604
380 0.217382
385 0.193443
390 0.282177
395 0.543565
400 13.1902
405 221.039
410 358.177
415 95.8339
420 15.7463
425 6.52942
430 5.67702
435 6.62032
440 7.28779
445 7.74982
450 7.69116
455 8.34625
460 9.95893
465 12.6888
470 12.3422
475 12.0669
480 12.1186
485 11.5709
490 11.4809
495 11.2089
500 11.1079
505 10.426
510 9.80921
515 9.1509
520 8.83968
525 7.74736
530 7.3643
535 6.84532
540 6.15093
545 5.31685
550 5.07603
555 4.56268
560 3.93887
565 3.30648
570 2.88552
575 2.44572
580 1.68707
585 1.48171
590 1.06555
595 0.90561
600 0.673179
Ex : 418
200 0.136075
205 0.131678
210 0.0907242
215 0.0853229
220 0.190713
225 0.114209
230 0.0983856
235 0.12079
240 0.127227
245 0.0923414
250 0.132472
255 0.0979936
260 0.137521
265 0.124335
270 0.118152
275 0.171184
280 0.103289
285 0.111702
290 0.13846
295 0.120065
300 0.177728
305 0.163513
310 0.166965
315 0.117956
320 0.111945
325 0.118991
330 0.113735
335 0.156695
340 0.0985414
345 0.124606
350 0.134712
355 0.113579
360 0.153025
365 0.195745
370 0.209767
375 0.177232
380 0.162703
385 0.148302
390 0.261598
395 0.380982
400 0.736128
405 12.7635
410 226.037
415 370.02
420 98.6409
425 13.9809
430 4.28822
435 3.53714
440 4.18204
445 4.56375
450 4.86903
455 5.27283
460 6.0456
465 7.69906
470 10.273
475 10.6021
480 9.99334
485 10.1853
490 9.82616
495 9.5969
500 9.19032
505 9.35945
510 8.93371
515 8.36492
520 7.73693
525 7.23865
530 6.81894
535 5.92446
540 5.36672
545 5.1077
550 4.45121
555 4.20114
560 3.63059
565 3.16821
570 2.63732
575 2.03637
580 1.62043
585 1.31686
590 1.06396
595 0.823856
600 0.774544
Ex : 423
200 0.102716
205 0.13793
210 0.104927
215 0.144313
220 0.0867172
225 0.100422
230 0.101034
235 0.109306
240 0.156714
245 0.133142
250 0.105162
255 0.101113
260 0.175469
265 0.122153
270 0.169064
275 0.105251
280 0.102203
285 0.112051
290 0.115978
295 0.0803524
300 0.0984393
305 0.141866
310 0.0971808
315 0.117107
320 0.139522
325 0.114159
330 0.134889
335 0.15171
340 0.126967
345 0.131633
350 0.113423
355 0.218841
360 0.144524
365 0.151898
370 0.126768
375 0.129015
380 0.144025
385 0.170491
390 0.241073
395 0.276953
400 0.440951
405 0.706033
410 12.0939
415 233.365
420 362.262
425 91.1512
430 12.0905
435 3.19174
440 2.32535
445 3.06916
450 3.38666
455 3.91871
460 4.63673
465 5.26623
470 6.3466
475 8.71696
480 9.68322
485 9.15271
490 9.02368
495 8.67286
500 8.50682
505 8.03134
510 7.58202
515 7.40585
520 7.01369
525 6.40478
530 6.03929
535 5.7194
540 5.04006
545 4.83389
550 4.21064
555 3.70252
560 3.2598
565 3.19862
570 2.60535
575 2.14696
580 1.38989
585 1.2703
590 1.05203
595 0.774214
600 0.608891
Ex : 428
200 0.107388
205 0.120692
210 0.160883
215 0.118079
220 0.138236
225 0.162137
230 0.115828
235 0.147323
240 0.132476
245 0.139516
250 0.126386
255 0.225951
260 0.141344
265 0.156776
270 0.0968976
275 0.0929696
280 0.10039
285 0.105875
290 0.105942
295 0.142782
300 0.107506
305 0.10338
310 0.0975236
315 0.0750404
320 0.11739
325 0.158317
330 0.148674
335 0.0979401
340 0.140749
345 0.129783
350 0.12303
355 0.179043
360 0.137479
365 0.133455
370 0.103878
375 0.181637
380 0.156341
385 0.179343
390 0.162198
395 0.21752
400 0.296394
405 0.452803
410 0.661642
415 14.0266
420 239.112
425 375.383
430 97.4834
435 12.6172
440 3.00584
445 2.15221
450 2.71808
455 3.28618
460 3.91509
465 4.50544
470 5.23754
475 5.80907
480 7.19057
485 8.99397
490 8.92283
495 8.33509
500 8.1725
505 7.52177
510 7.10188
515 6.77123
520 6.52726
525 5.86257
530 5.53212
535 5.00501
540 4.54585
545 4.39107
550 3.8617
555 3.37266
560 2.88774
565 2.8233
570 2.28116
575 1.97521
580 1.67765
585 1.12735
590 0.860751
595 0.783968
600 0.736936
Ex : 433
200 0.0975707
205 0.13735
210 0.222577
215 0.141234
220 0.0901706
225 0.1643
230 0.141478
235 0.161294
240 0.159515
245 0.175781
250 0.12751
255 0.0992422
260 0.155771
265 0.14975
270 0.155864
275 0.119296
280 0.106103
285 0.131359
290 0.128352
295 0.145349
300 0.108202
305 0.0855588
310 0.108417
315 0.0996805
320 0.11366
325 0.177321
330 0.16678
335 0.117708
340 0.216076
345 0.144492
350 0.136567
355 0.143208
360 0.20077
365 0.133362
370 0.171952
375 0.15451
380 0.151285
385 0.166732
390 0.162678
395 0.158982
400 0.242439
405 0.243918
410 0.355199
415 0.651039
420 15.8272
425 257.305
430 392.957
435 98.5914
440 12.767
445 3.05435
450 2.21457
455 2.96104
460 3.59721
465 4.07814
470 4.55725
475 5.03994
480 5.49516
485 6.68075
490 8.71638
495 8.18706
500 7.3645
505 7.09109
510 6.55996
515 5.8794
520 5.50116
525 5.10165
530 4.98604
535 4.58732
540 4.07316
545 3.88818
550 3.47752
555 3.16908
560 2.74059
565 2.31695
570 2.0909
575 1.68978
580 1.37517
585 1.13752
590 0.789697
595 0.66725
600 0.322759
Ex : 438
200 0.133328
205 0.133626
210 0.193604
215 0.140145
220 0.172246
225 0.108964
230 0.118377
235 0.156963
240 0.0844502
245 0.117199
250 0.117306
255 0.135121
260 0.162678
265 0.145745
270 0.0972585
275 0.115419
280 0.149326
285 0.117163
290 0.173116
295 0.1242
300 0.117703
305 0.113671
310 0.0890753
315 0.0962192
320 0.122642
325 0.134518
330 0.192277
335 0.130067
340 0.179351
345 0.186816
350 0.186236
355 0.180084
360 0.144793
365 0.159149
370 0.133877
375 0.179211
380 0.148699
385 0.193004
390 0.143326
395 0.16296
400 0.210936
405 0.237779
410 0.409673
415 0.334291
420 0.684177
425 15.8987
430 261.973
435 418.971
440 105.312
445 13.6184
450 3.36375
455 2.70177
460 3.02541
465 3.53685
470 3.70144
475 4.29442
480 4.60442
485 4.74623
490 5.63343
495 6.99639
500 7.48787
505 6.59172
510 6.09358
515 5.66482
520 4.89573
525 4.84889
530 4.43061
535 3.89794
540 3.68241
545 3.40311
550 3.11793
555 2.92989
560 2.58334
565 2.36275
570 1.88265
575 1.52392
580 1.20427
585 1.00818
590 0.750963
595 0.631687
600 1.2693
Ex : 443
200 0.102136
205 0.125919
210 0.107225
215 0.100965
220 0.0945998
225 0.117909
230 0.183064
235 0.147008
240 0.101234
245 0.119736
250 0.10768
255 0.122433
260 0.112667
265 0.169914
270 0.123269
275 0.159295
280 0.13599
285 0.116011
290 0.128377
295 0.15121
300 0.103218
305 0.146152
310 0.153701
315 0.103176
320 0.117016
325 0.133614
330 0.17382
335 0.135055
340 0.213472
345 0.11589
350 0.136177
355 0.143173
360 0.112164
365 0.163306
370 0.177964
375 0.162826
380 0.161974
385 0.180341
390 0.150752
395 0.158183
400 0.18184
405 0.147191
410 0.169637
415 0.239863
420 0.359427
425 0.573068
430 16.9383
435 273.644
440 421.444
445 106.3
450 13.9588
455 3.62053
460 2.48109
465 2.96938
470 3.50041
475 3.5119
480 3.7931
485 3.87863
490 4.14576
495 4.64246
500 5.94353
505 6.70443
510 5.61832
515 5.01992
520 4.72981
525 4.09634
530 3.81269
535 3.65542
540 3.31952
545 2.83685
550 2.84559
555 2.53033
560 2.21269
565 2.02106
570 1.74659
575 1.43838
580 1.26544
585 0.903933
590 0.74323
595 0.615373
600 0.495165
Ex : 448
200 0.149068
205 0.145617
210 0.187477
215 0.0947655
220 0.126277
225 0.0919936
230 0.111663
235 0.182026
240 0.114215
245 0.11261
250 0.122549
255 0.0996105
260 0.118456
265 0.12268
270 0.0983744
275 0.115604
280 0.110389
285 0.131242
290 0.141963
295 0.130982
300 0.119382
305 0.0998397
310 0.118218
315 0.160452
320 0.161933
325 0.152384
330 0.153806
335 0.146419
340 0.113517
345 0.18976
350 0.202298
355 0.148118
360 0.146549
365 0.1322
370 0.119124
375 0.177108
380 0.101119
385 0.146918
390 0.137542
395 0.166245
400 0.18179
405 0.206849
410 0.24294
415 0.322478
420 0.297575
425 0.394689
430 0.671363
435 17.5449
440 301.886
445 447.848
450 112.199
455 14.7034
460 3.6886
465 2.53883
470 2.76129
475 3.13918
480 3.15634
485 3.3536
490 3.43081
495 3.60496
500 3.76051
505 4.4385
510 5.51012
515 5.04712
520 4.03894
525 3.97738
530 3.66944
535 3.09273
540 2.95473
545 2.61249
550 2.42363
555 2.09447
560 2.08487
565 1.68969
570 1.56257
575 1.38035
580 1.06523
585 0.861416
590 0.68992
595 0.663456
600 0.834255
Ex : 453
200 0.112683
205 0.116543
210 0.115792
215 0.124657
220 0.109306
225 0.148984
230 0.104873
235 0.141707
240 0.0858083
245 0.126418
250 0.176682
255 0.142603
260 0.130007
265 0.146064
270 0.164725
275 0.194241
280 0.119086
285 0.10079
290 0.142965
295 0.133203
300 0.105663
305 0.0959111
310 0.139466
315 0.146511
320 0.122827
325 0.139039
330 0.122207
335 0.151597
340 0.156367
345 0.147153
350 0.118173
355 0.155189
360 0.150718
365 0.200864
370 0.137458
375 0.105494
380 0.17776
385 0.175758
390 0.104561
395 0.128791
400 0.162746
405 0.186711
410 0.204424
415 0.191404
420 0.246696
425 0.291347
430 0.301656
435 0.620574
440 18.4689
445 325.373
450 481.72
455 113.16
460 14.9434
465 3.54981
470 2.23953
475 2.59272
480 2.73022
485 2.85358
490 2.70817
495 2.91892
500 2.83082
505 2.95581
510 3.52181
515 4.45915
520 4.65788
525 3.67915
530 3.29407
535 3.09049
540 2.56193
545 2.34404
550 2.14802
555 2.01026
560 1.78472
565 1.50876
570 1.29582
575 1.09747
580 0.955048
585 0.756281
590 0.615598
595 0.582687
600 0.226932
Ex : 458
200 0.102923
205 0.135789
210 0.165183
215 0.145616
220 0.123966
225 0.123906
230 0.125549
235 0.0962904
240 0.113164
245 0.140557
250 0.121013
255 0.113
260 0.117053
265 0.105094
270 0.124242
275 0.137668
280 0.107724
285 0.104438
290 0.141303
295 0.154363
300 0.146134
305 0.0749342
310 0.102432
315 0.163157
320 0.102608
325 0.107808
330 0.16536
335 0.0951629
340 0.112177
345 0.111728
350 0.0992307
355 0.147721
360 0.155814
365 0.106331
370 0.158108
375 0.149978
380 0.137784
385 0.151737
390 0.161159
395 0.154539
400 0.108532
405 0.233953
410 0.182971
415 0.210871
420 0.241355
425 0.25568
430 0.284473
435 0.431903
440 0.645242
445 20.9868
450 330.123
455 500.601
460 119.212
465 15.2752
470 3.4455
475 2.02577
480 2.07677
485 2.56165
490 2.5918
495 2.27761
500 2.17639
505 2.5042
510 2.33187
515 2.713
520 3.57421
525 4.11027
530 3.44298
535 2.84131
540 2.70178
545 2.20162
550 1.9384
555 1.7423
560 1.52493
565 1.45611
570 1.22811
575 0.980482
580 0.822075
585 0.697968
590 0.571313
595 0.433993
600 0.857904
Ex : 463
200 0.18112
205 0.147341
210 0.174862
215 0.183649
220 0.115135
225 0.1094
230 0.0887759
235 0.0905312
240 0.134682
245 0.127298
250 0.115147
255 0.106699
260 0.121709
265 0.103935
270 0.115846
275 0.0895439
280 0.103064
285 0.0924221
290 0.142845
295 0.137431
300 0.151227
305 0.145623
310 0.177345
315 0.135683
320 0.112307
325 0.122801
330 0.166686
335 0.14377
340 0.15052
345 0.115335
350 0.141301
355 0.15566
360 0.145291
365 0.163279
370 0.131097
375 0.131984
380 0.113855
385 0.136523
390 0.209231
395 0.18784
400 0.159818
405 0.176775
410 0.193991
415 0.227606
420 0.232472
425 0.172476
430 0.253054
435 0.253333
440 0.393854
445 0.711939
450 21.1321
455 360.255
460 553.662
465 133.859
470 17.0205
475 3.43497
480 1.85027
485 1.78116
490 2.23569
495 2.19956
500 1.99477
505 1.94964
510 1.96549
515 2.07159
520 2.16376
525 2.86941
530 3.92088
535 3.40606
540 2.55512
545 2.40586
550 2.12892
555 1.94733
560 1.61614
565 1.42269
570 1.32544
575 1.09259
580 0.86302
585 0.721258
590 0.602765
595 0.527369
600 0.773824
Ex : 468
200 0.116826
205 0.139928
210 0.168933
215 0.115303
220 0.104302
225 0.115265
230 0.110636
235 0.119922
240 0.115146
245 0.156839
250 0.136321
255 0.101495
260 0.128932
265 0.119037
270 0.137019
275 0.127972
280 0.0998695
285 0.165857
290 0.124405
295 0.101223
300 0.13313
305 0.107013
310 0.144396
315 0.122003
320 0.0912693
325 0.127911
330 0.0926991
335 0.115083
340 0.0995634
345 0.166682
350 0.123421
355 0.191505
360 0.110887
365 0.160117
370 0.156462
375 0.177765
380 0.141342
385 0.172742
390 0.135134
395 0.153735
400 0.159605
405 0.133706
410 0.175059
415 0.138881
420 0.167433
425 0.235027
430 0.200106
435 0.262782
440 0.298036
445 0.400714
450 0.670067
455 23.3627
460 369.469
465 579.168
470 138.779
475 17.4809
480 3.45217
485 1.79245
490 1.72933
495 1.81177
500 1.99712
505 1.77053
510 1.73091
515 1.77408
520 1.8263
525 1.87374
530 2.27609
535 3.32293
540 3.26242
545 2.49287
550 2.24672
555 2.08635
560 1.78147
565 1.3726
570 1.29031
575 1.11511
580 0.904943
585 0.703713
590 0.660396
595 0.562658
600 0.527188
Ex : 473
200 0.117076
205 0.109089
210 0.101341
215 0.175753
220 0.107148
225 0.138503
230 0.109153
235 0.0841367
240 0.125471
245 0.0877998
250 0.140098
255 0.152013
260 0.102361
265 0.1193
270 0.139393
275 0.123885
280 0.130666
285 0.0953218
290 0.089644
295 0.126734
300 0.0921558
305 0.136509
310 0.167028
315 0.0997776
320 0.110717
325 0.0863571
330 0.118778
335 0.139312
340 0.169468
345 0.13072
350 0.160536
355 0.137736
360 0.139228
365 0.171553
370 0.181595
375 0.161035
380 0.141498
385 0.12259
390 0.173068
395 0.186096
400 0.140439
405 0.131152
410 0.154709
415 0.153023
420 0.230645
425 0.184535
430 0.224213
435 0.228118
440 0.219295
445 0.296963
450 0.389876
455 0.753219
460 27.6141
465 411.869
470 581.484
475 134.031
480 16.7116
485 3.26609
490 1.71217
495 1.49252
500 1.72913
505 1.87154
510 1.83836
515 1.78022
520 1.65911
525 1.78424
530 1.85587
535 1.95736
540 2.82406
545 3.47993
550 2.66458
555 2.23348
560 1.95599
565 1.6849
570 1.30233
575 1.02304
580 0.831198
585 0.7004
590 0.670341
595 0.499222
600 0.418421
Ex : 478
200 0.162063
205 0.108472
210 0.174663
215 0.152558
220 0.142288
225 0.145688
230 0.147346
235 0.140152
240 0.170194
245 0.139599
250 0.110027
255 0.117361
260 0.148149
265 0.15349
270 0.123024
275 0.151791
280 0.165431
285 0.114411
290 0.156189
295 0.103895
300 0.104699
305 0.147556
310 0.110761
315 0.122548
320 0.13563
325 0.187617
330 0.13398
335 0.121256
340 0.0945373
345 0.16549
350 0.147082
355 0.186553
360 0.166306
365 0.163637
370 0.140759
375 0.174322
380 0.239409
385 0.152337
390 0.134727
395 0.184114
400 0.217594
405 0.164778
410 0.14975
415 0.192701
420 0.199318
425 0.216352
430 0.183686
435 0.241768
440 0.235664
445 0.224059
450 0.38969
455 0.457062
460 0.927789
465 30.785
470 433.331
475 600.874
480 145.732
485 18.0752
490 3.46854
495 1.67753
500 1.51067
505 1.77361
510 1.81905
515 1.7747
520 1.76239
525 1.65612
530 1.89615
535 1.8438
540 1.89345
545 2.41037
550 3.27269
555 2.77225
560 2.03326
565 1.85872
570 1.52475
575 1.11572
580 0.808769
585 0.753115
590 0.716142
595 0.599257
600 0.195236
Ex : 483
200 0.146777
205 0.15211
210 0.128122
215 0.100549
220 0.163388
225 0.0916276
230 0.114179
235 0.145106
240 0.181705
245 0.111106
250 0.12704
255 0.14189
260 0.117406
265 0.132389
270 0.191937
275 0.159433
280 0.177398
285 0.122997
290 0.205694
295 0.140609
300 0.160973
305 0.114683
310 0.174078
315 0.131223
320 0.184422
325 0.110818
330 0.202223
335 0.164932
340 0.11864
345 0.196439
350 0.129746
355 0.139972
360 0.165184
365 0.165201
370 0.133084
375 0.237558
380 0.204866
385 0.187697
390 0.186423
395 0.217275
400 0.194818
405 0.13918
410 0.168629
415 0.154333
420 0.183381
425 0.140637
430 0.200148
435 0.191717
440 0.219721
445 0.288608
450 0.293417
455 0.428999
460 0.570301
465 0.908764
470 24.4896
475 440.926
480 665.011
485 157.677
490 19.5145
495 3.75627
500 1.76752
505 1.44304
510 1.57164
515 1.76616
520 1.6892
525 1.82111
530 1.78886
535 1.77913
540 1.98556
545 2.0454
550 2.12203
555 2.86926
560 3.02565
565 2.18208
570 1.63787
575 1.39383
580 1.10618
585 0.873748
590 0.58797
595 0.512587
600 1.30084
Ex : 488
200 0.13028
205 0.188687
210 0.145164
215 0.178033
220 0.149193
225 0.141236
230 0.177245
235 0.172306
240 0.164127
245 0.145476
250 0.121443
255 0.115519
260 0.212729
265 0.181369
270 0.183971
275 0.157827
280 0.130288
285 0.154719
290 0.169488
295 0.181926
300 0.189697
305 0.148607
310 0.201361
315 0.190336
320 0.148388
325 0.173346
330 0.142272
335 0.145281
340 0.190328
345 0.135579
350 0.18048
355 0.145603
360 0.231765
365 0.230107
370 0.157734
375 0.152419
380 0.138969
385 0.183402
390 0.157902
395 0.203883
400 0.154394
405 0.148892
410 0.200796
415 0.194242
420 0.163102
425 0.209171
430 0.252612
435 0.291032
440 0.24923
445 0.307223
450 0.3035
455 0.239451
460 0.419523
465 0.643135
470 0.955553
475 31.5925
480 488.113
485 674.286
490 158.463
495 19.5899
500 3.58149
505 1.65905
510 1.35264
515 1.72349
520 1.68649
525 1.78486
530 1.91118
535 2.00592
540 2.03377
545 2.23686
550 1.97988
555 2.01291
560 2.60588
565 2.71539
570 2.15675
575 1.45685
580 1.23015
585 1.13944
590 0.823983
595 0.607694
600 0.461518
Ex : 493
200 0.125731
205 0.202251
210 0.188118
215 0.249551
220 0.167511
225 0.139107
230 0.146302
235 0.138639
240 0.14321
245 0.172319
250 0.170803
255 0.185235
260 0.149987
265 0.180217
270 0.144069
275 0.123643
280 0.133572
285 0.130642
290 0.23678
295 0.16837
300 0.159421
305 0.14633
310 0.176381
315 0.134622
320 0.141563
325 0.161437
330 0.116461
335 0.116577
340 0.107757
345 0.171683
350 0.145291
355 0.184022
360 0.218322
365 0.181631
370 0.204815
375 0.140818
380 0.193169
385 0.17014
390 0.205159
395 0.164737
400 0.244774
405 0.184573
410 0.21672
415 0.182982
420 0.202693
425 0.180277
430 0.161542
435 0.193546
440 0.253603
445 0.269724
450 0.2478
455 0.274442
460 0.317703
465 0.480383
470 0.613079
475 0.901606
480 29.8005
485 503.4
490 752.129
495 170.692
500 20.976
505 3.71851
510 1.84537
515 1.50188
520 1.58682
525 1.93665
530 2.0299
535 2.04324
540 2.08927
545 2.18433
550 2.12176
555 2.01658
560 1.94365
565 1.84132
570 2.46266
575 2.15546
580 1.40772
585 0.984589
590 0.863694
595 0.629201
600 0.511346
Ex : 498
200 0.125968
205 0.221948
210 0.160056
215 0.153173
220 0.187313
225 0.221543
230 0.195945
235 0.145219
240 0.209576
245 0.181491
250 0.195096
255 0.158908
260 0.161139
265 0.152095
270 0.267683
275 0.138288
280 0.12462
285 0.101253
290 0.141364
295 0.144118
300 0.157098
305 0.17928
310 0.128007
315 0.167732
320 0.165737
325 0.169795
330 0.168921
335 0.196606
340 0.200374
345 0.115775
350 0.254301
355 0.234862
360 0.173729
365 0.142964
370 0.135791
375 0.183103
380 0.137641
385 0.216976
390 0.155671
395 0.183301
400 0.193562
405 0.205688
410 0.178911
415 0.215456
420 0.320245
425 0.179885
430 0.220659
435 0.219788
440 0.339279
445 0.226777
450 0.252769
455 0.33539
460 0.360738
465 0.308398
470 0.501093
475 0.66513
480 0.953383
485 36.8094
490 545.505
495 742.62
500 169.799
505 21.0125
510 3.73158
515 1.68765
520 1.61198
525 1.7191
530 1.92659
535 2.11735
540 2.12392
545 2.2136
550 2.20753
555 2.12729
560 1.9371
565 1.67959
570 1.70684
575 1.85837
580 1.92106
585 1.12391
590 0.893008
595 0.713798
600 0.619541
Ex : 503
200 0.207446
205 0.228007
210 0.167829
215 0.179412
220 0.184132
225 0.124998
230 0.165186
235 0.150248
240 0.198281
245 0.198157
250 0.251012
255 0.194733
260 0.21923
265 0.170236
270 0.182991
275 0.169476
280 0.174124
285 0.189989
290 0.184066
295 0.223744
300 0.205328
305 0.160021
310 0.191728
315 0.265637
320 0.265912
325 0.186522
330 0.229649
335 0.162798
340 0.241818
345 0.192236
350 0.195643
355 0.190382
360 0.242233
365 0.182345
370 0.239492
375 0.239182
380 0.224967
385 0.170716
390 0.212499
395 0.18224
400 0.14856
405 0.247537
410 0.169233
415 0.26136
420 0.224449
425 0.218709
430 0.248708
435 0.187967
440 0.19912
445 0.195029
450 0.285298
455 0.311385
460 0.303669
465 0.401391
470 0.451853
475 0.504353
480 0.6712
485 1.01703
490 33.2027
495 536.774
500 749.332
505 175.706
510 21.6826
515 3.83328
520 2.00254
525 1.59176
530 1.86505
535 2.20052
540 2.43517
545 2.47383
550 2.4016
555 2.16471
560 1.91556
565 1.86047
570 1.42926
575 1.29247
580 1.34009
585 1.35688
590 1.03275
595 0.678429
600 0.634021
Ex : 508
200 0.152964
205 0.212873
210 0.190582
215 0.191252
220 0.217417
225 0.246533
230 0.199291
235 0.188465
240 0.14831
245 0.15654
250 0.209569
255 0.151477
260 0.172635
265 0.155932
270 0.207541
275 0.343633
280 0.220543
285 0.246358
290 0.205508
295 0.253034
300 0.129182
305 0.160503
310 0.201263
315 0.226048
320 0.261127
325 0.239522
330 0.179552
335 0.187896
340 0.185701
345 0.196252
350 0.239049
355 0.172822
360 0.223065
365 0.209073
370 0.217247
375 0.215275
380 0.202942
385 0.256733
390 0.238915
395 0.234914
400 0.267816
405 0.319849
410 0.170536
415 0.20167
420 0.248075
425 0.205105
430 0.205757
435 0.234304
440 0.240323
445 0.242065
450 0.293262
455 0.315681
460 0.313748
465 0.297009
470 0.306738
475 0.399994
480 0.442454
485 0.733303
490 1.02328
495 35.9429
500 549.093
505 768.109
510 184.471
515 22.7311
520 4.07864
525 2.17401
530 2.04486
535 2.02193
540 2.49278
545 2.55492
550 2.44615
555 2.33095
560 2.19589
565 1.91543
570 1.52207
575 1.34765
580 1.09764
585 0.94542
590 1.22506
595 1.01434
600 1.98763
Ex : 513
200 0.229169
205 0.154613
210 0.185705
215 0.176181
220 0.23396
225 0.166226
230 0.158085
235 0.191101
240 0.211711
245 0.197869
250 0.181798
255 0.173239
260 0.146797
265 0.191939
270 0.199601
275 0.179956
280 0.182092
285 0.146215
290 0.205557
295 0.214185
300 0.14916
305 0.217273
310 0.246947
315 0.142998
320 0.209464
325 0.216761
330 0.269927
335 0.22334
340 0.249725
345 0.226769
350 0.255514
355 0.231844
360 0.191759
365 0.199841
370 0.205511
375 0.18043
380 0.172945
385 0.175209
390 0.190204
395 0.273562
400 0.250526
405 0.28161
410 0.162109
415 0.240822
420 0.266564
425 0.275281
430 0.256245
435 0.256486
440 0.226675
445 0.288854
450 0.240891
455 0.226252
460 0.235345
465 0.30784
470 0.394849
475 0.262013
480 0.437822
485 0.527595
490 0.749737
495 0.922071
500 34.8819
505 551.721
510 799.795
515 199.333
520 24.5848
525 4.37299
530 2.28787
535 2.40278
540 2.66737
545 2.84771
550 3.10224
555 2.88496
560 2.68665
565 1.95937
570 1.58091
575 1.37395
580 1.20109
585 0.883373
590 0.805529
595 0.882643
600 0.87847
Ex : 518
200 0.185105
205 0.20084
210 0.161675
215 0.187837
220 0.229216
225 0.207262
230 0.190717
235 0.135397
240 0.218462
245 0.159746
250 0.259917
255 0.153383
260 0.177959
265 0.188901
270 0.133224
275 0.164155
280 0.163392
285 0.177794
290 0.185582
295 0.159681
300 0.134007
305 0.242827
310 0.215176
315 0.180011
320 0.233402
325 0.204925
330 0.189818
335 0.22506
340 0.211932
345 0.291485
350 0.277442
355 0.224773
360 0.237229
365 0.224398
370 0.158895
375 0.208368
380 0.241011
385 0.182361
390 0.181117
395 0.223945
400 0.161054
405 0.252712
410 0.230983
415 0.1726
420 0.191303
425 0.311535
430 0.188775
435 0.223661
440 0.32381
445 0.266412
450 0.276297
455 0.286387
460 0.338857
465 0.31342
470 0.254416
475 0.32867
480 0.309663
485 0.563092
490 0.527897
495 0.789017
500 1.12468
505 34.9091
510 545.183
515 833.109
520 202.99
525 25.244
530 4.80551
535 2.83794
540 3.0319
545 3.04598
550 3.34942
555 3.35007
560 2.88621
565 2.46368
570 1.96089
575 1.55429
580 1.27708
585 0.990689
590 0.842576
595 0.591324
600 0.854549
Ex : 523
200 0.167414
205 0.142693
210 0.172516
215 0.175897
220 0.216424
225 0.222334
230 0.213751
235 0.231711
240 0.242059
245 0.24823
250 0.219899
255 0.212666
260 0.189858
265 0.196274
270 0.251267
275 0.206422
280 0.23254
285 0.208328
290 0.268184
295 0.332645
300 0.236776
305 0.249732
310 0.16207
315 0.166511
320 0.234747
325 0.177834
330 0.178253
335 0.19245
340 0.199352
345 0.169228
350 0.228621
355 0.239146
360 0.25544
365 0.234224
370 0.313577
375 0.264304
380 0.253494
385 0.21838
390 0.272408
395 0.198301
400 0.20669
405 0.197705
410 0.269674
415 0.287727
420 0.234496
425 0.210296
430 0.258245
435 0.258863
440 0.175419
445 0.26215
450 0.259915
455 0.214532
460 0.314044
465 0.194161
470 0.274006
475 0.22738
480 0.329804
485 0.343435
490 0.437994
495 0.562863
500 0.753763
505 1.10148
510 32.2665
515 539.496
520 829.01
525 213.452
530 26.7283
535 5.92491
540 3.91689
545 3.91051
550 3.94309
555 3.80227
560 3.29997
565 2.98116
570 2.40103
575 1.76362
580 1.33375
585 1.13531
590 0.876528
595 0.655561
600 2.13656
Ex : 528
200 0.148166
205 0.236891
210 0.197749
215 0.175458
220 0.189076
225 0.203561
230 0.179508
235 0.277761
240 0.206259
245 0.270812
250 0.251611
255 0.272338
260 0.349432
265 0.255609
270 0.272079
275 0.264549
280 0.244781
285 0.280978
290 0.20205
295 0.172151
300 0.198087
305 0.17656
310 0.21063
315 0.150383
320 0.197404
325 0.228143
330 0.17189
335 0.262777
340 0.242007
345 0.225565
350 0.212277
355 0.257208
360 0.199292
365 0.281286
370 0.184911
375 0.178643
380 0.280798
385 0.21464
390 0.263463
395 0.262227
400 0.207622
405 0.293748
410 0.264223
415 0.343848
420 0.279767
425 0.284157
430 0.210146
435 0.175754
440 0.162971
445 0.257518
450 0.224486
455 0.278002
460 0.257144
465 0.306099
470 0.313974
475 0.261741
480 0.277417
485 0.282588
490 0.415451
495 0.557647
500 0.505637
505 0.68376
510 1.05775
515 30.5437
520 532.811
525 801.206
530 202.074
535 26.4472
540 6.68997
545 4.85831
550 4.51845
555 4.01517
560 3.74038
565 3.1173
570 2.54428
575 1.88768
580 1.36308
585 1.08324
590 0.952111
595 0.889187
600 1.17985
Ex : 533
200 0.254846
205 0.17543
210 0.181081
215 0.172204
220 0.175906
225 0.252102
230 0.258336
235 0.297625
240 0.23421
245 0.209185
250 0.250131
255 0.268906
260 0.258784
265 0.226208
270 0.202825
275 0.167495
280 0.249268
285 0.220545
290 0.216884
295 0.17646
300 0.252815
305 0.2756
310 0.247887
315 0.188786
320 0.24141
325 0.209415
330 0.214199
335 0.164831
340 0.276405
345 0.265651
350 0.225459
355 0.236295
360 0.195823
365 0.235548
370 0.203777
375 0.217762
380 0.178397
385 0.214298
390 0.312897
395 0.293868
400 0.263707
405 0.246341
410 0.199653
415 0.18966
420 0.197007
425 0.204935
430 0.318272
435 0.184645
440 0.206877
445 0.355742
450 0.221912
455 0.278102
460 0.311777
465 0.363835
470 0.400823
475 0.281087
480 0.244952
485 0.318012
490 0.377097
495 0.347821
500 0.360571
505 0.622592
510 0.735362
515 1.09251
520 31.6611
525 531.659
530 838.961
535 213.984
540 28.5603
545 7.28545
550 5.08024
555 4.24304
560 3.5348
565 3.22764
570 2.58992
575 2.04498
580 1.60685
585 1.11739
590 0.959948
595 0.772853
600 1.13274
Ex : 538
200 0.252002
205 0.237879
210 0.252728
215 0.217405
220 0.235108
225 0.169482
230 0.158361
235 0.208293
240 0.262954
245 0.223531
250 0.235072
255 0.274537
260 0.213154
265 0.190802
270 0.220729
275 0.262686
280 0.301347
285 0.301311
290 0.263938
295 0.250576
300 0.161047
305 0.316465
310 0.235524
315 0.222742
320 0.190442
325 0.181431
330 0.206296
335 0.178507
340 0.208063
345 0.254795
350 0.142614
355 0.217239
360 0.284078
365 0.199791
370 0.259786
375 0.280226
380 0.264838
385 0.167485
390 0.190356
395 0.240499
400 0.219576
405 0.236499
410 0.24343
415 0.301871
420 0.2879
425 0.245451
430 0.178062
435 0.357233
440 0.275411
445 0.202991
450 0.270396
455 0.335103
460 0.315982
465 0.196918
470 0.385825
475 0.298937
480 0.399101
485 0.295732
490 0.296108
495 0.320756
500 0.482838
505 0.500169
510 0.470695
515 0.71694
520 1.24363
525 26.895
530 490.381
535 799.41
540 215.826
545 28.9645
550 6.9244
555 4.13269
560 3.25994
565 2.55009
570 2.18377
575 1.75942
580 1.51435
585 1.01191
590 0.877243
595 0.696057
600 0.951042
Ex : 543
200 0.243204
205 0.237678
210 0.17053
215 0.272539
220 0.230495
225 0.217334
230 0.198427
235 0.225313
240 0.209013
245 0.265003
250 0.197482
255 0.365118
260 0.241075
265 0.286339
270 0.212735
275 0.160175
280 0.223756
285 0.210493
290 0.218298
295 0.220085
300 0.252068
305 0.26788
310 0.260927
315 0.193774
320 0.250836
325 0.358869
330 0.278424
335 0.226147
340 0.208936
345 0.244762
350 0.215692
355 0.283804
360 0.368038
365 0.200005
370 0.241788
375 0.220504
380 0.258641
385 0.234578
390 0.211052
395 0.24539
400 0.295849
405 0.330693
410 0.369898
415 0.309006
420 0.253966
425 0.258727
430 0.281088
435 0.275832
440 0.240536
445 0.265252
450 0.240354
455 0.205699
460 0.241618
465 0.38167
470 0.355878
475 0.252765
480 0.28013
485 0.299729
490 0.426649
495 0.388807
500 0.484919
505 0.505738
510 0.458107
515 0.666766
520 0.898125
525 1.55384
530 25.0343
535 477.39
540 809.794
545 223.456
550 29.1951
555 5.85614
560 2.84229
565 2.25142
570 1.63631
575 1.2552
580 1.01097
585 1.04344
590 0.96612
595 0.615655
600 1.04043
Ex : 548
200 0.233668
205 0.215487
210 0.212659
215 0.238912
220 0.210716
225 0.354891
230 0.265538
235 0.193315
240 0.181418
245 0.293772
250 0.234188
255 0.275334
260 0.269546
265 0.227027
270 0.223784
275 0.268986
280 0.24814
285 0.272092
290 0.214672
295 0.27534
300 0.253765
305 0.231708
310 0.19492
315 0.303081
320 0.235171
325 0.217498
330 0.179827
335 0.225916
340 0.236895
345 0.295798
350 0.260248
355 0.24327
360 0.231549
365 0.250944
370 0.26089
375 0.200661
380 0.18252
385 0.258423
390 0.227434
395 0.21676
400 0.323945
405 0.235842
410 0.25113
415 0.307716
420 0.261098
425 0.326528
430 0.271565
435 0.263386
440 0.263867
445 0.20117
450 0.304011
455 0.30133
460 0.256599
465 0.269415
470 0.243581
475 0.236159
480 0.373376
485 0.297507
490 0.274916
495 0.287996
500 0.353397
505 0.338399
510 0.523346
515 0.474322
520 0.709556
525 0.937781
530 1.2648
535 29.2953
540 490.909
545 811.084
550 225.43
555 28.2881
560 5.06997
565 2.06406
570 1.47007
575 1.25724
580 0.824428
585 0.868198
590 0.710686
595 0.581893
600 0.399184
Ex : 553
200 0.21035
205 0.143303
210 0.214187
215 0.215142
220 0.165304
225 0.272226
230 0.204971
235 0.224458
240 0.25064
245 0.307524
250 0.243897
255 0.157415
260 0.222345
265 0.231492
270 0.196018
275 0.379664
280 0.32789
285 0.249421
290 0.237071
295 0.277476
300 0.266722
305 0.266847
310 0.227787
315 0.274428
320 0.271773
325 0.182787
330 0.249555
335 0.213874
340 0.235589
345 0.234732
350 0.221669
355 0.145946
360 0.248242
365 0.203169
370 0.264755
375 0.289398
380 0.300709
385 0.242524
390 0.256426
395 0.258343
400 0.230405
405 0.311275
410 0.280838
415 0.233915
420 0.181283
425 0.263822
430 0.266183
435 0.293244
440 0.194691
445 0.30005
450 0.201973
455 0.296288
460 0.24626
465 0.300827
470 0.303272
475 0.244971
480 0.305097
485 0.255046
490 0.284774
495 0.292695
500 0.255575
505 0.324359
510 0.343196
515 0.467927
520 0.457552
525 0.646216
530 0.906142
535 1.5189
540 24.0546
545 473.213
550 830.109
555 231.876
560 28.3197
565 4.66676
570 1.51274
575 1.1081
580 0.669396
585 0.683017
590 0.537405
595 0.515183
600 0.331304
Ex : 558
200 0.232685
205 0.223556
210 0.258542
215 0.310649
220 0.255254
225 0.246498
230 0.170802
235 0.273927
240 0.255818
245 0.287684
250 0.253804
255 0.309279
260 0.308408
265 0.256196
270 0.183835
275 0.223887
280 0.280321
285 0.197782
290 0.271768
295 0.234718
300 0.294569
305 0.23205
310 0.219699
315 0.36005
320 0.260362
325 0.249427
330 0.25863
335 0.30674
340 0.265921
345 0.336268
350 0.204583
355 0.244735
360 0.174514
365 0.252684
370 0.258257
375 0.322253
380 0.26019
385 0.263686
390 0.255879
395 0.221445
400 0.234514
405 0.236804
410 0.20068
415 0.320474
420 0.206684
425 0.295036
430 0.231029
435 0.270858
440 0.289831
445 0.338204
450 0.343967
455 0.303203
460 0.276054
465 0.295236
470 0.340246
475 0.281454
480 0.2894
485 0.307107
490 0.206508
495 0.491129
500 0.271898
505 0.34261
510 0.366265
515 0.385135
520 0.422595
525 0.518607
530 0.65129
535 0.882378
540 1.17365
545 22.8141
550 448.281
555 765.495
560 214.508
565 26.0399
570 3.89457
575 1.31369
580 0.76446
585 0.52704
590 0.569436
595 0.5263
600 0.454946
Ex : 563
200 0.295724
205 0.3267
210 0.209956
215 0.320673
220 0.275645
225 0.19098
230 0.205682
235 0.227311
240 0.257644
245 0.208029
250 0.222328
255 0.25473
260 0.277002
265 0.33558
270 0.242472
275 0.22835
280 0.252103
285 0.368128
290 0.330541
295 0.277447
300 0.285898
305 0.257112
310 0.335749
315 0.306576
320 0.306416
325 0.242295
330 0.242646
335 0.245846
340 0.229672
345 0.213854
350 0.365928
355 0.297256
360 0.247118
365 0.225812
370 0.306691
375 0.235367
380 0.248701
385 0.331945
390 0.232592
395 0.359613
400 0.222439
405 0.283844
410 0.293027
415 0.47738
420 0.284908
425 0.232369
430 0.240159
435 0.276928
440 0.335013
445 0.203321
450 0.321077
455 0.307366
460 0.299529
465 0.316242
470 0.330546
475 0.290357
480 0.294082
485 0.364639
490 0.302151
495 0.332184
500 0.320649
505 0.375809
510 0.393427
515 0.291861
520 0.326448
525 0.456205
530 0.527913
535 0.494123
540 0.666831
545 0.93203
550 23.4092
555 423.132
560 741.116
565 215.518
570 25.9811
575 3.71028
580 0.969746
585 0.676798
590 0.456476
595 0.487761
600 0.158805
Ex : 568
200 0.256579
205 0.262992
210 0.311129
215 0.262788
220 0.245648
225 0.200985
230 0.140411
235 0.366016
240 0.232171
245 0.27235
250 0.312377
255 0.351048
260 0.350962
265 0.224558
270 0.251644
275 0.395933
280 0.382036
285 0.300573
290 0.292526
295 0.287522
300 0.258595
305 0.200184
310 0.229145
315 0.223591
320 0.253821
325 0.215583
330 0.286974
335 0.223987
340 0.201217
345 0.296228
350 0.368364
355 0.289858
360 0.247307
365 0.294361
370 0.216504
375 0.20251
380 0.343269
385 0.309163
390 0.385353
395 0.386761
400 0.261036
405 0.353652
410 0.44188
415 0.271492
420 0.319219
425 0.320505
430 0.305614
435 0.231636
440 0.232597
445 0.365226
450 0.414338
455 0.268701
460 0.240916
465 0.323502
470 0.295507
475 0.254043
480 0.31811
485 0.359288
490 0.360342
495 0.26005
500 0.315818
505 0.320667
510 0.299942
515 0.477711
520 0.290025
525 0.346243
530 0.403228
535 0.400203
540 0.449828
545 0.721583
550 0.904674
555 16.2103
560 399.525
565 738.636
570 224.653
575 27.21
580 3.71631
585 0.971007
590 0.552503
595 0.506655
600 0.236047
Ex : 573
200 0.294785
205 0.231725
210 0.147709
215 0.181654
220 0.313116
225 0.295245
230 0.356801
235 0.295662
240 0.237948
245 0.330068
250 0.308372
255 0.214272
260 0.242443
265 0.231632
270 0.363569
275 0.260455
280 0.215497
285 0.172861
290 0.326314
295 0.344886
300 0.303857
305 0.329371
310 0.28485
315 0.361738
320 0.362295
325 0.229356
330 0.2792
335 0.272194
340 0.31743
345 0.274999
350 0.344949
355 0.214766
360 0.230754
365 0.358024
370 0.232255
375 0.34798
380 0.333777
385 0.355521
390 0.328877
395 0.306461
400 0.251445
405 0.275736
410 0.277686
415 0.253784
420 0.231866
425 0.236848
430 0.342352
435 0.370791
440 0.278253
445 0.345081
450 0.224979
455 0.263501
460 0.249877
465 0.380839
470 0.360218
475 0.245933
480 0.302874
485 0.391488
490 0.322768
495 0.394552
500 0.315608
505 0.418703
510 0.335083
515 0.286268
520 0.286459
525 0.229219
530 0.373479
535 0.396333
540 0.484817
545 0.523809
550 0.730111
555 0.770989
560 14.4893
565 333.804
570 656.146
575 210.784
580 25.6243
585 3.453
590 0.894913
595 0.437926
600 0.0498343
Ex : 578
200 0.238845
205 0.261801
210 0.265444
215 0.374063
220 0.334978
225 0.380609
230 0.400235
235 0.365153
240 0.231153
245 0.305583
250 0.391285
255 0.230586
260 0.310827
265 0.221251
270 0.226713
275 0.250555
280 0.270138
285 0.348996
290 0.350359
295 0.233958
300 0.185295
305 0.29691
310 0.296119
315 0.23968
320 0.176305
325 0.320695
330 0.206375
335 0.179218
340 0.272477
345 0.353104
350 0.344416
355 0.209451
360 0.317352
365 0.245772
370 0.290707
375 0.259606
380 0.292922
385 0.233125
390 0.24056
395 0.312892
400 0.294695
405 0.232087
410 0.294629
415 0.422359
420 0.321267
425 0.334805
430 0.227969
435 0.286153
440 0.300445
445 0.378414
450 0.335755
455 0.252219
460 0.249746
465 0.262273
470 0.242389
475 0.32423
480 0.311346
485 0.324574
490 0.307065
495 0.38091
500 0.401093
505 0.362623
510 0.28632
515 0.334365
520 0.263496
525 0.480708
530 0.358347
535 0.424921
540 0.394233
545 0.516991
550 0.659557
555 0.605853
560 0.815837
565 12.4115
570 304.825
575 588.053
580 180.994
585 21.7452
590 2.97314
595 0.745664
600 0.543027
Ex : 583
200 0.290645
205 0.206901
210 0.148714
215 0.330233
220 0.197708
225 0.439947
230 0.241518
235 0.248364
240 0.256521
245 0.263993
250 0.208265
255 0.249157
260 0.198966
265 0.180467
270 0.323586
275 0.284094
280 0.273344
285 0.30279
290 0.349845
295 0.281367
300 0.27473
305 0.14299
310 0.321419
315 0.173427
320 0.188955
325 0.202877
330 0.233293
335 0.362202
340 0.267827
345 0.255716
350 0.230719
355 0.308867
360 0.300786
365 0.240757
370 0.380752
375 0.310456
380 0.311923
385 0.272728
390 0.258785
395 0.274916
400 0.395578
405 0.370608
410 0.361469
415 0.335643
420 0.266673
425 0.296207
430 0.242341
435 0.341404
440 0.258124
445 0.287475
450 0.243935
455 0.237563
460 0.2997
465 0.273301
470 0.270206
475 0.32491
480 0.261689
485 0.319079
490 0.31802
495 0.252486
500 0.225038
505 0.298047
510 0.239979
515 0.36842
520 0.267904
525 0.296675
530 0.320522
535 0.411767
540 0.287194
545 0.384546
550 0.55733
555 0.579829
560 0.690299
565 0.777527
570 10.6414
575 265.088
580 500.386
585 150.921
590 18.1528
595 2.48342
600 0.675779
Ex : 588
200 0.223333
205 0.256631
210 0.225421
215 0.45574
220 0.287199
225 0.270512
230 0.293046
235 0.243388
240 0.208391
245 0.195506
250 0.346312
255 0.231942
260 0.337742
265 0.272514
270 0.297659
275 0.385804
280 0.245257
285 0.298425
290 0.172091
295 0.226483
300 0.293187
305 0.24674
310 0.218056
315 0.289719
320 0.19618
325 0.218693
330 0.242643
335 0.273857
340 0.2458
345 0.204385
350 0.309636
355 0.371398
360 0.28868
365 0.245281
370 0.305244
375 0.19021
380 0.2289
385 0.3215
390 0.262042
395 0.232389
400 0.263473
405 0.28842
410 0.224478
415 0.26865
420 0.306691
425 0.229871
430 0.310949
435 0.2896
440 0.429083
445 0.266598
450 0.249704
455 0.321761
460 0.370857
465 0.357904
470 0.390029
475 0.212699
480 0.381527
485 0.312723
490 0.397733
495 0.275223
500 0.311586
505 0.275284
510 0.393463
515 0.296591
520 0.232692
525 0.329809
530 0.301354
535 0.329231
540 0.380075
545 0.419458
550 0.392024
555 0.578456
560 0.47125
565 0.623186
570 0.696273
575 9.62313
580 233.482
585 446.551
590 132.381
595 16.0263
600 2.11271
Ex : 593
200 0.265006
205 0.293883
210 0.280677
215 0.279584
220 0.252481
225 0.286847
230 0.239185
235 0.29052
240 0.233186
245 0.371215
250 0.255523
255 0.296556
260 0.30115
265 0.3858
270 0.262282
275 0.232684
280 0.337184
285 0.285078
290 0.264393
295 0.223411
300 0.247775
305 0.286973
310 0.190018
315 0.179057
320 0.53477
325 0.301683
330 0.263699
335 0.293004
340 0.19326
345 0.293666
350 0.395395
355 0.27254
360 0.311535
365 0.186978
370 0.336692
375 0.34485
380 0.33024
385 0.209523
390 0.322832
395 0.353181
400 0.315838
405 0.323636
410 0.299282
415 0.307156
420 0.358287
425 0.276985
430 0.358734
435 0.292538
440 0.32853
445 0.325007
450 0.319915
455 0.36614
460 0.374513
465 0.191811
470 0.244342
475 0.171823
480 0.361397
485 0.277841
490 0.264246
495 0.342348
500 0.278599
505 0.332022
510 0.36622
515 0.351096
520 0.217194
525 0.370387
530 0.371929
535 0.369498
540 0.306201
545 0.311703
550 0.45145
555 0.379787
560 0.351744
565 0.379263
570 0.677677
575 0.563172
580 8.70505
585 205.817
590 380.734
595 113.368
600 17.4452
Ex : 598
200 0.301873
205 0.285202
210 0.316791
215 0.274475
220 0.222855
225 0.258156
230 0.258889
235 0.329231
240 0.368487
245 0.278711
250 0.186273
255 0.217647
260 0.194803
265 0.267188
270 0.267658
275 0.304327
280 0.296167
285 0.286449
290 0.286422
295 0.273676
300 0.202455
305 0.269356
310 0.217752
315 0.27393
320 0.323351
325 0.274253
330 0.30025
335 0.303196
340 0.282012
345 0.411119
350 0.295546
355 0.283302
360 0.31314
365 0.378176
370 0.325453
375 0.418497
380 0.412167
385 0.326731
390 0.23869
395 0.261716
400 0.238311
405 0.333999
410 0.44025
415 0.368463
420 0.314234
425 0.289319
430 0.318823
435 0.434603
440 0.374559
445 0.354857
450 0.366162
455 0.322229
460 0.317483
465 0.30992
470 0.388706
475 0.300259
480 0.33847
485 0.227217
490 0.448775
495 0.334459
500 0.233005
505 0.40868
510 0.347547
515 0.316109
520 0.405153
525 0.268621
530 0.323442
535 0.29262
540 0.313524
545 0.357279
550 0.328762
555 0.320728
560 0.291984
565 0.37082
570 0.415274
575 0.548853
580 0.513986
585 7.97975
590 179.962
595 334.63
600 220.816
Ex : 603
200 0.302426
205 0.294391
210 0.263212
215 0.194338
220 0.312212
225 0.327802
230 0.206289
235 0.30706
240 0.278251
245 0.394194
250 0.218682
255 0.189508
260 0.289851
265 0.417954
270 0.233598
275 0.282628
280 0.226374
285 0.211555
290 0.372369
295 0.161432
300 0.282619
305 0.259063
310 0.251119
315 0.341787
320 0.302109
325 0.359652
330 0.294078
335 0.302663
340 0.287743
345 0.185006
350 0.338204
355 0.213068
360 0.234426
365 0.320037
370 0.490914
375 0.349396
380 0.427178
385 0.262468
390 0.276734
395 0.259642
400 0.324831
405 0.380655
410 0.310469
415 0.239745
420 0.371313
425 0.25829
430 0.171066
435 0.300604
440 0.317954
445 0.333627
450 0.363223
455 0.251531
460 0.356213
465 0.271325
470 0.229096
475 0.330032
480 0.390363
485 0.261003
490 0.330696
495 0.255112
500 0.302086
505 0.263874
510 0.273969
515 0.286806
520 0.290821
525 0.311119
530 0.370815
535 0.216223
540 0.276162
545 0.25595
550 0.483746
555 0.379832
560 0.267145
565 0.342643
570 0.549617
575 0.414855
580 0.458334
585 0.596258
590 7.03753
595 162.289
600 326.209
