File format V 1.0
ven. 13. janv. 16:39:19 2017
Operator : 
Comments : 

=============================================
SpectroFluorometer parameters
Mode : 3D measurement
Data : Fluorescence
Phospho. : Ordinary
Spectrum : Fluorescence

Scan speed : 2400 nm/mn
Response : 100 ms
PM Voltage : 700 V
Shutter : On

Lambda Ex. Start : 203
Lambda Ex. End : 603
Lambda Ex. Step : 5
Ex. Slit : 5 nm

Lambda Em. Start : 200
Lambda Em. End : 600
Lambda Em. Step : 5
Em. Slit : 5 nm

Repetition : 1
Decal lambda em : 10
=============================================
DATA
Ex : 203
200 7.53275
205 6.93811
210 5.21631
215 7.51001
220 5.98134
225 5.13172
230 4.87614
235 5.64541
240 5.36885
245 6.76385
250 5.8976
255 5.9567
260 5.87767
265 8.62797
270 5.13215
275 8.67801
280 7.23864
285 7.81095
290 7.74858
295 7.4381
300 3.65624
305 8.6733
310 5.67238
315 8.17823
320 9.34548
325 6.01603
330 8.70515
335 9.05221
340 6.06262
345 5.93229
350 4.94649
355 6.26611
360 7.61546
365 5.73088
370 4.09569
375 6.72116
380 7.16931
385 6.66556
390 5.95945
395 7.2894
400 8.95644
405 8.60733
410 6.7847
415 6.06986
420 7.43951
425 6.53602
430 5.45639
435 7.36106
440 8.83373
445 5.94976
450 8.77374
455 6.3319
460 3.64708
465 4.54165
470 6.26909
475 7.08449
480 4.33525
485 6.48327
490 8.79238
495 6.69641
500 5.02969
505 7.62506
510 6.4504
515 6.43897
520 4.73016
525 5.06553
530 5.0827
535 7.00337
540 8.63244
545 10.907
550 5.3571
555 8.40335
560 5.6058
565 5.55774
570 4.21489
575 6.07018
580 8.7832
585 6.28732
590 4.49936
595 4.42574
600 3.45765
Ex : 208
200 7.36842
205 5.40586
210 5.22588
215 6.35501
220 5.65527
225 5.02073
230 6.13495
235 8.59519
240 8.13991
245 6.24351
250 3.95354
255 4.67359
260 5.43441
265 5.86211
270 4.62574
275 5.27093
280 5.65117
285 5.78865
290 8.03987
295 7.14705
300 6.18046
305 5.12581
310 3.96444
315 6.27417
320 4.44325
325 5.51946
330 8.71148
335 6.48916
340 7.11587
345 7.2976
350 6.03742
355 4.07791
360 5.12058
365 5.91756
370 6.89339
375 4.48118
380 7.31648
385 6.74748
390 5.85623
395 7.15597
400 6.82389
405 7.60888
410 7.54617
415 4.91403
420 5.56493
425 5.86689
430 7.75321
435 5.39461
440 7.01155
445 7.08571
450 9.17326
455 7.03807
460 4.68445
465 7.34385
470 6.41382
475 5.70744
480 5.93078
485 6.58153
490 8.83405
495 9.85501
500 6.45821
505 4.80743
510 6.99001
515 7.24319
520 7.43606
525 9.22679
530 5.83464
535 7.50151
540 7.79629
545 4.3737
550 4.88633
555 5.75382
560 6.41301
565 5.19624
570 7.05631
575 6.73024
580 6.48946
585 4.82992
590 5.73918
595 5.72134
600 1.09417
Ex : 213
200 6.99083
205 7.45217
210 7.72869
215 3.50794
220 5.98483
225 4.98267
230 7.84825
235 5.03432
240 5.30207
245 4.3996
250 4.77649
255 7.09498
260 5.54303
265 5.93151
270 5.96401
275 4.43653
280 5.35383
285 8.45154
290 8.0026
295 4.03234
300 7.25176
305 7.26251
310 4.70206
315 4.80812
320 4.7297
325 5.48653
330 4.33313
335 5.36136
340 9.5363
345 4.39081
350 5.65999
355 10.4818
360 7.25522
365 6.21219
370 9.27219
375 6.19431
380 6.3711
385 7.09359
390 7.63645
395 7.991
400 7.22306
405 7.76389
410 7.59163
415 6.55697
420 8.84208
425 5.65776
430 5.38931
435 8.40785
440 7.47729
445 9.66346
450 5.63451
455 5.68324
460 4.98686
465 8.30306
470 5.31113
475 7.86816
480 7.18535
485 5.6481
490 6.535
495 6.83631
500 6.42294
505 6.69001
510 5.36053
515 5.79949
520 5.02192
525 8.39539
530 5.89278
535 6.98276
540 7.91618
545 7.80566
550 7.16857
555 6.03103
560 5.47261
565 4.27327
570 7.00297
575 5.65737
580 5.47085
585 3.72842
590 5.66566
595 5.42376
600 3.86662
Ex : 218
200 7.32
205 5.76152
210 6.69481
215 5.84354
220 6.61691
225 5.45183
230 8.99792
235 6.13789
240 5.19735
245 6.79487
250 8.48476
255 6.38726
260 10.2485
265 5.80084
270 5.59639
275 3.49505
280 8.30283
285 7.99454
290 7.22913
295 6.74265
300 5.36521
305 5.79111
310 6.42551
315 4.06045
320 5.61361
325 6.5718
330 7.38207
335 8.11331
340 5.85634
345 3.67128
350 5.55301
355 5.10415
360 6.15481
365 6.21639
370 5.54744
375 7.30683
380 6.41992
385 6.23393
390 8.77466
395 5.46206
400 5.17234
405 7.17352
410 8.66086
415 4.67093
420 7.66318
425 5.91156
430 7.46561
435 6.63595
440 5.74768
445 5.51834
450 6.20656
455 4.45737
460 9.50712
465 5.8174
470 9.09648
475 6.64247
480 5.86553
485 6.34222
490 6.92515
495 6.73153
500 5.35747
505 8.13052
510 5.55447
515 5.40863
520 7.79208
525 6.50344
530 6.28169
535 4.83726
540 5.1265
545 6.33606
550 6.32183
555 6.65204
560 8.30237
565 5.61212
570 4.47885
575 7.78152
580 7.76737
585 5.7334
590 6.03941
595 7.06476
600 0.803943
Ex : 223
200 5.19328
205 4.75575
210 3.91774
215 4.52955
220 5.74059
225 6.50069
230 8.20231
235 7.88791
240 6.42121
245 4.9721
250 6.04074
255 8.09496
260 10.527
265 5.14449
270 5.48227
275 6.59725
280 5.33138
285 4.97966
290 4.60695
295 5.23673
300 6.91207
305 3.62014
310 6.38217
315 6.02766
320 7.0629
325 4.67705
330 6.68839
335 5.1685
340 4.88624
345 7.77227
350 10.5429
355 7.53149
360 5.92052
365 6.4799
370 7.1235
375 5.85633
380 6.88141
385 6.28139
390 6.01197
395 5.08033
400 7.11617
405 7.25939
410 5.45489
415 6.19972
420 5.74432
425 5.90465
430 5.9652
435 8.74016
440 6.01764
445 6.18425
450 6.26376
455 4.87598
460 5.04078
465 4.46835
470 5.06085
475 6.00341
480 7.00528
485 5.22049
490 4.11144
495 7.0791
500 4.92471
505 6.49146
510 5.70068
515 7.69034
520 5.45961
525 6.46712
530 5.60046
535 9.57385
540 5.49304
545 5.57627
550 7.71292
555 5.13992
560 6.18177
565 4.92732
570 7.00874
575 6.8778
580 6.43885
585 7.39976
590 5.77348
595 4.27377
600 11.7116
Ex : 228
200 7.01339
205 5.03341
210 4.69034
215 7.49461
220 6.17008
225 4.19547
230 6.24341
235 5.21789
240 4.57982
245 6.3376
250 4.48005
255 5.99296
260 5.81505
265 7.29539
270 6.11737
275 4.33365
280 7.16321
285 6.69737
290 6.55148
295 5.2205
300 6.20305
305 6.7178
310 6.82519
315 4.27428
320 4.15566
325 5.14149
330 4.70495
335 4.55915
340 3.85511
345 4.33874
350 9.26873
355 7.04944
360 5.76269
365 3.95336
370 5.29344
375 7.03412
380 5.06804
385 6.35902
390 4.57804
395 5.02487
400 4.83576
405 6.67552
410 5.27301
415 5.53164
420 5.48338
425 5.67
430 7.03751
435 6.03475
440 4.85592
445 6.3166
450 7.46904
455 7.15141
460 7.93874
465 5.68443
470 4.66887
475 6.33958
480 5.74324
485 4.61367
490 5.93313
495 5.50246
500 5.66953
505 5.97333
510 6.46135
515 6.2222
520 5.88777
525 8.2727
530 8.37068
535 5.45203
540 6.73871
545 6.83565
550 5.54504
555 4.68724
560 6.35318
565 5.37178
570 7.90719
575 6.7859
580 6.07845
585 4.95465
590 6.04448
595 5.76268
600 32.5591
Ex : 233
200 3.00772
205 6.39859
210 7.60145
215 5.72461
220 5.78494
225 7.33725
230 6.51997
235 4.86844
240 5.15872
245 7.12235
250 6.57994
255 4.97169
260 3.37451
265 7.75861
270 5.14954
275 6.56965
280 4.69264
285 5.54515
290 4.50326
295 6.58513
300 4.90215
305 5.94126
310 3.07997
315 5.48901
320 3.73503
325 5.55569
330 5.67957
335 6.14447
340 6.53135
345 7.16999
350 4.1224
355 7.81
360 6.79677
365 6.13014
370 5.30725
375 6.57474
380 6.15195
385 6.19168
390 5.77709
395 7.28117
400 5.78088
405 4.82489
410 5.31818
415 3.92665
420 5.12558
425 5.46088
430 5.37632
435 6.39472
440 5.55547
445 7.81337
450 5.45735
455 6.27377
460 6.67301
465 7.07736
470 4.67595
475 6.88497
480 5.32763
485 3.61566
490 6.3077
495 5.8844
500 5.10417
505 5.89097
510 4.75538
515 5.41698
520 6.73929
525 7.06188
530 8.36393
535 4.78004
540 3.77806
545 6.01844
550 6.0883
555 6.48696
560 3.96043
565 5.1419
570 6.02793
575 4.34375
580 5.75548
585 6.59752
590 7.16437
595 7.73199
600 24.6301
Ex : 238
200 5.09712
205 4.10508
210 5.49214
215 5.4679
220 3.8282
225 5.43356
230 5.83816
235 6.13496
240 4.22977
245 4.60609
250 6.67158
255 5.50939
260 4.82036
265 5.44235
270 4.70535
275 5.12789
280 5.75713
285 3.99106
290 6.90891
295 4.29437
300 6.75076
305 5.00956
310 6.2819
315 4.01085
320 5.723
325 4.67326
330 6.58184
335 6.03375
340 5.45464
345 5.26657
350 4.62132
355 4.47061
360 5.9946
365 6.34171
370 4.98189
375 5.78176
380 4.35688
385 4.91618
390 4.81322
395 4.8272
400 5.97406
405 5.26077
410 4.40806
415 3.43038
420 4.03472
425 6.2925
430 4.09253
435 4.63533
440 5.49419
445 3.94427
450 5.46962
455 6.02827
460 4.12203
465 5.37484
470 7.61131
475 4.19573
480 5.23647
485 7.3324
490 6.51279
495 3.6586
500 6.32761
505 6.07711
510 5.70263
515 5.40426
520 5.54429
525 4.54716
530 3.55919
535 5.64199
540 5.7931
545 4.37689
550 4.50598
555 5.50282
560 4.93152
565 4.34232
570 7.07404
575 5.11425
580 4.96885
585 4.01363
590 4.51409
595 4.28172
600 0.487243
Ex : 243
200 4.68333
205 3.98886
210 4.90198
215 4.26199
220 4.03274
225 4.06299
230 3.2459
235 4.35021
240 4.25177
245 5.389
250 5.24856
255 7.0913
260 4.95915
265 4.38808
270 4.41773
275 6.25568
280 5.86638
285 4.63186
290 5.27928
295 5.49203
300 2.9863
305 4.71139
310 4.78601
315 4.61259
320 4.06412
325 5.63438
330 3.90796
335 4.379
340 4.49805
345 4.13724
350 4.06924
355 3.12452
360 4.57614
365 6.99869
370 5.49667
375 5.00944
380 4.67986
385 6.09656
390 4.73819
395 4.25388
400 4.07985
405 4.8772
410 4.62519
415 4.4546
420 4.97621
425 6.34903
430 4.45027
435 5.40524
440 3.98544
445 5.6942
450 4.9262
455 5.87218
460 3.68191
465 4.55931
470 5.44692
475 5.0712
480 5.53809
485 4.62388
490 3.96248
495 7.37508
500 5.11193
505 4.4238
510 5.22323
515 3.69326
520 4.71937
525 5.25271
530 4.79834
535 4.69009
540 4.66834
545 3.61087
550 2.83135
555 4.7926
560 4.41346
565 3.96361
570 4.52309
575 4.78592
580 3.46473
585 4.09651
590 3.09353
595 3.30328
600 5.8039
Ex : 248
200 3.27809
205 3.38968
210 5.34309
215 4.66749
220 2.84197
225 4.32895
230 4.5996
235 3.92012
240 5.23263
245 4.84561
250 2.89798
255 5.01726
260 3.62205
265 5.50596
270 3.16105
275 3.63205
280 4.117
285 7.69923
290 4.11697
295 4.73399
300 5.02512
305 3.7557
310 3.39892
315 3.09409
320 5.08512
325 3.33464
330 5.00434
335 6.01843
340 4.17061
345 2.96241
350 3.78027
355 4.13864
360 4.60072
365 4.28869
370 3.84349
375 3.13638
380 3.79528
385 4.19389
390 3.90258
395 3.81267
400 3.11553
405 4.31805
410 3.18595
415 4.98054
420 3.90142
425 5.30396
430 4.93982
435 5.28085
440 3.67156
445 4.15602
450 3.57981
455 5.84379
460 3.9401
465 5.27297
470 4.59297
475 3.0885
480 4.73703
485 7.14484
490 4.05666
495 4.6711
500 3.71801
505 4.12159
510 4.99964
515 3.73763
520 3.96257
525 2.96184
530 3.22782
535 3.55966
540 3.52627
545 4.95267
550 4.95006
555 4.03007
560 3.47628
565 4.13101
570 2.89173
575 4.09478
580 6.85505
585 4.96848
590 4.49872
595 4.74574
600 1.62318
Ex : 253
200 3.95561
205 3.24508
210 4.16215
215 3.47747
220 4.88278
225 3.72398
230 2.97813
235 4.29208
240 3.87173
245 3.3087
250 4.05448
255 3.70047
260 2.85607
265 3.3473
270 3.67641
275 2.76369
280 2.84561
285 2.98458
290 2.69996
295 3.72426
300 4.53878
305 3.75949
310 3.57021
315 3.22986
320 3.56738
325 3.33318
330 2.86453
335 2.46487
340 2.87269
345 3.54591
350 3.92076
355 3.37515
360 2.45944
365 3.27239
370 3.0731
375 3.0543
380 3.91184
385 3.61965
390 2.89802
395 3.59421
400 4.68437
405 4.04862
410 2.52114
415 3.46472
420 3.18425
425 2.52959
430 2.81741
435 3.56933
440 3.18963
445 3.66173
450 3.32972
455 3.66992
460 4.02441
465 3.1811
470 3.92927
475 4.65396
480 2.96027
485 2.6923
490 2.93709
495 3.77704
500 5.33475
505 3.23396
510 3.18301
515 3.92584
520 5.01911
525 2.91065
530 2.92592
535 3.98019
540 3.49993
545 3.73108
550 3.07279
555 3.06005
560 3.71791
565 3.58177
570 3.69547
575 2.9182
580 4.87987
585 2.9121
590 3.0471
595 3.67427
600 1.10739
Ex : 258
200 2.95619
205 1.99157
210 2.06051
215 2.2611
220 3.21545
225 2.04646
230 2.37642
235 2.44062
240 2.02054
245 2.35477
250 2.54307
255 2.51936
260 3.91318
265 3.02507
270 3.50232
275 2.45777
280 4.19681
285 2.73597
290 3.16922
295 1.94648
300 2.48279
305 3.51625
310 2.28288
315 2.14018
320 1.99039
325 2.54668
330 2.2807
335 2.09984
340 2.34042
345 3.14561
350 4.85167
355 3.71687
360 3.81351
365 2.85168
370 3.23004
375 2.73256
380 2.67359
385 3.24962
390 2.73068
395 3.77988
400 3.56232
405 2.92172
410 2.68211
415 2.46976
420 3.44026
425 4.04066
430 3.15695
435 2.48855
440 2.50626
445 2.83526
450 3.85701
455 3.28582
460 2.69867
465 1.81364
470 2.80615
475 3.16524
480 3.65033
485 2.59852
490 3.05068
495 3.53887
500 2.78677
505 2.98085
510 3.4565
515 4.34625
520 4.96905
525 2.9531
530 2.33001
535 3.44516
540 2.63069
545 2.69262
550 2.23213
555 3.66804
560 4.62429
565 2.71678
570 3.33599
575 2.43089
580 1.95566
585 3.12157
590 2.21071
595 2.37776
600 0.27058
Ex : 263
200 2.49245
205 1.93413
210 2.00374
215 2.16055
220 2.46137
225 2.19787
230 1.57181
235 1.82252
240 2.79147
245 2.39094
250 1.59318
255 2.17079
260 1.92478
265 1.97355
270 2.62271
275 2.76921
280 1.94746
285 2.64086
290 1.60175
295 1.86551
300 2.10449
305 1.39252
310 2.92665
315 1.48346
320 2.70082
325 2.59181
330 2.34324
335 1.96384
340 2.75469
345 3.33626
350 2.32179
355 1.92019
360 2.35639
365 2.01837
370 2.57111
375 3.39899
380 2.51396
385 2.86093
390 1.54787
395 2.6754
400 2.65351
405 3.57388
410 4.16681
415 2.54198
420 3.52204
425 2.87363
430 2.95264
435 3.08582
440 2.74197
445 2.59258
450 2.24581
455 2.91555
460 2.71032
465 2.35633
470 2.3765
475 2.2547
480 2.21701
485 1.71825
490 2.10588
495 2.11329
500 1.80479
505 2.15179
510 2.66962
515 1.89812
520 2.77599
525 3.18479
530 2.50385
535 2.15258
540 2.23127
545 2.72321
550 2.3514
555 1.75719
560 2.12601
565 2.02793
570 1.79336
575 1.50804
580 2.95156
585 1.83518
590 2.07297
595 1.74644
600 8.61767
Ex : 268
200 0.86165
205 1.47017
210 2.04733
215 1.54202
220 2.31241
225 1.42086
230 1.50375
235 2.09718
240 2.84809
245 2.32245
250 2.06692
255 1.71477
260 1.11555
265 1.55926
270 2.44169
275 1.44249
280 1.37719
285 1.38852
290 1.83725
295 2.00958
300 1.81498
305 1.22491
310 1.75528
315 1.07147
320 1.29664
325 1.73148
330 1.99742
335 1.78391
340 1.31265
345 2.01536
350 2.89666
355 1.93111
360 2.07902
365 1.6768
370 2.13012
375 1.49967
380 2.02126
385 1.83062
390 1.27851
395 2.28788
400 2.22775
405 1.40643
410 1.80133
415 3.78318
420 1.98164
425 1.64563
430 1.85125
435 2.73294
440 2.28143
445 2.62942
450 2.24715
455 1.99125
460 2.33391
465 2.30582
470 2.35427
475 2.07069
480 1.77275
485 1.75008
490 1.98924
495 2.30683
500 1.75818
505 2.04031
510 2.93825
515 2.18117
520 1.17025
525 1.98977
530 2.56098
535 2.67702
540 2.41814
545 1.74132
550 2.28691
555 1.63424
560 2.11738
565 1.8569
570 1.58803
575 2.07157
580 1.20802
585 1.94017
590 1.27049
595 2.22944
600 0.486914
Ex : 273
200 1.50893
205 1.12492
210 1.27953
215 1.12407
220 1.31487
225 1.24953
230 1.64695
235 1.16582
240 1.19059
245 1.22089
250 1.07963
255 1.66079
260 2.16604
265 1.76773
270 1.71491
275 1.07604
280 1.7258
285 1.19885
290 1.45475
295 1.58044
300 1.70072
305 1.33065
310 1.47059
315 1.0963
320 1.53426
325 1.32648
330 1.39949
335 1.45071
340 1.23916
345 1.55482
350 1.46723
355 1.44278
360 2.14657
365 1.51574
370 1.71258
375 1.62117
380 1.86898
385 1.85862
390 1.78845
395 1.76688
400 1.65016
405 1.43989
410 1.45011
415 1.57152
420 1.82783
425 1.73478
430 1.51457
435 2.01854
440 1.31343
445 1.76889
450 1.57585
455 1.88937
460 1.48678
465 1.34257
470 1.3722
475 1.66154
480 0.922274
485 1.8738
490 1.61498
495 1.62743
500 1.23163
505 1.41895
510 1.44775
515 1.22624
520 1.48007
525 1.40609
530 2.09387
535 2.03478
540 2.22111
545 2.59372
550 2.49838
555 2.32141
560 1.72007
565 1.2915
570 1.21416
575 1.93991
580 1.31652
585 1.25423
590 1.04664
595 1.58757
600 0.180659
Ex : 278
200 1.39791
205 1.50044
210 1.29602
215 0.772256
220 1.48419
225 1.01991
230 1.25431
235 1.28954
240 1.17172
245 0.82964
250 1.03582
255 0.941719
260 1.71094
265 1.17649
270 1.57809
275 1.43827
280 1.14461
285 1.05727
290 0.927743
295 0.889579
300 1.31389
305 0.934024
310 0.83645
315 0.899804
320 1.10891
325 1.44336
330 1.00247
335 0.912992
340 0.944485
345 1.36416
350 1.58708
355 1.48371
360 1.61353
365 1.75554
370 1.61916
375 1.46644
380 1.42764
385 1.48044
390 1.37289
395 1.77212
400 1.4848
405 0.923475
410 1.3606
415 1.19608
420 1.46325
425 1.42428
430 1.29831
435 1.83721
440 1.79354
445 1.99419
450 1.20711
455 1.07153
460 1.26219
465 1.6593
470 1.20471
475 1.0534
480 0.871803
485 1.61213
490 1.26009
495 1.72674
500 1.309
505 1.38241
510 1.63456
515 1.46953
520 1.2439
525 1.2668
530 1.74566
535 1.43614
540 1.43568
545 1.35131
550 1.63029
555 1.46519
560 1.22826
565 1.2672
570 0.978883
575 1.08075
580 1.08708
585 0.933614
590 0.993169
595 0.871071
600 0.0991245
Ex : 283
200 1.2315
205 0.974321
210 1.00384
215 0.840199
220 0.714178
225 0.925506
230 0.856917
235 0.844944
240 0.948671
245 0.87485
250 0.811185
255 0.859462
260 1.05185
265 1.09906
270 0.964791
275 0.902419
280 1.30886
285 0.665391
290 0.727159
295 0.902229
300 1.26886
305 0.806455
310 0.895009
315 0.82417
320 1.02202
325 0.764966
330 0.778155
335 0.781781
340 0.826138
345 0.905453
350 1.34911
355 1.5541
360 1.33362
365 0.988629
370 0.953635
375 1.20179
380 0.964604
385 1.06738
390 1.22983
395 1.22615
400 1.44356
405 1.53131
410 1.43565
415 1.36437
420 1.34937
425 1.37269
430 1.57732
435 1.30292
440 1.30179
445 1.19469
450 1.02155
455 1.34386
460 1.18337
465 0.866507
470 1.37936
475 0.959207
480 1.04918
485 1.58417
490 1.16073
495 1.28239
500 1.15969
505 0.872712
510 0.918286
515 1.26147
520 0.930401
525 1.00484
530 1.03473
535 1.0194
540 0.895158
545 1.07121
550 1.31177
555 1.25748
560 1.5659
565 1.39351
570 1.50587
575 0.953235
580 1.01475
585 1.0029
590 1.21793
595 0.954244
600 9.8047
Ex : 288
200 1.39966
205 0.926704
210 0.708828
215 0.923886
220 0.736026
225 1.03959
230 1.32152
235 0.848837
240 1.00404
245 0.96131
250 0.782867
255 0.835551
260 0.648004
265 1.18379
270 0.859647
275 1.08559
280 1.22536
285 1.16397
290 0.556092
295 0.750102
300 0.761939
305 0.671497
310 0.648059
315 0.788312
320 0.838361
325 1.14134
330 1.05378
335 0.77224
340 0.829709
345 0.996347
350 0.81371
355 0.724508
360 0.602777
365 1.22928
370 1.19235
375 1.18334
380 1.08755
385 1.18598
390 0.910964
395 1.12808
400 0.949946
405 1.22131
410 1.52438
415 1.12776
420 1.41198
425 1.14209
430 0.909639
435 1.32128
440 0.921482
445 1.17322
450 0.758794
455 1.26727
460 1.17386
465 1.04934
470 1.07692
475 0.979639
480 1.07474
485 0.959841
490 0.796277
495 1.03913
500 0.770594
505 0.905764
510 1.02112
515 0.904106
520 0.812051
525 0.832355
530 0.838571
535 0.770289
540 0.778404
545 0.843098
550 0.566626
555 0.797292
560 0.798778
565 1.17443
570 1.18785
575 1.18687
580 1.01415
585 0.74057
590 0.700275
595 0.636118
600 0.237263
Ex : 293
200 0.467249
205 0.790203
210 0.547559
215 0.796857
220 0.565618
225 0.705691
230 0.660906
235 0.703857
240 0.770241
245 0.519132
250 0.595244
255 0.51632
260 0.750362
265 0.947085
270 0.617711
275 0.461084
280 0.539483
285 1.17526
290 0.98397
295 0.819625
300 0.783654
305 0.623642
310 0.648717
315 0.840645
320 0.650785
325 0.706997
330 0.746643
335 0.738585
340 0.992101
345 0.657985
350 0.761923
355 0.66351
360 0.724246
365 0.980477
370 0.681558
375 0.858672
380 0.946075
385 1.19899
390 1.1344
395 0.830796
400 1.41067
405 1.07291
410 1.25035
415 0.914466
420 1.20198
425 0.912045
430 1.04351
435 0.783401
440 0.963448
445 1.69981
450 0.952222
455 1.25657
460 0.970176
465 1.28327
470 0.978817
475 1.18501
480 0.906975
485 0.988104
490 1.01353
495 0.637656
500 0.546314
505 0.920169
510 0.755656
515 0.969136
520 0.912998
525 0.827336
530 0.993625
535 0.630754
540 0.575817
545 0.60503
550 1.00024
555 0.910397
560 0.760583
565 0.616532
570 0.684651
575 1.07004
580 1.47444
585 1.46328
590 0.778127
595 0.96043
600 0.404695
Ex : 298
200 0.735108
205 0.590654
210 0.417141
215 0.740506
220 0.682142
225 0.478896
230 0.642084
235 0.681105
240 0.512717
245 0.809816
250 0.606945
255 0.459534
260 0.384431
265 0.508182
270 0.715434
275 0.770599
280 0.723125
285 0.683641
290 0.989808
295 1.21972
300 0.661142
305 0.635301
310 0.466543
315 0.64402
320 0.641638
325 0.745581
330 0.619331
335 0.596159
340 0.699166
345 0.635656
350 0.766314
355 1.02709
360 0.660791
365 0.862169
370 0.911125
375 0.86676
380 1.09396
385 1.24516
390 0.827751
395 0.819827
400 1.47927
405 1.28599
410 1.05036
415 0.996295
420 0.84126
425 0.884954
430 0.800863
435 0.749631
440 0.821787
445 0.910621
450 0.775707
455 0.702293
460 0.771515
465 0.790027
470 0.979517
475 1.20621
480 0.841593
485 0.706737
490 0.768121
495 0.521733
500 0.725259
505 0.597016
510 0.719065
515 0.472078
520 0.616905
525 0.861563
530 0.641299
535 0.625623
540 0.617976
545 0.714075
550 0.701375
555 0.740011
560 0.738521
565 0.7279
570 0.673254
575 0.793419
580 0.855819
585 0.767353
590 1.29671
595 1.08429
600 0.123388
Ex : 303
200 0.539172
205 0.442483
210 0.613302
215 0.651476
220 0.648988
225 0.749922
230 0.428159
235 0.517987
240 0.386751
245 0.450684
250 0.482323
255 0.324385
260 0.435492
265 0.582798
270 0.873611
275 0.383211
280 0.537601
285 0.645659
290 0.621919
295 0.888045
300 0.90894
305 0.563795
310 0.519415
315 0.545844
320 0.495158
325 0.548131
330 0.642303
335 0.705717
340 1.01245
345 0.813634
350 0.621184
355 0.671085
360 0.823846
365 0.843386
370 0.848618
375 0.685933
380 0.647831
385 0.858483
390 1.02977
395 0.683915
400 0.920922
405 0.880556
410 0.953817
415 0.957337
420 0.766458
425 0.884173
430 0.933681
435 0.85828
440 0.920596
445 1.11073
450 0.992893
455 1.21146
460 0.869292
465 0.833863
470 0.743783
475 0.877263
480 0.663868
485 0.702614
490 0.64677
495 0.707592
500 0.676616
505 0.738357
510 0.625903
515 0.784487
520 0.467554
525 0.568947
530 0.67827
535 0.726446
540 0.589965
545 0.609804
550 0.514829
555 0.371539
560 0.582495
565 0.584788
570 0.56541
575 0.450054
580 0.541327
585 0.408319
590 0.498034
595 0.935611
600 0.992673
Ex : 308
200 0.389984
205 0.560823
210 0.461855
215 0.530258
220 0.32974
225 0.335431
230 0.524031
235 0.345006
240 0.294331
245 0.360872
250 0.476222
255 0.316071
260 0.380102
265 0.483872
270 0.472562
275 0.4453
280 0.643893
285 0.419629
290 0.406606
295 0.493733
300 0.765962
305 0.603365
310 0.527697
315 0.30901
320 0.516238
325 0.411074
330 0.489734
335 0.555416
340 0.782573
345 0.600381
350 0.679778
355 0.753072
360 0.681522
365 0.753532
370 0.665942
375 0.804728
380 0.936238
385 0.718492
390 0.629878
395 0.887206
400 1.00435
405 0.883454
410 0.856284
415 0.93376
420 0.686604
425 0.769052
430 0.694452
435 1.12508
440 0.87486
445 0.925509
450 0.818662
455 0.811948
460 0.866191
465 0.954194
470 0.999748
475 0.663442
480 0.504539
485 0.646375
490 0.540601
495 0.619617
500 0.62092
505 0.494369
510 0.70335
515 0.679256
520 0.548373
525 0.646492
530 0.66653
535 0.547271
540 0.53839
545 0.489719
550 0.421605
555 0.62715
560 0.575995
565 0.659537
570 0.498358
575 0.505444
580 0.543239
585 0.379005
590 0.337369
595 0.247369
600 0.126617
Ex : 313
200 0.426659
205 0.443218
210 0.247626
215 0.292445
220 0.463247
225 0.286476
230 0.496765
235 0.39317
240 0.433311
245 0.390098
250 0.253663
255 0.214374
260 0.472346
265 0.300797
270 0.406103
275 0.464171
280 0.361366
285 0.296768
290 0.338292
295 0.260943
300 0.514593
305 0.620017
310 0.811096
315 0.519796
320 0.384826
325 0.522786
330 0.386041
335 0.610299
340 0.763523
345 0.55789
350 0.704319
355 0.661099
360 0.662391
365 0.858195
370 0.83998
375 0.764912
380 1.13031
385 1.18611
390 1.12852
395 1.27499
400 1.4298
405 1.45363
410 1.08423
415 1.41535
420 1.29569
425 1.16211
430 1.29846
435 1.00312
440 1.22909
445 1.09709
450 1.18015
455 1.30619
460 0.949932
465 0.908019
470 1.19181
475 0.707888
480 0.691289
485 0.854828
490 0.700223
495 0.659134
500 0.715328
505 0.656326
510 0.740358
515 0.559431
520 0.60021
525 0.441494
530 0.409435
535 0.352407
540 0.391682
545 0.582533
550 0.625351
555 0.335826
560 0.507937
565 0.429032
570 0.499209
575 0.405269
580 0.634545
585 0.411861
590 0.244937
595 0.384752
600 0.149284
Ex : 318
200 0.379231
205 0.436137
210 0.338615
215 0.289311
220 0.359925
225 0.406678
230 0.335769
235 0.569161
240 0.252841
245 0.445391
250 0.544693
255 0.395425
260 0.408106
265 0.261787
270 0.293275
275 0.526979
280 0.467754
285 0.424256
290 0.26983
295 0.332773
300 0.528065
305 0.272525
310 0.767493
315 1.26162
320 0.562597
325 0.567765
330 0.89019
335 0.893894
340 1.20587
345 1.55157
350 2.10746
355 2.48823
360 3.30722
365 3.96266
370 5.16717
375 5.92392
380 6.86718
385 7.0725
390 7.74748
395 7.9571
400 8.66234
405 8.69245
410 9.01454
415 9.26674
420 8.96935
425 8.89057
430 8.45532
435 8.45776
440 8.75044
445 7.93287
450 7.2939
455 6.67878
460 6.49003
465 6.10456
470 5.59725
475 5.01763
480 4.71369
485 3.85863
490 3.83027
495 3.03774
500 2.87304
505 2.68463
510 2.19881
515 2.12604
520 1.56273
525 1.39777
530 1.34329
535 1.31965
540 1.12907
545 1.2085
550 0.719944
555 0.822262
560 0.644914
565 0.691596
570 0.789674
575 0.468187
580 0.565886
585 0.534143
590 0.394712
595 0.64036
600 1.07342
Ex : 323
200 0.290293
205 0.397641
210 0.34448
215 0.420346
220 0.377106
225 0.375163
230 0.20833
235 0.231685
240 0.394986
245 0.350437
250 0.381008
255 0.367751
260 0.329327
265 0.306801
270 0.264842
275 0.371096
280 0.314251
285 0.23572
290 0.365769
295 0.234833
300 0.305378
305 0.299694
310 0.34622
315 3.13218
320 11.3684
325 5.74257
330 2.54502
335 2.83243
340 4.14412
345 5.57957
350 8.40096
355 11.2087
360 14.0387
365 16.8101
370 18.9983
375 23.5514
380 25.2865
385 28.8886
390 31.0133
395 32.9331
400 34.3882
405 35.3923
410 35.5205
415 36.1927
420 34.6484
425 34.7566
430 33.785
435 33.4459
440 32.9349
445 30.8564
450 29.787
455 27.1503
460 25.087
465 23.5558
470 21.5269
475 18.8602
480 17.3391
485 16.8136
490 14.648
495 12.8012
500 10.7856
505 10.0622
510 8.7933
515 8.24226
520 6.73249
525 5.9524
530 4.5753
535 3.90871
540 3.85196
545 3.74636
550 2.95758
555 2.39778
560 1.81167
565 2.07738
570 1.44025
575 1.17063
580 0.926505
585 0.794657
590 0.803236
595 0.545937
600 0.722434
Ex : 328
200 0.20188
205 0.32806
210 0.319895
215 0.341768
220 0.244308
225 0.27837
230 0.345992
235 0.250671
240 0.303922
245 0.353123
250 0.205268
255 0.239933
260 0.352392
265 0.345511
270 0.241096
275 0.27138
280 0.203194
285 0.277939
290 0.233558
295 0.252752
300 0.258947
305 0.28962
310 0.275725
315 1.00642
320 29.3511
325 68.9754
330 23.1463
335 5.92523
340 5.43995
345 6.74664
350 9.33946
355 13.5691
360 18.1634
365 19.4553
370 22.2178
375 25.3145
380 29.1863
385 31.4414
390 34.011
395 36.1398
400 38.9426
405 39.2838
410 39.4983
415 39.1097
420 38.6405
425 38.027
430 36.1175
435 36.1835
440 36.0433
445 33.7724
450 30.9456
455 29.7601
460 27.1206
465 26.6961
470 24.0057
475 22.0562
480 20.4621
485 18.1277
490 16.4469
495 15.5921
500 13.552
505 11.9882
510 10.4356
515 9.35014
520 7.93975
525 7.44238
530 6.48535
535 5.28505
540 5.05346
545 4.3347
550 3.76684
555 3.55217
560 3.15515
565 2.53594
570 1.98477
575 1.49711
580 1.25904
585 1.09588
590 0.909556
595 0.686387
600 0.256904
Ex : 333
200 0.264806
205 0.24066
210 0.301121
215 0.296759
220 0.26819
225 0.181042
230 0.223302
235 0.216458
240 0.209104
245 0.304563
250 0.30498
255 0.36329
260 0.271154
265 0.261581
270 0.28498
275 0.202283
280 0.299033
285 0.285628
290 0.334515
295 0.37996
300 0.405715
305 0.320502
310 0.271679
315 0.304785
320 5.49286
325 91.3341
330 149.111
335 40.0052
340 8.28458
345 5.05658
350 5.7789
355 7.21379
360 10.2737
365 14.785
370 15.976
375 15.4839
380 16.232
385 17.8713
390 19.1011
395 19.2776
400 21.5143
405 22.038
410 22.3139
415 22.6816
420 22.0893
425 21.8754
430 21.6076
435 21.2041
440 20.7798
445 19.8666
450 19.0355
455 18.4542
460 17.7534
465 16.3686
470 15.5777
475 14.5244
480 13.6127
485 13.0346
490 11.7431
495 11.2691
500 9.83819
505 9.1138
510 7.85183
515 7.3733
520 6.69732
525 5.99136
530 5.44338
535 4.75348
540 4.33763
545 3.85518
550 3.80059
555 3.1545
560 2.71741
565 2.18469
570 2.06808
575 1.64168
580 1.38575
585 1.04139
590 0.810758
595 0.88713
600 0.100952
Ex : 338
200 0.165144
205 0.286061
210 0.365759
215 0.22111
220 0.301137
225 0.387236
230 0.291268
235 0.186225
240 0.207914
245 0.277959
250 0.333963
255 0.238159
260 0.272944
265 0.273694
270 0.234295
275 0.22796
280 0.299285
285 0.25649
290 0.216571
295 0.279369
300 0.264052
305 0.321687
310 0.221271
315 0.281988
320 0.490328
325 10.5496
330 141.19
335 197.241
340 49.1341
345 8.32129
350 4.66929
355 4.29542
360 4.09545
365 6.19394
370 10.9957
375 11.6971
380 9.61068
385 9.10013
390 9.35554
395 10.3383
400 10.5413
405 11.2416
410 11.9273
415 13.044
420 12.3523
425 12.0389
430 12.2684
435 12.5465
440 11.991
445 11.9857
450 12.2787
455 11.75
460 11.7325
465 11.8652
470 11.7783
475 10.9367
480 11.1582
485 10.2576
490 9.87614
495 9.38925
500 8.59485
505 8.03751
510 7.30925
515 6.99553
520 6.25961
525 5.97938
530 5.03855
535 4.51275
540 4.20452
545 3.85795
550 3.5985
555 3.05354
560 2.82477
565 2.39928
570 2.12564
575 1.59077
580 1.20641
585 0.98562
590 0.860868
595 0.764026
600 0.106001
Ex : 343
200 0.18039
205 0.150137
210 0.218866
215 0.176883
220 0.195331
225 0.240214
230 0.212404
235 0.305465
240 0.163295
245 0.211235
250 0.31779
255 0.263211
260 0.28227
265 0.252867
270 0.299544
275 0.225259
280 0.267454
285 0.196704
290 0.269559
295 0.278879
300 0.264925
305 0.257063
310 0.334381
315 0.283186
320 0.282747
325 0.400643
330 12.7529
335 160.189
340 218.691
345 52.1861
350 8.15797
355 3.62552
360 2.89534
365 2.47251
370 3.92626
375 8.13697
380 9.4977
385 7.29982
390 6.59857
395 6.33711
400 7.22995
405 7.95297
410 8.45737
415 9.02258
420 9.52463
425 9.66822
430 9.89656
435 10.093
440 10.4605
445 10.5747
450 10.6028
455 10.4749
460 10.7444
465 11.0918
470 11.0494
475 10.974
480 10.8825
485 10.8138
490 10.344
495 10.1647
500 9.35237
505 8.54835
510 8.07754
515 7.92748
520 7.25282
525 6.18585
530 5.70946
535 5.265
540 4.70904
545 4.41091
550 3.8293
555 3.39416
560 2.92778
565 2.66699
570 2.26018
575 1.8704
580 1.53998
585 1.35317
590 0.876135
595 0.760084
600 0.949377
Ex : 348
200 0.202652
205 0.399954
210 0.263993
215 0.251918
220 0.212969
225 0.238313
230 0.224242
235 0.221891
240 0.290995
245 0.204918
250 0.279522
255 0.225167
260 0.253655
265 0.321138
270 0.168685
275 0.182636
280 0.303439
285 0.267503
290 0.267458
295 0.288977
300 0.250891
305 0.227579
310 0.222774
315 0.414311
320 0.255436
325 0.357667
330 0.472573
335 13.0205
340 163.626
345 228.184
350 56.7752
355 8.42817
360 3.0233
365 2.43019
370 2.13782
375 3.08754
380 5.90117
385 8.53252
390 7.01
395 6.04415
400 5.55298
405 6.83651
410 7.81211
415 8.64372
420 8.6489
425 9.27832
430 9.22801
435 9.85021
440 10.4973
445 10.7045
450 11.0741
455 11.6227
460 11.7411
465 12.602
470 13.0503
475 12.4038
480 12.5563
485 12.6688
490 12.153
495 11.4898
500 11.5628
505 10.8985
510 10.0543
515 9.12956
520 8.37895
525 7.75467
530 7.18014
535 6.45035
540 5.82082
545 5.1374
550 4.633
555 4.10693
560 3.73465
565 3.02079
570 2.55152
575 2.07857
580 1.82774
585 1.44672
590 1.21638
595 0.992576
600 0.62319
Ex : 353
200 0.247809
205 0.26788
210 0.196934
215 0.193627
220 0.217393
225 0.17415
230 0.167922
235 0.24042
240 0.142526
245 0.184225
250 0.209133
255 0.22493
260 0.191488
265 0.236273
270 0.224558
275 0.194544
280 0.194092
285 0.26107
290 0.372467
295 0.22756
300 0.223821
305 0.210347
310 0.20751
315 0.165097
320 0.192641
325 0.198272
330 0.281788
335 0.558615
340 11.904
345 159.477
350 221.521
355 55.9872
360 8.07078
365 2.98467
370 2.52145
375 2.33947
380 2.62855
385 5.12956
390 8.50092
395 7.43162
400 6.45568
405 6.19479
410 7.47147
415 8.1194
420 8.8738
425 8.39973
430 9.11032
435 9.8005
440 10.7764
445 11.2246
450 11.4434
455 12.0431
460 13.3004
465 13.7809
470 14.4809
475 14.2572
480 14.3993
485 14.0665
490 13.872
495 13.4012
500 13.171
505 12.3196
510 11.5175
515 10.3692
520 9.66081
525 8.93501
530 8.33821
535 7.42544
540 6.77187
545 6.05144
550 5.68569
555 4.72393
560 3.89236
565 3.79445
570 3.04286
575 2.56682
580 1.91093
585 1.60631
590 1.27299
595 1.17168
600 1.62722
Ex : 358
200 0.152576
205 0.196398
210 0.199613
215 0.193611
220 0.296654
225 0.278862
230 0.200206
235 0.259581
240 0.209636
245 0.244195
250 0.183079
255 0.193656
260 0.236353
265 0.215944
270 0.285922
275 0.172134
280 0.225338
285 0.174072
290 0.230847
295 0.127049
300 0.18012
305 0.189266
310 0.202352
315 0.248225
320 0.317902
325 0.255127
330 0.246126
335 0.3171
340 0.456257
345 10.4192
350 153.08
355 226.311
360 56.7705
365 8.0593
370 2.92696
375 3.12482
380 2.74306
385 2.72853
390 4.7396
395 8.47437
400 8.64597
405 7.76586
410 8.08725
415 8.80583
420 9.07697
425 9.00764
430 9.56512
435 10.1718
440 11.3866
445 12.2053
450 13.0741
455 12.738
460 14.0225
465 14.7009
470 15.1415
475 15.2704
480 16.0239
485 15.424
490 15.6619
495 15.2961
500 14.7479
505 13.8487
510 12.8621
515 11.9469
520 10.8196
525 10.1105
530 9.33677
535 8.40186
540 7.68479
545 6.86696
550 6.06495
555 5.40816
560 4.73757
565 4.18116
570 3.35811
575 2.59217
580 2.05696
585 1.63976
590 1.40552
595 1.10918
600 0.480702
Ex : 363
200 0.217458
205 0.22617
210 0.25041
215 0.212367
220 0.162317
225 0.129795
230 0.193992
235 0.194853
240 0.186687
245 0.170204
250 0.250639
255 0.223821
260 0.210227
265 0.190617
270 0.189949
275 0.159562
280 0.169949
285 0.173905
290 0.175778
295 0.206379
300 0.17685
305 0.223716
310 0.13864
315 0.21853
320 0.196297
325 0.153685
330 0.276419
335 0.258418
340 0.39253
345 0.44767
350 10.1352
355 146.227
360 223.674
365 61.2421
370 8.54715
375 3.18637
380 3.04432
385 2.95994
390 2.83854
395 4.23075
400 7.81461
405 9.93721
410 9.59963
415 9.73143
420 9.89122
425 9.60807
430 10.0286
435 11.3071
440 12.3373
445 13.3543
450 13.7247
455 14.578
460 16.2189
465 16.726
470 17.3285
475 17.9774
480 18.4759
485 17.7249
490 17.042
495 16.6352
500 16.4528
505 15.9699
510 14.7735
515 13.1593
520 12.3566
525 11.2537
530 10.4169
535 9.51928
540 8.63523
545 7.8651
550 6.8776
555 5.9576
560 5.46267
565 4.47458
570 3.91273
575 3.33913
580 2.3899
585 1.89385
590 1.40938
595 1.30614
600 0.713371
Ex : 368
200 0.173195
205 0.278017
210 0.157563
215 0.226014
220 0.192823
225 0.185378
230 0.106697
235 0.119754
240 0.124219
245 0.138729
250 0.152736
255 0.213028
260 0.186952
265 0.162555
270 0.187336
275 0.147093
280 0.162065
285 0.133362
290 0.188258
295 0.22785
300 0.220722
305 0.160516
310 0.151729
315 0.124986
320 0.169444
325 0.272568
330 0.192154
335 0.248041
340 0.314784
345 0.268687
350 0.377484
355 8.68467
360 142.405
365 224.711
370 61.4688
375 8.76163
380 2.88379
385 3.15028
390 3.0764
395 3.05525
400 4.13797
405 7.55592
410 11.3391
415 10.5036
420 9.78545
425 9.31958
430 9.69976
435 11.0582
440 11.9571
445 13.3117
450 14.3401
455 15.2138
460 16.5023
465 17.7677
470 18.859
475 19.7509
480 20.303
485 19.8186
490 19.964
495 19.2389
500 18.8725
505 17.6962
510 16.7654
515 15.906
520 14.6062
525 13.1922
530 11.7675
535 10.9694
540 10.0355
545 8.60987
550 7.839
555 7.10888
560 6.14366
565 5.26232
570 4.50436
575 3.58696
580 2.92374
585 2.27303
590 1.69835
595 1.38458
600 1.84576
Ex : 373
200 0.224649
205 0.13039
210 0.092549
215 0.164924
220 0.187301
225 0.1681
230 0.124632
235 0.120612
240 0.175686
245 0.20406
250 0.171776
255 0.158549
260 0.136779
265 0.209567
270 0.197191
275 0.175438
280 0.162198
285 0.114091
290 0.271823
295 0.185039
300 0.185511
305 0.142671
310 0.109754
315 0.146923
320 0.185608
325 0.225566
330 0.225448
335 0.205456
340 0.203901
345 0.362622
350 0.293872
355 0.516556
360 9.58522
365 141.601
370 222.632
375 61.1962
380 8.95908
385 3.28737
390 3.26635
395 3.47845
400 3.77518
405 4.71327
410 8.06232
415 11.4562
420 10.5892
425 9.27077
430 9.66602
435 9.64019
440 10.9698
445 12.3722
450 13.3936
455 14.5397
460 16.3923
465 17.5468
470 19.399
475 20.0248
480 21.1001
485 21.4635
490 21.1412
495 21.1801
500 20.1867
505 19.6189
510 17.8386
515 17.0879
520 15.8595
525 14.2486
530 13.4497
535 11.6727
540 10.8248
545 9.80617
550 8.55659
555 7.55987
560 6.78185
565 5.70537
570 5.05745
575 3.89929
580 3.10739
585 2.41626
590 1.96834
595 1.45268
600 1.69673
Ex : 378
200 0.135555
205 0.240727
210 0.231176
215 0.113153
220 0.232482
225 0.188594
230 0.188638
235 0.143465
240 0.237679
245 0.147869
250 0.141426
255 0.179497
260 0.161235
265 0.145862
270 0.166225
275 0.121856
280 0.152891
285 0.134254
290 0.17523
295 0.146629
300 0.186332
305 0.209793
310 0.1658
315 0.140038
320 0.185455
325 0.136509
330 0.124834
335 0.20554
340 0.183794
345 0.211285
350 0.242301
355 0.317132
360 0.490194
365 9.25715
370 146.884
375 236.043
380 66.9998
385 9.91376
390 3.51976
395 3.69168
400 4.30395
405 4.99781
410 6.36893
415 8.43376
420 11.4211
425 11.2617
430 10.6665
435 10.7166
440 11.5268
445 12.173
450 13.2983
455 14.5885
460 16.3147
465 17.967
470 18.6014
475 19.394
480 19.9438
485 20.5581
490 20.2753
495 20.0148
500 19.5426
505 18.5898
510 17.5751
515 16.1788
520 14.9127
525 13.4164
530 12.5705
535 11.7853
540 10.1674
545 9.24818
550 8.22709
555 7.28857
560 6.42148
565 5.56373
570 4.52714
575 3.73894
580 2.96329
585 2.22926
590 1.79683
595 1.51854
600 0.601258
Ex : 383
200 0.164469
205 0.155308
210 0.220299
215 0.1116
220 0.147138
225 0.157818
230 0.1648
235 0.150729
240 0.144886
245 0.132367
250 0.127572
255 0.186024
260 0.171558
265 0.151199
270 0.184525
275 0.124709
280 0.150061
285 0.103954
290 0.139112
295 0.159919
300 0.207205
305 0.154281
310 0.11266
315 0.221013
320 0.157985
325 0.157491
330 0.185356
335 0.153721
340 0.200006
345 0.173168
350 0.232823
355 0.270671
360 0.338041
365 0.446711
370 8.59555
375 142.853
380 236.672
385 67.0888
390 10.1204
395 3.56602
400 3.89606
405 5.30446
410 6.29455
415 7.67601
420 8.20387
425 10.9639
430 12.5139
435 12.3791
440 12.7851
445 13.3487
450 14.0811
455 15.3161
460 16.7475
465 18.1281
470 19.1156
475 20.2628
480 20.5261
485 20.8515
490 20.6882
495 20.3361
500 20.0042
505 18.6784
510 17.4796
515 16.4817
520 15.3579
525 14.1607
530 12.7313
535 11.7567
540 10.7595
545 9.6913
550 8.33348
555 7.27687
560 6.40681
565 5.79963
570 4.6652
575 3.70245
580 2.93108
585 2.32723
590 1.9205
595 1.56384
600 0.731398
Ex : 388
200 0.107469
205 0.133334
210 0.168689
215 0.15931
220 0.110035
225 0.169721
230 0.124975
235 0.112572
240 0.15681
245 0.165801
250 0.122945
255 0.152283
260 0.112724
265 0.128204
270 0.144614
275 0.120383
280 0.123114
285 0.134956
290 0.168511
295 0.140513
300 0.147264
305 0.164486
310 0.119676
315 0.137504
320 0.129119
325 0.210711
330 0.142619
335 0.177511
340 0.172628
345 0.172324
350 0.183317
355 0.190181
360 0.296227
365 0.341237
370 0.48363
375 9.43681
380 150.001
385 241.272
390 67.7949
395 10.06
400 3.89719
405 4.73843
410 6.3095
415 7.50702
420 7.23882
425 7.98126
430 10.5612
435 13.4656
440 13.1112
445 13.5352
450 13.9822
455 14.8729
460 16.6176
465 18.5287
470 19.6198
475 20.685
480 21.1526
485 21.5685
490 21.7261
495 21.5706
500 20.5182
505 19.7557
510 18.4367
515 17.2909
520 15.86
525 15.0042
530 13.6485
535 11.9581
540 11.1884
545 9.8675
550 8.48142
555 7.7152
560 6.9241
565 5.96079
570 4.95495
575 3.94533
580 3.01232
585 2.43445
590 1.73334
595 1.39781
600 0.670723
Ex : 393
200 0.186189
205 0.191259
210 0.128158
215 0.138214
220 0.138114
225 0.107898
230 0.14594
235 0.172134
240 0.194062
245 0.16267
250 0.110293
255 0.156779
260 0.122699
265 0.133059
270 0.14384
275 0.165909
280 0.144313
285 0.196737
290 0.115487
295 0.162084
300 0.154009
305 0.121308
310 0.200664
315 0.155885
320 0.115397
325 0.175674
330 0.127046
335 0.135737
340 0.141289
345 0.185232
350 0.18714
355 0.205419
360 0.196774
365 0.18643
370 0.288486
375 0.461682
380 8.51161
385 149.643
390 244.556
395 69.483
400 10.1658
405 4.20859
410 5.02812
415 6.07338
420 6.02933
425 5.90742
430 6.47855
435 9.53733
440 12.5082
445 12.8748
450 13.3962
455 14.5453
460 16.0387
465 17.8334
470 19.5577
475 20.0646
480 21.4143
485 21.9051
490 22.1462
495 22.0375
500 21.5616
505 20.122
510 19.0281
515 17.922
520 16.7834
525 14.9305
530 13.9795
535 12.8197
540 11.4753
545 10.1523
550 9.18762
555 8.03059
560 7.17323
565 6.17068
570 5.2309
575 4.17696
580 3.16335
585 2.58686
590 1.82362
595 1.56631
600 1.69745
Ex : 398
200 0.186846
205 0.137811
210 0.105483
215 0.173006
220 0.125626
225 0.139155
230 0.125647
235 0.154848
240 0.117645
245 0.146958
250 0.124533
255 0.0961611
260 0.121846
265 0.130555
270 0.179246
275 0.151483
280 0.0808496
285 0.132988
290 0.149473
295 0.094235
300 0.14225
305 0.0976875
310 0.144697
315 0.112573
320 0.144221
325 0.142243
330 0.150587
335 0.107251
340 0.18803
345 0.153545
350 0.138685
355 0.0972802
360 0.167506
365 0.143194
370 0.204203
375 0.247876
380 0.361729
385 8.58301
390 152.245
395 254.934
400 70.679
405 11.0338
410 4.98452
415 5.36021
420 5.59752
425 5.59161
430 6.03968
435 7.14353
440 9.27252
445 13.0754
450 13.8803
455 14.9082
460 16.3298
465 17.7333
470 18.818
475 20.0724
480 21.1725
485 22.0203
490 22.2746
495 22.0341
500 21.5258
505 20.7964
510 19.9148
515 18.2943
520 17.0029
525 15.4887
530 14.0788
535 12.842
540 11.772
545 10.6144
550 9.30994
555 8.43365
560 7.13381
565 6.21227
570 5.20673
575 4.19106
580 3.3562
585 2.42825
590 1.89356
595 1.58561
600 1.40468
Ex : 403
200 0.181126
205 0.152321
210 0.0934681
215 0.116706
220 0.125088
225 0.168627
230 0.111996
235 0.151728
240 0.139883
245 0.155367
250 0.13159
255 0.130605
260 0.110797
265 0.147884
270 0.0948661
275 0.0849655
280 0.165142
285 0.175577
290 0.18956
295 0.152057
300 0.167103
305 0.0830627
310 0.132748
315 0.143287
320 0.119537
325 0.164007
330 0.153197
335 0.165586
340 0.127176
345 0.207201
350 0.123999
355 0.180164
360 0.197377
365 0.218873
370 0.236255
375 0.228937
380 0.311735
385 0.394013
390 10.044
395 158.067
400 248.941
405 70.1975
410 11.8715
415 6.10833
420 5.73791
425 5.75159
430 6.11003
435 6.91012
440 8.39017
445 10.335
450 14.0783
455 16.3171
460 17.5242
465 18.2637
470 19.5754
475 20.3073
480 21.5372
485 22.0444
490 22.5907
495 22.7252
500 21.8878
505 21.0814
510 20.2796
515 18.9222
520 17.1592
525 16.1053
530 14.4088
535 13.3142
540 12.0596
545 11.0302
550 9.60607
555 8.75599
560 7.51488
565 6.39281
570 5.58138
575 4.47885
580 3.42206
585 2.55293
590 2.1599
595 1.66093
600 1.75433
Ex : 408
200 0.083164
205 0.12854
210 0.10037
215 0.102298
220 0.130716
225 0.0984928
230 0.160117
235 0.157252
240 0.13878
245 0.126577
250 0.136368
255 0.223871
260 0.116651
265 0.105761
270 0.106332
275 0.0941102
280 0.13063
285 0.141341
290 0.171743
295 0.127466
300 0.174583
305 0.0949121
310 0.114884
315 0.159121
320 0.175066
325 0.135103
330 0.136678
335 0.175393
340 0.14098
345 0.122428
350 0.143768
355 0.154122
360 0.157347
365 0.176146
370 0.265967
375 0.14164
380 0.221241
385 0.250373
390 0.422966
395 9.90189
400 162.019
405 252.839
410 68.9904
415 12.039
420 5.35697
425 4.942
430 5.7535
435 6.65672
440 7.91247
445 8.95609
450 10.7254
455 14.7788
460 18.1382
465 18.5708
470 20.0007
475 21.3966
480 21.1699
485 21.6024
490 22.6295
495 22.5795
500 21.5873
505 21.0721
510 19.8327
515 18.5001
520 17.4119
525 15.8758
530 14.8021
535 13.4783
540 12.1085
545 10.7951
550 9.82809
555 8.35385
560 7.58053
565 6.18371
570 5.13187
575 4.08539
580 3.35267
585 2.62945
590 2.05356
595 1.53968
600 1.31635
Ex : 413
200 0.122356
205 0.10092
210 0.0985785
215 0.0980392
220 0.19968
225 0.130642
230 0.108299
235 0.160584
240 0.159776
245 0.108305
250 0.137579
255 0.11935
260 0.179113
265 0.115547
270 0.129021
275 0.177443
280 0.132589
285 0.118967
290 0.116965
295 0.131908
300 0.147692
305 0.145932
310 0.161597
315 0.153164
320 0.151079
325 0.122258
330 0.153032
335 0.144452
340 0.192625
345 0.250636
350 0.166619
355 0.210528
360 0.244922
365 0.220798
370 0.177433
375 0.233567
380 0.208109
385 0.237865
390 0.285102
395 0.410807
400 11.6891
405 171.995
410 261.034
415 69.0889
420 10.8755
425 4.40569
430 4.0711
435 4.99479
440 6.09168
445 7.47912
450 8.71448
455 10.9991
460 15.1288
465 18.452
470 19.3893
475 20.2166
480 20.6341
485 20.9149
490 21.581
495 21.4858
500 21.0628
505 20.2765
510 19.1796
515 18.0963
520 16.3177
525 15.4392
530 14.6876
535 12.7781
540 11.6947
545 10.4521
550 9.50482
555 8.21317
560 7.08254
565 6.17882
570 5.40026
575 4.16147
580 3.34387
585 2.55901
590 1.90788
595 1.4932
600 1.02629
Ex : 418
200 0.10892
205 0.108496
210 0.113053
215 0.122427
220 0.114762
225 0.159224
230 0.157734
235 0.105504
240 0.112052
245 0.12819
250 0.112019
255 0.10067
260 0.122732
265 0.151964
270 0.110692
275 0.117432
280 0.142764
285 0.10239
290 0.147007
295 0.130325
300 0.132049
305 0.117851
310 0.124897
315 0.119498
320 0.129656
325 0.110961
330 0.0731773
335 0.137031
340 0.135296
345 0.162968
350 0.126586
355 0.133593
360 0.144271
365 0.162765
370 0.132196
375 0.126048
380 0.150293
385 0.179108
390 0.212311
395 0.295331
400 0.543541
405 11.5067
410 173.735
415 264.004
420 72.0051
425 10.1955
430 3.36643
435 3.33724
440 4.26479
445 5.63588
450 7.1023
455 9.19995
460 11.4578
465 14.4912
470 18.139
475 18.9224
480 19.0362
485 19.7197
490 20.2875
495 19.7483
500 19.6521
505 18.8321
510 18.0712
515 16.7131
520 15.723
525 14.6014
530 13.373
535 12.0796
540 11.2304
545 10.1648
550 9.16079
555 8.30264
560 7.16178
565 5.80049
570 4.92629
575 4.09191
580 2.93147
585 2.32
590 2.01747
595 1.54968
600 1.00698
Ex : 423
200 0.152138
205 0.110641
210 0.127242
215 0.113063
220 0.12844
225 0.151577
230 0.102594
235 0.14384
240 0.165008
245 0.143164
250 0.164085
255 0.161006
260 0.144108
265 0.141742
270 0.141202
275 0.181739
280 0.129401
285 0.111365
290 0.147092
295 0.13743
300 0.152532
305 0.152765
310 0.156227
315 0.130452
320 0.152088
325 0.126687
330 0.184038
335 0.165914
340 0.190119
345 0.145493
350 0.133408
355 0.162662
360 0.125927
365 0.11188
370 0.172229
375 0.178821
380 0.159038
385 0.142064
390 0.191404
395 0.24677
400 0.362082
405 0.575642
410 11.7769
415 192.342
420 273.068
425 68.9263
430 9.57636
435 3.11988
440 3.25603
445 4.62964
450 6.2102
455 7.85198
460 10.0234
465 11.711
470 13.6793
475 16.8954
480 18.7411
485 18.5619
490 18.9163
495 18.8979
500 18.2572
505 17.3833
510 16.365
515 15.4003
520 14.006
525 13.1478
530 12.2554
535 11.348
540 10.4397
545 9.46044
550 8.42976
555 7.10224
560 6.51884
565 5.54258
570 4.87238
575 3.64921
580 2.94146
585 2.14538
590 1.81315
595 1.45787
600 1.19355
Ex : 428
200 0.123538
205 0.128167
210 0.170522
215 0.14825
220 0.153558
225 0.138175
230 0.162423
235 0.147776
240 0.177305
245 0.0979636
250 0.118233
255 0.138518
260 0.121709
265 0.116093
270 0.12061
275 0.118022
280 0.139506
285 0.141422
290 0.146648
295 0.160245
300 0.152519
305 0.114803
310 0.0907179
315 0.150036
320 0.142735
325 0.114
330 0.149461
335 0.140174
340 0.146949
345 0.129938
350 0.115559
355 0.172948
360 0.187139
365 0.163892
370 0.152416
375 0.157992
380 0.160754
385 0.192151
390 0.215137
395 0.214585
400 0.237363
405 0.280557
410 0.440905
415 14.2681
420 192.761
425 275.229
430 69.6528
435 9.82674
440 3.32455
445 3.66388
450 5.48373
455 7.14492
460 8.90111
465 10.4382
470 12.0598
475 13.2932
480 16.1324
485 18.1129
490 17.578
495 17.1193
500 16.41
505 15.6527
510 14.7219
515 13.7465
520 12.8026
525 12.0507
530 11.1815
535 9.83336
540 9.38246
545 8.38068
550 7.7724
555 6.86774
560 5.78621
565 5.03159
570 4.14279
575 3.48766
580 2.76054
585 2.00394
590 1.57757
595 1.2926
600 0.988986
Ex : 433
200 0.124839
205 0.0921806
210 0.148258
215 0.149073
220 0.121244
225 0.135568
230 0.126068
235 0.110891
240 0.15275
245 0.133615
250 0.130353
255 0.15714
260 0.14671
265 0.146375
270 0.157101
275 0.148018
280 0.145944
285 0.154979
290 0.121476
295 0.130963
300 0.126826
305 0.132492
310 0.124651
315 0.085374
320 0.109216
325 0.121714
330 0.154699
335 0.138659
340 0.147842
345 0.209865
350 0.171103
355 0.129222
360 0.124571
365 0.172105
370 0.116081
375 0.251725
380 0.16981
385 0.146006
390 0.167844
395 0.183626
400 0.232615
405 0.289743
410 0.340369
415 0.511933
420 14.3851
425 204.548
430 288.884
435 70.268
440 10.1967
445 4.16246
450 4.56363
455 6.39453
460 7.99912
465 9.052
470 10.5579
475 11.56
480 12.3861
485 14.1259
490 16.4697
495 15.7358
500 14.8386
505 14.0431
510 13.1896
515 12.3119
520 11.3681
525 10.5587
530 9.64007
535 9.14452
540 8.24614
545 7.42577
550 6.69767
555 5.53565
560 5.22111
565 4.34823
570 3.7202
575 3.22068
580 2.33137
585 1.78835
590 1.43015
595 1.16575
600 0.876117
Ex : 438
200 0.15217
205 0.0960077
210 0.141007
215 0.128242
220 0.211797
225 0.138715
230 0.134373
235 0.135689
240 0.102928
245 0.142597
250 0.111676
255 0.14704
260 0.171253
265 0.140016
270 0.135735
275 0.11157
280 0.15378
285 0.106596
290 0.0962648
295 0.138985
300 0.155546
305 0.133413
310 0.137901
315 0.150302
320 0.156199
325 0.15442
330 0.130644
335 0.121427
340 0.162005
345 0.117851
350 0.164512
355 0.124354
360 0.131948
365 0.148191
370 0.153071
375 0.160234
380 0.125483
385 0.145848
390 0.147159
395 0.197056
400 0.198755
405 0.264335
410 0.186013
415 0.299576
420 0.541851
425 13.1644
430 202.487
435 310.502
440 80.3707
445 11.7708
450 4.96982
455 5.04568
460 6.65535
465 8.00217
470 8.69116
475 9.66222
480 10.3653
485 11.2935
490 12.3261
495 14.1094
500 14.2074
505 12.6926
510 11.5997
515 10.7891
520 9.55224
525 9.30041
530 8.35609
535 7.69705
540 6.97085
545 6.34588
550 5.64874
555 5.21961
560 4.32698
565 3.74792
570 3.24097
575 2.69362
580 2.0373
585 1.54185
590 1.28706
595 1.02196
600 0.525658
Ex : 443
200 0.110283
205 0.116339
210 0.108146
215 0.151035
220 0.129064
225 0.102545
230 0.12018
235 0.165014
240 0.14637
245 0.25349
250 0.121873
255 0.175461
260 0.130796
265 0.117408
270 0.117452
275 0.167603
280 0.154803
285 0.162302
290 0.127801
295 0.130444
300 0.126165
305 0.187532
310 0.179725
315 0.161132
320 0.136879
325 0.129176
330 0.174712
335 0.190499
340 0.173086
345 0.151134
350 0.204224
355 0.163728
360 0.161123
365 0.13539
370 0.142283
375 0.107947
380 0.170322
385 0.117308
390 0.183046
395 0.182389
400 0.200533
405 0.145804
410 0.260764
415 0.290736
420 0.385908
425 0.554999
430 15.0953
435 217.785
440 320.641
445 80.857
450 12.3026
455 5.51461
460 5.28865
465 6.5409
470 7.39818
475 7.77699
480 8.45915
485 9.17409
490 9.19451
495 9.7261
500 11.0376
505 11.7765
510 9.94191
515 8.99229
520 8.62995
525 7.65247
530 6.69901
535 6.11627
540 5.78796
545 5.30238
550 4.62577
555 4.10322
560 3.87131
565 3.24837
570 2.7832
575 2.21271
580 1.71401
585 1.40138
590 1.11513
595 0.846831
600 0.711283
Ex : 448
200 0.109801
205 0.132353
210 0.161317
215 0.103367
220 0.107478
225 0.120766
230 0.113415
235 0.136289
240 0.168347
245 0.171004
250 0.163368
255 0.123764
260 0.11904
265 0.152341
270 0.10964
275 0.126378
280 0.117794
285 0.143954
290 0.17615
295 0.135419
300 0.122967
305 0.149073
310 0.150205
315 0.200255
320 0.160083
325 0.120273
330 0.157706
335 0.136967
340 0.140572
345 0.158946
350 0.171146
355 0.23272
360 0.177165
365 0.14722
370 0.130048
375 0.175133
380 0.226601
385 0.19397
390 0.159399
395 0.180062
400 0.203529
405 0.16745
410 0.211479
415 0.232618
420 0.228307
425 0.307028
430 0.604358
435 15.9186
440 232.214
445 337.879
450 85.7274
455 12.7319
460 5.21496
465 4.80023
470 5.50847
475 6.19087
480 6.58913
485 6.77893
490 6.96291
495 7.03802
500 7.1733
505 7.76161
510 8.82907
515 8.24288
520 6.81632
525 6.3302
530 5.40326
535 5.03966
540 4.36555
545 3.98642
550 3.86284
555 3.41567
560 2.94544
565 2.57502
570 2.09116
575 1.76882
580 1.44758
585 1.17305
590 0.965469
595 0.788113
600 1.36976
Ex : 453
200 0.121171
205 0.140785
210 0.184854
215 0.155364
220 0.172172
225 0.125942
230 0.121792
235 0.120677
240 0.133922
245 0.11515
250 0.134819
255 0.108751
260 0.150878
265 0.177491
270 0.112793
275 0.104493
280 0.134306
285 0.122429
290 0.155892
295 0.141769
300 0.117793
305 0.158764
310 0.14908
315 0.128461
320 0.138145
325 0.127207
330 0.136875
335 0.173478
340 0.143825
345 0.156782
350 0.133197
355 0.1428
360 0.126823
365 0.146315
370 0.121489
375 0.11843
380 0.197571
385 0.192857
390 0.184173
395 0.161987
400 0.192549
405 0.164952
410 0.205855
415 0.188196
420 0.207435
425 0.255195
430 0.370431
435 0.653671
440 16.6484
445 251.707
450 346.807
455 82.1391
460 12.2046
465 4.49574
470 3.92621
475 4.50592
480 4.96644
485 4.9655
490 5.05464
495 5.15687
500 5.06233
505 5.04644
510 5.30835
515 6.82742
520 6.17666
525 5.08816
530 4.69941
535 4.20927
540 3.54689
545 3.08438
550 2.84203
555 2.60265
560 2.31681
565 2.0096
570 1.69255
575 1.31607
580 1.02871
585 0.928261
590 0.717481
595 0.571608
600 1.14818
Ex : 458
200 0.155107
205 0.10632
210 0.185325
215 0.11996
220 0.18955
225 0.143298
230 0.120864
235 0.108892
240 0.124938
245 0.132317
250 0.149009
255 0.116185
260 0.126578
265 0.134894
270 0.159027
275 0.133762
280 0.133136
285 0.153896
290 0.18075
295 0.187483
300 0.137366
305 0.169395
310 0.125923
315 0.133253
320 0.122993
325 0.140777
330 0.143375
335 0.13278
340 0.137697
345 0.18024
350 0.124034
355 0.124916
360 0.182617
365 0.146512
370 0.150689
375 0.149542
380 0.133535
385 0.191186
390 0.204218
395 0.249711
400 0.200336
405 0.171239
410 0.202404
415 0.175577
420 0.169169
425 0.223095
430 0.307547
435 0.473424
440 0.705822
445 19.0053
450 259.135
455 357.171
460 85.1696
465 12.1717
470 3.8548
475 3.03935
480 3.43932
485 3.75434
490 3.65387
495 3.67846
500 3.49017
505 3.27177
510 3.31681
515 3.66228
520 4.69874
525 5.22804
530 4.19345
535 3.31533
540 3.15046
545 2.61149
550 2.20942
555 2.0911
560 1.8367
565 1.62006
570 1.36086
575 1.11422
580 0.95772
585 0.711704
590 0.655299
595 0.495061
600 0.439873
Ex : 463
200 0.143304
205 0.104038
210 0.11568
215 0.151764
220 0.150995
225 0.161658
230 0.137495
235 0.110267
240 0.127603
245 0.0982689
250 0.0958023
255 0.134244
260 0.13755
265 0.164193
270 0.142015
275 0.132925
280 0.105834
285 0.165725
290 0.138496
295 0.159399
300 0.12745
305 0.0982846
310 0.172096
315 0.123782
320 0.164005
325 0.144864
330 0.165386
335 0.135182
340 0.159426
345 0.11804
350 0.155189
355 0.115266
360 0.118649
365 0.143801
370 0.154132
375 0.180517
380 0.131931
385 0.132732
390 0.190988
395 0.149075
400 0.188627
405 0.187543
410 0.212773
415 0.170529
420 0.234758
425 0.275092
430 0.2718
435 0.282282
440 0.399469
445 0.709524
450 19.0054
455 293.045
460 393.846
465 93.4627
470 12.5846
475 3.34929
480 2.31677
485 2.5717
490 2.98439
495 2.80185
500 2.71128
505 2.37619
510 2.49397
515 2.42767
520 2.50829
525 3.08162
530 4.11305
535 3.56403
540 2.64178
545 2.45037
550 2.11886
555 1.86964
560 1.63441
565 1.42464
570 1.16459
575 0.998831
580 0.796601
585 0.730055
590 0.461951
595 0.514466
600 0.742776
Ex : 468
200 0.0917827
205 0.147867
210 0.0990457
215 0.127313
220 0.146733
225 0.12406
230 0.102714
235 0.120771
240 0.173225
245 0.139807
250 0.165513
255 0.151888
260 0.106473
265 0.114954
270 0.141264
275 0.123409
280 0.119956
285 0.118824
290 0.105677
295 0.0991414
300 0.118286
305 0.0938809
310 0.103925
315 0.128657
320 0.152328
325 0.129205
330 0.136995
335 0.126291
340 0.164942
345 0.155902
350 0.129773
355 0.147687
360 0.11466
365 0.143308
370 0.155967
375 0.116235
380 0.133577
385 0.128815
390 0.200544
395 0.182496
400 0.211504
405 0.10509
410 0.214985
415 0.137188
420 0.168193
425 0.180996
430 0.234707
435 0.194212
440 0.285081
445 0.447898
450 0.655069
455 19.8186
460 268.382
465 391.518
470 93.0169
475 12.2125
480 3.06218
485 2.07936
490 1.93184
495 2.30155
500 2.28317
505 2.2231
510 2.07806
515 1.93982
520 2.04328
525 2.14552
530 2.34703
535 3.5298
540 3.54214
545 2.47636
550 2.11512
555 1.81209
560 1.6473
565 1.29759
570 1.09072
575 0.972465
580 0.73181
585 0.610945
590 0.5381
595 0.472855
600 0.282037
Ex : 473
200 0.141639
205 0.168499
210 0.147183
215 0.131218
220 0.163111
225 0.132944
230 0.136106
235 0.129993
240 0.102728
245 0.15787
250 0.1416
255 0.11982
260 0.130862
265 0.169778
270 0.158061
275 0.148237
280 0.157357
285 0.130752
290 0.135674
295 0.1536
300 0.212056
305 0.12567
310 0.136622
315 0.130948
320 0.112698
325 0.128454
330 0.166638
335 0.114131
340 0.143464
345 0.209284
350 0.163522
355 0.164311
360 0.133825
365 0.122195
370 0.126822
375 0.162434
380 0.130609
385 0.156185
390 0.13196
395 0.14563
400 0.133934
405 0.198514
410 0.183028
415 0.182018
420 0.154841
425 0.16557
430 0.170285
435 0.200986
440 0.233237
445 0.31702
450 0.386275
455 0.628515
460 22.7853
465 284.676
470 375.364
475 89.0072
480 11.6543
485 2.74582
490 1.84314
495 1.58861
500 1.87494
505 1.88407
510 1.95364
515 1.66418
520 1.81198
525 1.7878
530 1.72546
535 2.00267
540 2.79001
545 3.29535
550 2.45677
555 1.7017
560 1.5768
565 1.40445
570 1.13699
575 0.854716
580 0.708393
585 0.582223
590 0.496955
595 0.488102
600 0.497354
Ex : 478
200 0.15451
205 0.125079
210 0.107982
215 0.198786
220 0.16778
225 0.168631
230 0.145942
235 0.156987
240 0.134486
245 0.130127
250 0.168704
255 0.135774
260 0.159929
265 0.173922
270 0.160602
275 0.192388
280 0.197256
285 0.177308
290 0.137415
295 0.143788
300 0.150506
305 0.206829
310 0.250468
315 0.13619
320 0.13507
325 0.176299
330 0.146869
335 0.222508
340 0.163877
345 0.186325
350 0.132506
355 0.180782
360 0.189665
365 0.225011
370 0.19576
375 0.19783
380 0.212106
385 0.187131
390 0.185716
395 0.170424
400 0.235046
405 0.129831
410 0.199331
415 0.21389
420 0.160137
425 0.242347
430 0.228857
435 0.223926
440 0.190723
445 0.239587
450 0.376016
455 0.459511
460 0.642993
465 23.2984
470 286.433
475 375.747
480 92.4902
485 11.9722
490 2.66799
495 1.65011
500 1.5089
505 1.65679
510 1.66637
515 1.77107
520 1.60888
525 1.55933
530 1.64472
535 1.63726
540 1.59843
545 2.12666
550 3.08302
555 2.43693
560 1.58458
565 1.52002
570 1.19193
575 0.916595
580 0.686383
585 0.588642
590 0.546802
595 0.486149
600 0.107998
Ex : 483
200 0.174931
205 0.143401
210 0.19069
215 0.187779
220 0.220035
225 0.183327
230 0.158924
235 0.198392
240 0.165373
245 0.166333
250 0.155748
255 0.125075
260 0.123884
265 0.123998
270 0.141103
275 0.148465
280 0.177084
285 0.166251
290 0.141272
295 0.158644
300 0.164143
305 0.198711
310 0.17065
315 0.165085
320 0.195493
325 0.171282
330 0.205438
335 0.184852
340 0.194251
345 0.149906
350 0.149153
355 0.169584
360 0.168479
365 0.120788
370 0.150406
375 0.1172
380 0.155808
385 0.117956
390 0.141756
395 0.182949
400 0.149955
405 0.168185
410 0.158277
415 0.168429
420 0.188684
425 0.181171
430 0.18512
435 0.187294
440 0.179479
445 0.252323
450 0.314766
455 0.358765
460 0.457358
465 0.897123
470 19.1837
475 285.622
480 403.229
485 94.1999
490 12.1706
495 2.59719
500 1.49827
505 1.23822
510 1.52804
515 1.7057
520 1.65612
525 1.4817
530 1.49585
535 1.65323
540 1.44592
545 1.39323
550 1.73108
555 2.43474
560 2.57959
565 1.69822
570 1.26247
575 1.12599
580 0.858927
585 0.683883
590 0.563154
595 0.43898
600 2.03381
Ex : 488
200 0.194601
205 0.247346
210 0.195043
215 0.177349
220 0.140639
225 0.166572
230 0.204987
235 0.207589
240 0.147159
245 0.17467
250 0.175506
255 0.150489
260 0.163973
265 0.131285
270 0.175798
275 0.155637
280 0.123891
285 0.205663
290 0.165793
295 0.153802
300 0.153166
305 0.146704
310 0.158946
315 0.241199
320 0.168616
325 0.16973
330 0.152792
335 0.181658
340 0.201855
345 0.23367
350 0.152945
355 0.141168
360 0.23226
365 0.219728
370 0.172265
375 0.131211
380 0.190792
385 0.151676
390 0.132852
395 0.143009
400 0.201392
405 0.174866
410 0.183145
415 0.181736
420 0.209586
425 0.219013
430 0.183308
435 0.201884
440 0.244153
445 0.276475
450 0.310129
455 0.340318
460 0.398175
465 0.52676
470 0.680986
475 23.0306
480 311.654
485 429.296
490 95.8534
495 12.1658
500 2.55593
505 1.4529
510 1.24855
515 1.52539
520 1.64492
525 1.62595
530 1.53197
535 1.38474
540 1.33205
545 1.32067
550 1.28445
555 1.34829
560 1.84962
565 2.32799
570 1.72607
575 1.08279
580 0.889966
585 0.719737
590 0.506238
595 0.382963
600 1.68718
Ex : 493
200 0.136401
205 0.249428
210 0.207624
215 0.223832
220 0.197705
225 0.20626
230 0.221248
235 0.143694
240 0.187361
245 0.233916
250 0.164364
255 0.145501
260 0.184582
265 0.127762
270 0.169867
275 0.143142
280 0.187167
285 0.148572
290 0.122032
295 0.195545
300 0.222752
305 0.178641
310 0.152213
315 0.125022
320 0.13637
325 0.193002
330 0.172118
335 0.155268
340 0.194536
345 0.207836
350 0.221746
355 0.148085
360 0.182741
365 0.156348
370 0.236586
375 0.199575
380 0.183522
385 0.214538
390 0.150353
395 0.180829
400 0.202702
405 0.209189
410 0.212523
415 0.25285
420 0.251823
425 0.204921
430 0.214293
435 0.195507
440 0.174777
445 0.229636
450 0.226143
455 0.306025
460 0.269396
465 0.438295
470 0.529954
475 0.689721
480 30.7546
485 368.433
490 415.832
495 89.6319
500 11.2916
505 2.28029
510 1.4349
515 1.20089
520 1.3545
525 1.7107
530 1.70396
535 1.56871
540 1.32887
545 1.25938
550 1.22285
555 1.12025
560 1.12635
565 1.33582
570 1.89387
575 1.61421
580 1.02142
585 0.823882
590 0.599232
595 0.538653
600 0.0779546
Ex : 498
200 0.161135
205 0.158696
210 0.260012
215 0.137418
220 0.181565
225 0.235992
230 0.165926
235 0.252689
240 0.231569
245 0.144686
250 0.232915
255 0.214635
260 0.187103
265 0.164107
270 0.207598
275 0.188961
280 0.191841
285 0.184151
290 0.150443
295 0.183019
300 0.225356
305 0.206761
310 0.178428
315 0.193698
320 0.230444
325 0.264112
330 0.157081
335 0.140287
340 0.21974
345 0.188457
350 0.197057
355 0.160493
360 0.234933
365 0.196944
370 0.24935
375 0.192626
380 0.144877
385 0.165251
390 0.189987
395 0.232761
400 0.212196
405 0.231459
410 0.20313
415 0.190376
420 0.239834
425 0.244634
430 0.239011
435 0.248503
440 0.251822
445 0.222909
450 0.27997
455 0.409754
460 0.317025
465 0.357992
470 0.346049
475 0.516393
480 0.6397
485 23.4817
490 296.201
495 374.616
500 85.1509
505 10.788
510 2.3289
515 1.31903
520 1.17426
525 1.46092
530 1.62134
535 1.50522
540 1.40491
545 1.3376
550 1.17527
555 1.13
560 1.11026
565 1.02913
570 1.08255
575 1.45254
580 1.46005
585 0.937436
590 0.638094
595 0.534902
600 0.257392
Ex : 503
200 0.133596
205 0.181277
210 0.205032
215 0.14505
220 0.133331
225 0.168078
230 0.142781
235 0.180518
240 0.211971
245 0.185474
250 0.168316
255 0.2697
260 0.158106
265 0.156198
270 0.198596
275 0.185373
280 0.240269
285 0.163189
290 0.164483
295 0.153031
300 0.215118
305 0.19214
310 0.194428
315 0.198761
320 0.154551
325 0.181844
330 0.152276
335 0.155739
340 0.178214
345 0.224657
350 0.172949
355 0.216678
360 0.184472
365 0.177118
370 0.311173
375 0.224917
380 0.169114
385 0.167891
390 0.248806
395 0.222494
400 0.218191
405 0.185646
410 0.195008
415 0.190874
420 0.327681
425 0.182717
430 0.253671
435 0.223777
440 0.278585
445 0.275148
450 0.196735
455 0.257625
460 0.255229
465 0.321095
470 0.2854
475 0.473868
480 0.474248
485 0.745294
490 20.9147
495 293.566
500 392.067
505 89.3173
510 11.2379
515 2.46097
520 1.46105
525 1.48074
530 1.46533
535 1.40986
540 1.58371
545 1.26225
550 1.15862
555 1.12913
560 0.994892
565 0.888786
570 0.748456
575 0.721086
580 0.967784
585 1.14497
590 0.90597
595 0.595621
600 0.265593
Ex : 508
200 0.148729
205 0.226693
210 0.166699
215 0.256323
220 0.160002
225 0.23051
230 0.223473
235 0.251308
240 0.149908
245 0.187418
250 0.261257
255 0.202765
260 0.186748
265 0.309329
270 0.227236
275 0.233522
280 0.155212
285 0.202911
290 0.181468
295 0.184894
300 0.196919
305 0.210373
310 0.194885
315 0.274704
320 0.163945
325 0.158158
330 0.181337
335 0.260715
340 0.21178
345 0.237294
350 0.146363
355 0.211267
360 0.23035
365 0.150565
370 0.173205
375 0.114639
380 0.222397
385 0.235876
390 0.219465
395 0.211077
400 0.237585
405 0.350419
410 0.226746
415 0.181125
420 0.181595
425 0.226484
430 0.230335
435 0.217969
440 0.227589
445 0.205029
450 0.295555
455 0.261613
460 0.230346
465 0.311958
470 0.36752
475 0.313759
480 0.350018
485 0.459996
490 0.704603
495 22.6757
500 285.272
505 377.794
510 89.7772
515 11.3382
520 2.3946
525 1.5619
530 1.11482
535 1.23853
540 1.37261
545 1.28522
550 1.2426
555 1.04483
560 0.787494
565 0.851031
570 0.729398
575 0.695351
580 0.697472
585 0.71827
590 0.977181
595 0.928248
600 0.473181
Ex : 513
200 0.220962
205 0.149664
210 0.205217
215 0.144075
220 0.150948
225 0.261116
230 0.15454
235 0.184282
240 0.245523
245 0.188175
250 0.151409
255 0.147046
260 0.174357
265 0.16612
270 0.218221
275 0.221587
280 0.268031
285 0.151708
290 0.184659
295 0.195086
300 0.219899
305 0.181478
310 0.207221
315 0.218819
320 0.212111
325 0.225997
330 0.205163
335 0.194315
340 0.206932
345 0.193044
350 0.201804
355 0.239623
360 0.178034
365 0.255042
370 0.147683
375 0.240178
380 0.188551
385 0.224467
390 0.198654
395 0.259385
400 0.182661
405 0.220698
410 0.159569
415 0.166453
420 0.238769
425 0.200192
430 0.207903
435 0.229332
440 0.316821
445 0.249667
450 0.324997
455 0.22806
460 0.244836
465 0.321568
470 0.317099
475 0.312701
480 0.393431
485 0.382382
490 0.488907
495 0.626675
500 19.281
505 280.88
510 387.451
515 94.9563
520 12.0243
525 2.36263
530 1.48064
535 1.20417
540 1.0065
545 1.15145
550 1.16213
555 1.0989
560 0.989938
565 0.793725
570 0.729593
575 0.637384
580 0.575441
585 0.505202
590 0.636563
595 0.689524
600 0.238826
Ex : 518
200 0.201719
205 0.27954
210 0.144528
215 0.204075
220 0.206147
225 0.178772
230 0.227309
235 0.222258
240 0.210377
245 0.211673
250 0.175297
255 0.235407
260 0.167579
265 0.219708
270 0.192187
275 0.219543
280 0.133496
285 0.234603
290 0.206772
295 0.25611
300 0.185558
305 0.191459
310 0.173111
315 0.195758
320 0.20004
325 0.169702
330 0.166943
335 0.263266
340 0.264637
345 0.202641
350 0.28468
355 0.203108
360 0.19714
365 0.217345
370 0.278739
375 0.279456
380 0.211344
385 0.211718
390 0.162425
395 0.203724
400 0.187527
405 0.232698
410 0.250722
415 0.220347
420 0.1973
425 0.254404
430 0.181151
435 0.194739
440 0.277516
445 0.294729
450 0.231595
455 0.216755
460 0.279981
465 0.28385
470 0.279186
475 0.330076
480 0.306771
485 0.317368
490 0.338043
495 0.495742
500 0.613576
505 19.0239
510 263.735
515 371.282
520 92.9943
525 11.6827
530 2.59171
535 1.31233
540 1.11546
545 0.99077
550 1.08763
555 1.33882
560 1.08076
565 1.03682
570 0.797291
575 0.612801
580 0.501643
585 0.478623
590 0.484988
595 0.505465
600 0.904912
Ex : 523
200 0.179373
205 0.202847
210 0.212953
215 0.221012
220 0.171182
225 0.183651
230 0.156025
235 0.185681
240 0.242278
245 0.156408
250 0.247849
255 0.155175
260 0.15975
265 0.242448
270 0.304151
275 0.234286
280 0.21736
285 0.187655
290 0.148542
295 0.160968
300 0.185204
305 0.2091
310 0.196442
315 0.213948
320 0.184166
325 0.253133
330 0.31622
335 0.205872
340 0.183067
345 0.200005
350 0.216878
355 0.238662
360 0.206851
365 0.193233
370 0.207529
375 0.197638
380 0.191404
385 0.241069
390 0.226355
395 0.288405
400 0.286636
405 0.219737
410 0.266687
415 0.270775
420 0.174997
425 0.20077
430 0.189409
435 0.2846
440 0.289862
445 0.19588
450 0.209707
455 0.272424
460 0.234492
465 0.301902
470 0.207652
475 0.266387
480 0.349291
485 0.318146
490 0.35127
495 0.386468
500 0.454711
505 0.609549
510 17.0657
515 249.165
520 362.734
525 94.1404
530 11.8764
535 2.26684
540 1.25572
545 1.15335
550 0.919198
555 1.05068
560 0.961731
565 0.869243
570 0.818701
575 0.741935
580 0.505086
585 0.58851
590 0.411235
595 0.422389
600 1.20282
Ex : 528
200 0.289539
205 0.164522
210 0.160409
215 0.165159
220 0.227865
225 0.207829
230 0.20483
235 0.236402
240 0.260433
245 0.203537
250 0.250765
255 0.165957
260 0.185097
265 0.199773
270 0.186433
275 0.247606
280 0.232592
285 0.183196
290 0.203088
295 0.166086
300 0.241394
305 0.158025
310 0.22185
315 0.254429
320 0.234685
325 0.22194
330 0.196488
335 0.219171
340 0.197886
345 0.224226
350 0.182955
355 0.206806
360 0.158232
365 0.293493
370 0.194455
375 0.189483
380 0.274716
385 0.241383
390 0.189151
395 0.245655
400 0.291574
405 0.227802
410 0.246392
415 0.215279
420 0.219158
425 0.293745
430 0.217396
435 0.307419
440 0.28725
445 0.23662
450 0.245444
455 0.233088
460 0.267571
465 0.324699
470 0.389888
475 0.263424
480 0.293049
485 0.310293
490 0.291989
495 0.34315
500 0.347762
505 0.401185
510 0.587838
515 16.1731
520 277.988
525 388.297
530 95.5057
535 12.053
540 2.16367
545 1.1748
550 1.01745
555 0.823324
560 0.855321
565 0.888042
570 0.739123
575 0.748154
580 0.564178
585 0.49273
590 0.393847
595 0.492183
600 0.480648
Ex : 533
200 0.219522
205 0.225896
210 0.181196
215 0.198937
220 0.20626
225 0.226321
230 0.30922
235 0.219657
240 0.306949
245 0.188952
250 0.220087
255 0.176563
260 0.278673
265 0.219653
270 0.298493
275 0.326381
280 0.216123
285 0.249825
290 0.221712
295 0.193271
300 0.278924
305 0.195984
310 0.246765
315 0.223933
320 0.162853
325 0.224812
330 0.199076
335 0.326368
340 0.22454
345 0.259609
350 0.206578
355 0.272763
360 0.220572
365 0.257673
370 0.191675
375 0.208807
380 0.362253
385 0.217754
390 0.248906
395 0.276224
400 0.171432
405 0.205097
410 0.247002
415 0.18536
420 0.172926
425 0.259945
430 0.233167
435 0.289023
440 0.282971
445 0.209897
450 0.222127
455 0.206423
460 0.282797
465 0.221101
470 0.230286
475 0.162642
480 0.294396
485 0.332312
490 0.341374
495 0.271049
500 0.308548
505 0.342544
510 0.436256
515 0.547471
520 15.1937
525 232.896
530 344.464
535 90.0378
540 11.3188
545 2.24252
550 1.05345
555 0.96804
560 0.798565
565 0.792072
570 0.819626
575 0.806822
580 0.52528
585 0.493318
590 0.411398
595 0.37766
600 0.220217
Ex : 538
200 0.192943
205 0.270491
210 0.176625
215 0.218961
220 0.275312
225 0.225926
230 0.177535
235 0.160765
240 0.203162
245 0.237364
250 0.204935
255 0.22842
260 0.258072
265 0.260314
270 0.224753
275 0.172569
280 0.175423
285 0.309299
290 0.267681
295 0.1446
300 0.188124
305 0.19971
310 0.187505
315 0.180181
320 0.246188
325 0.199128
330 0.248117
335 0.228671
340 0.18418
345 0.173798
350 0.220376
355 0.261099
360 0.259955
365 0.318561
370 0.282728
375 0.249466
380 0.178066
385 0.266833
390 0.235256
395 0.297688
400 0.261162
405 0.230741
410 0.210794
415 0.293517
420 0.265978
425 0.266927
430 0.264028
435 0.271092
440 0.24394
445 0.248713
450 0.190138
455 0.299905
460 0.257158
465 0.391748
470 0.298152
475 0.268807
480 0.29963
485 0.369751
490 0.2716
495 0.333562
500 0.338915
505 0.313156
510 0.384671
515 0.462364
520 0.603195
525 14.3568
530 233.246
535 344.222
540 91.5197
545 11.4293
550 2.05655
555 0.878786
560 0.886017
565 0.607244
570 0.735561
575 0.63696
580 0.508756
585 0.612008
590 0.437377
595 0.336638
600 0.0383082
Ex : 543
200 0.192783
205 0.255674
210 0.211924
215 0.202948
220 0.266629
225 0.283577
230 0.240368
235 0.290953
240 0.358767
245 0.200003
250 0.256659
255 0.211148
260 0.183322
265 0.227256
270 0.251059
275 0.198655
280 0.192527
285 0.173574
290 0.177571
295 0.171112
300 0.2811
305 0.249404
310 0.335279
315 0.235235
320 0.270833
325 0.255602
330 0.297345
335 0.232884
340 0.357477
345 0.173821
350 0.258364
355 0.262803
360 0.283852
365 0.252759
370 0.250404
375 0.197491
380 0.23333
385 0.249099
390 0.226184
395 0.290319
400 0.27105
405 0.286995
410 0.263295
415 0.28019
420 0.22894
425 0.243916
430 0.21364
435 0.39445
440 0.341822
445 0.201727
450 0.238434
455 0.280713
460 0.313352
465 0.274074
470 0.316574
475 0.225042
480 0.291239
485 0.294111
490 0.329842
495 0.352237
500 0.304313
505 0.319231
510 0.439823
515 0.444902
520 0.571355
525 0.626309
530 12.024
535 211.843
540 337.254
545 93.7275
550 11.7501
555 1.94666
560 0.815923
565 0.676803
570 0.666848
575 0.56865
580 0.41426
585 0.608153
590 0.494244
595 0.517823
600 0.0589262
Ex : 548
200 0.235458
205 0.213743
210 0.178073
215 0.246142
220 0.283454
225 0.215574
230 0.156937
235 0.199156
240 0.234268
245 0.274551
250 0.264402
255 0.23967
260 0.259138
265 0.189646
270 0.236377
275 0.1832
280 0.183424
285 0.260334
290 0.21721
295 0.250943
300 0.284876
305 0.248028
310 0.336507
315 0.271439
320 0.295806
325 0.278583
330 0.199622
335 0.213393
340 0.251969
345 0.22206
350 0.291481
355 0.319078
360 0.302826
365 0.248587
370 0.215167
375 0.347566
380 0.255159
385 0.233898
390 0.212309
395 0.241388
400 0.24548
405 0.235241
410 0.351417
415 0.241501
420 0.317603
425 0.253616
430 0.31341
435 0.373356
440 0.287388
445 0.329223
450 0.301512
455 0.278135
460 0.384761
465 0.299201
470 0.161197
475 0.285078
480 0.279128
485 0.298978
490 0.417172
495 0.318109
500 0.279072
505 0.26062
510 0.28495
515 0.387604
520 0.359043
525 0.443058
530 0.554412
535 12.8965
540 207.237
545 332.248
550 97.65
555 12.1074
560 2.16778
565 0.876938
570 0.655696
575 0.491213
580 0.444634
585 0.440872
590 0.373692
595 0.352244
600 0.428126
Ex : 553
200 0.286141
205 0.225438
210 0.290012
215 0.216032
220 0.24842
225 0.220206
230 0.23436
235 0.218243
240 0.255545
245 0.322519
250 0.276781
255 0.210224
260 0.255274
265 0.229813
270 0.241356
275 0.190454
280 0.246875
285 0.250798
290 0.23472
295 0.275438
300 0.276152
305 0.173837
310 0.286681
315 0.19445
320 0.193165
325 0.209902
330 0.216584
335 0.241969
340 0.266084
345 0.236489
350 0.217031
355 0.241555
360 0.203317
365 0.237702
370 0.197454
375 0.198047
380 0.214749
385 0.248388
390 0.249175
395 0.296995
400 0.307391
405 0.204728
410 0.21723
415 0.231718
420 0.316158
425 0.260215
430 0.300783
435 0.294079
440 0.260431
445 0.392168
450 0.258883
455 0.256842
460 0.303934
465 0.268804
470 0.254062
475 0.231552
480 0.396723
485 0.337492
490 0.258001
495 0.308849
500 0.249529
505 0.333263
510 0.280554
515 0.368094
520 0.374038
525 0.438653
530 0.612905
535 0.633301
540 11.1781
545 194.177
550 317.738
555 90.6847
560 11.124
565 1.96568
570 0.812905
575 0.694893
580 0.459296
585 0.261532
590 0.411576
595 0.43649
600 0.125322
Ex : 558
200 0.225911
205 0.248975
210 0.234524
215 0.203425
220 0.284325
225 0.210334
230 0.259756
235 0.222927
240 0.201057
245 0.268863
250 0.191338
255 0.191868
260 0.245203
265 0.228351
270 0.290944
275 0.242601
280 0.222656
285 0.124024
290 0.193497
295 0.204123
300 0.238802
305 0.22807
310 0.286355
315 0.270332
320 0.304533
325 0.210441
330 0.219553
335 0.202199
340 0.288449
345 0.212357
350 0.210219
355 0.22657
360 0.186406
365 0.283042
370 0.240805
375 0.291866
380 0.268018
385 0.450516
390 0.335036
395 0.300959
400 0.18427
405 0.387105
410 0.271534
415 0.271304
420 0.366565
425 0.28181
430 0.27198
435 0.204674
440 0.301496
445 0.315436
450 0.373339
455 0.284682
460 0.305033
465 0.30271
470 0.216562
475 0.337001
480 0.281385
485 0.270929
490 0.270374
495 0.245221
500 0.294176
505 0.299549
510 0.282203
515 0.29574
520 0.253817
525 0.305475
530 0.345855
535 0.487656
540 0.616928
545 10.5993
550 189.214
555 317.36
560 88.698
565 10.9488
570 1.85946
575 0.692516
580 0.526855
585 0.43808
590 0.403043
595 0.33615
600 0.0382526
Ex : 563
200 0.326298
205 0.195411
210 0.23412
215 0.351914
220 0.296909
225 0.298366
230 0.255745
235 0.180422
240 0.169821
245 0.232264
250 0.291597
255 0.225214
260 0.242611
265 0.364292
270 0.292535
275 0.347133
280 0.330209
285 0.321867
290 0.257871
295 0.236586
300 0.302167
305 0.318549
310 0.234413
315 0.294867
320 0.238547
325 0.278102
330 0.367299
335 0.334015
340 0.299162
345 0.233252
350 0.284991
355 0.243698
360 0.260112
365 0.179698
370 0.26825
375 0.189336
380 0.290489
385 0.259128
390 0.289372
395 0.271213
400 0.26602
405 0.223916
410 0.296084
415 0.251033
420 0.285121
425 0.294555
430 0.221519
435 0.356851
440 0.372715
445 0.237046
450 0.290898
455 0.295833
460 0.201686
465 0.293577
470 0.259676
475 0.323582
480 0.26726
485 0.235508
490 0.314214
495 0.403114
500 0.298471
505 0.277127
510 0.297098
515 0.480105
520 0.407621
525 0.367201
530 0.343926
535 0.428986
540 0.527326
545 0.750353
550 11.436
555 186.682
560 304.347
565 86.8837
570 10.7947
575 1.71197
580 0.539057
585 0.45468
590 0.498528
595 0.330807
600 0.578574
Ex : 568
200 0.267681
205 0.272739
210 0.220456
215 0.220596
220 0.292045
225 0.290311
230 0.258962
235 0.392651
240 0.273987
245 0.219259
250 0.191803
255 0.368315
260 0.300184
265 0.254058
270 0.313247
275 0.206489
280 0.332498
285 0.239496
290 0.231502
295 0.315208
300 0.228692
305 0.262569
310 0.326259
315 0.257061
320 0.264414
325 0.281634
330 0.193892
335 0.306556
340 0.255945
345 0.186353
350 0.23324
355 0.197149
360 0.323969
365 0.311347
370 0.241806
375 0.28594
380 0.200165
385 0.270859
390 0.249331
395 0.308587
400 0.322252
405 0.38784
410 0.240354
415 0.264587
420 0.340371
425 0.233457
430 0.345192
435 0.350092
440 0.330616
445 0.285598
450 0.219591
455 0.282473
460 0.2637
465 0.338911
470 0.241673
475 0.213417
480 0.308315
485 0.31468
490 0.281222
495 0.276665
500 0.241976
505 0.347228
510 0.328818
515 0.362042
520 0.312182
525 0.289208
530 0.320659
535 0.478686
540 0.412651
545 0.4916
550 0.543621
555 8.67779
560 165.557
565 290.274
570 85.903
575 10.6396
580 1.6516
585 0.539162
590 0.496845
595 0.388865
600 0.316484
Ex : 573
200 0.297289
205 0.230572
210 0.331672
215 0.341357
220 0.332945
225 0.244012
230 0.20943
235 0.247154
240 0.299468
245 0.241877
250 0.233238
255 0.251016
260 0.341655
265 0.239263
270 0.183855
275 0.311865
280 0.253476
285 0.374011
290 0.345702
295 0.230802
300 0.226062
305 0.226538
310 0.275286
315 0.357868
320 0.294853
325 0.241132
330 0.250997
335 0.244192
340 0.317569
345 0.341505
350 0.281902
355 0.285716
360 0.287468
365 0.238994
370 0.274046
375 0.322544
380 0.313869
385 0.313398
390 0.362625
395 0.272744
400 0.324468
405 0.27034
410 0.253291
415 0.363976
420 0.215283
425 0.282193
430 0.254355
435 0.365893
440 0.330645
445 0.242857
450 0.281601
455 0.359226
460 0.278957
465 0.262315
470 0.252636
475 0.446808
480 0.333121
485 0.287737
490 0.314053
495 0.249016
500 0.290032
505 0.410408
510 0.338018
515 0.375923
520 0.391565
525 0.333475
530 0.289042
535 0.390518
540 0.278303
545 0.323323
550 0.391678
555 0.477137
560 7.31735
565 143.012
570 263.715
575 82.313
580 10.248
585 1.54308
590 0.538644
595 0.58966
600 0.067101
Ex : 578
200 0.252447
205 0.214796
210 0.224424
215 0.234678
220 0.235477
225 0.272833
230 0.363863
235 0.289936
240 0.271308
245 0.344969
250 0.287471
255 0.246793
260 0.20779
265 0.266537
270 0.252662
275 0.377678
280 0.320927
285 0.294849
290 0.235843
295 0.305321
300 0.19082
305 0.343794
310 0.353654
315 0.371292
320 0.390958
325 0.281425
330 0.266498
335 0.178374
340 0.313623
345 0.309835
350 0.303832
355 0.221207
360 0.308241
365 0.249474
370 0.325908
375 0.305925
380 0.349911
385 0.250975
390 0.207881
395 0.314763
400 0.38785
405 0.241433
410 0.261857
415 0.335232
420 0.282117
425 0.325437
430 0.302059
435 0.292205
440 0.210167
445 0.335772
450 0.389579
455 0.318493
460 0.376416
465 0.410205
470 0.278456
475 0.292231
480 0.233318
485 0.306007
490 0.337443
495 0.274592
500 0.275814
505 0.280055
510 0.349643
515 0.276622
520 0.31418
525 0.241936
530 0.322484
535 0.287415
540 0.293635
545 0.31768
550 0.380227
555 0.487927
560 0.511473
565 6.81613
570 129.468
575 228.379
580 68.4058
585 8.53701
590 1.35909
595 0.528524
600 0.586909
Ex : 583
200 0.233815
205 0.223168
210 0.263396
215 0.243167
220 0.217692
225 0.209787
230 0.175606
235 0.267633
240 0.249833
245 0.234906
250 0.262706
255 0.260275
260 0.48117
265 0.267102
270 0.330448
275 0.228623
280 0.292503
285 0.254306
290 0.30852
295 0.217109
300 0.13268
305 0.269063
310 0.318878
315 0.304064
320 0.343004
325 0.24443
330 0.315062
335 0.274271
340 0.302841
345 0.247721
350 0.291541
355 0.267133
360 0.355052
365 0.249335
370 0.33496
375 0.234612
380 0.253221
385 0.306739
390 0.317448
395 0.227296
400 0.322385
405 0.35575
410 0.33978
415 0.396062
420 0.241414
425 0.278474
430 0.342668
435 0.409611
440 0.273809
445 0.32397
450 0.307299
455 0.312696
460 0.313749
465 0.284545
470 0.305
475 0.341693
480 0.322638
485 0.279402
490 0.254718
495 0.183306
500 0.347749
505 0.233115
510 0.272082
515 0.328349
520 0.237564
525 0.308378
530 0.41397
535 0.30754
540 0.342365
545 0.310309
550 0.308719
555 0.413867
560 0.421082
565 0.371254
570 5.72226
575 113.503
580 208.577
585 58.2431
590 7.2357
595 1.15894
600 0.712059
Ex : 588
200 0.243689
205 0.267288
210 0.324403
215 0.276125
220 0.277405
225 0.203951
230 0.186094
235 0.211269
240 0.350207
245 0.241341
250 0.338662
255 0.296222
260 0.321237
265 0.366174
270 0.274548
275 0.317319
280 0.257582
285 0.421256
290 0.358778
295 0.313251
300 0.258934
305 0.196427
310 0.385976
315 0.268607
320 0.324506
325 0.336432
330 0.304067
335 0.288363
340 0.311686
345 0.320606
350 0.336505
355 0.310887
360 0.229003
365 0.327823
370 0.280114
375 0.323233
380 0.323739
385 0.254816
390 0.258152
395 0.291741
400 0.295533
405 0.391554
410 0.421335
415 0.345129
420 0.308317
425 0.33206
430 0.271157
435 0.218184
440 0.259504
445 0.283452
450 0.377153
455 0.291396
460 0.232638
465 0.229457
470 0.247151
475 0.244745
480 0.292091
485 0.254711
490 0.27149
495 0.380765
500 0.245297
505 0.220766
510 0.232912
515 0.322584
520 0.276397
525 0.341293
530 0.305638
535 0.252918
540 0.294156
545 0.416884
550 0.388178
555 0.34852
560 0.365512
565 0.513785
570 0.395739
575 4.30759
580 95.4188
585 177.141
590 53.2894
595 6.53494
600 1.49097
Ex : 593
200 0.232579
205 0.24367
210 0.264313
215 0.267226
220 0.264606
225 0.317662
230 0.299425
235 0.265285
240 0.379259
245 0.357559
250 0.222622
255 0.236295
260 0.27803
265 0.305604
270 0.266659
275 0.331233
280 0.270328
285 0.314674
290 0.231027
295 0.26544
300 0.244859
305 0.185975
310 0.304217
315 0.316066
320 0.300513
325 0.353513
330 0.330274
335 0.330675
340 0.29681
345 0.386029
350 0.328055
355 0.252508
360 0.322222
365 0.346667
370 0.263048
375 0.294856
380 0.277161
385 0.618071
390 0.313703
395 0.225964
400 0.215296
405 0.448731
410 0.335575
415 0.448822
420 0.516154
425 0.247765
430 0.316207
435 0.348568
440 0.286681
445 0.438786
450 0.443873
455 0.39703
460 0.359975
465 0.26945
470 0.312122
475 0.289542
480 0.327751
485 0.292136
490 0.253438
495 0.223285
500 0.26595
505 0.296503
510 0.263582
515 0.364039
520 0.321891
525 0.294503
530 0.314433
535 0.291458
540 0.38982
545 0.255016
550 0.359891
555 0.337504
560 0.226315
565 0.476822
570 0.333568
575 0.471108
580 4.06166
585 165.408
590 474.837
595 92.8894
600 13.4584
Ex : 598
200 0.204454
205 0.375116
210 0.238759
215 0.272305
220 0.282805
225 0.271799
230 0.265946
235 0.258376
240 0.250223
245 0.180119
250 0.285434
255 0.303656
260 0.272119
265 0.25947
270 0.20687
275 0.277556
280 0.360482
285 0.318241
290 0.288058
295 0.307725
300 0.291415
305 0.252562
310 0.252787
315 0.253045
320 0.234914
325 0.266764
330 0.288565
335 0.281455
340 0.252632
345 0.252548
350 0.276482
355 0.261958
360 0.320812
365 0.215705
370 0.24238
375 0.363436
380 0.313171
385 0.328911
390 0.344856
395 0.337694
400 0.43825
405 0.266077
410 0.227958
415 0.25877
420 0.420937
425 0.307627
430 0.295482
435 0.360474
440 0.570365
445 0.312041
450 0.305859
455 0.284743
460 0.401182
465 0.236344
470 0.321029
475 0.347048
480 0.242093
485 0.268584
490 0.295944
495 0.174366
500 0.300249
505 0.293494
510 0.29699
515 0.231413
520 0.365126
525 0.264525
530 0.299718
535 0.369798
540 0.348609
545 0.313285
550 0.299736
555 0.356489
560 0.315921
565 0.482221
570 0.44147
575 0.411526
580 0.428989
585 3.77431
590 69.7217
595 127.658
600 81.0518
Ex : 603
200 0.303006
205 0.364061
210 0.271152
215 0.291072
220 0.350775
225 0.278001
230 0.251297
235 0.283306
240 0.245551
245 0.260014
250 0.332147
255 0.181588
260 0.277995
265 0.427172
270 0.511202
275 0.331728
280 0.243951
285 0.340001
290 0.301423
295 0.300216
300 0.332359
305 0.31744
310 0.355056
315 0.21707
320 0.327216
325 0.211114
330 0.245891
335 0.37411
340 0.330319
345 0.348264
350 0.342298
355 0.385159
360 0.23259
365 0.183141
370 0.511463
375 0.313175
380 0.305741
385 0.340559
390 0.393343
395 0.277088
400 0.261182
405 0.251855
410 0.383466
415 0.352022
420 0.262946
425 0.274943
430 0.246317
435 0.305147
440 0.39331
445 0.353283
450 0.366831
455 0.408878
460 0.293158
465 0.358176
470 0.276042
475 0.470587
480 0.296127
485 0.411879
490 0.357756
495 0.370337
500 0.299814
505 0.344325
510 0.356235
515 0.482211
520 0.365952
525 0.2756
530 0.269063
535 0.408722
540 0.273895
545 0.305482
550 0.366305
555 0.389072
560 0.421998
565 0.393485
570 0.358999
575 0.350523
580 0.331452
585 0.314086
590 3.31382
595 62.4192
600 114.267
