File format V 1.0
sam. 21. janv. 05:16:42 2017
Operator : 
Comments : 

=============================================
SpectroFluorometer parameters
Mode : 3D measurement
Data : Fluorescence
Phospho. : Ordinary
Spectrum : Fluorescence

Scan speed : 2400 nm/mn
Response : 100 ms
PM Voltage : 700 V
Shutter : On

Lambda Ex. Start : 203
Lambda Ex. End : 603
Lambda Ex. Step : 5
Ex. Slit : 5 nm

Lambda Em. Start : 200
Lambda Em. End : 600
Lambda Em. Step : 5
Em. Slit : 5 nm

Repetition : 1
Decal lambda em : 10
=============================================
DATA
Ex : 203
200 3.39336
205 2.89785
210 4.89438
215 3.02878
220 5.04803
225 7.27513
230 4.43786
235 4.07155
240 2.69674
245 4.92616
250 5.54659
255 4.41477
260 6.78083
265 4.61813
270 5.23664
275 4.67878
280 6.09685
285 6.29869
290 3.68555
295 3.22718
300 5.90246
305 4.50236
310 5.11152
315 5.23314
320 8.22037
325 4.72594
330 6.31836
335 4.78001
340 4.53854
345 5.90793
350 7.61346
355 7.57758
360 3.09707
365 3.74032
370 4.61144
375 4.76685
380 3.54191
385 5.36397
390 2.86208
395 4.52131
400 7.0939
405 5.29676
410 3.87785
415 5.1737
420 4.36299
425 6.23816
430 5.09591
435 6.75619
440 4.03905
445 4.5637
450 5.96446
455 4.7801
460 8.28439
465 6.30611
470 4.08255
475 4.7245
480 4.1464
485 3.87891
490 3.85022
495 4.06183
500 6.10298
505 4.39343
510 4.61034
515 5.69568
520 6.45924
525 4.7557
530 5.82241
535 8.50206
540 5.50227
545 5.29593
550 3.90993
555 4.25746
560 5.11736
565 6.23695
570 5.37548
575 3.87294
580 5.69801
585 4.47443
590 4.07315
595 6.63924
600 12.867
Ex : 208
200 6.55779
205 7.47254
210 4.77433
215 3.91463
220 5.90116
225 6.89401
230 4.94751
235 4.65214
240 3.74361
245 4.66161
250 3.55243
255 3.43031
260 3.83242
265 4.35242
270 3.76708
275 4.05644
280 3.9019
285 4.77605
290 4.66254
295 6.18899
300 5.0517
305 4.15216
310 6.08658
315 5.79475
320 8.25731
325 4.6927
330 6.16539
335 3.75311
340 3.5394
345 3.74441
350 3.5169
355 6.1741
360 5.23676
365 3.93793
370 4.03384
375 4.66094
380 5.45991
385 3.86604
390 4.26252
395 6.20958
400 4.41705
405 4.47686
410 3.64979
415 4.27213
420 4.37512
425 5.19198
430 4.74948
435 5.12133
440 4.88721
445 5.30461
450 4.60472
455 4.91847
460 7.98333
465 4.77634
470 3.94064
475 7.16313
480 5.32078
485 3.96258
490 4.74561
495 3.89361
500 4.92835
505 4.8434
510 7.26427
515 4.21867
520 6.95026
525 6.93702
530 6.71733
535 9.03406
540 4.64595
545 4.40919
550 4.80993
555 8.6299
560 5.82663
565 5.11589
570 7.73149
575 4.32286
580 3.97971
585 4.12829
590 6.35576
595 5.89051
600 0.670318
Ex : 213
200 4.4359
205 2.54261
210 2.95217
215 3.73526
220 3.16343
225 8.52311
230 8.05058
235 4.67591
240 5.77511
245 2.96884
250 3.86439
255 5.45735
260 6.33363
265 3.7178
270 4.04765
275 4.00974
280 6.77644
285 8.07031
290 4.76727
295 7.71269
300 6.27099
305 3.98507
310 3.02219
315 4.11728
320 6.91073
325 4.44258
330 4.6978
335 4.87097
340 4.0947
345 3.38362
350 5.53166
355 6.21484
360 7.13672
365 4.58495
370 4.10685
375 4.20712
380 5.60484
385 5.68167
390 3.33188
395 4.5709
400 4.95999
405 7.14193
410 4.66036
415 5.56097
420 5.15246
425 5.90355
430 4.05509
435 5.46914
440 4.92932
445 5.53971
450 6.22565
455 6.30071
460 7.42246
465 4.34998
470 3.73158
475 2.11979
480 3.69699
485 4.39417
490 4.93106
495 4.77634
500 4.45032
505 5.45792
510 4.9826
515 6.23081
520 5.88752
525 6.79955
530 4.31858
535 4.13568
540 4.07874
545 4.46129
550 7.01091
555 4.02905
560 4.86265
565 6.52219
570 4.31883
575 7.20961
580 5.22472
585 4.42048
590 5.12011
595 6.35872
600 16.2322
Ex : 218
200 3.32692
205 3.68293
210 4.20137
215 6.42647
220 5.11779
225 4.79074
230 6.80708
235 7.77336
240 5.10524
245 5.99282
250 4.76026
255 4.63221
260 5.02599
265 6.13085
270 4.99429
275 4.64222
280 4.18757
285 4.07151
290 5.54757
295 6.57953
300 3.55808
305 3.81586
310 6.36176
315 4.54996
320 5.21598
325 4.762
330 4.44843
335 5.63687
340 5.84172
345 6.02675
350 4.12448
355 4.64972
360 4.33605
365 5.91234
370 3.9681
375 6.54584
380 6.01846
385 5.20989
390 5.22082
395 6.41466
400 6.07377
405 3.17797
410 5.83711
415 2.56141
420 4.58936
425 4.61456
430 4.32805
435 5.3873
440 4.63138
445 3.44532
450 6.02698
455 5.25072
460 4.84845
465 6.52804
470 5.25364
475 5.66187
480 6.11692
485 5.98685
490 4.98832
495 5.29842
500 8.39339
505 4.97998
510 3.97696
515 4.16597
520 5.80446
525 8.51108
530 4.40988
535 5.97046
540 4.91871
545 6.36729
550 3.41389
555 5.28151
560 4.7053
565 4.13239
570 2.69265
575 6.93056
580 4.86163
585 4.1249
590 4.19558
595 4.71887
600 10.7283
Ex : 223
200 5.68571
205 3.46865
210 4.01026
215 4.00965
220 4.87427
225 5.3435
230 5.92529
235 8.64179
240 5.81088
245 5.0351
250 6.39478
255 4.17026
260 3.37336
265 4.69502
270 3.67666
275 4.47603
280 3.60884
285 6.68227
290 6.61538
295 5.28904
300 4.32393
305 3.88494
310 3.64087
315 3.89815
320 3.61332
325 5.18041
330 4.8993
335 5.18048
340 4.20705
345 5.01897
350 3.63218
355 6.07206
360 3.96608
365 4.69211
370 4.07452
375 4.85597
380 3.40948
385 4.94064
390 5.47043
395 5.10967
400 4.55595
405 6.07578
410 5.79885
415 3.73954
420 5.11094
425 4.31277
430 3.35488
435 4.57733
440 4.21982
445 3.18636
450 5.3194
455 4.19175
460 4.93799
465 5.0497
470 3.14844
475 6.1888
480 4.39314
485 5.38834
490 6.56166
495 7.53088
500 5.06434
505 5.87648
510 3.08043
515 5.59651
520 3.66927
525 8.0389
530 6.15266
535 6.63022
540 2.71419
545 4.78249
550 6.06305
555 5.26795
560 4.12168
565 5.6436
570 4.05854
575 5.38239
580 3.56931
585 3.42921
590 5.69448
595 7.40314
600 6.15967
Ex : 228
200 4.12381
205 2.8245
210 3.41507
215 5.39985
220 7.5243
225 5.27471
230 5.26427
235 3.04866
240 4.48254
245 3.96251
250 3.74793
255 3.47408
260 5.69251
265 4.68723
270 3.7828
275 4.91165
280 3.49343
285 3.24401
290 5.43807
295 3.82765
300 3.69331
305 2.32496
310 5.68934
315 6.57973
320 2.27755
325 3.77879
330 5.08773
335 6.29374
340 6.11556
345 3.04305
350 3.57156
355 6.01905
360 4.56682
365 2.91122
370 3.42324
375 6.8036
380 4.95813
385 5.22933
390 5.67341
395 4.2835
400 4.81522
405 5.57264
410 4.19831
415 4.27518
420 6.13759
425 3.58787
430 4.88362
435 7.57447
440 4.4146
445 3.41009
450 3.87916
455 3.86021
460 3.13873
465 3.06113
470 3.61546
475 4.26704
480 6.11763
485 3.45015
490 6.24475
495 7.11325
500 5.5115
505 4.27882
510 6.43044
515 6.38599
520 5.92998
525 4.40023
530 6.12566
535 3.61949
540 5.82347
545 5.76672
550 5.57869
555 4.7154
560 4.719
565 5.99729
570 3.21677
575 4.16868
580 3.5264
585 4.93311
590 6.23861
595 6.40178
600 0.728498
Ex : 233
200 4.37652
205 3.02449
210 2.91189
215 4.37276
220 4.67209
225 6.12418
230 3.76454
235 4.91646
240 6.87612
245 5.6698
250 4.76605
255 3.71403
260 4.13588
265 3.69421
270 4.4394
275 2.82156
280 3.29762
285 2.76148
290 4.39078
295 4.48177
300 4.03229
305 3.98441
310 2.72062
315 5.86128
320 7.63426
325 4.26841
330 3.5694
335 3.47734
340 4.37207
345 4.50954
350 5.30955
355 3.72107
360 5.72945
365 5.0189
370 5.88835
375 4.14399
380 5.34569
385 5.19279
390 4.45799
395 4.5564
400 6.21441
405 5.86524
410 4.62839
415 3.20361
420 5.26519
425 5.644
430 6.07814
435 5.16718
440 4.12893
445 3.70121
450 2.88665
455 2.47955
460 7.04814
465 6.62845
470 6.45631
475 5.3212
480 4.43941
485 3.45153
490 3.7496
495 3.82066
500 4.16949
505 6.03163
510 4.66854
515 5.31003
520 5.78836
525 4.79954
530 3.39959
535 4.0648
540 9.02655
545 7.40934
550 5.26637
555 3.2166
560 3.90308
565 5.14143
570 3.44143
575 3.18995
580 3.87513
585 4.48357
590 4.78352
595 4.75096
600 10.6434
Ex : 238
200 2.46274
205 2.61143
210 3.83843
215 2.5576
220 4.35904
225 3.62576
230 2.63498
235 3.43391
240 4.84555
245 2.95485
250 3.66126
255 4.37708
260 5.33035
265 2.94105
270 4.34004
275 3.17248
280 5.84358
285 5.03995
290 4.64297
295 2.59503
300 4.82703
305 6.69294
310 3.21749
315 3.72809
320 4.33092
325 2.91377
330 5.1338
335 6.52989
340 3.06892
345 5.53066
350 5.06372
355 3.07722
360 5.359
365 3.33266
370 3.5145
375 3.59754
380 3.43986
385 4.78336
390 4.07572
395 3.51943
400 3.83673
405 3.06252
410 4.09956
415 6.35244
420 3.49184
425 6.6601
430 3.76056
435 4.98907
440 4.10905
445 6.06263
450 3.77809
455 2.97735
460 5.24896
465 3.09601
470 3.93883
475 3.13007
480 3.58356
485 4.9412
490 4.67896
495 4.8014
500 4.1746
505 4.09806
510 4.7641
515 2.34558
520 3.23038
525 4.55542
530 3.93709
535 2.96119
540 4.86646
545 1.95723
550 2.63664
555 2.8772
560 3.77454
565 5.48221
570 6.4254
575 4.45665
580 4.21725
585 2.93742
590 2.96208
595 4.62671
600 2.59431
Ex : 243
200 4.95563
205 3.12991
210 3.22522
215 2.78366
220 3.85552
225 3.10035
230 2.80738
235 1.99548
240 3.48223
245 3.38868
250 2.94015
255 2.18286
260 2.79025
265 5.65034
270 2.24886
275 2.59977
280 3.11891
285 3.15617
290 3.67215
295 4.54436
300 4.46715
305 4.93044
310 1.90203
315 4.25226
320 2.45852
325 2.13274
330 4.48195
335 2.32189
340 3.9899
345 2.5248
350 3.18735
355 2.35134
360 3.30064
365 2.8972
370 2.93404
375 4.20364
380 4.41805
385 3.16736
390 3.47913
395 3.41943
400 4.61316
405 2.81583
410 4.11763
415 3.07068
420 2.70487
425 2.36463
430 3.46299
435 2.63211
440 2.49905
445 3.9794
450 3.3456
455 2.62658
460 4.6217
465 4.36615
470 2.97345
475 2.5994
480 5.31564
485 4.08963
490 4.77624
495 3.32915
500 2.83763
505 2.31687
510 4.90998
515 3.90794
520 2.20239
525 4.01187
530 2.98509
535 3.30439
540 4.7643
545 3.98147
550 4.04204
555 4.86022
560 3.1767
565 3.33013
570 2.39819
575 4.03312
580 3.02168
585 3.48558
590 5.52267
595 2.5109
600 5.15985
Ex : 248
200 2.30362
205 3.98318
210 3.94767
215 2.60904
220 4.115
225 3.61609
230 2.31671
235 2.06446
240 2.50301
245 2.96117
250 3.3587
255 2.51361
260 3.52844
265 3.05245
270 2.79328
275 5.5154
280 1.62624
285 2.55086
290 2.88411
295 2.43097
300 4.03455
305 3.21129
310 2.71261
315 1.95523
320 3.44744
325 2.97203
330 3.8281
335 3.28451
340 3.3062
345 2.914
350 3.07581
355 2.87268
360 2.61751
365 2.18478
370 3.38382
375 3.23467
380 3.38272
385 1.89505
390 2.26548
395 3.01318
400 3.75594
405 3.00976
410 2.98538
415 4.19031
420 3.49555
425 4.31082
430 3.49062
435 3.57149
440 3.83655
445 2.7796
450 3.29233
455 3.86926
460 2.74028
465 1.96764
470 3.64649
475 2.96505
480 2.12505
485 3.54712
490 4.31008
495 2.54045
500 3.40243
505 3.97681
510 3.55679
515 1.99362
520 2.17702
525 3.07075
530 4.23917
535 3.4965
540 2.01286
545 3.1373
550 3.75065
555 2.77827
560 2.47466
565 1.63262
570 3.17703
575 2.47439
580 2.36584
585 3.74274
590 2.75536
595 2.4672
600 5.74568
Ex : 253
200 2.44213
205 2.82467
210 1.813
215 2.37826
220 1.92588
225 2.70726
230 1.74762
235 1.33828
240 1.86465
245 2.56166
250 2.77417
255 1.68371
260 4.16871
265 2.71299
270 3.29669
275 2.46541
280 4.23374
285 3.07847
290 2.43438
295 1.97228
300 2.34838
305 1.55056
310 2.33921
315 3.08398
320 2.05114
325 2.06745
330 1.8498
335 2.41749
340 2.32855
345 2.92788
350 2.91473
355 3.23105
360 2.33302
365 2.15777
370 2.77007
375 2.5437
380 2.0598
385 2.74495
390 2.49918
395 1.87497
400 3.96707
405 3.85812
410 1.71148
415 3.46344
420 3.48637
425 2.08801
430 2.69237
435 2.85561
440 4.02066
445 3.56456
450 2.75172
455 2.34533
460 1.2948
465 1.89708
470 2.52551
475 3.29076
480 2.99713
485 2.84564
490 3.20504
495 2.89673
500 2.55238
505 2.64873
510 2.85688
515 2.31906
520 1.88117
525 1.96293
530 2.31288
535 2.43514
540 2.84494
545 2.93836
550 2.30372
555 1.91571
560 1.84491
565 2.3985
570 2.63752
575 3.3733
580 3.30961
585 1.93425
590 2.26718
595 2.44057
600 2.29183
Ex : 258
200 2.30597
205 1.71288
210 1.82859
215 2.49871
220 1.74212
225 2.14857
230 1.57381
235 2.73355
240 2.5116
245 1.93162
250 1.61998
255 1.46746
260 2.38418
265 2.6534
270 1.85406
275 2.42391
280 1.71591
285 2.20062
290 1.59234
295 2.73962
300 2.26005
305 1.9044
310 1.44624
315 1.28813
320 1.51049
325 2.26104
330 2.80406
335 1.90233
340 1.73345
345 1.66719
350 1.75708
355 2.15165
360 1.86984
365 1.81954
370 1.96258
375 2.11257
380 1.89522
385 1.69267
390 1.89907
395 2.15351
400 1.57606
405 3.01554
410 1.46776
415 2.50322
420 1.82388
425 2.2334
430 3.1525
435 2.46818
440 2.00423
445 1.93376
450 2.92442
455 1.71133
460 1.23334
465 3.04955
470 2.06081
475 1.78058
480 1.82008
485 1.86875
490 2.07246
495 2.42249
500 1.45948
505 1.95573
510 2.11673
515 2.94467
520 2.76621
525 1.59237
530 1.71192
535 2.43717
540 1.99257
545 2.82697
550 2.79077
555 1.96672
560 2.09657
565 1.97547
570 1.68644
575 1.72169
580 3.19238
585 2.24752
590 1.13525
595 1.84568
600 5.14745
Ex : 263
200 0.907463
205 2.58051
210 1.61018
215 1.17321
220 2.21211
225 1.55568
230 1.83883
235 1.26137
240 1.27799
245 1.8617
250 1.31994
255 1.52979
260 1.89498
265 1.21983
270 2.03273
275 1.70966
280 1.2336
285 1.08197
290 2.5003
295 1.66248
300 1.34138
305 1.40951
310 0.881017
315 1.33857
320 1.36369
325 1.35602
330 2.0959
335 1.32994
340 2.19735
345 1.51435
350 1.52248
355 1.3616
360 2.66762
365 1.65225
370 2.14471
375 1.71441
380 1.47275
385 1.52008
390 1.49765
395 1.80763
400 1.56075
405 1.91016
410 1.46237
415 1.46493
420 1.71413
425 1.19488
430 2.02269
435 1.35507
440 1.52682
445 2.26865
450 1.09793
455 1.97815
460 1.55836
465 1.95372
470 2.00409
475 1.58227
480 1.44815
485 0.995445
490 1.14165
495 2.0168
500 1.96974
505 1.68954
510 1.41676
515 1.64797
520 2.69513
525 2.21399
530 2.29929
535 1.5594
540 1.43036
545 3.19798
550 1.78346
555 1.00243
560 1.57644
565 1.94109
570 1.98535
575 1.3525
580 1.45912
585 1.76792
590 1.57883
595 1.88288
600 0.214264
Ex : 268
200 1.22959
205 1.07426
210 1.39299
215 1.44984
220 0.817316
225 0.804911
230 0.935448
235 1.16105
240 1.28703
245 1.13277
250 1.22076
255 1.19187
260 1.47021
265 0.941697
270 1.98785
275 1.58781
280 2.33366
285 1.17369
290 1.81318
295 1.3747
300 1.75458
305 0.89814
310 1.2268
315 1.17196
320 1.028
325 1.07013
330 1.07259
335 1.28311
340 1.30757
345 1.25237
350 1.38195
355 2.24101
360 1.2064
365 1.2603
370 1.00965
375 0.958696
380 0.958064
385 0.920854
390 1.81113
395 1.33032
400 0.940514
405 1.52453
410 1.26081
415 1.20232
420 1.43344
425 1.01999
430 1.30691
435 1.10739
440 1.76753
445 2.02697
450 2.00516
455 1.45872
460 1.01864
465 1.01997
470 1.47388
475 1.66671
480 1.23295
485 1.02862
490 1.36426
495 1.45627
500 1.03782
505 0.968561
510 1.02366
515 1.47972
520 1.32897
525 2.08906
530 1.53076
535 1.22162
540 1.43091
545 1.42417
550 1.04827
555 1.29205
560 1.07513
565 1.03929
570 1.1033
575 1.27531
580 1.87286
585 1.91568
590 1.25621
595 1.16869
600 0.132992
Ex : 273
200 0.856464
205 0.722766
210 0.611042
215 0.581505
220 1.08032
225 0.85285
230 0.891159
235 0.941108
240 0.756241
245 1.07517
250 1.25477
255 0.854629
260 0.788236
265 0.691973
270 0.834322
275 0.757911
280 1.49565
285 1.27584
290 0.946459
295 0.554571
300 0.750754
305 1.00098
310 0.706688
315 0.893712
320 1.02982
325 0.811144
330 0.781479
335 0.999964
340 0.500484
345 1.75226
350 1.45422
355 1.14618
360 1.31059
365 1.1071
370 1.32807
375 0.898036
380 1.64434
385 1.09046
390 1.09125
395 1.14028
400 1.2129
405 1.37411
410 1.7269
415 1.39836
420 1.13636
425 1.36914
430 1.53877
435 1.27625
440 1.52998
445 0.997998
450 1.33823
455 1.36355
460 1.45201
465 1.13362
470 1.31574
475 0.964239
480 0.978739
485 0.940323
490 1.08133
495 1.09012
500 1.18629
505 1.21415
510 1.0629
515 1.09032
520 1.20354
525 0.784436
530 1.21997
535 1.49704
540 1.17639
545 1.10173
550 1.08014
555 0.933134
560 1.27807
565 1.12112
570 0.82224
575 1.36919
580 0.914689
585 0.867326
590 0.880694
595 1.02263
600 0.116371
Ex : 278
200 0.779621
205 0.917882
210 0.517398
215 0.670781
220 0.966061
225 0.98484
230 0.915215
235 0.642175
240 0.717845
245 0.668727
250 0.927674
255 0.906478
260 0.716088
265 0.942392
270 0.990624
275 0.652489
280 0.65523
285 0.558205
290 0.379223
295 0.865551
300 0.833345
305 0.744667
310 0.623648
315 1.07316
320 1.07379
325 0.882917
330 0.694102
335 0.784418
340 0.960068
345 1.05229
350 0.909685
355 1.01753
360 1.43154
365 0.609199
370 0.969584
375 0.966415
380 0.802078
385 1.10974
390 0.860325
395 1.22389
400 1.27629
405 1.23282
410 1.22335
415 0.825669
420 1.02581
425 1.03756
430 0.959359
435 1.02908
440 1.71724
445 0.82022
450 1.05844
455 0.964416
460 0.899044
465 1.04494
470 1.11712
475 0.899228
480 0.824447
485 0.76077
490 0.848286
495 0.743735
500 0.8789
505 1.45989
510 0.599714
515 0.997883
520 0.82
525 0.841334
530 0.737548
535 0.848968
540 0.616711
545 1.1106
550 1.35239
555 1.07796
560 1.09287
565 0.872651
570 0.698527
575 0.628058
580 0.908635
585 0.707373
590 1.0409
595 0.630809
600 4.2741
Ex : 283
200 0.77377
205 0.51557
210 0.828872
215 0.456541
220 0.649775
225 0.77447
230 0.437369
235 0.799636
240 1.02802
245 0.739326
250 0.69325
255 0.57521
260 1.00217
265 0.756125
270 0.858662
275 0.778084
280 0.839306
285 0.783863
290 0.797104
295 0.693186
300 0.80193
305 0.691702
310 0.581362
315 0.488465
320 0.617042
325 0.540209
330 0.51766
335 0.689031
340 0.868823
345 0.659757
350 0.724492
355 0.946243
360 0.647463
365 0.760035
370 0.67039
375 1.03057
380 1.08318
385 0.778537
390 0.662953
395 0.760475
400 0.777518
405 1.03582
410 0.81945
415 0.678524
420 1.26154
425 1.1213
430 1.22616
435 1.06247
440 0.864746
445 0.656537
450 0.857348
455 0.79919
460 0.84862
465 0.829056
470 0.846937
475 0.65451
480 0.686285
485 0.864529
490 0.769571
495 0.717307
500 0.647126
505 1.21891
510 0.690162
515 0.843922
520 0.857828
525 0.852925
530 0.679607
535 0.528335
540 0.749851
545 0.703364
550 0.764646
555 0.551523
560 0.998264
565 0.828564
570 0.702559
575 0.778574
580 0.831429
585 0.72652
590 0.732834
595 0.896484
600 0.102016
Ex : 288
200 0.648485
205 0.598842
210 0.685446
215 0.687421
220 0.426201
225 0.277102
230 0.419496
235 0.460075
240 0.530973
245 0.474412
250 0.439699
255 0.604282
260 0.300807
265 0.678921
270 0.699863
275 0.456897
280 0.548662
285 0.614765
290 0.638818
295 0.509183
300 0.610782
305 0.459236
310 0.700954
315 0.529019
320 0.434625
325 0.540211
330 0.452038
335 0.521367
340 0.605478
345 0.48548
350 0.791462
355 0.536579
360 0.756694
365 0.751251
370 0.998474
375 0.758623
380 0.830442
385 0.819217
390 0.653242
395 0.750213
400 0.693722
405 1.02063
410 0.836863
415 0.96582
420 0.775664
425 0.777103
430 0.842996
435 0.931054
440 0.657006
445 0.648884
450 1.04311
455 0.995037
460 0.878051
465 0.799631
470 0.988522
475 0.74908
480 0.685814
485 0.59212
490 1.58799
495 0.921913
500 0.703909
505 1.07899
510 0.987362
515 0.662819
520 0.564434
525 0.430515
530 0.588247
535 0.386369
540 0.451075
545 0.379989
550 0.735957
555 0.649453
560 0.607975
565 1.05749
570 0.741953
575 0.796898
580 0.719225
585 0.549564
590 0.600626
595 0.66163
600 0.0752909
Ex : 293
200 0.609501
205 0.606769
210 0.308449
215 0.347928
220 0.539265
225 0.522192
230 0.672328
235 0.502439
240 0.600714
245 0.614922
250 0.701783
255 0.469387
260 0.624082
265 0.468442
270 0.368792
275 0.311316
280 0.315945
285 0.486695
290 0.764431
295 0.591816
300 0.584124
305 0.487533
310 0.341583
315 0.431659
320 0.480213
325 0.625465
330 0.872535
335 0.617159
340 0.5319
345 0.515401
350 0.625129
355 0.762788
360 0.793575
365 0.738871
370 0.412179
375 0.647835
380 0.622906
385 0.569532
390 0.622854
395 0.81446
400 0.792649
405 0.636629
410 0.653951
415 0.727812
420 0.86088
425 0.647445
430 0.664338
435 0.680535
440 0.655256
445 0.753171
450 0.557726
455 0.728224
460 0.64352
465 0.536511
470 0.557378
475 0.73432
480 0.582026
485 0.488974
490 0.653768
495 0.498859
500 0.86302
505 0.664991
510 0.708857
515 0.644575
520 0.450029
525 0.85068
530 0.38377
535 0.393255
540 0.422058
545 0.585659
550 0.798089
555 0.689366
560 0.499542
565 0.616265
570 0.519731
575 0.74152
580 0.666757
585 0.670764
590 0.445934
595 0.69979
600 0.0796335
Ex : 298
200 0.330335
205 0.313824
210 0.470976
215 0.385135
220 0.335086
225 0.402868
230 0.862521
235 0.43195
240 0.637736
245 0.536564
250 0.397758
255 0.407935
260 0.391971
265 0.555324
270 0.381015
275 0.506311
280 0.488951
285 0.50828
290 0.474187
295 0.72965
300 0.34368
305 0.239481
310 0.591133
315 0.315789
320 0.550089
325 0.394424
330 0.444025
335 0.413957
340 0.61179
345 0.428644
350 0.559937
355 0.561345
360 0.814481
365 0.36053
370 0.680304
375 1.06437
380 0.647166
385 0.615174
390 0.593838
395 0.688547
400 0.899444
405 0.708099
410 0.544294
415 0.715242
420 0.963559
425 0.922772
430 0.537909
435 0.610636
440 0.850001
445 0.821769
450 0.512254
455 0.736581
460 0.545308
465 0.596143
470 0.389928
475 0.695258
480 0.604989
485 0.600051
490 0.541392
495 0.809
500 0.462936
505 0.588026
510 0.722337
515 0.489186
520 0.448603
525 0.633829
530 0.512812
535 0.254269
540 0.435615
545 0.469371
550 0.576328
555 0.612718
560 0.553075
565 0.549669
570 0.376186
575 0.474279
580 0.610433
585 0.683753
590 0.794607
595 0.567188
600 0.522925
Ex : 303
200 0.462772
205 0.241736
210 0.313855
215 0.371496
220 0.318511
225 0.360326
230 0.310059
235 0.310998
240 0.310819
245 0.486728
250 0.347389
255 0.36086
260 0.286164
265 0.453391
270 0.354991
275 0.263783
280 0.513518
285 0.291513
290 0.285597
295 0.477691
300 0.448192
305 0.314054
310 0.509784
315 0.381668
320 0.281853
325 0.254825
330 0.294827
335 0.269914
340 0.390503
345 0.495061
350 0.451333
355 0.529993
360 0.625953
365 0.516278
370 0.375435
375 0.596083
380 0.693671
385 0.582134
390 0.736475
395 0.601862
400 0.763073
405 0.71865
410 0.729846
415 0.741477
420 0.77247
425 0.612634
430 0.882123
435 0.67435
440 0.667647
445 0.745032
450 0.651927
455 0.543769
460 0.593409
465 0.577095
470 0.536878
475 0.536416
480 0.32831
485 0.573391
490 0.529117
495 0.597818
500 0.616296
505 0.579643
510 0.628742
515 0.36567
520 0.651177
525 0.229525
530 0.34493
535 0.570138
540 0.369132
545 0.38471
550 0.400829
555 0.460096
560 0.375426
565 0.445162
570 0.448486
575 0.291189
580 0.24495
585 0.341257
590 0.544322
595 0.578335
600 0.409712
Ex : 308
200 0.438602
205 0.36907
210 0.381493
215 0.471451
220 0.263532
225 0.442078
230 0.304894
235 0.379409
240 0.310111
245 0.340353
250 0.299996
255 0.208043
260 0.323577
265 0.44108
270 0.256701
275 0.385947
280 0.238997
285 0.333417
290 0.46195
295 0.344953
300 0.331558
305 0.630694
310 0.359723
315 0.23912
320 0.319884
325 0.365579
330 0.393872
335 0.408015
340 0.375366
345 0.428661
350 0.47003
355 0.577752
360 0.5793
365 0.584241
370 0.440678
375 0.715505
380 0.587424
385 0.7099
390 0.666518
395 0.657542
400 0.631279
405 0.584636
410 0.549759
415 0.711678
420 0.536079
425 0.594702
430 0.637174
435 0.58418
440 0.69507
445 0.682445
450 0.491353
455 0.495923
460 0.511512
465 0.640481
470 0.643411
475 0.557086
480 0.40061
485 0.484741
490 0.484862
495 0.368898
500 0.330891
505 0.424561
510 0.451515
515 0.508895
520 0.463
525 0.436672
530 0.457993
535 0.322336
540 0.339789
545 0.414451
550 0.377057
555 0.286108
560 0.474961
565 0.372856
570 0.400894
575 0.299465
580 0.385523
585 0.375064
590 0.261255
595 0.317436
600 1.51718
Ex : 313
200 0.177384
205 0.189541
210 0.224507
215 0.333663
220 0.277397
225 0.263256
230 0.248232
235 0.230325
240 0.244019
245 0.227855
250 0.265932
255 0.254624
260 0.28483
265 0.221552
270 0.29601
275 0.237776
280 0.281325
285 0.329409
290 0.484423
295 0.41473
300 0.227932
305 0.332049
310 0.565578
315 0.269482
320 0.301444
325 0.259013
330 0.278806
335 0.294029
340 0.338591
345 0.333268
350 0.313047
355 0.47292
360 0.692834
365 0.63624
370 0.803464
375 0.800794
380 0.656417
385 0.830036
390 1.0778
395 0.957916
400 0.86428
405 0.949495
410 1.05762
415 0.881405
420 1.24962
425 0.995584
430 1.02291
435 0.963093
440 0.940769
445 0.900988
450 0.987242
455 0.799655
460 0.966758
465 0.697771
470 0.619531
475 0.691916
480 0.676173
485 0.675453
490 0.614508
495 0.524946
500 0.514821
505 0.420468
510 0.458412
515 0.463732
520 0.418822
525 0.326189
530 0.402706
535 0.345139
540 0.360496
545 0.3346
550 0.357229
555 0.376429
560 0.393392
565 0.322835
570 0.384327
575 0.266153
580 0.209017
585 0.289746
590 0.387651
595 0.462806
600 0.0526655
Ex : 318
200 0.26101
205 0.238456
210 0.238636
215 0.214382
220 0.306541
225 0.277222
230 0.342666
235 0.262377
240 0.208618
245 0.32587
250 0.2713
255 0.184353
260 0.189875
265 0.42305
270 0.195323
275 0.247029
280 0.227223
285 0.140542
290 0.313105
295 0.27922
300 0.175225
305 0.257615
310 0.45173
315 0.671926
320 0.477127
325 0.478879
330 0.56913
335 0.759692
340 0.826446
345 1.65729
350 2.33155
355 2.69416
360 3.3335
365 4.1981
370 5.24469
375 6.5297
380 7.45483
385 8.14596
390 8.36688
395 9.14301
400 9.48715
405 10.0279
410 10.9494
415 10.0837
420 9.3793
425 9.81978
430 9.24987
435 9.31283
440 8.79741
445 8.41019
450 7.92404
455 6.89012
460 6.66758
465 6.24835
470 5.77746
475 4.85784
480 4.83424
485 4.46008
490 3.74442
495 3.45398
500 2.77369
505 2.7883
510 2.39992
515 1.97313
520 1.56039
525 1.61818
530 1.31554
535 1.04907
540 0.926622
545 0.939128
550 0.755055
555 0.754062
560 0.716177
565 0.477689
570 0.632318
575 0.435992
580 0.437328
585 0.290044
590 0.29393
595 0.233939
600 1.12966
Ex : 323
200 0.318662
205 0.28243
210 0.180103
215 0.286436
220 0.261668
225 0.243544
230 0.208226
235 0.205272
240 0.296236
245 0.248166
250 0.296872
255 0.27273
260 0.216322
265 0.265346
270 0.210837
275 0.144272
280 0.200968
285 0.300466
290 0.225814
295 0.300466
300 0.405923
305 0.252296
310 0.271609
315 3.68823
320 14.4807
325 6.25208
330 2.13674
335 2.63473
340 3.87191
345 5.79508
350 8.43602
355 11.8989
360 13.9788
365 16.4601
370 19.6467
375 23.8528
380 25.8622
385 28.4999
390 31.751
395 34.2961
400 34.9322
405 36.1416
410 36.169
415 36.1277
420 36.1055
425 35.5293
430 35.1053
435 34.9423
440 32.7705
445 31.6788
450 29.723
455 27.982
460 25.3187
465 23.4958
470 22.6528
475 19.9204
480 18.1524
485 17.2378
490 15.2467
495 13.4133
500 11.4889
505 10.8863
510 9.26783
515 7.84602
520 7.43924
525 5.94089
530 5.24949
535 4.40648
540 4.26058
545 3.23062
550 2.78441
555 2.50346
560 1.90784
565 1.67417
570 1.40345
575 1.20044
580 0.961781
585 0.727724
590 0.460784
595 0.371517
600 1.31672
Ex : 328
200 0.15383
205 0.233382
210 0.210036
215 0.16479
220 0.202173
225 0.209058
230 0.221356
235 0.200727
240 0.222283
245 0.209568
250 0.188351
255 0.168134
260 0.359548
265 0.315113
270 0.248287
275 0.285545
280 0.219908
285 0.250208
290 0.247137
295 0.226498
300 0.234071
305 0.148747
310 0.282752
315 0.976203
320 30.805
325 68.9202
330 21.3912
335 5.99626
340 5.49325
345 6.70013
350 8.99749
355 12.7201
360 17.6852
365 19.6006
370 21.6675
375 25.2457
380 28.6098
385 29.8413
390 33.3824
395 35.3773
400 36.5976
405 38.0965
410 38.2164
415 38.1828
420 37.4288
425 36.2822
430 35.375
435 34.4155
440 33.5684
445 32.7228
450 30.5381
455 28.6595
460 27.2306
465 25.9426
470 23.9185
475 21.5642
480 20.7741
485 18.9587
490 17.2361
495 14.7693
500 13.4431
505 12.2111
510 10.4718
515 9.33753
520 8.77453
525 8.09872
530 6.60929
535 5.62075
540 4.79209
545 4.31444
550 3.97312
555 3.16558
560 3.04704
565 2.38806
570 1.93584
575 1.43921
580 1.25357
585 0.839484
590 0.782555
595 0.617988
600 0.573508
Ex : 333
200 0.188462
205 0.185448
210 0.311275
215 0.240822
220 0.252067
225 0.221063
230 0.277354
235 0.223156
240 0.246533
245 0.19399
250 0.320299
255 0.187901
260 0.221924
265 0.160946
270 0.198292
275 0.181916
280 0.134211
285 0.217555
290 0.203715
295 0.199993
300 0.122766
305 0.175294
310 0.205174
315 0.261954
320 4.15345
325 78.0289
330 134.246
335 37.2544
340 7.70801
345 5.57168
350 5.82764
355 6.89999
360 10.2183
365 14.2243
370 16.0563
375 15.7815
380 16.7514
385 18.6089
390 18.7003
395 19.9369
400 20.4116
405 21.6615
410 21.6291
415 21.3963
420 21.1689
425 20.5304
430 20.4778
435 20.1068
440 19.9411
445 18.6206
450 17.9354
455 17.7351
460 17.182
465 16.3845
470 15.5712
475 14.819
480 14.4913
485 13.6412
490 12.593
495 11.6715
500 11.1721
505 9.93255
510 9.24904
515 8.35911
520 7.50178
525 6.84345
530 6.01017
535 5.23159
540 4.897
545 4.45094
550 3.83801
555 3.54803
560 2.88114
565 2.65885
570 2.11333
575 1.39923
580 1.39601
585 0.940396
590 0.702078
595 0.869045
600 1.4282
Ex : 338
200 0.232554
205 0.199138
210 0.243986
215 0.118533
220 0.216571
225 0.233181
230 0.217695
235 0.175735
240 0.156592
245 0.190701
250 0.225258
255 0.162195
260 0.140143
265 0.291508
270 0.20939
275 0.117903
280 0.208756
285 0.169211
290 0.197402
295 0.172453
300 0.191586
305 0.267903
310 0.180111
315 0.330015
320 0.310768
325 7.28814
330 115.288
335 170.981
340 42.4054
345 7.91546
350 4.2445
355 4.24138
360 4.38201
365 6.50122
370 10.9435
375 12.0588
380 11.2966
385 10.4685
390 10.4327
395 11.2037
400 11.6432
405 11.5533
410 12.0425
415 11.9918
420 11.9587
425 11.3854
430 11.9806
435 11.4561
440 11.6051
445 11.6866
450 11.9649
455 12.1623
460 12.6602
465 12.5275
470 12.4275
475 12.1806
480 11.8074
485 11.7737
490 12.0454
495 11.2143
500 10.7844
505 9.73177
510 9.26205
515 8.24307
520 7.86232
525 7.196
530 6.46396
535 5.88774
540 5.47533
545 5.14429
550 4.19995
555 3.6611
560 3.01296
565 2.9497
570 2.26034
575 1.81454
580 1.53579
585 1.42114
590 0.945205
595 0.745275
600 0.592129
Ex : 343
200 0.275502
205 0.246649
210 0.186413
215 0.132979
220 0.113368
225 0.145481
230 0.201332
235 0.267774
240 0.187065
245 0.197945
250 0.17507
255 0.186573
260 0.199478
265 0.251024
270 0.16406
275 0.139212
280 0.206802
285 0.139809
290 0.165289
295 0.1573
300 0.278958
305 0.165065
310 0.210136
315 0.244835
320 0.186346
325 0.282336
330 8.38786
335 128.848
340 187.576
345 45.428
350 7.45521
355 3.64412
360 3.25921
365 2.95956
370 4.39649
375 8.67695
380 10.2408
385 8.65824
390 7.47059
395 7.31947
400 7.66228
405 8.27071
410 8.46375
415 8.68073
420 8.36855
425 9.21148
430 9.04389
435 9.27642
440 9.29591
445 9.59473
450 10.5783
455 10.7547
460 11.4083
465 11.9655
470 12.2415
475 12.6987
480 12.7687
485 12.7428
490 12.378
495 12.1527
500 12.1781
505 11.411
510 10.7437
515 9.89956
520 9.08018
525 8.32473
530 7.34209
535 6.83521
540 6.12915
545 5.62985
550 5.0193
555 4.48051
560 4.01766
565 3.26427
570 2.93973
575 2.24392
580 1.80718
585 1.40162
590 0.909653
595 0.946578
600 0.935999
Ex : 348
200 0.172662
205 0.140006
210 0.16359
215 0.218464
220 0.101529
225 0.171813
230 0.126229
235 0.136684
240 0.193131
245 0.171195
250 0.183918
255 0.124778
260 0.196728
265 0.13723
270 0.112288
275 0.135396
280 0.158973
285 0.286755
290 0.15618
295 0.21136
300 0.200778
305 0.188195
310 0.147612
315 0.209149
320 0.17609
325 0.211092
330 0.359963
335 8.52562
340 126.864
345 188.941
350 48.7275
355 7.19679
360 3.0366
365 2.71299
370 2.45746
375 3.58149
380 7.11862
385 9.13645
390 8.13495
395 7.05936
400 6.18937
405 6.81952
410 7.28746
415 7.32914
420 7.86436
425 7.97298
430 8.07712
435 8.63611
440 9.22087
445 9.76034
450 10.8279
455 11.7377
460 13.0617
465 13.5086
470 14.611
475 14.7604
480 15.2866
485 15.4761
490 14.6806
495 14.5454
500 14.6103
505 13.8045
510 13.0011
515 11.7672
520 11.2338
525 10.4623
530 9.27889
535 8.26647
540 7.97665
545 7.18976
550 6.37657
555 5.47789
560 4.71082
565 4.28197
570 3.75695
575 2.79291
580 2.32561
585 1.59893
590 1.43752
595 1.09064
600 0.711354
Ex : 353
200 0.166111
205 0.170042
210 0.120528
215 0.0726997
220 0.152752
225 0.200312
230 0.116572
235 0.203826
240 0.13403
245 0.180731
250 0.134124
255 0.16001
260 0.178008
265 0.143281
270 0.163148
275 0.143277
280 0.145209
285 0.237714
290 0.145323
295 0.118993
300 0.199909
305 0.14434
310 0.142974
315 0.145351
320 0.143823
325 0.161111
330 0.309211
335 0.261812
340 8.45429
345 129.45
350 185.035
355 45.3932
360 6.78489
365 2.58007
370 2.52638
375 2.79626
380 3.29726
385 5.92067
390 8.50331
395 8.27369
400 7.29786
405 6.50532
410 6.24939
415 6.59117
420 7.31994
425 7.60769
430 7.88574
435 8.43422
440 8.7135
445 9.43097
450 10.6751
455 12.2562
460 14.0457
465 15.0936
470 16.1413
475 16.9255
480 18.0631
485 17.9061
490 17.3877
495 17.7107
500 17.1465
505 16.6438
510 15.2512
515 14.7074
520 13.0473
525 12.1657
530 11.2287
535 10.3155
540 9.50885
545 8.69143
550 7.77578
555 6.81625
560 5.9214
565 5.04031
570 4.16656
575 3.38474
580 2.83725
585 2.25706
590 1.69078
595 1.27156
600 1.01605
Ex : 358
200 0.115618
205 0.180724
210 0.132627
215 0.128133
220 0.100069
225 0.104737
230 0.174014
235 0.0937357
240 0.199341
245 0.176188
250 0.117797
255 0.0826083
260 0.149116
265 0.152718
270 0.12896
275 0.122602
280 0.0977503
285 0.135035
290 0.145199
295 0.0983146
300 0.20411
305 0.186094
310 0.130505
315 0.132854
320 0.146977
325 0.143515
330 0.136798
335 0.215912
340 0.288947
345 7.74587
350 121.891
355 186.733
360 47.1346
365 6.55713
370 2.62786
375 3.40308
380 3.29287
385 3.27201
390 4.85495
395 8.40294
400 8.97524
405 7.74278
410 7.1425
415 6.91221
420 7.03467
425 7.38555
430 7.54778
435 7.68241
440 8.58041
445 9.82445
450 11.4604
455 13.0444
460 14.8681
465 15.5027
470 17.9061
475 17.8989
480 18.9737
485 19.7111
490 19.0678
495 19.5665
500 19.3793
505 18.2931
510 17.0205
515 16.0467
520 14.3611
525 13.1305
530 12.3434
535 11.3861
540 10.1405
545 9.55129
550 8.59522
555 7.4802
560 6.73198
565 5.6262
570 4.74449
575 3.88019
580 3.03019
585 2.44306
590 1.62567
595 1.39075
600 1.14293
Ex : 363
200 0.106329
205 0.12047
210 0.192406
215 0.109847
220 0.112421
225 0.196131
230 0.0925662
235 0.147565
240 0.121162
245 0.190945
250 0.116923
255 0.142639
260 0.105996
265 0.147156
270 0.146183
275 0.148627
280 0.146306
285 0.179489
290 0.178624
295 0.125489
300 0.14325
305 0.107298
310 0.312218
315 0.105299
320 0.13805
325 0.134008
330 0.22066
335 0.227428
340 0.272958
345 0.252249
350 6.95823
355 116.006
360 180.944
365 47.3949
370 6.70029
375 2.87901
380 3.26063
385 3.4406
390 3.10032
395 4.54346
400 7.8818
405 9.04949
410 8.45697
415 7.54138
420 7.00745
425 7.00424
430 7.48039
435 7.93309
440 9.07535
445 10.1501
450 11.8403
455 13.6719
460 16.0369
465 16.9785
470 18.9919
475 20.3393
480 21.0926
485 21.7453
490 22.1098
495 22.1619
500 21.7542
505 20.5388
510 19.1966
515 18.4662
520 16.5246
525 15.4269
530 14.1353
535 13.1655
540 11.6566
545 10.5216
550 9.73206
555 8.48925
560 7.36871
565 6.46612
570 5.17401
575 4.0365
580 3.24384
585 2.77205
590 2.15357
595 1.68254
600 0.881221
Ex : 368
200 0.0741791
205 0.190621
210 0.148251
215 0.156538
220 0.185178
225 0.0959327
230 0.100252
235 0.108053
240 0.0851281
245 0.159027
250 0.130237
255 0.12386
260 0.16009
265 0.0570614
270 0.135079
275 0.11319
280 0.137146
285 0.147853
290 0.130391
295 0.133134
300 0.112894
305 0.123854
310 0.153118
315 0.110105
320 0.154922
325 0.127259
330 0.143775
335 0.142223
340 0.204924
345 0.163303
350 0.280602
355 5.70586
360 111.905
365 182.096
370 48.7852
375 7.20105
380 2.77454
385 3.444
390 3.14825
395 3.14658
400 4.02933
405 6.77257
410 9.11427
415 8.04202
420 6.90141
425 6.61215
430 6.6674
435 7.34051
440 8.60762
445 9.82254
450 12.1067
455 14.2538
460 17.5561
465 20.0049
470 21.565
475 23.1283
480 24.3379
485 24.9719
490 25.488
495 25.4462
500 25.0747
505 24.5636
510 23.2053
515 21.4675
520 19.804
525 18.4651
530 16.7732
535 15.838
540 14.1216
545 12.9961
550 11.6781
555 9.92649
560 8.93612
565 7.94399
570 6.61943
575 5.34148
580 4.15256
585 3.11281
590 2.60602
595 1.7384
600 1.58928
Ex : 373
200 0.0906372
205 0.121284
210 0.0826643
215 0.0606331
220 0.130473
225 0.130547
230 0.136377
235 0.159787
240 0.117351
245 0.10263
250 0.104107
255 0.148818
260 0.0753539
265 0.0969835
270 0.100153
275 0.0876634
280 0.0950469
285 0.1265
290 0.0633537
295 0.074274
300 0.167851
305 0.104554
310 0.136293
315 0.155636
320 0.103514
325 0.108837
330 0.118708
335 0.150242
340 0.201853
345 0.15284
350 0.203226
355 0.253378
360 6.7865
365 110.822
370 179.894
375 49.6291
380 7.65027
385 3.02865
390 3.10074
395 3.1058
400 3.23925
405 3.66498
410 5.91693
415 8.45464
420 7.52637
425 6.77428
430 6.21263
435 6.74444
440 7.75462
445 9.54542
450 11.8722
455 14.8394
460 17.8321
465 21.0363
470 22.345
475 24.2441
480 26.1108
485 27.7049
490 28.2352
495 28.1946
500 27.1383
505 26.8289
510 25.1495
515 23.388
520 22.254
525 20.3886
530 19.1168
535 17.5892
540 15.8073
545 14.5244
550 12.8106
555 11.7466
560 10.2603
565 8.36174
570 7.13973
575 5.65956
580 4.49309
585 3.43111
590 2.58403
595 2.07004
600 2.27801
Ex : 378
200 0.0731277
205 0.0952522
210 0.113104
215 0.115924
220 0.0936363
225 0.0635057
230 0.110871
235 0.138176
240 0.109703
245 0.115693
250 0.119304
255 0.0990104
260 0.0689098
265 0.125253
270 0.129354
275 0.143551
280 0.118856
285 0.0975072
290 0.0964985
295 0.123437
300 0.116884
305 0.127274
310 0.144382
315 0.077374
320 0.0875436
325 0.124229
330 0.107855
335 0.148963
340 0.170922
345 0.173149
350 0.141703
355 0.241738
360 0.310067
365 6.69952
370 116.267
375 192.671
380 52.9421
385 8.11704
390 3.21727
395 3.5921
400 3.9173
405 3.87274
410 4.12129
415 5.49661
420 8.20713
425 7.99199
430 7.36424
435 7.18095
440 7.71084
445 9.43667
450 11.2905
455 14.0971
460 16.6086
465 19.1695
470 21.5727
475 23.8144
480 24.638
485 25.9615
490 26.5699
495 26.8124
500 26.0861
505 25.2116
510 24.0187
515 22.2688
520 20.7295
525 19.152
530 17.8038
535 16.3236
540 14.8107
545 13.7841
550 12.0462
555 10.8726
560 9.02838
565 8.0409
570 6.7974
575 5.47631
580 4.25027
585 3.36046
590 2.40891
595 2.02929
600 1.76362
Ex : 383
200 0.103765
205 0.0763709
210 0.111728
215 0.166003
220 0.112162
225 0.0812293
230 0.100444
235 0.106827
240 0.0740175
245 0.107084
250 0.0957111
255 0.113262
260 0.120419
265 0.185141
270 0.104127
275 0.126505
280 0.120807
285 0.103934
290 0.0852962
295 0.100682
300 0.103214
305 0.10766
310 0.0823526
315 0.184177
320 0.0959573
325 0.0825556
330 0.0776747
335 0.11535
340 0.0904796
345 0.116483
350 0.137411
355 0.178733
360 0.198885
365 0.31031
370 6.16094
375 117.922
380 199.628
385 55.6666
390 8.66055
395 3.35463
400 3.30816
405 3.98286
410 4.39815
415 4.04372
420 4.84554
425 7.77599
430 8.45996
435 7.95387
440 8.08579
445 9.33271
450 11.3805
455 13.9229
460 16.7787
465 19.3552
470 22.079
475 23.0266
480 24.8417
485 26.0313
490 25.9728
495 26.1025
500 26.4896
505 25.9781
510 23.6945
515 22.3797
520 21.4803
525 19.5052
530 17.8348
535 16.8745
540 15.1832
545 13.5638
550 12.1463
555 10.6088
560 9.35269
565 8.34597
570 6.9307
575 5.44605
580 4.44257
585 3.39759
590 2.6307
595 2.08389
600 0.697686
Ex : 388
200 0.0739166
205 0.0589434
210 0.0846111
215 0.0871953
220 0.0982851
225 0.147212
230 0.0961185
235 0.107851
240 0.0853596
245 0.0667813
250 0.0657682
255 0.103009
260 0.0980103
265 0.0960633
270 0.0861654
275 0.14246
280 0.181612
285 0.0985898
290 0.141332
295 0.0978581
300 0.124708
305 0.136387
310 0.0875622
315 0.0966239
320 0.121962
325 0.109495
330 0.0962184
335 0.139018
340 0.172535
345 0.158434
350 0.129882
355 0.0979576
360 0.136769
365 0.161934
370 0.288599
375 6.77239
380 119.768
385 199.093
390 55.0927
395 8.2032
400 2.95243
405 3.41193
410 3.96334
415 3.69675
420 3.45717
425 4.04973
430 6.44632
435 8.49971
440 8.91088
445 9.43147
450 11.6586
455 13.8905
460 16.9756
465 19.8151
470 22.2675
475 24.1789
480 25.7195
485 26.9234
490 27.5037
495 28.2618
500 27.8087
505 26.8622
510 25.5525
515 24.1197
520 22.0444
525 20.2569
530 19.1132
535 16.8592
540 15.401
545 14.4693
550 12.8331
555 11.398
560 10.0381
565 8.84198
570 7.29594
575 5.78283
580 4.5263
585 3.31641
590 2.75223
595 2.18374
600 3.16559
Ex : 393
200 0.0606527
205 0.0959292
210 0.0879211
215 0.0983658
220 0.0688882
225 0.10772
230 0.0826568
235 0.113185
240 0.109743
245 0.105986
250 0.0748186
255 0.0762086
260 0.080112
265 0.105933
270 0.1611
275 0.103075
280 0.0999361
285 0.119502
290 0.0669461
295 0.0991067
300 0.0797779
305 0.0672177
310 0.125091
315 0.153045
320 0.0862384
325 0.166999
330 0.103999
335 0.0762196
340 0.113619
345 0.109814
350 0.128075
355 0.175099
360 0.148609
365 0.186244
370 0.218238
375 0.294309
380 5.96809
385 119.026
390 203.894
395 56.3171
400 8.01204
405 2.59298
410 2.64528
415 2.97659
420 2.8696
425 2.91695
430 3.41807
435 5.76779
440 8.8279
445 10.0675
450 11.8735
455 14.3679
460 17.5358
465 19.7763
470 22.4887
475 25.0867
480 26.8665
485 28.126
490 29.0686
495 29.4151
500 29.4094
505 28.3649
510 26.5026
515 25.4093
520 23.4427
525 21.5191
530 20.2612
535 18.7851
540 16.6755
545 15.1909
550 13.2727
555 11.8663
560 10.5898
565 9.15193
570 7.67535
575 6.06764
580 4.60478
585 3.87056
590 2.85134
595 2.0599
600 1.30232
Ex : 398
200 0.0563426
205 0.0626141
210 0.0592038
215 0.100373
220 0.0753839
225 0.0933878
230 0.103141
235 0.0652173
240 0.0831512
245 0.130266
250 0.0994823
255 0.105618
260 0.0838986
265 0.0890046
270 0.0678494
275 0.0831426
280 0.101045
285 0.0956474
290 0.111219
295 0.083113
300 0.0748348
305 0.0897525
310 0.105582
315 0.0698421
320 0.0813594
325 0.106466
330 0.10197
335 0.131282
340 0.173525
345 0.114812
350 0.100653
355 0.102923
360 0.135728
365 0.158538
370 0.171103
375 0.162156
380 0.270185
385 6.01804
390 121.228
395 206.465
400 56.7876
405 7.94211
410 2.52372
415 2.38049
420 2.84172
425 2.67359
430 2.95088
435 3.79603
440 6.03895
445 10.4951
450 12.8596
455 14.9335
460 17.9078
465 20.7122
470 23.2887
475 25.8702
480 28.0766
485 29.014
490 29.6922
495 29.8642
500 29.97
505 29.2598
510 27.4366
515 26.4906
520 24.6126
525 22.777
530 20.8595
535 19.1017
540 17.3555
545 15.7466
550 14.1197
555 12.5704
560 11.0598
565 9.52652
570 7.9208
575 6.25313
580 4.96734
585 3.8833
590 2.96061
595 2.35644
600 2.19077
Ex : 403
200 0.0940843
205 0.0942555
210 0.120546
215 0.118219
220 0.066179
225 0.0972602
230 0.101342
235 0.0859569
240 0.0747795
245 0.0595627
250 0.10867
255 0.0622901
260 0.0506935
265 0.0696724
270 0.0793696
275 0.0935697
280 0.127554
285 0.0812749
290 0.0768394
295 0.100615
300 0.0568589
305 0.0969895
310 0.0984698
315 0.0877399
320 0.112742
325 0.0869226
330 0.0652473
335 0.1043
340 0.111954
345 0.105101
350 0.129481
355 0.158844
360 0.136072
365 0.134603
370 0.128223
375 0.140838
380 0.202845
385 0.285657
390 6.87799
395 125.805
400 205.709
405 56.5052
410 8.09753
415 2.57409
420 2.57475
425 2.87204
430 3.04411
435 3.51421
440 4.94059
445 7.76842
450 12.2645
455 16.3561
460 18.8828
465 21.7591
470 24.2797
475 26.0853
480 28.4248
485 29.4703
490 30.5304
495 30.8178
500 30.9475
505 30.4153
510 28.7121
515 27.1351
520 24.8038
525 23.1959
530 21.3761
535 19.685
540 17.5581
545 16.3412
550 14.5243
555 12.7811
560 11.5101
565 9.68492
570 8.12279
575 6.53626
580 5.08559
585 3.87408
590 2.96728
595 2.28099
600 2.17063
Ex : 408
200 0.139418
205 0.122635
210 0.0888997
215 0.08328
220 0.094186
225 0.112649
230 0.0927024
235 0.0970362
240 0.0940046
245 0.130735
250 0.0799828
255 0.0766573
260 0.152932
265 0.105742
270 0.095054
275 0.0826361
280 0.119374
285 0.0935567
290 0.144623
295 0.113728
300 0.105048
305 0.138007
310 0.11571
315 0.0939799
320 0.100916
325 0.139353
330 0.067156
335 0.0951979
340 0.157527
345 0.14175
350 0.126042
355 0.119022
360 0.10551
365 0.216741
370 0.165511
375 0.142995
380 0.161237
385 0.198094
390 0.255208
395 6.68538
400 130.791
405 214.634
410 58.1962
415 8.34866
420 2.52145
425 2.35368
430 2.89481
435 3.59548
440 4.63712
445 6.79737
450 9.98941
455 15.1215
460 19.6988
465 22.4028
470 25.014
475 26.5201
480 28.5862
485 29.8616
490 31.0872
495 31.3564
500 30.8687
505 29.3898
510 28.6369
515 27.2074
520 25.3439
525 23.0888
530 21.2079
535 19.4051
540 18.0022
545 16.6151
550 14.5151
555 13.1458
560 11.6862
565 9.8516
570 8.12919
575 6.49439
580 5.17675
585 4.01318
590 2.86524
595 2.38132
600 2.36483
Ex : 413
200 0.149362
205 0.100816
210 0.0875115
215 0.0846731
220 0.08848
225 0.0936635
230 0.0759241
235 0.0883996
240 0.0650196
245 0.100915
250 0.0941294
255 0.151035
260 0.11612
265 0.104773
270 0.080152
275 0.0683136
280 0.0945928
285 0.143564
290 0.0968689
295 0.0598486
300 0.0971821
305 0.110884
310 0.128158
315 0.0895997
320 0.129391
325 0.1271
330 0.0979588
335 0.146199
340 0.12797
345 0.146888
350 0.151258
355 0.0943721
360 0.0977639
365 0.130065
370 0.103514
375 0.14115
380 0.169687
385 0.128752
390 0.193656
395 0.385586
400 7.73661
405 137.246
410 223.279
415 58.8986
420 8.18025
425 2.57239
430 2.23373
435 3.1482
440 4.39488
445 6.34012
450 9.02629
455 13.0614
460 17.7714
465 22.6553
470 24.503
475 26.0923
480 28.2348
485 29.4954
490 30.169
495 30.8776
500 30.368
505 29.5656
510 27.7879
515 26.3517
520 24.7561
525 22.837
530 20.4537
535 19.2481
540 17.5149
545 16.0179
550 14.3117
555 12.7243
560 11.4116
565 10.1348
570 8.16563
575 6.31243
580 5.15287
585 3.94586
590 3.16516
595 2.3862
600 1.81944
Ex : 418
200 0.107878
205 0.0811844
210 0.0891199
215 0.0974381
220 0.101281
225 0.098647
230 0.104188
235 0.0979588
240 0.105719
245 0.107187
250 0.111494
255 0.133169
260 0.152999
265 0.163064
270 0.129864
275 0.0734855
280 0.10111
285 0.0837906
290 0.0899031
295 0.0826981
300 0.105067
305 0.0985089
310 0.0961378
315 0.0656844
320 0.113626
325 0.12192
330 0.106591
335 0.0953137
340 0.155467
345 0.0872005
350 0.137477
355 0.121625
360 0.112733
365 0.0760489
370 0.13986
375 0.134817
380 0.145266
385 0.127341
390 0.172204
395 0.231679
400 0.276298
405 7.27396
410 136.583
415 226.365
420 61.2792
425 8.51599
430 2.6574
435 2.41887
440 4.05518
445 5.90667
450 8.37687
455 12.1429
460 15.0787
465 19.3641
470 24.2565
475 26.543
480 27.3572
485 28.4842
490 29.4266
495 29.0227
500 28.9505
505 28.1415
510 26.9318
515 25.5188
520 23.9528
525 22.1551
530 20.6264
535 18.6804
540 16.5838
545 15.2886
550 14.1658
555 12.2948
560 10.8429
565 9.49606
570 7.95262
575 6.17401
580 4.97249
585 3.74121
590 2.85872
595 2.31549
600 2.23348
Ex : 423
200 0.0798075
205 0.0545033
210 0.122594
215 0.0918839
220 0.135073
225 0.0790439
230 0.0765305
235 0.102768
240 0.118228
245 0.0889685
250 0.107006
255 0.117307
260 0.0858485
265 0.0886152
270 0.100422
275 0.0684163
280 0.106145
285 0.0880669
290 0.0999304
295 0.0813697
300 0.100145
305 0.0903326
310 0.101763
315 0.0770158
320 0.128212
325 0.0813316
330 0.0825471
335 0.122218
340 0.12285
345 0.087453
350 0.121852
355 0.128374
360 0.112293
365 0.114857
370 0.133603
375 0.127555
380 0.117383
385 0.130952
390 0.131584
395 0.232465
400 0.277042
405 0.359244
410 7.66222
415 145.871
420 230.538
425 59.8851
430 8.37556
435 2.89513
440 3.22973
445 5.33175
450 7.65193
455 10.4812
460 13.789
465 17.0874
470 20.1578
475 24.0842
480 26.1993
485 27.0525
490 27.3086
495 27.8055
500 27.3893
505 26.1447
510 24.4335
515 23.4704
520 21.9403
525 20.7013
530 18.9221
535 17.0848
540 15.8324
545 14.4255
550 13.1492
555 11.2037
560 10.0739
565 8.64438
570 7.32945
575 5.74277
580 4.71877
585 3.4468
590 2.56263
595 2.15144
600 2.68044
Ex : 428
200 0.100024
205 0.118835
210 0.100602
215 0.140448
220 0.117776
225 0.112059
230 0.0850501
235 0.0927044
240 0.149545
245 0.103304
250 0.0988602
255 0.0883142
260 0.101376
265 0.0986243
270 0.0925802
275 0.0654837
280 0.101533
285 0.115855
290 0.109391
295 0.133132
300 0.0931421
305 0.0556112
310 0.0795689
315 0.107585
320 0.0784897
325 0.0947095
330 0.0888148
335 0.0921129
340 0.12712
345 0.113771
350 0.127748
355 0.104424
360 0.102578
365 0.134269
370 0.101202
375 0.11093
380 0.118313
385 0.0967467
390 0.113
395 0.130362
400 0.187477
405 0.178476
410 0.307171
415 8.84903
420 149.864
425 238.702
430 63.6403
435 8.98745
440 3.65482
445 4.40513
450 6.98553
455 9.78339
460 12.231
465 15.1434
470 17.7951
475 19.5604
480 22.8391
485 25.7307
490 25.4649
495 25.0034
500 23.9775
505 23.6707
510 22.4463
515 21.5409
520 19.9156
525 18.6405
530 17.1488
535 15.7602
540 14.3212
545 13.0052
550 11.6849
555 10.4845
560 9.13935
565 7.94193
570 6.48219
575 5.38459
580 4.03592
585 3.15156
590 2.35614
595 1.8834
600 2.27126
Ex : 433
200 0.109831
205 0.0899448
210 0.120957
215 0.103842
220 0.0765037
225 0.100893
230 0.106841
235 0.127684
240 0.115693
245 0.0913494
250 0.104964
255 0.122729
260 0.0814898
265 0.0752503
270 0.130098
275 0.136379
280 0.118856
285 0.100886
290 0.0846382
295 0.0813837
300 0.097716
305 0.103646
310 0.129606
315 0.0954172
320 0.144099
325 0.104126
330 0.121206
335 0.133911
340 0.068112
345 0.0875703
350 0.129914
355 0.120954
360 0.139455
365 0.114814
370 0.0849741
375 0.0819472
380 0.122462
385 0.159239
390 0.138535
395 0.1549
400 0.142183
405 0.172208
410 0.222018
415 0.358573
420 9.89643
425 166.997
430 252.447
435 64.2405
440 9.93204
445 4.58228
450 5.90112
455 8.76496
460 11.1175
465 13.5778
470 15.7626
475 17.3008
480 18.9931
485 20.9043
490 23.4269
495 23.292
500 21.787
505 21.6339
510 20.0292
515 18.8133
520 17.5935
525 16.5967
530 15.5277
535 14.1013
540 12.6586
545 11.5853
550 10.3923
555 9.3028
560 8.31474
565 7.02879
570 5.85385
575 4.69582
580 3.65438
585 2.80777
590 2.35038
595 1.70529
600 1.83561
Ex : 438
200 0.107418
205 0.0830288
210 0.0901808
215 0.0944427
220 0.100492
225 0.0906105
230 0.0949393
235 0.104347
240 0.0871167
245 0.0790994
250 0.0820153
255 0.102944
260 0.0662042
265 0.0676359
270 0.111793
275 0.0734585
280 0.0913118
285 0.0804296
290 0.0955525
295 0.0894775
300 0.133201
305 0.130548
310 0.108077
315 0.0827671
320 0.111027
325 0.138157
330 0.142744
335 0.132674
340 0.149214
345 0.144565
350 0.129674
355 0.101245
360 0.145849
365 0.158444
370 0.134727
375 0.0974151
380 0.17015
385 0.147993
390 0.146989
395 0.164154
400 0.120858
405 0.166567
410 0.158498
415 0.226118
420 0.323151
425 9.83769
430 167.707
435 267.957
440 68.9306
445 10.9822
450 5.87197
455 7.38011
460 9.22919
465 11.4316
470 13.149
475 14.8287
480 15.9293
485 17.0217
490 17.8918
495 20.2896
500 20.1061
505 18.4913
510 17.705
515 16.3833
520 14.7565
525 13.7576
530 13.1576
535 11.5177
540 10.6614
545 9.7502
550 8.72155
555 7.75671
560 6.87167
565 5.80915
570 5.05385
575 3.98636
580 3.1858
585 2.45554
590 1.89233
595 1.51796
600 1.30198
Ex : 443
200 0.156762
205 0.100802
210 0.0795135
215 0.0882367
220 0.0734806
225 0.0728898
230 0.0947058
235 0.0922978
240 0.0898238
245 0.0847379
250 0.0747532
255 0.117461
260 0.140451
265 0.0843068
270 0.0835283
275 0.0914268
280 0.15514
285 0.0924197
290 0.151252
295 0.118191
300 0.099842
305 0.0907232
310 0.0835711
315 0.119833
320 0.140062
325 0.152383
330 0.0860828
335 0.0901441
340 0.0661012
345 0.136799
350 0.12926
355 0.128486
360 0.0878511
365 0.11569
370 0.106359
375 0.145706
380 0.078841
385 0.143705
390 0.122321
395 0.11674
400 0.139374
405 0.132489
410 0.194829
415 0.144289
420 0.214824
425 0.399406
430 10.8842
435 182.371
440 277.233
445 71.3255
450 11.9845
455 6.49236
460 7.34159
465 9.27305
470 10.7736
475 11.6829
480 12.6035
485 13.339
490 14.3932
495 14.5202
500 16.0478
505 16.2714
510 14.7096
515 13.342
520 12.6084
525 11.3109
530 10.6443
535 9.17092
540 8.45468
545 7.87886
550 7.10804
555 6.48667
560 5.73541
565 4.88918
570 4.00029
575 3.05136
580 2.50479
585 2.05451
590 1.53419
595 1.28959
600 1.60884
Ex : 448
200 0.0692092
205 0.081036
210 0.081142
215 0.0891817
220 0.108131
225 0.0745124
230 0.0636047
235 0.0813454
240 0.0968283
245 0.0800791
250 0.0853298
255 0.101682
260 0.157981
265 0.110439
270 0.0889434
275 0.0984269
280 0.0869673
285 0.0955007
290 0.101457
295 0.0856464
300 0.102119
305 0.0807981
310 0.132149
315 0.115128
320 0.0927688
325 0.0761722
330 0.104645
335 0.101987
340 0.108806
345 0.0868232
350 0.143465
355 0.0991216
360 0.112817
365 0.112117
370 0.0872715
375 0.108846
380 0.14968
385 0.112414
390 0.162202
395 0.115607
400 0.156278
405 0.125485
410 0.198084
415 0.127125
420 0.150965
425 0.317204
430 0.409672
435 11.7464
440 198.052
445 298.157
450 76.3641
455 12.6176
460 6.54586
465 6.63607
470 8.03282
475 8.84897
480 9.62465
485 10.2703
490 10.4818
495 10.8707
500 10.9466
505 11.7344
510 11.9334
515 11.3776
520 9.67089
525 9.35514
530 8.19656
535 7.37871
540 6.66192
545 5.94173
550 5.3148
555 4.84644
560 4.36651
565 3.76117
570 3.11368
575 2.48318
580 1.93471
585 1.48145
590 1.18223
595 1.04373
600 1.40644
Ex : 453
200 0.0673309
205 0.093938
210 0.0812226
215 0.0716008
220 0.136035
225 0.0872286
230 0.0803793
235 0.0757782
240 0.0868337
245 0.0913854
250 0.11696
255 0.0823284
260 0.104819
265 0.0679832
270 0.099745
275 0.109195
280 0.0997781
285 0.0886869
290 0.0952858
295 0.105857
300 0.0876589
305 0.115811
310 0.0933792
315 0.085657
320 0.109623
325 0.0940576
330 0.0837677
335 0.128718
340 0.11461
345 0.106163
350 0.113697
355 0.142186
360 0.100519
365 0.112039
370 0.0956824
375 0.10199
380 0.10701
385 0.16257
390 0.153104
395 0.137828
400 0.11337
405 0.122323
410 0.155086
415 0.161612
420 0.139656
425 0.209832
430 0.300668
435 0.538783
440 13.0217
445 215.918
450 308.04
455 73.7077
460 12.1167
465 5.91606
470 5.76607
475 6.0989
480 7.04874
485 7.40876
490 7.5128
495 7.51983
500 7.73006
505 7.5716
510 7.64545
515 8.71866
520 8.31847
525 6.72084
530 5.94445
535 5.67696
540 4.80242
545 4.25108
550 3.89706
555 3.42936
560 3.06772
565 2.46869
570 2.44671
575 1.79801
580 1.46426
585 1.14543
590 0.851354
595 0.667355
600 0.149557
Ex : 458
200 0.0762039
205 0.0948977
210 0.132358
215 0.0909198
220 0.0630296
225 0.085499
230 0.102873
235 0.0878801
240 0.122616
245 0.114979
250 0.094435
255 0.0847433
260 0.108511
265 0.0915024
270 0.0678745
275 0.0799388
280 0.0854827
285 0.101894
290 0.0999207
295 0.115833
300 0.117565
305 0.10333
310 0.0903285
315 0.073816
320 0.0696332
325 0.0950214
330 0.0923933
335 0.121793
340 0.144708
345 0.128276
350 0.134582
355 0.12041
360 0.169672
365 0.148702
370 0.090023
375 0.0923119
380 0.106762
385 0.106392
390 0.127953
395 0.15158
400 0.097634
405 0.109915
410 0.141616
415 0.237525
420 0.145873
425 0.154054
430 0.233352
435 0.269479
440 0.526482
445 14.2682
450 218.388
455 323.284
460 81.2352
465 12.3924
470 4.77582
475 4.33467
480 4.40031
485 5.11253
490 5.25874
495 5.16021
500 4.7255
505 4.92097
510 4.63547
515 4.87511
520 5.46126
525 6.11652
530 5.0463
535 4.13494
540 3.90854
545 3.27851
550 2.82017
555 2.49024
560 2.24685
565 1.90127
570 1.5937
575 1.34061
580 0.971762
585 0.792111
590 0.663951
595 0.54523
600 0.281402
Ex : 463
200 0.115604
205 0.10618
210 0.0861583
215 0.107036
220 0.0804969
225 0.114292
230 0.116777
235 0.0686397
240 0.0771443
245 0.0959679
250 0.068777
255 0.121184
260 0.0853397
265 0.108011
270 0.112193
275 0.100595
280 0.0937079
285 0.088891
290 0.0962376
295 0.152507
300 0.103138
305 0.122413
310 0.110028
315 0.096185
320 0.11838
325 0.124889
330 0.130654
335 0.11995
340 0.0932518
345 0.131542
350 0.148636
355 0.091957
360 0.0935316
365 0.0902734
370 0.123548
375 0.106434
380 0.0907817
385 0.0940068
390 0.0872253
395 0.0968914
400 0.0976116
405 0.120846
410 0.125435
415 0.116853
420 0.157348
425 0.144084
430 0.188422
435 0.268859
440 0.294258
445 0.689982
450 13.6526
455 227.338
460 344.328
465 83.2749
470 11.9133
475 3.67502
480 2.95035
485 3.08289
490 3.51588
495 3.49585
500 3.42558
505 3.08703
510 3.2147
515 3.06084
520 2.98916
525 3.52863
530 4.60445
535 3.85638
540 2.98664
545 2.62349
550 2.43994
555 1.95213
560 1.55856
565 1.30587
570 1.10177
575 1.04788
580 0.850181
585 0.701535
590 0.539264
595 0.456874
600 1.08246
Ex : 468
200 0.0743955
205 0.0765037
210 0.100875
215 0.0764502
220 0.126387
225 0.114609
230 0.1207
235 0.0764358
240 0.08241
245 0.0754914
250 0.060045
255 0.0903945
260 0.0496694
265 0.081919
270 0.0639783
275 0.110681
280 0.101204
285 0.103603
290 0.0982399
295 0.0974963
300 0.0654863
305 0.108396
310 0.0828407
315 0.104163
320 0.120453
325 0.104186
330 0.0851743
335 0.116892
340 0.105407
345 0.110837
350 0.107398
355 0.104452
360 0.0836193
365 0.137001
370 0.0935365
375 0.106886
380 0.0791667
385 0.0998108
390 0.0999489
395 0.0991506
400 0.112203
405 0.107809
410 0.108848
415 0.119582
420 0.128754
425 0.0837618
430 0.102093
435 0.164124
440 0.191579
445 0.332361
450 0.566794
455 14.5795
460 226.099
465 354.78
470 85.9212
475 11.5471
480 3.18288
485 2.27299
490 2.289
495 2.6568
500 2.56273
505 2.2711
510 2.14412
515 2.06413
520 2.18831
525 2.03005
530 2.56557
535 3.36276
540 3.3704
545 2.31308
550 2.05607
555 1.80888
560 1.4253
565 1.16837
570 1.05938
575 0.75952
580 0.70106
585 0.461843
590 0.490717
595 0.333196
600 0.188079
Ex : 473
200 0.105644
205 0.11146
210 0.0843942
215 0.0507674
220 0.0848655
225 0.0654723
230 0.0849752
235 0.0990964
240 0.104506
245 0.0774699
250 0.117248
255 0.135435
260 0.121593
265 0.13039
270 0.0874745
275 0.0603983
280 0.105897
285 0.0936821
290 0.105477
295 0.119155
300 0.103856
305 0.0870172
310 0.1122
315 0.107396
320 0.0904378
325 0.0808895
330 0.0862006
335 0.0738419
340 0.105488
345 0.125055
350 0.0964339
355 0.0898716
360 0.128816
365 0.0812243
370 0.091277
375 0.10094
380 0.083256
385 0.0853843
390 0.0781745
395 0.0934454
400 0.0819814
405 0.0948219
410 0.126903
415 0.094472
420 0.122559
425 0.116384
430 0.144206
435 0.143907
440 0.161851
445 0.285002
450 0.312644
455 0.536353
460 16.2868
465 241.826
470 338.998
475 79.0726
480 10.4069
485 2.71817
490 1.80061
495 1.76553
500 2.10906
505 1.95489
510 1.82664
515 1.7218
520 1.73786
525 1.61936
530 1.4939
535 1.86704
540 2.48497
545 2.94872
550 2.19288
555 1.7054
560 1.56651
565 1.2464
570 1.02552
575 0.709604
580 0.578424
585 0.506158
590 0.460573
595 0.384369
600 0.158763
Ex : 478
200 0.0821186
205 0.123508
210 0.127132
215 0.0987596
220 0.111572
225 0.115394
230 0.0752689
235 0.129704
240 0.11893
245 0.0798981
250 0.101858
255 0.109639
260 0.0830288
265 0.0920168
270 0.120098
275 0.0807872
280 0.119378
285 0.0959254
290 0.118704
295 0.0999391
300 0.15391
305 0.12749
310 0.0943754
315 0.0687531
320 0.100479
325 0.120235
330 0.152982
335 0.131655
340 0.106606
345 0.119965
350 0.143951
355 0.185338
360 0.147594
365 0.124322
370 0.150422
375 0.0909615
380 0.123799
385 0.122111
390 0.101398
395 0.131609
400 0.0961256
405 0.122471
410 0.206251
415 0.117013
420 0.0890543
425 0.132325
430 0.127013
435 0.151821
440 0.15818
445 0.151079
450 0.32439
455 0.449818
460 0.599285
465 17.7137
470 246.881
475 340.899
480 82.6623
485 10.8115
490 2.63936
495 1.61456
500 1.26968
505 1.66058
510 1.63826
515 1.48956
520 1.49203
525 1.38684
530 1.29008
535 1.27928
540 1.35232
545 1.78743
550 2.4641
555 2.13285
560 1.58601
565 1.29899
570 1.22987
575 0.780986
580 0.60478
585 0.468776
590 0.470266
595 0.316155
600 0.71329
Ex : 483
200 0.0671617
205 0.100334
210 0.114438
215 0.0637164
220 0.16698
225 0.116733
230 0.127745
235 0.0899235
240 0.0837712
245 0.0915444
250 0.0746362
255 0.110713
260 0.121585
265 0.130031
270 0.0830585
275 0.0886173
280 0.0958435
285 0.103638
290 0.111166
295 0.0698562
300 0.102865
305 0.146538
310 0.130665
315 0.110323
320 0.0812843
325 0.11858
330 0.11821
335 0.0992402
340 0.100272
345 0.0949949
350 0.0997246
355 0.122293
360 0.163335
365 0.0866237
370 0.100366
375 0.101681
380 0.109804
385 0.103928
390 0.0876243
395 0.145512
400 0.151494
405 0.130645
410 0.153447
415 0.164024
420 0.166266
425 0.175132
430 0.111771
435 0.183307
440 0.119957
445 0.189739
450 0.190349
455 0.237173
460 0.431861
465 0.601598
470 13.8516
475 241.725
480 360.069
485 86.9996
490 10.9893
495 2.31578
500 1.36486
505 1.17187
510 1.39751
515 1.48196
520 1.50853
525 1.27535
530 1.25489
535 1.25363
540 1.21732
545 1.16141
550 1.46837
555 2.10156
560 2.40615
565 1.55444
570 1.06594
575 0.933198
580 0.734103
585 0.509178
590 0.538879
595 0.362258
600 0.839122
Ex : 488
200 0.165241
205 0.110638
210 0.0957315
215 0.098534
220 0.114594
225 0.101445
230 0.102983
235 0.0924487
240 0.162244
245 0.153938
250 0.099686
255 0.10625
260 0.189532
265 0.117967
270 0.165627
275 0.136405
280 0.12118
285 0.167166
290 0.132385
295 0.139157
300 0.125039
305 0.0993343
310 0.196684
315 0.115794
320 0.102559
325 0.11325
330 0.113596
335 0.13059
340 0.0872106
345 0.15599
350 0.0930734
355 0.126685
360 0.144998
365 0.0925269
370 0.110495
375 0.18023
380 0.0998523
385 0.181799
390 0.140524
395 0.132748
400 0.167673
405 0.162946
410 0.122248
415 0.137987
420 0.128723
425 0.117355
430 0.16316
435 0.178323
440 0.142619
445 0.21205
450 0.179036
455 0.217658
460 0.26895
465 0.340665
470 0.480133
475 15.8594
480 260.195
485 355.584
490 83.7559
495 10.6125
500 2.14484
505 1.10456
510 0.872503
515 1.19009
520 1.3668
525 1.44745
530 1.3018
535 1.2273
540 1.19721
545 0.958706
550 1.01777
555 1.16042
560 1.59603
565 2.15479
570 1.4493
575 0.881879
580 0.709687
585 0.596642
590 0.398882
595 0.393522
600 0.440967
Ex : 493
200 0.105084
205 0.0743378
210 0.136368
215 0.161616
220 0.149289
225 0.0998768
230 0.1175
235 0.103453
240 0.143715
245 0.113098
250 0.0649416
255 0.114999
260 0.0922339
265 0.113659
270 0.102921
275 0.0799069
280 0.120867
285 0.0746725
290 0.0771615
295 0.0796967
300 0.0681878
305 0.0775478
310 0.0885756
315 0.0916225
320 0.111973
325 0.101075
330 0.131103
335 0.141426
340 0.120499
345 0.0929555
350 0.132285
355 0.115768
360 0.154122
365 0.107796
370 0.13181
375 0.0901701
380 0.143427
385 0.127824
390 0.110698
395 0.100755
400 0.156509
405 0.112471
410 0.119774
415 0.0952226
420 0.143012
425 0.134987
430 0.185097
435 0.148907
440 0.128551
445 0.149999
450 0.193157
455 0.173944
460 0.244868
465 0.258658
470 0.38088
475 0.43939
480 15.2561
485 249.199
490 369.914
495 85.7143
500 10.8686
505 2.27189
510 1.34642
515 1.17677
520 1.15569
525 1.38082
530 1.39775
535 1.23204
540 1.11429
545 1.1055
550 0.975677
555 0.850764
560 0.822338
565 1.09934
570 1.81605
575 1.55759
580 0.885174
585 0.602437
590 0.486828
595 0.462078
600 0.236055
Ex : 498
200 0.203061
205 0.177456
210 0.222638
215 0.119544
220 0.117707
225 0.0955964
230 0.12444
235 0.122417
240 0.153612
245 0.152684
250 0.128672
255 0.182552
260 0.152233
265 0.0932812
270 0.0915031
275 0.113591
280 0.150916
285 0.134064
290 0.113124
295 0.0935033
300 0.138875
305 0.109291
310 0.0942206
315 0.178971
320 0.138728
325 0.149009
330 0.173753
335 0.162912
340 0.108307
345 0.0737963
350 0.153155
355 0.130306
360 0.153654
365 0.115748
370 0.17247
375 0.152175
380 0.126577
385 0.107223
390 0.129296
395 0.191496
400 0.173754
405 0.132188
410 0.104529
415 0.11316
420 0.168782
425 0.240803
430 0.190068
435 0.168382
440 0.0930799
445 0.177512
450 0.238396
455 0.263486
460 0.175494
465 0.254524
470 0.313147
475 0.395267
480 0.534442
485 18.0834
490 262.384
495 349.806
500 80.8136
505 10.2112
510 2.01431
515 1.2821
520 1.08431
525 0.983793
530 1.24965
535 1.19247
540 1.0335
545 0.976266
550 0.978496
555 0.987143
560 0.910582
565 0.815403
570 0.842465
575 1.38947
580 1.22441
585 0.798066
590 0.543054
595 0.49055
600 0.426348
Ex : 503
200 0.120791
205 0.131346
210 0.123374
215 0.123474
220 0.130129
225 0.0989267
230 0.17371
235 0.149184
240 0.144557
245 0.158514
250 0.136017
255 0.162952
260 0.136684
265 0.125063
270 0.135135
275 0.11942
280 0.116788
285 0.124053
290 0.134293
295 0.170523
300 0.112556
305 0.144134
310 0.123682
315 0.12571
320 0.165821
325 0.24913
330 0.145925
335 0.125378
340 0.200178
345 0.127912
350 0.0932498
355 0.139324
360 0.231686
365 0.194954
370 0.123765
375 0.169557
380 0.140392
385 0.0866358
390 0.123781
395 0.187524
400 0.149897
405 0.0988642
410 0.14975
415 0.186173
420 0.0985975
425 0.151203
430 0.152101
435 0.123494
440 0.151497
445 0.173413
450 0.204453
455 0.160312
460 0.194553
465 0.221828
470 0.248441
475 0.380567
480 0.398645
485 0.577707
490 16.2283
495 259.441
500 371.531
505 86.2119
510 10.798
515 2.25743
520 1.18674
525 1.087
530 0.983709
535 1.11456
540 1.04521
545 1.06492
550 0.907439
555 0.813467
560 0.710094
565 0.724526
570 0.717643
575 0.627088
580 0.749245
585 0.983264
590 0.770644
595 0.43112
600 0.345816
Ex : 508
200 0.0777978
205 0.215577
210 0.141124
215 0.140765
220 0.114083
225 0.132279
230 0.104271
235 0.117141
240 0.118778
245 0.172271
250 0.154161
255 0.186411
260 0.141094
265 0.121678
270 0.116221
275 0.129731
280 0.160771
285 0.164724
290 0.126574
295 0.151629
300 0.151963
305 0.120185
310 0.0970568
315 0.124145
320 0.0773845
325 0.126121
330 0.178214
335 0.106665
340 0.145594
345 0.150997
350 0.145469
355 0.102978
360 0.168196
365 0.169517
370 0.144825
375 0.184994
380 0.130645
385 0.169973
390 0.114875
395 0.208821
400 0.2117
405 0.134501
410 0.102789
415 0.119862
420 0.180261
425 0.169302
430 0.158715
435 0.170551
440 0.148986
445 0.137525
450 0.208535
455 0.138598
460 0.263607
465 0.230459
470 0.292628
475 0.303284
480 0.327165
485 0.35933
490 0.552441
495 16.8998
500 259.25
505 361.557
510 87.1145
515 10.8789
520 2.16351
525 1.3267
530 1.09896
535 1.03066
540 1.12559
545 1.16127
550 0.977453
555 0.886609
560 0.806358
565 0.672911
570 0.697742
575 0.55576
580 0.545539
585 0.56174
590 0.758108
595 0.627323
600 0.478789
Ex : 513
200 0.122285
205 0.142163
210 0.100918
215 0.138869
220 0.114374
225 0.140448
230 0.159273
235 0.129338
240 0.0978127
245 0.164873
250 0.130239
255 0.165009
260 0.128235
265 0.209607
270 0.140916
275 0.13257
280 0.160297
285 0.164483
290 0.131485
295 0.118322
300 0.126449
305 0.160142
310 0.117367
315 0.164954
320 0.193186
325 0.135664
330 0.117094
335 0.174283
340 0.186376
345 0.161441
350 0.10833
355 0.253474
360 0.147136
365 0.159907
370 0.190983
375 0.140914
380 0.177503
385 0.14025
390 0.126891
395 0.140197
400 0.178569
405 0.225405
410 0.155102
415 0.115416
420 0.221988
425 0.154331
430 0.160488
435 0.174335
440 0.198484
445 0.109631
450 0.167553
455 0.256404
460 0.191499
465 0.154175
470 0.198804
475 0.195297
480 0.203794
485 0.306057
490 0.399286
495 0.480439
500 16.0814
505 253.014
510 358.448
515 88.0951
520 11.0975
525 2.28221
530 1.16096
535 0.987648
540 0.823238
545 1.03982
550 0.991521
555 0.818928
560 0.974727
565 0.657932
570 0.58818
575 0.513099
580 0.514871
585 0.435994
590 0.484315
595 0.606733
600 0.633782
Ex : 518
200 0.200048
205 0.144102
210 0.129551
215 0.166407
220 0.13062
225 0.17465
230 0.158969
235 0.106017
240 0.137733
245 0.224994
250 0.1061
255 0.17675
260 0.114635
265 0.168285
270 0.178013
275 0.148669
280 0.174289
285 0.121471
290 0.179705
295 0.106229
300 0.0794625
305 0.148167
310 0.127021
315 0.139084
320 0.107378
325 0.12098
330 0.138082
335 0.134845
340 0.146282
345 0.180628
350 0.124588
355 0.1171
360 0.152562
365 0.10338
370 0.105937
375 0.0995789
380 0.141706
385 0.166546
390 0.110154
395 0.11932
400 0.202141
405 0.163166
410 0.154363
415 0.175049
420 0.164439
425 0.151999
430 0.154481
435 0.187144
440 0.180836
445 0.167138
450 0.149172
455 0.119254
460 0.181708
465 0.157487
470 0.187504
475 0.159167
480 0.167153
485 0.342794
490 0.314952
495 0.359476
500 0.450918
505 16.1717
510 249.162
515 362.946
520 88.2317
525 10.9357
530 2.08776
535 1.12903
540 0.999016
545 0.859787
550 0.814614
555 0.910718
560 0.841231
565 0.669806
570 0.608433
575 0.514195
580 0.49825
585 0.498839
590 0.411354
595 0.396154
600 0.731889
Ex : 523
200 0.15999
205 0.084655
210 0.14649
215 0.107271
220 0.152747
225 0.135733
230 0.174325
235 0.15241
240 0.16814
245 0.127234
250 0.196855
255 0.145052
260 0.204744
265 0.172515
270 0.148524
275 0.195236
280 0.154567
285 0.151751
290 0.1558
295 0.148526
300 0.178598
305 0.125898
310 0.115326
315 0.100204
320 0.112243
325 0.101152
330 0.231197
335 0.162512
340 0.11915
345 0.116797
350 0.134232
355 0.166273
360 0.152477
365 0.12868
370 0.13684
375 0.15412
380 0.110072
385 0.115606
390 0.224492
395 0.154055
400 0.0935447
405 0.150433
410 0.147928
415 0.154923
420 0.137138
425 0.152562
430 0.184378
435 0.190938
440 0.185477
445 0.176272
450 0.17564
455 0.204329
460 0.180147
465 0.205992
470 0.227533
475 0.243887
480 0.222323
485 0.240848
490 0.225666
495 0.432242
500 0.394287
505 0.517437
510 16.2272
515 257.039
520 364.321
525 93.1462
530 11.4758
535 2.06412
540 0.973922
545 0.774027
550 0.708227
555 0.832233
560 0.804064
565 0.793608
570 0.588469
575 0.625635
580 0.462135
585 0.405245
590 0.340005
595 0.324996
600 0.443541
Ex : 528
200 0.123151
205 0.164471
210 0.14331
215 0.155276
220 0.148084
225 0.165064
230 0.17942
235 0.176022
240 0.0837757
245 0.159695
250 0.14307
255 0.0934897
260 0.22073
265 0.132225
270 0.156003
275 0.166057
280 0.230006
285 0.109861
290 0.1665
295 0.146331
300 0.118228
305 0.184171
310 0.120459
315 0.200109
320 0.201263
325 0.149714
330 0.102337
335 0.158568
340 0.115701
345 0.140548
350 0.168209
355 0.158495
360 0.17634
365 0.204052
370 0.111058
375 0.180313
380 0.188441
385 0.229305
390 0.172208
395 0.104951
400 0.170515
405 0.1398
410 0.116443
415 0.179471
420 0.262982
425 0.161837
430 0.132684
435 0.166967
440 0.168613
445 0.168639
450 0.197249
455 0.216019
460 0.153142
465 0.173274
470 0.19417
475 0.142749
480 0.139455
485 0.214966
490 0.257189
495 0.238186
500 0.37447
505 0.352192
510 0.525753
515 13.6106
520 237.304
525 357.234
530 89.7351
535 11.0116
540 1.9857
545 0.943298
550 0.841331
555 0.677999
560 0.812754
565 0.647744
570 0.671301
575 0.504477
580 0.494253
585 0.48709
590 0.327216
595 0.29731
600 0.0338328
Ex : 533
200 0.153968
205 0.219798
210 0.144675
215 0.160655
220 0.195358
225 0.13011
230 0.187491
235 0.171669
240 0.223629
245 0.214717
250 0.155579
255 0.137329
260 0.117859
265 0.131502
270 0.11402
275 0.140869
280 0.153175
285 0.308734
290 0.232327
295 0.240576
300 0.206927
305 0.190887
310 0.116864
315 0.174941
320 0.144742
325 0.150313
330 0.180001
335 0.165134
340 0.189637
345 0.149911
350 0.171126
355 0.210648
360 0.153556
365 0.174207
370 0.210632
375 0.165316
380 0.165022
385 0.192836
390 0.14147
395 0.180886
400 0.194815
405 0.187559
410 0.151319
415 0.191952
420 0.170073
425 0.218388
430 0.221458
435 0.177821
440 0.124854
445 0.208381
450 0.154349
455 0.130167
460 0.218941
465 0.226058
470 0.204406
475 0.205004
480 0.187213
485 0.187643
490 0.231821
495 0.248256
500 0.192873
505 0.32636
510 0.316353
515 0.508925
520 13.7846
525 223.299
530 342.21
535 89.4883
540 10.969
545 1.87698
550 0.931655
555 0.650932
560 0.66746
565 0.610188
570 0.68864
575 0.607378
580 0.467803
585 0.400717
590 0.423687
595 0.270296
600 0.109972
Ex : 538
200 0.167482
205 0.159924
210 0.167873
215 0.153561
220 0.185573
225 0.188484
230 0.159773
235 0.174443
240 0.178123
245 0.151079
250 0.149232
255 0.18565
260 0.193118
265 0.154242
270 0.0977284
275 0.192997
280 0.20356
285 0.157006
290 0.0990929
295 0.154244
300 0.137343
305 0.136552
310 0.21779
315 0.14568
320 0.133852
325 0.174319
330 0.155601
335 0.272457
340 0.160929
345 0.231282
350 0.153646
355 0.13469
360 0.225787
365 0.130937
370 0.123088
375 0.157654
380 0.209889
385 0.118337
390 0.108054
395 0.216554
400 0.113385
405 0.23132
410 0.103585
415 0.179859
420 0.160234
425 0.173681
430 0.182439
435 0.210879
440 0.199213
445 0.184084
450 0.19741
455 0.126652
460 0.13879
465 0.253133
470 0.189131
475 0.270117
480 0.275851
485 0.118183
490 0.249729
495 0.190197
500 0.236865
505 0.231733
510 0.261338
515 0.421943
520 0.530658
525 11.9294
530 211.706
535 339.417
540 92.346
545 11.3477
550 1.85799
555 0.809614
560 0.648754
565 0.634267
570 0.426538
575 0.548832
580 0.530953
585 0.390708
590 0.353622
595 0.353368
600 0.480838
Ex : 543
200 0.187526
205 0.207281
210 0.190085
215 0.225075
220 0.227856
225 0.167052
230 0.123143
235 0.145473
240 0.138207
245 0.112363
250 0.147511
255 0.145563
260 0.16025
265 0.182081
270 0.153763
275 0.174568
280 0.234326
285 0.204653
290 0.298034
295 0.14003
300 0.20868
305 0.174148
310 0.199573
315 0.180402
320 0.142622
325 0.161304
330 0.213221
335 0.250964
340 0.215982
345 0.188864
350 0.203132
355 0.144778
360 0.205834
365 0.187277
370 0.129106
375 0.232072
380 0.147813
385 0.210919
390 0.203529
395 0.191567
400 0.224463
405 0.160141
410 0.127972
415 0.135069
420 0.185507
425 0.25696
430 0.213288
435 0.163512
440 0.125151
445 0.172186
450 0.186634
455 0.262489
460 0.156701
465 0.169742
470 0.237043
475 0.172526
480 0.133958
485 0.186954
490 0.189079
495 0.250992
500 0.26456
505 0.252995
510 0.274772
515 0.256838
520 0.438789
525 0.552024
530 11.1288
535 206.414
540 339.637
545 95.2185
550 11.7258
555 1.86165
560 0.883671
565 0.60518
570 0.424442
575 0.459645
580 0.441426
585 0.519884
590 0.415976
595 0.410382
600 0.27607
Ex : 548
200 0.125036
205 0.118458
210 0.165452
215 0.137599
220 0.169642
225 0.166262
230 0.160053
235 0.203005
240 0.254623
245 0.131945
250 0.224795
255 0.147264
260 0.175587
265 0.105173
270 0.149364
275 0.148424
280 0.212153
285 0.253842
290 0.23739
295 0.17393
300 0.123332
305 0.193188
310 0.126558
315 0.17857
320 0.195998
325 0.101029
330 0.190924
335 0.150369
340 0.108007
345 0.196119
350 0.125782
355 0.269305
360 0.179262
365 0.1746
370 0.150125
375 0.181068
380 0.175994
385 0.161575
390 0.15218
395 0.146094
400 0.14974
405 0.159418
410 0.158391
415 0.158328
420 0.229176
425 0.184149
430 0.144785
435 0.121362
440 0.145935
445 0.206104
450 0.157018
455 0.270996
460 0.201208
465 0.237353
470 0.174051
475 0.123026
480 0.22556
485 0.172006
490 0.216266
495 0.207892
500 0.208374
505 0.167286
510 0.152977
515 0.206128
520 0.262518
525 0.293173
530 0.477109
535 11.6596
540 204.546
545 330.722
550 92.5804
555 11.2779
560 1.86227
565 0.721065
570 0.630402
575 0.456932
580 0.448923
585 0.449692
590 0.480715
595 0.411082
600 0.317417
Ex : 553
200 0.165831
205 0.152878
210 0.244125
215 0.152904
220 0.22281
225 0.214738
230 0.119123
235 0.134754
240 0.107179
245 0.253733
250 0.267173
255 0.20767
260 0.131412
265 0.263387
270 0.15507
275 0.206701
280 0.265
285 0.141324
290 0.139987
295 0.11721
300 0.163136
305 0.151914
310 0.173738
315 0.168828
320 0.184602
325 0.260823
330 0.189271
335 0.158865
340 0.104137
345 0.174194
350 0.152872
355 0.198623
360 0.304217
365 0.221961
370 0.182541
375 0.140099
380 0.181735
385 0.215277
390 0.195281
395 0.198696
400 0.232974
405 0.256527
410 0.182131
415 0.198781
420 0.134618
425 0.127655
430 0.25972
435 0.254977
440 0.171476
445 0.105725
450 0.281387
455 0.137746
460 0.179621
465 0.214787
470 0.255884
475 0.449683
480 0.234864
485 0.164377
490 0.280377
495 0.2126
500 0.23443
505 0.236689
510 0.202654
515 0.280666
520 0.26287
525 0.354719
530 0.354368
535 0.446491
540 10.1394
545 192.782
550 329.509
555 92.4069
560 11.281
565 1.81836
570 0.818496
575 0.485547
580 0.374339
585 0.376334
590 0.286133
595 0.343366
600 1.58439
Ex : 558
200 0.177307
205 0.173252
210 0.183318
215 0.173014
220 0.158373
225 0.182576
230 0.138261
235 0.17503
240 0.14561
245 0.20257
250 0.246036
255 0.185798
260 0.231387
265 0.168918
270 0.19835
275 0.193303
280 0.142468
285 0.200969
290 0.149276
295 0.196669
300 0.235178
305 0.161019
310 0.133053
315 0.119496
320 0.151978
325 0.208662
330 0.154751
335 0.212249
340 0.182734
345 0.20994
350 0.140939
355 0.16937
360 0.163063
365 0.211074
370 0.25042
375 0.225597
380 0.16446
385 0.197695
390 0.208303
395 0.143946
400 0.136484
405 0.170712
410 0.156685
415 0.151331
420 0.18494
425 0.246492
430 0.248953
435 0.138001
440 0.176438
445 0.171259
450 0.216151
455 0.240403
460 0.216726
465 0.291443
470 0.276596
475 0.193024
480 0.0976467
485 0.169013
490 0.193486
495 0.273954
500 0.208769
505 0.188185
510 0.23822
515 0.196434
520 0.186711
525 0.261546
530 0.399961
535 0.42238
540 0.527574
545 9.38531
550 184
555 319.362
560 91.1076
565 11.3087
570 1.75353
575 0.53909
580 0.532282
585 0.345844
590 0.414487
595 0.278227
600 0.0316611
Ex : 563
200 0.227166
205 0.188009
210 0.336387
215 0.142228
220 0.180959
225 0.291831
230 0.173583
235 0.188954
240 0.162919
245 0.207082
250 0.2407
255 0.247959
260 0.168946
265 0.136092
270 0.163863
275 0.190633
280 0.261015
285 0.146455
290 0.148642
295 0.213382
300 0.183089
305 0.158436
310 0.166267
315 0.221405
320 0.308797
325 0.214763
330 0.179052
335 0.178536
340 0.218355
345 0.311171
350 0.127062
355 0.251656
360 0.154144
365 0.188391
370 0.302344
375 0.236859
380 0.255651
385 0.208153
390 0.290135
395 0.223226
400 0.250701
405 0.25321
410 0.296958
415 0.177834
420 0.270177
425 0.15405
430 0.156294
435 0.229808
440 0.175932
445 0.214625
450 0.177719
455 0.204169
460 0.217056
465 0.38135
470 0.244463
475 0.239874
480 0.194961
485 0.202582
490 0.210134
495 0.215562
500 0.232121
505 0.194785
510 0.236291
515 0.218603
520 0.379754
525 0.289093
530 0.265268
535 0.355123
540 0.284664
545 0.300868
550 8.96829
555 174.047
560 304.63
565 88.6414
570 10.7892
575 1.65094
580 0.456083
585 0.466033
590 0.277324
595 0.307929
600 0.183695
Ex : 568
200 0.174483
205 0.270543
210 0.21766
215 0.141318
220 0.121462
225 0.250065
230 0.173771
235 0.154914
240 0.184349
245 0.203338
250 0.221536
255 0.167997
260 0.155146
265 0.107252
270 0.155485
275 0.160163
280 0.250451
285 0.155183
290 0.248636
295 0.295252
300 0.256233
305 0.130447
310 0.196604
315 0.190961
320 0.238586
325 0.122933
330 0.172389
335 0.185092
340 0.18304
345 0.102107
350 0.292157
355 0.286324
360 0.207097
365 0.269959
370 0.167916
375 0.273297
380 0.184598
385 0.243098
390 0.203145
395 0.204389
400 0.151466
405 0.253203
410 0.188831
415 0.208702
420 0.171162
425 0.203693
430 0.179357
435 0.202307
440 0.281612
445 0.184444
450 0.16787
455 0.302659
460 0.252219
465 0.261451
470 0.242033
475 0.226398
480 0.213386
485 0.258206
490 0.175672
495 0.215698
500 0.146796
505 0.26557
510 0.310903
515 0.210229
520 0.358351
525 0.253127
530 0.272811
535 0.397431
540 0.372865
545 0.282872
550 0.582351
555 6.94961
560 162.172
565 296.028
570 90.465
575 11.2143
580 1.70268
585 0.595134
590 0.418935
595 0.352445
600 0.343438
Ex : 573
200 0.157999
205 0.256722
210 0.262581
215 0.261252
220 0.18666
225 0.216499
230 0.173745
235 0.123224
240 0.263443
245 0.206922
250 0.146083
255 0.169228
260 0.172981
265 0.271366
270 0.186266
275 0.159953
280 0.23341
285 0.180916
290 0.155879
295 0.172872
300 0.300385
305 0.206302
310 0.189806
315 0.181074
320 0.280835
325 0.230011
330 0.292406
335 0.161041
340 0.176366
345 0.135423
350 0.154487
355 0.216524
360 0.221904
365 0.160315
370 0.213128
375 0.268575
380 0.231047
385 0.218123
390 0.133004
395 0.226552
400 0.262944
405 0.165362
410 0.217888
415 0.197211
420 0.174142
425 0.26831
430 0.265742
435 0.193197
440 0.217286
445 0.225974
450 0.248009
455 0.196054
460 0.236578
465 0.224698
470 0.342876
475 0.175528
480 0.227166
485 0.249363
490 0.201406
495 0.160513
500 0.259445
505 0.214981
510 0.194153
515 0.195319
520 0.229022
525 0.244488
530 0.308197
535 0.266666
540 0.227032
545 0.328156
550 0.422758
555 0.448066
560 5.65719
565 141.127
570 275.447
575 86.2201
580 10.5177
585 1.55095
590 0.599257
595 0.347522
600 5.2355
Ex : 578
200 0.130725
205 0.145452
210 0.228296
215 0.243958
220 0.256059
225 0.230158
230 0.193423
235 0.210591
240 0.184024
245 0.0990359
250 0.21684
255 0.310213
260 0.263221
265 0.208169
270 0.185165
275 0.175706
280 0.222751
285 0.169358
290 0.201501
295 0.172849
300 0.19234
305 0.134434
310 0.154472
315 0.18401
320 0.258604
325 0.199975
330 0.137812
335 0.26432
340 0.25553
345 0.147913
350 0.171319
355 0.213139
360 0.276954
365 0.275001
370 0.241916
375 0.20294
380 0.156336
385 0.199254
390 0.212893
395 0.225622
400 0.225608
405 0.246273
410 0.251562
415 0.264089
420 0.225763
425 0.184894
430 0.319275
435 0.18743
440 0.216851
445 0.283159
450 0.219386
455 0.222001
460 0.202717
465 0.208592
470 0.2236
475 0.348618
480 0.243321
485 0.236574
490 0.230159
495 0.2274
500 0.194053
505 0.24283
510 0.258492
515 0.188587
520 0.219124
525 0.24805
530 0.40065
535 0.338991
540 0.285586
545 0.277616
550 0.275031
555 0.376621
560 0.413965
565 5.56758
570 127.496
575 246.743
580 73.2207
585 8.97041
590 1.30498
595 0.400872
600 0.0456177
Ex : 583
200 0.228566
205 0.1796
210 0.206427
215 0.186116
220 0.273867
225 0.2179
230 0.242143
235 0.18847
240 0.212201
245 0.134334
250 0.273186
255 0.344097
260 0.153167
265 0.271214
270 0.211273
275 0.190008
280 0.126819
285 0.168124
290 0.285779
295 0.207848
300 0.261245
305 0.268873
310 0.196584
315 0.187491
320 0.193544
325 0.411355
330 0.232435
335 0.142295
340 0.158574
345 0.253173
350 0.196764
355 0.298527
360 0.259485
365 0.147909
370 0.202961
375 0.221796
380 0.236337
385 0.145212
390 0.200901
395 0.221719
400 0.270811
405 0.22803
410 0.144433
415 0.208774
420 0.199616
425 0.226209
430 0.195768
435 0.219526
440 0.216406
445 0.16681
450 0.247254
455 0.366238
460 0.225444
465 0.152726
470 0.256276
475 0.224084
480 0.232171
485 0.153468
490 0.191349
495 0.259533
500 0.269482
505 0.290889
510 0.284653
515 0.236431
520 0.17887
525 0.218805
530 0.156059
535 0.179603
540 0.159292
545 0.235678
550 0.174467
555 0.207999
560 0.282665
565 0.390385
570 4.43778
575 113.655
580 219.131
585 62.9411
590 7.91206
595 1.11826
600 0.599896
Ex : 588
200 0.160422
205 0.163705
210 0.177495
215 0.260222
220 0.180777
225 0.129655
230 0.17863
235 0.227033
240 0.18159
245 0.27213
250 0.302376
255 0.289543
260 0.232965
265 0.24178
270 0.24213
275 0.173469
280 0.1663
285 0.206064
290 0.156444
295 0.188021
300 0.252791
305 0.117859
310 0.15927
315 0.228147
320 0.1472
325 0.168958
330 0.271099
335 0.355542
340 0.234484
345 0.232025
350 0.162318
355 0.185447
360 0.303277
365 0.227671
370 0.297565
375 0.180481
380 0.229842
385 0.168892
390 0.226205
395 0.195996
400 0.171226
405 0.204664
410 0.183254
415 0.246959
420 0.181656
425 0.256591
430 0.210591
435 0.193584
440 0.303745
445 0.160841
450 0.162999
455 0.193316
460 0.258874
465 0.210772
470 0.191991
475 0.210374
480 0.25859
485 0.241186
490 0.314341
495 0.209437
500 0.204628
505 0.265493
510 0.254927
515 0.332553
520 0.221766
525 0.220474
530 0.224203
535 0.322212
540 0.213778
545 0.191148
550 0.181474
555 0.3102
560 0.323178
565 0.265605
570 0.435213
575 3.79438
580 96.3375
585 184.689
590 54.5981
595 6.7132
600 2.21163
Ex : 593
200 0.213706
205 0.261598
210 0.104552
215 0.235647
220 0.182658
225 0.338733
230 0.257289
235 0.193428
240 0.109087
245 0.220385
250 0.257136
255 0.208902
260 0.21952
265 0.181937
270 0.234457
275 0.299449
280 0.352732
285 0.221032
290 0.183627
295 0.207688
300 0.192242
305 0.295337
310 0.348281
315 0.347437
320 0.182829
325 0.208034
330 0.204462
335 0.32291
340 0.276812
345 0.167682
350 0.26779
355 0.227876
360 0.23453
365 0.229749
370 0.251674
375 0.168763
380 0.202826
385 0.211151
390 0.158823
395 0.286457
400 0.241932
405 0.234673
410 0.191257
415 0.368687
420 0.189488
425 0.231226
430 0.356544
435 0.239999
440 0.226016
445 0.221188
450 0.234905
455 0.244887
460 0.236206
465 0.308853
470 0.231157
475 0.310517
480 0.240676
485 0.129172
490 0.147105
495 0.166269
500 0.139659
505 0.388611
510 0.252651
515 0.214989
520 0.258439
525 0.27877
530 0.30661
535 0.23647
540 0.246204
545 0.20671
550 0.201979
555 0.245728
560 0.246085
565 0.336624
570 0.307947
575 0.38519
580 3.35201
585 83.382
590 155.391
595 47.4375
600 6.87754
Ex : 598
200 0.367351
205 0.200669
210 0.11071
215 0.294548
220 0.214506
225 0.340443
230 0.22018
235 0.268748
240 0.263878
245 0.263221
250 0.219205
255 0.18874
260 0.248637
265 0.120662
270 0.233999
275 0.234376
280 0.228097
285 0.254936
290 0.22628
295 0.197708
300 0.178047
305 0.221679
310 0.296302
315 0.150574
320 0.159842
325 0.318195
330 0.1641
335 0.267592
340 0.251913
345 0.176723
350 0.207284
355 0.171348
360 0.267104
365 0.282047
370 0.236632
375 0.313401
380 0.171472
385 0.206679
390 0.186313
395 0.126634
400 0.209329
405 0.154041
410 0.209193
415 0.245625
420 0.192702
425 0.224825
430 0.232679
435 0.160869
440 0.189372
445 0.313633
450 0.309065
455 0.26769
460 0.443198
465 0.213668
470 0.270225
475 0.222367
480 0.217365
485 0.202507
490 0.178351
495 0.245677
500 0.299389
505 0.249594
510 0.201787
515 0.194883
520 0.289586
525 0.281411
530 0.34698
535 0.210631
540 0.278717
545 0.268463
550 0.256943
555 0.244498
560 0.35181
565 0.289749
570 0.230875
575 0.329687
580 0.357812
585 3.32065
590 75.8671
595 146.763
600 81.1022
Ex : 603
200 0.229707
205 0.217505
210 0.179515
215 0.153803
220 0.223251
225 0.125803
230 0.148072
235 0.191707
240 0.298997
245 0.261323
250 0.210905
255 0.231339
260 0.246159
265 0.324837
270 0.223146
275 0.154847
280 0.133422
285 0.176395
290 0.197054
295 0.182913
300 0.205901
305 0.162334
310 0.196493
315 0.273765
320 0.218276
325 0.229903
330 0.231477
335 0.293618
340 0.311079
345 0.192533
350 0.285114
355 0.305137
360 0.248774
365 0.344745
370 0.342611
375 0.263431
380 0.405802
385 0.208951
390 0.210523
395 0.250118
400 0.300041
405 0.256159
410 0.200344
415 0.222532
420 0.233624
425 0.299292
430 0.290664
435 0.189989
440 0.260135
445 0.226021
450 0.305594
455 0.191382
460 0.180128
465 0.25411
470 0.199575
475 0.264988
480 0.176279
485 0.293239
490 0.217716
495 0.235149
500 0.170793
505 0.186407
510 0.23859
515 0.173739
520 0.22201
525 0.21568
530 0.218641
535 0.257733
540 0.206458
545 0.305443
550 0.295015
555 0.294231
560 0.172574
565 0.309873
570 0.273372
575 0.305379
580 0.262087
585 0.364592
590 2.87608
595 62.7339
600 129.404
