File format V 1.0
ven. 13. janv. 05:18:16 2017
Operator : 
Comments : 

=============================================
SpectroFluorometer parameters
Mode : 3D measurement
Data : Fluorescence
Phospho. : Ordinary
Spectrum : Fluorescence

Scan speed : 2400 nm/mn
Response : 100 ms
PM Voltage : 700 V
Shutter : On

Lambda Ex. Start : 203
Lambda Ex. End : 603
Lambda Ex. Step : 5
Ex. Slit : 5 nm

Lambda Em. Start : 200
Lambda Em. End : 600
Lambda Em. Step : 5
Em. Slit : 5 nm

Repetition : 1
Decal lambda em : 10
=============================================
DATA
Ex : 203
200 6.58883
205 5.81319
210 5.1383
215 9.39826
220 5.5985
225 6.98435
230 5.06355
235 9.31102
240 6.21914
245 6.56008
250 7.21535
255 4.66513
260 6.87643
265 7.11009
270 5.95177
275 6.45104
280 6.16266
285 5.51333
290 5.94014
295 4.61318
300 5.14557
305 5.33034
310 7.12935
315 7.02828
320 6.97802
325 8.00099
330 8.78737
335 11.2966
340 8.22465
345 5.79521
350 5.69433
355 5.13604
360 10.5382
365 5.63859
370 5.55122
375 4.41313
380 5.69535
385 6.71698
390 4.86306
395 5.51614
400 6.67001
405 7.16591
410 5.64595
415 6.76044
420 7.30561
425 4.6455
430 7.78096
435 5.01963
440 3.86346
445 4.40224
450 5.23026
455 6.99047
460 7.75597
465 5.81876
470 3.07573
475 5.28612
480 6.54925
485 4.86767
490 6.8692
495 7.32396
500 6.3995
505 4.22685
510 7.66862
515 11.1985
520 7.0839
525 4.10182
530 5.41581
535 8.41489
540 6.55536
545 7.3925
550 5.22516
555 4.74647
560 6.08325
565 7.93636
570 6.29854
575 4.57561
580 7.99562
585 6.05241
590 6.17456
595 6.63712
600 0.755279
Ex : 208
200 5.1729
205 8.82149
210 6.13569
215 4.631
220 7.63958
225 6.31383
230 8.17702
235 4.98232
240 5.73942
245 6.52786
250 6.30804
255 9.08306
260 4.39434
265 6.71621
270 5.39651
275 5.83965
280 5.66977
285 6.33405
290 11.2637
295 8.27602
300 7.09695
305 4.52424
310 8.01686
315 5.2837
320 7.20863
325 6.52394
330 5.28419
335 10.2361
340 5.99018
345 6.55592
350 8.64092
355 7.5206
360 6.98673
365 5.71371
370 8.60813
375 6.29227
380 5.73086
385 6.37462
390 5.89342
395 6.22878
400 7.84064
405 7.20591
410 6.44871
415 5.60576
420 5.17319
425 6.29444
430 6.99695
435 7.31243
440 4.6503
445 6.27815
450 7.38513
455 5.65475
460 4.29308
465 7.13288
470 6.69774
475 10.5235
480 7.46912
485 4.08126
490 9.69458
495 8.74203
500 8.26249
505 7.7866
510 6.86478
515 6.31892
520 5.78057
525 5.21345
530 5.10711
535 3.74677
540 4.85311
545 8.61628
550 6.80881
555 9.02568
560 4.32574
565 6.53879
570 6.70135
575 8.11935
580 12.8664
585 3.95151
590 6.08041
595 6.9659
600 5.22371
Ex : 213
200 6.26368
205 5.51094
210 4.14613
215 5.48115
220 5.30734
225 6.55787
230 5.10911
235 4.30674
240 7.07992
245 4.44805
250 5.05207
255 3.50683
260 4.45941
265 6.66215
270 5.14393
275 4.74649
280 5.42691
285 6.62359
290 8.44134
295 9.34941
300 6.71522
305 6.33102
310 4.50131
315 5.49205
320 4.73253
325 6.29887
330 6.325
335 6.83582
340 6.15964
345 5.17135
350 6.94301
355 5.55654
360 2.7592
365 4.17672
370 6.84283
375 5.40165
380 6.9738
385 5.40185
390 5.83683
395 4.55343
400 8.99783
405 7.80695
410 7.51138
415 8.84824
420 7.3252
425 6.98275
430 6.7309
435 4.24496
440 5.3592
445 6.63604
450 4.70087
455 7.01582
460 4.10074
465 5.38464
470 5.74861
475 6.9
480 8.62308
485 4.70854
490 6.1034
495 6.0365
500 7.0887
505 10.5683
510 8.19943
515 5.30017
520 5.86849
525 6.45623
530 7.70445
535 8.66296
540 7.88985
545 5.19445
550 3.50583
555 7.76126
560 6.04922
565 5.92141
570 7.23439
575 5.21251
580 5.44991
585 4.99068
590 5.49485
595 8.19637
600 9.79475
Ex : 218
200 6
205 6.73191
210 6.92171
215 7.64472
220 6.16232
225 5.85734
230 7.87213
235 6.07378
240 7.88941
245 5.39365
250 6.10742
255 7.07812
260 9.87602
265 7.94546
270 6.99144
275 6.80209
280 7.87224
285 7.34387
290 5.96303
295 5.28421
300 7.25199
305 5.85973
310 6.14995
315 6.3853
320 6.17228
325 4.82245
330 7.23101
335 3.94418
340 5.9408
345 5.7063
350 4.44737
355 6.06272
360 6.43511
365 3.71241
370 5.8984
375 6.82541
380 5.7129
385 8.24136
390 7.90149
395 5.88832
400 5.1619
405 5.20372
410 5.2751
415 7.63479
420 6.67366
425 5.75629
430 8.40726
435 5.01459
440 4.46506
445 6.78801
450 5.51171
455 6.49133
460 4.30907
465 5.62101
470 8.26355
475 8.11603
480 4.81279
485 5.48192
490 4.8311
495 5.8501
500 5.21958
505 6.88952
510 4.66741
515 4.91702
520 5.58136
525 9.10893
530 7.63433
535 6.27038
540 8.28069
545 5.19088
550 4.9971
555 5.71746
560 6.10121
565 4.1377
570 6.29904
575 5.70278
580 7.47601
585 5.75093
590 4.90651
595 4.24946
600 0.483573
Ex : 223
200 7.14747
205 7.7872
210 4.73047
215 3.28474
220 5.50965
225 5.43537
230 4.73874
235 5.17038
240 8.02105
245 7.38449
250 4.64945
255 9.33061
260 4.62279
265 5.03267
270 4.27365
275 5.08556
280 5.99851
285 5.69339
290 4.22599
295 4.95295
300 6.76705
305 7.21208
310 5.36459
315 4.17155
320 4.62473
325 5.82629
330 5.53509
335 5.45383
340 6.56972
345 6.5942
350 6.07575
355 4.97699
360 5.78698
365 6.13215
370 4.5021
375 6.34411
380 4.66657
385 4.81571
390 6.32099
395 3.9037
400 6.09378
405 4.7931
410 4.66368
415 3.34052
420 4.4529
425 4.37735
430 6.9365
435 5.97648
440 8.87434
445 8.30727
450 4.33119
455 5.6908
460 3.62455
465 5.07922
470 4.99676
475 4.04717
480 6.3095
485 7.52545
490 7.85335
495 8.87792
500 8.00421
505 4.33427
510 6.59144
515 7.50987
520 4.993
525 6.7889
530 6.71138
535 3.97568
540 7.55453
545 4.62922
550 5.26587
555 5.54228
560 5.49284
565 5.95495
570 5.14542
575 4.11029
580 3.33755
585 4.60279
590 6.35428
595 3.76493
600 4.56405
Ex : 228
200 6.4955
205 4.60434
210 5.55246
215 5.38833
220 6.38592
225 5.79578
230 8.95307
235 4.98159
240 4.97872
245 4.63451
250 3.31371
255 5.7024
260 4.99625
265 4.05091
270 6.64426
275 6.03849
280 4.8573
285 7.27444
290 5.58857
295 5.58066
300 6.5632
305 5.93749
310 5.26781
315 5.42684
320 5.07431
325 5.87395
330 7.35561
335 6.66413
340 7.56286
345 6.0062
350 4.84583
355 4.65834
360 4.84718
365 10.764
370 8.6563
375 8.3947
380 6.44815
385 6.39064
390 5.45939
395 6.61155
400 4.98521
405 3.95973
410 8.5293
415 8.68863
420 4.10971
425 5.01275
430 6.20224
435 5.14462
440 4.62749
445 7.27382
450 4.68738
455 7.38244
460 6.73335
465 8.71374
470 7.80428
475 4.53093
480 5.79161
485 6.04415
490 8.94722
495 5.89035
500 5.42019
505 5.96794
510 7.90066
515 7.08674
520 5.22951
525 7.55873
530 3.56402
535 6.95882
540 6.11709
545 4.73892
550 2.43444
555 6.08024
560 4.61995
565 6.01369
570 3.34295
575 3.70474
580 5.64937
585 7.11134
590 5.53299
595 4.73332
600 0.538633
Ex : 233
200 5.9004
205 7.32914
210 4.14909
215 10.5286
220 7.97177
225 5.74809
230 6.46453
235 4.33516
240 5.27112
245 5.33373
250 4.28722
255 4.4257
260 4.1681
265 4.62021
270 4.71443
275 7.1186
280 4.95427
285 6.74058
290 4.07216
295 5.01386
300 4.00679
305 5.22813
310 4.30874
315 6.48499
320 6.31514
325 3.63857
330 6.17438
335 7.21493
340 6.30103
345 6.44162
350 5.18886
355 4.6867
360 4.17242
365 4.97458
370 8.04534
375 5.16018
380 4.62226
385 3.48835
390 3.44535
395 4.1359
400 7.06078
405 5.95015
410 7.22842
415 6.57053
420 5.39301
425 5.29568
430 5.38393
435 7.68414
440 6.18043
445 3.53916
450 4.44651
455 7.01406
460 7.16824
465 7.23306
470 5.62056
475 5.32545
480 6.56369
485 5.43329
490 3.84392
495 6.0527
500 5.57232
505 4.07967
510 5.60573
515 5.29725
520 4.76494
525 4.40517
530 7.10719
535 5.68665
540 6.1647
545 3.79216
550 4.2361
555 4.00462
560 4.25645
565 6.80261
570 4.65444
575 5.91478
580 5.29691
585 3.55169
590 4.75689
595 4.77041
600 20.7483
Ex : 238
200 5.92075
205 2.64426
210 6.59601
215 4.54911
220 4.85522
225 6.16173
230 6.82073
235 4.85476
240 5.21408
245 4.93748
250 4.37059
255 3.64526
260 5.39146
265 5.80211
270 4.95388
275 4.00113
280 8.77252
285 5.77683
290 3.92815
295 5.50278
300 3.29808
305 4.24426
310 5.40749
315 8.71575
320 3.77609
325 5.24101
330 5.308
335 6.40936
340 6.39351
345 5.6903
350 6.49724
355 4.59364
360 5.30969
365 5.30897
370 3.99893
375 3.72909
380 2.73604
385 4.54112
390 4.66268
395 4.81333
400 5.43593
405 6.06944
410 5.64736
415 7.18977
420 6.83145
425 3.69807
430 5.15648
435 5.45261
440 5.07303
445 3.56823
450 5.77888
455 3.29898
460 5.13275
465 5.79097
470 5.51729
475 3.43521
480 4.40589
485 5.25403
490 6.93286
495 4.02055
500 5.45926
505 5.14451
510 6.43233
515 5.34565
520 4.05752
525 4.80883
530 5.0351
535 5.3205
540 6.18474
545 4.15819
550 3.56586
555 4.81276
560 7.67423
565 6.04116
570 4.51159
575 3.58625
580 4.52213
585 4.52313
590 4.36921
595 3.18535
600 12.7693
Ex : 243
200 4.75251
205 2.85463
210 3.42505
215 3.40161
220 3.45631
225 7.14419
230 5.88245
235 4.2232
240 5.60679
245 5.08158
250 3.50569
255 3.69097
260 5.38702
265 3.70723
270 3.45734
275 4.93523
280 5.15662
285 3.97523
290 5.25212
295 4.21941
300 6.12019
305 4.50524
310 5.24326
315 4.50567
320 2.80337
325 4.69053
330 5.13486
335 4.88089
340 4.48924
345 4.88238
350 4.07646
355 3.58499
360 3.25858
365 3.37287
370 4.3138
375 4.56509
380 4.73586
385 5.73306
390 3.14118
395 4.49
400 3.65535
405 3.87366
410 4.36934
415 3.24814
420 3.95875
425 5.54468
430 3.51887
435 5.58086
440 5.42545
445 5.26693
450 5.23803
455 2.80862
460 3.04409
465 4.71896
470 4.01104
475 5.27727
480 5.75492
485 3.56001
490 4.60548
495 3.49854
500 2.17957
505 4.05404
510 4.98947
515 4.26487
520 5.00317
525 5.55912
530 5.94357
535 4.5627
540 3.56459
545 4.37858
550 3.15384
555 4.71581
560 4.00479
565 3.07475
570 3.12786
575 3.29376
580 3.35817
585 4.32921
590 4.55183
595 4.51214
600 7.15999
Ex : 248
200 6.13333
205 4.10446
210 3.55695
215 5.39482
220 2.74133
225 3.27047
230 4.02172
235 3.33913
240 2.22235
245 5.01204
250 3.97348
255 3.63037
260 3.36622
265 3.08522
270 3.23758
275 4.10219
280 3.49748
285 3.94281
290 3.59352
295 3.88124
300 3.44256
305 4.46677
310 3.50919
315 3.68273
320 3.49351
325 2.77226
330 4.35762
335 3.59489
340 3.08918
345 3.05665
350 4.8004
355 3.61269
360 3.11456
365 3.48602
370 3.22875
375 4.6015
380 4.76905
385 3.22715
390 4.57463
395 5.03587
400 2.79511
405 4.04615
410 3.96379
415 4.21479
420 3.90646
425 4.15552
430 2.53427
435 3.70069
440 4.03188
445 4.47232
450 3.14125
455 2.52316
460 4.88631
465 3.01686
470 3.3044
475 4.15237
480 4.06165
485 4.79209
490 5.22991
495 3.5968
500 3.83021
505 4.25234
510 3.39108
515 3.86234
520 4.23515
525 3.69605
530 3.47002
535 3.58105
540 3.27559
545 4.9649
550 2.29229
555 4.10541
560 3.43795
565 3.22215
570 2.14685
575 2.95926
580 4.1223
585 3.68499
590 3.35809
595 2.32765
600 0.264878
Ex : 253
200 3.78025
205 4.16311
210 2.50758
215 4.19616
220 3.91183
225 2.92788
230 3.10342
235 4.13189
240 3.9836
245 2.56936
250 3.4203
255 2.69984
260 2.8339
265 2.5092
270 3.63609
275 4.00892
280 2.86713
285 3.82222
290 5.17955
295 3.41977
300 4.51735
305 3.89257
310 4.33465
315 3.6217
320 3.35461
325 2.51312
330 3.30794
335 3.5654
340 2.59215
345 3.91474
350 2.15601
355 3.2346
360 4.17761
365 3.93965
370 3.6207
375 3.61616
380 4.03131
385 2.48746
390 4.21025
395 4.42283
400 3.00457
405 3.72499
410 2.37808
415 3.51463
420 4.415
425 3.37972
430 3.74669
435 2.29309
440 2.75239
445 2.86566
450 2.46568
455 3.13412
460 3.47443
465 3.69871
470 2.62626
475 2.46538
480 3.9574
485 2.96751
490 2.70312
495 5.36118
500 4.36368
505 4.40168
510 2.79195
515 3.2035
520 3.74763
525 2.68428
530 4.07635
535 3.16287
540 3.5831
545 3.54892
550 4.7935
555 2.70533
560 2.55935
565 4.92407
570 4.26485
575 2.49303
580 3.88349
585 3.30732
590 2.89353
595 3.06685
600 10.4911
Ex : 258
200 2.70417
205 2.26784
210 2.11531
215 3.26888
220 2.81841
225 1.41491
230 1.69239
235 2.56469
240 2.63758
245 2.31264
250 2.47223
255 2.27041
260 3.05458
265 1.95905
270 3.07929
275 2.26662
280 1.73741
285 2.77743
290 2.61213
295 2.24393
300 2.7142
305 4.66497
310 2.79946
315 2.25781
320 2.07598
325 2.68012
330 2.11657
335 1.74906
340 1.98935
345 1.52554
350 1.90433
355 2.47492
360 2.79824
365 3.2671
370 2.6974
375 1.78273
380 2.36416
385 2.47568
390 2.60005
395 2.03785
400 1.71843
405 2.84519
410 3.2608
415 1.99367
420 2.66117
425 3.0706
430 3.54409
435 2.43224
440 1.9855
445 2.93091
450 4.81288
455 2.68006
460 2.87335
465 2.39062
470 3.97106
475 3.17601
480 3.27932
485 2.79725
490 2.65402
495 2.89957
500 2.56822
505 2.10486
510 4.32193
515 2.72684
520 2.68334
525 2.47692
530 2.12919
535 3.79067
540 2.32487
545 2.92317
550 2.84903
555 2.35705
560 2.61585
565 2.66387
570 3.82972
575 2.19718
580 2.20222
585 2.12372
590 2.67413
595 2.4832
600 0.282578
Ex : 263
200 2.54414
205 1.66456
210 2.4006
215 2.18843
220 2.2562
225 2.49146
230 2.18253
235 1.28441
240 1.52533
245 2.73307
250 2.01746
255 2.81712
260 2.44311
265 2.98364
270 1.21875
275 1.83534
280 2.0279
285 1.26103
290 1.96466
295 1.55998
300 2.44724
305 1.69671
310 1.85995
315 2.25252
320 2.87315
325 1.85637
330 2.10814
335 1.76878
340 1.82334
345 2.23434
350 1.64625
355 1.38204
360 1.57963
365 3.02578
370 2.60011
375 1.71234
380 2.61638
385 2.48899
390 1.78409
395 1.66984
400 2.28589
405 2.35227
410 2.0202
415 3.79475
420 1.81137
425 2.32462
430 1.62703
435 2.69943
440 2.24386
445 2.43485
450 1.73931
455 1.44929
460 2.01519
465 2.25514
470 1.84322
475 2.38834
480 2.87919
485 2.07836
490 3.15754
495 2.06157
500 3.03397
505 2.06579
510 2.72734
515 3.39424
520 2.83516
525 1.49452
530 1.94101
535 1.97585
540 3.35697
545 2.12877
550 1.96671
555 3.83602
560 1.90359
565 1.80109
570 1.53354
575 1.81584
580 2.6178
585 1.27807
590 2.10145
595 2.05051
600 0.233341
Ex : 268
200 1.41915
205 0.949742
210 2.27536
215 1.69657
220 2.6986
225 1.28363
230 1.08093
235 1.56019
240 1.66687
245 1.78835
250 1.60801
255 1.89052
260 3.11198
265 1.8725
270 1.88626
275 1.59124
280 1.57949
285 2.35211
290 2.54978
295 1.92239
300 0.915229
305 1.33687
310 1.68568
315 1.40297
320 2.61446
325 2.00158
330 1.70129
335 1.51657
340 1.72256
345 1.50547
350 2.47755
355 1.38853
360 1.8348
365 1.79841
370 1.45973
375 1.52007
380 2.26975
385 1.08975
390 2.19182
395 1.60411
400 2.069
405 1.87287
410 1.68003
415 1.78151
420 1.66975
425 0.817502
430 2.38493
435 1.77529
440 1.44111
445 1.42478
450 1.41473
455 1.75245
460 1.99494
465 1.7379
470 1.61294
475 1.95126
480 1.9283
485 1.37127
490 1.48251
495 2.0435
500 1.81545
505 2.19205
510 1.43682
515 1.09169
520 1.96749
525 1.7762
530 2.33876
535 1.80062
540 1.5411
545 1.56372
550 1.64953
555 1.61234
560 2.14075
565 1.79984
570 1.32917
575 1.00413
580 1.31519
585 1.20434
590 1.64186
595 2.31349
600 0.263266
Ex : 273
200 1.2228
205 0.946062
210 0.940578
215 1.18634
220 1.59231
225 1.8336
230 1.94738
235 1.48221
240 1.17297
245 1.23914
250 1.36023
255 1.09964
260 1.19938
265 1.35143
270 1.25708
275 1.6257
280 1.08882
285 1.14035
290 1.5364
295 1.43749
300 2.05061
305 1.56358
310 1.08693
315 1.74855
320 1.39955
325 1.49459
330 1.50925
335 1.07017
340 1.3548
345 1.3572
350 1.35562
355 1.2731
360 1.56243
365 1.50066
370 1.49173
375 1.69096
380 1.02376
385 2.04579
390 1.49043
395 1.47879
400 1.53289
405 2.02587
410 1.53356
415 1.59
420 1.23129
425 1.13972
430 1.55894
435 1.61806
440 2.11094
445 1.99206
450 1.66654
455 1.35748
460 1.84958
465 1.78481
470 1.25239
475 1.7416
480 1.43625
485 1.27352
490 1.04135
495 1.22555
500 1.97776
505 1.6387
510 1.53206
515 1.50225
520 1.18336
525 1.3355
530 1.40276
535 1.7962
540 1.90311
545 1.88211
550 1.64495
555 1.14106
560 1.04308
565 1.67145
570 1.03772
575 1.28563
580 1.28008
585 1.45626
590 1.55766
595 1.78752
600 0.203413
Ex : 278
200 0.914211
205 1.38811
210 0.930062
215 1.50555
220 1.04675
225 1.02854
230 1.22577
235 0.818133
240 1.03757
245 0.852154
250 0.994867
255 1.27529
260 1.29565
265 1.06767
270 0.665025
275 1.18498
280 1.07149
285 0.805444
290 1.33001
295 1.39049
300 1.33674
305 1.53074
310 1.09404
315 0.858494
320 0.867027
325 0.973299
330 1.8178
335 1.01557
340 1.01099
345 1.02926
350 0.958321
355 1.03779
360 1.46085
365 1.28902
370 1.69218
375 1.56173
380 0.978359
385 1.5493
390 1.33351
395 1.37489
400 1.08519
405 1.19712
410 1.62927
415 1.37738
420 1.1292
425 1.41864
430 1.47342
435 1.42588
440 1.02621
445 1.65679
450 1.39423
455 2.04692
460 1.78033
465 1.69979
470 1.85303
475 1.17233
480 0.696515
485 1.17775
490 0.819272
495 0.815862
500 1.49741
505 1.73294
510 0.730291
515 1.12476
520 1.06552
525 1.64079
530 0.984299
535 0.842047
540 1.47453
545 1.25093
550 1.43645
555 2.00043
560 1.30164
565 1.18784
570 1.23289
575 1.22718
580 1.36279
585 1.06463
590 1.52295
595 0.935318
600 0.106436
Ex : 283
200 0.913818
205 1.07971
210 0.7719
215 0.893244
220 0.616404
225 1.03383
230 0.893074
235 0.668312
240 0.869072
245 0.853499
250 1.19564
255 1.12002
260 0.608935
265 1.22341
270 1.09291
275 0.800243
280 1.14244
285 0.905193
290 0.515927
295 0.899353
300 0.991741
305 1.04897
310 0.923789
315 1.08694
320 1.14564
325 0.651515
330 0.948308
335 1.11615
340 1.09898
345 1.11207
350 1.23094
355 0.839947
360 0.922536
365 1.26112
370 1.13572
375 1.06788
380 1.32852
385 1.72778
390 1.51571
395 1.51956
400 1.01625
405 1.12453
410 1.23989
415 1.00037
420 1.31732
425 1.27498
430 0.988266
435 1.18912
440 1.2111
445 1.6371
450 1.13256
455 1.0634
460 1.44426
465 1.75123
470 1.22084
475 1.28144
480 0.960363
485 0.915628
490 1.29457
495 1.4779
500 0.839876
505 1.14738
510 1.08053
515 1.18848
520 0.845987
525 1.05114
530 1.12415
535 1.28203
540 1.10938
545 0.832906
550 1.09669
555 1.47265
560 1.30271
565 0.874252
570 1.10111
575 0.900571
580 1.0008
585 0.620648
590 1.17229
595 1.07903
600 1.49238
Ex : 288
200 1.23477
205 0.57692
210 1.01957
215 0.78956
220 0.755825
225 1.11894
230 0.734534
235 0.820665
240 1.22478
245 0.741067
250 0.946124
255 0.728326
260 0.722092
265 0.98551
270 1.00155
275 0.717061
280 0.939147
285 0.874065
290 0.968503
295 0.795694
300 0.817648
305 0.838818
310 0.769693
315 1.09031
320 0.969244
325 0.614874
330 1.12126
335 0.919328
340 0.54374
345 0.673069
350 0.88078
355 0.920371
360 0.740929
365 1.21986
370 0.939275
375 0.96718
380 1.82772
385 1.05889
390 1.0741
395 1.24001
400 0.791597
405 1.02177
410 1.37573
415 1.16464
420 1.22146
425 1.31441
430 1.12634
435 0.955998
440 1.22467
445 1.1378
450 0.977243
455 0.994207
460 1.0727
465 1.39013
470 1.00072
475 0.910659
480 0.809931
485 1.40912
490 0.782558
495 0.684948
500 0.922732
505 0.622133
510 0.662486
515 0.749245
520 0.573153
525 0.657094
530 0.683205
535 0.748775
540 0.521369
545 0.786995
550 1.03986
555 0.627663
560 0.906286
565 1.07315
570 1.17581
575 0.988547
580 0.926656
585 0.725098
590 1.00223
595 0.810926
600 0.0922803
Ex : 293
200 0.53252
205 0.720767
210 0.816446
215 0.564824
220 0.883968
225 0.65864
230 0.783823
235 0.760372
240 0.714065
245 0.628499
250 0.656911
255 0.479823
260 0.926425
265 0.765866
270 0.548396
275 0.566539
280 0.687809
285 0.644607
290 0.881444
295 0.955183
300 0.496722
305 0.426643
310 0.595299
315 0.673224
320 0.596172
325 0.816423
330 0.491812
335 0.660382
340 0.550929
345 0.634806
350 0.820115
355 0.638717
360 0.980746
365 1.05283
370 1.03041
375 0.850045
380 0.877208
385 0.850697
390 1.1173
395 0.877956
400 0.945891
405 1.15522
410 0.928634
415 0.730966
420 1.1941
425 1.18537
430 1.2007
435 0.786578
440 0.882692
445 0.943112
450 0.980847
455 0.583681
460 0.809718
465 0.642512
470 0.940667
475 0.852147
480 0.941235
485 1.01926
490 1.17998
495 0.933045
500 0.583886
505 0.668103
510 0.84064
515 1.11256
520 0.579896
525 0.605002
530 0.54724
535 0.906642
540 0.686118
545 0.626809
550 0.665462
555 0.61191
560 0.886729
565 0.720839
570 0.9059
575 0.828738
580 0.89275
585 1.25148
590 0.815802
595 0.680911
600 0.45166
Ex : 298
200 0.463972
205 0.753472
210 0.771169
215 0.659552
220 0.387343
225 0.4956
230 0.413181
235 0.360695
240 0.584342
245 0.377396
250 0.517402
255 0.550294
260 0.818954
265 0.281236
270 0.363987
275 0.603403
280 0.541464
285 0.5946
290 0.590195
295 0.527224
300 0.822635
305 0.487481
310 0.553129
315 0.429336
320 0.751558
325 0.790693
330 0.495522
335 0.528478
340 0.3562
345 0.571627
350 0.559839
355 0.655041
360 0.546019
365 0.829232
370 0.678756
375 0.73379
380 0.80979
385 0.793449
390 0.659037
395 1.09249
400 0.902058
405 1.07905
410 0.787247
415 0.934809
420 0.886597
425 0.951726
430 0.794461
435 0.676514
440 0.972675
445 0.809372
450 0.801458
455 0.604956
460 0.929051
465 0.682109
470 0.629528
475 0.656682
480 0.69961
485 0.632413
490 0.633124
495 0.59283
500 0.71432
505 0.675357
510 0.542963
515 0.564233
520 0.865637
525 0.74163
530 0.777564
535 0.851801
540 0.612038
545 0.656345
550 0.51997
555 0.734691
560 0.601351
565 0.484381
570 0.556001
575 0.572828
580 0.518205
585 0.53389
590 0.564002
595 0.819096
600 0.511231
Ex : 303
200 0.343547
205 0.650517
210 0.37675
215 0.650594
220 0.503076
225 0.561561
230 0.388048
235 0.429241
240 0.449552
245 0.494945
250 0.330771
255 0.343571
260 0.641471
265 0.280268
270 0.392139
275 0.447785
280 0.578761
285 0.785646
290 0.426353
295 0.41731
300 0.93541
305 0.653456
310 0.53327
315 0.467747
320 0.393758
325 0.490811
330 0.374941
335 0.447268
340 0.765734
345 0.888811
350 0.886028
355 0.884933
360 0.526589
365 0.813899
370 0.76069
375 0.873087
380 0.798953
385 0.989831
390 0.957297
395 1.0129
400 0.873067
405 0.934072
410 0.790932
415 0.835939
420 0.540108
425 0.520836
430 0.74237
435 0.664776
440 0.949868
445 1.00078
450 0.910139
455 0.899949
460 0.452906
465 0.65597
470 0.681715
475 0.660408
480 0.813712
485 0.734555
490 0.736186
495 0.703017
500 0.700958
505 0.620687
510 0.489069
515 0.637812
520 0.477263
525 0.642714
530 0.442304
535 0.565567
540 0.697411
545 0.481474
550 0.304631
555 0.462524
560 0.576268
565 0.488772
570 0.687501
575 0.611948
580 0.412717
585 0.462256
590 0.480166
595 0.88181
600 0.843614
Ex : 308
200 0.549616
205 0.466407
210 0.531143
215 0.442957
220 0.371377
225 0.400134
230 0.435634
235 0.265104
240 0.322175
245 0.628568
250 0.343976
255 0.590772
260 0.368615
265 0.276033
270 0.308937
275 0.435367
280 0.371908
285 0.369484
290 0.516111
295 0.313659
300 0.428587
305 0.531071
310 0.417668
315 0.33426
320 0.620099
325 0.454456
330 0.548737
335 0.449708
340 0.642078
345 0.623884
350 0.509604
355 0.413613
360 0.710369
365 0.591739
370 0.513905
375 0.757654
380 0.97693
385 1.04209
390 1.25399
395 0.842602
400 0.821837
405 0.839388
410 0.952304
415 0.835976
420 0.916453
425 0.916065
430 0.743444
435 0.898951
440 0.574035
445 0.757595
450 0.78613
455 0.604882
460 0.758003
465 1.03572
470 0.673091
475 0.568864
480 0.732837
485 0.520348
490 0.59978
495 0.499054
500 0.596676
505 0.618936
510 0.543294
515 0.523983
520 0.48062
525 0.45266
530 0.536741
535 0.3755
540 0.720749
545 0.40659
550 0.446984
555 0.378408
560 0.606873
565 0.516782
570 0.329542
575 0.426925
580 0.579351
585 0.609338
590 0.365145
595 0.39261
600 0.0446775
Ex : 313
200 0.545052
205 0.462084
210 0.428452
215 0.340028
220 0.33638
225 0.301073
230 0.358703
235 0.347399
240 0.559467
245 0.467106
250 0.470223
255 0.42533
260 0.510185
265 0.428733
270 0.37162
275 0.20681
280 0.382523
285 0.208405
290 0.348692
295 0.278455
300 0.430954
305 0.567342
310 0.505146
315 0.366256
320 0.329096
325 0.365811
330 0.324746
335 0.492919
340 0.64619
345 0.561157
350 0.465327
355 0.656884
360 0.735385
365 0.589178
370 0.868134
375 0.738419
380 1.00795
385 0.90762
390 0.699347
395 1.16969
400 1.14931
405 1.24059
410 0.948017
415 1.32381
420 1.17666
425 1.069
430 1.20092
435 1.26036
440 1.13238
445 1.10079
450 1.01332
455 0.837336
460 0.907661
465 0.832759
470 0.948136
475 0.878253
480 0.753517
485 0.801517
490 0.669157
495 0.767229
500 0.694239
505 0.811657
510 0.628674
515 0.621589
520 0.475288
525 0.531454
530 0.606017
535 0.473964
540 0.337975
545 0.415849
550 0.451218
555 0.438255
560 0.351345
565 0.591257
570 0.438295
575 0.394643
580 0.353486
585 0.320273
590 0.3266
595 0.338016
600 0.0827752
Ex : 318
200 0.410095
205 0.437182
210 0.320005
215 0.481159
220 0.501732
225 0.239479
230 0.422043
235 0.464913
240 0.281664
245 0.459249
250 0.227375
255 0.23878
260 0.381654
265 0.251825
270 0.441547
275 0.420854
280 0.359869
285 0.395152
290 0.297664
295 0.22748
300 0.368918
305 0.337383
310 0.676957
315 0.702549
320 0.47081
325 0.390086
330 0.884945
335 1.11901
340 1.34723
345 1.41141
350 2.19309
355 2.73713
360 3.3603
365 4.02808
370 4.95631
375 5.71831
380 6.4999
385 7.20203
390 7.31729
395 7.96494
400 8.14676
405 8.68868
410 8.40374
415 8.411
420 7.97828
425 8.34793
430 8.07636
435 7.43407
440 6.97089
445 7.26691
450 6.80106
455 6.24526
460 5.58961
465 5.67432
470 4.75166
475 4.81089
480 4.13167
485 3.67066
490 3.40923
495 3.09082
500 2.9347
505 2.32049
510 2.03553
515 1.89027
520 1.71672
525 1.49578
530 1.45205
535 1.39798
540 0.950431
545 0.922371
550 0.919457
555 0.635838
560 0.687475
565 0.575762
570 0.602129
575 0.386476
580 0.421682
585 0.418256
590 0.359225
595 0.52727
600 0.406777
Ex : 323
200 0.35448
205 0.456617
210 0.372392
215 0.271941
220 0.337257
225 0.454626
230 0.352456
235 0.360677
240 0.4877
245 0.264892
250 0.294391
255 0.316225
260 0.373398
265 0.326836
270 0.249932
275 0.334717
280 0.300242
285 0.233483
290 0.405386
295 0.294376
300 0.434748
305 0.378226
310 0.450875
315 1.80493
320 7.72228
325 3.89764
330 2.07323
335 2.77402
340 3.68087
345 5.58951
350 8.24902
355 11.8745
360 14.1553
365 16.7108
370 19.971
375 21.7855
380 25.345
385 27.8606
390 30.2799
395 32.5788
400 33.2553
405 33.5754
410 33.1186
415 32.9493
420 33.623
425 31.9943
430 30.9712
435 29.4659
440 29.1183
445 27.1635
450 25.8092
455 24.7416
460 22.6393
465 21.7736
470 19.7392
475 18.4093
480 16.6997
485 15.083
490 13.8716
495 12.6727
500 11.1652
505 9.31936
510 8.25628
515 7.11645
520 6.1797
525 5.60583
530 4.58382
535 4.03804
540 3.58932
545 2.69732
550 2.48064
555 2.15349
560 1.94471
565 1.58392
570 1.08259
575 1.06084
580 0.839083
585 0.9422
590 0.780541
595 0.674402
600 0.533008
Ex : 328
200 0.202414
205 0.19532
210 0.222916
215 0.293078
220 0.243449
225 0.302479
230 0.336953
235 0.350393
240 0.267835
245 0.421035
250 0.202673
255 0.2863
260 0.310892
265 0.246469
270 0.327979
275 0.206893
280 0.268195
285 0.23293
290 0.233832
295 0.208225
300 0.262701
305 0.256996
310 0.237764
315 0.581731
320 18.3525
325 43.4057
330 15.0615
335 4.97175
340 5.41331
345 6.99923
350 9.25592
355 13.4397
360 17.6755
365 19.7351
370 22.6178
375 25.4486
380 28.3132
385 30.188
390 33.8088
395 35.2551
400 36.4633
405 37.698
410 36.7841
415 36.6656
420 35.4314
425 34.0416
430 33.2466
435 31.6419
440 30.8444
445 29.2398
450 27.9827
455 25.9651
460 24.5908
465 21.9437
470 21.0782
475 19.2212
480 17.8408
485 15.6541
490 14.7543
495 12.4904
500 11.2975
505 10.5651
510 9.05341
515 7.94435
520 6.69351
525 5.7338
530 5.29381
535 4.36888
540 3.88205
545 3.30166
550 2.93282
555 2.50249
560 2.04856
565 1.66003
570 1.49672
575 1.31595
580 1.12227
585 0.83856
590 0.535879
595 0.743039
600 0.271124
Ex : 333
200 0.344436
205 0.300637
210 0.176065
215 0.300758
220 0.288598
225 0.254178
230 0.270616
235 0.157224
240 0.244802
245 0.182781
250 0.311061
255 0.245148
260 0.234414
265 0.307267
270 0.23292
275 0.300986
280 0.326054
285 0.248471
290 0.191241
295 0.2557
300 0.259819
305 0.273324
310 0.393485
315 0.243229
320 2.96164
325 54.178
330 94.1194
335 26.4891
340 6.21313
345 5.14689
350 5.84473
355 6.96863
360 9.97503
365 14.3805
370 15.4849
375 15.7091
380 15.8826
385 16.6996
390 18.3054
395 19.5459
400 19.9
405 20.2238
410 20.1913
415 19.1923
420 19.1176
425 18.4949
430 17.772
435 16.2483
440 16.336
445 15.5482
450 14.8279
455 14.2195
460 13.0738
465 11.9554
470 11.4902
475 10.1297
480 9.38328
485 8.75466
490 8.14055
495 7.36765
500 6.50761
505 5.50269
510 4.92073
515 4.56017
520 3.89898
525 3.3744
530 2.92278
535 2.65416
540 2.15528
545 2.08657
550 2.09263
555 1.7721
560 1.401
565 1.43632
570 1.00919
575 1.113
580 0.748753
585 0.661366
590 0.658633
595 0.568277
600 1.68327
Ex : 338
200 0.297865
205 0.194585
210 0.265366
215 0.222066
220 0.266281
225 0.16906
230 0.194139
235 0.215008
240 0.215035
245 0.306444
250 0.147792
255 0.192167
260 0.162869
265 0.249819
270 0.216863
275 0.245603
280 0.292736
285 0.305584
290 0.217306
295 0.327055
300 0.23391
305 0.280955
310 0.275307
315 0.225293
320 0.23443
325 5.35998
330 83.2524
335 125.996
340 31.7503
345 6.22467
350 4.12764
355 3.83181
360 3.90071
365 5.98582
370 10.6119
375 10.8845
380 9.16617
385 8.22134
390 8.65688
395 9.18616
400 9.4239
405 9.51686
410 9.42147
415 9.54197
420 8.99273
425 9.12767
430 8.72174
435 8.58082
440 8.64358
445 7.70334
450 7.46133
455 7.39781
460 7.30649
465 6.76812
470 6.21858
475 5.18834
480 5.24586
485 4.7349
490 4.6165
495 4.08511
500 3.57497
505 3.6676
510 3.25628
515 2.71944
520 2.47581
525 2.10557
530 1.89204
535 2.08101
540 1.56775
545 1.40891
550 1.37759
555 1.27395
560 1.04336
565 0.800726
570 0.802196
575 0.694895
580 0.641071
585 0.801398
590 0.458943
595 0.355814
600 0.1828
Ex : 343
200 0.354767
205 0.206134
210 0.217581
215 0.246879
220 0.203824
225 0.220986
230 0.159653
235 0.298329
240 0.221901
245 0.236823
250 0.171621
255 0.204656
260 0.240803
265 0.287858
270 0.180434
275 0.248851
280 0.277594
285 0.170864
290 0.185785
295 0.273713
300 0.153045
305 0.177342
310 0.161559
315 0.202981
320 0.185455
325 0.321682
330 6.73788
335 95.117
340 139.841
345 33.9635
350 5.85483
355 2.76567
360 2.67936
365 2.21743
370 3.85438
375 7.4332
380 8.45315
385 6.42499
390 5.59473
395 5.44851
400 5.43881
405 5.5846
410 5.59333
415 5.99425
420 6.18437
425 6.21548
430 6.04609
435 5.63441
440 5.67405
445 5.59731
450 5.38795
455 5.18323
460 5.43206
465 5.02547
470 4.61404
475 4.58842
480 4.07794
485 3.98059
490 3.82753
495 3.57196
500 3.13384
505 2.69935
510 2.58736
515 2.23215
520 2.24847
525 1.94664
530 1.78426
535 1.58069
540 1.47262
545 1.19448
550 1.19658
555 1.21911
560 0.84988
565 0.853222
570 0.854579
575 0.669024
580 0.646253
585 0.483084
590 0.439957
595 0.528289
600 0.220705
Ex : 348
200 0.272542
205 0.157877
210 0.176914
215 0.268122
220 0.191186
225 0.305659
230 0.133471
235 0.135303
240 0.134653
245 0.178477
250 0.214343
255 0.184408
260 0.223768
265 0.195359
270 0.194124
275 0.167518
280 0.19877
285 0.153865
290 0.209103
295 0.177912
300 0.220373
305 0.255953
310 0.201663
315 0.16002
320 0.25496
325 0.313729
330 0.335912
335 6.69215
340 97.0768
345 145.628
350 38.1879
355 6.10593
360 2.76317
365 2.18153
370 1.81011
375 2.68877
380 5.50977
385 7.44301
390 5.81622
395 4.59875
400 4.16634
405 4.21573
410 4.48752
415 4.72954
420 5.14618
425 4.89443
430 5.04192
435 5.42837
440 5.2722
445 5.25315
450 5.04615
455 4.9094
460 4.60418
465 4.49046
470 4.60489
475 4.48095
480 4.09783
485 3.83677
490 3.58906
495 3.48346
500 3.29521
505 2.7496
510 2.61176
515 2.41929
520 2.38885
525 1.96043
530 1.77536
535 1.65387
540 1.44739
545 1.2622
550 1.22235
555 1.21101
560 0.947613
565 0.828872
570 0.62996
575 0.597375
580 0.550565
585 0.468484
590 0.483551
595 0.410186
600 0.143944
Ex : 353
200 0.197849
205 0.194065
210 0.314094
215 0.217756
220 0.206681
225 0.172486
230 0.152974
235 0.120944
240 0.246122
245 0.170747
250 0.205288
255 0.208809
260 0.221049
265 0.184623
270 0.21272
275 0.236954
280 0.151119
285 0.28809
290 0.281258
295 0.277597
300 0.254946
305 0.171638
310 0.213564
315 0.159984
320 0.20984
325 0.169254
330 0.228008
335 0.341877
340 6.70067
345 100.842
350 146.919
355 36.935
360 5.61384
365 2.39899
370 2.30309
375 2.02503
380 2.25192
385 4.36353
390 7.47878
395 5.91881
400 4.7905
405 4.28844
410 4.21447
415 4.61119
420 5.17724
425 4.87586
430 5.12179
435 5.15842
440 5.36974
445 5.17721
450 5.32475
455 5.11166
460 4.94048
465 4.74315
470 4.66361
475 4.47713
480 4.38922
485 4.13851
490 4.01977
495 3.74076
500 3.3063
505 2.96544
510 2.87478
515 2.53075
520 2.24436
525 2.19411
530 1.77623
535 1.82161
540 1.5066
545 1.44502
550 1.32558
555 1.1011
560 1.01865
565 0.792862
570 0.662431
575 0.63482
580 0.589638
585 0.429917
590 0.480726
595 0.450436
600 0.271557
Ex : 358
200 0.1269
205 0.150598
210 0.137301
215 0.167737
220 0.155791
225 0.172658
230 0.165397
235 0.174807
240 0.158699
245 0.19386
250 0.201292
255 0.112755
260 0.201514
265 0.140315
270 0.195546
275 0.172399
280 0.147618
285 0.142547
290 0.18711
295 0.150953
300 0.179448
305 0.272962
310 0.218962
315 0.197909
320 0.223494
325 0.147442
330 0.186701
335 0.223943
340 0.351807
345 6.19727
350 95.7272
355 146.19
360 36.8223
365 5.47721
370 2.35878
375 2.46532
380 2.17357
385 1.98358
390 3.59571
395 6.93083
400 7.0101
405 5.23213
410 4.8449
415 4.60967
420 4.82431
425 4.94243
430 4.93789
435 5.19275
440 5.34877
445 5.48296
450 5.51576
455 5.52042
460 5.20317
465 5.11551
470 5.06037
475 4.61648
480 4.52715
485 4.44096
490 3.83395
495 3.68645
500 3.57237
505 3.27346
510 2.90651
515 2.7111
520 2.57479
525 2.28297
530 1.96204
535 1.88506
540 1.66461
545 1.53754
550 1.32351
555 1.20231
560 1.14653
565 0.855013
570 0.771877
575 0.603308
580 0.584967
585 0.410066
590 0.430396
595 0.420973
600 0.683559
Ex : 363
200 0.164319
205 0.192742
210 0.225452
215 0.211282
220 0.190666
225 0.167817
230 0.192056
235 0.198568
240 0.246843
245 0.151066
250 0.151371
255 0.128358
260 0.211494
265 0.150728
270 0.149768
275 0.125081
280 0.1435
285 0.217368
290 0.197978
295 0.1629
300 0.11508
305 0.130796
310 0.196802
315 0.186585
320 0.16716
325 0.212282
330 0.226709
335 0.266483
340 0.213442
345 0.343995
350 5.80633
355 92.938
360 146.944
365 38.6653
370 5.64534
375 2.46305
380 2.44995
385 1.9273
390 1.74805
395 2.97911
400 6.03186
405 6.9723
410 5.91909
415 5.32027
420 4.88941
425 4.78326
430 4.90939
435 5.36219
440 5.7869
445 5.87076
450 5.85265
455 5.74176
460 5.54221
465 5.54438
470 5.71704
475 5.45638
480 4.9517
485 4.63497
490 4.40133
495 3.86575
500 3.90576
505 3.41889
510 3.45221
515 2.92195
520 2.76568
525 2.55269
530 2.08365
535 1.81526
540 1.78989
545 1.47769
550 1.33348
555 1.13194
560 1.1987
565 0.94715
570 0.846968
575 0.642493
580 0.554192
585 0.435273
590 0.377079
595 0.320611
600 0.483973
Ex : 368
200 0.163875
205 0.107151
210 0.203599
215 0.13579
220 0.186288
225 0.127879
230 0.175707
235 0.142433
240 0.0999799
245 0.123085
250 0.121742
255 0.163084
260 0.159048
265 0.153569
270 0.10088
275 0.134018
280 0.156573
285 0.119898
290 0.144463
295 0.15701
300 0.191834
305 0.170007
310 0.0859537
315 0.107886
320 0.226646
325 0.128578
330 0.210538
335 0.207522
340 0.24561
345 0.349876
350 0.29992
355 4.88517
360 89.9208
365 147.688
370 39.8613
375 5.89589
380 2.11924
385 2.17854
390 1.99778
395 1.92649
400 2.71511
405 5.89642
410 7.70731
415 6.36066
420 5.55394
425 4.90202
430 4.93361
435 5.32614
440 5.54067
445 5.68952
450 5.51195
455 5.44024
460 5.19164
465 5.50169
470 5.35134
475 5.34276
480 4.65039
485 4.71786
490 4.26432
495 4.1551
500 3.94841
505 3.39459
510 3.11712
515 2.98785
520 2.62503
525 2.44692
530 2.18392
535 1.97154
540 1.83953
545 1.61091
550 1.34811
555 1.26249
560 1.17204
565 1.00227
570 0.812449
575 0.683683
580 0.607996
585 0.415256
590 0.372094
595 0.376902
600 0.276749
Ex : 373
200 0.146922
205 0.159688
210 0.111686
215 0.168184
220 0.141335
225 0.192972
230 0.197868
235 0.163125
240 0.116147
245 0.159307
250 0.135617
255 0.142113
260 0.146523
265 0.107082
270 0.102077
275 0.150667
280 0.220365
285 0.149067
290 0.102886
295 0.133918
300 0.126617
305 0.23813
310 0.142167
315 0.11796
320 0.128381
325 0.141329
330 0.199471
335 0.185935
340 0.169664
345 0.160134
350 0.169621
355 0.263814
360 5.74146
365 91.4807
370 145.768
375 39.5459
380 5.96135
385 2.20577
390 2.26757
395 2.30282
400 2.1569
405 2.90443
410 4.98819
415 7.68212
420 6.5359
425 5.38505
430 5.05873
435 5.0376
440 5.09016
445 5.45207
450 5.06985
455 5.22477
460 5.30858
465 4.98048
470 5.35409
475 5.0696
480 4.6506
485 4.4894
490 4.23653
495 4.09548
500 3.68518
505 3.4682
510 3.10241
515 2.80195
520 2.70816
525 2.51653
530 2.11632
535 1.87251
540 1.7406
545 1.65511
550 1.39992
555 1.2773
560 1.17232
565 0.977378
570 0.863748
575 0.648176
580 0.652572
585 0.465409
590 0.413434
595 0.38226
600 0.40954
Ex : 378
200 0.138385
205 0.151511
210 0.122123
215 0.205146
220 0.127429
225 0.169018
230 0.10911
235 0.0948907
240 0.14337
245 0.14999
250 0.177368
255 0.116679
260 0.175506
265 0.159982
270 0.149199
275 0.142552
280 0.149836
285 0.10433
290 0.13861
295 0.127271
300 0.154691
305 0.164485
310 0.142307
315 0.13722
320 0.134766
325 0.108763
330 0.152197
335 0.135462
340 0.133821
345 0.150961
350 0.140443
355 0.169303
360 0.286961
365 5.33899
370 90.9207
375 148.254
380 40.9722
385 6.00758
390 2.29245
395 2.74045
400 3.07877
405 2.83837
410 3.17939
415 4.9475
420 7.31578
425 7.1078
430 5.94657
435 5.53479
440 5.23745
445 5.35906
450 5.54876
455 5.45134
460 5.14717
465 5.03499
470 5.2425
475 5.05854
480 4.9117
485 4.63032
490 4.33324
495 3.95583
500 3.84921
505 3.51102
510 3.28551
515 2.99496
520 2.58312
525 2.40474
530 2.30109
535 2.00309
540 1.85601
545 1.56198
550 1.48759
555 1.34459
560 1.08049
565 0.975367
570 0.920082
575 0.660111
580 0.588868
585 0.524105
590 0.385493
595 0.369925
600 0.530784
Ex : 383
200 0.0842549
205 0.139661
210 0.134491
215 0.118726
220 0.0920105
225 0.107476
230 0.132617
235 0.117491
240 0.107504
245 0.105624
250 0.155835
255 0.130793
260 0.117325
265 0.132502
270 0.0794455
275 0.149502
280 0.0940338
285 0.137769
290 0.13236
295 0.153112
300 0.103607
305 0.148257
310 0.10605
315 0.135203
320 0.162141
325 0.206574
330 0.216453
335 0.163759
340 0.124657
345 0.115111
350 0.141219
355 0.179595
360 0.183281
365 0.28387
370 5.04521
375 87.0731
380 147.055
385 40.0823
390 5.97857
395 2.22916
400 2.43561
405 3.0393
410 3.49278
415 4.0393
420 4.55827
425 6.68558
430 7.56957
435 6.70341
440 6.7221
445 5.82946
450 5.64749
455 5.43025
460 5.51296
465 5.3215
470 5.63009
475 5.18705
480 5.14943
485 4.88524
490 4.55718
495 4.07272
500 3.90441
505 3.7575
510 3.5667
515 3.01297
520 2.6678
525 2.50482
530 2.22012
535 2.01333
540 1.69498
545 1.61552
550 1.5118
555 1.14963
560 1.06625
565 0.9405
570 0.816338
575 0.756819
580 0.580115
585 0.481981
590 0.363769
595 0.353245
600 0.175735
Ex : 388
200 0.131455
205 0.166762
210 0.121798
215 0.141251
220 0.106059
225 0.135592
230 0.170228
235 0.129247
240 0.1743
245 0.1259
250 0.174458
255 0.14483
260 0.115735
265 0.113329
270 0.103676
275 0.124451
280 0.153563
285 0.140729
290 0.102965
295 0.0983995
300 0.112485
305 0.110569
310 0.172613
315 0.146589
320 0.130749
325 0.101845
330 0.133289
335 0.1182
340 0.14287
345 0.129791
350 0.133342
355 0.165986
360 0.169826
365 0.229987
370 0.318232
375 5.16681
380 87.5049
385 146.289
390 40.413
395 5.9567
400 2.2491
405 2.81917
410 3.60481
415 3.9095
420 3.62327
425 3.96683
430 6.50935
435 7.82973
440 6.93058
445 6.4369
450 5.96201
455 5.39462
460 5.35218
465 5.36062
470 5.13894
475 5.22115
480 4.93773
485 4.7827
490 4.48298
495 4.32848
500 4.02554
505 3.70799
510 3.49742
515 3.16878
520 2.74168
525 2.47394
530 2.19379
535 2.07222
540 1.93488
545 1.75452
550 1.4464
555 1.35554
560 1.1062
565 1.04297
570 0.886547
575 0.768275
580 0.564644
585 0.449919
590 0.433195
595 0.333669
600 0.427767
Ex : 393
200 0.190647
205 0.107471
210 0.12929
215 0.103056
220 0.0911174
225 0.141368
230 0.135349
235 0.105738
240 0.172137
245 0.13456
250 0.188652
255 0.139246
260 0.0793586
265 0.151425
270 0.131348
275 0.130917
280 0.100377
285 0.118034
290 0.113475
295 0.107812
300 0.0975695
305 0.113457
310 0.136694
315 0.138797
320 0.110088
325 0.127454
330 0.120284
335 0.177516
340 0.0921191
345 0.190438
350 0.155341
355 0.125565
360 0.171648
365 0.165516
370 0.156686
375 0.2812
380 4.41827
385 86.8727
390 147.354
395 40.2844
400 6.10438
405 2.58516
410 3.2918
415 3.78183
420 3.32281
425 3.30113
430 3.57026
435 5.23591
440 7.68858
445 6.50368
450 5.58913
455 4.92303
460 4.76063
465 4.77623
470 4.79247
475 4.58384
480 4.28663
485 4.14813
490 3.9793
495 3.71653
500 3.55839
505 3.37463
510 3.17523
515 2.74727
520 2.48448
525 2.36076
530 2.20647
535 1.99748
540 1.73565
545 1.63662
550 1.44551
555 1.3027
560 1.25816
565 1.0846
570 0.767204
575 0.700467
580 0.51845
585 0.456564
590 0.358621
595 0.219781
600 0.317218
Ex : 398
200 0.162593
205 0.151115
210 0.111372
215 0.107601
220 0.144232
225 0.180104
230 0.146795
235 0.101962
240 0.0713948
245 0.186865
250 0.0936578
255 0.0868307
260 0.139013
265 0.128736
270 0.134125
275 0.191536
280 0.148882
285 0.156941
290 0.0929675
295 0.15217
300 0.129401
305 0.128901
310 0.0638377
315 0.0848497
320 0.08144
325 0.0938702
330 0.108009
335 0.0966982
340 0.10492
345 0.113206
350 0.11729
355 0.109519
360 0.147257
365 0.157405
370 0.147528
375 0.188323
380 0.288404
385 4.4466
390 87.4046
395 147.321
400 39.9154
405 6.2909
410 3.02456
415 3.27711
420 3.54086
425 3.24397
430 3.10747
435 3.64255
440 5.03231
445 7.00924
450 6.75108
455 5.36317
460 4.90307
465 4.53013
470 4.52735
475 4.30877
480 4.49857
485 4.08159
490 3.93745
495 3.53125
500 3.39312
505 3.17934
510 2.93223
515 2.88041
520 2.5803
525 2.34938
530 1.97865
535 1.81944
540 1.59214
545 1.54668
550 1.43216
555 1.17395
560 1.09888
565 0.950674
570 0.866726
575 0.668565
580 0.558772
585 0.463749
590 0.361385
595 0.304551
600 0.0588534
Ex : 403
200 0.121449
205 0.104319
210 0.142968
215 0.126306
220 0.0908299
225 0.153616
230 0.130824
235 0.126
240 0.118041
245 0.0800372
250 0.164618
255 0.157466
260 0.145018
265 0.105371
270 0.0928711
275 0.16822
280 0.0855549
285 0.108235
290 0.130014
295 0.10419
300 0.0873586
305 0.124233
310 0.113329
315 0.153363
320 0.107355
325 0.144999
330 0.149947
335 0.195121
340 0.136047
345 0.109026
350 0.18118
355 0.143887
360 0.100444
365 0.181537
370 0.164686
375 0.0973146
380 0.124321
385 0.280801
390 5.08707
395 89.7584
400 146.16
405 41.135
410 7.1901
415 3.50365
420 3.48668
425 3.47158
430 3.5756
435 3.55777
440 3.97144
445 4.41863
450 6.37324
455 6.753
460 5.51224
465 5.04718
470 4.81243
475 4.54872
480 4.19386
485 3.91265
490 3.63173
495 3.60149
500 3.47501
505 3.25691
510 2.99616
515 2.79175
520 2.47667
525 2.26224
530 1.95206
535 1.68874
540 1.6873
545 1.58567
550 1.43606
555 1.16084
560 1.1139
565 0.913586
570 0.802053
575 0.660921
580 0.536312
585 0.484211
590 0.402945
595 0.308064
600 0.496368
Ex : 408
200 0.126509
205 0.149134
210 0.137721
215 0.126764
220 0.113317
225 0.137601
230 0.128671
235 0.103878
240 0.129624
245 0.10571
250 0.153407
255 0.111142
260 0.0963126
265 0.107787
270 0.0765212
275 0.103123
280 0.137114
285 0.0772073
290 0.146533
295 0.0798459
300 0.105504
305 0.134571
310 0.122438
315 0.156743
320 0.09106
325 0.139332
330 0.1213
335 0.143111
340 0.117142
345 0.0999788
350 0.110191
355 0.14281
360 0.146412
365 0.120272
370 0.188636
375 0.141262
380 0.195649
385 0.224927
390 0.220854
395 5.16091
400 90.0763
405 149.215
410 40.7361
415 7.04543
420 3.26738
425 3.11089
430 3.55216
435 3.66821
440 3.6618
445 3.69347
450 3.92533
455 5.28166
460 6.64578
465 5.64383
470 4.7469
475 4.27396
480 4.17565
485 3.8694
490 3.55006
495 3.33674
500 3.25193
505 3.04399
510 2.87662
515 2.51915
520 2.50837
525 1.9921
530 1.88977
535 1.55083
540 1.56544
545 1.42992
550 1.25882
555 1.05881
560 1.03267
565 0.863806
570 0.762423
575 0.729397
580 0.659107
585 0.433481
590 0.380207
595 0.262757
600 0.123344
Ex : 413
200 0.133201
205 0.0876446
210 0.111007
215 0.182426
220 0.148069
225 0.104769
230 0.141973
235 0.111962
240 0.173728
245 0.1422
250 0.103727
255 0.137369
260 0.105618
265 0.155028
270 0.114172
275 0.111033
280 0.0785371
285 0.0932324
290 0.0931848
295 0.0836417
300 0.117895
305 0.133944
310 0.0939405
315 0.110029
320 0.107845
325 0.131887
330 0.14831
335 0.0982956
340 0.0733979
345 0.0956575
350 0.0883697
355 0.148145
360 0.113137
365 0.106632
370 0.128626
375 0.157846
380 0.175595
385 0.169035
390 0.183518
395 0.265857
400 5.65435
405 93.1049
410 147.94
415 39.2065
420 6.26116
425 2.51402
430 2.29372
435 2.70908
440 2.73934
445 2.65247
450 2.64064
455 2.7523
460 3.92072
465 5.63454
470 4.93365
475 4.01885
480 3.90281
485 3.25299
490 2.99945
495 2.98093
500 2.66391
505 2.56549
510 2.40416
515 2.29987
520 2.02514
525 1.91565
530 1.82407
535 1.60698
540 1.45337
545 1.3357
550 1.16603
555 1.06423
560 0.976667
565 0.822262
570 0.743854
575 0.570815
580 0.534395
585 0.422298
590 0.303935
595 0.276188
600 0.227046
Ex : 418
200 0.0870864
205 0.0685523
210 0.14663
215 0.0905655
220 0.109513
225 0.148537
230 0.123211
235 0.0960716
240 0.153468
245 0.0972916
250 0.108193
255 0.117176
260 0.0874187
265 0.111063
270 0.13481
275 0.107967
280 0.12083
285 0.0873846
290 0.159204
295 0.0893334
300 0.125922
305 0.0806759
310 0.10206
315 0.101664
320 0.10578
325 0.106536
330 0.108351
335 0.112968
340 0.116214
345 0.101958
350 0.110319
355 0.10555
360 0.148664
365 0.0817462
370 0.109547
375 0.103391
380 0.136239
385 0.153189
390 0.171247
395 0.238271
400 0.361312
405 5.46669
410 91.4571
415 149.394
420 40.928
425 5.89458
430 1.91722
435 1.68279
440 1.9974
445 2.02248
450 1.75297
455 1.83286
460 1.90037
465 2.68595
470 4.67359
475 4.675
480 3.38405
485 3.23385
490 2.62271
495 2.38629
500 2.392
505 2.38846
510 2.23808
515 2.04847
520 1.8111
525 1.75002
530 1.60141
535 1.49705
540 1.2766
545 1.31794
550 1.194
555 1.05017
560 0.887983
565 0.747108
570 0.680317
575 0.59056
580 0.535804
585 0.426363
590 0.37851
595 0.252939
600 0.441377
Ex : 423
200 0.108405
205 0.128153
210 0.0943617
215 0.0473918
220 0.0848673
225 0.0936385
230 0.112553
235 0.126748
240 0.0981243
245 0.114587
250 0.114033
255 0.10742
260 0.156308
265 0.0846088
270 0.102531
275 0.0951265
280 0.15505
285 0.117337
290 0.114311
295 0.136184
300 0.105718
305 0.128907
310 0.160734
315 0.11811
320 0.121343
325 0.0765399
330 0.0919765
335 0.0857613
340 0.0797393
345 0.091307
350 0.143141
355 0.114079
360 0.133379
365 0.147032
370 0.130229
375 0.129809
380 0.119105
385 0.156631
390 0.121291
395 0.170167
400 0.22343
405 0.378921
410 5.44072
415 96.7381
420 149.55
425 38.2809
430 5.34532
435 1.56409
440 1.29359
445 1.58066
450 1.6796
455 1.52173
460 1.50195
465 1.62319
470 2.00212
475 3.74696
480 4.40906
485 3.30583
490 2.86607
495 2.5281
500 2.13421
505 1.95642
510 2.00838
515 1.79783
520 1.63394
525 1.51771
530 1.48895
535 1.5009
540 1.32945
545 1.21962
550 1.04206
555 0.984858
560 0.907827
565 0.877572
570 0.612543
575 0.481664
580 0.448688
585 0.384011
590 0.290371
595 0.276352
600 0.237744
Ex : 428
200 0.0774102
205 0.0597419
210 0.0902284
215 0.123255
220 0.0865948
225 0.129147
230 0.0782045
235 0.140304
240 0.129417
245 0.150371
250 0.0925467
255 0.102052
260 0.10795
265 0.089223
270 0.0943725
275 0.110717
280 0.0744963
285 0.124017
290 0.0877502
295 0.0910197
300 0.100462
305 0.0945934
310 0.0835546
315 0.103068
320 0.0855318
325 0.133675
330 0.122451
335 0.127375
340 0.1261
345 0.125655
350 0.123166
355 0.147067
360 0.105532
365 0.164754
370 0.118248
375 0.127313
380 0.137006
385 0.0974732
390 0.151962
395 0.165736
400 0.201303
405 0.227449
410 0.294069
415 5.75511
420 96.373
425 151.16
430 40.5387
435 5.47222
440 1.49115
445 1.12241
450 1.41446
455 1.5292
460 1.18651
465 1.25323
470 1.43969
475 1.66777
480 2.88218
485 4.15337
490 3.31404
495 2.53214
500 2.31912
505 1.93063
510 1.70689
515 1.76683
520 1.49379
525 1.49394
530 1.37369
535 1.35652
540 1.24453
545 1.15064
550 1.10544
555 0.9944
560 0.878613
565 0.780972
570 0.638391
575 0.514375
580 0.397331
585 0.34064
590 0.367534
595 0.269681
600 0.0984052
Ex : 433
200 0.0929513
205 0.117856
210 0.115545
215 0.133286
220 0.102809
225 0.15233
230 0.10461
235 0.105742
240 0.062718
245 0.0839937
250 0.108445
255 0.103833
260 0.0686511
265 0.139181
270 0.0928093
275 0.0950502
280 0.127304
285 0.0813337
290 0.134902
295 0.119891
300 0.0727806
305 0.162253
310 0.0755439
315 0.102283
320 0.161904
325 0.162465
330 0.137078
335 0.14638
340 0.136049
345 0.133953
350 0.120877
355 0.132355
360 0.144073
365 0.0953679
370 0.0961785
375 0.153533
380 0.131428
385 0.138909
390 0.139072
395 0.106832
400 0.129489
405 0.148824
410 0.189678
415 0.276444
420 6.59243
425 103.823
430 156.189
435 39.2957
440 5.38693
445 1.50014
450 1.02256
455 1.30834
460 1.55117
465 1.28854
470 1.23813
475 1.3417
480 1.53555
485 2.47655
490 4.00997
495 3.53378
500 2.51587
505 2.19245
510 1.9037
515 1.49505
520 1.47751
525 1.32171
530 1.35241
535 1.25019
540 1.158
545 1.03102
550 0.920903
555 0.914444
560 0.741048
565 0.689835
570 0.605562
575 0.47598
580 0.411685
585 0.389583
590 0.415762
595 0.267329
600 0.229365
Ex : 438
200 0.105172
205 0.148812
210 0.0745752
215 0.146816
220 0.101138
225 0.0981247
230 0.116697
235 0.0857847
240 0.0804486
245 0.146053
250 0.0958651
255 0.121095
260 0.114597
265 0.180955
270 0.11676
275 0.219896
280 0.172372
285 0.132814
290 0.0940865
295 0.111314
300 0.129014
305 0.0974191
310 0.0731166
315 0.118779
320 0.112225
325 0.137967
330 0.112714
335 0.105044
340 0.0966128
345 0.160123
350 0.136706
355 0.118988
360 0.101836
365 0.13513
370 0.159421
375 0.109323
380 0.0993941
385 0.107862
390 0.116005
395 0.134926
400 0.196369
405 0.215214
410 0.229814
415 0.199823
420 0.278591
425 6.64523
430 104.009
435 165.777
440 41.9131
445 5.57196
450 1.54153
455 0.995067
460 1.3121
465 1.41109
470 1.27477
475 1.25641
480 1.2661
485 1.41138
490 1.87234
495 3.54875
500 3.65058
505 2.32905
510 2.0722
515 1.77842
520 1.51378
525 1.41137
530 1.21417
535 1.17934
540 1.07034
545 1.06484
550 0.956329
555 0.935559
560 0.716046
565 0.643125
570 0.628628
575 0.572176
580 0.400338
585 0.368602
590 0.344674
595 0.305841
600 0.28377
Ex : 443
200 0.106071
205 0.100283
210 0.107776
215 0.0887697
220 0.0836606
225 0.0799641
230 0.0888529
235 0.16042
240 0.127866
245 0.0985989
250 0.138965
255 0.134365
260 0.1247
265 0.115794
270 0.146852
275 0.137392
280 0.204142
285 0.157737
290 0.130605
295 0.196073
300 0.114249
305 0.100407
310 0.134822
315 0.148002
320 0.140558
325 0.0946576
330 0.117251
335 0.114978
340 0.140732
345 0.108666
350 0.13293
355 0.0905788
360 0.132499
365 0.0915128
370 0.115215
375 0.170466
380 0.115357
385 0.117156
390 0.116027
395 0.152589
400 0.134404
405 0.114817
410 0.141635
415 0.189084
420 0.232897
425 0.313312
430 7.30675
435 112.424
440 169.869
445 42.8251
450 5.68455
455 1.61787
460 1.03114
465 1.3524
470 1.54918
475 1.41296
480 1.09942
485 1.18323
490 1.28308
495 1.51882
500 2.7245
505 3.61686
510 2.63727
515 1.92683
520 1.81418
525 1.5213
530 1.27694
535 1.09537
540 1.11148
545 0.930563
550 0.860677
555 0.791502
560 0.718781
565 0.71304
570 0.625647
575 0.553471
580 0.45233
585 0.428796
590 0.265533
595 0.233731
600 0.256354
Ex : 448
200 0.0789996
205 0.0934953
210 0.106647
215 0.0634433
220 0.115948
225 0.111543
230 0.116247
235 0.0793111
240 0.102844
245 0.0963371
250 0.127668
255 0.068039
260 0.106922
265 0.101229
270 0.151614
275 0.122171
280 0.0918083
285 0.119567
290 0.11562
295 0.100073
300 0.115618
305 0.128123
310 0.182219
315 0.126995
320 0.127405
325 0.116149
330 0.0817501
335 0.123931
340 0.0901018
345 0.0988096
350 0.119283
355 0.120749
360 0.103647
365 0.10288
370 0.158553
375 0.126533
380 0.121974
385 0.110177
390 0.133761
395 0.103202
400 0.142394
405 0.14253
410 0.141286
415 0.14351
420 0.181376
425 0.203707
430 0.274118
435 7.11658
440 117.841
445 179.118
450 45.0415
455 6.04439
460 1.59972
465 1.04416
470 1.15425
475 1.39269
480 1.37482
485 1.21345
490 1.16328
495 1.12893
500 1.44619
505 2.20461
510 3.39201
515 2.80393
520 1.85681
525 1.62295
530 1.47156
535 1.13845
540 1.02881
545 0.997593
550 1.03197
555 0.916648
560 0.775425
565 0.736787
570 0.676045
575 0.480571
580 0.459092
585 0.401961
590 0.305556
595 0.295482
600 0.261844
Ex : 453
200 0.136068
205 0.101637
210 0.106385
215 0.146694
220 0.110461
225 0.0701218
230 0.0988411
235 0.123683
240 0.101768
245 0.106668
250 0.134452
255 0.0925134
260 0.0995634
265 0.0919548
270 0.118431
275 0.0940593
280 0.104704
285 0.131313
290 0.115486
295 0.0970262
300 0.143371
305 0.118102
310 0.118204
315 0.156618
320 0.124572
325 0.148567
330 0.114105
335 0.0952071
340 0.109675
345 0.0885823
350 0.0866444
355 0.109843
360 0.103222
365 0.144674
370 0.15419
375 0.148019
380 0.124177
385 0.0910639
390 0.14331
395 0.141537
400 0.133391
405 0.137396
410 0.0943835
415 0.114038
420 0.122122
425 0.215962
430 0.198025
435 0.357021
440 7.61419
445 129.117
450 184.593
455 44.4923
460 5.95623
465 1.60438
470 1.00674
475 1.13354
480 1.46436
485 1.40103
490 1.18637
495 1.13358
500 1.09907
505 1.19118
510 1.66073
515 3.19398
520 3.07266
525 2.00369
530 1.73075
535 1.56411
540 1.16559
545 1.04487
550 0.927489
555 0.836339
560 0.893603
565 0.70431
570 0.715176
575 0.524721
580 0.520251
585 0.40672
590 0.33973
595 0.352459
600 0.251906
Ex : 458
200 0.0954602
205 0.100955
210 0.139311
215 0.126001
220 0.0969118
225 0.0960085
230 0.0849152
235 0.116138
240 0.0939642
245 0.1686
250 0.124292
255 0.111421
260 0.126025
265 0.164951
270 0.177646
275 0.115477
280 0.105688
285 0.150729
290 0.140886
295 0.114891
300 0.0897349
305 0.103049
310 0.102761
315 0.121444
320 0.118091
325 0.150679
330 0.135803
335 0.102473
340 0.113543
345 0.124491
350 0.105545
355 0.120926
360 0.105254
365 0.152786
370 0.122154
375 0.143848
380 0.132679
385 0.136692
390 0.105073
395 0.128336
400 0.172541
405 0.119116
410 0.106788
415 0.141469
420 0.120456
425 0.116093
430 0.165106
435 0.180535
440 0.278225
445 8.79949
450 134.312
455 198.314
460 48.4005
465 6.41294
470 1.71544
475 1.02001
480 1.1831
485 1.57101
490 1.43712
495 1.18401
500 1.06685
505 1.04354
510 1.08251
515 1.3143
520 2.41795
525 3.08789
530 2.15913
535 1.56931
540 1.5567
545 1.24147
550 1.13677
555 0.92336
560 0.841982
565 0.787976
570 0.565272
575 0.509848
580 0.47352
585 0.418482
590 0.337838
595 0.265922
600 0.0302609
Ex : 463
200 0.0780255
205 0.0791757
210 0.129561
215 0.140025
220 0.171052
225 0.0975376
230 0.159214
235 0.0999983
240 0.101558
245 0.129532
250 0.115766
255 0.11678
260 0.116478
265 0.105023
270 0.0840145
275 0.123686
280 0.121052
285 0.119139
290 0.172655
295 0.142598
300 0.0817778
305 0.123191
310 0.091201
315 0.157027
320 0.0720894
325 0.068013
330 0.0904781
335 0.130466
340 0.189123
345 0.147536
350 0.10204
355 0.116418
360 0.115692
365 0.119728
370 0.10421
375 0.0831968
380 0.147979
385 0.110959
390 0.146393
395 0.127751
400 0.149045
405 0.162941
410 0.129285
415 0.134127
420 0.0858136
425 0.108528
430 0.127245
435 0.15852
440 0.172192
445 0.389191
450 8.36959
455 137.387
460 208.401
465 50.9983
470 6.73102
475 1.71563
480 1.01601
485 1.11358
490 1.27818
495 1.35197
500 1.15887
505 1.02557
510 1.01032
515 1.03266
520 1.21809
525 1.86541
530 3.07431
535 2.40484
540 1.65214
545 1.39548
550 1.26232
555 0.952905
560 0.81632
565 0.769469
570 0.686516
575 0.571752
580 0.46607
585 0.446301
590 0.291299
595 0.314908
600 0.0843206
Ex : 468
200 0.103677
205 0.125908
210 0.149221
215 0.0912753
220 0.122518
225 0.0971365
230 0.0902284
235 0.0669847
240 0.108867
245 0.132011
250 0.116847
255 0.109545
260 0.109228
265 0.147969
270 0.122559
275 0.089225
280 0.0745624
285 0.0953847
290 0.107463
295 0.116587
300 0.126861
305 0.105787
310 0.102346
315 0.0676674
320 0.0987848
325 0.179023
330 0.118175
335 0.106882
340 0.0838512
345 0.154294
350 0.104524
355 0.103565
360 0.116494
365 0.116147
370 0.127413
375 0.131278
380 0.114453
385 0.090083
390 0.133322
395 0.104588
400 0.0990741
405 0.115534
410 0.106223
415 0.0991433
420 0.108978
425 0.105456
430 0.129735
435 0.129745
440 0.154768
445 0.206688
450 0.295717
455 9.28522
460 144.126
465 226.074
470 54.9984
475 7.12906
480 1.89502
485 1.08607
490 1.08913
495 1.28879
500 1.47344
505 1.35071
510 0.990695
515 1.04087
520 1.00523
525 1.1289
530 1.39278
535 2.58282
540 2.70946
545 1.72257
550 1.30339
555 1.28931
560 0.913652
565 0.770458
570 0.646444
575 0.582168
580 0.472767
585 0.408943
590 0.327896
595 0.267523
600 0.261627
Ex : 473
200 0.129446
205 0.0823269
210 0.118219
215 0.13438
220 0.09503
225 0.150786
230 0.103556
235 0.174402
240 0.144985
245 0.170738
250 0.108093
255 0.098092
260 0.155177
265 0.0892604
270 0.10713
275 0.0853122
280 0.111856
285 0.118935
290 0.107314
295 0.103697
300 0.109981
305 0.0817223
310 0.108868
315 0.163514
320 0.0965613
325 0.110096
330 0.122198
335 0.0853062
340 0.105797
345 0.117166
350 0.10256
355 0.0979511
360 0.0862307
365 0.118183
370 0.116911
375 0.093338
380 0.125874
385 0.0973843
390 0.118032
395 0.0991118
400 0.0800219
405 0.133435
410 0.114303
415 0.136232
420 0.10826
425 0.116125
430 0.0977952
435 0.137896
440 0.151609
445 0.231151
450 0.258096
455 0.329378
460 10.6055
465 158.961
470 217.77
475 50.7891
480 6.71281
485 1.65206
490 1.10493
495 1.08897
500 1.32543
505 1.28326
510 1.17911
515 1.08221
520 1.06814
525 1.12492
530 1.12505
535 1.40536
540 2.15064
545 2.84978
550 1.9615
555 1.34729
560 1.18322
565 1.0613
570 0.682339
575 0.701375
580 0.514103
585 0.396651
590 0.348091
595 0.358635
600 0.490335
Ex : 478
200 0.147108
205 0.133243
210 0.126265
215 0.0822737
220 0.113749
225 0.156751
230 0.133626
235 0.133094
240 0.100809
245 0.123261
250 0.177947
255 0.122369
260 0.116033
265 0.153398
270 0.127261
275 0.164731
280 0.166669
285 0.106495
290 0.144682
295 0.116146
300 0.138691
305 0.145073
310 0.102434
315 0.111044
320 0.0983164
325 0.13696
330 0.137111
335 0.143883
340 0.178957
345 0.14912
350 0.121492
355 0.127483
360 0.143658
365 0.153743
370 0.108064
375 0.101911
380 0.154828
385 0.117573
390 0.117801
395 0.138922
400 0.16382
405 0.146684
410 0.122242
415 0.122088
420 0.16942
425 0.130222
430 0.116963
435 0.12568
440 0.194833
445 0.219238
450 0.188375
455 0.219425
460 0.368943
465 12.0534
470 162.567
475 223.223
480 54.493
485 7.25149
490 1.8696
495 1.08493
500 0.976961
505 1.12596
510 1.34459
515 1.28561
520 1.11018
525 0.910976
530 1.01722
535 1.03938
540 1.02936
545 1.59595
550 2.46151
555 2.04565
560 1.25515
565 1.00596
570 0.843674
575 0.6782
580 0.477931
585 0.405081
590 0.313661
595 0.313226
600 0.0826158
Ex : 483
200 0.074835
205 0.0977612
210 0.110157
215 0.141181
220 0.0861615
225 0.118309
230 0.124895
235 0.146354
240 0.141249
245 0.104768
250 0.130088
255 0.152836
260 0.0970708
265 0.170977
270 0.120408
275 0.105188
280 0.135597
285 0.151145
290 0.15937
295 0.12182
300 0.0881756
305 0.219021
310 0.174184
315 0.152295
320 0.126366
325 0.153541
330 0.167495
335 0.147699
340 0.138054
345 0.123787
350 0.142646
355 0.14221
360 0.142142
365 0.113614
370 0.136375
375 0.128031
380 0.160673
385 0.151133
390 0.148095
395 0.176121
400 0.175728
405 0.165011
410 0.146891
415 0.153645
420 0.197636
425 0.133165
430 0.11823
435 0.175266
440 0.144026
445 0.121425
450 0.128375
455 0.228431
460 0.264107
465 0.411632
470 9.36221
475 161.929
480 243.835
485 59.0876
490 7.60027
495 1.77412
500 0.988021
505 0.870156
510 1.12805
515 1.42163
520 1.19363
525 1.16519
530 1.1607
535 0.981899
540 0.913824
545 0.905477
550 1.20046
555 2.05097
560 2.0716
565 1.30322
570 0.908738
575 0.83382
580 0.617212
585 0.383803
590 0.396348
595 0.283021
600 0.541237
Ex : 488
200 0.118219
205 0.16395
210 0.117097
215 0.149771
220 0.0944233
225 0.162341
230 0.147241
235 0.0854061
240 0.168987
245 0.139702
250 0.12601
255 0.125033
260 0.101448
265 0.111538
270 0.116847
275 0.128988
280 0.14631
285 0.0932138
290 0.100928
295 0.0914496
300 0.111318
305 0.104167
310 0.203036
315 0.147965
320 0.166929
325 0.183459
330 0.108715
335 0.148076
340 0.154951
345 0.129655
350 0.124169
355 0.147568
360 0.119188
365 0.181371
370 0.125058
375 0.151354
380 0.13834
385 0.178122
390 0.159499
395 0.129059
400 0.119133
405 0.164751
410 0.117106
415 0.107902
420 0.168955
425 0.179241
430 0.129957
435 0.190804
440 0.201974
445 0.165144
450 0.219954
455 0.161482
460 0.287249
465 0.283635
470 0.39067
475 11.0002
480 175.543
485 239.529
490 56.8753
495 7.4246
500 1.64715
505 1.00447
510 0.808527
515 0.95568
520 1.26979
525 1.21704
530 1.20156
535 1.15019
540 1.01521
545 0.942335
550 0.793851
555 1.02724
560 1.57605
565 2.00852
570 1.2925
575 0.83115
580 0.709653
585 0.581484
590 0.401854
595 0.315061
600 0.367334
Ex : 493
200 0.101905
205 0.129105
210 0.19053
215 0.140481
220 0.146298
225 0.123248
230 0.132014
235 0.110672
240 0.114469
245 0.129991
250 0.148631
255 0.193349
260 0.138365
265 0.181204
270 0.159412
275 0.151265
280 0.139451
285 0.130039
290 0.154208
295 0.148618
300 0.12801
305 0.10803
310 0.149646
315 0.171787
320 0.148315
325 0.125882
330 0.101973
335 0.157301
340 0.133969
345 0.140468
350 0.174865
355 0.162671
360 0.131053
365 0.124591
370 0.116012
375 0.108449
380 0.148475
385 0.173062
390 0.139206
395 0.138479
400 0.183371
405 0.15236
410 0.118144
415 0.130797
420 0.120087
425 0.152069
430 0.0928446
435 0.131637
440 0.088227
445 0.17567
450 0.19891
455 0.203452
460 0.245506
465 0.25249
470 0.295093
475 0.517893
480 10.8775
485 175.304
490 254.794
495 58.857
500 7.42552
505 1.6128
510 1.00816
515 0.887771
520 1.00476
525 1.36504
530 1.27951
535 1.17598
540 0.939638
545 0.844195
550 0.910527
555 0.844853
560 0.795636
565 1.13346
570 1.68682
575 1.41187
580 0.84288
585 0.580734
590 0.551988
595 0.367824
600 0.42978
Ex : 498
200 0.173896
205 0.184485
210 0.170172
215 0.180363
220 0.16827
225 0.115832
230 0.147116
235 0.148456
240 0.134523
245 0.138897
250 0.12521
255 0.169823
260 0.137756
265 0.180392
270 0.216938
275 0.199003
280 0.147598
285 0.169219
290 0.160302
295 0.148261
300 0.120783
305 0.15801
310 0.122524
315 0.150653
320 0.160939
325 0.127645
330 0.143564
335 0.14318
340 0.133025
345 0.155615
350 0.158657
355 0.151629
360 0.167772
365 0.227647
370 0.169885
375 0.207328
380 0.1239
385 0.102826
390 0.134487
395 0.105571
400 0.193353
405 0.201495
410 0.181262
415 0.140966
420 0.141776
425 0.130138
430 0.150243
435 0.184071
440 0.204153
445 0.218566
450 0.228616
455 0.146898
460 0.189446
465 0.205203
470 0.216482
475 0.265825
480 0.312736
485 12.8365
490 187.564
495 251.287
500 58.2618
505 7.41949
510 1.6635
515 1.01033
520 0.941525
525 1.08798
530 1.18974
535 1.2053
540 1.03952
545 0.937923
550 0.873915
555 0.847327
560 0.661705
565 0.712838
570 0.741099
575 1.23655
580 1.28055
585 0.769699
590 0.568541
595 0.441738
600 0.585334
Ex : 503
200 0.129273
205 0.192906
210 0.166028
215 0.171739
220 0.182601
225 0.159997
230 0.137289
235 0.162776
240 0.137747
245 0.122365
250 0.184226
255 0.134996
260 0.136543
265 0.204426
270 0.133604
275 0.165913
280 0.171474
285 0.126551
290 0.10652
295 0.214774
300 0.125107
305 0.0859115
310 0.159585
315 0.180487
320 0.181241
325 0.143309
330 0.120026
335 0.156325
340 0.265686
345 0.106446
350 0.162762
355 0.198402
360 0.174996
365 0.119822
370 0.19545
375 0.199482
380 0.205044
385 0.125216
390 0.213191
395 0.194764
400 0.176835
405 0.195915
410 0.1741
415 0.175634
420 0.130256
425 0.284926
430 0.185378
435 0.236195
440 0.219507
445 0.16296
450 0.26984
455 0.165794
460 0.207053
465 0.239399
470 0.184234
475 0.288995
480 0.301473
485 0.458279
490 11.9474
495 185.956
500 259.497
505 60.2364
510 7.66247
515 1.64097
520 1.01419
525 0.932032
530 1.03138
535 1.2174
540 1.2085
545 1.14801
550 0.863018
555 0.714051
560 0.743191
565 0.638614
570 0.593731
575 0.556718
580 0.827201
585 1.05496
590 0.723113
595 0.478757
600 0.585422
Ex : 508
200 0.15749
205 0.155916
210 0.116188
215 0.199852
220 0.136969
225 0.128851
230 0.162201
235 0.258538
240 0.134269
245 0.117422
250 0.146138
255 0.170043
260 0.132431
265 0.0949738
270 0.211243
275 0.187412
280 0.170653
285 0.124541
290 0.14203
295 0.122263
300 0.169594
305 0.168259
310 0.177032
315 0.195054
320 0.167484
325 0.205842
330 0.16366
335 0.153321
340 0.123374
345 0.261105
350 0.195343
355 0.180273
360 0.149162
365 0.170039
370 0.17207
375 0.113933
380 0.215182
385 0.140062
390 0.237489
395 0.145296
400 0.218291
405 0.183766
410 0.186736
415 0.181095
420 0.179483
425 0.219782
430 0.158439
435 0.226058
440 0.174089
445 0.160727
450 0.176216
455 0.226811
460 0.229287
465 0.312272
470 0.274326
475 0.274812
480 0.299025
485 0.343821
490 0.455758
495 12.9954
500 191.587
505 267.005
510 63.5204
515 8.0883
520 1.8375
525 1.26048
530 0.959929
535 0.900697
540 1.189
545 1.17192
550 1.02901
555 0.884219
560 0.687541
565 0.608159
570 0.507653
575 0.499079
580 0.480835
585 0.493699
590 0.789591
595 0.80515
600 0.212469
Ex : 513
200 0.146118
205 0.167748
210 0.127904
215 0.173538
220 0.103485
225 0.141986
230 0.096057
235 0.168688
240 0.173897
245 0.153256
250 0.159138
255 0.198912
260 0.139858
265 0.192283
270 0.190037
275 0.195078
280 0.16008
285 0.179662
290 0.173277
295 0.171485
300 0.175097
305 0.183003
310 0.212577
315 0.151019
320 0.16015
325 0.142397
330 0.216814
335 0.146197
340 0.192899
345 0.21247
350 0.13987
355 0.159741
360 0.169842
365 0.143943
370 0.212397
375 0.194666
380 0.166129
385 0.143747
390 0.185386
395 0.150376
400 0.0977032
405 0.189113
410 0.13237
415 0.171084
420 0.241119
425 0.217518
430 0.161661
435 0.23691
440 0.276673
445 0.249244
450 0.193002
455 0.199984
460 0.176702
465 0.178205
470 0.258379
475 0.200098
480 0.283266
485 0.193099
490 0.356123
495 0.41691
500 12.6351
505 189.829
510 269.341
515 66.0604
520 8.55943
525 1.79779
530 1.0926
535 0.933377
540 0.941897
545 1.03234
550 1.04541
555 0.897822
560 0.79454
565 0.596846
570 0.631595
575 0.541546
580 0.41063
585 0.44138
590 0.433198
595 0.589911
600 0.618917
Ex : 518
200 0.204259
205 0.149918
210 0.218992
215 0.170308
220 0.118074
225 0.209397
230 0.167081
235 0.187877
240 0.225086
245 0.136646
250 0.199402
255 0.135865
260 0.211454
265 0.219719
270 0.172311
275 0.200326
280 0.172318
285 0.158879
290 0.191825
295 0.202699
300 0.181215
305 0.149845
310 0.223887
315 0.21896
320 0.159881
325 0.172143
330 0.178366
335 0.180184
340 0.194591
345 0.186252
350 0.127961
355 0.230464
360 0.171773
365 0.219714
370 0.18401
375 0.188194
380 0.212356
385 0.214563
390 0.22249
395 0.194803
400 0.184879
405 0.131022
410 0.167989
415 0.161069
420 0.131525
425 0.195649
430 0.174188
435 0.181257
440 0.163717
445 0.190669
450 0.157335
455 0.166475
460 0.186414
465 0.198923
470 0.268086
475 0.227544
480 0.264749
485 0.237582
490 0.238223
495 0.306705
500 0.468493
505 12.3169
510 182.939
515 263.064
520 65.8752
525 8.43901
530 1.70393
535 1.08731
540 0.930165
545 0.770886
550 0.780637
555 0.807493
560 0.760991
565 0.699153
570 0.572875
575 0.534261
580 0.514061
585 0.454812
590 0.305118
595 0.330977
600 0.0376639
Ex : 523
200 0.19119
205 0.17339
210 0.259274
215 0.212082
220 0.184974
225 0.191147
230 0.150336
235 0.135156
240 0.23308
245 0.257996
250 0.146457
255 0.185447
260 0.108413
265 0.182716
270 0.280195
275 0.171297
280 0.167985
285 0.160628
290 0.108211
295 0.125675
300 0.254182
305 0.135033
310 0.114316
315 0.18896
320 0.267142
325 0.134659
330 0.149716
335 0.127747
340 0.237983
345 0.190427
350 0.177996
355 0.303798
360 0.220637
365 0.207112
370 0.244724
375 0.204942
380 0.222934
385 0.260197
390 0.214218
395 0.175477
400 0.151585
405 0.184072
410 0.2065
415 0.196094
420 0.166343
425 0.215346
430 0.208362
435 0.19538
440 0.181775
445 0.208894
450 0.214357
455 0.158781
460 0.216982
465 0.215529
470 0.221472
475 0.257598
480 0.231203
485 0.223361
490 0.272865
495 0.240817
500 0.333082
505 0.461933
510 11.4516
515 179.569
520 268.541
525 68.7801
530 8.69163
535 1.79166
540 0.912868
545 0.835028
550 0.697658
555 0.791609
560 0.83224
565 0.666351
570 0.640123
575 0.361378
580 0.36336
585 0.382311
590 0.311172
595 0.252835
600 0.690118
Ex : 528
200 0.191137
205 0.124397
210 0.208391
215 0.198663
220 0.22699
225 0.226544
230 0.273671
235 0.240891
240 0.155898
245 0.168325
250 0.132313
255 0.218603
260 0.218474
265 0.158618
270 0.187599
275 0.218536
280 0.176855
285 0.122233
290 0.15551
295 0.138103
300 0.181273
305 0.165215
310 0.134199
315 0.149905
320 0.214173
325 0.161129
330 0.159138
335 0.171743
340 0.183603
345 0.186995
350 0.185986
355 0.227927
360 0.139864
365 0.183291
370 0.19994
375 0.16342
380 0.21439
385 0.224293
390 0.163677
395 0.186954
400 0.204054
405 0.203685
410 0.196275
415 0.222144
420 0.254673
425 0.153498
430 0.156245
435 0.173415
440 0.211674
445 0.203533
450 0.186246
455 0.198305
460 0.223551
465 0.193773
470 0.187552
475 0.149701
480 0.195079
485 0.189845
490 0.296415
495 0.230689
500 0.297378
505 0.393908
510 0.557959
515 10.8497
520 176.194
525 265.873
530 66.7108
535 8.4088
540 1.57517
545 0.847488
550 0.751861
555 0.571374
560 0.590351
565 0.719489
570 0.621734
575 0.554056
580 0.431359
585 0.372424
590 0.360502
595 0.338229
600 0.156047
Ex : 533
200 0.12434
205 0.151351
210 0.150131
215 0.119114
220 0.18963
225 0.192468
230 0.173178
235 0.159681
240 0.195389
245 0.151487
250 0.185553
255 0.319029
260 0.186577
265 0.194207
270 0.176907
275 0.232425
280 0.168825
285 0.191847
290 0.131739
295 0.145923
300 0.16917
305 0.177622
310 0.247252
315 0.197134
320 0.221021
325 0.205331
330 0.226184
335 0.168455
340 0.173224
345 0.22705
350 0.185087
355 0.198951
360 0.148185
365 0.187928
370 0.164919
375 0.192311
380 0.146859
385 0.179425
390 0.172191
395 0.212746
400 0.207127
405 0.163077
410 0.249736
415 0.183709
420 0.208434
425 0.178331
430 0.290224
435 0.209035
440 0.199597
445 0.295452
450 0.181807
455 0.248024
460 0.258225
465 0.19818
470 0.258212
475 0.31296
480 0.160015
485 0.242863
490 0.218211
495 0.215037
500 0.224885
505 0.264378
510 0.366258
515 0.497731
520 10.9877
525 174.27
530 263.146
535 68.2402
540 8.43264
545 1.48811
550 0.78033
555 0.679974
560 0.5783
565 0.527849
570 0.591273
575 0.493052
580 0.531295
585 0.379556
590 0.285839
595 0.286704
600 1.32713
Ex : 538
200 0.218434
205 0.236864
210 0.197092
215 0.256272
220 0.214742
225 0.196016
230 0.180431
235 0.26119
240 0.182186
245 0.181396
250 0.28555
255 0.210176
260 0.216279
265 0.181888
270 0.164298
275 0.17672
280 0.141998
285 0.18828
290 0.169703
295 0.229652
300 0.237206
305 0.203193
310 0.166242
315 0.182313
320 0.328137
325 0.201096
330 0.184246
335 0.214267
340 0.215582
345 0.246256
350 0.221616
355 0.184055
360 0.216463
365 0.293805
370 0.282574
375 0.236629
380 0.295093
385 0.177518
390 0.243089
395 0.207974
400 0.345639
405 0.234314
410 0.183586
415 0.159724
420 0.249051
425 0.230683
430 0.248007
435 0.312924
440 0.224556
445 0.218542
450 0.216909
455 0.227965
460 0.208599
465 0.192473
470 0.183574
475 0.197693
480 0.147953
485 0.249647
490 0.191009
495 0.258466
500 0.263738
505 0.223877
510 0.232157
515 0.326174
520 0.551356
525 9.94584
530 164.64
535 263.443
540 71.4799
545 8.95081
550 1.56782
555 0.739036
560 0.566137
565 0.568839
570 0.435803
575 0.558309
580 0.52907
585 0.516226
590 0.351053
595 0.397056
600 0.137194
Ex : 543
200 0.225687
205 0.174051
210 0.146491
215 0.181024
220 0.170655
225 0.187112
230 0.108484
235 0.246236
240 0.185724
245 0.251282
250 0.274273
255 0.170776
260 0.291828
265 0.234305
270 0.195362
275 0.152154
280 0.206563
285 0.177413
290 0.298622
295 0.204624
300 0.139311
305 0.121154
310 0.173197
315 0.125484
320 0.187929
325 0.275329
330 0.141315
335 0.156619
340 0.179955
345 0.174398
350 0.210009
355 0.224456
360 0.284321
365 0.220633
370 0.245475
375 0.223356
380 0.291054
385 0.203977
390 0.212715
395 0.155675
400 0.210856
405 0.226892
410 0.217537
415 0.23616
420 0.260571
425 0.231035
430 0.285685
435 0.304207
440 0.269055
445 0.220103
450 0.257176
455 0.210994
460 0.210723
465 0.222477
470 0.319809
475 0.208872
480 0.252268
485 0.271535
490 0.253665
495 0.244117
500 0.257085
505 0.261201
510 0.224722
515 0.265991
520 0.470824
525 0.467148
530 8.47711
535 160.91
540 264.297
545 72.3942
550 9.01042
555 1.59576
560 0.624576
565 0.524943
570 0.397102
575 0.389804
580 0.500344
585 0.391227
590 0.305717
595 0.265947
600 0.522599
Ex : 548
200 0.190496
205 0.247374
210 0.16506
215 0.134117
220 0.194743
225 0.206894
230 0.220943
235 0.176955
240 0.201392
245 0.209307
250 0.136393
255 0.222278
260 0.255778
265 0.332419
270 0.200528
275 0.170459
280 0.184548
285 0.28152
290 0.248947
295 0.226509
300 0.188238
305 0.175639
310 0.229376
315 0.215204
320 0.119104
325 0.201851
330 0.163522
335 0.147045
340 0.136316
345 0.217267
350 0.215293
355 0.248881
360 0.182899
365 0.263973
370 0.320276
375 0.213784
380 0.222306
385 0.18035
390 0.246855
395 0.252032
400 0.288577
405 0.188705
410 0.202439
415 0.250428
420 0.202919
425 0.243425
430 0.181871
435 0.1967
440 0.385244
445 0.221275
450 0.242588
455 0.210744
460 0.234936
465 0.248134
470 0.206285
475 0.254732
480 0.240122
485 0.240253
490 0.33187
495 0.260199
500 0.298435
505 0.243502
510 0.248592
515 0.300854
520 0.346322
525 0.435
530 0.470966
535 9.74202
540 155.856
545 247.36
550 68.316
555 8.57936
560 1.48694
565 0.739015
570 0.557772
575 0.465718
580 0.418405
585 0.482734
590 0.322045
595 0.383624
600 0.125145
Ex : 553
200 0.227063
205 0.14994
210 0.166095
215 0.19819
220 0.221817
225 0.1845
230 0.18487
235 0.229379
240 0.29629
245 0.202715
250 0.258678
255 0.188911
260 0.283105
265 0.205125
270 0.218357
275 0.17547
280 0.193669
285 0.201161
290 0.290406
295 0.317719
300 0.352388
305 0.195764
310 0.241749
315 0.195222
320 0.201665
325 0.194023
330 0.202911
335 0.221004
340 0.269525
345 0.184842
350 0.31798
355 0.248043
360 0.339311
365 0.306348
370 0.287421
375 0.446801
380 0.183177
385 0.323039
390 0.221883
395 0.199388
400 0.20768
405 0.20863
410 0.203585
415 0.173967
420 0.234535
425 0.278671
430 0.232057
435 0.299172
440 0.274066
445 0.256057
450 0.323078
455 0.238707
460 0.238057
465 0.313181
470 0.216155
475 0.259774
480 0.248939
485 0.14361
490 0.214166
495 0.237932
500 0.212146
505 0.190767
510 0.20103
515 0.300572
520 0.219295
525 0.29919
530 0.265072
535 0.478767
540 8.58608
545 155.763
550 255.589
555 72.1754
560 9.01034
565 1.38257
570 0.581059
575 0.605621
580 0.331865
585 0.348156
590 0.280641
595 0.276306
600 0.514107
Ex : 558
200 0.195583
205 0.252254
210 0.157968
215 0.133899
220 0.329492
225 0.22784
230 0.247119
235 0.211736
240 0.214069
245 0.210256
250 0.223209
255 0.217362
260 0.259554
265 0.191757
270 0.274949
275 0.204651
280 0.185416
285 0.33201
290 0.214919
295 0.212131
300 0.210431
305 0.178721
310 0.185219
315 0.202096
320 0.1616
325 0.268633
330 0.284451
335 0.218178
340 0.19821
345 0.276494
350 0.221475
355 0.291748
360 0.209483
365 0.177557
370 0.181968
375 0.152433
380 0.185987
385 0.269146
390 0.254449
395 0.340464
400 0.260841
405 0.207831
410 0.197828
415 0.220686
420 0.266994
425 0.238643
430 0.223504
435 0.203457
440 0.270372
445 0.168958
450 0.205012
455 0.240101
460 0.153224
465 0.308086
470 0.270629
475 0.216647
480 0.180282
485 0.198973
490 0.251746
495 0.244985
500 0.201033
505 0.21762
510 0.277892
515 0.210547
520 0.277862
525 0.277165
530 0.285035
535 0.299063
540 0.477004
545 7.82078
550 142.474
555 249.811
560 70.7652
565 8.75404
570 1.3656
575 0.463398
580 0.466708
585 0.462077
590 0.331493
595 0.379964
600 0.881395
Ex : 563
200 0.268238
205 0.276921
210 0.164616
215 0.237572
220 0.182886
225 0.251705
230 0.257982
235 0.24348
240 0.280105
245 0.211259
250 0.177161
255 0.124098
260 0.290894
265 0.216538
270 0.216469
275 0.17458
280 0.234672
285 0.290745
290 0.17443
295 0.337957
300 0.264981
305 0.286373
310 0.194554
315 0.268892
320 0.263
325 0.160264
330 0.221025
335 0.204716
340 0.241755
345 0.365564
350 0.18024
355 0.179009
360 0.140755
365 0.271895
370 0.292228
375 0.224088
380 0.232055
385 0.266967
390 0.221033
395 0.16997
400 0.199367
405 0.297255
410 0.244561
415 0.214146
420 0.195215
425 0.240099
430 0.262044
435 0.241548
440 0.254274
445 0.288676
450 0.309739
455 0.242086
460 0.18163
465 0.2495
470 0.23732
475 0.259633
480 0.275149
485 0.239908
490 0.248319
495 0.21958
500 0.216809
505 0.221547
510 0.264158
515 0.142115
520 0.330662
525 0.304866
530 0.293615
535 0.296415
540 0.249536
545 0.287831
550 7.30408
555 136.729
560 231.715
565 66.4002
570 8.2032
575 1.3616
580 0.50775
585 0.394744
590 0.344439
595 0.266263
600 0.224157
Ex : 568
200 0.172673
205 0.179742
210 0.241386
215 0.209447
220 0.179964
225 0.327957
230 0.28983
235 0.206575
240 0.142457
245 0.239884
250 0.305913
255 0.211447
260 0.307505
265 0.228135
270 0.225025
275 0.223059
280 0.275335
285 0.255049
290 0.18176
295 0.184236
300 0.265567
305 0.207817
310 0.217333
315 0.342401
320 0.199768
325 0.23025
330 0.191759
335 0.228666
340 0.28574
345 0.190164
350 0.205087
355 0.132844
360 0.182896
365 0.234008
370 0.170994
375 0.24273
380 0.221
385 0.30407
390 0.268009
395 0.35595
400 0.24405
405 0.217437
410 0.298679
415 0.357335
420 0.259382
425 0.208908
430 0.204427
435 0.279586
440 0.311866
445 0.259422
450 0.20817
455 0.337707
460 0.320696
465 0.258252
470 0.274388
475 0.195321
480 0.188099
485 0.214803
490 0.181958
495 0.357464
500 0.29384
505 0.471822
510 0.257031
515 0.272139
520 0.313149
525 0.239964
530 0.256152
535 0.319227
540 0.349491
545 0.350553
550 0.425875
555 6.04491
560 127.518
565 225.698
570 67.9487
575 8.41029
580 1.34195
585 0.50447
590 0.396827
595 0.374283
600 0.439657
Ex : 573
200 0.286551
205 0.231105
210 0.186746
215 0.257241
220 0.271081
225 0.168952
230 0.238649
235 0.333709
240 0.205955
245 0.262894
250 0.220259
255 0.204752
260 0.279374
265 0.255008
270 0.301067
275 0.211019
280 0.47963
285 0.279572
290 0.253648
295 0.164331
300 0.305139
305 0.299003
310 0.27059
315 0.26598
320 0.209267
325 0.176929
330 0.237387
335 0.359235
340 0.311825
345 0.343114
350 0.242081
355 0.234032
360 0.283652
365 0.284372
370 0.334485
375 0.335767
380 0.347084
385 0.394092
390 0.21397
395 0.363171
400 0.220064
405 0.230073
410 0.204666
415 0.220693
420 0.260827
425 0.239907
430 0.339071
435 0.250699
440 0.300337
445 0.318017
450 0.291399
455 0.231831
460 0.288125
465 0.270797
470 0.230313
475 0.223127
480 0.323533
485 0.363477
490 0.295811
495 0.244268
500 0.2538
505 0.257807
510 0.197681
515 0.204774
520 0.373524
525 0.330014
530 0.245375
535 0.252441
540 0.335748
545 0.320625
550 0.37576
555 0.355122
560 5.16645
565 109.174
570 216.186
575 66.4998
580 8.15188
585 1.35169
590 0.438079
595 0.372594
600 0.0483078
Ex : 578
200 0.153771
205 0.22774
210 0.203767
215 0.194352
220 0.328421
225 0.267716
230 0.211266
235 0.160246
240 0.148961
245 0.187191
250 0.206024
255 0.269467
260 0.198403
265 0.201739
270 0.197755
275 0.192597
280 0.242887
285 0.181819
290 0.326298
295 0.293951
300 0.222001
305 0.206525
310 0.221226
315 0.195531
320 0.154578
325 0.237221
330 0.237709
335 0.34274
340 0.186293
345 0.194772
350 0.331406
355 0.316163
360 0.189525
365 0.19556
370 0.259058
375 0.27621
380 0.222855
385 0.275382
390 0.208316
395 0.226703
400 0.198023
405 0.186283
410 0.267463
415 0.32137
420 0.229262
425 0.333237
430 0.193864
435 0.252955
440 0.179975
445 0.347107
450 0.221214
455 0.280898
460 0.176914
465 0.194764
470 0.23519
475 0.247229
480 0.189906
485 0.254103
490 0.195061
495 0.250415
500 0.217816
505 0.216068
510 0.301888
515 0.275165
520 0.265539
525 0.27224
530 0.194409
535 0.224153
540 0.240696
545 0.269878
550 0.350657
555 0.307755
560 0.375419
565 4.43797
570 98.1548
575 189.502
580 56.1489
585 6.95294
590 1.18539
595 0.536259
600 0.0610242
Ex : 583
200 0.262614
205 0.233741
210 0.294737
215 0.221089
220 0.223248
225 0.196466
230 0.229977
235 0.288524
240 0.139925
245 0.227066
250 0.325456
255 0.291555
260 0.146519
265 0.173956
270 0.127993
275 0.332281
280 0.254159
285 0.19851
290 0.1667
295 0.235923
300 0.321304
305 0.303774
310 0.193401
315 0.344876
320 0.275219
325 0.242327
330 0.345538
335 0.238424
340 0.201551
345 0.225317
350 0.243132
355 0.332695
360 0.340211
365 0.287838
370 0.199207
375 0.241771
380 0.289491
385 0.261311
390 0.35538
395 0.232166
400 0.194184
405 0.222371
410 0.213134
415 0.203778
420 0.221595
425 0.179721
430 0.351501
435 0.273509
440 0.29449
445 0.230215
450 0.278207
455 0.264045
460 0.26358
465 0.1829
470 0.426576
475 0.346181
480 0.264455
485 0.32659
490 0.165152
495 0.230108
500 0.212848
505 0.207048
510 0.273249
515 0.245232
520 0.242585
525 0.226528
530 0.275898
535 0.245343
540 0.274178
545 0.271684
550 0.370374
555 0.282005
560 0.597908
565 0.409942
570 3.73593
575 87.454
580 157.032
585 45.3486
590 5.61932
595 0.884657
600 0.68321
Ex : 588
200 0.222681
205 0.185796
210 0.26067
215 0.206258
220 0.324365
225 0.279205
230 0.233657
235 0.280866
240 0.240272
245 0.164795
250 0.286289
255 0.336315
260 0.301924
265 0.263983
270 0.257205
275 0.170245
280 0.315699
285 0.209637
290 0.199005
295 0.263145
300 0.190273
305 0.270753
310 0.256365
315 0.172903
320 0.212382
325 0.267578
330 0.229197
335 0.234673
340 0.206372
345 0.27063
350 0.262087
355 0.256338
360 0.24485
365 0.300883
370 0.188368
375 0.217121
380 0.23231
385 0.278012
390 0.285145
395 0.245791
400 0.231235
405 0.248633
410 0.249073
415 0.268652
420 0.190598
425 0.21024
430 0.28752
435 0.231534
440 0.212065
445 0.241729
450 0.290535
455 0.292637
460 0.246378
465 0.193156
470 0.240033
475 0.297242
480 0.268073
485 0.228296
490 0.261211
495 0.216497
500 0.239041
505 0.303213
510 0.27215
515 0.195367
520 0.318249
525 0.275269
530 0.232896
535 0.273241
540 0.254878
545 0.222736
550 0.326006
555 0.218801
560 0.224727
565 0.396595
570 0.300648
575 3.54714
580 74.1362
585 138.243
590 40.6629
595 5.04251
600 1.51824
Ex : 593
200 0.250988
205 0.266644
210 0.243632
215 0.192356
220 0.248243
225 0.264302
230 0.281687
235 0.241389
240 0.232089
245 0.319347
250 0.359711
255 0.295119
260 0.276267
265 0.23063
270 0.228098
275 0.260365
280 0.245426
285 0.263321
290 0.262467
295 0.213642
300 0.292878
305 0.289214
310 0.240403
315 0.280005
320 0.244758
325 0.378702
330 0.189117
335 0.312114
340 0.203538
345 0.213592
350 0.215696
355 0.205033
360 0.293123
365 0.1887
370 0.285686
375 0.262545
380 0.284245
385 0.217351
390 0.269646
395 0.294787
400 0.267407
405 0.243823
410 0.200723
415 0.246647
420 0.225287
425 0.323713
430 0.27469
435 0.274668
440 0.317072
445 0.259559
450 0.37812
455 0.212812
460 0.181264
465 0.261573
470 0.305929
475 0.236742
480 0.332577
485 0.385837
490 0.397428
495 0.301112
500 0.377593
505 0.379098
510 0.198796
515 0.253576
520 0.194577
525 0.255243
530 0.288683
535 0.42434
540 0.323583
545 0.392078
550 0.333743
555 0.296821
560 0.281978
565 0.382223
570 0.32496
575 0.454857
580 3.1763
585 63.033
590 118.867
595 35.4281
600 4.62013
Ex : 598
200 0.259519
205 0.312581
210 0.215565
215 0.249109
220 0.225338
225 0.233196
230 0.264769
235 0.270013
240 0.256938
245 0.192799
250 0.247112
255 0.3265
260 0.252527
265 0.237047
270 0.318749
275 0.233897
280 0.303019
285 0.293064
290 0.203113
295 0.331808
300 0.310488
305 0.462135
310 0.330532
315 0.180587
320 0.13604
325 0.270097
330 0.262112
335 0.233282
340 0.337324
345 0.281958
350 0.193351
355 0.326735
360 0.246215
365 0.312666
370 0.192453
375 0.287258
380 0.193847
385 0.343274
390 0.198272
395 0.174108
400 0.310767
405 0.234394
410 0.257468
415 0.290929
420 0.31447
425 0.317163
430 0.24951
435 0.220488
440 0.230585
445 0.354751
450 0.249325
455 0.260537
460 0.210753
465 0.222326
470 0.247103
475 0.228452
480 0.252594
485 0.216165
490 0.365057
495 0.270521
500 0.220793
505 0.303207
510 0.300348
515 0.225459
520 0.49679
525 0.20611
530 0.315762
535 0.290714
540 0.289633
545 0.257716
550 0.362095
555 0.217006
560 0.300316
565 0.264219
570 0.254219
575 0.304466
580 0.288952
585 2.95439
590 55.0536
595 100.697
600 58.4277
Ex : 603
200 0.323869
205 0.285048
210 0.222774
215 0.206473
220 0.199655
225 0.26395
230 0.228542
235 0.3496
240 0.407259
245 0.320163
250 0.265963
255 0.30611
260 0.258228
265 0.202735
270 0.241635
275 0.272989
280 0.353416
285 0.227348
290 0.310598
295 0.411512
300 0.250179
305 0.322879
310 0.287169
315 0.308871
320 0.195191
325 0.209897
330 0.346585
335 0.222943
340 0.275311
345 0.400522
350 0.325745
355 0.264669
360 0.191929
365 0.261166
370 0.286971
375 0.212557
380 0.396184
385 0.190781
390 0.268662
395 0.225687
400 0.215245
405 0.230901
410 0.276815
415 0.240318
420 0.245363
425 0.293974
430 0.196618
435 0.380241
440 0.28199
445 0.222509
450 0.246828
455 0.354401
460 0.213789
465 0.26656
470 0.210549
475 0.347856
480 0.391689
485 0.324573
490 0.338827
495 0.302089
500 0.252778
505 0.204817
510 0.185309
515 0.290239
520 0.212992
525 0.254766
530 0.296449
535 0.325315
540 0.249856
545 0.279039
550 0.242988
555 0.328074
560 0.239499
565 0.276274
570 0.305561
575 0.316658
580 0.31116
585 0.288834
590 2.54885
595 48.3669
600 92.952
