File format V 1.0
ven. 13. janv. 16:54:34 2017
Operator : 
Comments : 

=============================================
SpectroFluorometer parameters
Mode : 3D measurement
Data : Fluorescence
Phospho. : Ordinary
Spectrum : Fluorescence

Scan speed : 2400 nm/mn
Response : 100 ms
PM Voltage : 700 V
Shutter : On

Lambda Ex. Start : 203
Lambda Ex. End : 603
Lambda Ex. Step : 5
Ex. Slit : 5 nm

Lambda Em. Start : 200
Lambda Em. End : 600
Lambda Em. Step : 5
Em. Slit : 5 nm

Repetition : 1
Decal lambda em : 10
=============================================
DATA
Ex : 203
200 5.6
205 5.14601
210 7.86513
215 7.1352
220 8.19002
225 5.90136
230 6.35464
235 6.75103
240 5.4762
245 5.92367
250 6.02858
255 7.90285
260 7.22498
265 5.50283
270 6.49126
275 6.83954
280 7.20329
285 6.36345
290 6.08164
295 5.63502
300 4.76101
305 6.87242
310 6.09514
315 5.41465
320 5.51901
325 6.61861
330 7.49151
335 7.05198
340 6.89088
345 6.83095
350 6.11862
355 6.3281
360 6.30237
365 7.5142
370 7.47405
375 6.20627
380 4.85677
385 7.69548
390 7.40737
395 5.22494
400 4.04045
405 6.50135
410 6.50606
415 5.06538
420 7.27496
425 7.41274
430 6.73047
435 4.17225
440 5.47332
445 5.52779
450 5.38115
455 9.6385
460 7.06616
465 7.64756
470 5.20048
475 7.1726
480 5.43169
485 6.65963
490 7.2708
495 7.18818
500 9.41085
505 7.28719
510 5.1531
515 4.79885
520 10.141
525 5.60964
530 6.48484
535 6.2965
540 4.72132
545 6.3744
550 8.44237
555 6.46532
560 6.88582
565 7.57505
570 6.98784
575 12.5209
580 9.26053
585 5.45246
590 4.93572
595 7.05473
600 0.802801
Ex : 208
200 4.73148
205 4.8942
210 6.03677
215 6.23079
220 6.09175
225 6.03564
230 6.74946
235 10.4264
240 5.69068
245 4.53324
250 6.26821
255 4.50797
260 8.24791
265 8.61002
270 8.05064
275 6.23336
280 5.59736
285 5.84237
290 7.69031
295 7.55928
300 5.6352
305 6.9931
310 6.35848
315 4.66401
320 3.80603
325 4.17178
330 6.21849
335 9.85424
340 6.36406
345 7.77061
350 6.84674
355 7.47038
360 7.56401
365 7.77717
370 6.30926
375 5.24052
380 6.4289
385 5.28864
390 6.80525
395 6.18182
400 5.67764
405 4.45008
410 5.40066
415 7.70843
420 6.08219
425 8.4849
430 6.23237
435 7.8496
440 6.73718
445 6.916
450 5.90227
455 7.60274
460 5.43544
465 7.07285
470 6.64787
475 7.13802
480 5.96014
485 5.58518
490 6.37769
495 6.78081
500 6.45915
505 7.30842
510 7.72065
515 5.45795
520 5.49126
525 6.04486
530 5.00713
535 7.03269
540 6.45133
545 3.96359
550 6.28029
555 5.25596
560 7.38298
565 5.81042
570 10.2632
575 7.9564
580 8.09857
585 6.54383
590 3.94863
595 6.46554
600 4.81229
Ex : 213
200 6.67117
205 5.19401
210 7.59207
215 5.3412
220 10.3366
225 7.59913
230 6.54595
235 7.06428
240 5.03104
245 8.2126
250 8.50233
255 7.64469
260 9.18882
265 5.82013
270 5.46585
275 4.56161
280 4.91386
285 7.33231
290 6.06778
295 5.84027
300 4.02219
305 5.86604
310 5.56518
315 5.58395
320 4.98108
325 4.88551
330 5.69024
335 6.80086
340 6.82496
345 3.87207
350 7.80744
355 5.82996
360 4.69163
365 6.32101
370 5.40708
375 8.58312
380 8.91896
385 7.64343
390 6.79778
395 6.17478
400 6.98514
405 5.76239
410 8.74682
415 8.12059
420 7.41876
425 7.12678
430 4.93021
435 5.95956
440 5.8436
445 4.86362
450 5.92189
455 9.87971
460 5.06385
465 7.56563
470 6.57379
475 5.65567
480 7.10266
485 7.52225
490 7.17648
495 5.45126
500 4.89472
505 5.67773
510 7.95832
515 5.78381
520 6.3976
525 7.89419
530 5.75524
535 5.07433
540 5.4592
545 5.3662
550 4.77196
555 7.05121
560 6.56273
565 6.64147
570 7.33255
575 7.55176
580 5.83392
585 5.89633
590 6.81355
595 6.62992
600 5.36272
Ex : 218
200 6.52252
205 5.58544
210 6.83105
215 6.99696
220 8.53628
225 3.73026
230 5.39117
235 7.49648
240 6.42704
245 4.77875
250 7.42009
255 9.2469
260 8.15426
265 6.93701
270 4.64228
275 5.43059
280 5.06475
285 7.77577
290 6.26618
295 7.05862
300 6.20281
305 4.23886
310 6.93723
315 4.37152
320 4.24495
325 5.87035
330 4.26949
335 7.30718
340 6.38176
345 3.92058
350 5.66023
355 8.06762
360 5.9951
365 6.40298
370 9.21928
375 7.99712
380 7.51594
385 6.92517
390 5.94345
395 7.72939
400 7.64806
405 7.40918
410 5.94589
415 6.36408
420 4.88411
425 6.96922
430 6.28753
435 5.7127
440 6.09282
445 7.94007
450 7.6991
455 6.34174
460 4.28163
465 5.27509
470 10.0233
475 7.33075
480 7.78475
485 5.68346
490 6.23987
495 5.35098
500 7.30862
505 5.10724
510 6.94647
515 8.3445
520 6.7582
525 4.81923
530 7.83153
535 6.30126
540 4.79871
545 8.62549
550 6.78475
555 6.31281
560 7.05236
565 5.79094
570 6.14951
575 7.97789
580 4.98198
585 5.92908
590 4.34911
595 7.09856
600 0.807789
Ex : 223
200 3.69196
205 4.99047
210 4.80282
215 7.17364
220 6.00874
225 4.29676
230 5.22315
235 4.89496
240 5.42513
245 6.83339
250 5.38816
255 5.08254
260 4.02824
265 3.80458
270 5.44541
275 5.03541
280 8.04744
285 6.93408
290 7.35325
295 10.5773
300 4.97002
305 6.55428
310 4.72549
315 6.67701
320 5.46173
325 6.54262
330 5.43711
335 7.90923
340 6.84326
345 6.4703
350 8.86898
355 11.7914
360 4.95721
365 4.00913
370 4.63131
375 6.62619
380 6.71441
385 7.81778
390 5.17735
395 6.55627
400 8.03729
405 7.35937
410 6.63673
415 7.15647
420 5.00547
425 7.93973
430 5.77952
435 6.72758
440 6.51819
445 6.16531
450 5.80781
455 4.59829
460 9.60589
465 5.29175
470 6.21618
475 6.29792
480 9.21381
485 6.00195
490 5.07647
495 4.84757
500 6.67301
505 5.67568
510 5.79221
515 7.15293
520 5.85644
525 7.17489
530 8.09025
535 6.84947
540 10.3734
545 6.55755
550 6.15714
555 7.01197
560 5.30146
565 5.12759
570 7.39928
575 5.96403
580 6.93198
585 7.18829
590 6.31711
595 5.26964
600 0.599665
Ex : 228
200 3.74694
205 4.29101
210 5.35291
215 8.60073
220 5.7618
225 4.60365
230 6.33797
235 9.68091
240 4.73547
245 5.413
250 6.09433
255 5.72928
260 9.07647
265 7.18748
270 4.84436
275 5.23204
280 6.14059
285 6.05145
290 5.47126
295 6.75816
300 6.94705
305 6.14676
310 6.65188
315 4.80076
320 4.44338
325 5.23338
330 3.68416
335 4.48629
340 4.49462
345 4.31857
350 5.10785
355 5.66915
360 5.18062
365 7.1694
370 6.82191
375 8.00995
380 4.07921
385 6.13153
390 7.70418
395 5.93592
400 6.23806
405 5.30033
410 5.13181
415 5.30661
420 9.13214
425 5.75331
430 4.73124
435 7.21345
440 5.28525
445 6.10466
450 6.49815
455 6.04533
460 4.84108
465 5.9325
470 5.71086
475 5.99327
480 7.58442
485 7.26095
490 7.01108
495 5.87164
500 7.82901
505 8.5232
510 6.59788
515 5.20685
520 6.8778
525 6.32935
530 8.36147
535 5.62805
540 7.01324
545 4.82923
550 5.13453
555 4.79771
560 6.94459
565 5.72139
570 6.34264
575 7.5833
580 4.6583
585 5.31317
590 5.48444
595 4.48029
600 6.89051
Ex : 233
200 8.72093
205 5.80733
210 7.70811
215 7.0261
220 4.97479
225 5.43331
230 4.09164
235 6.87902
240 6.94088
245 5.19239
250 5.00358
255 4.41325
260 5.90666
265 5.61739
270 5.96355
275 6.0594
280 5.65083
285 6.77641
290 5.08193
295 7.96211
300 4.94558
305 2.94513
310 4.09974
315 6.09777
320 5.5867
325 4.82279
330 5.07427
335 8.34158
340 5.34031
345 6.28318
350 5.62457
355 6.2156
360 4.91146
365 4.67317
370 4.96281
375 4.65987
380 7.59829
385 5.44453
390 6.6666
395 8.48749
400 4.51778
405 5.87616
410 5.97497
415 5.36766
420 4.14549
425 6.59796
430 6.56275
435 5.0653
440 5.65102
445 5.6284
450 7.64184
455 5.76958
460 7.16715
465 5.7962
470 4.13597
475 6.87265
480 8.24276
485 8.06197
490 6.85977
495 7.28528
500 5.4651
505 5.194
510 3.88163
515 9.40142
520 4.90534
525 4.25188
530 4.50154
535 8.12853
540 5.70167
545 5.73534
550 5.23985
555 6.52168
560 5.15493
565 4.23735
570 5.19665
575 6.48858
580 4.05233
585 3.91305
590 4.45884
595 4.78828
600 1.20954
Ex : 238
200 4.49454
205 4.89513
210 5.80457
215 6.30933
220 5.0915
225 4.51844
230 3.47033
235 4.65132
240 3.06269
245 5.46045
250 5.02604
255 5.30381
260 5.84883
265 7.37857
270 3.82723
275 4.12588
280 3.41572
285 5.58598
290 6.68608
295 4.91151
300 4.70233
305 5.02849
310 7.13819
315 5.59079
320 9.12169
325 5.30164
330 4.6128
335 5.28701
340 5.72994
345 4.4347
350 5.15804
355 5.1157
360 4.45849
365 6.09343
370 4.97828
375 6.98094
380 4.36194
385 4.72555
390 7.83629
395 4.96828
400 6.27469
405 4.61267
410 5.00805
415 6.70165
420 4.74198
425 3.89525
430 5.09419
435 5.35679
440 4.47487
445 5.62518
450 7.37075
455 6.51047
460 4.47031
465 4.32159
470 3.81261
475 5.23193
480 4.56048
485 5.05249
490 5.3631
495 5.61346
500 5.84322
505 6.5616
510 4.8126
515 6.70547
520 5.88558
525 4.22476
530 4.42437
535 4.48977
540 5.73189
545 5.04797
550 4.3784
555 5.21448
560 10.0794
565 5.15491
570 5.30453
575 5.9176
580 4.81216
585 3.80792
590 3.59269
595 2.9647
600 3.62899
Ex : 243
200 5.98026
205 3.1698
210 2.72773
215 5.12896
220 3.90553
225 5.38684
230 5.17752
235 3.87482
240 4.80072
245 5.20028
250 3.78156
255 3.79963
260 3.97139
265 4.45769
270 6.7773
275 3.50296
280 2.71419
285 5.80037
290 4.04087
295 3.51133
300 4.41203
305 4.51655
310 3.40517
315 3.75449
320 4.30691
325 4.46392
330 5.30407
335 4.24405
340 4.3195
345 4.76652
350 2.95675
355 3.18456
360 3.53263
365 6.90083
370 4.7732
375 4.35089
380 5.47541
385 4.32563
390 4.68619
395 4.66593
400 3.62546
405 4.95616
410 3.44911
415 5.21265
420 5.89863
425 4.4293
430 3.90741
435 3.32632
440 3.49453
445 7.2098
450 3.75495
455 4.31739
460 4.3431
465 5.50753
470 4.89268
475 5.34771
480 4.59075
485 7.07441
490 5.49586
495 4.92052
500 5.24334
505 5.40114
510 5.70885
515 5.84547
520 5.01313
525 3.85333
530 3.6277
535 4.32786
540 4.30603
545 5.09024
550 4.6519
555 3.80386
560 4.90417
565 3.95089
570 3.18928
575 4.16891
580 4.44067
585 4.08211
590 4.92669
595 5.56115
600 7.83324
Ex : 248
200 2.78492
205 3.81868
210 2.51738
215 3.72747
220 5.93616
225 2.8886
230 3.90702
235 4.52114
240 3.76219
245 2.68577
250 4.34783
255 4.62062
260 3.76009
265 3.58807
270 2.34139
275 3.04912
280 3.67211
285 2.55282
290 3.18592
295 3.32083
300 3.24003
305 4.25398
310 4.80937
315 4.02032
320 5.05387
325 4.41111
330 5.04686
335 4.37948
340 4.56594
345 6.10513
350 5.73487
355 4.66614
360 3.74499
365 3.2665
370 3.20559
375 4.74263
380 4.94779
385 6.31719
390 4.74684
395 5.20883
400 3.95779
405 5.0028
410 4.90444
415 3.18206
420 5.20135
425 4.00456
430 3.17886
435 4.29629
440 3.69437
445 3.68055
450 3.49433
455 4.21731
460 3.70641
465 3.98881
470 4.15734
475 3.26051
480 3.80125
485 7.23725
490 5.84112
495 3.47431
500 6.16842
505 4.5506
510 4.74593
515 3.03755
520 3.96206
525 3.68863
530 3.62888
535 3.19005
540 2.80073
545 3.0938
550 3.05264
555 3.68411
560 2.87981
565 4.96129
570 3.63543
575 2.91563
580 2.23116
585 5.01088
590 3.31916
595 4.22608
600 0.480912
Ex : 253
200 3.13171
205 2.33629
210 4.17672
215 3.12965
220 2.22989
225 2.99413
230 3.1917
235 3.35309
240 2.70197
245 4.22316
250 3.58946
255 2.99447
260 2.96103
265 3.37805
270 2.47963
275 3.62013
280 3.53284
285 2.80146
290 2.99194
295 2.8227
300 3.40451
305 3.27902
310 4.01191
315 3.46099
320 3.73399
325 5.6647
330 3.43194
335 3.87313
340 4.50251
345 4.3813
350 3.20944
355 2.82945
360 2.06919
365 4.51172
370 3.84425
375 5.39453
380 4.02825
385 4.19023
390 3.80937
395 3.42041
400 3.47726
405 2.36196
410 3.47226
415 4.17293
420 4.52214
425 3.21389
430 3.34856
435 4.5613
440 4.2077
445 2.90615
450 2.18485
455 3.82761
460 3.87663
465 2.45016
470 2.93107
475 3.03528
480 3.25722
485 3.96822
490 3.52552
495 3.47709
500 2.98793
505 4.17098
510 3.74565
515 2.92505
520 4.03745
525 3.65893
530 2.81272
535 3.42912
540 3.74045
545 3.62849
550 3.43618
555 1.70169
560 2.10665
565 2.87917
570 2.89763
575 2.6393
580 3.22439
585 3.31366
590 2.75517
595 3.62301
600 0.90462
Ex : 258
200 2.0407
205 3.14453
210 3.25686
215 3.20121
220 3.67005
225 3.0849
230 2.35639
235 3.09985
240 3.03944
245 3.50104
250 2.89372
255 4.44394
260 2.51059
265 3.61918
270 3.15617
275 2.18061
280 2.80391
285 2.20028
290 2.99273
295 2.44615
300 2.44809
305 2.89109
310 2.29093
315 2.34409
320 2.15732
325 3.4135
330 2.84595
335 4.0976
340 3.93696
345 3.20145
350 2.48663
355 2.34085
360 2.31
365 2.2621
370 2.44545
375 3.49164
380 3.43254
385 3.57677
390 3.64566
395 3.06654
400 4.23793
405 2.38457
410 4.41858
415 3.83613
420 3.92479
425 2.984
430 2.85163
435 3.50764
440 3.54162
445 2.3076
450 3.06185
455 2.62377
460 4.24792
465 3.5442
470 2.55478
475 2.91396
480 2.57838
485 2.45105
490 2.57077
495 1.88208
500 3.96651
505 2.59475
510 5.49787
515 3.39697
520 3.38981
525 2.32623
530 2.526
535 2.58105
540 2.34687
545 2.45166
550 3.09747
555 2.76626
560 2.63622
565 2.24586
570 3.44487
575 2.89801
580 3.09723
585 3.18517
590 2.72168
595 2.94042
600 0.334608
Ex : 263
200 2.71495
205 2.91543
210 2.92493
215 2.55243
220 1.38171
225 1.86198
230 2.02071
235 3.99393
240 2.29679
245 1.87917
250 2.25723
255 2.7757
260 2.51699
265 3.48117
270 2.47484
275 1.90929
280 1.95032
285 2.16419
290 1.53441
295 2.83186
300 2.29734
305 2.45773
310 2.63652
315 1.71879
320 2.13294
325 2.53242
330 2.38855
335 2.75673
340 2.70131
345 2.43485
350 3.10416
355 3.36797
360 2.57879
365 2.40418
370 2.18723
375 2.77011
380 1.49821
385 2.87314
390 3.02829
395 2.07103
400 1.46829
405 2.52571
410 2.07487
415 2.56808
420 2.9095
425 2.19728
430 2.88489
435 3.4542
440 2.39584
445 2.79584
450 2.45342
455 1.79724
460 2.76008
465 3.32882
470 3.82105
475 2.60464
480 2.85531
485 2.47178
490 3.4509
495 3.2776
500 1.87017
505 1.2113
510 2.44251
515 2.44757
520 2.57441
525 2.2183
530 2.11628
535 2.28106
540 2.3481
545 2.12269
550 1.77634
555 2.76536
560 2.62436
565 1.66624
570 2.10092
575 1.71608
580 1.62115
585 2.16703
590 3.74558
595 2.38223
600 0.271089
Ex : 268
200 1.48422
205 1.67259
210 1.39407
215 1.25043
220 2.25916
225 1.56147
230 1.83479
235 1.92095
240 1.83893
245 2.13244
250 1.60308
255 1.73301
260 1.55053
265 1.92585
270 1.34146
275 1.93377
280 1.82945
285 1.74669
290 1.2974
295 1.55098
300 1.69914
305 1.89968
310 1.52266
315 1.35452
320 1.73703
325 1.63397
330 1.69488
335 1.90127
340 1.67124
345 1.33381
350 1.31357
355 2.19198
360 2.25824
365 1.81813
370 2.28199
375 1.5389
380 1.98905
385 1.54052
390 1.40547
395 1.64356
400 1.89396
405 2.41678
410 3.2105
415 2.5903
420 2.04639
425 2.41654
430 2.41547
435 2.27651
440 2.1912
445 2.05013
450 1.46318
455 2.24828
460 1.70511
465 1.54877
470 2.54424
475 2.29056
480 1.60829
485 1.55827
490 1.65651
495 2.30567
500 1.99316
505 1.78894
510 1.60845
515 2.3448
520 2.63549
525 2.78685
530 2.2866
535 1.88564
540 1.82076
545 1.96764
550 2.11375
555 1.99019
560 2.77887
565 1.6101
570 1.36924
575 2.2939
580 1.77978
585 1.60696
590 1.58954
595 1.60944
600 1.95556
Ex : 273
200 1.12599
205 1.2093
210 1.59092
215 1.26565
220 1.06299
225 1.28355
230 1.29822
235 1.20274
240 1.72629
245 1.78661
250 2.20215
255 1.75197
260 1.70377
265 2.05553
270 2.18213
275 1.84474
280 1.17636
285 1.19536
290 1.28739
295 1.10339
300 1.20034
305 0.913795
310 1.77539
315 1.3394
320 1.1572
325 1.45702
330 1.34382
335 1.75042
340 1.35496
345 1.39683
350 2.16644
355 1.58916
360 1.77317
365 2.48173
370 1.55361
375 1.53082
380 1.50573
385 1.31662
390 0.957394
395 2.21324
400 2.53869
405 1.80632
410 1.79719
415 1.21197
420 2.39969
425 1.72898
430 1.74421
435 1.66206
440 1.75412
445 2.0692
450 1.73132
455 1.48508
460 1.75588
465 1.85511
470 1.56864
475 1.99737
480 1.24175
485 1.14295
490 1.54017
495 2.01728
500 1.19868
505 2.276
510 1.20697
515 1.63872
520 2.18532
525 1.54946
530 1.12933
535 1.83623
540 3.38194
545 2.93169
550 1.74531
555 2.10174
560 1.11297
565 1.65255
570 1.73847
575 1.8687
580 1.18071
585 1.10882
590 1.3539
595 1.37457
600 1.23528
Ex : 278
200 0.807249
205 1.09515
210 1.38279
215 1.61673
220 1.2098
225 1.16457
230 1.00111
235 1.04348
240 1.14292
245 1.25675
250 1.60481
255 1.20921
260 1.22589
265 1.00086
270 1.6737
275 1.09715
280 1.45197
285 1.45372
290 1.25077
295 1.0766
300 1.36987
305 0.93031
310 1.24921
315 0.9267
320 0.941248
325 1.23915
330 0.7584
335 1.06544
340 1.25152
345 1.90226
350 1.42666
355 0.962129
360 0.98324
365 1.14749
370 1.1965
375 1.69962
380 1.41067
385 1.54722
390 1.42915
395 2.07715
400 1.31018
405 1.75097
410 1.69989
415 1.59244
420 1.23243
425 1.31148
430 1.58261
435 1.71433
440 1.45327
445 0.993336
450 1.56978
455 1.42311
460 1.24297
465 1.5113
470 1.24044
475 1.45805
480 1.26151
485 1.0787
490 1.25657
495 1.315
500 1.10847
505 0.975206
510 0.984028
515 1.35369
520 1.74878
525 1.16964
530 1.83458
535 1.51364
540 1.3895
545 1.8544
550 1.99944
555 1.62788
560 1.74703
565 1.32338
570 1.08928
575 1.74304
580 1.46215
585 0.891196
590 1.12541
595 1.177
600 0.133938
Ex : 283
200 1.05536
205 1.12602
210 0.721761
215 0.951949
220 0.573432
225 0.869063
230 0.9733
235 0.972748
240 0.96657
245 1.24477
250 1.00041
255 0.703015
260 1.25797
265 0.841539
270 1.08314
275 1.26441
280 1.47896
285 0.777073
290 0.92928
295 1.37377
300 0.991045
305 0.71731
310 0.787308
315 1.09453
320 0.804139
325 1.05506
330 1.03396
335 1.45123
340 0.919243
345 1.07082
350 1.32408
355 1.42756
360 1.19706
365 1.45299
370 0.997415
375 1.33127
380 1.43719
385 0.947144
390 1.27461
395 1.27371
400 0.934361
405 1.43624
410 1.77629
415 1.00995
420 1.07942
425 1.54149
430 1.37299
435 1.32076
440 0.996357
445 0.971057
450 1.02894
455 0.886624
460 1.08543
465 1.5156
470 1.37022
475 0.998487
480 1.23062
485 1.44749
490 1.21804
495 1.09989
500 1.17476
505 1.22991
510 0.938824
515 0.952342
520 1.1331
525 1.38764
530 1.12317
535 0.856945
540 0.987383
545 0.825943
550 0.893571
555 1.27686
560 1.91587
565 1.69059
570 1.62898
575 1.0899
580 1.62629
585 1.16703
590 0.961224
595 1.0772
600 0.659675
Ex : 288
200 0.559977
205 0.49032
210 0.413129
215 0.766798
220 0.662245
225 0.76076
230 0.783243
235 0.653218
240 0.653539
245 0.761102
250 1.43021
255 1.1964
260 0.670916
265 0.508568
270 1.07782
275 0.927319
280 0.95154
285 0.78525
290 0.598002
295 0.804589
300 0.630322
305 0.540413
310 0.985573
315 0.86151
320 0.679179
325 0.664161
330 1.0721
335 0.91189
340 1.0409
345 1.02617
350 0.786135
355 1.12865
360 1.01972
365 0.826127
370 0.944725
375 0.866382
380 1.0047
385 1.21032
390 1.17436
395 1.0875
400 1.03963
405 1.12236
410 1.33646
415 1.10406
420 1.44731
425 1.18597
430 1.16878
435 1.19286
440 1.02449
445 1.01138
450 1.50284
455 0.977309
460 0.879628
465 0.959184
470 0.835198
475 1.12341
480 1.04502
485 1.08731
490 1.42996
495 1.16394
500 0.748297
505 1.0962
510 0.813283
515 1.03271
520 0.672663
525 0.838263
530 0.883185
535 0.865931
540 0.818102
545 1.0725
550 0.820206
555 0.722059
560 0.959065
565 0.961296
570 1.41397
575 1.27995
580 1.09128
585 0.790506
590 1.13939
595 1.34365
600 0.152902
Ex : 293
200 0.883382
205 0.651585
210 0.690981
215 0.560617
220 0.665713
225 0.720386
230 0.622014
235 0.800752
240 0.564202
245 0.539269
250 0.700703
255 0.706797
260 0.744756
265 0.715742
270 0.910056
275 0.618173
280 1.05579
285 0.888365
290 1.01186
295 0.717678
300 0.534347
305 0.666255
310 0.693863
315 0.821242
320 0.524169
325 0.430282
330 0.681904
335 0.652953
340 0.759495
345 0.783575
350 1.01362
355 1.25345
360 0.941573
365 1.07062
370 1.19557
375 0.847523
380 0.815167
385 1.0091
390 1.24503
395 1.08096
400 1.32587
405 0.996018
410 1.29364
415 1.09606
420 1.01746
425 1.08422
430 1.0845
435 0.928497
440 1.12077
445 0.802952
450 0.930318
455 0.788161
460 0.927706
465 0.987425
470 0.860511
475 1.0394
480 0.828813
485 0.871489
490 0.716645
495 0.601065
500 0.686444
505 1.19343
510 0.798175
515 0.989257
520 0.95059
525 0.822414
530 1.0074
535 1.00565
540 0.920916
545 0.966384
550 0.691296
555 0.923754
560 0.599391
565 0.672101
570 0.739712
575 0.982731
580 1.38465
585 1.38442
590 0.847294
595 0.643638
600 0.793284
Ex : 298
200 0.526472
205 0.553773
210 0.480767
215 0.527756
220 0.750002
225 0.634147
230 0.380608
235 0.585762
240 0.510516
245 0.38427
250 0.831169
255 0.639794
260 0.698718
265 1.07824
270 0.4546
275 0.744769
280 0.647194
285 0.615845
290 0.866485
295 0.877525
300 0.759975
305 0.563989
310 0.425254
315 0.667635
320 0.574607
325 0.727652
330 0.579276
335 0.713151
340 1.01135
345 0.712866
350 0.567872
355 0.909439
360 0.801043
365 0.734332
370 0.935304
375 0.85045
380 0.891345
385 0.923287
390 0.883897
395 1.26328
400 0.991974
405 1.09157
410 0.872966
415 0.846116
420 0.963544
425 1.08959
430 0.979636
435 1.0007
440 1.01933
445 0.787734
450 1.01082
455 1.01074
460 0.825198
465 0.994878
470 0.814697
475 0.821366
480 1.02482
485 0.961887
490 0.726691
495 0.646849
500 0.908686
505 0.77821
510 0.693199
515 0.871485
520 0.547214
525 0.661528
530 0.526074
535 0.431118
540 0.490456
545 0.812549
550 0.995031
555 0.609001
560 0.474937
565 0.50943
570 0.605676
575 0.562231
580 0.620416
585 0.859265
590 1.23003
595 1.14061
600 0.565125
Ex : 303
200 0.441382
205 0.497648
210 0.368455
215 0.371725
220 0.809227
225 0.640156
230 0.709327
235 0.539616
240 0.49787
245 0.63201
250 0.506774
255 0.647255
260 0.509618
265 0.631243
270 0.451494
275 0.475215
280 0.454718
285 0.560785
290 0.660996
295 0.751098
300 0.97101
305 0.699183
310 0.527166
315 0.487709
320 0.522669
325 0.651932
330 0.49907
335 0.776228
340 0.699461
345 0.606715
350 0.667138
355 0.561228
360 0.716545
365 0.59198
370 0.762837
375 0.934481
380 0.780597
385 1.01775
390 0.868098
395 1.03046
400 0.840131
405 0.948447
410 0.871921
415 1.06099
420 0.841233
425 0.96243
430 0.941494
435 0.848514
440 0.98011
445 0.774149
450 0.786076
455 0.859935
460 0.741771
465 0.739604
470 0.936423
475 0.793842
480 0.649645
485 0.813472
490 0.663272
495 0.655786
500 0.727618
505 1.03601
510 0.728294
515 0.676875
520 0.528966
525 0.54156
530 0.509222
535 0.435133
540 0.563581
545 0.506078
550 0.482888
555 0.530973
560 0.506178
565 0.662465
570 0.403904
575 0.559272
580 0.524986
585 0.625312
590 0.557825
595 0.88243
600 0.577604
Ex : 308
200 0.487379
205 0.546282
210 0.494084
215 0.578416
220 0.716075
225 0.389883
230 0.421208
235 0.50528
240 0.37129
245 0.515997
250 0.325829
255 0.399098
260 0.406063
265 0.441627
270 0.519149
275 0.366086
280 0.333086
285 0.384565
290 0.469035
295 0.744303
300 0.908368
305 0.833455
310 0.726217
315 0.409998
320 0.301944
325 0.516402
330 0.467039
335 0.583995
340 0.687178
345 0.762082
350 0.577578
355 0.843468
360 0.622892
365 0.69798
370 0.758444
375 0.701237
380 0.76098
385 1.10302
390 0.862373
395 0.861496
400 0.814571
405 0.906621
410 1.15997
415 0.808382
420 1.07194
425 0.839524
430 0.628612
435 0.745303
440 0.683386
445 0.918696
450 0.967328
455 0.921347
460 1.03967
465 0.824721
470 0.644695
475 0.817705
480 0.866413
485 0.59967
490 0.682772
495 0.574272
500 0.564366
505 0.523682
510 0.479573
515 0.453206
520 0.507144
525 0.602776
530 0.477973
535 0.422288
540 0.477423
545 0.553762
550 0.554021
555 0.856942
560 0.456452
565 0.517565
570 0.528664
575 0.452247
580 0.479266
585 0.605492
590 0.655361
595 0.577803
600 0.0657518
Ex : 313
200 0.305104
205 0.445731
210 0.473271
215 0.328947
220 0.319894
225 0.331039
230 0.506458
235 0.62564
240 0.477468
245 0.553463
250 0.44034
255 0.339524
260 0.35152
265 0.368376
270 0.512604
275 0.334824
280 0.267328
285 0.316244
290 0.27975
295 0.451561
300 0.426692
305 0.686284
310 0.868772
315 0.496109
320 0.433931
325 0.621108
330 0.386161
335 0.476544
340 0.422203
345 0.50669
350 0.722376
355 0.850094
360 0.773433
365 1.06135
370 0.836724
375 1.01766
380 1.19175
385 0.966702
390 0.883029
395 1.16645
400 1.12437
405 1.29489
410 1.39264
415 1.23284
420 1.2101
425 1.16932
430 1.07538
435 1.30236
440 1.18637
445 1.1205
450 1.1632
455 0.877723
460 1.07542
465 1.06315
470 0.98218
475 1.00458
480 0.748917
485 0.931888
490 0.733996
495 0.865832
500 0.55683
505 0.671609
510 0.540763
515 0.523948
520 0.416758
525 0.580737
530 0.44475
535 0.569034
540 0.531056
545 0.478698
550 0.439169
555 0.449973
560 0.398963
565 0.438112
570 0.460616
575 0.346363
580 0.332174
585 0.226571
590 0.301366
595 0.291109
600 0.592279
Ex : 318
200 0.370672
205 0.318549
210 0.341495
215 0.266069
220 0.303571
225 0.326896
230 0.305229
235 0.254683
240 0.35303
245 0.302939
250 0.359589
255 0.365907
260 0.358238
265 0.368246
270 0.290636
275 0.328779
280 0.387556
285 0.394451
290 0.402446
295 0.282376
300 0.320835
305 0.303267
310 0.680563
315 1.00081
320 0.569905
325 0.557645
330 0.670002
335 1.09884
340 1.13359
345 1.69297
350 1.9575
355 3.05674
360 3.43513
365 3.71417
370 4.51159
375 5.66008
380 6.35882
385 6.38363
390 7.38119
395 8.18868
400 8.38793
405 9.10226
410 9.28172
415 8.89751
420 9.1882
425 8.31501
430 8.07243
435 8.35755
440 7.90969
445 7.12154
450 6.69905
455 6.55404
460 6.30915
465 5.50478
470 5.22131
475 5.05138
480 4.05624
485 3.83199
490 3.48243
495 2.87528
500 2.69155
505 2.63417
510 2.30621
515 1.84362
520 1.65099
525 1.45561
530 1.45676
535 1.35612
540 1.02141
545 0.814224
550 0.90375
555 0.861532
560 0.678734
565 0.71243
570 0.503444
575 0.451539
580 0.435824
585 0.39279
590 0.51087
595 0.368478
600 0.777292
Ex : 323
200 0.245514
205 0.299213
210 0.462582
215 0.322105
220 0.316627
225 0.326536
230 0.301935
235 0.243539
240 0.336314
245 0.323013
250 0.337155
255 0.386475
260 0.532312
265 0.41522
270 0.337166
275 0.403624
280 0.26393
285 0.357442
290 0.49593
295 0.370875
300 0.428863
305 0.376189
310 0.490506
315 2.83958
320 12.0506
325 5.49284
330 2.44931
335 3.08942
340 3.79879
345 5.81011
350 8.29294
355 11.4698
360 13.7226
365 16.3261
370 19.2094
375 22.8397
380 25.7055
385 27.7629
390 31.7134
395 33.5696
400 34.3034
405 35.5073
410 35.7114
415 35.9456
420 35.5338
425 34.8308
430 33.516
435 32.7196
440 31.5559
445 29.6161
450 28.5401
455 27.2129
460 25.0215
465 23.344
470 21.589
475 19.4928
480 17.6358
485 15.4831
490 14.073
495 12.7347
500 11.4142
505 10.1695
510 8.70569
515 7.29451
520 6.53647
525 5.67335
530 4.98249
535 4.41427
540 3.98406
545 3.72989
550 3.14093
555 2.32731
560 2.24865
565 1.83317
570 1.50383
575 1.33694
580 0.887664
585 0.809322
590 0.829786
595 0.524682
600 0.792529
Ex : 328
200 0.197469
205 0.229044
210 0.292091
215 0.33129
220 0.23299
225 0.24432
230 0.283945
235 0.270396
240 0.23059
245 0.258416
250 0.212594
255 0.331241
260 0.22134
265 0.376249
270 0.238109
275 0.430679
280 0.38508
285 0.351068
290 0.243878
295 0.285597
300 0.326798
305 0.350972
310 0.561858
315 1.13605
320 29.419
325 66.2098
330 22.2468
335 5.95366
340 5.71064
345 6.95301
350 9.28762
355 13.022
360 17.6977
365 19.6731
370 22.6619
375 25.33
380 28.5222
385 31.5343
390 34.1341
395 36.5478
400 39.3137
405 38.8266
410 39.6194
415 39.5275
420 38.4209
425 38.2075
430 37.5204
435 35.5913
440 35.1722
445 33.5695
450 32.0114
455 30.0568
460 28.6393
465 27.0755
470 24.3239
475 22.4025
480 20.6385
485 19.106
490 16.7397
495 14.8548
500 13.3013
505 12.1678
510 10.9757
515 9.43318
520 8.45642
525 7.52769
530 6.48654
535 6.07332
540 4.97615
545 4.26299
550 3.34444
555 3.22465
560 2.92972
565 2.63814
570 2.09854
575 1.8021
580 1.2059
585 0.989715
590 0.776818
595 0.696324
600 0.37464
Ex : 333
200 0.376904
205 0.267803
210 0.179945
215 0.310659
220 0.309306
225 0.319519
230 0.419688
235 0.259415
240 0.194627
245 0.223298
250 0.281925
255 0.318623
260 0.281584
265 0.297097
270 0.403873
275 0.29572
280 0.255913
285 0.157327
290 0.382485
295 0.287327
300 0.260231
305 0.265341
310 0.336298
315 0.409426
320 4.89729
325 89.8318
330 151.397
335 41.9584
340 8.60464
345 5.71081
350 5.97529
355 7.00915
360 9.76742
365 14.2484
370 14.9965
375 15.8739
380 16.6098
385 17.8804
390 19.1888
395 20.7346
400 21.6791
405 21.787
410 22.2821
415 22.8266
420 21.7812
425 21.6528
430 22.2478
435 21.4791
440 20.4273
445 20.7934
450 18.9245
455 18.1738
460 16.9704
465 16.7064
470 15.7438
475 14.9955
480 13.9045
485 13.2222
490 11.5153
495 11.1494
500 10.0186
505 9.30437
510 8.42425
515 7.82182
520 6.63664
525 6.09624
530 5.17543
535 4.41879
540 4.01565
545 4.01018
550 3.47907
555 2.96256
560 2.91402
565 2.10401
570 1.75045
575 1.37118
580 1.22511
585 0.954842
590 0.897741
595 0.777835
600 0.974718
Ex : 338
200 0.225009
205 0.214927
210 0.237251
215 0.236222
220 0.218907
225 0.194832
230 0.20804
235 0.232806
240 0.328534
245 0.187582
250 0.223474
255 0.226917
260 0.159998
265 0.259677
270 0.22428
275 0.289537
280 0.281934
285 0.134296
290 0.240555
295 0.410903
300 0.269772
305 0.315254
310 0.265084
315 0.283976
320 0.439308
325 9.96352
330 139.767
335 201.759
340 51.2454
345 8.76627
350 4.73608
355 4.18566
360 4.28364
365 5.95903
370 10.6813
375 11.4941
380 9.95903
385 9.53603
390 9.68314
395 10.2381
400 10.7717
405 10.8355
410 11.8043
415 12.6246
420 12.2662
425 12.469
430 12.1376
435 12.6044
440 12.4639
445 12.1958
450 11.5747
455 11.5869
460 12.1243
465 11.476
470 11.6226
475 11.2315
480 11.0427
485 10.5812
490 9.80738
495 9.27199
500 8.85935
505 8.06306
510 7.22064
515 6.81289
520 6.21833
525 5.85663
530 5.4777
535 4.80868
540 4.14048
545 3.82877
550 3.63909
555 3.10701
560 2.734
565 2.43975
570 1.92392
575 1.54901
580 1.18663
585 0.967356
590 1.09595
595 0.719432
600 1.14021
Ex : 343
200 0.239366
205 0.164968
210 0.171998
215 0.29485
220 0.239376
225 0.206797
230 0.141048
235 0.188584
240 0.271516
245 0.231911
250 0.195285
255 0.22938
260 0.233855
265 0.314642
270 0.273059
275 0.222264
280 0.249272
285 0.266569
290 0.242906
295 0.277084
300 0.167751
305 0.211858
310 0.183786
315 0.185363
320 0.331314
325 0.465933
330 11.7998
335 154.865
340 220.264
345 55.1617
350 8.52739
355 3.54657
360 2.93271
365 2.58611
370 4.07206
375 8.08591
380 9.15417
385 7.05854
390 6.18497
395 6.80303
400 7.04862
405 7.36693
410 8.61227
415 8.91459
420 9.09737
425 9.30447
430 9.72242
435 10.3107
440 10.8606
445 10.5842
450 11.1152
455 10.7269
460 10.7617
465 11.0347
470 10.9294
475 11.7107
480 11.628
485 11.0383
490 10.2768
495 9.60859
500 9.46147
505 9.13539
510 8.3547
515 7.78782
520 7.07394
525 6.56391
530 5.84656
535 5.37169
540 4.96769
545 4.2808
550 3.70382
555 3.33639
560 3.19905
565 2.79571
570 2.37642
575 1.8164
580 1.59901
585 1.14298
590 1.04221
595 1.00876
600 0.989101
Ex : 348
200 0.219122
205 0.332573
210 0.255062
215 0.273303
220 0.180938
225 0.157489
230 0.188235
235 0.174017
240 0.278594
245 0.183657
250 0.26559
255 0.224369
260 0.197206
265 0.166995
270 0.177568
275 0.175454
280 0.223984
285 0.165101
290 0.186178
295 0.160751
300 0.240426
305 0.198388
310 0.217572
315 0.166117
320 0.396425
325 0.349586
330 0.461995
335 12.263
340 158.556
345 228.471
350 59.6592
355 8.68888
360 3.29175
365 2.70587
370 2.34288
375 3.09097
380 6.15096
385 8.32614
390 6.94666
395 6.14162
400 6.24627
405 6.74146
410 7.92178
415 8.55948
420 8.97582
425 9.25001
430 9.64234
435 9.81025
440 10.6747
445 10.9218
450 11.4817
455 11.3794
460 11.885
465 12.2276
470 12.9764
475 12.7916
480 12.8114
485 12.3431
490 12.4404
495 11.6216
500 11.5262
505 10.562
510 9.98066
515 9.20274
520 8.78999
525 7.80488
530 6.84044
535 6.21493
540 5.81567
545 5.10275
550 4.47173
555 4.11493
560 3.79227
565 3.3181
570 2.79314
575 2.08791
580 1.65766
585 1.56028
590 0.989724
595 0.878292
600 0.57547
Ex : 353
200 0.192081
205 0.202971
210 0.294295
215 0.208413
220 0.146255
225 0.189224
230 0.247831
235 0.149883
240 0.192904
245 0.206229
250 0.281395
255 0.210229
260 0.310821
265 0.27464
270 0.18905
275 0.168712
280 0.216658
285 0.246748
290 0.207246
295 0.299565
300 0.149834
305 0.243889
310 0.240515
315 0.160168
320 0.26395
325 0.225069
330 0.278315
335 0.482608
340 11.7821
345 161.077
350 225.401
355 57.3606
360 8.13312
365 2.76911
370 2.68939
375 2.37
380 2.75193
385 5.28451
390 8.77533
395 7.85939
400 6.51965
405 6.68586
410 7.40615
415 8.38738
420 8.7682
425 8.71314
430 9.23145
435 9.98167
440 10.8336
445 11.4516
450 11.7047
455 12.7312
460 13.0224
465 13.7943
470 14.4929
475 14.4248
480 14.3107
485 13.9756
490 14.3618
495 13.8791
500 12.457
505 12.428
510 11.7324
515 10.7507
520 9.70304
525 9.39496
530 8.30942
535 7.30453
540 6.60628
545 6.3722
550 5.41788
555 4.76579
560 4.41897
565 3.53654
570 2.81286
575 2.4141
580 2.03056
585 1.63149
590 1.27225
595 1.26129
600 0.789407
Ex : 358
200 0.257306
205 0.199984
210 0.15061
215 0.147693
220 0.187192
225 0.180728
230 0.165255
235 0.182556
240 0.189511
245 0.222349
250 0.165471
255 0.190299
260 0.180674
265 0.195472
270 0.150111
275 0.244571
280 0.218425
285 0.171174
290 0.221446
295 0.211574
300 0.182683
305 0.239015
310 0.18002
315 0.1773
320 0.216376
325 0.228742
330 0.225303
335 0.400133
340 0.407847
345 10.9902
350 152.005
355 224.356
360 57.2585
365 8.06492
370 3.01162
375 3.01779
380 2.83371
385 2.90792
390 4.64383
395 8.24117
400 8.48293
405 8.04687
410 7.7777
415 8.74888
420 8.63834
425 9.12668
430 9.75957
435 10.21
440 11.5052
445 12.2858
450 12.5718
455 12.9914
460 13.9898
465 14.7735
470 15.7966
475 15.5102
480 15.8565
485 15.6178
490 15.6446
495 14.9854
500 14.1061
505 13.8891
510 12.8572
515 11.5617
520 10.5142
525 10.5567
530 8.91052
535 8.11805
540 7.44528
545 6.8308
550 5.91076
555 5.6953
560 4.99979
565 4.12383
570 3.17111
575 2.968
580 2.30061
585 1.64476
590 1.10555
595 0.992518
600 1.20475
Ex : 363
200 0.170078
205 0.202822
210 0.143611
215 0.178174
220 0.171088
225 0.201938
230 0.125259
235 0.160037
240 0.274996
245 0.156197
250 0.16558
255 0.26477
260 0.228322
265 0.238575
270 0.208348
275 0.131888
280 0.142535
285 0.15988
290 0.185523
295 0.211379
300 0.220148
305 0.222728
310 0.167168
315 0.196411
320 0.245673
325 0.201815
330 0.229025
335 0.280966
340 0.301243
345 0.416573
350 10.4409
355 146.033
360 219.483
365 58.9356
370 8.26703
375 3.12549
380 2.93537
385 2.98639
390 3.08075
395 4.1931
400 8.30037
405 10.2295
410 9.91238
415 9.92098
420 9.66746
425 9.77612
430 10.099
435 11.7233
440 12.2944
445 13.6107
450 14.1205
455 14.9838
460 15.8668
465 16.7424
470 17.5087
475 17.3538
480 18.2844
485 18.452
490 18.1224
495 17.3455
500 16.3642
505 15.7663
510 14.6705
515 13.613
520 12.4007
525 11.0438
530 10.4272
535 9.54715
540 8.50275
545 7.92685
550 6.91978
555 6.07556
560 5.32213
565 4.6479
570 3.77047
575 3.07941
580 2.3595
585 1.97066
590 1.60308
595 1.19703
600 1.37603
Ex : 368
200 0.202155
205 0.129748
210 0.151442
215 0.18568
220 0.142938
225 0.182386
230 0.143739
235 0.134315
240 0.216052
245 0.200903
250 0.195902
255 0.189778
260 0.162683
265 0.152402
270 0.150347
275 0.204002
280 0.172275
285 0.190559
290 0.157008
295 0.139674
300 0.177902
305 0.18799
310 0.163872
315 0.211814
320 0.20207
325 0.176465
330 0.212374
335 0.249255
340 0.320618
345 0.325153
350 0.404543
355 8.1222
360 138.797
365 219.71
370 60.5621
375 8.61731
380 3.07678
385 2.83099
390 2.98126
395 2.81347
400 4.01281
405 8.06903
410 11.4087
415 10.7816
420 9.86934
425 9.04791
430 9.54674
435 10.7105
440 12.1062
445 13.5171
450 13.9236
455 15.4828
460 16.8939
465 18.3453
470 19.2945
475 20.0277
480 20.549
485 19.9141
490 20.1099
495 19.7576
500 19.7313
505 18.4476
510 17.2533
515 15.6307
520 14.8341
525 13.5177
530 12.4796
535 11.3574
540 10.0068
545 9.04592
550 8.04578
555 7.12566
560 6.26801
565 5.58872
570 4.51969
575 3.43603
580 2.99751
585 2.23493
590 1.71694
595 1.32226
600 1.15102
Ex : 373
200 0.136976
205 0.113941
210 0.20094
215 0.177169
220 0.130614
225 0.147734
230 0.157053
235 0.211859
240 0.160186
245 0.163975
250 0.147383
255 0.192957
260 0.192638
265 0.195061
270 0.184363
275 0.221932
280 0.119138
285 0.155324
290 0.159331
295 0.178007
300 0.167478
305 0.148758
310 0.238549
315 0.144469
320 0.256461
325 0.230392
330 0.215985
335 0.217844
340 0.214962
345 0.279834
350 0.291877
355 0.351355
360 9.25711
365 138.567
370 219.798
375 61.9396
380 8.99125
385 3.08373
390 3.08434
395 3.31006
400 3.6866
405 4.66536
410 8.14
415 11.2325
420 10.7145
425 9.76642
430 9.33889
435 10.3069
440 11.3779
445 12.631
450 13.5417
455 15.2325
460 16.5778
465 18.0968
470 19.3347
475 20.2997
480 20.9044
485 20.9836
490 21.4806
495 20.972
500 20.3979
505 19.1723
510 18.3515
515 17.18
520 15.4961
525 14.0944
530 13.1927
535 11.8916
540 11.1853
545 9.71637
550 8.63718
555 7.75325
560 6.6368
565 5.92045
570 4.90992
575 3.93155
580 3.15882
585 2.39084
590 1.93832
595 1.46481
600 1.0644
Ex : 378
200 0.199468
205 0.175066
210 0.127319
215 0.146771
220 0.156817
225 0.112454
230 0.0927158
235 0.151528
240 0.160561
245 0.171479
250 0.1271
255 0.157942
260 0.134004
265 0.182607
270 0.136338
275 0.233145
280 0.135007
285 0.164627
290 0.13011
295 0.132861
300 0.20255
305 0.173067
310 0.146958
315 0.203741
320 0.13131
325 0.196034
330 0.196642
335 0.143395
340 0.138026
345 0.210391
350 0.264063
355 0.278941
360 0.37337
365 9.07905
370 145.387
375 239.082
380 66.3493
385 9.7673
390 3.41533
395 3.48128
400 4.32883
405 4.89919
410 6.23488
415 8.34752
420 11.4303
425 11.1523
430 10.4915
435 11.0803
440 11.2389
445 12.4388
450 13.5073
455 14.6767
460 16.6599
465 17.4671
470 19.2978
475 19.6585
480 20.2574
485 20.353
490 20.3548
495 20.0549
500 19.5547
505 18.5586
510 17.5691
515 16.3526
520 15.2153
525 13.6847
530 12.6088
535 11.2341
540 10.2997
545 9.5896
550 8.3276
555 7.44199
560 6.50395
565 5.66254
570 4.74969
575 3.65642
580 2.74456
585 2.17457
590 1.72946
595 1.44821
600 0.816636
Ex : 383
200 0.104782
205 0.20061
210 0.193278
215 0.147035
220 0.216069
225 0.1079
230 0.172968
235 0.177895
240 0.173363
245 0.157804
250 0.10693
255 0.178689
260 0.180331
265 0.132238
270 0.175527
275 0.122296
280 0.146101
285 0.0846472
290 0.163136
295 0.1713
300 0.113155
305 0.169231
310 0.193755
315 0.159684
320 0.128705
325 0.19187
330 0.163821
335 0.189182
340 0.219918
345 0.153143
350 0.150144
355 0.238784
360 0.254637
365 0.372649
370 8.74681
375 146.807
380 237.6
385 66.5074
390 9.89603
395 3.75254
400 4.12184
405 5.02815
410 6.33851
415 7.39119
420 8.6647
425 11.2671
430 12.6579
435 12.3302
440 12.9215
445 13.5835
450 14.5404
455 15.5156
460 16.6601
465 18.5649
470 19.663
475 20.543
480 21.3665
485 21.3474
490 20.8502
495 20.6348
500 20.1005
505 18.8904
510 18.1236
515 16.8298
520 15.4683
525 14.4435
530 13.0202
535 11.4523
540 10.5344
545 9.44898
550 8.724
555 7.6273
560 6.46411
565 5.38122
570 4.78267
575 3.69171
580 2.96255
585 2.25668
590 1.63636
595 1.33146
600 1.62852
Ex : 388
200 0.161864
205 0.140758
210 0.111301
215 0.104504
220 0.18656
225 0.156273
230 0.166123
235 0.152042
240 0.156698
245 0.13494
250 0.099094
255 0.14297
260 0.17916
265 0.138738
270 0.105316
275 0.192816
280 0.152411
285 0.174841
290 0.128614
295 0.139084
300 0.196087
305 0.122077
310 0.133737
315 0.158186
320 0.15047
325 0.182638
330 0.175996
335 0.15178
340 0.168224
345 0.17314
350 0.201809
355 0.22758
360 0.277799
365 0.298326
370 0.441388
375 9.28646
380 148.528
385 238.86
390 66.2791
395 9.95398
400 3.84779
405 4.91805
410 6.35789
415 7.09769
420 7.43214
425 7.66496
430 10.5698
435 13.2631
440 12.969
445 13.6179
450 14.1453
455 14.7742
460 17.1179
465 18.5088
470 20.0416
475 20.511
480 21.1841
485 21.2472
490 21.4222
495 21.5298
500 21.0105
505 19.8359
510 18.6841
515 17.5148
520 15.7
525 14.8642
530 13.6743
535 12.4203
540 11.3584
545 10.0451
550 8.93677
555 7.8025
560 6.88966
565 5.70802
570 4.86567
575 3.9962
580 3.23025
585 2.51053
590 1.86681
595 1.49507
600 1.34385
Ex : 393
200 0.127229
205 0.162409
210 0.127103
215 0.136489
220 0.150307
225 0.112432
230 0.131402
235 0.117689
240 0.129994
245 0.163859
250 0.13858
255 0.113896
260 0.121063
265 0.15538
270 0.102368
275 0.175448
280 0.167666
285 0.150674
290 0.151224
295 0.121848
300 0.0992497
305 0.11391
310 0.123508
315 0.18727
320 0.14691
325 0.153921
330 0.159954
335 0.145175
340 0.17854
345 0.239552
350 0.199659
355 0.180616
360 0.239277
365 0.227506
370 0.23988
375 0.400236
380 8.38511
385 147.799
390 246.315
395 68.6413
400 10.3168
405 4.46712
410 5.1543
415 6.19973
420 6.17293
425 6.07532
430 6.62435
435 9.72502
440 12.8123
445 13.3144
450 13.5864
455 14.4625
460 15.7709
465 17.6417
470 19.5039
475 20.0812
480 20.969
485 21.6074
490 22.1475
495 21.438
500 21.056
505 20.248
510 19.6332
515 17.9645
520 16.5185
525 15.5316
530 14.0098
535 13.0361
540 11.1789
545 10.4345
550 9.44463
555 8.38108
560 7.17264
565 6.20399
570 4.94178
575 4.16744
580 3.18902
585 2.68626
590 1.94961
595 1.54793
600 0.693101
Ex : 398
200 0.0834692
205 0.122724
210 0.159817
215 0.273856
220 0.18015
225 0.213033
230 0.114302
235 0.153918
240 0.139678
245 0.103437
250 0.12409
255 0.141356
260 0.119256
265 0.0890455
270 0.0977531
275 0.149218
280 0.144752
285 0.125456
290 0.131198
295 0.133611
300 0.114593
305 0.118162
310 0.117293
315 0.183445
320 0.168917
325 0.167444
330 0.157487
335 0.156988
340 0.124174
345 0.131865
350 0.134492
355 0.149267
360 0.18622
365 0.229395
370 0.223385
375 0.26655
380 0.377984
385 8.68919
390 151.493
395 250.736
400 70.1163
405 10.9349
410 5.07341
415 5.51388
420 5.62569
425 5.71613
430 6.09153
435 7.29363
440 9.30569
445 12.817
450 14.2536
455 14.7461
460 16.4861
465 17.7299
470 19.3172
475 20.2596
480 21.2324
485 21.8051
490 22.6448
495 22.108
500 21.6407
505 20.679
510 19.6277
515 18.6806
520 17.4409
525 15.7593
530 14.3279
535 13.1536
540 12.0204
545 10.9479
550 9.15988
555 8.60018
560 7.2338
565 6.45298
570 5.33541
575 4.07093
580 3.2049
585 2.56367
590 2.02502
595 1.48351
600 1.14273
Ex : 403
200 0.153135
205 0.168213
210 0.142001
215 0.126173
220 0.120519
225 0.136915
230 0.142752
235 0.149208
240 0.154484
245 0.132602
250 0.161351
255 0.0973609
260 0.203302
265 0.145549
270 0.180594
275 0.117621
280 0.138816
285 0.138105
290 0.174404
295 0.131144
300 0.155302
305 0.155221
310 0.162659
315 0.117888
320 0.1518
325 0.191366
330 0.14538
335 0.150178
340 0.162174
345 0.1257
350 0.140664
355 0.209495
360 0.173823
365 0.21216
370 0.179199
375 0.272005
380 0.326695
385 0.435279
390 9.92118
395 154.604
400 249.188
405 73.2839
410 12.2728
415 5.79674
420 5.66423
425 5.78568
430 6.25772
435 7.19626
440 8.71707
445 10.5499
450 13.7869
455 16.4305
460 17.4111
465 18.546
470 19.8169
475 20.8263
480 21.6988
485 22.2835
490 22.3346
495 22.5677
500 21.8509
505 20.9154
510 20.1938
515 18.837
520 17.2454
525 15.824
530 15.0253
535 13.2593
540 11.6298
545 10.8689
550 9.74412
555 8.60707
560 7.78093
565 6.31072
570 5.29336
575 4.32568
580 3.52908
585 2.54876
590 1.98473
595 1.59883
600 2.07575
Ex : 408
200 0.121677
205 0.16328
210 0.119892
215 0.095315
220 0.108491
225 0.131331
230 0.102636
235 0.0872778
240 0.140434
245 0.114738
250 0.107942
255 0.127602
260 0.127375
265 0.156215
270 0.144803
275 0.128048
280 0.143811
285 0.170913
290 0.148948
295 0.116071
300 0.0883389
305 0.0890386
310 0.15562
315 0.111391
320 0.171264
325 0.115193
330 0.108096
335 0.123685
340 0.14308
345 0.133514
350 0.132532
355 0.169428
360 0.15497
365 0.183324
370 0.174362
375 0.183652
380 0.237541
385 0.310088
390 0.498525
395 9.11848
400 158.922
405 255.568
410 72.635
415 12.5169
420 5.65117
425 5.03752
430 5.87394
435 6.68342
440 8.1152
445 9.1593
450 10.9175
455 14.5876
460 18.149
465 19.0658
470 20.2778
475 21.1537
480 21.5799
485 22.1971
490 22.3677
495 21.9654
500 21.6522
505 20.8781
510 20.1224
515 18.7374
520 17.3217
525 15.866
530 14.2643
535 13.4165
540 11.9929
545 10.8543
550 9.89775
555 8.67469
560 7.67828
565 6.51703
570 5.35837
575 4.40371
580 3.45422
585 2.50625
590 1.96168
595 1.62617
600 1.73364
Ex : 413
200 0.176868
205 0.111205
210 0.111098
215 0.142062
220 0.131665
225 0.145972
230 0.131319
235 0.142225
240 0.097819
245 0.139502
250 0.125967
255 0.137943
260 0.165122
265 0.12069
270 0.103649
275 0.125886
280 0.156859
285 0.156003
290 0.126999
295 0.124223
300 0.208493
305 0.106419
310 0.111531
315 0.10848
320 0.175902
325 0.173127
330 0.18502
335 0.181122
340 0.149084
345 0.114721
350 0.146229
355 0.128138
360 0.124024
365 0.161456
370 0.214559
375 0.176818
380 0.216335
385 0.282187
390 0.308354
395 0.449308
400 10.6899
405 166.073
410 259.325
415 70.0797
420 11.1235
425 4.21907
430 3.84562
435 5.23698
440 5.93749
445 7.25283
450 8.79103
455 11.1508
460 14.7202
465 18.567
470 19.5448
475 20.1985
480 20.6547
485 21.3767
490 21.3783
495 21.5423
500 21.1402
505 20.6072
510 19.3546
515 18.226
520 16.8072
525 15.3459
530 14.2046
535 12.8977
540 11.956
545 10.6842
550 9.59757
555 8.57571
560 7.43554
565 6.68859
570 5.32852
575 4.1363
580 3.50488
585 2.74078
590 2.04177
595 1.72755
600 1.52589
Ex : 418
200 0.157368
205 0.142441
210 0.140177
215 0.130005
220 0.145278
225 0.107856
230 0.137589
235 0.142067
240 0.0949793
245 0.0934397
250 0.155355
255 0.0976244
260 0.101124
265 0.105003
270 0.142227
275 0.168281
280 0.141521
285 0.0938429
290 0.0941451
295 0.102672
300 0.0919842
305 0.145318
310 0.104163
315 0.162733
320 0.167607
325 0.1425
330 0.140402
335 0.149229
340 0.125268
345 0.110721
350 0.167046
355 0.14572
360 0.119771
365 0.131556
370 0.176195
375 0.162816
380 0.147099
385 0.185034
390 0.21989
395 0.331519
400 0.674834
405 10.37
410 166.521
415 262.86
420 73.561
425 10.2747
430 3.41687
435 3.27915
440 4.3294
445 5.54602
450 6.89501
455 9.56368
460 11.4834
465 14.2894
470 17.7954
475 19.278
480 19.2925
485 19.9333
490 19.9949
495 20.2148
500 19.347
505 18.645
510 17.6752
515 16.8423
520 16.0188
525 14.6337
530 13.5949
535 12.2779
540 11.1977
545 10.2491
550 9.46457
555 8.22829
560 6.94671
565 5.87421
570 5.05961
575 4.15573
580 3.26669
585 2.45456
590 1.86096
595 1.59508
600 1.89632
Ex : 423
200 0.119572
205 0.112415
210 0.121335
215 0.133561
220 0.140791
225 0.117622
230 0.068216
235 0.0835681
240 0.0938769
245 0.135222
250 0.117827
255 0.141075
260 0.144564
265 0.141246
270 0.142227
275 0.100762
280 0.152366
285 0.102053
290 0.136755
295 0.17614
300 0.129396
305 0.116947
310 0.127051
315 0.0919242
320 0.10585
325 0.108249
330 0.108709
335 0.158809
340 0.160118
345 0.14515
350 0.105896
355 0.118495
360 0.150963
365 0.143631
370 0.162562
375 0.17852
380 0.204709
385 0.220477
390 0.187471
395 0.218368
400 0.296379
405 0.489034
410 10.4874
415 174.118
420 269.083
425 69.4495
430 9.75643
435 3.19756
440 2.90342
445 4.38502
450 6.3773
455 8.05488
460 9.90336
465 11.7987
470 13.8001
475 16.9027
480 18.9493
485 18.3087
490 18.6964
495 18.2095
500 17.9362
505 17.4303
510 16.7679
515 15.4067
520 14.4562
525 13.7447
530 12.367
535 11.3966
540 10.1923
545 9.31363
550 8.35399
555 7.57736
560 6.459
565 5.67239
570 4.57208
575 3.82585
580 2.83518
585 2.26785
590 1.69816
595 1.44257
600 1.48763
Ex : 428
200 0.106075
205 0.132635
210 0.131087
215 0.135731
220 0.150147
225 0.148122
230 0.106568
235 0.134219
240 0.110649
245 0.134457
250 0.15259
255 0.168641
260 0.158376
265 0.127437
270 0.111767
275 0.116628
280 0.150776
285 0.124587
290 0.154912
295 0.168971
300 0.136546
305 0.177587
310 0.208995
315 0.182931
320 0.169146
325 0.194484
330 0.134296
335 0.172316
340 0.129172
345 0.134346
350 0.12585
355 0.140902
360 0.165122
365 0.165227
370 0.139023
375 0.132265
380 0.163238
385 0.209261
390 0.180774
395 0.190648
400 0.272167
405 0.326207
410 0.504638
415 11.6965
420 182.801
425 281.731
430 75.3357
435 10.3583
440 3.4439
445 3.67985
450 5.43771
455 7.19768
460 9.06565
465 10.3383
470 11.9234
475 13.1254
480 15.8096
485 17.9715
490 17.7071
495 16.9457
500 16.5652
505 15.527
510 14.742
515 13.8366
520 12.9134
525 12.2683
530 11.2811
535 10.2594
540 9.2796
545 8.40671
550 7.7755
555 6.55759
560 5.84563
565 4.9449
570 4.17614
575 3.40219
580 2.58791
585 2.03073
590 1.66028
595 1.2454
600 1.81697
Ex : 433
200 0.0980738
205 0.171867
210 0.129376
215 0.0986991
220 0.111375
225 0.135449
230 0.141468
235 0.173434
240 0.152115
245 0.146345
250 0.181152
255 0.168662
260 0.208495
265 0.146995
270 0.116094
275 0.182723
280 0.118207
285 0.16793
290 0.141493
295 0.121101
300 0.105703
305 0.188726
310 0.17427
315 0.24041
320 0.115188
325 0.112332
330 0.136906
335 0.0994579
340 0.127894
345 0.139868
350 0.192053
355 0.156519
360 0.168848
365 0.172322
370 0.137224
375 0.144882
380 0.17231
385 0.178989
390 0.247434
395 0.186021
400 0.253278
405 0.250535
410 0.288663
415 0.521769
420 12.8527
425 193.395
430 289.853
435 76.5172
440 10.8713
445 3.95499
450 4.34965
455 6.33577
460 7.90232
465 9.44592
470 10.3059
475 11.5502
480 12.8022
485 14.5824
490 16.6116
495 16.289
500 14.5945
505 13.9967
510 13.4028
515 12.1818
520 11.4826
525 10.7874
530 9.7131
535 8.93792
540 8.46023
545 7.50665
550 6.34756
555 5.83704
560 5.21548
565 4.57409
570 3.7714
575 2.94395
580 2.2735
585 1.89033
590 1.48903
595 1.11111
600 0.943783
Ex : 438
200 0.117516
205 0.102335
210 0.168845
215 0.209485
220 0.119129
225 0.13221
230 0.152414
235 0.128858
240 0.123656
245 0.16746
250 0.11406
255 0.14258
260 0.197947
265 0.126524
270 0.0853113
275 0.165768
280 0.129184
285 0.123295
290 0.14636
295 0.125078
300 0.133277
305 0.120903
310 0.162494
315 0.130354
320 0.145684
325 0.15736
330 0.162326
335 0.117595
340 0.143864
345 0.139067
350 0.111938
355 0.151107
360 0.162226
365 0.17635
370 0.146374
375 0.158532
380 0.156263
385 0.221556
390 0.207378
395 0.221479
400 0.198834
405 0.200648
410 0.3609
415 0.298953
420 0.443657
425 12.5769
430 198.424
435 309.364
440 79.871
445 11.8271
450 4.87982
455 5.22009
460 6.69912
465 7.82714
470 9.06823
475 9.60834
480 10.1115
485 10.8115
490 11.9489
495 13.8222
500 14.3011
505 12.6837
510 11.9013
515 10.8894
520 9.96498
525 9.23144
530 8.43489
535 8.02019
540 6.966
545 6.26877
550 5.79321
555 5.17746
560 4.44392
565 3.919
570 3.22421
575 2.72301
580 2.14197
585 1.59924
590 1.16284
595 1.12144
600 0.901939
Ex : 443
200 0.140006
205 0.129379
210 0.114323
215 0.136533
220 0.169354
225 0.101956
230 0.152624
235 0.108047
240 0.165974
245 0.151366
250 0.111798
255 0.14585
260 0.106789
265 0.10139
270 0.136713
275 0.133417
280 0.132437
285 0.134582
290 0.166277
295 0.102216
300 0.175802
305 0.139887
310 0.111977
315 0.136586
320 0.181984
325 0.15823
330 0.238889
335 0.154154
340 0.0977416
345 0.156216
350 0.159495
355 0.160209
360 0.228976
365 0.170008
370 0.154744
375 0.217771
380 0.145139
385 0.151812
390 0.183592
395 0.185882
400 0.209103
405 0.211987
410 0.244704
415 0.277768
420 0.344184
425 0.534103
430 14.7805
435 217.363
440 320.65
445 82.2199
450 12.3973
455 5.14138
460 5.15918
465 6.47594
470 7.36132
475 8.02213
480 8.38214
485 8.9431
490 9.41779
495 9.72377
500 11.1382
505 11.4737
510 10.149
515 9.04758
520 8.57627
525 7.68388
530 6.78849
535 6.6028
540 5.71078
545 5.19766
550 4.92999
555 4.28733
560 3.80726
565 3.115
570 2.76085
575 2.19929
580 1.78737
585 1.38117
590 1.02373
595 0.964664
600 0.927118
Ex : 448
200 0.168653
205 0.142328
210 0.131186
215 0.135014
220 0.12732
225 0.125669
230 0.143631
235 0.133925
240 0.175262
245 0.125529
250 0.144634
255 0.178949
260 0.185297
265 0.164001
270 0.146624
275 0.135694
280 0.137872
285 0.160846
290 0.156344
295 0.11255
300 0.135594
305 0.170025
310 0.126795
315 0.112768
320 0.165152
325 0.148082
330 0.177275
335 0.16109
340 0.111771
345 0.128535
350 0.176301
355 0.165191
360 0.142331
365 0.143227
370 0.118561
375 0.194818
380 0.161735
385 0.179715
390 0.101928
395 0.249205
400 0.203507
405 0.193643
410 0.216047
415 0.187579
420 0.239747
425 0.359411
430 0.57564
435 15.7346
440 230.657
445 333.267
450 85.674
455 12.8064
460 5.12097
465 4.84538
470 5.42952
475 6.47947
480 6.64417
485 6.45788
490 6.87886
495 7.33785
500 7.32992
505 8.00192
510 8.9305
515 8.17207
520 6.98403
525 6.38452
530 5.89852
535 5.34836
540 4.59982
545 4.33081
550 3.83237
555 3.30704
560 2.97442
565 2.73984
570 2.17498
575 1.83281
580 1.4472
585 1.09458
590 0.93772
595 0.786491
600 0.396958
Ex : 453
200 0.144684
205 0.150296
210 0.131269
215 0.163764
220 0.135426
225 0.150202
230 0.130095
235 0.14342
240 0.17186
245 0.155662
250 0.161961
255 0.0900874
260 0.120908
265 0.112263
270 0.1646
275 0.125756
280 0.135255
285 0.183745
290 0.160091
295 0.149752
300 0.177831
305 0.136648
310 0.14129
315 0.133788
320 0.126951
325 0.148043
330 0.146871
335 0.141043
340 0.209511
345 0.145305
350 0.153868
355 0.138436
360 0.14039
365 0.155626
370 0.214207
375 0.190683
380 0.211518
385 0.17272
390 0.127129
395 0.177789
400 0.182491
405 0.149398
410 0.192517
415 0.213432
420 0.222372
425 0.312056
430 0.391381
435 0.641635
440 15.4941
445 246.572
450 348.406
455 83.8066
460 12.4085
465 4.82599
470 4.18812
475 4.22562
480 4.98069
485 5.39966
490 5.15889
495 4.99046
500 5.0553
505 5.03996
510 5.26701
515 6.71653
520 6.63016
525 5.03048
530 4.51483
535 4.16482
540 3.56006
545 3.36383
550 2.86045
555 2.54088
560 2.50526
565 2.10573
570 1.78958
575 1.34224
580 1.16027
585 0.913931
590 0.71015
595 0.514995
600 0.798514
Ex : 458
200 0.161222
205 0.0945407
210 0.136475
215 0.134013
220 0.113221
225 0.135044
230 0.110217
235 0.140371
240 0.165032
245 0.160061
250 0.15301
255 0.168693
260 0.146364
265 0.125669
270 0.110627
275 0.162907
280 0.151546
285 0.135205
290 0.143263
295 0.135295
300 0.132792
305 0.162278
310 0.144122
315 0.162808
320 0.132679
325 0.111337
330 0.1664
335 0.144149
340 0.176884
345 0.153424
350 0.1663
355 0.136706
360 0.134441
365 0.155692
370 0.154737
375 0.127782
380 0.174184
385 0.151845
390 0.150692
395 0.16627
400 0.151609
405 0.202283
410 0.13669
415 0.143636
420 0.183156
425 0.265139
430 0.266323
435 0.345575
440 0.744177
445 17.935
450 253.011
455 363.768
460 89.4731
465 12.8222
470 4.10768
475 3.1426
480 3.33477
485 3.74246
490 3.86912
495 3.66206
500 3.41711
505 3.40382
510 3.42128
515 3.461
520 4.61516
525 5.22748
530 4.21556
535 3.37829
540 3.19639
545 2.75323
550 2.29792
555 2.08446
560 1.75816
565 1.66458
570 1.40652
575 1.19832
580 0.962536
585 0.751954
590 0.621388
595 0.476763
600 0.276536
Ex : 463
200 0.118052
205 0.127577
210 0.116651
215 0.120957
220 0.124647
225 0.154817
230 0.184323
235 0.131316
240 0.148951
245 0.119348
250 0.146374
255 0.16931
260 0.167054
265 0.157502
270 0.139066
275 0.154981
280 0.160437
285 0.109722
290 0.172274
295 0.164616
300 0.0994633
305 0.0959379
310 0.111748
315 0.109662
320 0.137766
325 0.10317
330 0.168404
335 0.153382
340 0.121663
345 0.144256
350 0.15854
355 0.122534
360 0.0920172
365 0.132314
370 0.126756
375 0.151495
380 0.144867
385 0.110385
390 0.151549
395 0.189806
400 0.180506
405 0.143991
410 0.186136
415 0.221682
420 0.19262
425 0.20164
430 0.214898
435 0.315447
440 0.372163
445 0.59808
450 16.1801
455 254.668
460 376.202
465 92.3754
470 12.5182
475 3.4771
480 2.46485
485 2.62029
490 3.00734
495 2.75531
500 2.85072
505 2.54037
510 2.48604
515 2.50397
520 2.51725
525 3.23785
530 4.28094
535 3.69604
540 2.77027
545 2.52732
550 2.18505
555 1.69789
560 1.45791
565 1.38392
570 1.20473
575 0.98455
580 0.791162
585 0.635251
590 0.61316
595 0.518363
600 0.329772
Ex : 468
200 0.108029
205 0.104419
210 0.0923665
215 0.142857
220 0.136809
225 0.112667
230 0.126901
235 0.134352
240 0.108859
245 0.123266
250 0.16725
255 0.179194
260 0.155148
265 0.123836
270 0.111794
275 0.112577
280 0.096503
285 0.115134
290 0.137423
295 0.151166
300 0.163214
305 0.0949468
310 0.158456
315 0.133466
320 0.12463
325 0.143608
330 0.124343
335 0.146589
340 0.132074
345 0.168209
350 0.168747
355 0.141612
360 0.145115
365 0.107943
370 0.122794
375 0.1408
380 0.153143
385 0.127354
390 0.188283
395 0.120972
400 0.153869
405 0.127279
410 0.172267
415 0.147921
420 0.139614
425 0.217423
430 0.197357
435 0.198699
440 0.256416
445 0.388527
450 0.707577
455 17.7618
460 251.357
465 387.921
470 95.3665
475 12.599
480 3.14649
485 2.03841
490 1.94416
495 2.20187
500 2.26766
505 2.03398
510 2.01037
515 1.92431
520 1.96143
525 1.93243
530 2.33354
535 3.51595
540 3.52785
545 2.43092
550 1.93742
555 1.85989
560 1.502
565 1.30588
570 1.11421
575 0.83193
580 0.749198
585 0.583767
590 0.514774
595 0.437214
600 0.426086
Ex : 473
200 0.167468
205 0.12876
210 0.129483
215 0.144277
220 0.114851
225 0.094895
230 0.124018
235 0.165259
240 0.131922
245 0.132219
250 0.135203
255 0.13336
260 0.118408
265 0.10769
270 0.121204
275 0.122416
280 0.157747
285 0.155401
290 0.167427
295 0.143982
300 0.125249
305 0.134541
310 0.120206
315 0.116642
320 0.164705
325 0.150416
330 0.157839
335 0.156653
340 0.156019
345 0.137928
350 0.126928
355 0.143773
360 0.172188
365 0.131778
370 0.174701
375 0.139032
380 0.229917
385 0.138816
390 0.133413
395 0.187335
400 0.13306
405 0.142908
410 0.158185
415 0.174129
420 0.178391
425 0.173175
430 0.21959
435 0.205442
440 0.282693
445 0.320577
450 0.425451
455 0.64883
460 21.0137
465 298.166
470 384.158
475 87.0909
480 11.4283
485 2.77065
490 1.68499
495 1.63076
500 1.98447
505 2.1417
510 1.91775
515 1.6326
520 1.69169
525 1.68367
530 1.72087
535 1.74845
540 3.00148
545 3.26385
550 2.4585
555 1.77632
560 1.74066
565 1.39046
570 1.09214
575 0.81481
580 0.706348
585 0.651091
590 0.494601
595 0.404858
600 1.12662
Ex : 478
200 0.146659
205 0.15366
210 0.103323
215 0.138972
220 0.190877
225 0.150596
230 0.153628
235 0.193318
240 0.158871
245 0.129202
250 0.104307
255 0.147449
260 0.178154
265 0.114704
270 0.170482
275 0.130657
280 0.12656
285 0.200014
290 0.187371
295 0.149982
300 0.173822
305 0.148207
310 0.126311
315 0.114796
320 0.221671
325 0.15859
330 0.156008
335 0.182254
340 0.184158
345 0.168973
350 0.159929
355 0.17348
360 0.166587
365 0.184655
370 0.159482
375 0.241341
380 0.159209
385 0.138369
390 0.142625
395 0.153891
400 0.219886
405 0.198293
410 0.193178
415 0.194371
420 0.19601
425 0.184747
430 0.200419
435 0.267416
440 0.243012
445 0.229854
450 0.343753
455 0.423074
460 0.725896
465 22.3479
470 284.674
475 376.535
480 91.1227
485 11.8847
490 2.89299
495 1.49508
500 1.49021
505 1.80666
510 1.7412
515 1.75701
520 1.59763
525 1.52457
530 1.72438
535 1.76048
540 1.61792
545 2.28889
550 3.13203
555 2.64334
560 1.69092
565 1.42007
570 1.22344
575 0.943835
580 0.68154
585 0.603341
590 0.526469
595 0.479695
600 0.155507
Ex : 483
200 0.212301
205 0.186069
210 0.121942
215 0.130478
220 0.168996
225 0.0969958
230 0.125791
235 0.13614
240 0.141506
245 0.148359
250 0.140473
255 0.195774
260 0.143728
265 0.194592
270 0.170516
275 0.167825
280 0.172781
285 0.14686
290 0.191559
295 0.201952
300 0.180115
305 0.139611
310 0.131719
315 0.120163
320 0.19643
325 0.155595
330 0.152631
335 0.19458
340 0.166391
345 0.119452
350 0.168707
355 0.140156
360 0.138215
365 0.163342
370 0.207706
375 0.201975
380 0.168215
385 0.183567
390 0.226186
395 0.168646
400 0.147596
405 0.158033
410 0.197565
415 0.171232
420 0.160098
425 0.187777
430 0.262521
435 0.17045
440 0.250058
445 0.195473
450 0.292903
455 0.385936
460 0.367893
465 0.673642
470 17.1438
475 276.512
480 418.296
485 100.324
490 12.7326
495 2.70531
500 1.44791
505 1.26958
510 1.50548
515 1.78966
520 1.85431
525 1.58797
530 1.43272
535 1.4618
540 1.31855
545 1.34162
550 1.57333
555 2.46855
560 2.61055
565 1.75461
570 1.32953
575 1.13309
580 0.840082
585 0.668033
590 0.547659
595 0.4972
600 0.427911
Ex : 488
200 0.178726
205 0.181564
210 0.212956
215 0.15604
220 0.16617
225 0.189589
230 0.180711
235 0.143458
240 0.176653
245 0.180223
250 0.210098
255 0.18479
260 0.159837
265 0.212438
270 0.185228
275 0.134027
280 0.199709
285 0.219733
290 0.197032
295 0.153184
300 0.235217
305 0.205212
310 0.169418
315 0.187409
320 0.199815
325 0.160618
330 0.15859
335 0.22505
340 0.154356
345 0.161403
350 0.194782
355 0.172598
360 0.135681
365 0.18453
370 0.225121
375 0.200332
380 0.143748
385 0.221429
390 0.194538
395 0.191976
400 0.208023
405 0.262484
410 0.164825
415 0.244049
420 0.173237
425 0.244516
430 0.18648
435 0.240372
440 0.30509
445 0.274551
450 0.270007
455 0.331302
460 0.445264
465 0.544142
470 0.748017
475 20.717
480 285.856
485 382.468
490 90.8967
495 11.6277
500 2.46792
505 1.50437
510 1.29686
515 1.57626
520 1.78858
525 1.5514
530 1.47037
535 1.39983
540 1.40545
545 1.40487
550 1.48827
555 1.29316
560 1.91403
565 2.34326
570 1.68735
575 1.08821
580 0.875124
585 0.767331
590 0.598714
595 0.419649
600 0.682235
Ex : 493
200 0.203034
205 0.148554
210 0.179088
215 0.197022
220 0.204385
225 0.116428
230 0.152556
235 0.154549
240 0.193366
245 0.174907
250 0.239031
255 0.204751
260 0.211939
265 0.163059
270 0.126702
275 0.196517
280 0.130951
285 0.116335
290 0.132068
295 0.133184
300 0.171573
305 0.17264
310 0.173828
315 0.185135
320 0.163305
325 0.145799
330 0.178633
335 0.174669
340 0.258395
345 0.137088
350 0.190234
355 0.14804
360 0.220062
365 0.162126
370 0.173998
375 0.190826
380 0.152027
385 0.137421
390 0.180884
395 0.164672
400 0.172235
405 0.154554
410 0.177901
415 0.129797
420 0.205159
425 0.214613
430 0.206328
435 0.173884
440 0.209536
445 0.199961
450 0.194186
455 0.30423
460 0.301937
465 0.418578
470 0.464841
475 0.638478
480 18.1419
485 275.912
490 398.009
495 92.195
500 11.7231
505 2.45299
510 1.38073
515 1.33159
520 1.34572
525 1.47454
530 1.65054
535 1.47253
540 1.37705
545 1.41546
550 1.18838
555 1.21089
560 1.15622
565 1.40016
570 1.90142
575 1.61022
580 0.900447
585 0.715488
590 0.671224
595 0.515587
600 0.403682
Ex : 498
200 0.176688
205 0.180796
210 0.174685
215 0.156135
220 0.16042
225 0.216816
230 0.22323
235 0.219547
240 0.15029
245 0.156487
250 0.203169
255 0.19342
260 0.203649
265 0.173502
270 0.233572
275 0.18433
280 0.118823
285 0.154553
290 0.132956
295 0.116207
300 0.151281
305 0.201998
310 0.218557
315 0.163346
320 0.227544
325 0.170247
330 0.167361
335 0.167241
340 0.181257
345 0.163623
350 0.168568
355 0.171162
360 0.219606
365 0.141624
370 0.259524
375 0.191921
380 0.14884
385 0.14786
390 0.197848
395 0.164719
400 0.198788
405 0.240094
410 0.216717
415 0.196981
420 0.191079
425 0.220339
430 0.213811
435 0.271494
440 0.187163
445 0.257511
450 0.265955
455 0.282227
460 0.298291
465 0.379872
470 0.320347
475 0.431721
480 0.780631
485 21.7744
490 352.52
495 417.305
500 97.4883
505 12.2131
510 2.34232
515 1.45443
520 1.32396
525 1.40988
530 1.66703
535 1.51865
540 1.36109
545 1.27006
550 1.10815
555 1.19861
560 1.05857
565 1.03817
570 1.06607
575 1.40291
580 1.45461
585 0.877941
590 0.604492
595 0.506431
600 0.333172
Ex : 503
200 0.146809
205 0.278384
210 0.140267
215 0.266853
220 0.168949
225 0.154512
230 0.221129
235 0.178746
240 0.126116
245 0.169649
250 0.180071
255 0.171131
260 0.200631
265 0.190118
270 0.24577
275 0.222417
280 0.194278
285 0.174754
290 0.242505
295 0.18942
300 0.183961
305 0.157638
310 0.166082
315 0.203216
320 0.213676
325 0.150509
330 0.178778
335 0.174916
340 0.175782
345 0.158164
350 0.179359
355 0.243789
360 0.2332
365 0.144559
370 0.155316
375 0.144953
380 0.195827
385 0.231528
390 0.150471
395 0.175843
400 0.180683
405 0.232457
410 0.182903
415 0.274395
420 0.176765
425 0.191361
430 0.268847
435 0.211566
440 0.191453
445 0.210894
450 0.212954
455 0.22576
460 0.348915
465 0.310244
470 0.356767
475 0.390381
480 0.525596
485 0.789261
490 19.5835
495 284.69
500 385.367
505 89.3741
510 11.3747
515 2.4063
520 1.42753
525 1.28169
530 1.39003
535 1.54807
540 1.40901
545 1.43602
550 1.12064
555 1.08824
560 1.06542
565 0.923382
570 0.854394
575 0.797231
580 1.03594
585 1.14019
590 0.961828
595 0.564296
600 0.339923
Ex : 508
200 0.237397
205 0.225447
210 0.140794
215 0.214772
220 0.198507
225 0.218691
230 0.178331
235 0.183295
240 0.181701
245 0.224081
250 0.154729
255 0.180988
260 0.196384
265 0.171766
270 0.188652
275 0.220178
280 0.220097
285 0.16534
290 0.178608
295 0.197231
300 0.249823
305 0.219971
310 0.208587
315 0.194187
320 0.204771
325 0.218267
330 0.177615
335 0.167272
340 0.133826
345 0.165108
350 0.122235
355 0.242997
360 0.195254
365 0.201175
370 0.210238
375 0.25052
380 0.235358
385 0.241088
390 0.200465
395 0.264522
400 0.171294
405 0.198129
410 0.193984
415 0.183042
420 0.252492
425 0.194532
430 0.273289
435 0.22062
440 0.185436
445 0.231534
450 0.382813
455 0.331236
460 0.267435
465 0.263111
470 0.211418
475 0.296646
480 0.350927
485 0.459409
490 0.698143
495 21.7372
500 283.081
505 383.794
510 92.2177
515 11.7028
520 2.49581
525 1.44344
530 1.29077
535 1.25767
540 1.18711
545 1.20702
550 1.21112
555 1.01507
560 0.934448
565 0.793697
570 0.841869
575 0.669837
580 0.618275
585 0.723417
590 1.00647
595 0.928585
600 0.383374
Ex : 513
200 0.258779
205 0.163335
210 0.30269
215 0.196123
220 0.224937
225 0.242387
230 0.146259
235 0.191432
240 0.193039
245 0.180005
250 0.268434
255 0.179972
260 0.187547
265 0.218828
270 0.173191
275 0.204077
280 0.221716
285 0.214014
290 0.327361
295 0.190921
300 0.154808
305 0.128291
310 0.212152
315 0.21967
320 0.301867
325 0.204628
330 0.216676
335 0.230305
340 0.238071
345 0.328238
350 0.217334
355 0.197387
360 0.16935
365 0.178266
370 0.24009
375 0.264473
380 0.26569
385 0.173461
390 0.258904
395 0.185095
400 0.224322
405 0.236904
410 0.253318
415 0.146994
420 0.225496
425 0.263798
430 0.247862
435 0.288824
440 0.277996
445 0.271133
450 0.205812
455 0.237531
460 0.294827
465 0.318838
470 0.3421
475 0.372799
480 0.396317
485 0.400796
490 0.475013
495 0.697517
500 18.8602
505 277.727
510 389.797
515 95.4478
520 12.0207
525 2.56673
530 1.34873
535 1.19462
540 1.16018
545 1.20235
550 1.44363
555 1.18037
560 1.06311
565 0.942979
570 0.825209
575 0.586218
580 0.529258
585 0.498882
590 0.524321
595 0.600503
600 0.687406
Ex : 518
200 0.144012
205 0.188563
210 0.284898
215 0.18884
220 0.236539
225 0.133526
230 0.193588
235 0.203804
240 0.148944
245 0.266481
250 0.197956
255 0.218857
260 0.194582
265 0.19607
270 0.21338
275 0.254085
280 0.245945
285 0.253267
290 0.168841
295 0.219512
300 0.193184
305 0.184656
310 0.155654
315 0.173217
320 0.23988
325 0.204933
330 0.245606
335 0.174952
340 0.193496
345 0.150219
350 0.168438
355 0.22089
360 0.21292
365 0.152666
370 0.183021
375 0.234334
380 0.201118
385 0.289291
390 0.267183
395 0.250552
400 0.190641
405 0.233542
410 0.234954
415 0.188702
420 0.217466
425 0.30424
430 0.190801
435 0.21472
440 0.258919
445 0.25966
450 0.200927
455 0.230152
460 0.330823
465 0.305987
470 0.295064
475 0.304926
480 0.341743
485 0.365976
490 0.325725
495 0.541305
500 0.730001
505 17.9984
510 261.087
515 377.677
520 95.0896
525 12.0557
530 2.35872
535 1.28545
540 1.17415
545 0.941367
550 1.05821
555 1.15547
560 1.03273
565 0.821384
570 0.802559
575 0.637141
580 0.584348
585 0.414296
590 0.401627
595 0.407887
600 0.0637925
Ex : 523
200 0.224623
205 0.264274
210 0.198063
215 0.255439
220 0.312031
225 0.232978
230 0.198046
235 0.221764
240 0.233364
245 0.246922
250 0.18044
255 0.199231
260 0.203613
265 0.280156
270 0.235238
275 0.226462
280 0.190005
285 0.226964
290 0.193006
295 0.187016
300 0.158826
305 0.278282
310 0.24378
315 0.175496
320 0.207298
325 0.180206
330 0.206826
335 0.267632
340 0.173002
345 0.210903
350 0.252798
355 0.3094
360 0.21077
365 0.274649
370 0.20308
375 0.199471
380 0.17553
385 0.199953
390 0.258823
395 0.196511
400 0.340188
405 0.228222
410 0.278465
415 0.283181
420 0.226203
425 0.23621
430 0.186234
435 0.257148
440 0.222534
445 0.221326
450 0.220482
455 0.222754
460 0.307792
465 0.326557
470 0.252992
475 0.244216
480 0.2596
485 0.329721
490 0.329236
495 0.389431
500 0.439427
505 0.652693
510 16.9902
515 249.61
520 379.185
525 99.771
530 12.6517
535 2.46971
540 1.17495
545 1.10323
550 0.89468
555 0.931839
560 1.08773
565 1.03503
570 0.954138
575 0.611427
580 0.552942
585 0.480579
590 0.447613
595 0.506606
600 0.0576499
Ex : 528
200 0.213497
205 0.257723
210 0.230561
215 0.238419
220 0.154285
225 0.226838
230 0.260881
235 0.28157
240 0.185913
245 0.248801
250 0.218703
255 0.169628
260 0.215299
265 0.214757
270 0.25715
275 0.196348
280 0.173395
285 0.190023
290 0.284709
295 0.24436
300 0.237262
305 0.246827
310 0.229296
315 0.265463
320 0.199969
325 0.148392
330 0.160132
335 0.262198
340 0.173504
345 0.180489
350 0.223954
355 0.261592
360 0.225767
365 0.18953
370 0.229539
375 0.246174
380 0.267146
385 0.26538
390 0.223151
395 0.216442
400 0.316697
405 0.26925
410 0.22964
415 0.229352
420 0.18989
425 0.241465
430 0.321762
435 0.245623
440 0.243289
445 0.262043
450 0.27297
455 0.223446
460 0.264855
465 0.293543
470 0.243861
475 0.221625
480 0.383357
485 0.360506
490 0.387312
495 0.295284
500 0.522577
505 0.482491
510 0.758512
515 18.4816
520 263.155
525 370.989
530 92.9799
535 11.7056
540 2.2817
545 1.27436
550 1.01569
555 0.774493
560 0.898116
565 0.896956
570 0.764063
575 0.661857
580 0.617358
585 0.564319
590 0.360027
595 0.39005
600 0.293631
Ex : 533
200 0.194469
205 0.18835
210 0.250405
215 0.279861
220 0.235852
225 0.172002
230 0.257585
235 0.264491
240 0.210712
245 0.187015
250 0.195692
255 0.20996
260 0.212374
265 0.195998
270 0.236984
275 0.176886
280 0.181799
285 0.206968
290 0.198867
295 0.212991
300 0.167776
305 0.222279
310 0.237275
315 0.332133
320 0.186738
325 0.243542
330 0.281113
335 0.19423
340 0.172011
345 0.238841
350 0.252752
355 0.239069
360 0.28152
365 0.286737
370 0.177643
375 0.18977
380 0.197989
385 0.275764
390 0.27163
395 0.269153
400 0.336657
405 0.242607
410 0.175538
415 0.279721
420 0.275683
425 0.207423
430 0.259956
435 0.2145
440 0.272382
445 0.24222
450 0.278638
455 0.262856
460 0.186018
465 0.218446
470 0.224271
475 0.256864
480 0.301487
485 0.224013
490 0.28733
495 0.342587
500 0.392779
505 0.344558
510 0.528008
515 0.65636
520 19.662
525 233.848
530 350.687
535 92.0668
540 11.4687
545 2.18969
550 1.23814
555 0.910442
560 0.69697
565 0.691526
570 0.692307
575 0.645251
580 0.521895
585 0.517523
590 0.366907
595 0.319578
600 0.193596
Ex : 538
200 0.288322
205 0.304309
210 0.239978
215 0.234121
220 0.185015
225 0.171369
230 0.209121
235 0.177992
240 0.212355
245 0.18662
250 0.23787
255 0.242804
260 0.241406
265 0.22335
270 0.195477
275 0.243677
280 0.251114
285 0.289467
290 0.213682
295 0.127248
300 0.214077
305 0.23946
310 0.167177
315 0.323638
320 0.264881
325 0.260997
330 0.243653
335 0.224318
340 0.213032
345 0.230322
350 0.302163
355 0.275755
360 0.25414
365 0.276315
370 0.262109
375 0.243661
380 0.222006
385 0.274188
390 0.216142
395 0.210909
400 0.155418
405 0.212544
410 0.316434
415 0.222001
420 0.255567
425 0.30423
430 0.244811
435 0.276959
440 0.309971
445 0.329725
450 0.239151
455 0.265517
460 0.255378
465 0.255058
470 0.356048
475 0.264582
480 0.247928
485 0.307214
490 0.236525
495 0.269444
500 0.2919
505 0.301964
510 0.414417
515 0.425141
520 0.689097
525 12.7493
530 220.734
535 351.347
540 96.5833
545 12.0932
550 2.11126
555 1.03917
560 0.929944
565 0.825392
570 0.666831
575 0.706451
580 0.572186
585 0.428495
590 0.527611
595 0.350277
600 0.811554
Ex : 543
200 0.225268
205 0.231836
210 0.268129
215 0.281656
220 0.195087
225 0.227062
230 0.184089
235 0.263774
240 0.311721
245 0.230179
250 0.2208
255 0.190189
260 0.259387
265 0.282093
270 0.171844
275 0.197618
280 0.243314
285 0.207906
290 0.274835
295 0.188083
300 0.303119
305 0.262295
310 0.202677
315 0.152191
320 0.249567
325 0.203151
330 0.238132
335 0.243255
340 0.242209
345 0.293617
350 0.260023
355 0.172455
360 0.279426
365 0.220122
370 0.23021
375 0.324942
380 0.279814
385 0.292405
390 0.256423
395 0.253432
400 0.167177
405 0.186456
410 0.283073
415 0.216712
420 0.256601
425 0.249815
430 0.246518
435 0.293168
440 0.308679
445 0.300466
450 0.307956
455 0.380481
460 0.27986
465 0.301666
470 0.362182
475 0.278995
480 0.229194
485 0.286659
490 0.291006
495 0.332832
500 0.289118
505 0.208441
510 0.313503
515 0.378652
520 0.445754
525 0.688404
530 11.9727
535 208.719
540 338.696
545 94.4064
550 11.8671
555 2.0286
560 1.07808
565 0.856934
570 0.653786
575 0.614808
580 0.51767
585 0.468633
590 0.411419
595 0.47595
600 0.522439
Ex : 548
200 0.203162
205 0.216669
210 0.242272
215 0.216963
220 0.223054
225 0.253108
230 0.192446
235 0.246287
240 0.219699
245 0.252786
250 0.26063
255 0.160121
260 0.258372
265 0.244867
270 0.232969
275 0.23213
280 0.241029
285 0.20219
290 0.183266
295 0.196948
300 0.253736
305 0.285584
310 0.263487
315 0.199157
320 0.315746
325 0.21924
330 0.190766
335 0.246861
340 0.268741
345 0.14968
350 0.301849
355 0.238724
360 0.286222
365 0.254867
370 0.265557
375 0.210881
380 0.278406
385 0.33363
390 0.235081
395 0.429209
400 0.311265
405 0.225295
410 0.280315
415 0.24885
420 0.188651
425 0.241058
430 0.323541
435 0.276575
440 0.309181
445 0.378948
450 0.33948
455 0.381014
460 0.291848
465 0.193861
470 0.196858
475 0.22262
480 0.337708
485 0.30302
490 0.32543
495 0.314065
500 0.306676
505 0.353256
510 0.351588
515 0.46664
520 0.460142
525 0.669004
530 0.549298
535 12.818
540 208.193
545 344.826
550 93.9117
555 11.5935
560 2.07414
565 0.860955
570 0.773123
575 0.534943
580 0.60557
585 0.44724
590 0.388377
595 0.484375
600 0.0655459
Ex : 553
200 0.251243
205 0.22713
210 0.225807
215 0.136085
220 0.27843
225 0.184358
230 0.225458
235 0.233038
240 0.287
245 0.228127
250 0.284399
255 0.233721
260 0.253132
265 0.243833
270 0.227029
275 0.246427
280 0.249561
285 0.334867
290 0.257905
295 0.234447
300 0.185195
305 0.2664
310 0.219476
315 0.249357
320 0.300769
325 0.28139
330 0.219836
335 0.240316
340 0.247397
345 0.268379
350 0.270821
355 0.244114
360 0.250129
365 0.226877
370 0.276408
375 0.259602
380 0.292163
385 0.26307
390 0.280193
395 0.299884
400 0.180416
405 0.262503
410 0.362759
415 0.278852
420 0.264842
425 0.285487
430 0.242849
435 0.296597
440 0.346342
445 0.334257
450 0.260297
455 0.204029
460 0.269364
465 0.271574
470 0.279537
475 0.301814
480 0.250234
485 0.284244
490 0.312597
495 0.266232
500 0.333249
505 0.278295
510 0.358993
515 0.313254
520 0.385983
525 0.414283
530 0.439419
535 0.615861
540 11.0444
545 199.33
550 340.539
555 96.7305
560 11.9784
565 2.05653
570 0.850593
575 0.638278
580 0.440021
585 0.377022
590 0.482093
595 0.409214
600 0.852933
Ex : 558
200 0.247829
205 0.192543
210 0.213999
215 0.258287
220 0.220425
225 0.421394
230 0.283112
235 0.223609
240 0.208972
245 0.340818
250 0.245962
255 0.229466
260 0.202689
265 0.292162
270 0.229769
275 0.196225
280 0.271682
285 0.195853
290 0.222055
295 0.180688
300 0.17171
305 0.183573
310 0.173196
315 0.256735
320 0.19689
325 0.265233
330 0.24303
335 0.294784
340 0.300028
345 0.200231
350 0.217434
355 0.217977
360 0.231361
365 0.329111
370 0.316798
375 0.216666
380 0.29942
385 0.210864
390 0.226564
395 0.277407
400 0.309134
405 0.284167
410 0.204647
415 0.277259
420 0.27439
425 0.236494
430 0.319412
435 0.292975
440 0.241306
445 0.321278
450 0.314502
455 0.299543
460 0.231625
465 0.333621
470 0.303179
475 0.229661
480 0.286268
485 0.325035
490 0.321579
495 0.310779
500 0.311346
505 0.288537
510 0.420284
515 0.349839
520 0.398797
525 0.464649
530 0.354551
535 0.465071
540 0.588921
545 9.87331
550 180.513
555 308.764
560 89.851
565 11.1204
570 1.7759
575 0.652781
580 0.576716
585 0.426908
590 0.402483
595 0.427548
600 0.0869461
Ex : 563
200 0.172356
205 0.2816
210 0.237766
215 0.157349
220 0.173614
225 0.260046
230 0.225285
235 0.206742
240 0.297054
245 0.302189
250 0.250279
255 0.244428
260 0.222646
265 0.340781
270 0.39623
275 0.313326
280 0.208773
285 0.191915
290 0.314291
295 0.247091
300 0.255154
305 0.245694
310 0.285866
315 0.298789
320 0.244329
325 0.222589
330 0.27786
335 0.258071
340 0.248741
345 0.18926
350 0.189024
355 0.232576
360 0.343998
365 0.38472
370 0.350369
375 0.312087
380 0.229964
385 0.284941
390 0.296299
395 0.258197
400 0.299645
405 0.328091
410 0.257293
415 0.31969
420 0.287848
425 0.295733
430 0.307095
435 0.299843
440 0.232713
445 0.341341
450 0.43853
455 0.342471
460 0.284905
465 0.316131
470 0.360916
475 0.246273
480 0.363235
485 0.297573
490 0.286074
495 0.281102
500 0.228892
505 0.223678
510 0.274289
515 0.268069
520 0.284174
525 0.416968
530 0.370129
535 0.386626
540 0.402182
545 0.568333
550 9.8447
555 173.622
560 304.737
565 87.7763
570 10.8028
575 1.73942
580 0.639263
585 0.53167
590 0.386032
595 0.344816
600 0.072892
Ex : 568
200 0.236739
205 0.171382
210 0.199423
215 0.256245
220 0.305713
225 0.273652
230 0.246715
235 0.233766
240 0.27009
245 0.226997
250 0.284975
255 0.348452
260 0.267457
265 0.26487
270 0.279293
275 0.309675
280 0.351012
285 0.283391
290 0.32611
295 0.333681
300 0.272452
305 0.227379
310 0.257608
315 0.35083
320 0.212217
325 0.303862
330 0.378139
335 0.295673
340 0.214404
345 0.266307
350 0.234282
355 0.286376
360 0.281222
365 0.268808
370 0.241315
375 0.249257
380 0.253408
385 0.277522
390 0.309639
395 0.387393
400 0.346755
405 0.29256
410 0.210169
415 0.233568
420 0.295935
425 0.274408
430 0.360016
435 0.32623
440 0.339379
445 0.408888
450 0.267693
455 0.224831
460 0.244164
465 0.239907
470 0.280562
475 0.248184
480 0.2579
485 0.478499
490 0.362593
495 0.257044
500 0.357349
505 0.27401
510 0.307753
515 0.270268
520 0.302131
525 0.346134
530 0.281556
535 0.373662
540 0.399818
545 0.369818
550 0.633776
555 7.86508
560 159.351
565 283.953
570 88.2404
575 10.8504
580 1.57462
585 0.55811
590 0.50549
595 0.34893
600 0.0397069
Ex : 573
200 0.296759
205 0.294824
210 0.424395
215 0.232185
220 0.253262
225 0.217556
230 0.31703
235 0.365341
240 0.322073
245 0.252237
250 0.307291
255 0.235079
260 0.223219
265 0.316677
270 0.250603
275 0.277808
280 0.287493
285 0.262307
290 0.335985
295 0.262681
300 0.291407
305 0.272097
310 0.313095
315 0.273924
320 0.262199
325 0.33188
330 0.230877
335 0.224199
340 0.345047
345 0.323377
350 0.307856
355 0.255463
360 0.19555
365 0.264467
370 0.295899
375 0.258225
380 0.409187
385 0.312411
390 0.245817
395 0.285951
400 0.214022
405 0.243632
410 0.283139
415 0.258445
420 0.326353
425 0.293424
430 0.224365
435 0.251187
440 0.273582
445 0.273872
450 0.321459
455 0.291334
460 0.308629
465 0.287459
470 0.278575
475 0.330237
480 0.282404
485 0.186786
490 0.35297
495 0.382773
500 0.33968
505 0.363066
510 0.245613
515 0.32182
520 0.35035
525 0.31954
530 0.394233
535 0.308672
540 0.335825
545 0.331926
550 0.494389
555 0.568574
560 7.12213
565 141.193
570 277.485
575 91.7261
580 11.3266
585 1.73664
590 0.689284
595 0.417259
600 0.237808
Ex : 578
200 0.230794
205 0.310678
210 0.25066
215 0.310886
220 0.360816
225 0.243096
230 0.18546
235 0.247825
240 0.386765
245 0.260189
250 0.251159
255 0.255832
260 0.278311
265 0.285744
270 0.301818
275 0.295783
280 0.312868
285 0.224303
290 0.218578
295 0.270079
300 0.338117
305 0.367253
310 0.287458
315 0.268374
320 0.238183
325 0.392693
330 0.252298
335 0.267775
340 0.19322
345 0.287997
350 0.269173
355 0.27404
360 0.22802
365 0.279276
370 0.352174
375 0.398338
380 0.287643
385 0.328827
390 0.275293
395 0.365562
400 0.255567
405 0.240424
410 0.256995
415 0.273896
420 0.22282
425 0.319032
430 0.317271
435 0.467367
440 0.317747
445 0.317132
450 0.358466
455 0.299182
460 0.3497
465 0.321127
470 0.40097
475 0.209603
480 0.300697
485 0.286743
490 0.288533
495 0.333091
500 0.271225
505 0.241306
510 0.301863
515 0.337314
520 0.287277
525 0.249147
530 0.243715
535 0.30143
540 0.270207
545 0.358107
550 0.430083
555 0.439097
560 0.639485
565 6.64576
570 131.398
575 237.413
580 70.1666
585 8.60888
590 1.31271
595 0.47587
600 0.0732103
Ex : 583
200 0.203621
205 0.253435
210 0.22975
215 0.316518
220 0.273465
225 0.281231
230 0.306099
235 0.361209
240 0.296381
245 0.292426
250 0.268815
255 0.295204
260 0.186928
265 0.260399
270 0.217882
275 0.235049
280 0.256533
285 0.221229
290 0.157408
295 0.273768
300 0.255075
305 0.282424
310 0.35882
315 0.351478
320 0.293763
325 0.273582
330 0.185435
335 0.238398
340 0.318354
345 0.323344
350 0.226674
355 0.272834
360 0.191648
365 0.290821
370 0.246137
375 0.248492
380 0.295353
385 0.279346
390 0.313638
395 0.26611
400 0.350785
405 0.263332
410 0.315966
415 0.413012
420 0.458717
425 0.327092
430 0.283941
435 0.305036
440 0.254053
445 0.28914
450 0.280074
455 0.25659
460 0.275198
465 0.248973
470 0.313352
475 0.288165
480 0.270301
485 0.248038
490 0.295182
495 0.229695
500 0.37342
505 0.286596
510 0.278756
515 0.272068
520 0.316165
525 0.25646
530 0.267092
535 0.260758
540 0.304728
545 0.371143
550 0.418472
555 0.366214
560 0.423255
565 0.389293
570 6.02969
575 118.651
580 201.189
585 55.7445
590 6.79301
595 1.13733
600 0.262354
Ex : 588
200 0.237452
205 0.219592
210 0.361791
215 0.309082
220 0.301223
225 0.22172
230 0.220367
235 0.412346
240 0.321074
245 0.265139
250 0.228883
255 0.212632
260 0.244562
265 0.375333
270 0.248835
275 0.298328
280 0.303227
285 0.308289
290 0.274211
295 0.262881
300 0.260353
305 0.255745
310 0.226106
315 0.288659
320 0.334712
325 0.271524
330 0.270443
335 0.456022
340 0.245593
345 0.281847
350 0.290313
355 0.299526
360 0.287398
365 0.531391
370 0.353088
375 0.281269
380 0.247851
385 0.284247
390 0.299355
395 0.296202
400 0.264643
405 0.26792
410 0.29747
415 0.297402
420 0.270678
425 0.302236
430 0.264679
435 0.315304
440 0.309612
445 0.323123
450 0.315318
455 0.367227
460 0.250391
465 0.255149
470 0.288458
475 0.26257
480 0.370933
485 0.237639
490 0.280401
495 0.298638
500 0.359919
505 0.294721
510 0.24955
515 0.292384
520 0.256514
525 0.233808
530 0.295948
535 0.231557
540 0.260133
545 0.308362
550 0.350692
555 0.327975
560 0.430542
565 0.435787
570 0.412036
575 4.56053
580 91.0623
585 168.079
590 49.4351
595 6.32016
600 1.45992
Ex : 593
200 0.226787
205 0.214525
210 0.253597
215 0.307797
220 0.211775
225 0.323659
230 0.293582
235 0.242274
240 0.253699
245 0.231122
250 0.228768
255 0.29158
260 0.295772
265 0.189652
270 0.230032
275 0.251416
280 0.313851
285 0.351898
290 0.250147
295 0.400481
300 0.268807
305 0.254557
310 0.278475
315 0.373475
320 0.431417
325 0.199919
330 0.239587
335 0.292518
340 0.332325
345 0.36516
350 0.23971
355 0.361129
360 0.326028
365 0.282354
370 0.234259
375 0.336139
380 0.287244
385 0.29436
390 0.27363
395 0.242365
400 0.230727
405 0.404929
410 0.281982
415 0.340162
420 0.297811
425 0.188105
430 0.362673
435 0.231958
440 0.204361
445 0.303274
450 0.280597
455 0.347334
460 0.260583
465 0.294888
470 0.321828
475 0.27154
480 0.347543
485 0.315202
490 0.436423
495 0.4274
500 0.270597
505 0.307835
510 0.284952
515 0.233777
520 0.285706
525 0.322733
530 0.303844
535 0.213039
540 0.280009
545 0.265776
550 0.343041
555 0.346653
560 0.367897
565 0.464189
570 0.405205
575 0.379976
580 4.28256
585 82.2711
590 145.652
595 43.3733
600 6.46158
Ex : 598
200 0.248701
205 0.380561
210 0.255549
215 0.2898
220 0.277639
225 0.249747
230 0.26496
235 0.217237
240 0.191326
245 0.163585
250 0.233008
255 0.239535
260 0.247267
265 0.276695
270 0.291504
275 0.432041
280 0.277642
285 0.290942
290 0.371991
295 0.300305
300 0.279433
305 0.307739
310 0.237654
315 0.294192
320 0.270604
325 0.306398
330 0.301125
335 0.19998
340 0.297626
345 0.296097
350 0.194667
355 0.314918
360 0.359708
365 0.375519
370 0.324675
375 0.306473
380 0.314548
385 0.437972
390 0.262005
395 0.333986
400 0.272478
405 0.266597
410 0.284203
415 0.336397
420 0.367624
425 0.348531
430 0.323919
435 0.36238
440 0.346636
445 0.271547
450 0.33608
455 0.237444
460 0.353924
465 0.284686
470 0.427968
475 0.330071
480 0.228797
485 0.309053
490 0.243099
495 0.319691
500 0.226538
505 0.299455
510 0.302003
515 0.304432
520 0.262623
525 0.366484
530 0.394722
535 0.354449
540 0.266633
545 0.329586
550 0.337221
555 0.408633
560 0.396033
565 0.364327
570 0.344734
575 0.372954
580 0.439009
585 3.77456
590 71.5138
595 133.745
600 93.0228
Ex : 603
200 0.285571
205 0.274612
210 0.312638
215 0.276434
220 0.272124
225 0.232929
230 0.29991
235 0.317181
240 0.245148
245 0.255087
250 0.260281
255 0.391375
260 0.305196
265 0.283317
270 0.305389
275 0.231706
280 0.189883
285 0.343913
290 0.250911
295 0.241507
300 0.233055
305 0.296943
310 0.288891
315 0.343698
320 0.310936
325 0.282279
330 0.324813
335 0.343609
340 0.253803
345 0.187898
350 0.337704
355 0.370151
360 0.27572
365 0.258429
370 0.274082
375 0.303854
380 0.258064
385 0.351737
390 0.351782
395 0.332984
400 0.389541
405 0.282584
410 0.446234
415 0.469454
420 0.330741
425 0.356972
430 0.335782
435 0.412546
440 0.288198
445 0.30462
450 0.321192
455 0.339353
460 0.343104
465 0.326081
470 0.439894
475 0.314396
480 0.234063
485 0.361008
490 0.307229
495 0.40777
500 0.360845
505 0.224292
510 0.372276
515 0.267897
520 0.287302
525 0.34231
530 0.285231
535 0.312631
540 0.422586
545 0.262012
550 0.25719
555 0.394375
560 0.437833
565 0.404126
570 0.368814
575 0.374095
580 0.405035
585 0.469538
590 3.2116
595 65.3509
600 158.283
