File format V 1.0
ven. 13. janv. 14:32:35 2017
Operator : 
Comments : 

=============================================
SpectroFluorometer parameters
Mode : 3D measurement
Data : Fluorescence
Phospho. : Ordinary
Spectrum : Fluorescence

Scan speed : 2400 nm/mn
Response : 100 ms
PM Voltage : 700 V
Shutter : On

Lambda Ex. Start : 203
Lambda Ex. End : 603
Lambda Ex. Step : 5
Ex. Slit : 5 nm

Lambda Em. Start : 200
Lambda Em. End : 600
Lambda Em. Step : 5
Em. Slit : 5 nm

Repetition : 1
Decal lambda em : 10
=============================================
DATA
Ex : 203
200 6.93333
205 8.04453
210 5.48345
215 5.42186
220 5.27808
225 4.96719
230 5.86186
235 4.27428
240 7.06844
245 5.31594
250 6.89107
255 5.93847
260 4.69651
265 8.87164
270 4.82738
275 6.24943
280 6.53083
285 4.92944
290 5.62436
295 6.17012
300 6.08562
305 5.40219
310 5.53231
315 8.23063
320 8.08449
325 5.94452
330 10.2575
335 5.45748
340 6.30612
345 9.19118
350 9.45383
355 6.98528
360 6.99832
365 4.40331
370 5.80605
375 4.9455
380 8.72254
385 7.19178
390 5.94601
395 7.14995
400 4.92664
405 5.17779
410 7.87895
415 6.70518
420 5.86081
425 5.59797
430 7.98341
435 8.05297
440 6.08083
445 6.46546
450 6.82429
455 5.93267
460 7.20709
465 5.83364
470 6.69603
475 3.91195
480 4.49925
485 5.80739
490 7.02742
495 7.41551
500 7.65409
505 6.05777
510 5.22029
515 4.5447
520 6.02704
525 11.7739
530 7.71286
535 4.91913
540 6.79061
545 6.19192
550 10.9066
555 4.72294
560 5.70287
565 5.6859
570 7.66577
575 8.9805
580 7.88058
585 13.2862
590 4.30182
595 5.78119
600 25.0285
Ex : 208
200 6.06046
205 5.08233
210 6.49481
215 6.44478
220 6.26204
225 5.48758
230 4.65101
235 3.36109
240 5.20043
245 5.22869
250 7.25681
255 7.45979
260 12.3528
265 4.68763
270 6.54131
275 5.88522
280 8.08049
285 6.17577
290 6.53876
295 7.40111
300 5.66758
305 3.37375
310 6.62193
315 5.65536
320 6.68814
325 8.51955
330 6.98563
335 6.44501
340 8.01477
345 10.0365
350 6.11985
355 7.00289
360 11.0872
365 8.3991
370 5.8176
375 6.5647
380 6.5848
385 4.61867
390 6.16844
395 4.47452
400 8.99852
405 4.6219
410 4.60584
415 6.96055
420 6.72656
425 6.74208
430 6.49379
435 6.86397
440 9.24331
445 7.33023
450 7.23278
455 6.63978
460 5.81781
465 4.55197
470 6.53242
475 7.25181
480 9.65773
485 7.02814
490 4.19689
495 5.76662
500 8.0937
505 6.32339
510 4.64659
515 5.8764
520 7.56626
525 6.57638
530 6.32771
535 6.78001
540 6.4637
545 5.25563
550 3.92855
555 5.57817
560 5.65102
565 6.52283
570 5.40961
575 5.90785
580 6.74068
585 5.1635
590 5.23563
595 6.18291
600 13.7751
Ex : 213
200 4.78378
205 5.15008
210 6.20141
215 4.51234
220 8.17528
225 5.02901
230 8.49674
235 6.73324
240 5.5466
245 5.76957
250 6.07703
255 7.12967
260 6.61618
265 4.7244
270 9.03426
275 8.95326
280 8.01986
285 6.77165
290 4.43245
295 6.34726
300 5.76012
305 5.98135
310 7.81627
315 5.27125
320 5.23474
325 4.55407
330 8.34297
335 5.44064
340 6.68146
345 7.08975
350 6.41411
355 7.38061
360 7.30666
365 8.77354
370 6.29979
375 8.32831
380 6.27743
385 7.3649
390 7.67327
395 7.34774
400 4.89825
405 6.32641
410 9.18174
415 6.17132
420 7.19026
425 6.42943
430 4.8546
435 8.70802
440 6.62289
445 7.15449
450 6.18813
455 6.57133
460 5.45243
465 11.0449
470 10.1062
475 6.32514
480 5.3092
485 5.55771
490 5.57549
495 7.68985
500 7.7646
505 9.93643
510 6.71749
515 6.42628
520 4.10124
525 4.11041
530 5.66976
535 6.96512
540 4.722
545 7.06157
550 7.92154
555 7.67345
560 6.34897
565 7.61474
570 5.28546
575 7.67884
580 6.20395
585 4.1878
590 7.29942
595 9.14041
600 25.8538
Ex : 218
200 6.09589
205 7.81645
210 5.55011
215 7.36205
220 5.17399
225 4.37075
230 5.66617
235 5.78141
240 6.54541
245 4.97627
250 6.65842
255 4.9692
260 7.0339
265 7.25885
270 6.7892
275 6.82409
280 5.671
285 8.62117
290 8.03234
295 5.33259
300 5.81932
305 4.99624
310 6.3201
315 5.46877
320 4.74546
325 7.19065
330 8.83882
335 6.23754
340 4.87623
345 5.2449
350 5.6037
355 5.67696
360 5.10869
365 5.76442
370 5.35327
375 5.81368
380 8.79777
385 7.94932
390 10.7875
395 7.38222
400 7.72829
405 6.11154
410 7.07297
415 6.74766
420 5.65417
425 6.89056
430 5.63532
435 4.80527
440 6.86152
445 5.43549
450 8.82801
455 6.13163
460 5.48491
465 8.24551
470 10.0984
475 7.70207
480 6.3693
485 7.19935
490 6.93242
495 7.25273
500 8.37802
505 7.5355
510 7.40371
515 6.4272
520 8.62261
525 6.13433
530 5.6608
535 6.65975
540 7.6679
545 7.52755
550 6.19789
555 6.51117
560 7.1732
565 6.42891
570 6.06507
575 5.22898
580 6.81131
585 7.32566
590 5.48299
595 5.90014
600 0.819114
Ex : 223
200 6.26457
205 7.32502
210 6.7646
215 5.469
220 7.43453
225 4.99909
230 4.88912
235 4.99149
240 5.45273
245 5.19588
250 5.62108
255 7.04307
260 6.61192
265 5.9239
270 8.75158
275 9.34029
280 6.66611
285 5.78718
290 7.27315
295 6.74945
300 7.42272
305 4.93303
310 6.61848
315 4.48146
320 8.63284
325 9.81145
330 7.38777
335 7.22875
340 5.10936
345 8.84018
350 6.03431
355 8.4941
360 4.67077
365 6.96377
370 7.14292
375 3.83815
380 5.47349
385 4.56454
390 8.68665
395 11.0058
400 6.66104
405 7.0477
410 8.83909
415 7.29199
420 6.06381
425 7.40395
430 5.77643
435 6.727
440 4.58021
445 7.19837
450 5.99752
455 4.98161
460 5.60161
465 7.04939
470 5.61067
475 4.79995
480 7.36286
485 6.86644
490 10.6722
495 6.38594
500 5.67399
505 3.37939
510 4.17577
515 4.6108
520 6.44199
525 8.6037
530 11.1684
535 6.0208
540 6.39008
545 5.73544
550 6.84088
555 4.77251
560 5.8523
565 6.56218
570 4.7487
575 6.35993
580 8.57179
585 5.76094
590 6.1282
595 7.09949
600 1.87134
Ex : 228
200 5.70539
205 5.98162
210 8.149
215 5.98098
220 5.144
225 3.42813
230 5.12615
235 6.17874
240 3.37596
245 5.81362
250 9.52361
255 5.13984
260 5.98997
265 5.552
270 6.37408
275 5.23693
280 5.52866
285 5.58561
290 7.88493
295 6.09686
300 7.4652
305 4.86595
310 4.45226
315 5.35682
320 5.29924
325 5.30504
330 8.66815
335 6.74489
340 5.33094
345 4.18228
350 5.86825
355 9.10413
360 4.30265
365 5.20243
370 5.93187
375 6.73913
380 6.31243
385 5.39764
390 5.90063
395 5.39138
400 6.21699
405 6.00063
410 5.55141
415 6.55684
420 8.68259
425 9.2002
430 5.45027
435 7.70591
440 5.23584
445 6.02527
450 6.26068
455 7.36304
460 5.79091
465 9.47246
470 6.54945
475 6.2366
480 7.16416
485 7.41728
490 6.21476
495 7.1702
500 7.77358
505 6.72836
510 6.89269
515 5.17546
520 7.3707
525 5.61374
530 8.0757
535 5.57733
540 6.82192
545 4.17712
550 6.0695
555 5.90277
560 7.63696
565 7.25848
570 4.83743
575 4.20506
580 6.03231
585 6.32669
590 6.44863
595 5.81886
600 8.99248
Ex : 233
200 5.18852
205 6.25475
210 6.58814
215 5.58129
220 4.17256
225 6.97598
230 4.28883
235 4.31517
240 3.56775
245 5.04236
250 5.29293
255 4.30601
260 5.69148
265 6.55324
270 5.65709
275 8.48101
280 5.45367
285 5.4384
290 4.73312
295 5.98138
300 5.79449
305 4.67043
310 5.2542
315 6.44029
320 5.6834
325 5.39118
330 6.62996
335 5.74401
340 4.28178
345 4.59215
350 7.96743
355 5.90334
360 5.09538
365 4.82546
370 5.92469
375 5.93093
380 5.99917
385 7.4782
390 6.86729
395 5.01226
400 5.07229
405 4.94384
410 4.31614
415 6.8265
420 6.87579
425 6.01578
430 7.81926
435 6.11733
440 6.78333
445 4.00546
450 5.3812
455 4.29649
460 5.35553
465 3.7832
470 4.38889
475 4.38101
480 5.66806
485 4.21421
490 6.12911
495 6.75749
500 5.48213
505 5.66319
510 7.32367
515 5.6579
520 4.12275
525 5.16275
530 5.21746
535 5.86072
540 4.68414
545 6.81898
550 7.00765
555 3.4707
560 7.25292
565 4.32797
570 4.11117
575 7.44758
580 4.2086
585 5.28157
590 3.39092
595 5.21834
600 0.593827
Ex : 238
200 3.17582
205 5.49275
210 4.83116
215 5.85021
220 4.01214
225 4.38258
230 4.42621
235 4.65714
240 7.08405
245 5.25024
250 5.29105
255 4.70751
260 3.38974
265 4.86305
270 4.91274
275 5.59812
280 5.04551
285 3.50992
290 4.84051
295 6.79564
300 4.23484
305 6.28511
310 6.76246
315 4.39845
320 5.71749
325 3.82564
330 5.72022
335 3.9951
340 6.06837
345 4.19173
350 3.34896
355 4.97266
360 4.01407
365 6.32372
370 4.42804
375 8.22698
380 3.53369
385 7.62538
390 3.75452
395 6.04994
400 4.71248
405 7.42011
410 6.00016
415 5.39034
420 4.60808
425 6.1681
430 4.28831
435 4.5934
440 4.67282
445 5.87186
450 5.9259
455 6.73064
460 6.23973
465 6.45577
470 5.49673
475 4.55149
480 4.51909
485 4.00694
490 4.57947
495 6.12711
500 6.55932
505 6.27711
510 4.45978
515 6.16041
520 4.79846
525 5.48298
530 5.21378
535 5.70411
540 4.36544
545 5.67247
550 7.46054
555 5.85944
560 4.36258
565 4.24074
570 4.69957
575 4.02486
580 6.1115
585 4.94602
590 4.5239
595 5.72379
600 3.66444
Ex : 243
200 3.06419
205 4.77667
210 4.27893
215 3.08799
220 4.78536
225 4.28729
230 3.7741
235 4.19584
240 4.4538
245 4.68019
250 2.88602
255 5.89001
260 3.25248
265 3.89169
270 4.84106
275 4.24291
280 6.57548
285 5.60661
290 3.59793
295 5.65982
300 5.84255
305 5.68273
310 3.76866
315 4.42829
320 4.28526
325 3.8482
330 4.94548
335 3.87514
340 4.15012
345 3.97829
350 6.45095
355 4.15899
360 4.58671
365 4.64448
370 3.84304
375 3.29025
380 5.64422
385 5.29108
390 5.55546
395 5.26369
400 5.63727
405 4.55019
410 6.30144
415 4.50677
420 8.94486
425 5.59409
430 3.5569
435 4.95022
440 5.41071
445 4.03263
450 3.95122
455 5.80565
460 4.40578
465 4.72693
470 5.19121
475 5.16644
480 5.50738
485 4.88109
490 4.90221
495 5.18377
500 5.06849
505 4.88924
510 5.20522
515 3.66293
520 3.53341
525 2.9214
530 6.09129
535 5.44089
540 4.96479
545 6.8701
550 5.16374
555 6.04118
560 6.00167
565 3.74596
570 3.72175
575 3.5955
580 6.04729
585 4.24736
590 3.74411
595 4.74414
600 3.88775
Ex : 248
200 2.79714
205 3.81129
210 4.22069
215 3.56308
220 5.06943
225 3.09487
230 2.33311
235 5.27164
240 4.78198
245 4.3929
250 3.36478
255 4.22137
260 2.70854
265 3.69096
270 3.08899
275 3.31627
280 4.8781
285 3.14262
290 2.91605
295 5.22545
300 4.10586
305 2.54355
310 3.5328
315 4.46783
320 5.54402
325 2.97463
330 3.5582
335 5.42072
340 3.15114
345 3.14664
350 4.01903
355 4.2008
360 4.56542
365 4.82922
370 5.65974
375 4.14007
380 4.27024
385 4.81133
390 4.01247
395 5.48102
400 3.25894
405 4.76378
410 4.10706
415 3.31442
420 5.35555
425 4.3904
430 4.66528
435 4.15507
440 5.63366
445 4.50422
450 4.71629
455 4.84149
460 3.48264
465 3.85709
470 3.85016
475 3.75097
480 6.48437
485 6.60165
490 4.0764
495 4.79588
500 4.28451
505 4.16047
510 5.48517
515 3.25479
520 6.11658
525 4.68775
530 4.59587
535 3.77985
540 3.9433
545 2.96728
550 5.77854
555 4.36258
560 3.65663
565 3.71735
570 3.53357
575 4.80809
580 4.85574
585 4.87443
590 4.60161
595 3.94946
600 0.449433
Ex : 253
200 3.00477
205 2.77845
210 3.29959
215 2.95353
220 2.52972
225 3.82147
230 2.51968
235 2.70153
240 2.71377
245 2.80457
250 3.63176
255 2.59605
260 3.0767
265 4.53497
270 3.21876
275 2.44306
280 2.97779
285 3.51099
290 2.86688
295 2.48461
300 2.32078
305 3.06529
310 2.3781
315 3.39902
320 3.88308
325 4.56881
330 2.76109
335 2.97281
340 3.50669
345 3.37972
350 3.5539
355 2.50728
360 3.0104
365 3.16391
370 3.50223
375 2.34471
380 2.50057
385 2.81626
390 1.94888
395 3.57013
400 4.26518
405 4.31896
410 3.06475
415 3.1427
420 3.88139
425 4.9436
430 3.28984
435 3.54886
440 3.78223
445 3.73629
450 3.29169
455 4.43831
460 3.8332
465 2.99924
470 3.26556
475 3.81087
480 3.89912
485 3.09118
490 3.42292
495 4.6596
500 3.39287
505 3.01213
510 3.56086
515 3.68656
520 4.01944
525 3.28635
530 2.9063
535 2.8512
540 3.61854
545 3.03859
550 3.90143
555 3.15445
560 4.00881
565 2.99415
570 2.50152
575 3.02121
580 2.92378
585 3.37513
590 3.06233
595 3.35685
600 0.381997
Ex : 258
200 2.46911
205 2.8196
210 2.62568
215 2.76145
220 2.1599
225 2.30429
230 2.98541
235 3.08372
240 3.05924
245 2.81386
250 4.01984
255 2.07633
260 2.50873
265 3.59841
270 2.65372
275 2.75228
280 3.05802
285 1.93401
290 2.38443
295 1.61391
300 2.32873
305 2.61766
310 3.12995
315 1.8662
320 2.47323
325 3.4462
330 2.97212
335 2.29433
340 2.22553
345 2.37146
350 1.64285
355 2.28649
360 2.22914
365 3.32035
370 3.12177
375 3.13627
380 2.91167
385 3.00577
390 3.13713
395 2.63281
400 2.8492
405 4.2327
410 3.43685
415 3.03752
420 3.41702
425 2.70311
430 2.16282
435 2.35511
440 2.08658
445 3.26865
450 3.16457
455 4.23854
460 2.18684
465 3.78314
470 2.6982
475 2.27187
480 2.35367
485 2.40161
490 3.20124
495 2.30455
500 3.49751
505 5.33872
510 4.51756
515 2.73134
520 4.14628
525 3.51099
530 3.61929
535 3.30359
540 2.53849
545 2.30997
550 2.20961
555 2.15924
560 2.26174
565 3.04953
570 2.02175
575 3.29756
580 2.65969
585 3.72591
590 2.08957
595 3.03596
600 0.34548
Ex : 263
200 2.03583
205 1.20443
210 1.83343
215 2.03276
220 1.60142
225 3.08228
230 3.12582
235 1.61233
240 1.89338
245 2.15235
250 1.16597
255 2.46687
260 2.20036
265 1.93726
270 2.80649
275 2.2356
280 2.09986
285 1.8245
290 2.83792
295 2.20595
300 2.07104
305 2.32907
310 2.16686
315 2.10019
320 1.67473
325 1.58318
330 1.50393
335 2.39084
340 2.45019
345 2.64617
350 2.27976
355 3.38712
360 2.48515
365 2.04708
370 2.44274
375 2.57475
380 1.94399
385 3.55188
390 3.23414
395 1.92825
400 2.80653
405 2.76765
410 3.65651
415 2.28172
420 2.85042
425 2.24259
430 2.10855
435 1.67677
440 2.36271
445 3.40588
450 2.45492
455 2.6421
460 2.21322
465 2.34484
470 2.84917
475 3.43716
480 3.24904
485 2.23439
490 2.48655
495 2.34746
500 1.10691
505 2.00863
510 2.16582
515 2.53455
520 2.08591
525 3.00409
530 2.1998
535 2.0032
540 2.38218
545 2.05045
550 2.08643
555 0.945017
560 2.69841
565 1.93482
570 1.6684
575 2.10858
580 2.09153
585 2.00202
590 2.57563
595 1.67788
600 1.66794
Ex : 268
200 1.3602
205 1.73793
210 1.63315
215 1.0447
220 1.36897
225 1.26326
230 1.28622
235 1.22815
240 1.70384
245 2.15933
250 1.62524
255 1.77166
260 1.58236
265 2.08319
270 1.33786
275 2.6367
280 2.01315
285 1.74845
290 2.19986
295 1.06097
300 2.31379
305 1.77466
310 1.36772
315 1.86632
320 1.63754
325 1.29052
330 1.69687
335 2.06077
340 1.77429
345 2.25482
350 1.64586
355 1.54975
360 1.52507
365 1.65201
370 1.67511
375 1.74699
380 2.28913
385 2.05605
390 1.24268
395 1.61879
400 2.12431
405 1.95772
410 1.88455
415 2.54616
420 2.32376
425 1.50269
430 2.11464
435 3.60353
440 1.87753
445 1.82857
450 2.07224
455 1.77376
460 1.94446
465 2.1567
470 2.75432
475 1.58782
480 1.43286
485 1.88172
490 1.91426
495 1.91795
500 1.85332
505 2.04276
510 1.80744
515 2.7106
520 1.71143
525 1.8866
530 1.96793
535 2.06853
540 1.9657
545 1.38257
550 1.26452
555 1.80909
560 1.43769
565 2.29049
570 1.38722
575 1.73173
580 2.15344
585 1.93095
590 1.32027
595 1.48352
600 5.39742
Ex : 273
200 1.17286
205 1.44276
210 1.40864
215 1.01155
220 0.985973
225 1.11981
230 1.80298
235 1.4041
240 1.40298
245 2.08217
250 1.44287
255 1.37633
260 1.39586
265 1.40543
270 1.44321
275 1.31648
280 1.37163
285 1.57528
290 1.31153
295 1.2746
300 1.35025
305 1.38281
310 1.23606
315 1.01157
320 1.11209
325 1.15476
330 2.18376
335 1.64546
340 1.22401
345 2.20293
350 2.15472
355 1.75954
360 1.12188
365 1.29211
370 2.22453
375 1.57302
380 1.14944
385 1.81782
390 1.55629
395 1.70374
400 1.92202
405 1.92213
410 1.8282
415 1.99028
420 1.83898
425 1.548
430 1.70529
435 1.7184
440 1.52172
445 1.27824
450 1.50209
455 1.57011
460 1.21153
465 1.48024
470 1.49188
475 1.80031
480 1.83878
485 1.68389
490 1.47684
495 1.4704
500 1.57131
505 1.42566
510 1.15569
515 1.31282
520 1.23204
525 1.19915
530 1.70873
535 1.51398
540 1.92599
545 1.9325
550 2.07329
555 1.65241
560 1.72171
565 1.57358
570 1.5387
575 1.18829
580 1.37875
585 1.27162
590 1.78356
595 1.22613
600 2.29724
Ex : 278
200 1.15583
205 0.84498
210 0.598877
215 0.873588
220 1.25713
225 1.05594
230 1.01898
235 1.29881
240 0.833367
245 1.29912
250 0.936231
255 1.04781
260 1.52185
265 1.45164
270 1.07515
275 1.47772
280 1.08189
285 1.67286
290 0.949015
295 1.31564
300 1.34805
305 1.24979
310 1.19422
315 1.36232
320 1.03152
325 1.29448
330 1.49321
335 1.48729
340 1.50451
345 1.36598
350 1.1734
355 1.29966
360 1.32751
365 1.24539
370 0.82866
375 1.08278
380 1.20693
385 0.898532
390 1.22128
395 1.65945
400 1.54499
405 1.4183
410 1.50534
415 1.58582
420 1.37769
425 1.28969
430 1.78026
435 1.52562
440 1.24518
445 1.21675
450 1.73155
455 1.56352
460 1.284
465 1.72011
470 1.58089
475 1.57797
480 1.05377
485 1.3281
490 1.34274
495 1.38486
500 1.3075
505 1.53228
510 1.10007
515 1.12161
520 1.18014
525 0.863018
530 0.993326
535 1.53216
540 1.54575
545 2.51595
550 1.75643
555 1.20958
560 1.23615
565 1.29799
570 1.59106
575 0.992671
580 0.984347
585 1.49189
590 1.20579
595 1.01673
600 0.499722
Ex : 283
200 0.804844
205 0.579741
210 0.698711
215 0.918029
220 0.568021
225 0.996051
230 1.00454
235 1.18878
240 1.08234
245 1.18315
250 0.968748
255 0.837971
260 1.63465
265 1.08709
270 1.03549
275 0.950891
280 1.05621
285 0.749831
290 1.21743
295 0.962813
300 0.965231
305 0.868386
310 0.66062
315 0.746956
320 1.10355
325 1.02544
330 1.10979
335 1.12081
340 1.25265
345 0.897324
350 0.91582
355 0.835865
360 0.903434
365 1.43708
370 1.16321
375 1.60547
380 1.28521
385 1.37872
390 1.46434
395 1.25533
400 1.3383
405 1.10258
410 1.21278
415 1.0975
420 0.857939
425 1.18402
430 1.43057
435 1.53042
440 1.63258
445 1.36286
450 1.07842
455 1.35191
460 1.33298
465 1.55346
470 1.08586
475 1.40922
480 1.3062
485 1.07875
490 1.00343
495 1.13129
500 1.35889
505 1.13147
510 0.963121
515 0.862106
520 0.977529
525 1.4752
530 0.935415
535 0.957055
540 1.44497
545 0.759162
550 1.12379
555 0.952906
560 1.29621
565 1.34576
570 1.32939
575 1.10087
580 1.32926
585 0.838826
590 0.730823
595 0.979919
600 0.111511
Ex : 288
200 0.567552
205 0.709708
210 0.756383
215 0.741926
220 0.865341
225 0.589095
230 0.885795
235 0.782455
240 0.579259
245 0.524175
250 0.596978
255 1.00111
260 0.806866
265 0.724306
270 0.838045
275 0.850852
280 0.790085
285 0.81011
290 0.760225
295 0.729665
300 0.671099
305 0.621327
310 0.853706
315 0.781615
320 0.829911
325 1.04881
330 0.811747
335 0.99366
340 0.756088
345 0.774449
350 0.765387
355 0.919246
360 0.924899
365 1.28171
370 1.0626
375 1.33836
380 1.31245
385 1.76768
390 1.10352
395 0.923364
400 1.05857
405 0.722186
410 1.00638
415 1.11556
420 1.13082
425 1.2689
430 1.13672
435 1.35195
440 0.945577
445 0.867501
450 0.908829
455 1.49507
460 1.21938
465 0.834282
470 1.02088
475 0.991505
480 0.708787
485 0.918373
490 1.0701
495 0.784235
500 1.09884
505 0.771663
510 1.09522
515 0.965494
520 0.860775
525 0.654831
530 1.08843
535 0.654351
540 1.20655
545 0.979735
550 0.580838
555 0.651404
560 0.789907
565 1.11709
570 1.04988
575 1.23188
580 0.855509
585 0.926233
590 1.15883
595 0.69449
600 1.51384
Ex : 293
200 0.727857
205 0.430963
210 0.494355
215 0.515064
220 0.683829
225 0.526679
230 0.770502
235 0.696475
240 0.618418
245 0.598722
250 0.465894
255 0.495457
260 0.434548
265 0.603493
270 0.664784
275 0.857413
280 0.958074
285 0.767906
290 0.863088
295 0.995548
300 0.636593
305 0.810799
310 0.596516
315 0.99246
320 0.623887
325 0.663719
330 0.871322
335 0.649149
340 0.496358
345 1.00325
350 0.889264
355 0.762198
360 0.848729
365 0.978836
370 0.945201
375 0.744712
380 0.839891
385 0.97469
390 0.855204
395 1.22937
400 0.869192
405 0.793443
410 0.942019
415 1.12957
420 1.22522
425 1.03807
430 1.18398
435 0.966787
440 1.16567
445 1.16788
450 1.18443
455 0.903327
460 0.891217
465 0.741722
470 0.658732
475 1.1916
480 1.08289
485 1.23186
490 1.05232
495 1.19755
500 0.796845
505 0.887732
510 0.783601
515 0.88981
520 0.868946
525 0.619401
530 0.942015
535 1.01948
540 0.694958
545 0.889491
550 0.769845
555 0.651273
560 1.18165
565 0.768929
570 0.564824
575 1.12525
580 1.09474
585 1.12921
590 0.568961
595 0.565566
600 0.715448
Ex : 298
200 0.751386
205 0.489752
210 0.64692
215 0.650609
220 0.53963
225 0.528769
230 0.787175
235 0.471202
240 0.389555
245 0.504547
250 0.941703
255 0.790509
260 0.469045
265 0.645077
270 0.460406
275 0.531545
280 0.43019
285 0.844558
290 0.812481
295 0.854585
300 0.794621
305 0.545932
310 0.702376
315 0.498179
320 0.529589
325 0.526105
330 0.636458
335 0.431156
340 0.820011
345 0.630759
350 0.517946
355 0.560551
360 0.78121
365 1.04803
370 0.924519
375 1.0903
380 1.24939
385 0.764347
390 0.862841
395 0.79303
400 1.03229
405 1.39661
410 1.12747
415 0.963371
420 1.3852
425 1.05726
430 1.17059
435 0.955078
440 0.894802
445 1.11232
450 0.913591
455 0.888282
460 0.831349
465 1.02175
470 0.74045
475 0.651782
480 0.815993
485 0.751289
490 0.7353
495 0.704863
500 0.843981
505 0.959611
510 0.690639
515 0.590697
520 0.646778
525 0.596511
530 0.7379
535 0.702198
540 0.582753
545 0.780672
550 0.644819
555 0.645271
560 0.469615
565 0.666966
570 0.664783
575 0.478435
580 0.882877
585 0.934951
590 1.15991
595 0.954351
600 0.108602
Ex : 303
200 0.595975
205 0.629999
210 0.441667
215 0.44201
220 0.486748
225 0.472701
230 0.44937
235 0.501251
240 0.52069
245 0.426317
250 0.636752
255 0.403188
260 0.710701
265 0.503996
270 0.421365
275 0.495211
280 0.441879
285 0.425823
290 0.553045
295 0.74491
300 0.876518
305 0.673013
310 0.465816
315 0.385125
320 0.474744
325 0.636482
330 0.657855
335 0.375621
340 0.471683
345 0.669329
350 0.65757
355 0.616101
360 0.638206
365 0.559314
370 0.502412
375 0.900253
380 1.01858
385 0.940503
390 0.828073
395 1.01837
400 0.81028
405 0.866037
410 1.21367
415 0.885342
420 0.858117
425 0.911477
430 0.800981
435 0.800648
440 0.962334
445 1.04952
450 0.679016
455 0.814712
460 0.969916
465 0.772933
470 0.954325
475 0.529722
480 0.609472
485 0.699627
490 0.847524
495 0.712702
500 0.572844
505 0.431628
510 0.445102
515 0.522373
520 0.567757
525 0.553526
530 0.434558
535 0.642598
540 0.863186
545 0.57656
550 0.491483
555 0.573801
560 0.495786
565 0.625786
570 0.486515
575 0.612111
580 0.45737
585 0.398372
590 0.569014
595 0.731588
600 1.76022
Ex : 308
200 0.538232
205 0.646219
210 0.602037
215 0.478386
220 0.424279
225 0.47842
230 0.4015
235 0.413917
240 0.341918
245 0.266396
250 0.504691
255 0.694079
260 0.638321
265 0.310358
270 0.571905
275 0.571693
280 0.397933
285 0.419242
290 0.509205
295 0.475328
300 0.60359
305 0.787206
310 0.511304
315 0.491647
320 0.435452
325 0.393189
330 0.53532
335 0.51228
340 0.749464
345 0.722053
350 0.598337
355 0.565586
360 0.615576
365 0.556888
370 0.7531
375 0.55895
380 0.764695
385 0.858921
390 0.948952
395 0.91344
400 0.719973
405 0.826424
410 0.867072
415 0.863523
420 0.958473
425 1.07866
430 1.07619
435 1.02799
440 0.839852
445 1.03915
450 0.709741
455 0.904594
460 0.662585
465 0.559156
470 0.713786
475 0.763012
480 0.782393
485 0.897017
490 0.554138
495 0.700411
500 0.49502
505 0.560268
510 0.516379
515 0.398459
520 0.404727
525 0.523447
530 0.510421
535 0.490064
540 0.643138
545 0.511141
550 0.413761
555 0.531059
560 0.546425
565 0.518975
570 0.435723
575 0.379122
580 0.552107
585 0.669518
590 0.495185
595 0.519332
600 0.059098
Ex : 313
200 0.438257
205 0.364034
210 0.475684
215 0.612178
220 0.326479
225 0.430307
230 0.442463
235 0.372251
240 0.336311
245 0.245489
250 0.280063
255 0.299306
260 0.358237
265 0.546576
270 0.425624
275 0.499522
280 0.417735
285 0.309018
290 0.735276
295 0.426098
300 0.488627
305 0.637118
310 0.656526
315 0.466038
320 0.603252
325 0.360346
330 0.511163
335 0.518911
340 0.511337
345 0.531071
350 0.476924
355 0.498151
360 0.655662
365 0.777087
370 0.771652
375 0.96424
380 1.13491
385 1.2723
390 0.997628
395 1.02009
400 1.04431
405 1.5471
410 1.01684
415 0.998827
420 1.21876
425 1.24124
430 1.50741
435 1.29519
440 1.05518
445 1.01635
450 1.14379
455 0.933369
460 1.03704
465 0.947232
470 0.909803
475 0.773978
480 0.807781
485 0.782996
490 0.654626
495 0.468505
500 0.631005
505 0.689636
510 0.546175
515 0.444527
520 0.623071
525 0.479054
530 0.558349
535 0.549984
540 0.482204
545 0.414458
550 0.37634
555 0.426796
560 0.417777
565 0.329468
570 0.461543
575 0.452684
580 0.313692
585 0.483844
590 0.57501
595 0.391971
600 0.0446048
Ex : 318
200 0.400257
205 0.455751
210 0.234405
215 0.352698
220 0.286367
225 0.359205
230 0.37965
235 0.358682
240 0.410393
245 0.336493
250 0.454298
255 0.266423
260 0.519329
265 0.317497
270 0.430948
275 0.423541
280 0.436329
285 0.256954
290 0.402755
295 0.334277
300 0.336434
305 0.352197
310 0.592057
315 0.953116
320 0.446834
325 0.329067
330 0.56165
335 0.731674
340 1.08308
345 1.45843
350 1.70204
355 2.56526
360 2.97573
365 3.52314
370 4.44979
375 5.50826
380 5.84529
385 6.49605
390 7.48434
395 7.60916
400 7.60965
405 8.06521
410 8.12346
415 8.21866
420 7.95052
425 7.97764
430 7.8591
435 7.18173
440 7.42018
445 7.08127
450 6.74254
455 6.26238
460 5.60346
465 5.29853
470 5.06649
475 4.7615
480 3.73227
485 3.47962
490 3.52917
495 3.14999
500 2.70374
505 2.51455
510 2.085
515 2.12485
520 1.7239
525 1.39119
530 1.24947
535 1.01919
540 0.84866
545 1.0264
550 0.751748
555 0.602498
560 0.602212
565 0.53969
570 0.831565
575 0.547603
580 0.673379
585 0.563208
590 0.467536
595 0.499287
600 0.450685
Ex : 323
200 0.246097
205 0.356053
210 0.296573
215 0.265522
220 0.360815
225 0.297092
230 0.303333
235 0.259299
240 0.349219
245 0.303344
250 0.352033
255 0.253864
260 0.283019
265 0.290418
270 0.293516
275 0.346819
280 0.267675
285 0.286457
290 0.247528
295 0.296914
300 0.331306
305 0.385349
310 0.421024
315 2.23404
320 8.16465
325 4.07004
330 2.12143
335 2.50615
340 4.41161
345 6.18804
350 8.4849
355 11.2631
360 13.8335
365 15.9795
370 18.7692
375 22.488
380 25.4572
385 27.6558
390 30.1966
395 32.33
400 33.011
405 35.1022
410 34.8407
415 35.3883
420 34.821
425 34.4056
430 33.8626
435 31.488
440 31.4482
445 29.3774
450 27.6484
455 25.818
460 23.7856
465 22.9648
470 19.9538
475 19.4562
480 16.6792
485 14.8892
490 14.1247
495 12.2049
500 11.1573
505 9.4855
510 8.29382
515 7.48612
520 6.31231
525 5.41
530 5.3899
535 4.67469
540 3.89569
545 3.21275
550 2.59742
555 2.43843
560 1.923
565 1.54629
570 1.41168
575 1.21707
580 1.03515
585 0.820938
590 0.728089
595 0.556342
600 0.685356
Ex : 328
200 0.34891
205 0.300644
210 0.270076
215 0.264554
220 0.260068
225 0.382959
230 0.360067
235 0.277714
240 0.246553
245 0.262197
250 0.326229
255 0.223791
260 0.333615
265 0.458019
270 0.263033
275 0.359764
280 0.277593
285 0.245137
290 0.275936
295 0.225182
300 0.357535
305 0.353093
310 0.337064
315 0.712638
320 20.4448
325 48.7502
330 16.5573
335 5.48306
340 5.49798
345 7.27283
350 9.44872
355 13.3518
360 18.6361
365 20.4236
370 23.2932
375 25.5702
380 30.3057
385 33.0253
390 34.9474
395 37.825
400 40.0362
405 40.6075
410 41.546
415 40.1228
420 39.6597
425 38.5945
430 38.2683
435 37.2949
440 35.6239
445 33.8686
450 32.0766
455 30.0876
460 28.2068
465 25.7406
470 23.4355
475 22.4072
480 19.9147
485 19.2368
490 16.555
495 14.9052
500 13.4835
505 11.8205
510 10.2831
515 9.26706
520 8.0441
525 6.80015
530 6.51482
535 5.31092
540 4.6038
545 4.12179
550 3.8272
555 3.35904
560 2.81806
565 2.40795
570 1.85715
575 1.58917
580 1.21949
585 1.07499
590 1.11757
595 0.96359
600 0.965032
Ex : 333
200 0.340434
205 0.320398
210 0.269521
215 0.27981
220 0.242802
225 0.290378
230 0.250759
235 0.189494
240 0.256658
245 0.275346
250 0.284848
255 0.291594
260 0.246509
265 0.34628
270 0.275917
275 0.271819
280 0.403849
285 0.331301
290 0.318355
295 0.243615
300 0.297006
305 0.351012
310 0.288425
315 0.256311
320 3.25444
325 61.0747
330 107.071
335 29.9372
340 6.7811
345 5.84039
350 6.8296
355 7.67869
360 10.9603
365 15.7166
370 16.731
375 17.372
380 17.0736
385 17.925
390 20.4237
395 21.9002
400 23.2543
405 22.7088
410 23.0499
415 22.8879
420 22.9093
425 21.8746
430 21.9707
435 21.1526
440 20.3194
445 19.6278
450 19.1786
455 17.4586
460 16.6771
465 16.8205
470 15.3546
475 14.6485
480 13.8664
485 12.7878
490 11.5942
495 10.6642
500 9.27328
505 8.73491
510 8.02515
515 7.44086
520 6.36304
525 5.73885
530 5.37474
535 4.34103
540 3.86042
545 3.51459
550 3.27673
555 2.99659
560 2.35013
565 2.04103
570 1.84257
575 1.51541
580 1.23474
585 0.960937
590 0.951497
595 0.719266
600 0.171157
Ex : 338
200 0.280385
205 0.316587
210 0.251652
215 0.224993
220 0.330419
225 0.28988
230 0.301605
235 0.283518
240 0.312327
245 0.31711
250 0.21817
255 0.201913
260 0.375323
265 0.248911
270 0.181668
275 0.146024
280 0.239208
285 0.188335
290 0.282515
295 0.286512
300 0.22981
305 0.26491
310 0.267179
315 0.438629
320 0.366175
325 6.84018
330 93.3147
335 139.434
340 36.3724
345 6.89151
350 4.41565
355 4.27156
360 4.26151
365 6.30414
370 12.0651
375 12.2917
380 10.7392
385 9.9715
390 10.5233
395 10.8042
400 11.6708
405 11.8192
410 12.1176
415 11.7542
420 12.132
425 12.0306
430 11.636
435 11.0506
440 10.7228
445 10.6432
450 10.8348
455 10.7257
460 10.6379
465 10.5337
470 10.6381
475 9.83707
480 9.67
485 9.23162
490 9.14712
495 8.86848
500 8.09577
505 7.43499
510 6.97996
515 6.23965
520 5.50411
525 5.04742
530 4.49445
535 4.41399
540 4.01609
545 3.52125
550 3.24009
555 2.4162
560 2.68962
565 2.01501
570 1.76571
575 1.56874
580 1.13951
585 0.869892
590 0.817501
595 0.710476
600 0.170107
Ex : 343
200 0.235497
205 0.169003
210 0.178092
215 0.243894
220 0.239093
225 0.185156
230 0.257306
235 0.20312
240 0.222788
245 0.223638
250 0.208422
255 0.315369
260 0.219915
265 0.245023
270 0.212273
275 0.255857
280 0.214912
285 0.272423
290 0.231198
295 0.288242
300 0.239187
305 0.281485
310 0.279233
315 0.263365
320 0.263925
325 0.340571
330 7.27375
335 107.389
340 157.207
345 38.979
350 6.58848
355 3.56002
360 3.26986
365 2.76313
370 4.43189
375 8.41978
380 10.0177
385 7.74042
390 6.82728
395 7.11648
400 7.47997
405 7.5871
410 8.0696
415 8.17239
420 8.45492
425 8.57373
430 8.1386
435 8.08376
440 7.94673
445 8.88364
450 8.87254
455 9.42396
460 9.00048
465 9.47321
470 9.28334
475 9.35993
480 9.61914
485 9.50911
490 8.64541
495 8.88332
500 8.18171
505 7.65398
510 7.78552
515 6.66922
520 6.20546
525 5.59062
530 5.23694
535 4.8461
540 4.13212
545 3.65999
550 3.33562
555 3.09578
560 2.83126
565 2.37514
570 2.30247
575 1.74509
580 1.36625
585 0.97472
590 0.76116
595 0.663952
600 0.979483
Ex : 348
200 0.152646
205 0.248847
210 0.211007
215 0.191286
220 0.223331
225 0.203022
230 0.172822
235 0.224525
240 0.14564
245 0.153245
250 0.274686
255 0.24062
260 0.188439
265 0.227719
270 0.209405
275 0.223153
280 0.232166
285 0.191567
290 0.180456
295 0.176794
300 0.309038
305 0.260694
310 0.202074
315 0.264545
320 0.350158
325 0.31541
330 0.356052
335 7.27922
340 107.875
345 160.303
350 41.6756
355 6.40476
360 3.11896
365 2.6079
370 2.56798
375 3.27624
380 6.64568
385 9.09442
390 7.52398
395 6.3638
400 6.0242
405 5.98696
410 6.57285
415 7.02834
420 7.22183
425 7.25713
430 7.48217
435 7.26242
440 8.06138
445 7.98103
450 8.5653
455 9.61274
460 9.66858
465 9.85971
470 9.95751
475 10.7779
480 10.4624
485 10.3811
490 10.2704
495 10.3106
500 10.0342
505 9.42127
510 8.70613
515 7.77205
520 7.19602
525 6.47297
530 6.10593
535 5.72359
540 5.3528
545 4.72577
550 4.10735
555 3.66785
560 3.0875
565 2.79033
570 2.49717
575 2.02751
580 1.45813
585 1.40531
590 1.00044
595 0.927346
600 0.716145
Ex : 353
200 0.211294
205 0.157968
210 0.20565
215 0.175368
220 0.163485
225 0.176368
230 0.161638
235 0.225459
240 0.292907
245 0.229663
250 0.165194
255 0.190396
260 0.156825
265 0.300116
270 0.176951
275 0.208701
280 0.180735
285 0.216682
290 0.2101
295 0.162416
300 0.258913
305 0.213963
310 0.288542
315 0.279323
320 0.251048
325 0.246926
330 0.331993
335 0.293049
340 7.46016
345 109.071
350 158.196
355 40.4141
360 6.34685
365 2.75851
370 2.64712
375 2.6138
380 2.80312
385 5.59479
390 8.83318
395 7.76837
400 6.77969
405 5.8624
410 5.91456
415 6.55681
420 6.2406
425 6.7822
430 6.80688
435 7.31748
440 7.56872
445 7.76957
450 8.54575
455 9.28802
460 10.1701
465 11.0783
470 10.9581
475 11.7875
480 11.8609
485 12.0639
490 11.9966
495 11.7186
500 11.6588
505 10.8809
510 10.3696
515 9.57855
520 9.02221
525 8.07113
530 7.06663
535 6.57015
540 5.56977
545 5.436
550 4.78209
555 4.12022
560 3.63728
565 3.34937
570 2.726
575 2.21969
580 1.8043
585 1.39506
590 1.05925
595 0.971487
600 0.493909
Ex : 358
200 0.147938
205 0.224484
210 0.148332
215 0.109811
220 0.175782
225 0.173875
230 0.17689
235 0.157871
240 0.150127
245 0.257048
250 0.199389
255 0.206698
260 0.15771
265 0.182503
270 0.205681
275 0.233745
280 0.199316
285 0.211708
290 0.254803
295 0.263672
300 0.184401
305 0.241183
310 0.201698
315 0.319171
320 0.226197
325 0.219453
330 0.262298
335 0.247061
340 0.386024
345 7.13144
350 103.882
355 160.405
360 40.6166
365 6.08389
370 2.71862
375 3.15511
380 2.77266
385 3.04352
390 4.88163
395 9.11883
400 8.78208
405 7.32509
410 6.23366
415 6.10345
420 6.60265
425 6.69759
430 6.65729
435 7.26361
440 7.24643
445 8.41885
450 9.05527
455 10.0389
460 10.8176
465 11.4205
470 12.2166
475 12.535
480 13.5628
485 12.8466
490 13.1911
495 13.3353
500 12.3857
505 11.7972
510 10.7692
515 10.5536
520 9.8093
525 8.80424
530 8.37175
535 7.07651
540 6.49719
545 5.82073
550 5.45439
555 4.5613
560 3.9851
565 3.39691
570 3.15912
575 2.199
580 1.79544
585 1.51979
590 1.23158
595 1.17508
600 0.86908
Ex : 363
200 0.161573
205 0.246234
210 0.17721
215 0.183309
220 0.209302
225 0.195317
230 0.160497
235 0.131369
240 0.173271
245 0.196414
250 0.177035
255 0.123794
260 0.191202
265 0.124077
270 0.145685
275 0.159423
280 0.147267
285 0.123296
290 0.197543
295 0.218109
300 0.214736
305 0.245777
310 0.200202
315 0.184159
320 0.219561
325 0.156069
330 0.243901
335 0.260243
340 0.308076
345 0.407709
350 6.34853
355 101.03
360 157.34
365 41.4548
370 6.39452
375 2.72894
380 2.97886
385 2.99097
390 2.992
395 4.10913
400 7.64075
405 8.76832
410 7.35318
415 6.52668
420 6.16049
425 6.06133
430 6.41872
435 6.97296
440 7.53691
445 8.54922
450 9.25727
455 10.5202
460 11.8467
465 12.5981
470 13.4746
475 13.792
480 14.2378
485 14.9521
490 14.5549
495 14.4052
500 14.1155
505 13.41
510 13.1015
515 12.0565
520 10.9959
525 10.0268
530 9.14173
535 8.55437
540 7.65801
545 6.85146
550 5.94005
555 5.36523
560 4.56672
565 4.01655
570 3.2875
575 2.76531
580 2.09422
585 1.79873
590 1.46055
595 1.05805
600 0.133564
Ex : 368
200 0.225384
205 0.163381
210 0.181662
215 0.179745
220 0.184167
225 0.101861
230 0.174559
235 0.225485
240 0.160933
245 0.147928
250 0.14197
255 0.166433
260 0.183106
265 0.165755
270 0.161726
275 0.163449
280 0.224792
285 0.186959
290 0.149104
295 0.172852
300 0.133563
305 0.167621
310 0.178882
315 0.238981
320 0.175027
325 0.247934
330 0.175751
335 0.243769
340 0.264943
345 0.301406
350 0.347815
355 5.51347
360 95.5872
365 157.582
370 42.2289
375 6.40235
380 2.78065
385 3.0754
390 2.83048
395 2.74555
400 3.6684
405 6.30911
410 8.95956
415 7.20819
420 6.31524
425 5.9216
430 5.87181
435 6.40684
440 7.11806
445 8.02493
450 9.50218
455 10.6181
460 12.9585
465 14.0304
470 15.049
475 15.9919
480 16.9413
485 17.1048
490 17.1281
495 17.3014
500 16.9638
505 15.9387
510 15.1506
515 13.9029
520 12.8873
525 12.1621
530 10.6926
535 9.87341
540 8.78149
545 8.15268
550 7.20482
555 6.41365
560 5.55051
565 4.67019
570 4.0115
575 3.17265
580 2.48605
585 2.06898
590 1.63788
595 1.44136
600 1.02578
Ex : 373
200 0.198367
205 0.177194
210 0.15969
215 0.116039
220 0.135366
225 0.16241
230 0.197781
235 0.182751
240 0.140561
245 0.128861
250 0.131323
255 0.157473
260 0.147907
265 0.191598
270 0.148087
275 0.136749
280 0.128422
285 0.150456
290 0.17136
295 0.154359
300 0.169131
305 0.212358
310 0.137576
315 0.217446
320 0.148371
325 0.17419
330 0.210207
335 0.234556
340 0.245364
345 0.249403
350 0.220619
355 0.368337
360 6.24367
365 98.4502
370 158.188
375 43.4868
380 6.6486
385 2.72389
390 3.13183
395 3.27453
400 3.30484
405 3.61543
410 5.71486
415 8.30195
420 7.10058
425 6.15872
430 5.70526
435 5.83967
440 6.72092
445 8.04204
450 9.46621
455 10.9761
460 12.7862
465 14.6009
470 15.8439
475 16.6807
480 17.509
485 18.2587
490 18.5648
495 18.7275
500 17.7732
505 17.2625
510 15.8681
515 15.1908
520 13.9997
525 12.7462
530 11.8573
535 11.1727
540 9.80094
545 8.7492
550 7.97603
555 7.20134
560 5.85498
565 5.10817
570 4.46062
575 3.67465
580 2.69285
585 2.24614
590 1.70092
595 1.27879
600 1.22995
Ex : 378
200 0.180523
205 0.18336
210 0.220339
215 0.11934
220 0.117602
225 0.165414
230 0.129145
235 0.127478
240 0.175116
245 0.142933
250 0.121493
255 0.153058
260 0.158836
265 0.171328
270 0.150314
275 0.100903
280 0.165349
285 0.157431
290 0.14076
295 0.145786
300 0.190348
305 0.147367
310 0.127028
315 0.153309
320 0.117263
325 0.213189
330 0.137666
335 0.180868
340 0.215269
345 0.2945
350 0.257457
355 0.247741
360 0.355929
365 5.82168
370 102.037
375 167.698
380 46.7415
385 7.34735
390 3.30802
395 3.30698
400 3.54859
405 3.44948
410 3.59493
415 4.97519
420 7.88826
425 7.75972
430 6.3739
435 6.24968
440 6.76294
445 7.55303
450 8.94469
455 10.7401
460 12.2025
465 13.9782
470 15.2049
475 15.8788
480 17.3872
485 17.5005
490 17.6264
495 17.4808
500 16.8631
505 16.687
510 15.5298
515 14.2263
520 13.5642
525 12.1411
530 11.2488
535 10.2544
540 9.61528
545 8.51642
550 7.80141
555 6.75826
560 5.97457
565 5.21107
570 4.39952
575 3.33128
580 2.69683
585 2.05375
590 1.52622
595 1.2736
600 0.74916
Ex : 383
200 0.106589
205 0.151249
210 0.110229
215 0.136533
220 0.157357
225 0.0875825
230 0.162418
235 0.211056
240 0.117417
245 0.153705
250 0.143083
255 0.118859
260 0.106395
265 0.167529
270 0.148654
275 0.156728
280 0.17774
285 0.168432
290 0.119559
295 0.142701
300 0.125142
305 0.152298
310 0.147132
315 0.205839
320 0.133421
325 0.12723
330 0.114103
335 0.145999
340 0.18293
345 0.183309
350 0.231901
355 0.178288
360 0.222989
365 0.284017
370 5.63303
375 101.659
380 174.528
385 48.6627
390 7.82426
395 2.99164
400 3.22041
405 3.48905
410 3.22106
415 3.5637
420 4.45209
425 7.35521
430 8.11242
435 7.10192
440 6.87774
445 7.72912
450 8.83711
455 10.8824
460 12.3553
465 13.888
470 14.7961
475 16.1122
480 17.5513
485 17.8803
490 17.9801
495 18.0652
500 17.6434
505 16.6883
510 16.1793
515 14.4402
520 13.3257
525 12.4491
530 11.2226
535 10.3427
540 9.54047
545 8.67327
550 7.67255
555 6.76599
560 6.04302
565 5.03172
570 4.32284
575 3.40018
580 2.65677
585 1.8296
590 1.49615
595 1.15825
600 0.599329
Ex : 388
200 0.145129
205 0.141517
210 0.122403
215 0.0935476
220 0.0833411
225 0.184813
230 0.122552
235 0.139168
240 0.12836
245 0.112195
250 0.151735
255 0.14816
260 0.145252
265 0.164795
270 0.174286
275 0.17289
280 0.211886
285 0.122373
290 0.130489
295 0.159292
300 0.105566
305 0.140116
310 0.15084
315 0.198257
320 0.150549
325 0.101204
330 0.114651
335 0.232076
340 0.152245
345 0.143844
350 0.152146
355 0.17978
360 0.17376
365 0.255088
370 0.348221
375 6.31191
380 104.756
385 174.668
390 48.3859
395 7.4618
400 2.7431
405 2.97935
410 3.37549
415 3.10751
420 2.96928
425 3.80476
430 6.35653
435 8.18171
440 7.41754
445 8.17356
450 8.90289
455 10.3774
460 12.4989
465 14.0064
470 15.641
475 16.5004
480 17.9663
485 18.5706
490 18.9218
495 18.9576
500 18.1883
505 17.1721
510 16.2918
515 15.4604
520 14.0852
525 12.9386
530 12.3581
535 10.9885
540 10.2995
545 9.06574
550 7.98027
555 7.16625
560 6.37004
565 5.37931
570 4.67502
575 3.56142
580 2.80321
585 2.16377
590 1.71758
595 1.36946
600 1.59338
Ex : 393
200 0.155997
205 0.198939
210 0.10624
215 0.103769
220 0.218338
225 0.15815
230 0.17964
235 0.160665
240 0.153219
245 0.130666
250 0.106577
255 0.117224
260 0.11428
265 0.150739
270 0.137565
275 0.108121
280 0.157556
285 0.142856
290 0.147403
295 0.130789
300 0.139919
305 0.112588
310 0.139303
315 0.151547
320 0.127052
325 0.156503
330 0.123439
335 0.165928
340 0.13038
345 0.15179
350 0.146759
355 0.116244
360 0.152266
365 0.229151
370 0.227743
375 0.365811
380 5.2664
385 104.194
390 177.58
395 49.7783
400 7.32227
405 2.78726
410 2.6454
415 3.05076
420 2.63268
425 2.85816
430 3.36425
435 5.52598
440 8.60505
445 8.97142
450 9.36524
455 10.7321
460 12.3926
465 14.3614
470 15.791
475 17.5751
480 18.3951
485 19.1606
490 19.1395
495 19.3308
500 19.2423
505 18.232
510 17.1705
515 16.2451
520 15.1895
525 13.9463
530 13.3182
535 11.5415
540 10.5861
545 9.3279
550 8.20647
555 7.52623
560 6.73208
565 5.63453
570 4.72204
575 3.66394
580 3.04132
585 2.21035
590 1.73792
595 1.51354
600 1.69098
Ex : 398
200 0.140712
205 0.0889487
210 0.137826
215 0.117035
220 0.117896
225 0.110793
230 0.145881
235 0.19209
240 0.161348
245 0.168702
250 0.119797
255 0.139189
260 0.130013
265 0.12505
270 0.134355
275 0.113231
280 0.097445
285 0.190969
290 0.135041
295 0.135305
300 0.135484
305 0.114363
310 0.125058
315 0.105503
320 0.12639
325 0.103755
330 0.148118
335 0.111898
340 0.169341
345 0.168653
350 0.105818
355 0.109735
360 0.150059
365 0.184634
370 0.147236
375 0.224375
380 0.297335
385 5.59789
390 107.903
395 182.571
400 50.2291
405 7.36871
410 2.51932
415 2.37171
420 2.7705
425 2.48997
430 2.73567
435 3.33645
440 5.53087
445 8.99079
450 10.6893
455 11.2991
460 13.5466
465 14.9892
470 16.2087
475 17.8114
480 18.993
485 19.6606
490 20.1069
495 20.7274
500 20.0848
505 19.2875
510 17.9733
515 17.1278
520 15.8255
525 14.802
530 13.3322
535 12.2008
540 10.9091
545 9.75288
550 8.90824
555 7.87187
560 7.05256
565 5.8794
570 5.0264
575 4.2519
580 3.20567
585 2.28784
590 2.01567
595 1.49988
600 1.02957
Ex : 403
200 0.139993
205 0.141642
210 0.131694
215 0.128726
220 0.14058
225 0.102119
230 0.158067
235 0.136494
240 0.11794
245 0.146594
250 0.149554
255 0.142612
260 0.132206
265 0.127039
270 0.134982
275 0.158261
280 0.130343
285 0.16884
290 0.192729
295 0.146452
300 0.0908268
305 0.103794
310 0.15378
315 0.133406
320 0.125057
325 0.144575
330 0.151392
335 0.148696
340 0.210641
345 0.168633
350 0.156905
355 0.193196
360 0.17378
365 0.150249
370 0.190046
375 0.178519
380 0.190417
385 0.325995
390 6.32092
395 110.353
400 184.919
405 51.7722
410 7.49948
415 2.50312
420 2.31111
425 2.83344
430 2.83193
435 3.29771
440 4.15997
445 6.21308
450 10.5364
455 13.16
460 13.7004
465 15.2067
470 16.8534
475 17.9842
480 19.0543
485 20.0794
490 20.6222
495 20.5227
500 20.3693
505 19.4146
510 18.305
515 17.3741
520 15.8413
525 15.0167
530 13.6732
535 12.2794
540 11.288
545 9.96018
550 8.97477
555 7.93462
560 6.77525
565 6.08808
570 4.97407
575 4.16128
580 3.04472
585 2.39416
590 2.00986
595 1.48734
600 1.5549
Ex : 408
200 0.15157
205 0.136274
210 0.142573
215 0.133826
220 0.115841
225 0.131987
230 0.133682
235 0.112388
240 0.101241
245 0.213745
250 0.132491
255 0.161993
260 0.121771
265 0.131103
270 0.117876
275 0.116395
280 0.117432
285 0.14987
290 0.176628
295 0.121368
300 0.122699
305 0.137095
310 0.185384
315 0.120008
320 0.139011
325 0.142233
330 0.11712
335 0.146051
340 0.107384
345 0.111897
350 0.134491
355 0.147267
360 0.136278
365 0.170314
370 0.226355
375 0.149605
380 0.199585
385 0.230608
390 0.318074
395 6.70539
400 124.027
405 196.214
410 51.7673
415 7.47989
420 2.44609
425 2.01509
430 2.75923
435 3.23247
440 3.79938
445 5.53736
450 7.67026
455 11.574
460 15.5713
465 16.6209
470 17.2493
475 18.3057
480 19.2236
485 20.4336
490 20.3159
495 20.5198
500 20.2979
505 19.3929
510 18.3236
515 17.3391
520 15.6546
525 14.8488
530 13.722
535 12.7061
540 11.5433
545 10.5953
550 9.01354
555 7.9232
560 7.01153
565 6.24452
570 5.12816
575 3.9925
580 3.22794
585 2.50485
590 1.79783
595 1.43054
600 1.26676
Ex : 413
200 0.151033
205 0.148735
210 0.103503
215 0.120533
220 0.116452
225 0.131502
230 0.138882
235 0.116909
240 0.127831
245 0.138293
250 0.123581
255 0.163954
260 0.109806
265 0.0976541
270 0.131213
275 0.108654
280 0.128182
285 0.188604
290 0.125079
295 0.104389
300 0.101
305 0.10194
310 0.194075
315 0.145942
320 0.135966
325 0.110812
330 0.101123
335 0.116537
340 0.150172
345 0.10943
350 0.118985
355 0.193523
360 0.15975
365 0.128261
370 0.128079
375 0.146537
380 0.177047
385 0.20446
390 0.212416
395 0.356748
400 7.00603
405 117.588
410 191.073
415 50.0163
420 7.05624
425 2.20584
430 2.18177
435 2.92605
440 3.84685
445 4.94381
450 6.68091
455 8.95214
460 12.8476
465 16.2726
470 17.7512
475 18.0615
480 19.1612
485 19.7719
490 19.7205
495 20.6477
500 19.8145
505 19.1738
510 18.4092
515 17.2026
520 15.7328
525 14.7326
530 13.4497
535 12.1255
540 10.9743
545 10.1698
550 9.18713
555 7.62588
560 7.00405
565 6.23974
570 4.91574
575 4.04267
580 3.17845
585 2.48429
590 1.94593
595 1.64626
600 1.40066
Ex : 418
200 0.141567
205 0.119655
210 0.100649
215 0.128537
220 0.166123
225 0.129268
230 0.113162
235 0.156131
240 0.12712
245 0.13543
250 0.13414
255 0.0931454
260 0.146444
265 0.154023
270 0.106726
275 0.10271
280 0.116707
285 0.112659
290 0.123878
295 0.17552
300 0.151522
305 0.130734
310 0.132612
315 0.131234
320 0.121916
325 0.151894
330 0.150363
335 0.178207
340 0.131716
345 0.121325
350 0.172054
355 0.159646
360 0.137769
365 0.146234
370 0.145261
375 0.142408
380 0.174833
385 0.190612
390 0.28205
395 0.238541
400 0.370991
405 6.96505
410 121.042
415 198.183
420 54.5122
425 7.76442
430 2.27189
435 2.06278
440 3.28988
445 4.79019
450 6.55281
455 8.70407
460 10.7877
465 13.1248
470 17.4953
475 18.986
480 18.5343
485 18.8068
490 19.4768
495 19.4533
500 19.2541
505 18.1969
510 17.5122
515 16.3702
520 15.2192
525 13.9869
530 12.9717
535 12.04
540 10.8301
545 9.58817
550 8.52591
555 7.72988
560 6.70746
565 5.73774
570 4.83534
575 3.88193
580 2.85176
585 2.39193
590 1.82489
595 1.44609
600 1.23941
Ex : 423
200 0.12595
205 0.113334
210 0.160424
215 0.145733
220 0.0818912
225 0.0925249
230 0.102594
235 0.138315
240 0.155088
245 0.0986366
250 0.137706
255 0.092164
260 0.134715
265 0.147304
270 0.109032
275 0.107847
280 0.153106
285 0.162761
290 0.13779
295 0.121052
300 0.11067
305 0.157656
310 0.108667
315 0.0831593
320 0.11706
325 0.120001
330 0.137317
335 0.140269
340 0.149888
345 0.130137
350 0.144475
355 0.150146
360 0.0974215
365 0.134892
370 0.134711
375 0.124499
380 0.171996
385 0.133865
390 0.136693
395 0.167094
400 0.230781
405 0.33177
410 6.97441
415 127.006
420 200.338
425 51.4967
430 7.3893
435 2.58297
440 2.62158
445 4.30755
450 5.73644
455 7.65741
460 9.77767
465 11.7059
470 13.7479
475 16.9351
480 18.6709
485 18.1468
490 18.4713
495 18.9626
500 17.6795
505 16.8134
510 16.3886
515 15.1058
520 14.0271
525 12.8824
530 12.1404
535 10.8068
540 9.8407
545 8.91462
550 7.8358
555 7.15988
560 6.25876
565 5.52393
570 4.61704
575 3.47699
580 2.80169
585 2.14263
590 1.71235
595 1.35186
600 1.00787
Ex : 428
200 0.109236
205 0.128202
210 0.121563
215 0.11952
220 0.131374
225 0.138266
230 0.122814
235 0.108865
240 0.141646
245 0.191094
250 0.106041
255 0.109185
260 0.155786
265 0.160513
270 0.123535
275 0.0956491
280 0.0782209
285 0.127437
290 0.109417
295 0.148496
300 0.14079
305 0.166192
310 0.174122
315 0.198839
320 0.172022
325 0.14099
330 0.148856
335 0.138618
340 0.127738
345 0.101367
350 0.108344
355 0.118588
360 0.157175
365 0.154372
370 0.145607
375 0.132806
380 0.158365
385 0.213353
390 0.195552
395 0.164236
400 0.18447
405 0.256526
410 0.364413
415 7.64356
420 130.489
425 207.73
430 56.2879
435 8.04786
440 3.06496
445 3.58561
450 5.23637
455 7.05272
460 8.73205
465 10.1708
470 11.943
475 13.4249
480 15.849
485 18.2421
490 17.4747
495 16.9555
500 16.2037
505 15.5624
510 14.4653
515 13.5556
520 12.602
525 11.6353
530 10.6904
535 10.0632
540 9.05062
545 8.09159
550 7.33372
555 6.42454
560 5.80061
565 4.81288
570 4.04135
575 3.21653
580 2.52281
585 1.99534
590 1.5675
595 1.10103
600 0.774385
Ex : 433
200 0.246327
205 0.121441
210 0.078117
215 0.127221
220 0.148021
225 0.152371
230 0.130045
235 0.120256
240 0.128616
245 0.134888
250 0.105127
255 0.0942504
260 0.0919864
265 0.162857
270 0.216638
275 0.141847
280 0.108058
285 0.0923362
290 0.118911
295 0.168917
300 0.18487
305 0.144515
310 0.11067
315 0.122293
320 0.196631
325 0.166297
330 0.107552
335 0.163638
340 0.150779
345 0.126673
350 0.162995
355 0.139146
360 0.14006
365 0.139744
370 0.162044
375 0.146476
380 0.154886
385 0.153953
390 0.136324
395 0.121726
400 0.17014
405 0.232188
410 0.253022
415 0.434125
420 8.99233
425 142.689
430 216.286
435 54.9529
440 8.23667
445 3.72595
450 4.52951
455 6.22846
460 8.13597
465 9.23131
470 10.3613
475 11.3467
480 12.4656
485 14.068
490 16.6567
495 16.0418
500 15.0024
505 14.321
510 13.0505
515 12.0431
520 11.184
525 10.4279
530 9.59828
535 9.04003
540 7.83945
545 7.02284
550 6.48006
555 5.72779
560 5.00205
565 4.28035
570 3.68905
575 2.92
580 2.36448
585 1.75778
590 1.38065
595 1.17393
600 0.259334
Ex : 438
200 0.130549
205 0.115628
210 0.116557
215 0.112441
220 0.0981707
225 0.105759
230 0.118339
235 0.156767
240 0.1467
245 0.122845
250 0.137205
255 0.112784
260 0.147789
265 0.159711
270 0.12253
275 0.129321
280 0.104716
285 0.124174
290 0.153277
295 0.135399
300 0.14652
305 0.106243
310 0.111956
315 0.162613
320 0.110596
325 0.146118
330 0.138764
335 0.152553
340 0.118655
345 0.164917
350 0.140052
355 0.120978
360 0.19511
365 0.143197
370 0.145084
375 0.168486
380 0.113468
385 0.151256
390 0.157128
395 0.14369
400 0.175963
405 0.210888
410 0.201679
415 0.292686
420 0.452326
425 8.54675
430 144.548
435 229.978
440 59.6214
445 9.26912
450 4.54825
455 4.87216
460 6.70313
465 7.90255
470 8.71441
475 9.91116
480 10.3543
485 11.056
490 12.011
495 13.7876
500 13.7434
505 12.3928
510 11.2549
515 10.5602
520 9.74779
525 8.87232
530 8.15046
535 7.58057
540 6.8488
545 6.23411
550 5.55084
555 4.91875
560 4.40206
565 3.83474
570 3.22857
575 2.67307
580 1.9651
585 1.58031
590 1.24875
595 1.03763
600 0.363759
Ex : 443
200 0.0830195
205 0.112078
210 0.153922
215 0.147633
220 0.161137
225 0.12047
230 0.120643
235 0.158847
240 0.148381
245 0.178927
250 0.122816
255 0.145517
260 0.139259
265 0.127828
270 0.117151
275 0.169122
280 0.132662
285 0.110953
290 0.171074
295 0.0998952
300 0.114045
305 0.149091
310 0.108128
315 0.120805
320 0.0943306
325 0.127683
330 0.134107
335 0.126269
340 0.11695
345 0.172306
350 0.127753
355 0.157954
360 0.182941
365 0.193568
370 0.123234
375 0.105521
380 0.138742
385 0.151534
390 0.141682
395 0.208629
400 0.211243
405 0.205444
410 0.182657
415 0.2
420 0.270626
425 0.353658
430 9.78389
435 158.864
440 240.356
445 60.9924
450 9.78045
455 5.08572
460 5.06667
465 6.36625
470 7.29643
475 8.01885
480 8.48293
485 8.96998
490 9.58576
495 10.0121
500 11.287
505 11.7501
510 10.1206
515 8.9838
520 8.36352
525 7.44029
530 6.72616
535 6.23035
540 5.59287
545 5.12974
550 4.64034
555 4.00732
560 3.4496
565 3.2531
570 2.72572
575 2.12725
580 1.63681
585 1.25471
590 1.05207
595 0.738376
600 0.754665
Ex : 448
200 0.143316
205 0.0941564
210 0.158964
215 0.150884
220 0.130536
225 0.173159
230 0.139757
235 0.117227
240 0.124474
245 0.2019
250 0.123498
255 0.107237
260 0.147029
265 0.161614
270 0.145544
275 0.135409
280 0.123566
285 0.136521
290 0.165251
295 0.174984
300 0.121754
305 0.137602
310 0.126005
315 0.124015
320 0.0950996
325 0.215342
330 0.142988
335 0.141638
340 0.163051
345 0.132686
350 0.141903
355 0.142369
360 0.213969
365 0.176718
370 0.170328
375 0.183771
380 0.153983
385 0.131257
390 0.101962
395 0.114067
400 0.144895
405 0.18869
410 0.136651
415 0.202622
420 0.229559
425 0.338951
430 0.466028
435 10.1512
440 166.672
445 250.627
450 64.2438
455 10.3421
460 4.84221
465 4.74761
470 5.31172
475 6.41034
480 6.81335
485 6.90769
490 7.23555
495 7.29184
500 7.24199
505 8.19017
510 8.97972
515 8.10725
520 6.73928
525 6.00094
530 5.69709
535 5.14178
540 4.2663
545 4.01194
550 3.62709
555 3.14664
560 2.73904
565 2.39914
570 2.05573
575 1.74951
580 1.3124
585 1.13822
590 0.912405
595 0.663888
600 0.503781
Ex : 453
200 0.120214
205 0.168924
210 0.118965
215 0.123738
220 0.0943437
225 0.116101
230 0.117875
235 0.176428
240 0.12577
245 0.0966648
250 0.101749
255 0.103264
260 0.119703
265 0.148325
270 0.138941
275 0.143968
280 0.119825
285 0.18831
290 0.111532
295 0.147277
300 0.121753
305 0.130235
310 0.117069
315 0.134168
320 0.0874266
325 0.116042
330 0.0920257
335 0.16155
340 0.125577
345 0.131252
350 0.119563
355 0.155635
360 0.0917406
365 0.132528
370 0.122009
375 0.146322
380 0.142846
385 0.123028
390 0.160356
395 0.117931
400 0.127924
405 0.154958
410 0.182194
415 0.176427
420 0.225659
425 0.229299
430 0.308739
435 0.503152
440 10.9496
445 182.093
450 264.836
455 63.9922
460 9.9569
465 4.30995
470 3.7931
475 4.29471
480 4.91773
485 5.35558
490 5.34361
495 5.35926
500 5.45279
505 5.05819
510 5.49522
515 6.63265
520 6.31286
525 5.02714
530 4.63277
535 4.07234
540 3.49724
545 3.18648
550 2.81806
555 2.6166
560 2.22031
565 1.87829
570 1.68996
575 1.3127
580 1.06518
585 0.808756
590 0.694341
595 0.526101
600 0.400283
Ex : 458
200 0.095598
205 0.1402
210 0.113425
215 0.13507
220 0.15485
225 0.11738
230 0.126336
235 0.161481
240 0.13165
245 0.203523
250 0.0972437
255 0.101439
260 0.115605
265 0.138186
270 0.159616
275 0.120761
280 0.160657
285 0.141969
290 0.173149
295 0.116236
300 0.13577
305 0.143003
310 0.146379
315 0.12704
320 0.140798
325 0.159742
330 0.132019
335 0.112767
340 0.150866
345 0.123361
350 0.157913
355 0.203104
360 0.14817
365 0.149271
370 0.175627
375 0.183849
380 0.155142
385 0.142355
390 0.135782
395 0.181997
400 0.194531
405 0.211923
410 0.217862
415 0.223636
420 0.172221
425 0.260744
430 0.26846
435 0.381134
440 0.478038
445 12.4046
450 184.896
455 271.66
460 66.7026
465 9.89855
470 3.75459
475 3.13182
480 3.41628
485 3.96298
490 4.08421
495 3.79858
500 3.58686
505 3.51482
510 3.54658
515 3.5754
520 4.59893
525 5.18194
530 4.06867
535 3.23835
540 2.97242
545 2.73356
550 2.24992
555 1.86096
560 1.8762
565 1.57901
570 1.3168
575 1.1195
580 0.94858
585 0.723343
590 0.534863
595 0.43477
600 0.419698
Ex : 463
200 0.129212
205 0.143241
210 0.12281
215 0.117992
220 0.152499
225 0.08652
230 0.112258
235 0.19878
240 0.105357
245 0.15554
250 0.121747
255 0.137623
260 0.122047
265 0.135263
270 0.159795
275 0.172866
280 0.112433
285 0.112088
290 0.11002
295 0.108175
300 0.134779
305 0.130904
310 0.180072
315 0.126577
320 0.128911
325 0.147826
330 0.123174
335 0.128395
340 0.12178
345 0.13988
350 0.16245
355 0.14902
360 0.121932
365 0.109664
370 0.145723
375 0.155152
380 0.173605
385 0.0921228
390 0.186914
395 0.117989
400 0.167934
405 0.144327
410 0.119924
415 0.172656
420 0.175281
425 0.197698
430 0.237448
435 0.270403
440 0.405544
445 0.566308
450 11.6517
455 189.756
460 287.143
465 70.2391
470 9.87276
475 3.15554
480 2.54532
485 2.45206
490 2.82564
495 2.96335
500 2.74444
505 2.50894
510 2.59822
515 2.43541
520 2.36399
525 3.30027
530 4.238
535 3.56771
540 2.45522
545 2.33904
550 2.06155
555 1.75195
560 1.4323
565 1.23949
570 1.07423
575 0.958867
580 0.730476
585 0.598763
590 0.629056
595 0.4905
600 0.262417
Ex : 468
200 0.0970428
205 0.113277
210 0.165291
215 0.128846
220 0.107121
225 0.127162
230 0.124402
235 0.131508
240 0.12267
245 0.109534
250 0.138402
255 0.120088
260 0.123549
265 0.126578
270 0.123979
275 0.0937296
280 0.105504
285 0.0837194
290 0.129183
295 0.15201
300 0.150384
305 0.113775
310 0.124466
315 0.117588
320 0.138979
325 0.164557
330 0.113803
335 0.14765
340 0.108022
345 0.122398
350 0.156979
355 0.135598
360 0.144588
365 0.16211
370 0.112622
375 0.14859
380 0.112371
385 0.124867
390 0.122566
395 0.176734
400 0.146496
405 0.147606
410 0.142421
415 0.140488
420 0.160714
425 0.151945
430 0.143925
435 0.178592
440 0.219494
445 0.313909
450 0.520744
455 12.2962
460 185.666
465 291.597
470 71.1951
475 9.61502
480 2.73948
485 1.93425
490 2.04029
495 2.32159
500 2.18167
505 2.10647
510 2.00669
515 1.84704
520 1.88583
525 1.91929
530 2.37953
535 3.59403
540 3.42098
545 2.187
550 1.71089
555 1.71908
560 1.44721
565 1.12597
570 0.980622
575 0.884705
580 0.675455
585 0.528407
590 0.460927
595 0.357093
600 0.302855
Ex : 473
200 0.106189
205 0.176486
210 0.114898
215 0.113159
220 0.128177
225 0.146507
230 0.128059
235 0.154159
240 0.117984
245 0.117937
250 0.150146
255 0.108773
260 0.124866
265 0.136042
270 0.110679
275 0.133396
280 0.19744
285 0.141941
290 0.164839
295 0.145997
300 0.138206
305 0.141643
310 0.114854
315 0.12912
320 0.11763
325 0.0993124
330 0.118634
335 0.100096
340 0.108225
345 0.161747
350 0.129758
355 0.106688
360 0.133091
365 0.135771
370 0.133227
375 0.156479
380 0.193756
385 0.162077
390 0.167712
395 0.142674
400 0.133869
405 0.166103
410 0.14623
415 0.201098
420 0.157716
425 0.15808
430 0.124727
435 0.165504
440 0.205455
445 0.290721
450 0.382521
455 0.525612
460 13.7971
465 204.246
470 292.528
475 68.7432
480 9.2544
485 2.53066
490 1.71082
495 1.65136
500 1.92044
505 1.97735
510 1.7274
515 1.61036
520 1.60674
525 1.65985
530 1.82642
535 1.77371
540 2.70911
545 3.02791
550 2.33069
555 1.67104
560 1.59946
565 1.10807
570 1.02676
575 0.715351
580 0.636044
585 0.571808
590 0.431346
595 0.377567
600 0.0429657
Ex : 478
200 0.136854
205 0.200039
210 0.158505
215 0.132722
220 0.158151
225 0.0866185
230 0.159513
235 0.0944162
240 0.158696
245 0.130821
250 0.156175
255 0.115342
260 0.122759
265 0.135893
270 0.137392
275 0.143017
280 0.149733
285 0.19386
290 0.162308
295 0.179715
300 0.137575
305 0.143149
310 0.160107
315 0.121792
320 0.162766
325 0.117954
330 0.179291
335 0.139421
340 0.103651
345 0.110337
350 0.167105
355 0.159281
360 0.146567
365 0.128704
370 0.186232
375 0.149617
380 0.185495
385 0.154882
390 0.199128
395 0.191153
400 0.195804
405 0.146885
410 0.183406
415 0.207781
420 0.198058
425 0.165712
430 0.145534
435 0.27147
440 0.237437
445 0.225757
450 0.297128
455 0.387289
460 0.631462
465 14.7924
470 206.565
475 279.429
480 68.4403
485 9.14165
490 2.43468
495 1.50276
500 1.40776
505 1.62739
510 1.76316
515 1.77626
520 1.54255
525 1.42873
530 1.47004
535 1.43853
540 1.47739
545 2.0724
550 2.7981
555 2.22869
560 1.49607
565 1.33868
570 1.14871
575 0.831678
580 0.63706
585 0.539089
590 0.36928
595 0.359285
600 0.0851954
Ex : 483
200 0.164563
205 0.141763
210 0.151426
215 0.149561
220 0.142121
225 0.154996
230 0.120141
235 0.165863
240 0.136294
245 0.13963
250 0.161459
255 0.222191
260 0.174479
265 0.159606
270 0.135179
275 0.153169
280 0.144468
285 0.142325
290 0.128449
295 0.125961
300 0.114265
305 0.125556
310 0.160497
315 0.174035
320 0.120658
325 0.186035
330 0.178706
335 0.14182
340 0.14176
345 0.212431
350 0.113365
355 0.106405
360 0.1797
365 0.14508
370 0.142326
375 0.157565
380 0.150183
385 0.152716
390 0.173947
395 0.138316
400 0.16492
405 0.172459
410 0.153379
415 0.158577
420 0.15534
425 0.180145
430 0.185754
435 0.175782
440 0.176737
445 0.20953
450 0.22692
455 0.281032
460 0.392646
465 0.633023
470 12.0729
475 205.712
480 310.753
485 74.3469
490 9.67116
495 2.14023
500 1.42725
505 1.22495
510 1.39669
515 1.55381
520 1.6126
525 1.52262
530 1.32232
535 1.32565
540 1.35204
545 1.37682
550 1.55668
555 2.11742
560 2.42532
565 1.56781
570 1.13597
575 0.894115
580 0.779423
585 0.587162
590 0.443308
595 0.402165
600 0.535346
Ex : 488
200 0.171797
205 0.170533
210 0.11863
215 0.177004
220 0.118472
225 0.10752
230 0.141503
235 0.123661
240 0.190588
245 0.175432
250 0.213254
255 0.191598
260 0.197623
265 0.159182
270 0.154983
275 0.167031
280 0.190121
285 0.141625
290 0.166424
295 0.172337
300 0.144199
305 0.120941
310 0.133449
315 0.150958
320 0.210061
325 0.200103
330 0.136246
335 0.148748
340 0.145601
345 0.198033
350 0.166459
355 0.17275
360 0.137241
365 0.161005
370 0.145875
375 0.146056
380 0.200846
385 0.195164
390 0.157498
395 0.232469
400 0.20419
405 0.174718
410 0.194123
415 0.211728
420 0.130232
425 0.178996
430 0.161279
435 0.174689
440 0.174198
445 0.148947
450 0.172306
455 0.203577
460 0.289282
465 0.439356
470 0.596574
475 14.5761
480 215.336
485 295.911
490 70.0795
495 9.03266
500 2.02296
505 1.25251
510 1.18236
515 1.28955
520 1.55862
525 1.53519
530 1.35376
535 1.37107
540 1.24108
545 1.24097
550 1.16436
555 1.18595
560 1.86574
565 2.32313
570 1.41502
575 0.924859
580 0.822384
585 0.729015
590 0.4644
595 0.417633
600 0.437998
Ex : 493
200 0.209036
205 0.196019
210 0.171007
215 0.129301
220 0.156907
225 0.148139
230 0.173093
235 0.18327
240 0.127535
245 0.179876
250 0.233717
255 0.140139
260 0.207046
265 0.167027
270 0.173476
275 0.132648
280 0.202117
285 0.195908
290 0.138689
295 0.149046
300 0.239402
305 0.236717
310 0.173351
315 0.193159
320 0.171739
325 0.164435
330 0.139717
335 0.123832
340 0.130121
345 0.126087
350 0.14317
355 0.155577
360 0.169734
365 0.218056
370 0.175046
375 0.169932
380 0.175608
385 0.130425
390 0.281484
395 0.194497
400 0.237382
405 0.205211
410 0.190754
415 0.18669
420 0.127592
425 0.209014
430 0.296212
435 0.131268
440 0.215197
445 0.214024
450 0.211287
455 0.181983
460 0.278308
465 0.266056
470 0.471113
475 0.675894
480 12.9811
485 212.019
490 313.684
495 72.0304
500 9.23436
505 2.02376
510 1.26137
515 1.15205
520 1.27974
525 1.51329
530 1.56962
535 1.36809
540 1.24806
545 1.04165
550 1.04148
555 1.04456
560 1.08114
565 1.35089
570 2.05794
575 1.56889
580 0.890504
585 0.658482
590 0.609623
595 0.445146
600 0.403779
Ex : 498
200 0.137127
205 0.220265
210 0.164231
215 0.156819
220 0.173622
225 0.223078
230 0.184704
235 0.117753
240 0.177721
245 0.168833
250 0.144165
255 0.193127
260 0.138913
265 0.168608
270 0.168021
275 0.197387
280 0.236488
285 0.186695
290 0.210229
295 0.181074
300 0.167422
305 0.138278
310 0.156808
315 0.125091
320 0.272793
325 0.221481
330 0.226129
335 0.129615
340 0.139696
345 0.157276
350 0.153224
355 0.150134
360 0.192239
365 0.143837
370 0.157089
375 0.162802
380 0.188746
385 0.196894
390 0.216224
395 0.170539
400 0.16648
405 0.127955
410 0.181084
415 0.185846
420 0.21574
425 0.262703
430 0.220098
435 0.217458
440 0.230036
445 0.231113
450 0.228835
455 0.242094
460 0.268808
465 0.350627
470 0.305241
475 0.39959
480 0.552181
485 15.0382
490 218.397
495 294.042
500 68.3622
505 8.73255
510 1.84322
515 1.18041
520 1.02304
525 1.2078
530 1.32334
535 1.45974
540 1.37344
545 1.21631
550 0.975472
555 0.964863
560 0.891306
565 0.886548
570 1.03601
575 1.33562
580 1.46776
585 0.884662
590 0.638583
595 0.422267
600 0.0480523
Ex : 503
200 0.168915
205 0.141342
210 0.17426
215 0.166427
220 0.233302
225 0.164019
230 0.153842
235 0.194709
240 0.142189
245 0.170266
250 0.194211
255 0.205942
260 0.160357
265 0.146943
270 0.129128
275 0.133311
280 0.199661
285 0.157843
290 0.16966
295 0.196357
300 0.190433
305 0.205072
310 0.176209
315 0.197728
320 0.15876
325 0.210215
330 0.190971
335 0.197776
340 0.191978
345 0.148352
350 0.155776
355 0.231306
360 0.190787
365 0.220751
370 0.195359
375 0.178614
380 0.229721
385 0.197643
390 0.182278
395 0.175973
400 0.17954
405 0.220982
410 0.212133
415 0.25984
420 0.21151
425 0.190191
430 0.23918
435 0.186949
440 0.193054
445 0.268784
450 0.193359
455 0.192954
460 0.276121
465 0.316239
470 0.277981
475 0.394473
480 0.387144
485 0.587589
490 13.5378
495 218.167
500 306.076
505 70.7864
510 9.13681
515 1.92508
520 1.41051
525 1.21273
530 1.2792
535 1.22611
540 1.38243
545 1.30392
550 1.14746
555 1.08733
560 0.989167
565 0.833868
570 0.805959
575 0.606524
580 0.974968
585 1.04016
590 0.898332
595 0.647917
600 0.606248
Ex : 508
200 0.195224
205 0.200204
210 0.198372
215 0.215282
220 0.164107
225 0.14802
230 0.209105
235 0.18495
240 0.173369
245 0.159211
250 0.120459
255 0.181683
260 0.212584
265 0.160915
270 0.137921
275 0.185452
280 0.16032
285 0.189375
290 0.172722
295 0.229216
300 0.24904
305 0.173335
310 0.135915
315 0.153789
320 0.190607
325 0.164156
330 0.169248
335 0.219991
340 0.20957
345 0.253736
350 0.234605
355 0.196883
360 0.243391
365 0.225354
370 0.196556
375 0.175178
380 0.161551
385 0.192486
390 0.205789
395 0.174017
400 0.257023
405 0.198082
410 0.249898
415 0.170171
420 0.184434
425 0.166094
430 0.190157
435 0.242133
440 0.234661
445 0.236344
450 0.241804
455 0.227152
460 0.251494
465 0.276206
470 0.251977
475 0.288951
480 0.281684
485 0.338844
490 0.56588
495 14.5573
500 209.769
505 295.982
510 71.6434
515 9.20553
520 1.90215
525 1.35275
530 1.1714
535 1.1481
540 1.26628
545 1.3168
550 1.14891
555 1.07968
560 0.744886
565 0.849247
570 0.662485
575 0.629931
580 0.615397
585 0.689736
590 0.960283
595 0.867162
600 0.931793
Ex : 513
200 0.13421
205 0.19807
210 0.166029
215 0.147448
220 0.268432
225 0.172976
230 0.191934
235 0.121983
240 0.17694
245 0.217024
250 0.19196
255 0.19187
260 0.232221
265 0.168835
270 0.233368
275 0.23939
280 0.180795
285 0.216479
290 0.177118
295 0.218359
300 0.197012
305 0.202107
310 0.201835
315 0.179523
320 0.207472
325 0.201378
330 0.164505
335 0.172404
340 0.231944
345 0.22453
350 0.155429
355 0.164243
360 0.196919
365 0.197424
370 0.160385
375 0.184187
380 0.235773
385 0.214395
390 0.216088
395 0.159324
400 0.199482
405 0.204581
410 0.232388
415 0.262537
420 0.213902
425 0.211479
430 0.163024
435 0.220643
440 0.317928
445 0.264254
450 0.270512
455 0.272521
460 0.205491
465 0.300196
470 0.274529
475 0.263233
480 0.3388
485 0.307801
490 0.408202
495 0.485813
500 12.8333
505 209.552
510 299.731
515 73.7673
520 9.50477
525 2.14451
530 1.31098
535 1.21631
540 1.14465
545 1.25346
550 1.15598
555 1.12561
560 0.947422
565 0.912052
570 0.768314
575 0.599082
580 0.556543
585 0.402324
590 0.483573
595 0.561185
600 0.236061
Ex : 518
200 0.13053
205 0.292779
210 0.232609
215 0.203069
220 0.170343
225 0.137913
230 0.177934
235 0.195217
240 0.179615
245 0.153111
250 0.141484
255 0.150554
260 0.154278
265 0.212764
270 0.17717
275 0.123866
280 0.111986
285 0.149131
290 0.272976
295 0.179955
300 0.217136
305 0.245478
310 0.197644
315 0.27319
320 0.227849
325 0.16953
330 0.161252
335 0.191588
340 0.172694
345 0.203675
350 0.171655
355 0.145748
360 0.173011
365 0.272415
370 0.234973
375 0.258265
380 0.18399
385 0.209074
390 0.221653
395 0.22425
400 0.180238
405 0.22513
410 0.239212
415 0.22655
420 0.194809
425 0.232804
430 0.221081
435 0.175443
440 0.209435
445 0.20568
450 0.179502
455 0.170275
460 0.137593
465 0.196435
470 0.264177
475 0.205771
480 0.25361
485 0.311306
490 0.327165
495 0.424393
500 0.463715
505 13.549
510 201.385
515 294.622
520 74.2399
525 9.56259
530 2.11855
535 1.2926
540 1.22853
545 0.962504
550 1.20462
555 1.15122
560 1.03329
565 0.860705
570 0.740497
575 0.697616
580 0.527101
585 0.413447
590 0.391649
595 0.348181
600 2.08005
Ex : 523
200 0.168741
205 0.169767
210 0.217351
215 0.208316
220 0.306991
225 0.160708
230 0.163461
235 0.177082
240 0.249781
245 0.154181
250 0.229305
255 0.203164
260 0.146895
265 0.161138
270 0.195277
275 0.181691
280 0.161748
285 0.256617
290 0.208051
295 0.187292
300 0.252086
305 0.231764
310 0.252534
315 0.235332
320 0.235824
325 0.193911
330 0.236305
335 0.188019
340 0.214777
345 0.234597
350 0.194594
355 0.213363
360 0.284941
365 0.160591
370 0.222535
375 0.20295
380 0.227029
385 0.189447
390 0.276294
395 0.233179
400 0.214605
405 0.252119
410 0.195443
415 0.273219
420 0.15601
425 0.20271
430 0.198391
435 0.24649
440 0.231969
445 0.318698
450 0.268913
455 0.222108
460 0.188213
465 0.212931
470 0.221547
475 0.280629
480 0.215713
485 0.256538
490 0.32835
495 0.356777
500 0.397376
505 0.530468
510 12.6008
515 192.719
520 288.465
525 74.1456
530 9.48616
535 2.12411
540 1.17228
545 1.08404
550 0.976761
555 1.00249
560 1.16734
565 1.06482
570 0.716419
575 0.581077
580 0.452055
585 0.475761
590 0.490755
595 0.347967
600 0.34395
Ex : 528
200 0.183848
205 0.202188
210 0.174179
215 0.227379
220 0.163704
225 0.209868
230 0.207734
235 0.359786
240 0.289402
245 0.213497
250 0.224662
255 0.238543
260 0.252153
265 0.225922
270 0.208764
275 0.22728
280 0.239427
285 0.247162
290 0.220923
295 0.201279
300 0.251873
305 0.197894
310 0.18675
315 0.198537
320 0.255519
325 0.240157
330 0.18102
335 0.247547
340 0.209293
345 0.22705
350 0.231901
355 0.252944
360 0.181021
365 0.296275
370 0.252122
375 0.183704
380 0.192726
385 0.126379
390 0.272369
395 0.26024
400 0.150566
405 0.21023
410 0.316372
415 0.249159
420 0.251201
425 0.235615
430 0.280203
435 0.240975
440 0.274393
445 0.193927
450 0.316541
455 0.22673
460 0.23618
465 0.204073
470 0.253664
475 0.262702
480 0.329878
485 0.201867
490 0.282923
495 0.333047
500 0.281672
505 0.341854
510 0.619686
515 11.6464
520 191.436
525 292.222
530 75.1155
535 9.47837
540 1.93179
545 1.15914
550 1.05626
555 0.859647
560 0.792952
565 0.852341
570 0.829329
575 0.639612
580 0.552831
585 0.534351
590 0.375914
595 0.340205
600 0.552988
Ex : 533
200 0.159378
205 0.229695
210 0.212184
215 0.233272
220 0.209867
225 0.294187
230 0.256892
235 0.165731
240 0.221148
245 0.249599
250 0.258571
255 0.226944
260 0.25049
265 0.249173
270 0.205117
275 0.238127
280 0.182514
285 0.238741
290 0.205842
295 0.208197
300 0.221913
305 0.181857
310 0.140995
315 0.155068
320 0.242601
325 0.320954
330 0.178951
335 0.273271
340 0.19414
345 0.164114
350 0.236938
355 0.285221
360 0.227612
365 0.215318
370 0.199059
375 0.273671
380 0.171172
385 0.193808
390 0.234693
395 0.281301
400 0.317489
405 0.272283
410 0.244967
415 0.289433
420 0.249742
425 0.153432
430 0.254186
435 0.248247
440 0.24229
445 0.278356
450 0.283473
455 0.253866
460 0.249037
465 0.217744
470 0.223265
475 0.249591
480 0.297455
485 0.344854
490 0.288513
495 0.261101
500 0.299121
505 0.330856
510 0.347639
515 0.53963
520 11.7256
525 183.854
530 286.856
535 74.3127
540 9.5411
545 1.95585
550 1.12549
555 1.1324
560 1.00314
565 0.901166
570 0.785155
575 0.691655
580 0.60954
585 0.525567
590 0.322726
595 0.321852
600 0.242225
Ex : 538
200 0.194938
205 0.256878
210 0.235298
215 0.256686
220 0.231555
225 0.247901
230 0.264057
235 0.214997
240 0.233435
245 0.182121
250 0.249722
255 0.343724
260 0.238157
265 0.195335
270 0.196726
275 0.222809
280 0.216842
285 0.240688
290 0.177436
295 0.212635
300 0.154043
305 0.287259
310 0.265832
315 0.177109
320 0.230604
325 0.204976
330 0.140116
335 0.219324
340 0.199228
345 0.229086
350 0.220133
355 0.246247
360 0.197736
365 0.228502
370 0.251699
375 0.206779
380 0.235544
385 0.17859
390 0.269817
395 0.222948
400 0.197636
405 0.156464
410 0.198509
415 0.230635
420 0.267809
425 0.248292
430 0.145734
435 0.212376
440 0.208132
445 0.197236
450 0.206686
455 0.266178
460 0.268204
465 0.347793
470 0.326028
475 0.240647
480 0.344433
485 0.241434
490 0.270089
495 0.220762
500 0.389033
505 0.230655
510 0.306777
515 0.472219
520 0.5381
525 9.38851
530 168.405
535 273.487
540 74.2079
545 9.34152
550 1.93087
555 0.9637
560 0.886271
565 0.716385
570 0.600367
575 0.582525
580 0.575712
585 0.396748
590 0.417323
595 0.294759
600 0.406426
Ex : 543
200 0.203087
205 0.331423
210 0.212607
215 0.198901
220 0.165597
225 0.184962
230 0.152045
235 0.224288
240 0.220032
245 0.18609
250 0.22202
255 0.177193
260 0.291367
265 0.190841
270 0.212662
275 0.248892
280 0.256456
285 0.28475
290 0.242859
295 0.225231
300 0.283242
305 0.198486
310 0.245136
315 0.226195
320 0.298986
325 0.236654
330 0.330281
335 0.259287
340 0.228683
345 0.303523
350 0.218521
355 0.235678
360 0.230864
365 0.176627
370 0.275918
375 0.248125
380 0.174596
385 0.241056
390 0.29612
395 0.300797
400 0.261371
405 0.271787
410 0.219341
415 0.229283
420 0.258009
425 0.26602
430 0.262713
435 0.235266
440 0.197071
445 0.262359
450 0.247968
455 0.303713
460 0.315396
465 0.306494
470 0.205534
475 0.187729
480 0.331444
485 0.297874
490 0.384605
495 0.253933
500 0.230444
505 0.294106
510 0.287151
515 0.337649
520 0.527947
525 0.544426
530 8.96628
535 162.368
540 270.855
545 76.9126
550 9.67269
555 1.92617
560 0.879594
565 0.825598
570 0.616799
575 0.450025
580 0.620742
585 0.504969
590 0.378576
595 0.382998
600 0.421227
Ex : 548
200 0.170833
205 0.249238
210 0.257491
215 0.223788
220 0.205837
225 0.207451
230 0.240023
235 0.22074
240 0.206278
245 0.176238
250 0.36649
255 0.222763
260 0.290426
265 0.374374
270 0.376491
275 0.305473
280 0.311118
285 0.218885
290 0.179613
295 0.245871
300 0.238395
305 0.1959
310 0.26826
315 0.245485
320 0.201815
325 0.19133
330 0.299441
335 0.262215
340 0.262586
345 0.251153
350 0.30897
355 0.254917
360 0.274282
365 0.320098
370 0.229604
375 0.227055
380 0.257113
385 0.25584
390 0.163971
395 0.288363
400 0.235859
405 0.255869
410 0.320229
415 0.328122
420 0.269561
425 0.264443
430 0.313149
435 0.270996
440 0.274293
445 0.219445
450 0.236233
455 0.163546
460 0.225214
465 0.266993
470 0.237209
475 0.237235
480 0.185234
485 0.227115
490 0.217028
495 0.230168
500 0.261891
505 0.255692
510 0.345377
515 0.279213
520 0.337686
525 0.389642
530 0.564834
535 9.36654
540 163.909
545 266.468
550 74.0948
555 9.26249
560 1.7998
565 0.71736
570 0.627819
575 0.539559
580 0.523853
585 0.449379
590 0.343282
595 0.431029
600 0.463648
Ex : 553
200 0.366269
205 0.199134
210 0.243321
215 0.306776
220 0.204254
225 0.204593
230 0.220002
235 0.230462
240 0.276819
245 0.200119
250 0.210582
255 0.161401
260 0.212931
265 0.274404
270 0.25957
275 0.282173
280 0.189751
285 0.252998
290 0.278389
295 0.224056
300 0.232656
305 0.205958
310 0.330729
315 0.229884
320 0.248415
325 0.246181
330 0.216932
335 0.199992
340 0.24246
345 0.238628
350 0.188654
355 0.256164
360 0.202245
365 0.260798
370 0.398461
375 0.215645
380 0.22218
385 0.328032
390 0.261431
395 0.216729
400 0.190532
405 0.254578
410 0.231771
415 0.269819
420 0.219024
425 0.285423
430 0.228988
435 0.288063
440 0.260625
445 0.263803
450 0.338337
455 0.267257
460 0.363904
465 0.250794
470 0.377029
475 0.340305
480 0.277314
485 0.216474
490 0.40573
495 0.29324
500 0.306913
505 0.263336
510 0.238058
515 0.273002
520 0.323487
525 0.338167
530 0.350589
535 0.582443
540 8.57565
545 156.276
550 261.484
555 73.1336
560 9.1887
565 1.64455
570 0.761805
575 0.615124
580 0.495402
585 0.4171
590 0.484825
595 0.429548
600 0.0596228
Ex : 558
200 0.370079
205 0.327003
210 0.191839
215 0.273935
220 0.176629
225 0.202997
230 0.219006
235 0.245747
240 0.177702
245 0.303781
250 0.244819
255 0.314572
260 0.237536
265 0.29977
270 0.18036
275 0.241943
280 0.278588
285 0.192998
290 0.277942
295 0.208843
300 0.206756
305 0.241508
310 0.214629
315 0.212594
320 0.267711
325 0.226621
330 0.254639
335 0.205611
340 0.239142
345 0.226577
350 0.268157
355 0.282792
360 0.240645
365 0.257365
370 0.339682
375 0.341245
380 0.312098
385 0.408481
390 0.353439
395 0.329496
400 0.204408
405 0.286876
410 0.270028
415 0.300465
420 0.274607
425 0.268219
430 0.203197
435 0.326468
440 0.290446
445 0.259535
450 0.225695
455 0.24264
460 0.241514
465 0.252006
470 0.310208
475 0.283144
480 0.189554
485 0.200626
490 0.243227
495 0.200989
500 0.251519
505 0.351451
510 0.303911
515 0.255239
520 0.246758
525 0.447259
530 0.371219
535 0.40918
540 0.507227
545 8.20392
550 150.159
555 262.863
560 74.0876
565 9.30595
570 1.754
575 0.692813
580 0.567121
585 0.487713
590 0.397765
595 0.326336
600 0.603322
Ex : 563
200 0.205039
205 0.196101
210 0.198906
215 0.245783
220 0.236552
225 0.224004
230 0.215735
235 0.242699
240 0.210195
245 0.289821
250 0.26329
255 0.334836
260 0.241098
265 0.201446
270 0.25264
275 0.285057
280 0.207169
285 0.242475
290 0.199234
295 0.200021
300 0.298086
305 0.320598
310 0.353797
315 0.295157
320 0.271022
325 0.254678
330 0.236653
335 0.226604
340 0.189493
345 0.214282
350 0.242359
355 0.267759
360 0.211702
365 0.233163
370 0.226089
375 0.284119
380 0.235079
385 0.153759
390 0.242243
395 0.301083
400 0.321761
405 0.280668
410 0.263247
415 0.273869
420 0.290522
425 0.248782
430 0.186522
435 0.211039
440 0.363682
445 0.257301
450 0.305717
455 0.307165
460 0.336583
465 0.362662
470 0.282999
475 0.246266
480 0.227109
485 0.210673
490 0.273817
495 0.320449
500 0.393155
505 0.236853
510 0.319007
515 0.279236
520 0.383805
525 0.261949
530 0.428703
535 0.338736
540 0.396985
545 0.622105
550 7.57688
555 143.217
560 247.233
565 71.0019
570 8.84466
575 1.50415
580 0.614405
585 0.508931
590 0.394145
595 0.367244
600 0.589318
Ex : 568
200 0.320887
205 0.270198
210 0.195759
215 0.248704
220 0.226929
225 0.308993
230 0.226185
235 0.265193
240 0.322457
245 0.251477
250 0.331825
255 0.297257
260 0.257794
265 0.236321
270 0.254486
275 0.207984
280 0.224843
285 0.211566
290 0.249436
295 0.418521
300 0.278014
305 0.25148
310 0.340009
315 0.313822
320 0.32118
325 0.240853
330 0.250226
335 0.162026
340 0.285434
345 0.234522
350 0.166952
355 0.308075
360 0.262125
365 0.256376
370 0.254716
375 0.279848
380 0.256434
385 0.233037
390 0.291748
395 0.302817
400 0.388047
405 0.265149
410 0.352289
415 0.245477
420 0.156424
425 0.345962
430 0.178882
435 0.235312
440 0.33767
445 0.291309
450 0.249706
455 0.327453
460 0.330298
465 0.314038
470 0.332117
475 0.357247
480 0.33387
485 0.278949
490 0.286087
495 0.379501
500 0.347748
505 0.31638
510 0.236037
515 0.252714
520 0.186709
525 0.267763
530 0.256732
535 0.217177
540 0.341136
545 0.396924
550 0.603841
555 5.76061
560 132.217
565 243.424
570 73.3581
575 9.12708
580 1.49917
585 0.476206
590 0.4729
595 0.390958
600 0.191249
Ex : 573
200 0.216576
205 0.195489
210 0.26819
215 0.29934
220 0.26506
225 0.257513
230 0.278445
235 0.228749
240 0.271727
245 0.330196
250 0.288889
255 0.254605
260 0.240501
265 0.185722
270 0.343689
275 0.240874
280 0.239326
285 0.2152
290 0.291157
295 0.180449
300 0.230376
305 0.180803
310 0.365258
315 0.323041
320 0.204526
325 0.271932
330 0.22919
335 0.273183
340 0.224482
345 0.18201
350 0.231178
355 0.288998
360 0.259109
365 0.328576
370 0.236614
375 0.350179
380 0.268644
385 0.41486
390 0.287334
395 0.265029
400 0.192568
405 0.313646
410 0.272865
415 0.271878
420 0.392763
425 0.285046
430 0.274878
435 0.341142
440 0.286521
445 0.266851
450 0.2512
455 0.32495
460 0.233256
465 0.289851
470 0.328721
475 0.397899
480 0.326246
485 0.226779
490 0.238255
495 0.295816
500 0.2122
505 0.280502
510 0.314622
515 0.266173
520 0.274863
525 0.272475
530 0.229751
535 0.259387
540 0.295666
545 0.277639
550 0.337503
555 0.529845
560 5.24075
565 112.466
570 222.534
575 68.7453
580 8.40806
585 1.29756
590 0.533985
595 0.383452
600 0.0436354
Ex : 578
200 0.282756
205 0.209358
210 0.196396
215 0.277874
220 0.230182
225 0.302251
230 0.234007
235 0.336055
240 0.184318
245 0.270316
250 0.274212
255 0.254157
260 0.252028
265 0.251558
270 0.309719
275 0.212663
280 0.331201
285 0.254879
290 0.251366
295 0.251229
300 0.254522
305 0.307459
310 0.322265
315 0.254007
320 0.343197
325 0.195592
330 0.28963
335 0.298642
340 0.259842
345 0.239068
350 0.274425
355 0.310429
360 0.298635
365 0.199454
370 0.33981
375 0.277757
380 0.327107
385 0.500004
390 0.304586
395 0.345754
400 0.314288
405 0.255141
410 0.305463
415 0.401896
420 0.260196
425 0.363732
430 0.235337
435 0.290427
440 0.316865
445 0.222035
450 0.325863
455 0.239238
460 0.171621
465 0.294937
470 0.21385
475 0.188354
480 0.387865
485 0.332686
490 0.291208
495 0.25232
500 0.310003
505 0.247854
510 0.386078
515 0.226096
520 0.311863
525 0.219524
530 0.273076
535 0.327663
540 0.320209
545 0.333806
550 0.408359
555 0.474297
560 0.47723
565 4.80394
570 99.8979
575 192.678
580 59.0971
585 7.36605
590 1.22804
595 0.381398
600 0.289569
Ex : 583
200 0.24384
205 0.246414
210 0.30298
215 0.25143
220 0.29385
225 0.374275
230 0.324037
235 0.280413
240 0.275122
245 0.287107
250 0.295887
255 0.374121
260 0.331632
265 0.256638
270 0.287372
275 0.304066
280 0.181266
285 0.244784
290 0.222717
295 0.366671
300 0.234194
305 0.231358
310 0.190131
315 0.295261
320 0.275016
325 0.285018
330 0.268019
335 0.292205
340 0.192508
345 0.203508
350 0.252785
355 0.375238
360 0.312957
365 0.221246
370 0.29084
375 0.190051
380 0.245716
385 0.301211
390 0.357184
395 0.22867
400 0.226783
405 0.22858
410 0.341635
415 0.31809
420 0.338146
425 0.338437
430 0.27556
435 0.302518
440 0.320047
445 0.261507
450 0.26745
455 0.25499
460 0.270142
465 0.203726
470 0.29978
475 0.262406
480 0.338389
485 0.334876
490 0.239069
495 0.215914
500 0.331684
505 0.294297
510 0.326569
515 0.283575
520 0.361744
525 0.387585
530 0.333735
535 0.342506
540 0.251677
545 0.259699
550 0.335784
555 0.348185
560 0.375857
565 0.410458
570 3.87547
575 88.4391
580 169.084
585 48.3994
590 5.90837
595 1.06617
600 0.165636
Ex : 588
200 0.320237
205 0.388097
210 0.179369
215 0.263588
220 0.244947
225 0.284514
230 0.266704
235 0.225047
240 0.296948
245 0.2575
250 0.391648
255 0.213436
260 0.313233
265 0.281961
270 0.28186
275 0.320486
280 0.207761
285 0.210393
290 0.461656
295 0.216739
300 0.243703
305 0.228964
310 0.185109
315 0.229509
320 0.295982
325 0.426403
330 0.403857
335 0.330904
340 0.241492
345 0.267449
350 0.347776
355 0.252139
360 0.245418
365 0.295766
370 0.253168
375 0.319253
380 0.331001
385 0.265924
390 0.266979
395 0.247805
400 0.234724
405 0.23955
410 0.378261
415 0.449696
420 0.46392
425 0.384454
430 0.265261
435 0.337081
440 0.245761
445 0.295302
450 0.248938
455 0.225524
460 0.249679
465 0.227926
470 0.301394
475 0.251099
480 0.397212
485 0.377645
490 0.208648
495 0.203651
500 0.263599
505 0.289998
510 0.274363
515 0.255432
520 0.237632
525 0.290537
530 0.307453
535 0.416928
540 0.283368
545 0.356326
550 0.265087
555 0.395221
560 0.310049
565 0.303805
570 0.360234
575 3.65717
580 75.481
585 146.678
590 45.573
595 5.70217
600 0.78674
Ex : 593
200 0.356001
205 0.211591
210 0.277749
215 0.381207
220 0.282765
225 0.234083
230 0.310603
235 0.357721
240 0.273902
245 0.396009
250 0.318643
255 0.335667
260 0.377378
265 0.290786
270 0.227535
275 0.282668
280 0.358326
285 0.244403
290 0.364179
295 0.25876
300 0.271004
305 0.272935
310 0.226197
315 0.373348
320 0.29228
325 0.253951
330 0.337345
335 0.288428
340 0.212917
345 0.283967
350 0.201678
355 0.388753
360 0.301729
365 0.220422
370 0.232374
375 0.401859
380 0.307437
385 0.258575
390 0.400322
395 0.260746
400 0.25282
405 0.330206
410 0.314105
415 0.320811
420 0.304771
425 0.267885
430 0.38129
435 0.36407
440 0.24059
445 0.354885
450 0.211818
455 0.277211
460 0.299533
465 0.300094
470 0.261691
475 0.259165
480 0.211101
485 0.336461
490 0.236645
495 0.370576
500 0.35253
505 0.202513
510 0.339769
515 0.384164
520 0.242556
525 0.434919
530 0.314955
535 0.328619
540 0.458264
545 0.354055
550 0.296301
555 0.231401
560 0.406742
565 0.41664
570 0.477221
575 0.395065
580 3.35169
585 67.9323
590 130.964
595 38.4077
600 5.52478
Ex : 598
200 0.194027
205 0.226283
210 0.322646
215 0.387306
220 0.213838
225 0.256823
230 0.233455
235 0.273547
240 0.353384
245 0.307544
250 0.302521
255 0.151581
260 0.297528
265 0.290318
270 0.3128
275 0.276614
280 0.250808
285 0.305063
290 0.442781
295 0.285509
300 0.490603
305 0.279014
310 0.343595
315 0.273703
320 0.246249
325 0.249702
330 0.258185
335 0.295259
340 0.358437
345 0.357105
350 0.399728
355 0.293391
360 0.255451
365 0.226003
370 0.331258
375 0.303591
380 0.211172
385 0.271893
390 0.274822
395 0.253899
400 0.351508
405 0.28347
410 0.324055
415 0.331476
420 0.369597
425 0.443878
430 0.345102
435 0.278957
440 0.295173
445 0.300518
450 0.314755
455 0.22818
460 0.281322
465 0.440503
470 0.369917
475 0.450263
480 0.384122
485 0.234927
490 0.218202
495 0.268537
500 0.382595
505 0.297107
510 0.231279
515 0.330566
520 0.298376
525 0.309681
530 0.299975
535 0.364903
540 0.257064
545 0.24826
550 0.192729
555 0.319513
560 0.295356
565 0.300519
570 0.439359
575 0.423596
580 0.364274
585 2.62898
590 58.035
595 106.882
600 65.3559
Ex : 603
200 0.25035
205 0.333408
210 0.401048
215 0.303234
220 0.336548
225 0.29038
230 0.280424
235 0.293214
240 0.332456
245 0.259696
250 0.230344
255 0.359616
260 0.204383
265 0.335153
270 0.278253
275 0.400886
280 0.402709
285 0.327411
290 0.23322
295 0.321641
300 0.395951
305 0.306976
310 0.235349
315 0.345801
320 0.330642
325 0.325192
330 0.39659
335 0.303017
340 0.319295
345 0.26498
350 0.244194
355 0.201141
360 0.25216
365 0.402523
370 0.369645
375 0.446951
380 0.292294
385 0.398852
390 0.307707
395 0.295286
400 0.309322
405 0.337286
410 0.273693
415 0.285529
420 0.230447
425 0.31694
430 0.336704
435 0.36175
440 0.382536
445 0.356655
450 0.370519
455 0.248361
460 0.214605
465 0.339847
470 0.251462
475 0.260738
480 0.326501
485 0.335825
490 0.316635
495 0.423556
500 0.326955
505 0.460787
510 0.269742
515 0.269708
520 0.280422
525 0.323442
530 0.283834
535 0.253672
540 0.354028
545 0.476586
550 0.315491
555 0.293261
560 0.208069
565 0.286038
570 0.359797
575 0.39807
580 0.49018
585 0.356198
590 2.51542
595 48.3287
600 96.7858
