File format V 1.0
jeu. 12. janv. 20:05:39 2017
Operator : 
Comments : 

=============================================
SpectroFluorometer parameters
Mode : 3D measurement
Data : Fluorescence
Phospho. : Ordinary
Spectrum : Fluorescence

Scan speed : 2400 nm/mn
Response : 100 ms
PM Voltage : 700 V
Shutter : On

Lambda Ex. Start : 203
Lambda Ex. End : 603
Lambda Ex. Step : 5
Ex. Slit : 5 nm

Lambda Em. Start : 200
Lambda Em. End : 600
Lambda Em. Step : 5
Em. Slit : 5 nm

Repetition : 1
Decal lambda em : 10
=============================================
DATA
Ex : 203
200 9.15814
205 7.40711
210 9.90847
215 10.6968
220 6.74945
225 8.3538
230 9.41259
235 5.95545
240 6.9767
245 6.77162
250 5.5396
255 7.00589
260 6.88163
265 8.77223
270 7.82775
275 7.18587
280 7.67183
285 10.1969
290 7.43863
295 9.31372
300 9.97207
305 6.18528
310 5.91658
315 5.6317
320 7.94559
325 5.75584
330 8.55377
335 8.83791
340 13.3719
345 10.3345
350 11.4348
355 8.09396
360 5.32549
365 7.40459
370 6.78917
375 7.6323
380 6.97396
385 8.04437
390 8.34824
395 5.90949
400 12.3367
405 8.70409
410 6.17774
415 10.858
420 8.03393
425 12.278
430 10.3077
435 6.52696
440 9.66838
445 7.44915
450 6.33433
455 7.13774
460 7.17256
465 6.41063
470 9.41256
475 9.69261
480 7.11984
485 6.44578
490 5.29461
495 8.63243
500 6.40673
505 8.53689
510 5.18194
515 9.12366
520 7.9314
525 7.63597
530 12.2706
535 9.38521
540 9.22952
545 6.59015
550 6.23203
555 7.28999
560 8.23478
565 8.8515
570 8.5609
575 7.59623
580 5.89457
585 8.81839
590 8.35197
595 8.07934
600 13.9171
Ex : 208
200 8.65278
205 8.77755
210 10.2366
215 10.4189
220 8.32316
225 9.46996
230 10.3141
235 6.33176
240 10.2263
245 6.16502
250 6.88857
255 8.53185
260 8.08039
265 13.4069
270 9.83223
275 10.8671
280 7.93429
285 9.24557
290 7.83221
295 8.33539
300 7.76516
305 8.28532
310 4.97104
315 7.98068
320 8.84942
325 8.02034
330 7.31166
335 10.805
340 10.9907
345 7.98083
350 7.03492
355 7.96724
360 8.36873
365 8.38592
370 8.51656
375 9.10416
380 9.59421
385 7.81807
390 8.46112
395 8.40435
400 9.23493
405 7.02409
410 8.7103
415 7.68878
420 7.51012
425 7.82018
430 7.38321
435 6.58037
440 6.69731
445 6.86951
450 8.39189
455 5.9459
460 6.72573
465 7.88697
470 9.04542
475 6.80509
480 11.9528
485 7.62878
490 7.82938
495 9.89445
500 11.3965
505 10.2391
510 10.4594
515 7.06299
520 6.30329
525 5.75835
530 5.70333
535 6.92284
540 5.42758
545 7.3231
550 10.8442
555 7.7895
560 8.81209
565 6.71967
570 7.51473
575 8.80566
580 8.58356
585 9.29794
590 7.58036
595 6.55903
600 1.6326
Ex : 213
200 9.23077
205 8.84815
210 6.78967
215 7.03818
220 5.913
225 8.50605
230 6.28111
235 8.01049
240 6.94503
245 7.13937
250 9.71627
255 9.51219
260 5.62997
265 4.74153
270 6.65059
275 5.34637
280 5.21994
285 6.45105
290 6.14438
295 9.10286
300 9.35775
305 6.53053
310 10.2231
315 7.60368
320 9.16137
325 7.07375
330 8.14839
335 8.5653
340 8.71043
345 5.19853
350 9.90089
355 7.3772
360 7.16892
365 10.0534
370 8.9606
375 7.14293
380 6.38818
385 6.72332
390 10.0143
395 8.80006
400 8.13576
405 7.89189
410 6.37909
415 11.62
420 5.68325
425 6.69453
430 9.48257
435 7.22658
440 6.61222
445 8.04273
450 8.41842
455 11.81
460 5.63436
465 10.519
470 7.95384
475 5.06024
480 7.48664
485 7.62122
490 7.49797
495 5.90254
500 8.00608
505 13.8274
510 7.89181
515 8.98361
520 5.95619
525 6.18925
530 17.6762
535 8.29851
540 6.65719
545 9.27944
550 7.08532
555 6.76986
560 7.3722
565 10.0684
570 7.28981
575 7.73866
580 4.38304
585 9.83867
590 6.93193
595 7.47246
600 3.63555
Ex : 218
200 9
205 7.60029
210 10.1849
215 8.07551
220 7.78198
225 8.11628
230 5.93977
235 5.96107
240 10.2824
245 9.59318
250 9.03824
255 8.91976
260 6.45713
265 8.05269
270 8.27353
275 6.97876
280 6.91816
285 6.65328
290 6.93954
295 5.9901
300 6.40987
305 9.64001
310 4.84846
315 7.63732
320 6.87228
325 9.73888
330 9.01234
335 5.49762
340 6.91641
345 8.13734
350 7.14576
355 6.61228
360 11.3222
365 7.34479
370 7.0642
375 5.26787
380 7.62125
385 6.48833
390 7.72131
395 6.80332
400 8.5806
405 8.9726
410 8.0516
415 10.3624
420 9.44903
425 7.0446
430 7.41125
435 8.08863
440 6.82568
445 8.52899
450 8.17692
455 6.56919
460 6.86107
465 6.48884
470 7.49935
475 8.55313
480 6.59028
485 6.46011
490 7.86039
495 6.2919
500 10.9345
505 9.48078
510 11.0821
515 9.64292
520 9.30615
525 8.71144
530 10.3566
535 7.61475
540 7.88495
545 6.87173
550 9.24917
555 11.8858
560 9.93766
565 12.3435
570 7.3952
575 9.42259
580 8.14592
585 6.99625
590 7.18251
595 8.22687
600 24.5683
Ex : 223
200 6.73756
205 7.29093
210 7.0255
215 6.03426
220 5.55688
225 7.8003
230 8.24557
235 7.34865
240 5.62493
245 6.12399
250 6.67876
255 6.51639
260 7.5198
265 9.13367
270 6.74865
275 5.47443
280 5.55863
285 8.48415
290 7.71935
295 11.2502
300 8.81099
305 9.36
310 10.2926
315 8.32623
320 7.76882
325 5.63368
330 7.03864
335 9.21595
340 10.608
345 9.99668
350 6.16855
355 6.53246
360 6.75119
365 8.27853
370 9.07184
375 9.07697
380 8.56151
385 7.24465
390 7.63335
395 7.10721
400 7.73956
405 9.16674
410 8.20594
415 6.07457
420 7.90398
425 7.44278
430 9.20073
435 6.61237
440 7.22012
445 16.1756
450 8.46887
455 8.17996
460 7.25623
465 8.37667
470 6.3631
475 6.39826
480 10.9862
485 8.08426
490 5.72056
495 4.55594
500 6.43344
505 7.53864
510 8.96625
515 9.74073
520 9.22528
525 8.32962
530 6.78951
535 8.51325
540 8.51554
545 8.62633
550 8.71131
555 7.73146
560 6.1666
565 6.01023
570 11.6453
575 8.94492
580 10.8247
585 10.0006
590 9.11787
595 7.80801
600 0.888522
Ex : 228
200 4.67105
205 5.58619
210 6.52894
215 7.69017
220 7.50017
225 6.40599
230 9.0042
235 10.2041
240 7.37602
245 9.4242
250 7.62229
255 8.65416
260 6.7193
265 9.65904
270 10.4378
275 8.86168
280 8.94881
285 8.62561
290 5.59216
295 7.1421
300 5.83057
305 8.82132
310 8.92706
315 6.72995
320 7.35843
325 6.55889
330 7.86145
335 7.93931
340 7.76108
345 9.98366
350 9.3004
355 7.79039
360 9.28585
365 6.89724
370 7.97854
375 8.19355
380 7.7044
385 5.01369
390 7.18081
395 8.65821
400 11.6117
405 10.4011
410 6.55318
415 9.40326
420 6.96094
425 8.73559
430 8.01465
435 9.57409
440 5.42682
445 5.42501
450 7.05984
455 6.0182
460 7.87544
465 8.32754
470 11.5292
475 9.0161
480 8.00437
485 7.69208
490 7.83056
495 5.66326
500 7.92428
505 7.87767
510 9.64003
515 6.91775
520 6.2857
525 9.37095
530 9.69909
535 7.73153
540 8.57702
545 11.3363
550 9.26586
555 9.20203
560 7.54182
565 5.27291
570 9.57889
575 7.55194
580 6.71167
585 8.33938
590 8.52962
595 7.10317
600 7.89794
Ex : 233
200 6.3786
205 7.22341
210 6.69692
215 6.48628
220 9.14948
225 7.91021
230 7.27219
235 8.25774
240 7.90169
245 7.08733
250 7.52969
255 6.22031
260 8.23123
265 5.33062
270 6.74277
275 4.77596
280 6.56531
285 7.92536
290 7.24871
295 6.72911
300 5.75705
305 13.8584
310 8.34911
315 6.41759
320 7.58792
325 5.17587
330 7.26226
335 8.37825
340 8.83576
345 5.72432
350 7.95204
355 6.26033
360 7.89411
365 7.16324
370 5.34756
375 6.58946
380 6.39418
385 6.86994
390 8.98192
395 6.06145
400 7.08037
405 4.98089
410 5.21007
415 5.69238
420 6.2617
425 7.89945
430 7.35019
435 7.224
440 6.74543
445 6.67439
450 5.87056
455 6.80161
460 7.10134
465 8.16842
470 4.67774
475 4.62607
480 6.19965
485 5.92711
490 7.19603
495 7.91612
500 6.73236
505 6.82006
510 7.13397
515 7.48509
520 8.0024
525 5.11334
530 6.31928
535 9.44244
540 9.53238
545 6.36505
550 7.17531
555 7.79873
560 9.89459
565 9.89229
570 6.47222
575 7.97763
580 6.72985
585 4.55407
590 5.29936
595 5.87614
600 3.88117
Ex : 238
200 9.32549
205 7.46157
210 8.13829
215 5.43388
220 8.41488
225 5.77192
230 9.55739
235 7.03782
240 6.79618
245 6.83911
250 10.0334
255 7.12629
260 6.66127
265 7.43941
270 5.90663
275 8.07727
280 7.46206
285 7.87088
290 7.92599
295 6.23621
300 7.29929
305 6.74222
310 7.43521
315 10.1529
320 6.65054
325 7.37284
330 5.36771
335 6.65439
340 5.80971
345 6.00637
350 5.30762
355 3.98831
360 5.04065
365 5.2253
370 7.20437
375 5.21364
380 6.81709
385 6.92806
390 6.36688
395 6.08446
400 5.89402
405 9.50393
410 7.55226
415 6.4841
420 7.51555
425 7.86095
430 11.3276
435 10.3393
440 7.24044
445 5.61291
450 4.98009
455 6.45997
460 7.11029
465 6.76698
470 6.1117
475 6.6783
480 4.52808
485 8.49812
490 7.99783
495 11.5446
500 7.47737
505 9.7556
510 9.30667
515 9.34299
520 5.32045
525 5.28245
530 6.58125
535 7.09208
540 7.33505
545 7.81531
550 8.93362
555 9.64995
560 7.67165
565 5.41773
570 5.68951
575 8.98597
580 5.63624
585 7.63842
590 6.82668
595 6.83666
600 0.777986
Ex : 243
200 9.28102
205 6.52905
210 5.60622
215 6.24218
220 4.72041
225 7.59881
230 5.79557
235 7.69176
240 5.77358
245 6.21418
250 4.0364
255 6.62867
260 9.60356
265 6.70226
270 7.37444
275 4.55016
280 6.23443
285 6.96925
290 5.007
295 4.87286
300 4.9047
305 6.35934
310 6.3343
315 6.40313
320 3.76023
325 5.81897
330 5.52364
335 4.80402
340 4.87037
345 5.40922
350 6.74941
355 6.35581
360 5.08758
365 7.34545
370 5.78462
375 5.1649
380 7.21228
385 5.71701
390 6.36199
395 5.40423
400 9.06617
405 6.07378
410 5.81493
415 6.44924
420 8.57633
425 7.71946
430 4.71346
435 4.66364
440 7.73301
445 7.8604
450 5.70922
455 5.3782
460 7.30944
465 5.00306
470 7.05559
475 7.55192
480 7.10589
485 5.50302
490 4.82749
495 5.62254
500 6.46036
505 5.66524
510 5.30795
515 6.21128
520 4.94664
525 6.52961
530 7.34679
535 5.01247
540 5.85412
545 11.1265
550 8.45599
555 8.33041
560 6.80125
565 6.07878
570 5.57238
575 8.95658
580 8.45404
585 4.90072
590 7.04507
595 5.79583
600 6.64142
Ex : 248
200 3.81515
205 5.88194
210 4.67922
215 5.77792
220 6.20809
225 5.15307
230 3.51339
235 3.32268
240 4.83068
245 4.325
250 4.65277
255 5.80333
260 3.09479
265 5.04629
270 6.27165
275 4.92877
280 5.0813
285 5.11304
290 3.96334
295 4.06317
300 4.75565
305 6.97613
310 5.03341
315 4.99042
320 4.80782
325 6.0153
330 4.90783
335 3.86162
340 6.11932
345 4.10918
350 5.275
355 6.21196
360 5.85424
365 5.79217
370 4.05888
375 4.55556
380 4.73475
385 6.02601
390 5.83315
395 6.17452
400 5.80163
405 5.10789
410 5.795
415 5.15927
420 5.25932
425 4.41049
430 5.01228
435 5.49526
440 4.59318
445 4.56734
450 7.49176
455 4.64078
460 5.54729
465 5.89226
470 3.62812
475 6.27959
480 5.79208
485 6.85153
490 5.24332
495 4.82338
500 5.86611
505 4.1032
510 6.24425
515 5.20549
520 4.41395
525 6.62341
530 5.26109
535 5.39767
540 6.24376
545 4.65938
550 5.12485
555 4.72403
560 4.51238
565 5.98519
570 7.52979
575 5.36265
580 3.41656
585 6.03486
590 4.89155
595 5.46757
600 3.1542
Ex : 253
200 3.05115
205 5.38384
210 4.79213
215 4.59073
220 4.48688
225 5.12155
230 4.04557
235 3.28789
240 4.99937
245 2.81832
250 4.30291
255 4.35526
260 2.92589
265 5.29066
270 5.99544
275 4.84151
280 4.33318
285 3.35227
290 3.70358
295 3.86174
300 3.65741
305 4.19189
310 5.26943
315 4.61323
320 4.94451
325 3.59033
330 3.29165
335 4.13291
340 3.33539
345 3.73152
350 4.83941
355 4.13014
360 4.0828
365 3.53603
370 4.96992
375 4.70271
380 5.4251
385 5.50865
390 6.78515
395 5.71764
400 4.34625
405 3.87785
410 4.94348
415 4.49665
420 3.36519
425 4.08484
430 3.85397
435 5.70745
440 4.44109
445 4.73404
450 4.1429
455 5.06505
460 5.22605
465 4.50858
470 4.52896
475 5.34901
480 5.45077
485 4.87266
490 3.87431
495 4.80843
500 5.80595
505 4.97914
510 4.10688
515 3.65585
520 4.8355
525 5.10554
530 4.50876
535 6.52711
540 4.65587
545 3.33238
550 3.32549
555 6.47049
560 4.3399
565 4.08652
570 3.24272
575 5.36273
580 4.15507
585 5.26156
590 2.91669
595 4.15279
600 7.2668
Ex : 258
200 4.06832
205 4.37225
210 3.51289
215 4.08598
220 3.27222
225 3.5099
230 3.77759
235 3.48379
240 2.77599
245 4.35785
250 4.19754
255 4.21251
260 2.85861
265 3.07123
270 4.90017
275 2.77038
280 1.81698
285 3.0818
290 2.91959
295 2.31161
300 3.75451
305 3.83057
310 4.5561
315 3.64898
320 3.45836
325 3.01633
330 4.51373
335 3.2943
340 3.48398
345 4.2225
350 3.9863
355 4.16125
360 4.052
365 2.74832
370 2.79741
375 5.55195
380 3.49797
385 3.78899
390 3.33471
395 3.6158
400 4.19509
405 4.14211
410 3.28679
415 4.68134
420 3.06079
425 3.94297
430 3.75514
435 4.45332
440 4.46918
445 3.93051
450 3.00867
455 3.37643
460 4.3171
465 5.72844
470 4.64447
475 3.22207
480 4.13256
485 3.56738
490 2.77586
495 2.83829
500 2.56791
505 3.93244
510 3.59087
515 2.78468
520 3.48395
525 3.55713
530 3.04115
535 2.89462
540 3.05689
545 6.22239
550 3.87391
555 3.39669
560 4.23529
565 3.14794
570 4.48276
575 3.32184
580 2.40181
585 2.64335
590 3.77342
595 3.08619
600 3.50214
Ex : 263
200 3.33008
205 3.03459
210 3.74269
215 2.4217
220 2.64621
225 3.07126
230 4.0077
235 3.08826
240 2.65907
245 2.29692
250 3.42089
255 2.8058
260 2.78577
265 2.48954
270 2.78535
275 2.59175
280 2.35625
285 2.2002
290 2.52833
295 1.90816
300 3.16333
305 3.22719
310 1.98515
315 2.03511
320 2.45891
325 3.13668
330 2.87991
335 2.08083
340 2.81673
345 3.15698
350 4.05079
355 3.20776
360 2.7381
365 3.39924
370 2.52231
375 3.39538
380 3.15726
385 2.51276
390 2.34019
395 2.67108
400 3.51607
405 2.90429
410 2.22509
415 2.38191
420 3.56097
425 2.09121
430 3.83677
435 3.46336
440 2.74851
445 2.97286
450 3.14338
455 4.33157
460 2.51852
465 2.00557
470 2.61667
475 2.95187
480 3.54878
485 3.58926
490 3.02184
495 2.4376
500 2.50185
505 2.25339
510 2.74456
515 2.66009
520 3.09447
525 3.25365
530 2.97272
535 3.47282
540 2.98291
545 2.48264
550 3.0131
555 3.361
560 2.6592
565 2.97284
570 3.02793
575 2.65659
580 2.55363
585 2.38896
590 3.49858
595 3.22958
600 2.01332
Ex : 268
200 2.25756
205 2.75828
210 2.35455
215 2.23016
220 2.36452
225 1.96457
230 2.21483
235 1.51363
240 2.0418
245 4.59885
250 2.26156
255 1.82286
260 2.1674
265 2.44082
270 3.49829
275 3.14285
280 2.45699
285 2.88937
290 2.84656
295 2.01244
300 2.2858
305 2.31439
310 2.74999
315 2.46334
320 2.45512
325 2.01021
330 1.8625
335 2.95305
340 2.2315
345 2.37796
350 1.96201
355 2.37814
360 3.45211
365 2.04467
370 1.58798
375 1.96983
380 1.47981
385 2.41432
390 2.63914
395 2.15061
400 1.50891
405 2.26756
410 2.51076
415 2.93714
420 2.96086
425 2.01166
430 2.20144
435 2.05304
440 2.27682
445 3.12517
450 2.89238
455 2.45196
460 2.16718
465 2.57116
470 2.88857
475 2.32267
480 3.04366
485 2.75977
490 2.24222
495 2.29916
500 2.80828
505 2.88838
510 2.15126
515 2.13145
520 2.5095
525 2.12769
530 3.76907
535 2.28421
540 3.0739
545 2.51947
550 1.48822
555 2.89713
560 2.10565
565 1.99552
570 2.01805
575 1.68164
580 1.61828
585 2.77415
590 1.83203
595 2.01177
600 2.39521
Ex : 273
200 2.18542
205 1.98512
210 1.95342
215 2.40342
220 1.72106
225 1.36236
230 1.58008
235 1.64142
240 1.7913
245 2.31193
250 1.7096
255 1.66707
260 2.05994
265 2.08115
270 1.62314
275 1.84286
280 1.49298
285 1.0475
290 2.19443
295 2.2932
300 1.50914
305 1.98744
310 1.46302
315 1.42755
320 1.64558
325 2.05941
330 1.93323
335 2.36621
340 2.0814
345 1.81053
350 1.81334
355 2.28111
360 2.08345
365 2.08067
370 2.0282
375 2.21877
380 2.1322
385 1.69868
390 1.48684
395 1.91397
400 2.09578
405 2.26726
410 2.39903
415 1.57366
420 1.79
425 1.95792
430 1.64723
435 1.72226
440 1.64038
445 2.39194
450 2.15574
455 1.55312
460 1.8361
465 1.88572
470 2.29213
475 1.89239
480 2.4323
485 1.80106
490 2.28826
495 2.11094
500 2.78311
505 2.22127
510 2.14598
515 2.50104
520 1.1574
525 1.90981
530 1.95285
535 1.66377
540 2.34573
545 2.64344
550 2.38054
555 1.94832
560 1.45075
565 1.66438
570 1.02135
575 1.18895
580 1.5294
585 1.8757
590 2.21458
595 2.58473
600 2.99303
Ex : 278
200 1.84328
205 1.66193
210 1.04689
215 2.02678
220 1.46068
225 1.11961
230 1.26453
235 1.27729
240 1.88054
245 1.21783
250 0.928271
255 1.21199
260 1.15871
265 1.59814
270 2.23076
275 2.02314
280 1.59989
285 1.41414
290 1.20883
295 1.15376
300 1.57779
305 1.59176
310 1.98562
315 1.65672
320 1.49163
325 1.3104
330 1.14921
335 1.31951
340 1.31718
345 1.54609
350 1.63802
355 1.39001
360 1.31736
365 1.58159
370 1.91809
375 2.03284
380 1.10798
385 2.48056
390 2.08351
395 1.84571
400 2.34735
405 1.75388
410 1.82718
415 1.50117
420 1.56332
425 2.20069
430 1.93509
435 1.73829
440 1.96384
445 1.55595
450 1.69818
455 1.70847
460 1.98334
465 2.00678
470 1.93051
475 1.43762
480 1.85737
485 1.70383
490 2.21128
495 1.48946
500 1.5604
505 1.85413
510 1.51965
515 1.7173
520 1.91794
525 1.93979
530 1.5038
535 1.05733
540 1.75804
545 2.19108
550 1.91961
555 1.66205
560 1.43838
565 1.3014
570 1.55014
575 1.7153
580 1.74077
585 1.56811
590 1.31515
595 1.34883
600 1.69614
Ex : 283
200 1.11842
205 1.25917
210 1.59248
215 1.27173
220 1.3667
225 1.32651
230 1.0079
235 0.942476
240 0.499212
245 1.69026
250 1.17716
255 0.974378
260 0.91128
265 1.40013
270 1.33001
275 1.26902
280 1.45523
285 1.71529
290 1.51044
295 1.50119
300 1.00338
305 1.35999
310 0.991732
315 1.38616
320 0.939646
325 1.07161
330 1.67577
335 1.67318
340 1.20566
345 1.43657
350 1.71168
355 1.10772
360 1.25839
365 1.2988
370 1.5309
375 1.54963
380 1.70001
385 1.57984
390 2.26527
395 1.72435
400 1.22749
405 2.19365
410 1.87829
415 1.37668
420 1.57617
425 1.28355
430 1.4099
435 1.23887
440 1.5349
445 1.38962
450 1.45482
455 1.70918
460 1.63922
465 2.05017
470 1.34023
475 1.50857
480 1.37077
485 1.50799
490 1.44638
495 1.54718
500 1.16015
505 1.50082
510 1.81093
515 1.47913
520 1.27558
525 1.3757
530 1.64061
535 1.75596
540 1.27391
545 1.3688
550 1.04393
555 2.06266
560 1.61626
565 1.60002
570 1.86919
575 1.61084
580 1.3378
585 1.28795
590 1.04547
595 0.771997
600 1.22726
Ex : 288
200 1.08704
205 1.0761
210 0.914559
215 0.823977
220 1.18088
225 1.1006
230 0.939443
235 0.942077
240 1.07427
245 1.2
250 1.11381
255 1.76154
260 0.982756
265 0.883618
270 0.926944
275 0.824396
280 1.17425
285 1.42663
290 1.14468
295 0.907938
300 1.15402
305 1.09156
310 0.926177
315 0.859052
320 0.95817
325 0.836575
330 1.02574
335 1.36216
340 1.04066
345 1.80897
350 1.55495
355 1.14711
360 1.13903
365 1.50926
370 1.3822
375 0.970008
380 1.12216
385 1.38773
390 1.49388
395 1.59524
400 1.4466
405 1.58626
410 1.64588
415 1.3331
420 1.00215
425 1.1867
430 1.66969
435 1.34808
440 1.13783
445 1.59513
450 1.73515
455 1.38291
460 1.61079
465 1.13545
470 0.965844
475 0.790933
480 0.86619
485 1.01448
490 1.3827
495 1.07298
500 1.01322
505 1.28952
510 1.25026
515 1.24615
520 1.22199
525 1.20086
530 1.00283
535 0.825071
540 0.90363
545 0.914958
550 0.911414
555 1.11329
560 1.32841
565 1.42079
570 1.31984
575 1.4227
580 1.16799
585 1.01469
590 0.82796
595 1.04639
600 1.26181
Ex : 293
200 0.872622
205 1.08465
210 1.1045
215 0.926311
220 0.913779
225 0.688202
230 0.637601
235 0.664131
240 0.876138
245 0.954238
250 0.932094
255 0.698602
260 0.750921
265 1.09598
270 0.940214
275 0.878545
280 0.744656
285 1.20661
290 1.05592
295 0.912265
300 1.24795
305 1.01791
310 0.68915
315 1.05875
320 1.04469
325 0.839158
330 0.995425
335 1.02607
340 0.948402
345 0.750155
350 0.860322
355 1.03159
360 1.2808
365 1.42268
370 0.925574
375 1.30625
380 1.08629
385 1.01541
390 0.869127
395 1.15735
400 1.5093
405 1.5229
410 1.48559
415 0.973498
420 1.18097
425 1.12057
430 1.32961
435 0.994817
440 1.22585
445 1.05488
450 1.04551
455 1.46461
460 1.29572
465 1.18888
470 1.27102
475 0.917678
480 0.959166
485 0.787223
490 0.777805
495 1.03187
500 1.09691
505 1.24484
510 1.14995
515 1.10792
520 0.968995
525 1.16088
530 1.12767
535 0.889539
540 0.70614
545 1.23899
550 1.23195
555 1.20232
560 0.948899
565 0.968437
570 0.885691
575 1.07121
580 0.97779
585 0.878966
590 0.674196
595 0.982231
600 0.72227
Ex : 298
200 1.04779
205 0.711112
210 0.574705
215 0.680716
220 0.796695
225 0.560446
230 0.532029
235 0.752304
240 0.564143
245 0.721428
250 0.847435
255 0.878284
260 0.903349
265 0.980527
270 0.707132
275 0.948219
280 0.904191
285 0.707123
290 0.836502
295 0.996381
300 0.623954
305 0.844455
310 0.674371
315 0.718987
320 0.989508
325 0.835112
330 0.99641
335 0.970536
340 1.21025
345 0.891096
350 0.888733
355 0.749556
360 0.796688
365 0.913184
370 0.732081
375 0.88195
380 0.934749
385 1.06305
390 0.912124
395 1.07721
400 0.893706
405 0.78757
410 1.05661
415 1.60265
420 1.03369
425 1.10896
430 0.945113
435 1.46924
440 1.15115
445 1.11835
450 0.953469
455 0.975867
460 1.02224
465 0.751467
470 0.931875
475 0.784727
480 1.26437
485 0.624041
490 0.869931
495 0.707676
500 0.833158
505 1.02433
510 1.00721
515 0.977253
520 0.757057
525 0.881306
530 0.652883
535 0.754349
540 0.905185
545 0.835159
550 0.915507
555 0.742312
560 0.889298
565 1.28605
570 1.15109
575 0.948587
580 1.14212
585 1.12273
590 1.31166
595 1.13389
600 2.05193
Ex : 303
200 0.6983
205 0.689991
210 0.919421
215 0.650775
220 0.669649
225 0.492313
230 0.781196
235 0.502906
240 0.753632
245 0.642682
250 0.735779
255 0.911723
260 0.855542
265 0.663484
270 0.543065
275 0.726364
280 0.739288
285 0.6691
290 0.48324
295 0.555812
300 0.99489
305 0.990641
310 0.652723
315 0.538147
320 0.60859
325 0.522752
330 0.578635
335 0.686154
340 0.800355
345 0.756088
350 0.572569
355 0.855177
360 0.754153
365 0.822029
370 0.831753
375 1.02381
380 0.947975
385 1.06311
390 1.00929
395 0.978479
400 1.05851
405 1.08237
410 0.78958
415 0.88614
420 1.11591
425 0.893021
430 0.790384
435 0.841767
440 0.963079
445 1.16509
450 1.09994
455 0.883965
460 0.64646
465 0.617508
470 0.969266
475 0.887814
480 0.851651
485 0.636389
490 0.815055
495 0.762584
500 0.504194
505 0.621803
510 0.62718
515 0.451222
520 0.912181
525 0.807708
530 0.721752
535 0.843559
540 0.526115
545 0.554926
550 0.625036
555 0.693445
560 0.877971
565 0.602057
570 1.04033
575 0.642067
580 0.691191
585 0.715469
590 1.10649
595 1.03997
600 0.472826
Ex : 308
200 0.557399
205 0.650934
210 0.447748
215 0.500435
220 0.594218
225 0.617931
230 0.552153
235 0.769572
240 0.460421
245 0.521524
250 0.575092
255 0.587432
260 0.543987
265 0.603678
270 0.590719
275 0.583764
280 0.645717
285 0.473821
290 0.508137
295 0.59643
300 0.685809
305 0.824124
310 0.783361
315 0.686823
320 0.495267
325 0.47027
330 0.486104
335 0.593601
340 0.696269
345 0.804559
350 0.890968
355 0.644784
360 1.03936
365 0.814292
370 0.754558
375 0.787971
380 0.731008
385 0.815789
390 1.04604
395 0.988987
400 0.708401
405 0.934968
410 1.01248
415 0.816474
420 0.8713
425 0.740228
430 0.619886
435 0.848813
440 0.883051
445 0.820663
450 0.637321
455 0.781798
460 0.829004
465 0.720638
470 0.678655
475 0.712181
480 0.715807
485 1.09474
490 0.629612
495 0.544968
500 0.99039
505 0.592704
510 0.557369
515 0.943463
520 0.646859
525 0.718483
530 0.751337
535 0.529369
540 0.769572
545 0.507941
550 0.877716
555 0.7742
560 0.62895
565 0.763842
570 0.553394
575 0.598602
580 0.539517
585 0.52987
590 0.68859
595 0.598421
600 1.36912
Ex : 313
200 0.397714
205 0.599169
210 0.451925
215 0.47152
220 0.43921
225 0.751378
230 0.712014
235 0.561063
240 0.617084
245 0.465017
250 0.364359
255 0.380654
260 0.356031
265 0.434263
270 0.50063
275 0.655945
280 0.628047
285 0.508479
290 0.572502
295 0.403473
300 0.487932
305 0.790903
310 0.614118
315 0.525923
320 0.505256
325 0.666505
330 0.633512
335 0.510057
340 0.607521
345 0.725964
350 0.659361
355 0.693969
360 0.886238
365 0.867623
370 1.19024
375 0.979448
380 0.972999
385 1.2346
390 1.19146
395 1.05481
400 1.14132
405 1.16971
410 1.26429
415 1.43297
420 0.993748
425 1.01392
430 0.99147
435 1.08961
440 1.01593
445 1.19893
450 0.889055
455 0.96248
460 0.860897
465 0.811583
470 0.907274
475 0.841972
480 0.68266
485 0.811001
490 0.849379
495 0.82129
500 0.684532
505 0.763815
510 0.639175
515 0.70052
520 0.814962
525 0.631264
530 0.773097
535 0.604702
540 0.661857
545 0.630682
550 0.473389
555 0.70855
560 0.514247
565 0.549169
570 0.676745
575 0.433289
580 0.568272
585 0.355129
590 0.316811
595 0.575764
600 0.0655197
Ex : 318
200 0.491816
205 0.341326
210 0.44075
215 0.443464
220 0.476519
225 0.483835
230 0.401213
235 0.431098
240 0.400791
245 0.365944
250 0.364661
255 0.275797
260 0.598371
265 0.634124
270 0.458318
275 0.557248
280 0.494123
285 0.359707
290 0.491509
295 0.392045
300 0.701526
305 0.520998
310 0.502629
315 0.843817
320 0.594059
325 0.825796
330 0.819136
335 0.91629
340 1.05171
345 1.78598
350 2.14892
355 2.67264
360 3.42417
365 3.95333
370 5.23398
375 5.72234
380 6.56758
385 6.99745
390 7.54589
395 7.60279
400 7.89179
405 7.71995
410 7.50974
415 7.96355
420 8.21235
425 7.52377
430 7.11092
435 6.83278
440 6.73569
445 6.25436
450 5.89002
455 5.47433
460 5.37216
465 5.07787
470 4.76548
475 4.77239
480 3.72898
485 3.38133
490 3.3915
495 3.41682
500 2.54272
505 2.36894
510 1.85912
515 1.61103
520 1.85815
525 1.72139
530 1.45972
535 1.07527
540 1.11136
545 1.02104
550 0.936582
555 1.02747
560 0.895182
565 0.675761
570 0.714015
575 0.524956
580 0.557433
585 0.537231
590 0.518779
595 0.579485
600 0.962217
Ex : 323
200 0.391055
205 0.374361
210 0.391275
215 0.300922
220 0.388768
225 0.324509
230 0.282315
235 0.370387
240 0.446307
245 0.304173
250 0.373248
255 0.376081
260 0.413666
265 0.321201
270 0.400792
275 0.353378
280 0.289818
285 0.312327
290 0.428077
295 0.296423
300 0.442123
305 0.521569
310 0.511025
315 2.23055
320 9.94552
325 4.93473
330 2.04789
335 2.8786
340 4.56688
345 5.43542
350 8.68271
355 11.7085
360 13.0922
365 15.9176
370 18.8844
375 23.0348
380 24.7611
385 26.8788
390 29.1482
395 31.4338
400 32.1146
405 31.8984
410 32.2784
415 31.1301
420 31.3502
425 30.7864
430 29.2853
435 28.1291
440 26.8646
445 25.5867
450 23.7587
455 23.5191
460 21.7794
465 19.5356
470 17.8356
475 16.1024
480 15.1087
485 13.7482
490 13.2126
495 11.6865
500 9.77596
505 9.12957
510 7.64768
515 7.0508
520 6.13217
525 5.01125
530 4.87763
535 3.84806
540 3.58996
545 2.98414
550 2.7374
555 2.2677
560 1.95076
565 1.81397
570 1.45869
575 1.05498
580 1.03382
585 0.87078
590 0.820013
595 0.635427
600 0.515411
Ex : 328
200 0.28006
205 0.342339
210 0.324172
215 0.255601
220 0.36301
225 0.431964
230 0.382594
235 0.491724
240 0.31561
245 0.339378
250 0.287264
255 0.488402
260 0.281116
265 0.375435
270 0.336397
275 0.278262
280 0.419476
285 0.349639
290 0.308897
295 0.387066
300 0.395397
305 0.434294
310 0.492813
315 1.11004
320 23.5325
325 56.862
330 18.8981
335 5.51737
340 5.69872
345 7.07092
350 9.03505
355 12.8062
360 17.6926
365 19.9627
370 21.6904
375 24.3737
380 27.3771
385 31.0921
390 32.5421
395 34.5178
400 35.2752
405 35.1552
410 35.1374
415 35.1934
420 33.8654
425 33.1567
430 31.5736
435 30.2996
440 28.9418
445 26.0514
450 25.3933
455 24.1812
460 22.4419
465 20.814
470 19.3381
475 18.2662
480 16.3546
485 15.4274
490 14.1832
495 12.8047
500 11.3618
505 10.359
510 8.62987
515 7.57528
520 6.54231
525 5.67681
530 5.73667
535 4.49495
540 3.97749
545 3.31907
550 3.08636
555 2.44112
560 2.45434
565 2.08028
570 1.80014
575 1.45418
580 1.3429
585 0.959222
590 0.941201
595 0.778852
600 0.503789
Ex : 333
200 0.26543
205 0.451178
210 0.360049
215 0.401687
220 0.347663
225 0.312975
230 0.235261
235 0.274923
240 0.397402
245 0.414881
250 0.35529
255 0.355177
260 0.44658
265 0.348189
270 0.332397
275 0.346185
280 0.341462
285 0.343707
290 0.377437
295 0.367653
300 0.311278
305 0.287555
310 0.397548
315 0.383272
320 3.45108
325 68.8651
330 120.186
335 33.4934
340 7.27228
345 5.05482
350 5.89594
355 6.68286
360 9.79745
365 14.0739
370 15.3407
375 14.5039
380 15.5811
385 17.0789
390 18.029
395 19.2899
400 19.0499
405 19.7535
410 19.5514
415 19.2385
420 18.5786
425 18.3087
430 17.736
435 16.8468
440 15.7691
445 14.7584
450 14.3382
455 13.5631
460 12.7819
465 12.2611
470 10.8305
475 10.3403
480 9.55188
485 8.70714
490 8.44994
495 7.98296
500 6.52877
505 6.0136
510 5.38302
515 4.80607
520 4.39868
525 3.77973
530 3.36173
535 3.19334
540 2.58256
545 2.34436
550 2.36484
555 2.13893
560 1.74461
565 1.36008
570 1.10178
575 1.11105
580 0.955249
585 0.907489
590 0.598814
595 0.748956
600 1.33888
Ex : 338
200 0.349894
205 0.334478
210 0.329762
215 0.1862
220 0.32854
225 0.277142
230 0.268178
235 0.28424
240 0.275881
245 0.261614
250 0.316148
255 0.368363
260 0.273143
265 0.266614
270 0.267303
275 0.325079
280 0.327066
285 0.284106
290 0.287291
295 0.3867
300 0.285409
305 0.329094
310 0.362666
315 0.498358
320 0.48365
325 6.91
330 107.663
335 163.739
340 40.3872
345 7.29802
350 4.01999
355 4.27198
360 4.35287
365 5.879
370 10.093
375 11.1142
380 9.91521
385 8.31886
390 8.768
395 8.92516
400 9.17975
405 9.16536
410 9.63735
415 9.88258
420 9.19825
425 9.45599
430 9.17111
435 8.92203
440 8.52802
445 7.9536
450 8.45554
455 7.33903
460 7.56477
465 6.79079
470 6.66422
475 6.21308
480 6.19227
485 5.18535
490 5.07277
495 4.72291
500 5.01444
505 4.28831
510 3.59288
515 3.429
520 3.07643
525 2.75093
530 2.43374
535 2.37345
540 2.0444
545 1.74805
550 1.70381
555 1.45508
560 1.29599
565 1.09811
570 0.965779
575 0.890885
580 0.773895
585 0.74051
590 0.863548
595 0.631379
600 0.334427
Ex : 343
200 0.470779
205 0.340133
210 0.295046
215 0.252806
220 0.254885
225 0.236626
230 0.186307
235 0.18696
240 0.224072
245 0.222481
250 0.187354
255 0.189618
260 0.415959
265 0.440592
270 0.299886
275 0.283819
280 0.309651
285 0.309191
290 0.302086
295 0.319093
300 0.336072
305 0.364483
310 0.384672
315 0.221593
320 0.320763
325 0.421814
330 8.43171
335 121.543
340 180.64
345 44.9567
350 7.18616
355 3.36549
360 2.78316
365 2.22206
370 3.67989
375 7.7303
380 8.50346
385 6.86232
390 5.50916
395 5.67405
400 5.77276
405 5.94854
410 6.0565
415 6.71224
420 6.75079
425 6.61202
430 6.68441
435 6.3282
440 6.68366
445 6.61474
450 5.88216
455 5.89814
460 5.65567
465 5.51656
470 5.80372
475 5.15113
480 5.26686
485 4.79991
490 4.53967
495 4.30696
500 4.08511
505 3.64181
510 3.5066
515 2.93583
520 2.94029
525 2.58404
530 2.39922
535 2.07852
540 2.10861
545 1.79928
550 1.57602
555 1.54621
560 1.36813
565 1.19704
570 1.02704
575 0.981428
580 0.767777
585 0.610608
590 0.818383
595 0.626128
600 0.554079
Ex : 348
200 0.295677
205 0.283425
210 0.233349
215 0.317475
220 0.291745
225 0.206686
230 0.225924
235 0.269717
240 0.281927
245 0.197325
250 0.312213
255 0.274433
260 0.33632
265 0.225534
270 0.236163
275 0.232346
280 0.271509
285 0.27392
290 0.232231
295 0.26447
300 0.185707
305 0.255942
310 0.163278
315 0.314114
320 0.249491
325 0.295207
330 0.414039
335 7.81834
340 122.654
345 189.674
350 49.1677
355 7.41586
360 2.88926
365 2.67253
370 2.06344
375 3.02209
380 5.37238
385 7.78524
390 6.24609
395 5.15766
400 4.87817
405 5.01082
410 5.35529
415 5.65792
420 5.90571
425 5.72394
430 6.03776
435 6.56632
440 6.63916
445 6.38195
450 6.09177
455 5.86676
460 6.02693
465 5.75735
470 5.81439
475 5.56009
480 5.47897
485 5.12682
490 4.64465
495 4.75738
500 4.34632
505 3.86636
510 3.36896
515 3.3139
520 3.15388
525 2.86724
530 2.5493
535 2.53003
540 2.1338
545 1.96648
550 1.76332
555 1.59046
560 1.3464
565 1.22131
570 1.14079
575 0.838196
580 0.79585
585 0.638054
590 0.542539
595 0.533544
600 1.16006
Ex : 353
200 0.262369
205 0.270656
210 0.246426
215 0.21818
220 0.308952
225 0.207791
230 0.213978
235 0.281674
240 0.286326
245 0.215715
250 0.224392
255 0.224928
260 0.237471
265 0.222045
270 0.273665
275 0.26574
280 0.264408
285 0.215939
290 0.319892
295 0.231407
300 0.214452
305 0.250892
310 0.346678
315 0.222812
320 0.226028
325 0.235686
330 0.335964
335 0.395272
340 8.46851
345 126.421
350 189.205
355 47.9972
360 7.03962
365 2.62975
370 2.45854
375 2.33503
380 2.39133
385 4.56877
390 7.59262
395 6.29579
400 5.53733
405 5.12547
410 5.20749
415 5.84144
420 5.62696
425 5.82708
430 5.97637
435 6.11835
440 6.17815
445 6.07764
450 5.99164
455 6.10225
460 6.3229
465 6.09049
470 6.17761
475 5.53441
480 5.48473
485 5.15803
490 4.82789
495 4.66231
500 4.39336
505 3.9155
510 3.69417
515 3.59934
520 3.32074
525 2.79712
530 2.74536
535 2.17144
540 2.14648
545 1.85497
550 1.58143
555 1.58306
560 1.56513
565 1.27166
570 0.976348
575 0.889653
580 0.747025
585 0.566426
590 0.616372
595 0.47659
600 0.130631
Ex : 358
200 0.246126
205 0.186124
210 0.231796
215 0.214808
220 0.219486
225 0.197623
230 0.219614
235 0.298271
240 0.2833
245 0.272183
250 0.269325
255 0.296054
260 0.249726
265 0.235522
270 0.282352
275 0.216126
280 0.251692
285 0.177083
290 0.277929
295 0.238867
300 0.149792
305 0.280985
310 0.288083
315 0.23455
320 0.226161
325 0.314832
330 0.236975
335 0.335384
340 0.541315
345 8.07962
350 126.071
355 193.046
360 49.0326
365 7.09906
370 2.81667
375 2.76612
380 2.38394
385 2.36948
390 3.80933
395 7.5852
400 7.62616
405 5.84441
410 5.8069
415 5.55754
420 5.71919
425 5.6618
430 5.80692
435 6.11654
440 6.49342
445 6.86788
450 6.62187
455 6.15101
460 6.38354
465 6.67778
470 6.36072
475 5.88775
480 6.35713
485 5.68457
490 5.27789
495 4.91382
500 5.05933
505 4.4175
510 4.10697
515 3.52952
520 3.5691
525 3.12091
530 2.66184
535 2.63615
540 2.14549
545 2.1743
550 1.89673
555 1.68573
560 1.55927
565 1.32986
570 1.31346
575 1.01382
580 1.0002
585 0.624773
590 0.597415
595 0.551264
600 0.284283
Ex : 363
200 0.251572
205 0.217482
210 0.239518
215 0.206151
220 0.239037
225 0.218908
230 0.21291
235 0.188147
240 0.159959
245 0.198151
250 0.158175
255 0.201305
260 0.211414
265 0.291714
270 0.257399
275 0.263373
280 0.225164
285 0.21859
290 0.193253
295 0.185934
300 0.235345
305 0.161183
310 0.237201
315 0.18781
320 0.243502
325 0.301359
330 0.255126
335 0.295819
340 0.34674
345 0.562118
350 7.17357
355 121.309
360 194.544
365 51.2813
370 7.32824
375 2.79344
380 2.58517
385 2.2932
390 2.19831
395 3.37342
400 6.79254
405 7.73215
410 7.22266
415 6.98846
420 6.03759
425 6.42289
430 6.52515
435 6.90538
440 7.13962
445 7.19089
450 7.05178
455 7.40941
460 7.15434
465 6.96943
470 6.68968
475 6.60719
480 6.46039
485 6.3264
490 6.23346
495 5.37613
500 5.35987
505 4.90843
510 4.7236
515 4.33524
520 3.66417
525 3.39827
530 3.01739
535 2.87056
540 2.62692
545 2.36976
550 2.02997
555 1.69402
560 1.48583
565 1.39886
570 1.18167
575 1.21666
580 0.754
585 0.660637
590 0.56139
595 0.573324
600 0.217352
Ex : 368
200 0.197327
205 0.174032
210 0.1602
215 0.23322
220 0.197104
225 0.214941
230 0.167057
235 0.202185
240 0.172169
245 0.223001
250 0.207606
255 0.244553
260 0.213247
265 0.221201
270 0.159583
275 0.173434
280 0.222451
285 0.179536
290 0.226689
295 0.26505
300 0.199574
305 0.172454
310 0.212498
315 0.220157
320 0.177782
325 0.216035
330 0.313426
335 0.262008
340 0.300064
345 0.258068
350 0.448696
355 6.40732
360 116.481
365 194.58
370 53.0524
375 7.65698
380 2.68183
385 2.54858
390 2.40704
395 2.27242
400 3.02655
405 6.48415
410 9.03519
415 7.73406
420 6.82486
425 5.89245
430 6.23889
435 6.82742
440 7.31248
445 7.42149
450 7.02537
455 6.91445
460 6.96263
465 7.22898
470 7.51035
475 7.17624
480 7.03577
485 6.44737
490 6.56691
495 5.98312
500 5.42533
505 5.45756
510 4.8631
515 4.5007
520 4.14902
525 3.92735
530 3.2657
535 2.93812
540 2.63197
545 2.47725
550 2.27072
555 1.86713
560 1.74998
565 1.5171
570 1.28746
575 1.10158
580 1.01027
585 0.697028
590 0.654562
595 0.573579
600 0.330304
Ex : 373
200 0.195816
205 0.206492
210 0.238748
215 0.236467
220 0.18775
225 0.249861
230 0.22227
235 0.157307
240 0.316655
245 0.192495
250 0.270065
255 0.182008
260 0.199775
265 0.224653
270 0.206225
275 0.158719
280 0.167504
285 0.178126
290 0.230464
295 0.212854
300 0.267441
305 0.203333
310 0.247735
315 0.255888
320 0.153384
325 0.190786
330 0.229128
335 0.235253
340 0.287139
345 0.315651
350 0.286718
355 0.361338
360 7.29829
365 119.443
370 193.038
375 52.6246
380 7.81811
385 2.57701
390 2.8367
395 2.9028
400 2.83871
405 3.22854
410 5.94693
415 8.76729
420 7.70758
425 6.40423
430 6.23645
435 6.18697
440 6.53104
445 6.66038
450 6.49025
455 6.82642
460 6.56221
465 6.93553
470 7.04727
475 6.72297
480 6.55077
485 6.3578
490 6.29019
495 6.02768
500 5.62508
505 5.25879
510 4.92794
515 4.48955
520 3.96306
525 3.62741
530 3.51746
535 3.14046
540 2.9034
545 2.66454
550 2.28602
555 2.0875
560 1.76817
565 1.57642
570 1.50691
575 1.20231
580 0.880161
585 0.726375
590 0.582084
595 0.586197
600 0.490375
Ex : 378
200 0.205062
205 0.187395
210 0.128288
215 0.153507
220 0.209968
225 0.173543
230 0.203113
235 0.177755
240 0.235829
245 0.232126
250 0.194683
255 0.220446
260 0.161901
265 0.176543
270 0.208457
275 0.17307
280 0.223952
285 0.200797
290 0.194239
295 0.108261
300 0.228009
305 0.202396
310 0.149354
315 0.208122
320 0.232415
325 0.275422
330 0.248791
335 0.188181
340 0.229248
345 0.244814
350 0.250915
355 0.398379
360 0.420774
365 6.85664
370 119.758
375 197.211
380 54.3372
385 7.9541
390 2.87852
395 3.06396
400 3.27123
405 3.38256
410 4.24686
415 6.08566
420 8.52814
425 8.32659
430 7.15628
435 6.83763
440 6.68176
445 6.70941
450 6.67922
455 6.6469
460 6.46729
465 6.85294
470 6.76187
475 7.03044
480 6.78698
485 6.45796
490 6.14355
495 5.84063
500 5.81321
505 5.10635
510 4.88458
515 4.54876
520 4.27495
525 3.92122
530 3.46911
535 3.18275
540 2.6839
545 2.40463
550 2.37371
555 2.01337
560 1.67247
565 1.61286
570 1.31534
575 1.09711
580 0.903924
585 0.811003
590 0.611133
595 0.640601
600 0.153796
Ex : 383
200 0.0895804
205 0.203633
210 0.223321
215 0.167957
220 0.200106
225 0.134877
230 0.11453
235 0.162351
240 0.16263
245 0.186544
250 0.146846
255 0.151323
260 0.14119
265 0.239081
270 0.161985
275 0.162176
280 0.200455
285 0.129236
290 0.176532
295 0.241139
300 0.154208
305 0.175034
310 0.191604
315 0.215234
320 0.253417
325 0.210806
330 0.229671
335 0.188236
340 0.170507
345 0.189167
350 0.286674
355 0.244331
360 0.256918
365 0.392463
370 6.18294
375 117.756
380 200.997
385 56.559
390 8.29676
395 2.88428
400 2.80885
405 3.62617
410 4.20908
415 4.8686
420 5.5554
425 8.07313
430 8.38655
435 7.90909
440 7.45309
445 7.33531
450 6.79067
455 6.99005
460 6.96912
465 6.74544
470 6.81299
475 6.65888
480 6.65773
485 6.75154
490 6.30522
495 6.06195
500 5.49497
505 5.4209
510 4.97496
515 4.53586
520 4.16691
525 3.7221
530 3.39274
535 3.21636
540 2.91324
545 2.54312
550 2.40965
555 1.97539
560 1.84248
565 1.55158
570 1.29491
575 1.10555
580 0.980382
585 0.773474
590 0.603812
595 0.55732
600 0.263872
Ex : 388
200 0.195475
205 0.159124
210 0.197751
215 0.22173
220 0.158122
225 0.157138
230 0.132307
235 0.154664
240 0.144015
245 0.192257
250 0.206886
255 0.179607
260 0.154609
265 0.150307
270 0.134454
275 0.143013
280 0.219113
285 0.143046
290 0.204611
295 0.148893
300 0.16392
305 0.194078
310 0.239158
315 0.204165
320 0.143976
325 0.189166
330 0.168943
335 0.175742
340 0.199687
345 0.220145
350 0.22011
355 0.190066
360 0.227476
365 0.33346
370 0.411323
375 6.6826
380 118.886
385 197.598
390 53.9413
395 7.94787
400 3.04662
405 3.42323
410 4.50979
415 4.60019
420 4.7996
425 5.03639
430 7.28737
435 8.97569
440 8.02128
445 7.37828
450 6.66055
455 6.46878
460 6.58841
465 6.8598
470 6.87489
475 6.71262
480 6.71748
485 6.32437
490 6.1993
495 6.05949
500 5.53659
505 5.33429
510 5.01124
515 4.51266
520 4.1621
525 3.84263
530 3.44345
535 3.38368
540 2.94249
545 2.58552
550 2.32825
555 2.02977
560 1.795
565 1.50874
570 1.31812
575 1.21124
580 0.824777
585 0.725054
590 0.584572
595 0.570606
600 0.60874
Ex : 393
200 0.17022
205 0.165012
210 0.145084
215 0.187623
220 0.158103
225 0.141917
230 0.196428
235 0.168576
240 0.177625
245 0.191184
250 0.138848
255 0.16825
260 0.166068
265 0.195314
270 0.149334
275 0.15567
280 0.191891
285 0.169258
290 0.136239
295 0.133781
300 0.155471
305 0.14706
310 0.155881
315 0.170924
320 0.150533
325 0.121128
330 0.150884
335 0.179698
340 0.168035
345 0.156002
350 0.167466
355 0.196677
360 0.26254
365 0.249053
370 0.298151
375 0.385408
380 5.55992
385 117.417
390 197.331
395 55.3482
400 8.18811
405 3.34272
410 3.82988
415 4.28175
420 4.14103
425 3.89969
430 4.33662
435 5.84505
440 8.0716
445 7.62286
450 6.7301
455 6.12183
460 5.66009
465 6.00021
470 6.0353
475 6.10806
480 6.1254
485 5.7387
490 5.71993
495 5.68436
500 5.30721
505 4.95628
510 4.52008
515 4.31457
520 4.07503
525 3.78292
530 3.40496
535 3.09535
540 2.79902
545 2.52907
550 2.24477
555 1.86784
560 1.77537
565 1.52171
570 1.32325
575 1.12412
580 0.86263
585 0.798865
590 0.584237
595 0.467351
600 0.389877
Ex : 398
200 0.194174
205 0.162796
210 0.145953
215 0.171511
220 0.125346
225 0.193678
230 0.183426
235 0.168634
240 0.204199
245 0.180214
250 0.15007
255 0.115968
260 0.137489
265 0.181872
270 0.117628
275 0.131996
280 0.156282
285 0.153351
290 0.133667
295 0.179786
300 0.165487
305 0.141984
310 0.164878
315 0.125254
320 0.141377
325 0.15822
330 0.134647
335 0.16081
340 0.131829
345 0.166331
350 0.187667
355 0.166447
360 0.211952
365 0.193806
370 0.249579
375 0.232943
380 0.322198
385 5.64472
390 115.633
395 199.093
400 55.1852
405 8.5122
410 3.65403
415 3.80267
420 4.02637
425 3.63887
430 3.66594
435 4.02248
440 5.2479
445 7.21133
450 7.20365
455 6.15249
460 5.99652
465 5.8961
470 5.72027
475 5.72956
480 5.61923
485 5.5387
490 5.74427
495 5.34521
500 5.31427
505 4.75244
510 4.84995
515 4.42485
520 3.98173
525 3.41641
530 3.45957
535 3.15224
540 2.86051
545 2.41498
550 2.20436
555 1.95279
560 1.70633
565 1.47931
570 1.23544
575 1.08554
580 0.885736
585 0.646321
590 0.561112
595 0.522706
600 0.399641
Ex : 403
200 0.20973
205 0.17205
210 0.22675
215 0.141853
220 0.170807
225 0.170512
230 0.18425
235 0.149128
240 0.11848
245 0.219855
250 0.189531
255 0.114929
260 0.131447
265 0.15084
270 0.123518
275 0.135885
280 0.144947
285 0.172576
290 0.190525
295 0.18448
300 0.173102
305 0.186883
310 0.186715
315 0.204615
320 0.189647
325 0.14592
330 0.137123
335 0.17432
340 0.18123
345 0.132186
350 0.149127
355 0.182079
360 0.170606
365 0.21356
370 0.210616
375 0.204873
380 0.29783
385 0.367536
390 6.15708
395 118.803
400 195.936
405 55.4468
410 9.00528
415 4.14667
420 3.67008
425 3.68107
430 3.74026
435 4.11061
440 4.62284
445 5.20132
450 7.00062
455 7.19726
460 6.53966
465 6.22637
470 6.08333
475 5.88215
480 5.87547
485 5.57187
490 5.60173
495 5.3094
500 4.9971
505 4.89442
510 4.73631
515 4.3568
520 4.05632
525 3.53836
530 3.37984
535 3.00601
540 2.65674
545 2.36773
550 2.1715
555 2.0144
560 1.80093
565 1.48502
570 1.32773
575 1.13263
580 0.926786
585 0.747778
590 0.597356
595 0.443109
600 0.66559
Ex : 408
200 0.16316
205 0.182781
210 0.149101
215 0.169589
220 0.163654
225 0.161167
230 0.169148
235 0.152042
240 0.210678
245 0.153968
250 0.119931
255 0.141868
260 0.176755
265 0.18062
270 0.199883
275 0.174007
280 0.113697
285 0.12319
290 0.152099
295 0.155067
300 0.145529
305 0.159809
310 0.119458
315 0.132753
320 0.176163
325 0.154296
330 0.167607
335 0.155782
340 0.1819
345 0.173321
350 0.204797
355 0.190457
360 0.220437
365 0.173591
370 0.222951
375 0.165465
380 0.247014
385 0.301689
390 0.445876
395 6.3442
400 119.77
405 200.694
410 54.6043
415 9.14746
420 3.79805
425 3.36894
430 3.76656
435 3.9638
440 3.91577
445 4.10439
450 4.64434
455 6.14197
460 7.51964
465 6.52536
470 6.03391
475 5.77193
480 5.50743
485 5.2794
490 5.05752
495 4.93664
500 4.89294
505 4.63907
510 4.61854
515 4.02146
520 3.76029
525 3.40749
530 3.29753
535 2.90467
540 2.57096
545 2.45847
550 2.19844
555 1.91703
560 1.71952
565 1.4403
570 1.20267
575 0.985076
580 0.834785
585 0.662338
590 0.608249
595 0.456049
600 0.35738
Ex : 413
200 0.197539
205 0.175669
210 0.120813
215 0.113839
220 0.182499
225 0.120287
230 0.145194
235 0.119394
240 0.16882
245 0.19621
250 0.121555
255 0.138151
260 0.197649
265 0.166614
270 0.180005
275 0.140416
280 0.122695
285 0.164004
290 0.181624
295 0.152827
300 0.129808
305 0.100531
310 0.166715
315 0.120095
320 0.164034
325 0.176349
330 0.148911
335 0.17158
340 0.196201
345 0.173167
350 0.214344
355 0.177639
360 0.185429
365 0.191176
370 0.250446
375 0.186221
380 0.249264
385 0.262455
390 0.262858
395 0.439579
400 7.2297
405 128.012
410 201.259
415 53.119
420 8.19546
425 3.08056
430 2.55734
435 3.0455
440 3.12144
445 3.14654
450 3.15863
455 3.49591
460 4.58689
465 6.60428
470 5.92641
475 5.39602
480 5.11599
485 4.96667
490 4.45749
495 4.62704
500 4.2931
505 4.00917
510 3.77695
515 3.57511
520 3.65211
525 3.21093
530 2.89973
535 2.75534
540 2.58673
545 2.38349
550 2.12601
555 1.95054
560 1.662
565 1.4362
570 1.23397
575 1.04285
580 0.874391
585 0.640981
590 0.521381
595 0.458484
600 0.15591
Ex : 418
200 0.141682
205 0.132934
210 0.115032
215 0.0964487
220 0.176043
225 0.156345
230 0.185336
235 0.133014
240 0.152478
245 0.0894199
250 0.15138
255 0.167545
260 0.108423
265 0.142001
270 0.127564
275 0.144052
280 0.159403
285 0.18007
290 0.145991
295 0.15248
300 0.136179
305 0.176129
310 0.169311
315 0.149376
320 0.138279
325 0.18056
330 0.135791
335 0.137197
340 0.10726
345 0.147335
350 0.125129
355 0.166132
360 0.147732
365 0.157383
370 0.163334
375 0.248374
380 0.23261
385 0.195271
390 0.242389
395 0.314729
400 0.445453
405 6.65475
410 121.056
415 197.564
420 54.4093
425 7.44721
430 2.18711
435 1.74728
440 2.25834
445 2.33302
450 2.347
455 2.37871
460 2.41845
465 3.62273
470 5.60684
475 5.83812
480 4.76758
485 4.41977
490 4.16182
495 4.20892
500 3.89569
505 3.73638
510 3.49991
515 3.41075
520 3.22289
525 2.88518
530 2.63481
535 2.58717
540 2.33608
545 2.12992
550 2.03978
555 1.85385
560 1.59544
565 1.39703
570 1.1406
575 0.920284
580 0.852446
585 0.758236
590 0.54616
595 0.444065
600 0.334118
Ex : 423
200 0.172127
205 0.176306
210 0.154635
215 0.149185
220 0.123354
225 0.154247
230 0.136282
235 0.142079
240 0.164331
245 0.159248
250 0.161876
255 0.143246
260 0.130641
265 0.160814
270 0.140276
275 0.140428
280 0.136908
285 0.106511
290 0.166022
295 0.162337
300 0.155572
305 0.161795
310 0.157641
315 0.13186
320 0.166082
325 0.109916
330 0.140321
335 0.15835
340 0.13983
345 0.115658
350 0.161743
355 0.200953
360 0.159175
365 0.194759
370 0.134691
375 0.158045
380 0.193307
385 0.195143
390 0.235273
395 0.300283
400 0.311984
405 0.439552
410 6.49957
415 123.652
420 194.371
425 50.9042
430 6.94293
435 1.93174
440 1.55845
445 1.74107
450 1.92502
455 1.94778
460 2.19241
465 2.39718
470 2.82996
475 4.66249
480 5.23451
485 4.39687
490 4.05475
495 3.9187
500 3.58344
505 3.30653
510 3.38321
515 3.05437
520 2.90313
525 2.73986
530 2.44118
535 2.27623
540 2.03965
545 2.16976
550 1.81318
555 1.69956
560 1.48387
565 1.15632
570 1.04324
575 0.875154
580 0.663878
585 0.614824
590 0.490705
595 0.440941
600 0.20367
Ex : 428
200 0.144135
205 0.167818
210 0.127726
215 0.138084
220 0.120315
225 0.132957
230 0.124495
235 0.131723
240 0.176227
245 0.138947
250 0.198251
255 0.196609
260 0.140978
265 0.147972
270 0.129964
275 0.193997
280 0.135198
285 0.170356
290 0.135027
295 0.133898
300 0.150148
305 0.119251
310 0.142263
315 0.143245
320 0.18981
325 0.130841
330 0.166308
335 0.142786
340 0.134466
345 0.17934
350 0.143797
355 0.152898
360 0.172027
365 0.223905
370 0.161943
375 0.16944
380 0.155996
385 0.177654
390 0.179071
395 0.184192
400 0.263606
405 0.320498
410 0.349253
415 7.31925
420 123.126
425 197.063
430 53.2537
435 7.13291
440 1.76109
445 1.38731
450 1.71247
455 1.82428
460 1.87988
465 2.12634
470 2.25602
475 2.45725
480 3.83966
485 5.101
490 4.39401
495 3.77544
500 3.63164
505 3.00657
510 2.78728
515 2.83708
520 2.49433
525 2.33927
530 2.27924
535 2.17247
540 1.93624
545 1.90904
550 1.71452
555 1.48412
560 1.26691
565 1.15938
570 1.11722
575 0.797828
580 0.736906
585 0.566469
590 0.509507
595 0.422617
600 0.928427
Ex : 433
200 0.111111
205 0.134588
210 0.14632
215 0.159474
220 0.156644
225 0.176025
230 0.158356
235 0.189123
240 0.201203
245 0.110058
250 0.171934
255 0.20665
260 0.14191
265 0.114584
270 0.18557
275 0.183366
280 0.155461
285 0.145023
290 0.134971
295 0.135136
300 0.183971
305 0.160237
310 0.119156
315 0.0982101
320 0.184071
325 0.144876
330 0.119829
335 0.157083
340 0.15791
345 0.21469
350 0.106895
355 0.186232
360 0.159887
365 0.173262
370 0.203434
375 0.180797
380 0.178863
385 0.212287
390 0.202882
395 0.196633
400 0.151056
405 0.241067
410 0.300067
415 0.414345
420 7.78685
425 131.829
430 201.563
435 51.7079
440 6.94427
445 1.85658
450 1.35099
455 1.72541
460 1.98097
465 1.85697
470 1.91867
475 2.12047
480 2.37699
485 3.22118
490 4.93943
495 4.31561
500 3.5282
505 3.11738
510 2.72906
515 2.54865
520 2.43049
525 2.27529
530 2.26122
535 1.95197
540 1.80827
545 1.75242
550 1.6215
555 1.53873
560 1.30685
565 1.17158
570 0.92621
575 0.948003
580 0.683926
585 0.559999
590 0.487887
595 0.414516
600 0.862002
Ex : 438
200 0.104324
205 0.211842
210 0.151413
215 0.171691
220 0.164895
225 0.200501
230 0.131491
235 0.140919
240 0.176288
245 0.166339
250 0.106813
255 0.164159
260 0.128981
265 0.148816
270 0.135439
275 0.139961
280 0.139409
285 0.163212
290 0.128626
295 0.141268
300 0.121173
305 0.106493
310 0.151477
315 0.162987
320 0.136305
325 0.174419
330 0.199118
335 0.140862
340 0.151285
345 0.160478
350 0.106466
355 0.162261
360 0.154695
365 0.18971
370 0.177178
375 0.201311
380 0.194184
385 0.156104
390 0.180431
395 0.208892
400 0.176809
405 0.214646
410 0.23442
415 0.317436
420 0.385428
425 7.53666
430 130.063
435 208.027
440 54.3352
445 7.29833
450 1.96367
455 1.40645
460 1.79961
465 2.02369
470 1.98097
475 1.87159
480 2.06506
485 2.18352
490 2.55009
495 3.97722
500 4.36535
505 3.32614
510 2.90765
515 2.62504
520 2.31302
525 2.09829
530 1.87157
535 1.7433
540 1.69339
545 1.56743
550 1.37749
555 1.36366
560 1.21097
565 1.02025
570 0.946899
575 0.83529
580 0.713111
585 0.503643
590 0.469265
595 0.367339
600 0.524388
Ex : 443
200 0.200782
205 0.154388
210 0.147367
215 0.159282
220 0.13319
225 0.143075
230 0.124144
235 0.185227
240 0.133722
245 0.131081
250 0.131715
255 0.111513
260 0.213043
265 0.128103
270 0.147331
275 0.140109
280 0.188317
285 0.190592
290 0.169295
295 0.163944
300 0.126629
305 0.179273
310 0.22357
315 0.214009
320 0.160328
325 0.194591
330 0.159057
335 0.150778
340 0.162679
345 0.174114
350 0.162791
355 0.201066
360 0.179961
365 0.151521
370 0.177433
375 0.197842
380 0.161373
385 0.174916
390 0.193119
395 0.134965
400 0.173262
405 0.204599
410 0.165288
415 0.242802
420 0.301449
425 0.410002
430 8.2544
435 138.36
440 211.803
445 53.2219
450 7.11562
455 2.03907
460 1.59149
465 1.8459
470 1.90498
475 1.94734
480 1.71542
485 1.8988
490 2.15923
495 2.10372
500 3.20589
505 4.21727
510 3.23507
515 2.58205
520 2.42844
525 1.99666
530 1.83715
535 1.74001
540 1.71605
545 1.37169
550 1.27042
555 1.20908
560 1.15319
565 1.05019
570 0.852533
575 0.781584
580 0.698796
585 0.590212
590 0.450374
595 0.483746
600 0.828624
Ex : 448
200 0.139492
205 0.162084
210 0.13597
215 0.132124
220 0.197992
225 0.159143
230 0.124247
235 0.146728
240 0.216624
245 0.171398
250 0.223636
255 0.164325
260 0.147848
265 0.140598
270 0.134579
275 0.121949
280 0.0993538
285 0.141226
290 0.200673
295 0.18237
300 0.135923
305 0.16473
310 0.159503
315 0.0945416
320 0.16476
325 0.228873
330 0.2059
335 0.226543
340 0.246782
345 0.227053
350 0.150579
355 0.159883
360 0.134916
365 0.149804
370 0.186403
375 0.181544
380 0.18839
385 0.222448
390 0.131936
395 0.204622
400 0.190037
405 0.217409
410 0.173479
415 0.244274
420 0.220663
425 0.372246
430 0.35138
435 8.73241
440 146.836
445 226.773
450 57.7679
455 7.67664
460 1.93168
465 1.37814
470 1.59762
475 1.91647
480 1.84047
485 1.80593
490 1.78008
495 1.75658
500 1.78421
505 2.62944
510 3.78935
515 3.33555
520 2.33577
525 2.2255
530 1.92866
535 1.65526
540 1.47252
545 1.27626
550 1.16636
555 1.05572
560 1.01729
565 1.00218
570 0.855948
575 0.688821
580 0.609202
585 0.550128
590 0.442151
595 0.325546
600 0.226735
Ex : 453
200 0.109766
205 0.147221
210 0.160302
215 0.195845
220 0.109607
225 0.10712
230 0.138704
235 0.120735
240 0.166406
245 0.163913
250 0.162508
255 0.17614
260 0.111333
265 0.136226
270 0.136054
275 0.127361
280 0.166658
285 0.146063
290 0.159892
295 0.149958
300 0.171881
305 0.186721
310 0.138182
315 0.135811
320 0.119088
325 0.149349
330 0.139377
335 0.151942
340 0.148321
345 0.182319
350 0.175716
355 0.135515
360 0.110955
365 0.168633
370 0.172813
375 0.122022
380 0.188131
385 0.139382
390 0.176378
395 0.148132
400 0.227541
405 0.229391
410 0.163411
415 0.277603
420 0.255805
425 0.194653
430 0.300913
435 0.359211
440 8.97355
445 160.095
450 235.583
455 56.5254
460 7.61108
465 2.04031
470 1.25402
475 1.45608
480 1.70406
485 1.68022
490 1.57638
495 1.36411
500 1.4126
505 1.48124
510 1.95989
515 3.2914
520 3.16465
525 2.24378
530 1.83936
535 1.8375
540 1.41907
545 1.33836
550 1.08331
555 1.25966
560 1.05075
565 0.969402
570 0.858882
575 0.732304
580 0.6281
585 0.492714
590 0.427208
595 0.363061
600 0.346035
Ex : 458
200 0.198229
205 0.12676
210 0.155893
215 0.165153
220 0.194555
225 0.154891
230 0.129428
235 0.14241
240 0.170045
245 0.175849
250 0.11505
255 0.163256
260 0.17361
265 0.158439
270 0.12561
275 0.159017
280 0.223406
285 0.206646
290 0.145603
295 0.163347
300 0.143245
305 0.167889
310 0.193988
315 0.190019
320 0.178395
325 0.165764
330 0.124551
335 0.233303
340 0.181567
345 0.121138
350 0.137425
355 0.136038
360 0.155673
365 0.188551
370 0.175211
375 0.159526
380 0.150551
385 0.160934
390 0.145471
395 0.121657
400 0.157105
405 0.22784
410 0.211544
415 0.256215
420 0.217868
425 0.194629
430 0.251592
435 0.280341
440 0.415661
445 9.9654
450 163.942
455 249.08
460 61.6488
465 8.10625
470 2.02638
475 1.31607
480 1.24211
485 1.64116
490 1.66677
495 1.38026
500 1.29826
505 1.32217
510 1.46298
515 1.55259
520 2.53763
525 3.19237
530 2.3769
535 1.89045
540 1.62889
545 1.39838
550 1.23187
555 1.07671
560 1.02905
565 0.890231
570 0.699722
575 0.671721
580 0.620991
585 0.530034
590 0.347374
595 0.383941
600 0.0436911
Ex : 463
200 0.153187
205 0.197321
210 0.196316
215 0.142256
220 0.156034
225 0.153005
230 0.134892
235 0.099769
240 0.16721
245 0.18511
250 0.123591
255 0.128478
260 0.141258
265 0.182721
270 0.136901
275 0.112672
280 0.107225
285 0.145351
290 0.13818
295 0.138055
300 0.12676
305 0.138559
310 0.151157
315 0.131822
320 0.136642
325 0.106383
330 0.135085
335 0.168182
340 0.194618
345 0.131504
350 0.202629
355 0.179673
360 0.170895
365 0.137577
370 0.138766
375 0.174086
380 0.137493
385 0.164369
390 0.112459
395 0.196114
400 0.143796
405 0.170033
410 0.147063
415 0.158093
420 0.201198
425 0.174484
430 0.20031
435 0.329111
440 0.300814
445 0.384332
450 9.83914
455 170.817
460 264.212
465 65.5434
470 8.49046
475 2.02538
480 1.22099
485 1.20437
490 1.57413
495 1.54099
500 1.31184
505 1.20769
510 1.21548
515 1.38005
520 1.39954
525 1.92055
530 2.92941
535 2.74931
540 1.79489
545 1.54708
550 1.41128
555 1.1637
560 1.09799
565 0.955239
570 0.725353
575 0.67733
580 0.516764
585 0.472142
590 0.349324
595 0.373117
600 0.0964961
Ex : 468
200 0.138716
205 0.136847
210 0.146441
215 0.11055
220 0.147203
225 0.159736
230 0.110694
235 0.132122
240 0.119084
245 0.124334
250 0.13642
255 0.132105
260 0.144873
265 0.155385
270 0.123853
275 0.124146
280 0.122455
285 0.139112
290 0.116256
295 0.151632
300 0.113659
305 0.14275
310 0.105651
315 0.183632
320 0.119582
325 0.133345
330 0.124491
335 0.16946
340 0.142551
345 0.147541
350 0.121501
355 0.222185
360 0.185063
365 0.152966
370 0.113015
375 0.116946
380 0.153769
385 0.154863
390 0.153246
395 0.132452
400 0.139341
405 0.153401
410 0.162795
415 0.148349
420 0.148047
425 0.173219
430 0.158592
435 0.208873
440 0.201056
445 0.341945
450 0.393475
455 11.1115
460 181.442
465 290.312
470 71.7742
475 9.15356
480 2.12513
485 1.18749
490 1.13737
495 1.51009
500 1.48881
505 1.36476
510 1.1929
515 1.14379
520 1.23574
525 1.31865
530 1.72515
535 2.66672
540 2.74786
545 1.89241
550 1.50012
555 1.32621
560 1.24674
565 0.963472
570 0.756478
575 0.667949
580 0.565288
585 0.477693
590 0.393002
595 0.414051
600 0.250705
Ex : 473
200 0.148316
205 0.167218
210 0.221841
215 0.12739
220 0.136731
225 0.132678
230 0.138287
235 0.136753
240 0.179389
245 0.110091
250 0.138988
255 0.10571
260 0.122912
265 0.135364
270 0.137057
275 0.134251
280 0.140783
285 0.147593
290 0.138192
295 0.183617
300 0.128704
305 0.146346
310 0.100081
315 0.145267
320 0.142397
325 0.138612
330 0.123501
335 0.167413
340 0.128631
345 0.110705
350 0.190515
355 0.186935
360 0.11179
365 0.119928
370 0.231403
375 0.130545
380 0.176576
385 0.108415
390 0.170875
395 0.180959
400 0.133095
405 0.133147
410 0.196471
415 0.193689
420 0.16967
425 0.215116
430 0.189803
435 0.197101
440 0.193789
445 0.190341
450 0.301485
455 0.524921
460 12.7823
465 199.307
470 283.586
475 66.7638
480 8.62646
485 1.94814
490 1.21501
495 1.18109
500 1.49022
505 1.523
510 1.34661
515 1.16388
520 1.16204
525 1.18404
530 1.28323
535 1.30311
540 2.18785
545 2.6949
550 2.05151
555 1.4035
560 1.3014
565 1.11997
570 0.870337
575 0.811354
580 0.621236
585 0.512634
590 0.397235
595 0.316778
600 0.173563
Ex : 478
200 0.138232
205 0.162136
210 0.140426
215 0.175196
220 0.172094
225 0.202589
230 0.131332
235 0.137455
240 0.160677
245 0.16851
250 0.153433
255 0.145092
260 0.190828
265 0.185962
270 0.188926
275 0.172924
280 0.138835
285 0.175079
290 0.280012
295 0.164721
300 0.180246
305 0.215895
310 0.182877
315 0.157494
320 0.128642
325 0.170652
330 0.198485
335 0.129791
340 0.14919
345 0.266449
350 0.225487
355 0.175759
360 0.186714
365 0.199798
370 0.172761
375 0.184763
380 0.19785
385 0.179163
390 0.217447
395 0.140362
400 0.210169
405 0.187483
410 0.150545
415 0.193287
420 0.183758
425 0.193685
430 0.248527
435 0.197647
440 0.181228
445 0.224071
450 0.282686
455 0.339732
460 0.489754
465 14.6219
470 208.073
475 292.74
480 71.8855
485 9.2392
490 1.99608
495 1.18444
500 1.02754
505 1.24044
510 1.34316
515 1.43485
520 1.17128
525 1.24697
530 1.25617
535 1.25292
540 1.19286
545 1.65152
550 2.45694
555 2.12577
560 1.36883
565 1.19883
570 1.02657
575 0.780971
580 0.614628
585 0.536608
590 0.501406
595 0.462572
600 0.353205
Ex : 483
200 0.172695
205 0.126696
210 0.178253
215 0.235019
220 0.139644
225 0.165544
230 0.163412
235 0.18924
240 0.214864
245 0.207326
250 0.159377
255 0.186825
260 0.200677
265 0.176035
270 0.187962
275 0.12836
280 0.172784
285 0.157272
290 0.166628
295 0.142496
300 0.153793
305 0.243168
310 0.142778
315 0.180035
320 0.145909
325 0.125951
330 0.164999
335 0.181778
340 0.204053
345 0.18368
350 0.176902
355 0.122226
360 0.175757
365 0.215322
370 0.165771
375 0.16226
380 0.173429
385 0.188906
390 0.189608
395 0.186448
400 0.218782
405 0.204378
410 0.168637
415 0.172776
420 0.195612
425 0.269376
430 0.187017
435 0.248761
440 0.185
445 0.206882
450 0.198576
455 0.267658
460 0.382707
465 0.50721
470 11.3208
475 203.152
480 312.757
485 77.5909
490 9.84751
495 2.10059
500 1.19463
505 1.10641
510 1.19192
515 1.39337
520 1.39309
525 1.20565
530 1.06543
535 1.08961
540 1.21333
545 1.22828
550 1.34327
555 2.08838
560 2.27504
565 1.42129
570 1.13187
575 0.934195
580 0.728028
585 0.577097
590 0.483133
595 0.396991
600 0.229163
Ex : 488
200 0.17492
205 0.258266
210 0.188548
215 0.233648
220 0.153971
225 0.186597
230 0.221022
235 0.226851
240 0.169897
245 0.169462
250 0.157124
255 0.192323
260 0.227553
265 0.179953
270 0.221644
275 0.199177
280 0.165636
285 0.170534
290 0.139379
295 0.228414
300 0.166756
305 0.170287
310 0.1701
315 0.253856
320 0.173035
325 0.237648
330 0.166464
335 0.166847
340 0.197293
345 0.214754
350 0.230802
355 0.159895
360 0.219084
365 0.25238
370 0.234277
375 0.164066
380 0.233991
385 0.235621
390 0.195322
395 0.192513
400 0.173569
405 0.213061
410 0.237851
415 0.219759
420 0.260066
425 0.341918
430 0.219834
435 0.226319
440 0.203304
445 0.264842
450 0.235442
455 0.279947
460 0.36327
465 0.458405
470 0.522904
475 13.9705
480 229.107
485 324.813
490 78.43
495 9.91866
500 2.09807
505 1.24187
510 0.967669
515 1.22231
520 1.32179
525 1.37618
530 1.41618
535 1.2368
540 1.06734
545 1.03159
550 1.00556
555 1.0961
560 1.69132
565 2.30653
570 1.60986
575 0.945952
580 0.818619
585 0.689497
590 0.52445
595 0.490069
600 0.153486
Ex : 493
200 0.155338
205 0.242495
210 0.275188
215 0.17378
220 0.227653
225 0.23805
230 0.253879
235 0.181103
240 0.176303
245 0.171713
250 0.207026
255 0.271977
260 0.205627
265 0.184127
270 0.229401
275 0.149522
280 0.183681
285 0.165572
290 0.18963
295 0.21239
300 0.199543
305 0.147143
310 0.182661
315 0.232028
320 0.220913
325 0.210039
330 0.198285
335 0.22672
340 0.169034
345 0.203518
350 0.193297
355 0.239311
360 0.159713
365 0.207811
370 0.169934
375 0.152188
380 0.194463
385 0.16527
390 0.171576
395 0.188799
400 0.173506
405 0.173144
410 0.172964
415 0.164459
420 0.185673
425 0.288949
430 0.239522
435 0.230038
440 0.231001
445 0.251511
450 0.259007
455 0.225765
460 0.292242
465 0.360322
470 0.447718
475 0.499444
480 13.5586
485 229.263
490 349.866
495 80.9793
500 10.2767
505 2.16339
510 1.22499
515 0.990302
520 1.13859
525 1.40179
530 1.36843
535 1.28671
540 1.15191
545 1.16994
550 1.02401
555 0.91623
560 0.940093
565 1.18457
570 1.84476
575 1.57686
580 0.892048
585 0.681116
590 0.655819
595 0.458937
600 0.377838
Ex : 498
200 0.197918
205 0.179891
210 0.197907
215 0.281729
220 0.217084
225 0.249651
230 0.193064
235 0.189078
240 0.1558
245 0.227478
250 0.2288
255 0.202869
260 0.214347
265 0.251746
270 0.234453
275 0.174054
280 0.219034
285 0.210657
290 0.197895
295 0.229821
300 0.147447
305 0.202802
310 0.174054
315 0.198344
320 0.244388
325 0.232754
330 0.245197
335 0.320153
340 0.246182
345 0.176262
350 0.166081
355 0.215204
360 0.19654
365 0.168346
370 0.17516
375 0.228827
380 0.227269
385 0.281026
390 0.194201
395 0.215057
400 0.231702
405 0.285804
410 0.214024
415 0.163733
420 0.176229
425 0.219079
430 0.211401
435 0.232032
440 0.263241
445 0.306889
450 0.25849
455 0.262033
460 0.258974
465 0.276244
470 0.366186
475 0.357557
480 0.637699
485 16.1143
490 243.581
495 334.917
500 80.9145
505 10.279
510 2.14084
515 1.23744
520 1.09096
525 1.2899
530 1.44766
535 1.30773
540 1.36249
545 1.19774
550 0.977149
555 0.845854
560 0.879001
565 0.776883
570 0.915868
575 1.46424
580 1.37151
585 0.829998
590 0.585307
595 0.547921
600 0.459104
Ex : 503
200 0.191071
205 0.261235
210 0.238318
215 0.174245
220 0.18772
225 0.18546
230 0.200747
235 0.232265
240 0.25946
245 0.179953
250 0.225425
255 0.218038
260 0.212616
265 0.13916
270 0.193526
275 0.174018
280 0.214934
285 0.242876
290 0.249981
295 0.250091
300 0.203415
305 0.255455
310 0.26164
315 0.247959
320 0.247271
325 0.206783
330 0.189072
335 0.222892
340 0.273899
345 0.263634
350 0.193752
355 0.15918
360 0.240674
365 0.257016
370 0.297961
375 0.222522
380 0.160314
385 0.263679
390 0.312677
395 0.184479
400 0.230844
405 0.288045
410 0.187869
415 0.21766
420 0.205353
425 0.245458
430 0.25541
435 0.242045
440 0.213627
445 0.272871
450 0.223582
455 0.243017
460 0.253814
465 0.27417
470 0.317677
475 0.346214
480 0.480952
485 0.616697
490 14.3963
495 246.43
500 356.213
505 84.5044
510 10.706
515 2.18636
520 1.38138
525 1.26584
530 1.25371
535 1.34367
540 1.37744
545 1.21124
550 1.07766
555 0.830207
560 0.806148
565 0.760718
570 0.791678
575 0.695781
580 0.984416
585 1.17043
590 0.840977
595 0.540014
600 0.204637
Ex : 508
200 0.186049
205 0.229662
210 0.238967
215 0.222301
220 0.270639
225 0.165177
230 0.204539
235 0.217266
240 0.153321
245 0.19058
250 0.212867
255 0.296111
260 0.195308
265 0.295778
270 0.231363
275 0.219435
280 0.244943
285 0.200817
290 0.244909
295 0.206558
300 0.306881
305 0.224574
310 0.297756
315 0.279432
320 0.191735
325 0.274494
330 0.255783
335 0.277616
340 0.210777
345 0.23854
350 0.204116
355 0.28586
360 0.329677
365 0.290371
370 0.189044
375 0.213432
380 0.185346
385 0.158303
390 0.231624
395 0.140466
400 0.285185
405 0.276287
410 0.201581
415 0.242163
420 0.286726
425 0.258042
430 0.373034
435 0.347194
440 0.274518
445 0.268321
450 0.252833
455 0.286234
460 0.317472
465 0.30807
470 0.293372
475 0.349907
480 0.417718
485 0.438328
490 0.86072
495 16.2598
500 254.783
505 367.91
510 90.6236
515 11.4018
520 2.44943
525 1.31466
530 1.14101
535 1.10423
540 1.19828
545 1.19285
550 1.06981
555 0.947675
560 0.856496
565 0.78244
570 0.66102
575 0.598537
580 0.595425
585 0.614481
590 0.976386
595 0.956101
600 0.539818
Ex : 513
200 0.176818
205 0.200448
210 0.242782
215 0.252429
220 0.272139
225 0.215421
230 0.140657
235 0.218496
240 0.188961
245 0.26297
250 0.227705
255 0.243941
260 0.244001
265 0.321552
270 0.28244
275 0.247196
280 0.299879
285 0.224309
290 0.19403
295 0.244641
300 0.188294
305 0.20597
310 0.261677
315 0.219573
320 0.290194
325 0.269483
330 0.277384
335 0.285646
340 0.230066
345 0.207822
350 0.242454
355 0.207904
360 0.270329
365 0.212993
370 0.242233
375 0.245111
380 0.224143
385 0.220408
390 0.245219
395 0.228656
400 0.280095
405 0.262211
410 0.247787
415 0.264253
420 0.271969
425 0.277695
430 0.277011
435 0.25865
440 0.271909
445 0.231939
450 0.185355
455 0.323158
460 0.29594
465 0.328083
470 0.332206
475 0.358413
480 0.332038
485 0.326831
490 0.424165
495 0.583714
500 15.8046
505 256.65
510 368.243
515 91.9143
520 11.6668
525 2.29976
530 1.30154
535 1.18712
540 1.06007
545 1.11362
550 1.2615
555 1.02778
560 0.840494
565 0.714581
570 0.694053
575 0.581334
580 0.53823
585 0.453365
590 0.449867
595 0.642856
600 1.48359
Ex : 518
200 0.24533
205 0.189174
210 0.263633
215 0.263812
220 0.282554
225 0.323229
230 0.236942
235 0.221679
240 0.178336
245 0.295079
250 0.253739
255 0.292327
260 0.227671
265 0.243231
270 0.261793
275 0.277892
280 0.197888
285 0.19375
290 0.193768
295 0.175191
300 0.211746
305 0.249479
310 0.190884
315 0.218712
320 0.182965
325 0.249677
330 0.189939
335 0.172401
340 0.24862
345 0.233682
350 0.180577
355 0.310802
360 0.220484
365 0.24552
370 0.195528
375 0.314223
380 0.169086
385 0.252244
390 0.258162
395 0.241082
400 0.232598
405 0.266737
410 0.335864
415 0.283236
420 0.28613
425 0.248146
430 0.30462
435 0.230976
440 0.372727
445 0.279146
450 0.292265
455 0.313734
460 0.255144
465 0.280566
470 0.228884
475 0.33336
480 0.329394
485 0.305408
490 0.406931
495 0.458575
500 0.692045
505 15.8509
510 246.276
515 369.226
520 92.9429
525 11.8219
530 2.22496
535 1.37046
540 1.12303
545 0.925461
550 1.05918
555 1.12221
560 0.955733
565 0.767946
570 0.601874
575 0.577283
580 0.498398
585 0.465889
590 0.467174
595 0.427329
600 0.328482
Ex : 523
200 0.191929
205 0.246374
210 0.284481
215 0.216555
220 0.231824
225 0.280268
230 0.18275
235 0.292436
240 0.21949
245 0.227202
250 0.224762
255 0.302099
260 0.219874
265 0.233348
270 0.215932
275 0.271106
280 0.294063
285 0.255352
290 0.248673
295 0.226988
300 0.269356
305 0.253014
310 0.273183
315 0.212773
320 0.225646
325 0.289039
330 0.267113
335 0.27242
340 0.333614
345 0.301877
350 0.252522
355 0.233245
360 0.209476
365 0.222645
370 0.218838
375 0.252494
380 0.247484
385 0.285815
390 0.251905
395 0.30261
400 0.3023
405 0.210303
410 0.338821
415 0.308408
420 0.201279
425 0.196654
430 0.273018
435 0.289121
440 0.28363
445 0.282368
450 0.322684
455 0.280675
460 0.341006
465 0.323277
470 0.285637
475 0.274339
480 0.304976
485 0.250528
490 0.356469
495 0.443158
500 0.426484
505 0.601664
510 15.0889
515 248.493
520 382.813
525 100.675
530 12.5922
535 2.34127
540 1.28626
545 0.907834
550 0.837847
555 0.795265
560 0.918373
565 0.89792
570 0.784075
575 0.576569
580 0.579061
585 0.530867
590 0.473139
595 0.359267
600 0.83586
Ex : 528
200 0.247439
205 0.231416
210 0.217809
215 0.204477
220 0.279087
225 0.241053
230 0.319947
235 0.322405
240 0.243028
245 0.200484
250 0.198131
255 0.221115
260 0.255369
265 0.254906
270 0.216031
275 0.255149
280 0.40537
285 0.2728
290 0.29166
295 0.246519
300 0.221156
305 0.197851
310 0.288203
315 0.336924
320 0.27778
325 0.259565
330 0.248104
335 0.348281
340 0.189309
345 0.357419
350 0.280563
355 0.265768
360 0.213381
365 0.175871
370 0.259069
375 0.24454
380 0.260624
385 0.273579
390 0.285786
395 0.233293
400 0.362995
405 0.299743
410 0.313884
415 0.287642
420 0.280568
425 0.298079
430 0.232932
435 0.261704
440 0.40163
445 0.262532
450 0.19998
455 0.308981
460 0.220935
465 0.198408
470 0.274842
475 0.260134
480 0.344107
485 0.372929
490 0.297933
495 0.413674
500 0.360646
505 0.437106
510 0.838703
515 13.7232
520 240.914
525 368.961
530 95.1199
535 12.0085
540 2.26753
545 1.14832
550 0.992023
555 0.853602
560 0.768829
565 0.802295
570 0.734163
575 0.578834
580 0.645227
585 0.523202
590 0.513866
595 0.318465
600 0.510672
Ex : 533
200 0.261285
205 0.243266
210 0.251707
215 0.228872
220 0.257107
225 0.324881
230 0.287438
235 0.226063
240 0.281536
245 0.303724
250 0.254697
255 0.25333
260 0.219508
265 0.331634
270 0.259872
275 0.211318
280 0.271435
285 0.262347
290 0.224772
295 0.170341
300 0.356843
305 0.285135
310 0.205888
315 0.281531
320 0.24642
325 0.295108
330 0.247098
335 0.315777
340 0.219452
345 0.318641
350 0.22935
355 0.421748
360 0.252348
365 0.257267
370 0.307696
375 0.344346
380 0.324968
385 0.267473
390 0.370574
395 0.247844
400 0.243614
405 0.30842
410 0.263321
415 0.249676
420 0.223306
425 0.381926
430 0.244907
435 0.292639
440 0.204559
445 0.403333
450 0.321889
455 0.280197
460 0.350149
465 0.316617
470 0.269616
475 0.342958
480 0.317429
485 0.285957
490 0.301446
495 0.366865
500 0.405496
505 0.455204
510 0.489402
515 0.724206
520 13.8723
525 241.385
530 380.715
535 100.539
540 12.4977
545 2.05372
550 0.861443
555 0.832848
560 0.67271
565 0.72228
570 0.854375
575 0.747218
580 0.59069
585 0.502782
590 0.449036
595 0.415051
600 0.723304
Ex : 538
200 0.296815
205 0.22557
210 0.318782
215 0.237717
220 0.188262
225 0.217004
230 0.289531
235 0.227037
240 0.273987
245 0.202174
250 0.228808
255 0.209143
260 0.187924
265 0.234807
270 0.255706
275 0.343057
280 0.228254
285 0.262941
290 0.306882
295 0.19437
300 0.245066
305 0.390166
310 0.277323
315 0.270952
320 0.250978
325 0.263743
330 0.326569
335 0.318892
340 0.295993
345 0.261925
350 0.286758
355 0.231793
360 0.290294
365 0.273012
370 0.341738
375 0.260011
380 0.377531
385 0.305727
390 0.451774
395 0.247937
400 0.319696
405 0.230832
410 0.299686
415 0.289796
420 0.387666
425 0.200457
430 0.349543
435 0.294619
440 0.300211
445 0.261544
450 0.362203
455 0.265982
460 0.301441
465 0.420418
470 0.309553
475 0.266698
480 0.353251
485 0.314166
490 0.299109
495 0.348272
500 0.395121
505 0.399238
510 0.436293
515 0.564646
520 0.731969
525 12.5242
530 229.48
535 373.703
540 104.536
545 12.932
550 2.21181
555 0.983256
560 0.710195
565 0.55181
570 0.488254
575 0.63793
580 0.550276
585 0.448118
590 0.387934
595 0.364167
600 0.3559
Ex : 543
200 0.210008
205 0.219739
210 0.253639
215 0.269469
220 0.253449
225 0.274912
230 0.29972
235 0.165211
240 0.152598
245 0.265962
250 0.287558
255 0.214359
260 0.286782
265 0.277725
270 0.224867
275 0.242079
280 0.258731
285 0.289025
290 0.260368
295 0.223959
300 0.280011
305 0.240307
310 0.229143
315 0.303693
320 0.257284
325 0.297679
330 0.254805
335 0.276148
340 0.257393
345 0.239699
350 0.31926
355 0.29188
360 0.309985
365 0.318706
370 0.362062
375 0.294083
380 0.347758
385 0.253307
390 0.306503
395 0.25939
400 0.284807
405 0.214003
410 0.251515
415 0.245921
420 0.407237
425 0.31929
430 0.332641
435 0.255891
440 0.247514
445 0.273486
450 0.302647
455 0.326343
460 0.342365
465 0.353472
470 0.345158
475 0.244616
480 0.309981
485 0.340468
490 0.350463
495 0.381686
500 0.306092
505 0.326166
510 0.312141
515 0.391818
520 0.475233
525 0.713307
530 11.2374
535 221.203
540 369.906
545 105.135
550 12.9495
555 2.14651
560 0.95496
565 0.680911
570 0.653681
575 0.650143
580 0.526162
585 0.514947
590 0.505606
595 0.490711
600 0.163556
Ex : 548
200 0.396056
205 0.291298
210 0.225005
215 0.367339
220 0.331998
225 0.284947
230 0.17364
235 0.218607
240 0.242448
245 0.259925
250 0.249383
255 0.267404
260 0.185269
265 0.322984
270 0.265821
275 0.293255
280 0.314292
285 0.246312
290 0.275574
295 0.363881
300 0.291993
305 0.332201
310 0.338901
315 0.308034
320 0.300048
325 0.268887
330 0.234287
335 0.206601
340 0.3551
345 0.369855
350 0.328124
355 0.301908
360 0.363328
365 0.270519
370 0.245289
375 0.292682
380 0.342562
385 0.237983
390 0.288663
395 0.404246
400 0.272456
405 0.281762
410 0.334356
415 0.330244
420 0.398072
425 0.300099
430 0.243391
435 0.191339
440 0.236655
445 0.316106
450 0.242223
455 0.254533
460 0.295536
465 0.318362
470 0.315802
475 0.252594
480 0.279751
485 0.356728
490 0.373388
495 0.375027
500 0.313976
505 0.349558
510 0.450091
515 0.308962
520 0.413828
525 0.485701
530 0.712123
535 12.0541
540 217.588
545 358.048
550 103.034
555 12.7912
560 2.05442
565 0.83745
570 0.631768
575 0.559281
580 0.468299
585 0.387609
590 0.530095
595 0.450334
600 0.0512463
Ex : 553
200 0.258838
205 0.306432
210 0.3538
215 0.340688
220 0.212603
225 0.272355
230 0.354492
235 0.321246
240 0.346151
245 0.267325
250 0.373936
255 0.254096
260 0.376083
265 0.291384
270 0.330131
275 0.232984
280 0.241921
285 0.263793
290 0.225882
295 0.25831
300 0.209702
305 0.321495
310 0.317849
315 0.250608
320 0.302973
325 0.325425
330 0.228657
335 0.304315
340 0.326204
345 0.257246
350 0.380603
355 0.278426
360 0.261788
365 0.266515
370 0.360885
375 0.296333
380 0.390336
385 0.324345
390 0.285968
395 0.29295
400 0.34669
405 0.32648
410 0.352749
415 0.283462
420 0.248648
425 0.345212
430 0.217652
435 0.278697
440 0.221979
445 0.277562
450 0.327563
455 0.407594
460 0.370819
465 0.364217
470 0.339651
475 0.298898
480 0.383752
485 0.305522
490 0.251508
495 0.353165
500 0.301745
505 0.300347
510 0.28148
515 0.496986
520 0.463203
525 0.595512
530 0.646628
535 0.66894
540 10.3294
545 210.176
550 364.428
555 105.456
560 13.084
565 2.13734
570 0.797503
575 0.549829
580 0.562485
585 0.64505
590 0.425254
595 0.475157
600 0.604671
Ex : 558
200 0.322124
205 0.28259
210 0.289261
215 0.398215
220 0.252852
225 0.340555
230 0.281034
235 0.31249
240 0.369274
245 0.275381
250 0.450333
255 0.337462
260 0.366521
265 0.266959
270 0.301859
275 0.301578
280 0.270957
285 0.312697
290 0.298687
295 0.342473
300 0.256602
305 0.22347
310 0.358478
315 0.359039
320 0.318274
325 0.288594
330 0.270515
335 0.280995
340 0.302354
345 0.283692
350 0.319015
355 0.378366
360 0.3113
365 0.255148
370 0.351838
375 0.346668
380 0.419269
385 0.324475
390 0.388356
395 0.275946
400 0.303775
405 0.380127
410 0.270512
415 0.457089
420 0.297552
425 0.286988
430 0.26464
435 0.331455
440 0.388969
445 0.399691
450 0.327014
455 0.406901
460 0.40247
465 0.27104
470 0.300145
475 0.301403
480 0.30057
485 0.254825
490 0.323674
495 0.272295
500 0.389059
505 0.38684
510 0.386179
515 0.326244
520 0.454818
525 0.381462
530 0.517005
535 0.545154
540 0.676623
545 9.98615
550 203.884
555 365.952
560 105.764
565 12.9437
570 2.06154
575 0.846154
580 0.617465
585 0.485685
590 0.436571
595 0.385365
600 0.3124
Ex : 563
200 0.316983
205 0.288653
210 0.314605
215 0.300427
220 0.239207
225 0.31337
230 0.243135
235 0.34273
240 0.304612
245 0.327244
250 0.253573
255 0.243245
260 0.376607
265 0.332894
270 0.222052
275 0.265329
280 0.336697
285 0.250356
290 0.236121
295 0.274281
300 0.359044
305 0.260467
310 0.279862
315 0.341787
320 0.278161
325 0.242541
330 0.316209
335 0.359723
340 0.27398
345 0.2819
350 0.344483
355 0.315528
360 0.328187
365 0.328915
370 0.275768
375 0.271067
380 0.248469
385 0.306603
390 0.295026
395 0.302415
400 0.315087
405 0.283444
410 0.362358
415 0.327587
420 0.364699
425 0.253672
430 0.237284
435 0.361391
440 0.325685
445 0.364428
450 0.340536
455 0.250639
460 0.364991
465 0.321763
470 0.363894
475 0.370333
480 0.377051
485 0.315686
490 0.364568
495 0.334951
500 0.287188
505 0.423649
510 0.392324
515 0.391755
520 0.255014
525 0.431218
530 0.361958
535 0.429605
540 0.498863
545 0.628858
550 9.60798
555 194.115
560 333.268
565 98.1704
570 12.1075
575 1.89677
580 0.663367
585 0.438021
590 0.471659
595 0.358545
600 0.0518786
Ex : 568
200 0.329172
205 0.356388
210 0.225289
215 0.291458
220 0.349057
225 0.290887
230 0.296908
235 0.315018
240 0.262895
245 0.37211
250 0.261654
255 0.307253
260 0.284256
265 0.248624
270 0.446759
275 0.296127
280 0.277482
285 0.307716
290 0.233272
295 0.240232
300 0.358579
305 0.370457
310 0.266423
315 0.386153
320 0.3807
325 0.309782
330 0.295642
335 0.328458
340 0.359288
345 0.343931
350 0.33059
355 0.281022
360 0.319748
365 0.339882
370 0.315523
375 0.288971
380 0.426676
385 0.379288
390 0.396445
395 0.244033
400 0.311944
405 0.410666
410 0.35374
415 0.39593
420 0.355716
425 0.265137
430 0.310242
435 0.443975
440 0.366966
445 0.352974
450 0.425526
455 0.253036
460 0.472305
465 0.347601
470 0.316163
475 0.354481
480 0.2878
485 0.278335
490 0.39399
495 0.346125
500 0.572031
505 0.461038
510 0.327704
515 0.33591
520 0.410569
525 0.337083
530 0.33608
535 0.448454
540 0.505918
545 0.517105
550 0.492892
555 7.64524
560 172.481
565 328.347
570 103.122
575 12.8724
580 1.99419
585 0.603106
590 0.549655
595 0.520446
600 0.20034
Ex : 573
200 0.381918
205 0.326705
210 0.309437
215 0.369764
220 0.357116
225 0.342703
230 0.246192
235 0.243405
240 0.315483
245 0.226481
250 0.262299
255 0.304243
260 0.241398
265 0.371715
270 0.285465
275 0.292352
280 0.377033
285 0.275249
290 0.301951
295 0.221187
300 0.536624
305 0.416806
310 0.326431
315 0.308856
320 0.428937
325 0.36301
330 0.38596
335 0.374232
340 0.311747
345 0.32319
350 0.317943
355 0.320006
360 0.313782
365 0.282903
370 0.293071
375 0.314236
380 0.370313
385 0.283858
390 0.353502
395 0.279881
400 0.347495
405 0.257136
410 0.412727
415 0.414393
420 0.327459
425 0.416665
430 0.234645
435 0.474699
440 0.362513
445 0.415192
450 0.431194
455 0.318995
460 0.350737
465 0.282735
470 0.308825
475 0.40978
480 0.288235
485 0.488934
490 0.265085
495 0.336934
500 0.520963
505 0.461569
510 0.349558
515 0.343656
520 0.328916
525 0.372523
530 0.436464
535 0.470464
540 0.446409
545 0.509619
550 0.516153
555 0.53204
560 6.35739
565 151.241
570 310.23
575 98.31
580 12.0979
585 1.89956
590 0.660383
595 0.600866
600 0.320739
Ex : 578
200 0.29064
205 0.32039
210 0.410141
215 0.250035
220 0.301996
225 0.394183
230 0.373032
235 0.34582
240 0.337717
245 0.271567
250 0.362384
255 0.270079
260 0.284919
265 0.312223
270 0.382673
275 0.25409
280 0.418539
285 0.269143
290 0.302366
295 0.243872
300 0.247938
305 0.397153
310 0.270862
315 0.332373
320 0.297178
325 0.297139
330 0.242725
335 0.235197
340 0.354434
345 0.329428
350 0.274604
355 0.377674
360 0.321113
365 0.32998
370 0.37384
375 0.384827
380 0.322806
385 0.264158
390 0.299837
395 0.294354
400 0.271853
405 0.295083
410 0.43649
415 0.376054
420 0.301173
425 0.33839
430 0.366597
435 0.391493
440 0.362048
445 0.355028
450 0.404093
455 0.476924
460 0.401597
465 0.337594
470 0.350923
475 0.305279
480 0.32483
485 0.368878
490 0.339918
495 0.367085
500 0.26196
505 0.406137
510 0.404024
515 0.393063
520 0.364073
525 0.288529
530 0.344863
535 0.399264
540 0.374847
545 0.463028
550 0.441185
555 0.587311
560 0.493344
565 5.71388
570 137.898
575 264.213
580 83.2043
585 10.2694
590 1.58615
595 0.609236
600 0.643833
Ex : 583
200 0.396583
205 0.304966
210 0.452585
215 0.408477
220 0.298397
225 0.353827
230 0.326643
235 0.402095
240 0.345646
245 0.332658
250 0.300248
255 0.245055
260 0.428198
265 0.420409
270 0.429309
275 0.356418
280 0.295622
285 0.407878
290 0.479233
295 0.219335
300 0.372531
305 0.390592
310 0.334467
315 0.323007
320 0.391562
325 0.336267
330 0.335209
335 0.258034
340 0.304413
345 0.312462
350 0.262898
355 0.24413
360 0.348477
365 0.307275
370 0.243494
375 0.367361
380 0.263466
385 0.355759
390 0.221327
395 0.318422
400 0.28912
405 0.376024
410 0.386973
415 0.286427
420 0.373283
425 0.315633
430 0.359755
435 0.439627
440 0.314373
445 0.357963
450 0.313198
455 0.369277
460 0.295393
465 0.473819
470 0.46239
475 0.336387
480 0.325088
485 0.269957
490 0.331357
495 0.293297
500 0.338494
505 0.296541
510 0.289446
515 0.285992
520 0.243228
525 0.297669
530 0.317041
535 0.282377
540 0.428445
545 0.446884
550 0.43546
555 0.509539
560 0.520441
565 0.537024
570 5.07203
575 120.972
580 230.993
585 67.2305
590 8.4119
595 1.31657
600 0.430961
Ex : 588
200 0.370415
205 0.322968
210 0.373235
215 0.294518
220 0.326991
225 0.204665
230 0.5111
235 0.417136
240 0.290659
245 0.372648
250 0.351191
255 0.307305
260 0.443341
265 0.453754
270 0.311564
275 0.397174
280 0.439912
285 0.259144
290 0.260878
295 0.270282
300 0.320083
305 0.33274
310 0.351261
315 0.269537
320 0.403352
325 0.240692
330 0.338015
335 0.311951
340 0.307217
345 0.208809
350 0.246342
355 0.28886
360 0.345469
365 0.389392
370 0.362397
375 0.330146
380 0.308299
385 0.397406
390 0.345129
395 0.318489
400 0.350502
405 0.266316
410 0.320308
415 0.332912
420 0.419294
425 0.377588
430 0.419981
435 0.383823
440 0.384083
445 0.350693
450 0.377713
455 0.277534
460 0.340251
465 0.550325
470 0.437493
475 0.357877
480 0.274456
485 0.238616
490 0.25796
495 0.388354
500 0.296584
505 0.317774
510 0.343141
515 0.349265
520 0.399651
525 0.282441
530 0.282753
535 0.564476
540 0.490807
545 0.386803
550 0.452588
555 0.325125
560 0.409124
565 0.456312
570 0.553606
575 4.52053
580 104.561
585 203.212
590 61.5795
595 7.69262
600 1.50839
Ex : 593
200 0.297099
205 0.249372
210 0.385654
215 0.463809
220 0.520045
225 0.367334
230 0.284529
235 0.355774
240 0.367724
245 0.350338
250 0.305744
255 0.279048
260 0.309387
265 0.469023
270 0.386196
275 0.294351
280 0.368171
285 0.286888
290 0.323094
295 0.294986
300 0.261947
305 0.347648
310 0.372366
315 0.360784
320 0.443199
325 0.451086
330 0.434742
335 0.430707
340 0.365446
345 0.352012
350 0.351876
355 0.394746
360 0.482525
365 0.324589
370 0.424532
375 0.371447
380 0.343445
385 0.256968
390 0.470918
395 0.354945
400 0.414157
405 0.419528
410 0.316099
415 0.314996
420 0.452686
425 0.455406
430 0.388992
435 0.354033
440 0.351189
445 0.418815
450 0.291484
455 0.353829
460 0.271586
465 0.267873
470 0.338016
475 0.393644
480 0.340776
485 0.31745
490 0.343841
495 0.327644
500 0.330778
505 0.370721
510 0.361353
515 0.320396
520 0.407388
525 0.25038
530 0.311501
535 0.454088
540 0.47714
545 0.350281
550 0.327602
555 0.378471
560 0.40549
565 0.609119
570 0.41869
575 0.610483
580 4.21719
585 90.8762
590 174.1
595 51.3922
600 7.90084
Ex : 598
200 0.266444
205 0.407888
210 0.276427
215 0.389126
220 0.45444
225 0.303846
230 0.354576
235 0.379069
240 0.273436
245 0.413541
250 0.377006
255 0.353912
260 0.313686
265 0.293888
270 0.403598
275 0.426466
280 0.359251
285 0.389623
290 0.287576
295 0.262945
300 0.391017
305 0.429499
310 0.405689
315 0.447024
320 0.432834
325 0.29069
330 0.425752
335 0.566633
340 0.601987
345 0.543208
350 0.363304
355 0.366812
360 0.393814
365 0.44771
370 0.393044
375 0.38104
380 0.339709
385 0.320162
390 0.286969
395 0.35175
400 0.423332
405 0.44324
410 0.330004
415 0.341276
420 0.496371
425 0.346987
430 0.318141
435 0.319554
440 0.254294
445 0.385872
450 0.254547
455 0.293366
460 0.380813
465 0.3349
470 0.37183
475 0.406809
480 0.457127
485 0.349927
490 0.465546
495 0.327508
500 0.239368
505 0.47715
510 0.329218
515 0.339023
520 0.247441
525 0.240614
530 0.527784
535 0.458043
540 0.337619
545 0.328771
550 0.380561
555 0.34898
560 0.491028
565 0.454075
570 0.434891
575 0.445289
580 0.710671
585 4.08869
590 81.4477
595 150.156
600 85.3448
Ex : 603
200 0.539417
205 0.328907
210 0.379089
215 0.387706
220 0.458365
225 0.563145
230 0.401702
235 0.395374
240 0.38176
245 0.33498
250 0.481482
255 0.214954
260 0.339038
265 0.328318
270 0.37574
275 0.458649
280 0.427768
285 0.350587
290 0.297108
295 0.298959
300 0.36828
305 0.346775
310 0.287578
315 0.393823
320 0.275742
325 0.305135
330 0.417824
335 0.314436
340 0.427174
345 0.491887
350 0.462637
355 0.331421
360 0.348806
365 0.405684
370 0.397928
375 0.357395
380 0.381931
385 0.29512
390 0.470587
395 0.341472
400 0.399543
405 0.446616
410 0.512279
415 0.338514
420 0.434529
425 0.309686
430 0.372893
435 0.332284
440 0.390288
445 0.352598
450 0.335989
455 0.421151
460 0.339673
465 0.527295
470 0.432595
475 0.506182
480 0.335059
485 0.463917
490 0.323858
495 0.335326
500 0.450347
505 0.291048
510 0.520878
515 0.298088
520 0.394399
525 0.377142
530 0.503876
535 0.375898
540 0.314056
545 0.489088
550 0.521186
555 0.381186
560 0.404423
565 0.457764
570 0.474358
575 0.55324
580 0.431163
585 0.443126
590 3.27159
595 68.9732
600 150.613
