File format V 1.0
ven. 13. janv. 17:26:39 2017
Operator : 
Comments : 

=============================================
SpectroFluorometer parameters
Mode : 3D measurement
Data : Fluorescence
Phospho. : Ordinary
Spectrum : Fluorescence

Scan speed : 2400 nm/mn
Response : 100 ms
PM Voltage : 700 V
Shutter : On

Lambda Ex. Start : 203
Lambda Ex. End : 603
Lambda Ex. Step : 5
Ex. Slit : 5 nm

Lambda Em. Start : 200
Lambda Em. End : 600
Lambda Em. Step : 5
Em. Slit : 5 nm

Repetition : 1
Decal lambda em : 10
=============================================
DATA
Ex : 203
200 5.53304
205 6.42146
210 5.78806
215 6.43788
220 6.40267
225 5.97429
230 6.64421
235 5.9208
240 6.02843
245 4.77217
250 5.91292
255 6.54242
260 6.25248
265 6.4974
270 8.2514
275 7.81704
280 6.25049
285 5.7331
290 6.50752
295 4.06278
300 4.95547
305 4.05155
310 7.38026
315 7.89588
320 6.2029
325 6.96782
330 6.45332
335 6.32904
340 6.33006
345 7.80571
350 9.03604
355 7.51757
360 6.14315
365 5.12161
370 3.7407
375 9.53367
380 6.24713
385 6.22646
390 5.59127
395 6.84794
400 6.9583
405 9.82539
410 5.80776
415 5.41493
420 4.69528
425 6.55179
430 6.84349
435 7.27325
440 5.12203
445 6.56685
450 6.65959
455 5.75053
460 6.35323
465 7.12665
470 6.84582
475 7.576
480 7.28089
485 4.31901
490 6.45584
495 6.37902
500 6.09388
505 4.83183
510 10.0437
515 8.0754
520 10.3028
525 6.14178
530 5.3954
535 7.01084
540 5.37095
545 4.16867
550 6.325
555 7.67444
560 6.70053
565 6.76395
570 7.33682
575 5.46603
580 6.29037
585 5.60866
590 6.37301
595 5.36571
600 6.59247
Ex : 208
200 11.2682
205 6.5701
210 5.96296
215 4.7502
220 6.83476
225 6.53609
230 5.35285
235 7.14049
240 5.3425
245 4.08611
250 4.0812
255 8.64379
260 6.56501
265 6.49349
270 8.41793
275 7.57636
280 8.06667
285 5.8749
290 4.08848
295 6.72862
300 4.86976
305 5.87138
310 7.77049
315 4.91437
320 6.19761
325 6.09566
330 4.62893
335 3.54407
340 6.72795
345 5.78333
350 7.41428
355 6.20082
360 7.64691
365 6.58453
370 6.84799
375 7.28221
380 6.42865
385 7.57643
390 4.61308
395 5.88794
400 8.19226
405 7.30869
410 5.76664
415 5.27938
420 6.9428
425 6.34175
430 5.84641
435 6.17366
440 6.39956
445 5.71897
450 5.5918
455 6.53116
460 5.41631
465 5.26685
470 7.40828
475 8.07626
480 9.6905
485 5.68714
490 5.44517
495 4.73131
500 7.8036
505 6.6522
510 7.0882
515 5.99785
520 4.94282
525 5.83
530 5.23415
535 5.59059
540 8.91599
545 6.77283
550 7.33109
555 7.75488
560 4.90448
565 5.06694
570 6.00308
575 6.88223
580 7.22093
585 4.88186
590 4.57217
595 6.28906
600 3.96509
Ex : 213
200 8.14865
205 7.31583
210 4.8766
215 6.11947
220 5.72536
225 4.52965
230 5.70095
235 7.78738
240 8.10068
245 7.66639
250 7.18503
255 6.65501
260 6.71123
265 7.06021
270 7.11763
275 8.73745
280 8.38212
285 9.05288
290 5.33633
295 5.38642
300 6.40898
305 3.88714
310 4.03859
315 4.14799
320 5.55842
325 6.13937
330 7.60944
335 7.5769
340 8.28707
345 6.46352
350 7.32854
355 4.48478
360 7.61276
365 7.2883
370 5.04281
375 8.02376
380 7.06749
385 6.47119
390 8.16382
395 7.2717
400 5.18255
405 5.2413
410 7.72959
415 7.00135
420 7.83619
425 10.9833
430 7.62649
435 5.12243
440 6.41509
445 5.60816
450 9.73897
455 6.38856
460 8.58273
465 8.2777
470 7.1454
475 8.23903
480 8.98624
485 7.43856
490 6.60883
495 6.88032
500 5.99855
505 6.96093
510 5.42008
515 7.52505
520 8.22755
525 5.38392
530 4.43692
535 6.60547
540 6.88631
545 7.12919
550 6.28042
555 5.83092
560 7.3912
565 5.78906
570 5.32584
575 3.1965
580 5.29376
585 7.79139
590 4.7837
595 9.33056
600 1.06178
Ex : 218
200 6.71366
205 3.93545
210 7.20416
215 8.23023
220 3.87588
225 8.14897
230 5.25357
235 8.2649
240 5.80277
245 5.91109
250 6.11054
255 9.74328
260 6.41372
265 6.86794
270 5.99426
275 9.37095
280 5.62518
285 6.81011
290 4.01378
295 4.77236
300 5.05704
305 5.09511
310 6.87145
315 5.90314
320 5.21982
325 6.7721
330 5.6031
335 5.07268
340 4.64707
345 6.70353
350 7.03684
355 7.03748
360 6.16837
365 7.81058
370 7.40383
375 7.23585
380 6.20848
385 7.37635
390 7.96596
395 9.52306
400 8.30222
405 7.32082
410 4.96742
415 7.35305
420 8.09049
425 6.70007
430 7.2972
435 6.0125
440 9.51829
445 6.16542
450 6.55309
455 6.39148
460 5.93328
465 8.85612
470 6.52104
475 7.10097
480 8.97992
485 6.74691
490 6.69235
495 5.06271
500 7.89917
505 7.23683
510 5.11174
515 6.79318
520 4.61946
525 5.43202
530 5.787
535 8.19335
540 5.82119
545 4.89295
550 7.39382
555 7.0842
560 5.99511
565 6.2574
570 6.08288
575 6.37936
580 8.2336
585 8.96422
590 6.19105
595 4.89459
600 9.41902
Ex : 223
200 5.10455
205 5.14016
210 6.99473
215 6.08513
220 4.06848
225 5.0896
230 6.37232
235 5.56871
240 5.63634
245 8.93948
250 8.30947
255 6.1883
260 6.44696
265 11.2679
270 8.84846
275 7.92087
280 6.71552
285 5.02108
290 6.09761
295 4.32032
300 5.97402
305 5.58348
310 6.76528
315 5.05318
320 5.44138
325 6.7734
330 4.18387
335 6.9431
340 7.37971
345 5.1895
350 7.86632
355 3.93071
360 7.26395
365 4.37533
370 5.34119
375 5.11622
380 7.87574
385 8.05739
390 8.96301
395 7.51244
400 6.09118
405 7.05019
410 6.47235
415 5.7823
420 5.09307
425 6.36862
430 5.56802
435 4.3403
440 6.17784
445 6.90232
450 6.77731
455 8.70903
460 5.22647
465 6.34922
470 6.57779
475 7.04336
480 6.02292
485 5.43236
490 5.05708
495 6.05124
500 4.68595
505 5.86261
510 5.77468
515 5.53532
520 4.52526
525 5.39493
530 8.74283
535 5.90108
540 5.36069
545 4.75094
550 5.09285
555 4.72185
560 6.72934
565 6.66112
570 5.69869
575 8.34363
580 5.65257
585 5.35496
590 5.80575
595 5.45749
600 4.75666
Ex : 228
200 6.61277
205 7.04573
210 5.59568
215 6.86331
220 4.37731
225 5.28654
230 4.49063
235 3.58863
240 4.7614
245 6.44985
250 7.5585
255 4.40137
260 5.64234
265 3.86934
270 5.44607
275 4.97566
280 4.97861
285 7.50138
290 5.19603
295 4.87586
300 6.3383
305 4.69391
310 9.68381
315 5.19484
320 3.75728
325 4.77526
330 2.83026
335 4.85156
340 4.7511
345 7.38092
350 8.40094
355 5.72029
360 6.65948
365 4.49385
370 8.32206
375 6.60971
380 5.39307
385 6.14484
390 5.63668
395 5.03115
400 4.74096
405 4.88649
410 5.96756
415 4.93052
420 4.64276
425 9.1302
430 7.93679
435 6.74763
440 6.37319
445 5.43553
450 4.4296
455 7.87158
460 5.99701
465 4.52392
470 6.05075
475 7.37395
480 5.62911
485 5.00908
490 7.20711
495 6.76755
500 7.55116
505 5.88234
510 8.42082
515 5.86499
520 6.87872
525 6.59732
530 5.95436
535 6.13114
540 5.28951
545 6.5549
550 6.18698
555 4.67486
560 5.20787
565 6.05255
570 6.38525
575 8.27845
580 8.24675
585 5.57638
590 4.81456
595 4.77083
600 10.4388
Ex : 233
200 5.50201
205 4.81608
210 5.65186
215 3.39143
220 5.35305
225 5.20497
230 5.6648
235 5.18115
240 5.04563
245 4.53159
250 3.11403
255 6.58615
260 4.77538
265 6.54032
270 7.40196
275 4.4443
280 4.55192
285 6.46142
290 4.7232
295 3.86889
300 4.23125
305 4.25876
310 6.96245
315 7.97127
320 6.14409
325 8.79737
330 4.91212
335 6.89219
340 6.24219
345 4.45247
350 7.65538
355 4.91311
360 5.69259
365 8.16787
370 5.10575
375 6.37016
380 6.07037
385 6.37211
390 7.29927
395 5.02095
400 5.22036
405 3.88466
410 6.03689
415 5.23188
420 7.86586
425 6.19768
430 5.19146
435 4.3049
440 5.07204
445 5.90576
450 6.82442
455 7.22011
460 6.10354
465 5.93944
470 4.20346
475 4.85618
480 6.25709
485 4.99654
490 4.95982
495 8.34605
500 5.53368
505 4.70176
510 6.12103
515 5.66291
520 6.04775
525 4.46161
530 5.07905
535 5.17177
540 6.26542
545 4.56511
550 3.41948
555 6.81321
560 4.5853
565 6.61989
570 6.7157
575 5.5547
580 4.92929
585 5.48935
590 5.80896
595 4.26469
600 6.83643
Ex : 238
200 4.28322
205 5.4856
210 3.07783
215 6.55367
220 4.40505
225 4.8262
230 3.7542
235 5.67917
240 5.61973
245 5.52675
250 5.15323
255 4.54304
260 3.92595
265 6.42945
270 4.44403
275 3.77917
280 4.76883
285 5.97067
290 3.70519
295 4.22426
300 5.36999
305 4.76349
310 6.20973
315 7.73182
320 6.1838
325 5.35952
330 5.81677
335 3.08949
340 4.51976
345 4.81639
350 3.67507
355 5.43587
360 4.72209
365 4.41014
370 4.12608
375 4.06099
380 5.03915
385 5.16442
390 6.56232
395 4.98455
400 5.88445
405 6.2833
410 5.26487
415 4.72722
420 6.0311
425 4.95078
430 7.61163
435 4.84554
440 3.63882
445 4.40887
450 4.86032
455 5.07073
460 5.14066
465 5.19958
470 5.25201
475 6.78781
480 4.58667
485 3.02287
490 3.55366
495 3.82167
500 6.27304
505 3.53015
510 6.11695
515 7.24685
520 7.21536
525 6.56499
530 5.68833
535 6.67282
540 5.28634
545 4.59274
550 4.36176
555 4.43243
560 4.68817
565 4.39878
570 4.68559
575 5.56874
580 4.6151
585 3.76063
590 6.54014
595 5.66041
600 3.30274
Ex : 243
200 4.67278
205 2.55441
210 4.572
215 5.89458
220 3.57718
225 3.93495
230 3.50921
235 4.07792
240 4.07906
245 5.20712
250 4.13457
255 3.50028
260 4.50221
265 2.82987
270 3.08933
275 5.60272
280 3.86324
285 4.64614
290 4.87547
295 6.21881
300 4.1898
305 4.51763
310 5.14939
315 2.94142
320 3.51546
325 5.72019
330 6.29068
335 4.04926
340 5.61768
345 4.01828
350 4.76744
355 6.4467
360 4.19813
365 3.99048
370 3.92312
375 4.93098
380 5.81351
385 6.18005
390 5.80907
395 4.454
400 4.19451
405 3.02121
410 5.5415
415 4.92244
420 4.67997
425 6.48024
430 5.22733
435 6.15973
440 4.08955
445 3.94897
450 3.69393
455 4.74378
460 5.17059
465 4.85115
470 3.58247
475 5.23381
480 6.4271
485 4.3934
490 4.0187
495 5.43149
500 5.20013
505 4.40703
510 4.5025
515 3.36266
520 5.66455
525 4.75577
530 4.9296
535 4.05914
540 5.99781
545 3.19192
550 5.53797
555 4.86882
560 3.20691
565 5.78574
570 4.67117
575 4.70123
580 5.66311
585 4.29299
590 4.91385
595 3.92731
600 2.21932
Ex : 248
200 2.0507
205 3.81081
210 4.36224
215 3.53669
220 3.04076
225 4.60184
230 3.51461
235 4.31316
240 4.25464
245 4.06903
250 3.7317
255 4.07344
260 4.10878
265 3.12617
270 3.56762
275 4.61997
280 3.09002
285 3.45585
290 3.71218
295 6.33479
300 5.63347
305 4.78696
310 3.0913
315 3.50765
320 3.49719
325 3.4781
330 4.78017
335 3.41278
340 4.64769
345 3.86939
350 4.34871
355 3.74096
360 3.56053
365 3.37626
370 3.60135
375 5.86185
380 3.84499
385 3.68863
390 4.52246
395 5.27388
400 4.20608
405 4.2144
410 3.71704
415 4.27848
420 5.28985
425 5.39789
430 4.34806
435 5.27611
440 4.90759
445 5.05465
450 4.29573
455 4.33501
460 2.87117
465 4.05032
470 3.4696
475 3.55274
480 4.43316
485 5.38252
490 6.4578
495 5.19093
500 3.675
505 4.43549
510 3.52242
515 3.20715
520 4.46045
525 4.29704
530 3.81667
535 3.98426
540 4.41746
545 6.41413
550 5.00068
555 6.01947
560 3.15265
565 4.89766
570 3.38195
575 4.07487
580 3.95094
585 2.76078
590 3.43193
595 2.65352
600 1.40972
Ex : 253
200 2.55097
205 4.12491
210 3.55756
215 4.16116
220 3.48619
225 3.2355
230 3.2298
235 3.11287
240 3.37405
245 4.01307
250 3.56582
255 3.23647
260 2.13852
265 3.3419
270 2.84764
275 2.45918
280 3.18703
285 2.89406
290 3.09119
295 2.01445
300 2.83757
305 2.52907
310 2.88281
315 2.01312
320 2.99404
325 2.9066
330 3.63096
335 2.7274
340 4.10264
345 3.14032
350 2.76934
355 2.91918
360 2.76298
365 2.54689
370 3.17054
375 4.20396
380 4.74651
385 4.76338
390 4.17549
395 3.2253
400 2.53426
405 3.29046
410 4.02102
415 3.9493
420 3.93458
425 2.92657
430 4.68271
435 3.26709
440 2.73071
445 2.90086
450 3.89247
455 4.00323
460 4.26062
465 3.50658
470 4.54975
475 2.68667
480 3.44616
485 2.88713
490 2.91915
495 2.25051
500 4.53942
505 5.51975
510 3.1907
515 4.23264
520 3.84707
525 3.18545
530 4.33837
535 2.47093
540 2.87375
545 2.8679
550 1.93981
555 2.54755
560 3.13598
565 2.33411
570 2.07154
575 2.54321
580 3.57258
585 3.34249
590 3.44783
595 2.48337
600 5.15672
Ex : 258
200 2.86497
205 2.63336
210 1.20124
215 3.31156
220 2.42298
225 2.42819
230 3.67808
235 4.1005
240 2.67436
245 1.65253
250 2.61473
255 2.56679
260 1.81203
265 2.0097
270 3.46164
275 2.09233
280 2.47947
285 2.64363
290 1.81259
295 3.64558
300 3.52927
305 2.41635
310 3.42612
315 1.85815
320 2.32745
325 3.17444
330 3.20925
335 2.08189
340 1.81855
345 2.0282
350 3.1431
355 2.25473
360 3.29212
365 2.80085
370 3.11565
375 2.52679
380 2.05825
385 1.73887
390 3.97042
395 3.20948
400 2.2594
405 4.11512
410 3.40801
415 1.95961
420 3.54496
425 3.41511
430 3.30542
435 3.04502
440 2.98208
445 3.4131
450 3.12101
455 2.55294
460 3.02429
465 3.20293
470 2.81561
475 2.89528
480 2.93515
485 2.75235
490 3.24596
495 2.74283
500 2.16029
505 3.38911
510 2.4759
515 4.54153
520 3.13963
525 2.24286
530 1.63702
535 2.71634
540 3.24945
545 2.76063
550 2.34882
555 4.15577
560 2.26253
565 4.67618
570 3.61814
575 2.97678
580 2.80933
585 2.15614
590 1.93784
595 1.8195
600 0.207052
Ex : 263
200 2.12558
205 1.50431
210 1.85102
215 1.94111
220 1.62872
225 1.97973
230 2.40202
235 2.13048
240 2.4433
245 2.07071
250 2.51584
255 2.28903
260 1.823
265 2.27435
270 2.36722
275 2.36066
280 1.75856
285 2.49743
290 3.75297
295 2.58556
300 2.3232
305 2.48751
310 2.72844
315 2.05391
320 2.12466
325 1.48165
330 3.75087
335 2.79371
340 1.80131
345 2.5467
350 2.27927
355 2.06234
360 2.74861
365 3.59132
370 2.33756
375 1.99177
380 2.35051
385 1.77553
390 2.56345
395 2.70585
400 2.53037
405 2.43371
410 1.87239
415 2.59632
420 2.0267
425 2.4648
430 2.83314
435 2.74977
440 3.48495
445 3.80867
450 2.49567
455 2.39995
460 1.98541
465 2.13812
470 2.36589
475 1.60274
480 2.69657
485 1.47213
490 2.16429
495 1.9427
500 2.766
505 2.26607
510 2.21743
515 1.9527
520 1.92355
525 2.89006
530 3.0678
535 2.57505
540 1.87097
545 1.91543
550 2.47035
555 1.65684
560 2.96084
565 2.24027
570 2.6948
575 2.32076
580 2.6595
585 1.48005
590 1.05599
595 2.71019
600 0.308409
Ex : 268
200 1.14198
205 2.01493
210 1.75821
215 1.46
220 1.9649
225 1.67791
230 2.00487
235 2.44202
240 1.59513
245 1.94956
250 0.904054
255 2.01973
260 1.60934
265 1.27055
270 1.31355
275 1.37485
280 1.90812
285 1.34126
290 1.84626
295 1.79756
300 2.41897
305 1.10581
310 1.00769
315 1.33611
320 1.35522
325 1.96067
330 1.02972
335 2.11416
340 1.69448
345 1.27272
350 1.68339
355 1.79998
360 1.82419
365 1.73571
370 2.49903
375 2.40801
380 2.34147
385 1.84168
390 1.52625
395 1.55483
400 2.12292
405 3.24966
410 1.98904
415 3.19112
420 2.17899
425 2.12551
430 2.01428
435 2.01141
440 1.7609
445 2.49955
450 3.12599
455 2.61937
460 2.24397
465 1.732
470 2.35419
475 1.69524
480 1.43535
485 1.65132
490 1.80753
495 2.48182
500 1.70559
505 1.3688
510 1.75355
515 1.63493
520 2.18055
525 2.1017
530 2.12575
535 2.01756
540 1.46547
545 1.77844
550 2.1884
555 2.28254
560 1.7222
565 2.30126
570 1.52087
575 2.32115
580 1.89633
585 1.67836
590 2.01366
595 1.57247
600 1.29836
Ex : 273
200 1.53418
205 1.18455
210 1.01392
215 1.17253
220 1.08389
225 1.02114
230 1.58518
235 1.55683
240 1.32568
245 1.12082
250 1.32262
255 1.79556
260 1.45675
265 1.08739
270 1.30952
275 1.34486
280 1.32413
285 1.05196
290 1.80675
295 1.28062
300 1.73599
305 1.85186
310 2.31469
315 0.969499
320 1.37824
325 0.999705
330 1.02476
335 1.44459
340 1.50938
345 1.37017
350 1.59445
355 1.33315
360 1.27494
365 1.52274
370 1.50391
375 1.31757
380 2.10603
385 1.69293
390 1.85985
395 1.78139
400 1.73981
405 2.41702
410 2.11467
415 1.47233
420 1.42509
425 1.6744
430 1.65672
435 2.04938
440 1.5392
445 1.83105
450 1.89608
455 1.44952
460 1.44472
465 2.03371
470 1.73532
475 1.52283
480 1.36463
485 1.3176
490 1.08969
495 1.65073
500 1.49263
505 1.88823
510 1.82183
515 1.04489
520 1.27841
525 1.48058
530 1.7379
535 2.1542
540 1.55754
545 2.60269
550 1.82162
555 1.9223
560 1.94034
565 1.61468
570 1.30817
575 1.41693
580 2.11623
585 1.50695
590 1.12923
595 0.966925
600 0.110032
Ex : 278
200 0.991042
205 1.15246
210 1.19459
215 0.816956
220 1.57168
225 1.19249
230 1.14308
235 1.31592
240 1.19014
245 0.886039
250 0.86417
255 1.03084
260 0.979995
265 1.20589
270 1.16906
275 1.10106
280 0.997619
285 1.41801
290 0.854757
295 1.0539
300 1.30105
305 1.14896
310 1.7347
315 1.13747
320 1.44398
325 0.98888
330 1.01403
335 1.14843
340 0.963585
345 1.26792
350 1.32783
355 1.14229
360 1.11449
365 0.921148
370 1.54287
375 1.45307
380 0.985019
385 1.36394
390 1.93272
395 1.88481
400 1.29584
405 1.31223
410 1.62069
415 1.54163
420 1.13396
425 1.26541
430 1.44406
435 1.8915
440 1.72829
445 1.90404
450 1.4493
455 1.73537
460 1.24302
465 1.396
470 0.839714
475 1.4723
480 1.35472
485 1.59946
490 1.24355
495 1.51703
500 1.62199
505 1.00278
510 1.03244
515 0.88626
520 1.25409
525 1.55358
530 1.33825
535 1.9767
540 1.49945
545 1.30751
550 1.67771
555 1.35128
560 1.33415
565 0.933205
570 1.05187
575 1.0858
580 0.965124
585 1.68295
590 1.05414
595 1.10994
600 2.27852
Ex : 283
200 0.815951
205 1.09774
210 1.04038
215 1.16095
220 0.972635
225 0.917893
230 1.136
235 0.894436
240 0.715727
245 0.820668
250 0.78702
255 1.15264
260 0.618578
265 0.900119
270 0.760332
275 0.784055
280 0.704324
285 1.17831
290 0.83807
295 0.906502
300 1.04774
305 1.1143
310 0.761017
315 0.910837
320 0.921311
325 1.09637
330 0.859064
335 0.853854
340 0.996937
345 1.08571
350 1.06969
355 1.42526
360 1.61953
365 1.16414
370 1.59289
375 1.33188
380 1.26892
385 1.04044
390 1.11454
395 1.43527
400 1.485
405 1.62177
410 1.38621
415 1.40789
420 1.29184
425 1.16691
430 0.988796
435 1.16592
440 1.41147
445 1.21911
450 1.65218
455 1.28435
460 1.42034
465 1.59135
470 1.14863
475 1.16777
480 1.06567
485 0.923073
490 0.986977
495 0.880398
500 1.02775
505 1.23755
510 1.31593
515 1.00389
520 0.898188
525 0.835431
530 0.804649
535 1.07102
540 1.04047
545 1.0577
550 0.741752
555 1.16632
560 1.38672
565 1.40117
570 1.04258
575 1.19545
580 0.790765
585 0.775309
590 1.18604
595 1.09265
600 0.984478
Ex : 288
200 0.792023
205 0.643943
210 0.638809
215 1.00616
220 0.928087
225 0.904765
230 0.996372
235 0.73465
240 0.701226
245 0.456446
250 0.884973
255 0.683025
260 0.594891
265 0.781767
270 0.966993
275 0.51709
280 0.601902
285 0.787394
290 0.749729
295 1.20538
300 0.820304
305 0.560146
310 0.735875
315 0.664975
320 0.591689
325 0.710635
330 1.14606
335 0.714449
340 0.679438
345 0.941583
350 1.06408
355 1.00882
360 0.968482
365 0.607323
370 1.18714
375 1.48026
380 1.1762
385 0.887094
390 1.08568
395 0.941502
400 1.57887
405 1.24577
410 1.05929
415 1.33295
420 1.22663
425 1.31747
430 1.06242
435 1.07193
440 1.15929
445 1.58448
450 1.28947
455 1.38291
460 1.01809
465 1.17388
470 1.3694
475 1.14073
480 0.820037
485 1.09241
490 0.900381
495 1.06783
500 0.922204
505 1.14673
510 0.947589
515 1.19257
520 0.925097
525 1.01341
530 0.927116
535 0.932353
540 0.605837
545 0.918985
550 0.74187
555 0.717715
560 0.768456
565 0.776886
570 1.28352
575 1.27455
580 1.01295
585 0.793075
590 1.0174
595 1.11173
600 0.822814
Ex : 293
200 0.670113
205 0.670815
210 0.61137
215 0.599891
220 0.570447
225 0.524721
230 0.811548
235 0.583621
240 1.26744
245 0.708057
250 0.598258
255 0.735354
260 0.436517
265 0.591243
270 0.632934
275 0.601549
280 0.729604
285 0.886702
290 0.720288
295 0.454734
300 0.743161
305 0.814101
310 0.564618
315 0.689525
320 0.540909
325 0.80516
330 0.723126
335 1.32324
340 0.683173
345 0.638117
350 0.730601
355 0.792628
360 0.84107
365 0.828002
370 0.790215
375 1.44045
380 0.94334
385 1.07439
390 1.36065
395 1.21481
400 0.843434
405 0.929745
410 1.51253
415 1.73948
420 1.50474
425 1.1311
430 1.27562
435 1.19422
440 0.917356
445 1.07021
450 1.28909
455 1.08593
460 0.96789
465 0.914428
470 1.1891
475 0.814914
480 0.831892
485 0.897117
490 0.737216
495 0.744381
500 1.07916
505 0.634746
510 0.816521
515 0.656984
520 0.757467
525 0.714548
530 0.660855
535 0.7139
540 0.839286
545 0.476298
550 0.602969
555 0.716531
560 1.07398
565 0.857381
570 0.64677
575 0.990453
580 1.05061
585 0.729562
590 1.13931
595 0.835549
600 0.566467
Ex : 298
200 0.584531
205 0.874192
210 0.459619
215 0.463148
220 0.550056
225 0.68884
230 0.710352
235 0.508579
240 0.676516
245 0.485769
250 0.773364
255 0.81502
260 0.459347
265 0.501796
270 0.565461
275 0.654517
280 0.5424
285 0.8001
290 0.519014
295 0.708166
300 0.545257
305 0.748571
310 0.660799
315 0.526286
320 0.798581
325 0.609022
330 0.598879
335 0.553004
340 0.624154
345 0.868418
350 0.723778
355 0.700078
360 0.686929
365 0.942162
370 0.925396
375 0.882018
380 1.02717
385 1.04556
390 1.05404
395 1.1689
400 1.11976
405 1.06151
410 1.09045
415 1.22348
420 1.00157
425 1.20501
430 1.24469
435 1.27443
440 1.0787
445 1.19266
450 1.02611
455 0.827402
460 0.835037
465 0.895994
470 0.766991
475 0.816895
480 0.740599
485 0.644343
490 0.72073
495 0.696153
500 0.785159
505 0.824258
510 0.716772
515 0.797447
520 1.01951
525 0.697802
530 0.573275
535 0.556318
540 0.469958
545 0.604599
550 0.569962
555 0.618215
560 0.547537
565 0.640875
570 0.746261
575 0.674841
580 0.564149
585 0.550696
590 1.02442
595 0.919804
600 0.765295
Ex : 303
200 0.506603
205 0.384215
210 0.484682
215 0.682745
220 0.675041
225 0.548463
230 0.551376
235 0.40473
240 0.37553
245 0.482046
250 0.5158
255 0.594125
260 0.801647
265 0.356033
270 0.340002
275 0.467317
280 0.428644
285 0.527524
290 0.691661
295 0.560947
300 0.622951
305 0.639603
310 0.502669
315 0.495511
320 0.406292
325 0.319983
330 0.5377
335 0.373438
340 0.760888
345 0.640339
350 0.60862
355 0.689237
360 0.602624
365 0.570418
370 0.655824
375 0.686747
380 1.01592
385 1.20033
390 1.03139
395 1.24875
400 1.21303
405 1.07938
410 0.790027
415 1.0058
420 1.1186
425 0.89485
430 1.07481
435 1.05425
440 1.04991
445 1.24246
450 1.00919
455 0.953134
460 0.69783
465 0.805209
470 0.569377
475 0.834339
480 0.544473
485 0.776267
490 0.686392
495 0.625818
500 0.792668
505 0.571842
510 0.497763
515 0.436208
520 0.655781
525 0.561854
530 0.657507
535 0.545247
540 0.715215
545 0.909567
550 0.475001
555 0.416924
560 0.607586
565 0.69179
570 0.734586
575 0.620488
580 0.424959
585 0.465827
590 0.693045
595 0.670327
600 2.33333
Ex : 308
200 0.423927
205 0.341034
210 0.520651
215 0.400724
220 0.407612
225 0.560244
230 0.861308
235 0.379751
240 0.507011
245 0.461414
250 0.257684
255 0.567586
260 0.406345
265 0.509569
270 0.444715
275 0.292669
280 0.490445
285 0.508727
290 0.364552
295 0.472144
300 0.570074
305 0.632078
310 0.613465
315 0.600364
320 0.612033
325 0.359825
330 0.655918
335 0.458252
340 0.748222
345 0.622291
350 0.552592
355 0.561716
360 0.737565
365 0.566758
370 0.737477
375 0.82845
380 0.912353
385 0.978476
390 0.929359
395 0.920334
400 1.17003
405 0.943463
410 0.978457
415 0.882324
420 1.14795
425 1.23131
430 0.941532
435 0.906767
440 1.01366
445 0.748849
450 0.787666
455 0.893568
460 0.759303
465 0.66238
470 0.740535
475 0.837993
480 0.87785
485 0.698394
490 0.552894
495 0.505145
500 0.509319
505 0.545269
510 0.677999
515 0.660801
520 0.350548
525 0.568576
530 0.576334
535 0.514306
540 0.50453
545 0.588022
550 0.503468
555 0.475931
560 0.578617
565 0.485089
570 0.609696
575 0.581881
580 0.460926
585 0.416657
590 0.376144
595 0.348261
600 0.135437
Ex : 313
200 0.336779
205 0.310449
210 0.381469
215 0.236218
220 0.348412
225 0.356131
230 0.406556
235 0.342007
240 0.310531
245 0.248985
250 0.266239
255 0.374548
260 0.353755
265 0.521126
270 0.408598
275 0.338408
280 0.319252
285 0.519228
290 0.523019
295 0.418996
300 0.568693
305 0.520477
310 0.547073
315 0.508815
320 0.40813
325 0.363932
330 0.714272
335 0.680915
340 0.648743
345 0.483511
350 0.628418
355 0.731635
360 0.771593
365 0.811418
370 1.03764
375 1.09679
380 1.31797
385 1.2495
390 1.18975
395 1.32904
400 1.39244
405 1.4625
410 1.31376
415 1.46863
420 1.66738
425 1.66148
430 1.65397
435 1.69425
440 1.10692
445 1.35991
450 1.24826
455 1.24635
460 1.29616
465 1.01007
470 1.01112
475 0.903481
480 0.970681
485 0.732379
490 0.734024
495 0.834937
500 0.619049
505 0.560491
510 0.639686
515 0.640546
520 0.555623
525 0.506715
530 0.471958
535 0.594554
540 0.478282
545 0.429585
550 0.544342
555 0.279707
560 0.536846
565 0.402858
570 0.384951
575 0.360344
580 0.437829
585 0.418989
590 0.435457
595 0.480631
600 0.273638
Ex : 318
200 0.264721
205 0.489637
210 0.302309
215 0.442632
220 0.258202
225 0.32745
230 0.321635
235 0.45737
240 0.43782
245 0.315911
250 0.410742
255 0.430533
260 0.358086
265 0.360247
270 0.369067
275 0.288674
280 0.462241
285 0.383533
290 0.433363
295 0.310297
300 0.388016
305 0.35412
310 0.526531
315 0.848465
320 0.488601
325 0.655644
330 0.600801
335 0.941114
340 1.15283
345 1.59772
350 2.54989
355 3.08506
360 3.73767
365 4.5832
370 5.30637
375 6.01313
380 7.10492
385 7.84873
390 8.83237
395 9.68447
400 9.56688
405 10.1855
410 10.353
415 10.4837
420 10.4312
425 10.3422
430 9.9854
435 9.94348
440 9.79123
445 8.7212
450 8.28377
455 7.69859
460 7.24828
465 6.74364
470 5.89518
475 5.13989
480 4.78157
485 4.48056
490 4.04352
495 3.7513
500 3.1455
505 2.79054
510 2.58047
515 2.25882
520 2.06061
525 1.73105
530 1.8658
535 1.37274
540 0.909942
545 0.959684
550 0.948914
555 0.672678
560 0.709191
565 0.724654
570 0.552693
575 0.489077
580 0.49455
585 0.506898
590 0.502156
595 0.406635
600 0.0462736
Ex : 323
200 0.282925
205 0.27505
210 0.341298
215 0.391486
220 0.362349
225 0.201637
230 0.375627
235 0.307566
240 0.40972
245 0.294198
250 0.324695
255 0.304673
260 0.306627
265 0.425782
270 0.333064
275 0.235738
280 0.223242
285 0.249485
290 0.276927
295 0.360131
300 0.2507
305 0.368673
310 0.388092
315 2.6307
320 11.5531
325 5.36941
330 2.57607
335 3.05626
340 4.66673
345 6.46854
350 9.02081
355 12.3647
360 15.0434
365 17.2258
370 20.6777
375 24.6432
380 27.7356
385 31.1099
390 34.0321
395 35.9388
400 38.0006
405 37.5575
410 39.4691
415 38.3747
420 38.6973
425 37.3737
430 36.6282
435 35.6215
440 34.9857
445 32.9272
450 30.8276
455 28.7194
460 26.1715
465 24.6115
470 22.7042
475 20.6957
480 19.1712
485 17.2154
490 15.7776
495 14.4107
500 12.277
505 10.7039
510 9.22347
515 8.22807
520 7.26362
525 6.32616
530 5.50826
535 4.50898
540 4.25526
545 3.40283
550 2.92104
555 2.55045
560 2.61575
565 1.90449
570 1.64969
575 1.25313
580 0.926699
585 0.865814
590 0.666257
595 0.628859
600 0.0715618
Ex : 328
200 0.315714
205 0.273968
210 0.275475
215 0.326627
220 0.443098
225 0.302806
230 0.327029
235 0.334827
240 0.268644
245 0.227013
250 0.286525
255 0.23655
260 0.313864
265 0.347206
270 0.334544
275 0.257486
280 0.25649
285 0.289079
290 0.231426
295 0.346251
300 0.267389
305 0.319367
310 0.307615
315 0.934787
320 28.0478
325 67.9205
330 22.6812
335 6.69972
340 5.93826
345 7.86737
350 10.0447
355 13.8509
360 18.73
365 21.5517
370 24.037
375 26.9938
380 30.4466
385 33.4489
390 36.3042
395 37.9397
400 40.2855
405 41.7767
410 42.1427
415 41.9953
420 40.8321
425 39.8799
430 38.5222
435 38.21
440 37.8001
445 35.606
450 33.4629
455 30.9153
460 28.8708
465 27.784
470 25.2504
475 23.2459
480 21.1294
485 18.9791
490 17.7313
495 15.6246
500 14.501
505 12.4039
510 11.4425
515 9.91815
520 8.69436
525 7.63444
530 6.60557
535 5.92179
540 5.07123
545 4.49736
550 4.02396
555 3.4205
560 2.97564
565 2.48418
570 2.02756
575 1.66831
580 1.53409
585 1.0641
590 0.917107
595 0.747259
600 0.228949
Ex : 333
200 0.289642
205 0.187841
210 0.414243
215 0.223507
220 0.297802
225 0.344136
230 0.26683
235 0.258404
240 0.364421
245 0.26256
250 0.338613
255 0.315619
260 0.264571
265 0.26775
270 0.270588
275 0.302825
280 0.231506
285 0.321184
290 0.162525
295 0.284086
300 0.271283
305 0.316792
310 0.29155
315 0.280677
320 4.95817
325 89.6224
330 153.426
335 42.1378
340 8.86403
345 6.06493
350 6.28035
355 7.14882
360 10.6823
365 15.3796
370 16.0645
375 17.0944
380 17.5259
385 18.5428
390 20.5483
395 20.9476
400 22.4504
405 23.0177
410 23.915
415 23.8199
420 24.2023
425 23.4263
430 22.9045
435 22.7251
440 21.9273
445 21.1762
450 20.4381
455 19.7257
460 19.1033
465 18.0637
470 16.6343
475 15.2215
480 14.2426
485 13.6193
490 12.6219
495 12.0081
500 10.3705
505 9.47483
510 8.75741
515 7.69198
520 7.0232
525 6.15795
530 5.61197
535 5.07115
540 4.29607
545 3.95907
550 3.33995
555 2.98765
560 2.77248
565 2.3705
570 2.08676
575 1.73082
580 1.16574
585 1.13921
590 1.08951
595 0.958582
600 0.852351
Ex : 338
200 0.172025
205 0.279572
210 0.175535
215 0.218189
220 0.234933
225 0.263957
230 0.263671
235 0.341074
240 0.218052
245 0.284377
250 0.345014
255 0.338696
260 0.203613
265 0.240484
270 0.253631
275 0.294386
280 0.21313
285 0.298293
290 0.228552
295 0.27945
300 0.253467
305 0.336901
310 0.284829
315 0.294447
320 0.368298
325 9.41577
330 133.753
335 201.291
340 51.4107
345 8.67882
350 4.6635
355 4.40179
360 4.35918
365 7.19619
370 11.5788
375 11.8394
380 11.0187
385 10.0447
390 10.4446
395 11.1994
400 12.1354
405 12.3728
410 13.5409
415 13.9558
420 13.7203
425 14.105
430 13.5241
435 13.5525
440 13.8742
445 13.4853
450 13.5493
455 12.7616
460 13.0524
465 13.0034
470 12.2073
475 12.1012
480 11.7226
485 10.8779
490 10.318
495 9.7751
500 9.50179
505 8.65661
510 7.86658
515 7.02363
520 6.54577
525 6.29404
530 5.79537
535 5.09906
540 4.68285
545 3.93965
550 3.73384
555 3.18213
560 2.96669
565 2.56524
570 2.29046
575 1.68289
580 1.4066
585 1.13573
590 1.10676
595 0.886426
600 0.455353
Ex : 343
200 0.287085
205 0.304573
210 0.21762
215 0.185777
220 0.178255
225 0.171176
230 0.180311
235 0.239509
240 0.326877
245 0.206213
250 0.189244
255 0.238153
260 0.194795
265 0.306631
270 0.236348
275 0.183135
280 0.27207
285 0.204529
290 0.251054
295 0.294656
300 0.202672
305 0.290538
310 0.321482
315 0.275954
320 0.216818
325 0.414998
330 11.2663
335 155.369
340 224.43
345 55.8332
350 8.64847
355 4.04909
360 3.35401
365 2.9294
370 4.11618
375 8.44592
380 9.88952
385 7.85955
390 6.84078
395 6.74211
400 7.67802
405 8.87438
410 9.86714
415 10.6899
420 10.8748
425 11.0649
430 11.3722
435 11.6162
440 11.8102
445 11.6052
450 11.9685
455 12.2755
460 12.7358
465 12.4963
470 12.6885
475 12.7057
480 12.2939
485 11.5726
490 11.269
495 10.7999
500 10.2927
505 9.60842
510 8.703
515 8.38175
520 7.61898
525 7.0005
530 6.19246
535 5.6775
540 5.13016
545 4.58291
550 4.0635
555 3.60314
560 3.22825
565 2.72888
570 2.29408
575 1.96562
580 1.54772
585 1.37624
590 1.09384
595 0.812868
600 0.808507
Ex : 348
200 0.262727
205 0.208774
210 0.168178
215 0.164092
220 0.24917
225 0.310765
230 0.316004
235 0.181375
240 0.226417
245 0.201391
250 0.170161
255 0.212611
260 0.262548
265 0.300669
270 0.194599
275 0.226291
280 0.199232
285 0.206843
290 0.175854
295 0.23867
300 0.188667
305 0.253605
310 0.210391
315 0.257763
320 0.21549
325 0.270799
330 0.406949
335 11.1093
340 154.737
345 231.532
350 60.5167
355 8.49196
360 3.34342
365 2.90744
370 2.41751
375 3.09208
380 6.82137
385 9.01772
390 7.79373
395 6.30462
400 7.01658
405 7.79606
410 9.02941
415 10.339
420 10.6353
425 10.4618
430 10.6562
435 11.8293
440 12.4134
445 12.7172
450 13.415
455 13.2258
460 13.5842
465 13.9655
470 14.2209
475 14.6115
480 14.5436
485 13.6383
490 13.8825
495 13.0173
500 12.0365
505 11.5601
510 11.0799
515 9.97071
520 9.07747
525 8.21808
530 7.4064
535 6.63343
540 6.28437
545 5.58517
550 5.06362
555 4.3787
560 3.78739
565 3.35146
570 2.65722
575 2.08593
580 1.60046
585 1.4415
590 1.08656
595 0.947366
600 1.52464
Ex : 353
200 0.222432
205 0.175062
210 0.170052
215 0.214535
220 0.180916
225 0.223507
230 0.166609
235 0.159
240 0.119312
245 0.191855
250 0.160993
255 0.26805
260 0.177963
265 0.217373
270 0.193102
275 0.208556
280 0.196924
285 0.18992
290 0.219623
295 0.241452
300 0.240483
305 0.200699
310 0.185912
315 0.240391
320 0.253421
325 0.307263
330 0.267953
335 0.504795
340 11.3051
345 155.531
350 226.707
355 56.9206
360 8.02859
365 3.03549
370 2.71124
375 2.60669
380 2.87336
385 5.55727
390 8.97196
395 8.23299
400 7.48303
405 7.4309
410 8.49235
415 10.0087
420 9.90858
425 10.2819
430 10.6522
435 11.7949
440 13.167
445 12.9711
450 13.5304
455 13.8691
460 14.0998
465 15.4898
470 15.2393
475 16.0479
480 16.0409
485 15.6092
490 15.285
495 14.5701
500 13.9538
505 13.7153
510 12.864
515 11.825
520 10.5757
525 9.68009
530 9.41612
535 8.34629
540 7.33167
545 6.53447
550 5.95794
555 5.1684
560 4.53841
565 3.72398
570 3.23175
575 2.63847
580 1.99185
585 1.6921
590 1.19313
595 1.02499
600 1.11735
Ex : 358
200 0.209977
205 0.211059
210 0.208293
215 0.148731
220 0.241295
225 0.258588
230 0.215167
235 0.297609
240 0.266558
245 0.259916
250 0.185139
255 0.199816
260 0.139888
265 0.215185
270 0.18058
275 0.240863
280 0.214678
285 0.229825
290 0.245751
295 0.196332
300 0.159363
305 0.284939
310 0.174809
315 0.288558
320 0.179468
325 0.168553
330 0.244216
335 0.279172
340 0.400201
345 10.0208
350 150.382
355 224.462
360 57.3752
365 8.01788
370 3.06142
375 3.47934
380 2.92211
385 2.93973
390 4.51767
395 8.92329
400 9.3376
405 8.85547
410 9.5491
415 10.2276
420 10.5939
425 10.4377
430 11.3995
435 12.4715
440 13.4283
445 14.2463
450 14.3703
455 15.4707
460 15.9953
465 17.4823
470 17.4789
475 17.5141
480 17.621
485 17.6364
490 17.3447
495 17.1093
500 15.6146
505 14.9467
510 13.6118
515 13.0247
520 11.8225
525 11.1039
530 9.72385
535 9.22067
540 8.42552
545 7.39281
550 6.46235
555 5.63275
560 5.00101
565 4.39363
570 3.81688
575 2.88216
580 2.27875
585 1.90264
590 1.44533
595 1.0725
600 1.14024
Ex : 363
200 0.213717
205 0.184097
210 0.176943
215 0.141924
220 0.144517
225 0.169934
230 0.201751
235 0.187125
240 0.198911
245 0.173028
250 0.187739
255 0.180004
260 0.218594
265 0.198912
270 0.217176
275 0.192402
280 0.157991
285 0.223412
290 0.21968
295 0.187164
300 0.1573
305 0.175335
310 0.196083
315 0.311554
320 0.242186
325 0.198825
330 0.293964
335 0.300213
340 0.33398
345 0.517618
350 9.41286
355 142.945
360 219.201
365 59.2908
370 8.32029
375 2.99806
380 2.92121
385 2.9665
390 2.98404
395 4.32812
400 8.92499
405 11.3861
410 11.7685
415 11.9206
420 11.7006
425 11.5366
430 12.4868
435 13.8218
440 15.496
445 16.254
450 16.5227
455 17.149
460 18.1832
465 18.9816
470 20.1547
475 19.929
480 19.9477
485 20.032
490 19.4221
495 19.6207
500 17.9514
505 17.1367
510 15.4606
515 14.4587
520 13.4453
525 12.2617
530 11.5255
535 10.0468
540 8.93812
545 8.31901
550 7.50082
555 6.67892
560 5.95997
565 5.02001
570 4.18528
575 3.46566
580 2.73885
585 2.16752
590 1.63752
595 1.27874
600 1.22914
Ex : 368
200 0.130416
205 0.127557
210 0.247943
215 0.188191
220 0.17328
225 0.174204
230 0.246975
235 0.124969
240 0.126388
245 0.124862
250 0.183901
255 0.171211
260 0.114167
265 0.172306
270 0.214431
275 0.154078
280 0.159694
285 0.160626
290 0.148389
295 0.209898
300 0.169512
305 0.159026
310 0.16939
315 0.166161
320 0.135793
325 0.171011
330 0.219667
335 0.29927
340 0.34825
345 0.29601
350 0.323385
355 7.28219
360 136.999
365 218.867
370 59.7959
375 8.63355
380 3.08213
385 3.19401
390 3.15952
395 2.97863
400 4.38517
405 8.59815
410 12.6941
415 12.566
420 11.6905
425 11.1619
430 11.9229
435 13.1885
440 14.6508
445 16.1394
450 16.776
455 17.3607
460 18.7964
465 20.5135
470 21.1287
475 22.2804
480 22.4264
485 22.1939
490 21.405
495 21.401
500 20.6382
505 20.0607
510 18.4617
515 17.1152
520 15.8423
525 14.6507
530 13.2173
535 11.8168
540 10.9828
545 10.0137
550 8.66206
555 7.65539
560 6.74843
565 5.78755
570 4.82575
575 4.03656
580 3.116
585 2.57103
590 1.81459
595 1.48426
600 1.53513
Ex : 373
200 0.152423
205 0.184099
210 0.15194
215 0.151874
220 0.147435
225 0.171507
230 0.175917
235 0.106373
240 0.136364
245 0.208839
250 0.194253
255 0.197173
260 0.146234
265 0.172373
270 0.13303
275 0.122526
280 0.15848
285 0.187198
290 0.161653
295 0.156184
300 0.168336
305 0.136298
310 0.188516
315 0.19834
320 0.222633
325 0.181162
330 0.170294
335 0.208724
340 0.251453
345 0.275996
350 0.253353
355 0.487439
360 8.87225
365 137.006
370 220.231
375 60.2637
380 8.93183
385 3.15044
390 3.13522
395 3.17335
400 3.81019
405 5.39749
410 9.39357
415 12.7817
420 11.8683
425 11.092
430 11.1803
435 12.0679
440 13.2643
445 14.2371
450 15.4493
455 16.8968
460 18.8334
465 20.5218
470 21.6005
475 22.2209
480 23.0815
485 23.7594
490 23.5146
495 22.7776
500 22.4068
505 21.4451
510 19.9808
515 18.8908
520 16.998
525 15.4193
530 14.0444
535 13.0107
540 11.8068
545 10.2625
550 9.12695
555 8.39304
560 7.06294
565 6.38684
570 5.35363
575 4.2151
580 3.197
585 2.61866
590 1.99424
595 1.60913
600 1.73301
Ex : 378
200 0.106395
205 0.099389
210 0.153758
215 0.144476
220 0.136975
225 0.157268
230 0.184593
235 0.146049
240 0.169131
245 0.132494
250 0.141578
255 0.13509
260 0.194693
265 0.178493
270 0.119724
275 0.219049
280 0.177135
285 0.147272
290 0.202007
295 0.160885
300 0.144622
305 0.132176
310 0.147843
315 0.218449
320 0.162453
325 0.119749
330 0.153295
335 0.178068
340 0.218088
345 0.200907
350 0.316077
355 0.386763
360 0.430546
365 8.7813
370 143.734
375 230.194
380 62.2757
385 9.34671
390 3.46608
395 3.76928
400 4.33507
405 5.72421
410 7.48011
415 10.3927
420 13.4306
425 12.9345
430 12.5304
435 13.2611
440 13.707
445 14.8176
450 15.8224
455 17.0678
460 19.0054
465 19.8802
470 21.5405
475 22.251
480 22.4683
485 22.7576
490 22.7055
495 21.8585
500 21.1896
505 20.6475
510 19.1615
515 17.5453
520 16.2001
525 15.1638
530 14.0297
535 12.6236
540 11.4682
545 10.135
550 8.95947
555 7.84574
560 7.19974
565 5.96465
570 5.23173
575 4.1242
580 3.19616
585 2.67642
590 1.9845
595 1.4877
600 2.0772
Ex : 383
200 0.121209
205 0.17199
210 0.118076
215 0.227188
220 0.156975
225 0.129747
230 0.248718
235 0.164753
240 0.134227
245 0.181631
250 0.145957
255 0.23461
260 0.117403
265 0.179035
270 0.15904
275 0.123721
280 0.154936
285 0.18316
290 0.142965
295 0.162042
300 0.147042
305 0.152613
310 0.15252
315 0.1438
320 0.208839
325 0.152599
330 0.240069
335 0.183061
340 0.194484
345 0.278434
350 0.232224
355 0.296235
360 0.317259
365 0.409435
370 8.35623
375 145.666
380 236.859
385 64.9071
390 9.87724
395 3.68446
400 4.13839
405 6.14414
410 8.0292
415 9.6352
420 10.8324
425 13.7031
430 14.7755
435 15.1208
440 16.0467
445 16.2822
450 16.9752
455 17.7454
460 19.575
465 20.909
470 22.2796
475 22.8123
480 23.5124
485 22.9225
490 23.0925
495 22.9548
500 21.7747
505 21.2099
510 19.4481
515 18.1248
520 16.8354
525 15.2
530 14.1607
535 12.7813
540 11.6617
545 10.1352
550 9.11603
555 8.26085
560 7.00771
565 6.11299
570 4.85072
575 4.0651
580 3.15211
585 2.51491
590 1.86395
595 1.5639
600 1.72753
Ex : 388
200 0.213832
205 0.206692
210 0.199826
215 0.138497
220 0.164845
225 0.148706
230 0.13454
235 0.175248
240 0.109073
245 0.11032
250 0.17462
255 0.147757
260 0.154086
265 0.109023
270 0.191123
275 0.126322
280 0.144687
285 0.220484
290 0.127554
295 0.127409
300 0.163925
305 0.140392
310 0.171465
315 0.153495
320 0.176042
325 0.155675
330 0.186656
335 0.157367
340 0.184975
345 0.178437
350 0.209725
355 0.144285
360 0.210888
365 0.270888
370 0.372804
375 9.93721
380 148.886
385 234.609
390 63.1172
395 9.32982
400 3.83714
405 5.59871
410 8.17642
415 8.89878
420 9.19968
425 9.84184
430 12.6723
435 15.5559
440 15.9035
445 16.0588
450 16.6359
455 17.6744
460 19.2912
465 20.8561
470 22.5403
475 23.0799
480 24.0069
485 23.7506
490 23.792
495 23.4741
500 22.8932
505 21.5535
510 20.6838
515 18.6762
520 17.4276
525 16.0155
530 14.9243
535 13.1482
540 11.7374
545 10.8751
550 9.70113
555 8.46277
560 7.58968
565 6.25153
570 5.31969
575 4.35407
580 3.42813
585 2.63933
590 1.97404
595 1.63461
600 2.16813
Ex : 393
200 0.166552
205 0.139466
210 0.135474
215 0.114114
220 0.114475
225 0.145262
230 0.174366
235 0.148515
240 0.167074
245 0.105812
250 0.16335
255 0.142033
260 0.151779
265 0.150778
270 0.169386
275 0.11663
280 0.146923
285 0.107996
290 0.146996
295 0.126848
300 0.127083
305 0.0865712
310 0.135201
315 0.124559
320 0.0830117
325 0.14235
330 0.258742
335 0.172622
340 0.140808
345 0.198815
350 0.162596
355 0.145247
360 0.22392
365 0.247552
370 0.308385
375 0.481092
380 8.04417
385 145.984
390 240.275
395 65.6884
400 10.0397
405 4.78044
410 6.13291
415 7.24961
420 7.29308
425 7.05471
430 8.17629
435 11.3334
440 15.1994
445 15.4312
450 15.8025
455 16.4344
460 18.3114
465 20.2745
470 21.3623
475 22.7793
480 23.5622
485 24.2034
490 23.8965
495 23.4864
500 23.2722
505 22.4297
510 20.9753
515 19.4046
520 18.3876
525 16.5309
530 14.9729
535 13.6803
540 12.6666
545 10.8806
550 10.3226
555 8.93144
560 7.69125
565 6.6396
570 5.42899
575 4.46937
580 3.52421
585 2.7608
590 2.00064
595 1.68395
600 1.06834
Ex : 398
200 0.157582
205 0.171174
210 0.139039
215 0.119666
220 0.144715
225 0.156825
230 0.138659
235 0.179756
240 0.0958664
245 0.081791
250 0.128165
255 0.134342
260 0.162758
265 0.139779
270 0.153864
275 0.161449
280 0.116088
285 0.10084
290 0.109321
295 0.0909472
300 0.13349
305 0.112971
310 0.106956
315 0.172175
320 0.11895
325 0.114622
330 0.098028
335 0.166357
340 0.168656
345 0.176331
350 0.219992
355 0.158893
360 0.260605
365 0.2344
370 0.267559
375 0.241839
380 0.431508
385 7.94089
390 147.471
395 244.104
400 67.4388
405 11.0008
410 5.62409
415 6.53576
420 6.98416
425 6.87135
430 7.43405
435 8.82353
440 11.4812
445 15.7265
450 16.5329
455 17.1844
460 18.8323
465 20.6648
470 21.8237
475 22.661
480 23.952
485 24.2126
490 24.646
495 24.6499
500 24.1871
505 23.3161
510 21.349
515 19.9643
520 18.4067
525 17.4113
530 15.5003
535 14.1034
540 12.9667
545 11.9105
550 10.6187
555 9.26471
560 8.08677
565 6.87624
570 5.75718
575 4.72673
580 3.52214
585 2.78059
590 2.24002
595 1.73727
600 2.17738
Ex : 403
200 0.108901
205 0.129098
210 0.141689
215 0.126
220 0.14692
225 0.133932
230 0.192114
235 0.168768
240 0.138076
245 0.114293
250 0.147549
255 0.131099
260 0.120498
265 0.154381
270 0.113032
275 0.134123
280 0.167219
285 0.163569
290 0.179275
295 0.2076
300 0.153375
305 0.121328
310 0.128802
315 0.141446
320 0.118548
325 0.113667
330 0.19629
335 0.14901
340 0.122415
345 0.144673
350 0.146684
355 0.202781
360 0.218193
365 0.200271
370 0.204472
375 0.237323
380 0.339858
385 0.451369
390 8.67338
395 149.561
400 243.87
405 69.7923
410 13.2647
415 7.29259
420 7.25979
425 7.45151
430 8.1785
435 9.05608
440 10.5989
445 13.0778
450 16.8304
455 18.6313
460 19.4684
465 21.1625
470 22.4584
475 23.5083
480 24.9497
485 25.4985
490 25.2166
495 25.5303
500 24.3708
505 23.4262
510 21.9448
515 20.4593
520 18.8882
525 17.3475
530 15.7776
535 14.7636
540 12.9331
545 11.7669
550 10.6073
555 9.59545
560 8.21294
565 7.07902
570 5.88021
575 4.74252
580 3.5855
585 2.77893
590 2.19372
595 1.7307
600 2.23827
Ex : 408
200 0.119085
205 0.130566
210 0.139943
215 0.136787
220 0.158155
225 0.115226
230 0.0770485
235 0.120905
240 0.104569
245 0.130259
250 0.155151
255 0.135524
260 0.132966
265 0.16178
270 0.152188
275 0.14225
280 0.143789
285 0.163054
290 0.141824
295 0.144134
300 0.125645
305 0.122891
310 0.0877563
315 0.0931795
320 0.173746
325 0.236022
330 0.129158
335 0.106484
340 0.142293
345 0.143189
350 0.179956
355 0.147453
360 0.14717
365 0.179195
370 0.189126
375 0.21729
380 0.233023
385 0.312741
390 0.425282
395 8.69206
400 154.286
405 253.126
410 71.3404
415 13.9074
420 7.18578
425 6.77001
430 7.41398
435 8.68387
440 10.203
445 11.5589
450 13.0801
455 17.073
460 20.8071
465 21.9561
470 22.9887
475 23.7916
480 24.0907
485 24.7593
490 25.1474
495 25.1853
500 24.3496
505 23.2263
510 21.982
515 20.9066
520 18.973
525 17.629
530 15.8988
535 14.4972
540 13.2283
545 12.002
550 10.7079
555 9.60306
560 8.57255
565 6.99301
570 6.1483
575 4.88177
580 3.61452
585 2.80802
590 2.2609
595 1.83737
600 1.4959
Ex : 413
200 0.134657
205 0.162727
210 0.122718
215 0.126811
220 0.184321
225 0.123854
230 0.0943257
235 0.113753
240 0.116874
245 0.160727
250 0.0916405
255 0.129281
260 0.137611
265 0.137522
270 0.159937
275 0.134041
280 0.114213
285 0.0850542
290 0.175244
295 0.18569
300 0.135252
305 0.119203
310 0.119418
315 0.12071
320 0.118939
325 0.137226
330 0.110224
335 0.158267
340 0.146173
345 0.190813
350 0.190701
355 0.156007
360 0.127988
365 0.174556
370 0.14992
375 0.177167
380 0.23175
385 0.267121
390 0.288601
395 0.535389
400 9.48725
405 160.379
410 255.243
415 69.1304
420 11.7712
425 5.1114
430 4.99353
435 6.53202
440 7.72603
445 8.72832
450 10.2982
455 13.0987
460 16.1623
465 20.8364
470 21.2919
475 22.1149
480 23.3507
485 23.689
490 23.9404
495 23.4935
500 22.868
505 22.236
510 21.123
515 19.7017
520 18.2064
525 16.829
530 15.7776
535 14.5512
540 12.8848
545 11.7343
550 10.5559
555 9.23106
560 8.05261
565 7.17504
570 5.62206
575 4.70047
580 3.60662
585 2.75969
590 2.01689
595 1.62868
600 1.34216
Ex : 418
200 0.14925
205 0.123413
210 0.118204
215 0.111644
220 0.0853697
225 0.114036
230 0.105936
235 0.0888444
240 0.140247
245 0.154473
250 0.100409
255 0.134508
260 0.129683
265 0.171427
270 0.129143
275 0.150662
280 0.145125
285 0.128444
290 0.15681
295 0.101488
300 0.0916923
305 0.106614
310 0.0964251
315 0.17226
320 0.140436
325 0.111753
330 0.181047
335 0.113924
340 0.150322
345 0.130901
350 0.107932
355 0.186559
360 0.159521
365 0.130573
370 0.185526
375 0.190402
380 0.217796
385 0.17502
390 0.248639
395 0.408126
400 0.527104
405 9.31761
410 159.88
415 262.427
420 72.5091
425 10.6446
430 3.80002
435 3.62081
440 4.97938
445 6.61036
450 7.68029
455 10.1105
460 12.3975
465 15.352
470 19.6242
475 21.5189
480 21.3799
485 21.8743
490 21.6964
495 21.8925
500 21.5006
505 20.921
510 19.6098
515 18.454
520 17.487
525 15.9559
530 14.3145
535 13.311
540 12.4341
545 11.0098
550 9.93171
555 8.83626
560 7.89232
565 6.71303
570 5.44789
575 4.41552
580 3.32418
585 2.65727
590 2.10244
595 1.56245
600 1.60622
Ex : 423
200 0.144223
205 0.127214
210 0.0879896
215 0.155055
220 0.135175
225 0.0990494
230 0.0925314
235 0.137041
240 0.111953
245 0.133896
250 0.145372
255 0.129659
260 0.0987883
265 0.135548
270 0.115084
275 0.100993
280 0.090613
285 0.175692
290 0.119559
295 0.123411
300 0.129936
305 0.0963259
310 0.149071
315 0.125629
320 0.154131
325 0.0866859
330 0.138974
335 0.183469
340 0.137765
345 0.13908
350 0.119028
355 0.142627
360 0.124647
365 0.137439
370 0.167996
375 0.133731
380 0.188422
385 0.157104
390 0.220538
395 0.261259
400 0.37757
405 0.532887
410 9.60007
415 170.202
420 266.009
425 69.8653
430 9.90949
435 3.35582
440 3.13526
445 5.01374
450 6.60375
455 8.54038
460 10.6672
465 12.8691
470 15.2497
475 18.1248
480 20.4793
485 20.2848
490 20.6825
495 20.4768
500 19.6573
505 19.1998
510 18.1471
515 16.7492
520 15.9018
525 15.2358
530 13.5666
535 12.7032
540 11.4335
545 10.0668
550 8.81465
555 8.04778
560 7.0154
565 6.13717
570 5.32396
575 4.10896
580 3.20502
585 2.55123
590 1.91498
595 1.50431
600 1.60544
Ex : 428
200 0.171695
205 0.143294
210 0.130063
215 0.111936
220 0.130804
225 0.126621
230 0.19057
235 0.152722
240 0.122216
245 0.166295
250 0.131673
255 0.143006
260 0.115717
265 0.103493
270 0.136147
275 0.143405
280 0.162071
285 0.126205
290 0.138453
295 0.121621
300 0.114248
305 0.143788
310 0.12933
315 0.153553
320 0.192718
325 0.184044
330 0.138123
335 0.141812
340 0.104772
345 0.101185
350 0.124394
355 0.128254
360 0.159106
365 0.150001
370 0.11323
375 0.183792
380 0.168234
385 0.178661
390 0.211925
395 0.224052
400 0.243896
405 0.302105
410 0.543039
415 10.5364
420 173.311
425 275.73
430 73.2366
435 10.176
440 3.5101
445 3.91183
450 5.72193
455 7.9554
460 9.2182
465 11.1172
470 12.9381
475 14.7861
480 17.4705
485 19.4013
490 19.0866
495 18.6483
500 18.1738
505 17.0183
510 16.3299
515 14.9298
520 13.9964
525 13.1004
530 12.3929
535 11.0118
540 9.96874
545 8.88595
550 8.1145
555 7.21838
560 6.17991
565 5.58071
570 4.39607
575 3.46337
580 2.7253
585 2.16606
590 1.73875
595 1.43389
600 1.48517
Ex : 433
200 0.173631
205 0.202446
210 0.131995
215 0.120396
220 0.0849772
225 0.112518
230 0.103621
235 0.117104
240 0.187772
245 0.196352
250 0.101523
255 0.13802
260 0.131568
265 0.15488
270 0.201754
275 0.180614
280 0.132067
285 0.115309
290 0.10719
295 0.120057
300 0.131108
305 0.110482
310 0.154546
315 0.181826
320 0.146134
325 0.159383
330 0.151434
335 0.163439
340 0.163358
345 0.157539
350 0.150556
355 0.143167
360 0.242675
365 0.176414
370 0.134359
375 0.193263
380 0.145001
385 0.157429
390 0.154772
395 0.212289
400 0.222646
405 0.259285
410 0.311274
415 0.542561
420 12.1528
425 191.104
430 285.102
435 74.3953
440 10.7997
445 4.17275
450 4.88437
455 6.55636
460 8.30206
465 10.1563
470 11.0482
475 12.5597
480 14.0999
485 15.6971
490 18.0807
495 17.8697
500 16.3236
505 15.5541
510 14.8418
515 13.5319
520 12.7366
525 11.9382
530 10.5099
535 9.7233
540 8.67452
545 8.08635
550 7.25799
555 6.57282
560 5.56492
565 4.77314
570 4.06929
575 3.28458
580 2.51591
585 2.03469
590 1.54737
595 1.25236
600 1.44208
Ex : 438
200 0.101491
205 0.148273
210 0.100992
215 0.115368
220 0.160108
225 0.184223
230 0.207032
235 0.17081
240 0.115557
245 0.107956
250 0.139282
255 0.156062
260 0.129923
265 0.159933
270 0.140093
275 0.131025
280 0.088992
285 0.0939331
290 0.101682
295 0.161735
300 0.0943428
305 0.144054
310 0.127008
315 0.152223
320 0.149036
325 0.153737
330 0.155901
335 0.113244
340 0.147548
345 0.220443
350 0.144503
355 0.114935
360 0.127957
365 0.134999
370 0.140478
375 0.169824
380 0.130644
385 0.125304
390 0.129355
395 0.200317
400 0.176828
405 0.223715
410 0.21543
415 0.353021
420 0.461268
425 11.2211
430 190.161
435 308.041
440 79.3797
445 11.93
450 5.14371
455 5.49241
460 7.01765
465 8.82091
470 9.65996
475 10.4996
480 11.3882
485 12.0163
490 13.122
495 14.8659
500 15.4156
505 13.6669
510 12.8512
515 11.9453
520 10.9131
525 9.53188
530 9.24034
535 8.34972
540 7.58974
545 7.08391
550 6.17184
555 5.5065
560 4.656
565 4.00557
570 3.38063
575 2.88308
580 2.18717
585 1.76083
590 1.31108
595 1.08156
600 1.43184
Ex : 443
200 0.126379
205 0.107271
210 0.116934
215 0.122202
220 0.205197
225 0.135573
230 0.166867
235 0.129764
240 0.157258
245 0.143398
250 0.14574
255 0.126365
260 0.132502
265 0.0977752
270 0.129931
275 0.123071
280 0.135401
285 0.113562
290 0.144351
295 0.140697
300 0.181815
305 0.121962
310 0.141704
315 0.121729
320 0.144412
325 0.151966
330 0.191764
335 0.153579
340 0.157456
345 0.139327
350 0.111409
355 0.129336
360 0.152708
365 0.163749
370 0.155641
375 0.175398
380 0.161463
385 0.156798
390 0.202256
395 0.189202
400 0.255338
405 0.223819
410 0.283186
415 0.265265
420 0.374089
425 0.52611
430 13.6376
435 209.01
440 318.205
445 81.6648
450 12.6422
455 5.69137
460 5.68521
465 6.76445
470 8.06502
475 8.9187
480 9.17536
485 9.82283
490 10.4719
495 10.5171
500 11.93
505 12.8936
510 11.1411
515 9.72692
520 9.24092
525 8.26209
530 7.21642
535 6.9759
540 6.35124
545 5.76322
550 5.00679
555 4.61523
560 4.07065
565 3.54434
570 2.93846
575 2.51453
580 1.83055
585 1.40388
590 1.08609
595 0.953677
600 0.669184
Ex : 448
200 0.160202
205 0.152613
210 0.128043
215 0.186485
220 0.117705
225 0.104617
230 0.105555
235 0.10965
240 0.111623
245 0.171337
250 0.182427
255 0.164757
260 0.129596
265 0.163897
270 0.129722
275 0.13772
280 0.134715
285 0.151841
290 0.150033
295 0.146453
300 0.15268
305 0.15864
310 0.137387
315 0.169243
320 0.125881
325 0.147338
330 0.138247
335 0.15894
340 0.149023
345 0.137798
350 0.153455
355 0.122534
360 0.192374
365 0.171197
370 0.235831
375 0.170489
380 0.169175
385 0.142749
390 0.17119
395 0.188617
400 0.179702
405 0.131555
410 0.178788
415 0.277734
420 0.236472
425 0.35037
430 0.629327
435 13.3395
440 218.716
445 332.199
450 85.3871
455 12.9276
460 5.48141
465 5.47695
470 6.25124
475 6.89931
480 7.34619
485 7.4737
490 7.51731
495 7.55887
500 7.92764
505 8.7757
510 9.73586
515 9.03619
520 7.53061
525 6.89836
530 6.32594
535 5.50179
540 5.02724
545 4.48242
550 4.0742
555 3.69057
560 3.21155
565 2.76864
570 2.47316
575 1.89888
580 1.3951
585 1.18671
590 0.920612
595 0.825616
600 0.480551
Ex : 453
200 0.12229
205 0.11071
210 0.131645
215 0.127633
220 0.118086
225 0.132518
230 0.135361
235 0.121762
240 0.0883631
245 0.150466
250 0.124318
255 0.139831
260 0.130778
265 0.111561
270 0.206095
275 0.136377
280 0.12693
285 0.142192
290 0.149548
295 0.103174
300 0.143747
305 0.143636
310 0.153669
315 0.143905
320 0.162778
325 0.152114
330 0.122856
335 0.197508
340 0.138452
345 0.129704
350 0.139715
355 0.111668
360 0.113756
365 0.129048
370 0.199328
375 0.114743
380 0.167236
385 0.216221
390 0.181604
395 0.248131
400 0.180428
405 0.16443
410 0.152707
415 0.205197
420 0.247249
425 0.30704
430 0.404186
435 0.610619
440 14.2919
445 238.691
450 345.119
455 82.9219
460 12.5527
465 4.93328
470 4.42761
475 4.91444
480 5.56448
485 5.53922
490 5.58092
495 5.74933
500 5.72965
505 5.49062
510 5.66981
515 6.85852
520 6.86248
525 5.56839
530 4.89509
535 4.36782
540 3.78617
545 3.35579
550 3.05273
555 2.65327
560 2.44638
565 2.12836
570 1.85124
575 1.44178
580 1.21261
585 0.916929
590 0.787607
595 0.623089
600 0.495603
Ex : 458
200 0.107601
205 0.0955008
210 0.0934093
215 0.115726
220 0.136735
225 0.128876
230 0.128334
235 0.133482
240 0.107523
245 0.100302
250 0.125948
255 0.114685
260 0.117269
265 0.118501
270 0.150061
275 0.138084
280 0.179418
285 0.154408
290 0.172994
295 0.139651
300 0.141128
305 0.0924711
310 0.134378
315 0.169466
320 0.121962
325 0.166711
330 0.236112
335 0.161825
340 0.129024
345 0.134323
350 0.109951
355 0.152254
360 0.191724
365 0.139931
370 0.134549
375 0.174037
380 0.167307
385 0.151994
390 0.185057
395 0.181065
400 0.179617
405 0.189477
410 0.234622
415 0.167389
420 0.205002
425 0.242532
430 0.242215
435 0.368787
440 0.691266
445 16.2882
450 243.123
455 357.523
460 88.8631
465 12.6685
470 4.13238
475 3.31866
480 3.51415
485 4.01263
490 4.30034
495 4.2191
500 3.89859
505 3.68817
510 3.72455
515 3.7982
520 5.09527
525 5.48119
530 4.37631
535 3.65865
540 3.40057
545 2.87512
550 2.52525
555 2.26425
560 1.9033
565 1.68233
570 1.33031
575 1.15933
580 0.957033
585 0.705112
590 0.625112
595 0.486716
600 0.380035
Ex : 463
200 0.146458
205 0.157451
210 0.152542
215 0.138419
220 0.114328
225 0.144852
230 0.139212
235 0.148978
240 0.111538
245 0.190878
250 0.129875
255 0.114851
260 0.128344
265 0.119219
270 0.112844
275 0.114284
280 0.103955
285 0.192074
290 0.128566
295 0.121414
300 0.129306
305 0.150983
310 0.112498
315 0.143738
320 0.109301
325 0.0994747
330 0.138194
335 0.108327
340 0.138423
345 0.190975
350 0.160689
355 0.125365
360 0.134799
365 0.160195
370 0.129939
375 0.126341
380 0.17113
385 0.142781
390 0.19316
395 0.160978
400 0.141952
405 0.179141
410 0.25143
415 0.16787
420 0.187707
425 0.176623
430 0.257584
435 0.305934
440 0.441929
445 0.644373
450 15.081
455 246.822
460 372.584
465 92.0964
470 12.6229
475 3.73575
480 2.67036
485 2.62574
490 2.92768
495 3.04526
500 2.93909
505 2.88017
510 2.7014
515 2.77964
520 2.81703
525 3.34573
530 4.5906
535 3.87705
540 2.7881
545 2.51112
550 2.24046
555 1.91024
560 1.58744
565 1.50891
570 1.30549
575 0.990601
580 0.812069
585 0.548834
590 0.58252
595 0.413727
600 0.762024
Ex : 468
200 0.116327
205 0.121418
210 0.106684
215 0.123158
220 0.109781
225 0.111871
230 0.180733
235 0.126129
240 0.11088
245 0.11751
250 0.128235
255 0.123408
260 0.135918
265 0.157798
270 0.11481
275 0.134209
280 0.152932
285 0.157376
290 0.1443
295 0.120501
300 0.0993395
305 0.157275
310 0.0967333
315 0.158621
320 0.0955896
325 0.124884
330 0.116765
335 0.160822
340 0.1142
345 0.108168
350 0.132133
355 0.0988024
360 0.138653
365 0.113945
370 0.180897
375 0.123807
380 0.167111
385 0.159859
390 0.158229
395 0.135841
400 0.136133
405 0.157668
410 0.173593
415 0.178097
420 0.192653
425 0.195059
430 0.182156
435 0.277078
440 0.3068
445 0.414847
450 0.717715
455 16.2054
460 247.105
465 386.433
470 94.1669
475 12.3055
480 3.17608
485 2.18088
490 2.08371
495 2.44825
500 2.55123
505 2.17295
510 2.0466
515 2.03149
520 2.17855
525 2.13936
530 2.55692
535 3.52277
540 3.53378
545 2.58178
550 2.10037
555 1.95814
560 1.63681
565 1.26906
570 1.11487
575 0.846438
580 0.722284
585 0.631998
590 0.508716
595 0.459722
600 0.155705
Ex : 473
200 0.152116
205 0.11091
210 0.113674
215 0.106997
220 0.125979
225 0.148251
230 0.106951
235 0.124957
240 0.150042
245 0.128246
250 0.100864
255 0.146015
260 0.137025
265 0.111667
270 0.131063
275 0.1699
280 0.143877
285 0.13405
290 0.156236
295 0.121119
300 0.126996
305 0.138075
310 0.111184
315 0.155681
320 0.106498
325 0.114426
330 0.117332
335 0.142713
340 0.150606
345 0.110148
350 0.139454
355 0.125469
360 0.157087
365 0.130961
370 0.13915
375 0.136489
380 0.153149
385 0.205938
390 0.147955
395 0.12441
400 0.195119
405 0.181263
410 0.151541
415 0.158415
420 0.184816
425 0.184291
430 0.174416
435 0.202276
440 0.208607
445 0.264628
450 0.3952
455 0.584834
460 19.143
465 264.656
470 368.914
475 86.7286
480 11.5094
485 2.74195
490 1.86182
495 1.78622
500 1.86581
505 2.01588
510 1.9926
515 1.87023
520 1.72061
525 1.76783
530 1.8425
535 1.97766
540 2.87045
545 3.42283
550 2.4142
555 1.77548
560 1.69534
565 1.30088
570 1.0903
575 0.803771
580 0.669593
585 0.557258
590 0.505648
595 0.427842
600 0.134954
Ex : 478
200 0.114274
205 0.164634
210 0.144754
215 0.13671
220 0.198496
225 0.125625
230 0.180075
235 0.14803
240 0.145614
245 0.124471
250 0.187235
255 0.193567
260 0.146254
265 0.12092
270 0.0947989
275 0.130253
280 0.142111
285 0.127107
290 0.165176
295 0.134211
300 0.232213
305 0.141725
310 0.200192
315 0.147686
320 0.156737
325 0.169117
330 0.119952
335 0.149445
340 0.114377
345 0.147079
350 0.139301
355 0.176911
360 0.13198
365 0.162254
370 0.159861
375 0.125667
380 0.116079
385 0.163691
390 0.192802
395 0.160034
400 0.145337
405 0.153768
410 0.202212
415 0.169372
420 0.188942
425 0.209325
430 0.205101
435 0.196173
440 0.29079
445 0.285926
450 0.343101
455 0.464862
460 0.736919
465 19.1684
470 267.97
475 367.752
480 90.4266
485 11.8833
490 2.67694
495 1.60529
500 1.40777
505 1.77031
510 1.83749
515 1.85437
520 1.53821
525 1.47652
530 1.59303
535 1.53119
540 1.61576
545 2.1065
550 2.88039
555 2.34629
560 1.61663
565 1.46628
570 1.20918
575 0.911849
580 0.711545
585 0.532259
590 0.406469
595 0.421245
600 0.170496
Ex : 483
200 0.163451
205 0.196915
210 0.151508
215 0.158887
220 0.165657
225 0.134699
230 0.144623
235 0.14822
240 0.140758
245 0.188516
250 0.132321
255 0.148119
260 0.141995
265 0.133343
270 0.195473
275 0.132852
280 0.148508
285 0.126559
290 0.129659
295 0.16727
300 0.167776
305 0.143209
310 0.124808
315 0.144829
320 0.129598
325 0.191869
330 0.125392
335 0.160035
340 0.132755
345 0.117973
350 0.114564
355 0.14164
360 0.180194
365 0.18181
370 0.171859
375 0.244626
380 0.151906
385 0.132979
390 0.191006
395 0.159939
400 0.136136
405 0.199019
410 0.173562
415 0.155686
420 0.193248
425 0.2359
430 0.223846
435 0.191482
440 0.211221
445 0.217425
450 0.275316
455 0.331895
460 0.46295
465 0.724455
470 15.5632
475 256.742
480 394.833
485 95.9859
490 12.2728
495 2.59586
500 1.55531
505 1.29798
510 1.498
515 1.80196
520 1.71316
525 1.60096
530 1.45965
535 1.45502
540 1.46244
545 1.44855
550 1.59911
555 2.39492
560 2.50635
565 1.67752
570 1.36159
575 1.10584
580 0.854685
585 0.57498
590 0.491757
595 0.475897
600 0.15641
Ex : 488
200 0.170422
205 0.136175
210 0.171875
215 0.19526
220 0.163604
225 0.127622
230 0.168035
235 0.145899
240 0.188966
245 0.204341
250 0.147949
255 0.121596
260 0.146321
265 0.118572
270 0.145711
275 0.141517
280 0.158338
285 0.111525
290 0.155282
295 0.222173
300 0.145773
305 0.20983
310 0.123428
315 0.149929
320 0.19012
325 0.207292
330 0.143609
335 0.21323
340 0.270152
345 0.186681
350 0.263153
355 0.1722
360 0.151634
365 0.169801
370 0.139355
375 0.208655
380 0.20019
385 0.2068
390 0.193024
395 0.201543
400 0.201451
405 0.237129
410 0.189138
415 0.216176
420 0.157948
425 0.224195
430 0.201134
435 0.258421
440 0.226598
445 0.260646
450 0.209105
455 0.298615
460 0.386042
465 0.505046
470 0.677511
475 18.2023
480 277.858
485 383.968
490 91.8046
495 11.7296
500 2.51157
505 1.31108
510 1.18997
515 1.43554
520 1.65494
525 1.66078
530 1.49651
535 1.33462
540 1.27426
545 1.24163
550 1.23572
555 1.35819
560 1.95218
565 2.20961
570 1.59904
575 1.04983
580 0.923587
585 0.649688
590 0.554802
595 0.390274
600 0.373276
Ex : 493
200 0.114557
205 0.187516
210 0.176217
215 0.160622
220 0.122144
225 0.184744
230 0.169623
235 0.174862
240 0.152658
245 0.126011
250 0.168642
255 0.200708
260 0.13277
265 0.18571
270 0.189631
275 0.160074
280 0.10811
285 0.165242
290 0.103652
295 0.146029
300 0.156911
305 0.139998
310 0.151726
315 0.110871
320 0.119947
325 0.176392
330 0.138573
335 0.149282
340 0.138965
345 0.181513
350 0.109803
355 0.134907
360 0.144347
365 0.208874
370 0.192768
375 0.172764
380 0.184821
385 0.192971
390 0.144545
395 0.119655
400 0.160856
405 0.186636
410 0.134268
415 0.212258
420 0.182104
425 0.177294
430 0.247194
435 0.242619
440 0.263936
445 0.216042
450 0.289154
455 0.308808
460 0.244563
465 0.324313
470 0.543285
475 0.662205
480 16.1933
485 266.908
490 395.06
495 92.4402
500 11.6793
505 2.56213
510 1.41385
515 1.23545
520 1.40003
525 1.59898
530 1.62182
535 1.46511
540 1.33823
545 1.34921
550 1.2552
555 1.10835
560 1.11366
565 1.25465
570 2.04469
575 1.54937
580 0.854285
585 0.725942
590 0.602254
595 0.528524
600 0.198825
Ex : 498
200 0.111257
205 0.181564
210 0.161418
215 0.143761
220 0.160884
225 0.198542
230 0.221852
235 0.294773
240 0.158474
245 0.18192
250 0.174863
255 0.157338
260 0.21231
265 0.134103
270 0.135263
275 0.116173
280 0.137697
285 0.252026
290 0.188207
295 0.209433
300 0.17475
305 0.215215
310 0.19868
315 0.18897
320 0.162872
325 0.183179
330 0.145201
335 0.132728
340 0.129676
345 0.166716
350 0.157816
355 0.180208
360 0.240532
365 0.159352
370 0.20129
375 0.147399
380 0.183261
385 0.232794
390 0.164069
395 0.136406
400 0.158025
405 0.217048
410 0.220585
415 0.182323
420 0.160022
425 0.244677
430 0.234834
435 0.222494
440 0.252102
445 0.335138
450 0.267911
455 0.263831
460 0.380489
465 0.347039
470 0.405458
475 0.520339
480 0.601316
485 19.0364
490 273.358
495 377.244
500 88.2587
505 11.1425
510 2.23269
515 1.53384
520 1.35379
525 1.3202
530 1.47659
535 1.64299
540 1.35685
545 1.10694
550 1.16234
555 1.01506
560 0.917956
565 0.956361
570 1.06825
575 1.311
580 1.38663
585 0.937904
590 0.659283
595 0.524983
600 0.844557
Ex : 503
200 0.20272
205 0.152676
210 0.182668
215 0.188411
220 0.14308
225 0.208993
230 0.192424
235 0.136061
240 0.203015
245 0.193369
250 0.162258
255 0.131583
260 0.217164
265 0.228635
270 0.190609
275 0.17516
280 0.254212
285 0.153537
290 0.180845
295 0.168884
300 0.16422
305 0.120189
310 0.160447
315 0.170102
320 0.15966
325 0.216213
330 0.231991
335 0.217685
340 0.17738
345 0.19409
350 0.215025
355 0.18271
360 0.18539
365 0.221725
370 0.190007
375 0.171238
380 0.19918
385 0.170984
390 0.243356
395 0.174778
400 0.210068
405 0.200099
410 0.257427
415 0.24309
420 0.188842
425 0.213145
430 0.195458
435 0.184853
440 0.220717
445 0.238386
450 0.25137
455 0.272361
460 0.261109
465 0.330905
470 0.382959
475 0.359918
480 0.511365
485 0.622692
490 17.5246
495 269.351
500 383.383
505 89.4992
510 11.412
515 2.33756
520 1.46866
525 1.17
530 1.18727
535 1.47094
540 1.53535
545 1.2554
550 1.11778
555 1.0438
560 0.955751
565 1.07563
570 0.841252
575 0.768394
580 0.975258
585 1.13274
590 0.784805
595 0.619852
600 0.513639
Ex : 508
200 0.222112
205 0.135792
210 0.109625
215 0.235746
220 0.208514
225 0.166966
230 0.196635
235 0.148127
240 0.170413
245 0.20495
250 0.187635
255 0.185559
260 0.143839
265 0.206016
270 0.199619
275 0.133996
280 0.26083
285 0.197219
290 0.185548
295 0.1546
300 0.17533
305 0.263562
310 0.193476
315 0.173817
320 0.20154
325 0.136487
330 0.21457
335 0.184898
340 0.245371
345 0.238411
350 0.205197
355 0.220088
360 0.212125
365 0.202676
370 0.200917
375 0.150727
380 0.194138
385 0.213741
390 0.178583
395 0.23684
400 0.203016
405 0.229178
410 0.222291
415 0.200353
420 0.176724
425 0.277119
430 0.258626
435 0.248031
440 0.219062
445 0.236004
450 0.204294
455 0.252532
460 0.316412
465 0.264158
470 0.359087
475 0.290527
480 0.344054
485 0.463787
490 0.756229
495 18.4463
500 276.339
505 388.514
510 93.8763
515 11.8961
520 2.40561
525 1.41721
530 1.16482
535 1.16927
540 1.29032
545 1.31612
550 1.22768
555 0.992555
560 0.951757
565 0.801078
570 0.707858
575 0.632112
580 0.61918
585 0.726014
590 1.04937
595 0.780065
600 0.178202
Ex : 513
200 0.218345
205 0.195251
210 0.176151
215 0.15994
220 0.145089
225 0.188732
230 0.206004
235 0.169333
240 0.185996
245 0.218887
250 0.200046
255 0.225485
260 0.253415
265 0.257526
270 0.213552
275 0.17683
280 0.205018
285 0.163236
290 0.142829
295 0.225906
300 0.180472
305 0.206066
310 0.18165
315 0.255819
320 0.172905
325 0.185409
330 0.272909
335 0.213189
340 0.200428
345 0.253127
350 0.221029
355 0.218833
360 0.17698
365 0.221167
370 0.155313
375 0.209294
380 0.201808
385 0.286307
390 0.203644
395 0.20241
400 0.214128
405 0.275231
410 0.23063
415 0.306243
420 0.22656
425 0.223945
430 0.273014
435 0.269025
440 0.243676
445 0.20568
450 0.216952
455 0.280115
460 0.260122
465 0.265015
470 0.228681
475 0.333178
480 0.36775
485 0.349925
490 0.473922
495 0.727157
500 17.1008
505 261.038
510 378.012
515 93.6586
520 11.7628
525 2.40967
530 1.40464
535 1.24389
540 1.13393
545 1.15815
550 1.09154
555 1.04804
560 0.878505
565 0.815354
570 0.845187
575 0.629221
580 0.508517
585 0.467273
590 0.444583
595 0.683218
600 0.69387
Ex : 518
200 0.277494
205 0.229603
210 0.229531
215 0.200328
220 0.172316
225 0.251685
230 0.218753
235 0.227958
240 0.15825
245 0.304895
250 0.204826
255 0.164637
260 0.166941
265 0.194713
270 0.157856
275 0.183879
280 0.137605
285 0.174887
290 0.160879
295 0.205986
300 0.227572
305 0.207102
310 0.165306
315 0.27669
320 0.249672
325 0.273499
330 0.188254
335 0.266106
340 0.186511
345 0.177761
350 0.229788
355 0.246633
360 0.274757
365 0.17895
370 0.216777
375 0.204227
380 0.220406
385 0.238844
390 0.20335
395 0.231868
400 0.19047
405 0.236484
410 0.328902
415 0.213494
420 0.286514
425 0.206817
430 0.219455
435 0.176348
440 0.223555
445 0.279569
450 0.171472
455 0.252089
460 0.308535
465 0.319689
470 0.348285
475 0.302154
480 0.288184
485 0.338561
490 0.497627
495 0.521403
500 0.786852
505 16.8822
510 249.154
515 371.192
520 93.0606
525 11.9274
530 2.32636
535 1.31842
540 1.0892
545 1.03843
550 1.11667
555 0.957439
560 1.10234
565 0.910164
570 0.705229
575 0.581092
580 0.632044
585 0.547945
590 0.5092
595 0.327709
600 0.443287
Ex : 523
200 0.204131
205 0.153015
210 0.163708
215 0.186088
220 0.173499
225 0.197694
230 0.237775
235 0.190303
240 0.176541
245 0.232505
250 0.167773
255 0.262134
260 0.210854
265 0.217513
270 0.136108
275 0.195148
280 0.138608
285 0.207847
290 0.236268
295 0.152857
300 0.229812
305 0.214424
310 0.304277
315 0.202604
320 0.155476
325 0.154647
330 0.258083
335 0.161129
340 0.189939
345 0.197406
350 0.17403
355 0.253191
360 0.262504
365 0.238346
370 0.172812
375 0.198305
380 0.206428
385 0.249054
390 0.208745
395 0.23568
400 0.167251
405 0.241259
410 0.242187
415 0.205832
420 0.198058
425 0.281718
430 0.289873
435 0.259025
440 0.251351
445 0.179276
450 0.216679
455 0.265524
460 0.298654
465 0.244915
470 0.22169
475 0.233277
480 0.311116
485 0.316716
490 0.325032
495 0.354318
500 0.434938
505 0.508679
510 15.1168
515 241.821
520 361.833
525 93.8159
530 11.9003
535 2.36124
540 1.28451
545 0.983537
550 0.836842
555 0.905746
560 0.903731
565 0.983335
570 0.814554
575 0.676968
580 0.546596
585 0.431067
590 0.368392
595 0.39408
600 0.286537
Ex : 528
200 0.280348
205 0.207526
210 0.203467
215 0.213166
220 0.184382
225 0.262148
230 0.26101
235 0.203312
240 0.239652
245 0.266684
250 0.173987
255 0.206204
260 0.24816
265 0.237779
270 0.198703
275 0.143964
280 0.145662
285 0.200348
290 0.185223
295 0.184609
300 0.182966
305 0.227958
310 0.205724
315 0.188335
320 0.193913
325 0.247504
330 0.258891
335 0.215515
340 0.215544
345 0.196682
350 0.213132
355 0.206033
360 0.263195
365 0.284977
370 0.205361
375 0.193158
380 0.195656
385 0.231106
390 0.158093
395 0.223397
400 0.211956
405 0.230993
410 0.153077
415 0.231101
420 0.352678
425 0.182779
430 0.273183
435 0.220781
440 0.251443
445 0.330415
450 0.285124
455 0.282009
460 0.270359
465 0.23058
470 0.258595
475 0.268165
480 0.266919
485 0.328224
490 0.29272
495 0.334615
500 0.34586
505 0.470514
510 0.667111
515 14.2349
520 236.702
525 352.94
530 90.1989
535 11.518
540 2.28646
545 1.10632
550 1.07669
555 0.868001
560 0.919877
565 0.844759
570 0.744203
575 0.599747
580 0.508293
585 0.439857
590 0.35524
595 0.470911
600 0.473369
Ex : 533
200 0.218447
205 0.14956
210 0.168658
215 0.161763
220 0.188307
225 0.164494
230 0.199152
235 0.145552
240 0.343192
245 0.220889
250 0.173903
255 0.199183
260 0.190336
265 0.20506
270 0.245515
275 0.254051
280 0.204246
285 0.185925
290 0.269088
295 0.272917
300 0.233526
305 0.228975
310 0.300185
315 0.299494
320 0.192127
325 0.178644
330 0.185538
335 0.204311
340 0.202921
345 0.279627
350 0.324887
355 0.267716
360 0.246366
365 0.25111
370 0.240563
375 0.254575
380 0.252503
385 0.195808
390 0.248601
395 0.24296
400 0.150284
405 0.21291
410 0.259068
415 0.293376
420 0.228322
425 0.258963
430 0.246707
435 0.245456
440 0.18463
445 0.287492
450 0.341971
455 0.220562
460 0.283346
465 0.229979
470 0.279421
475 0.170051
480 0.24872
485 0.299413
490 0.304538
495 0.303788
500 0.296148
505 0.435215
510 0.522887
515 0.670595
520 13.775
525 223.268
530 349.028
535 93.4505
540 11.7607
545 2.16474
550 1.0501
555 0.987805
560 0.734525
565 0.697279
570 0.686941
575 0.723132
580 0.52293
585 0.421071
590 0.465506
595 0.377054
600 0.206662
Ex : 538
200 0.126337
205 0.170877
210 0.186091
215 0.323023
220 0.170282
225 0.168284
230 0.243037
235 0.240085
240 0.223103
245 0.208291
250 0.251299
255 0.181216
260 0.206213
265 0.175255
270 0.244014
275 0.270235
280 0.178531
285 0.173163
290 0.279369
295 0.216392
300 0.151429
305 0.153042
310 0.267337
315 0.224966
320 0.145441
325 0.314404
330 0.148095
335 0.24109
340 0.269619
345 0.13157
350 0.206312
355 0.28678
360 0.242662
365 0.178643
370 0.221948
375 0.225509
380 0.14926
385 0.253913
390 0.215151
395 0.251046
400 0.186595
405 0.153484
410 0.219407
415 0.191884
420 0.298411
425 0.213184
430 0.414055
435 0.274182
440 0.34457
445 0.285602
450 0.248625
455 0.273188
460 0.323803
465 0.24808
470 0.305095
475 0.273607
480 0.259891
485 0.244782
490 0.297872
495 0.273042
500 0.215311
505 0.423813
510 0.343432
515 0.58451
520 0.588153
525 11.7364
530 211.679
535 342.332
540 95.4204
545 11.9649
550 2.02262
555 1.0006
560 0.776716
565 0.630809
570 0.541799
575 0.636013
580 0.555749
585 0.419632
590 0.424971
595 0.347207
600 0.0395109
Ex : 543
200 0.206134
205 0.218942
210 0.242587
215 0.229441
220 0.203058
225 0.167598
230 0.288235
235 0.347087
240 0.217712
245 0.233194
250 0.276299
255 0.380821
260 0.299984
265 0.159684
270 0.237933
275 0.288229
280 0.242712
285 0.188957
290 0.228449
295 0.217481
300 0.20632
305 0.266671
310 0.208919
315 0.224367
320 0.179102
325 0.299885
330 0.239326
335 0.233621
340 0.200936
345 0.22136
350 0.173132
355 0.222037
360 0.272052
365 0.275725
370 0.280279
375 0.254863
380 0.241112
385 0.18747
390 0.218699
395 0.214459
400 0.192699
405 0.207004
410 0.181036
415 0.235834
420 0.253383
425 0.245888
430 0.174845
435 0.19073
440 0.182535
445 0.24495
450 0.322993
455 0.236087
460 0.261776
465 0.230996
470 0.284671
475 0.23111
480 0.287611
485 0.274554
490 0.229729
495 0.307846
500 0.33015
505 0.36141
510 0.33568
515 0.372359
520 0.427437
525 0.558842
530 10.5882
535 200.458
540 337.403
545 95.2213
550 11.8857
555 2.01228
560 0.903399
565 0.718542
570 0.503055
575 0.535443
580 0.493101
585 0.541592
590 0.421579
595 0.386799
600 0.0440162
Ex : 548
200 0.170266
205 0.268659
210 0.17063
215 0.310396
220 0.143031
225 0.29143
230 0.247856
235 0.179529
240 0.18377
245 0.214961
250 0.198369
255 0.16894
260 0.15465
265 0.269823
270 0.208966
275 0.220171
280 0.180012
285 0.167605
290 0.163518
295 0.247173
300 0.200871
305 0.265777
310 0.246322
315 0.254783
320 0.198981
325 0.28924
330 0.246239
335 0.208302
340 0.30604
345 0.244392
350 0.282501
355 0.182092
360 0.351749
365 0.236313
370 0.223174
375 0.212545
380 0.273295
385 0.230087
390 0.257442
395 0.250133
400 0.290036
405 0.247888
410 0.28427
415 0.18625
420 0.269997
425 0.230468
430 0.247746
435 0.307731
440 0.257102
445 0.286783
450 0.178409
455 0.329417
460 0.283411
465 0.256045
470 0.308336
475 0.243738
480 0.236747
485 0.325632
490 0.288492
495 0.298155
500 0.280532
505 0.258209
510 0.277595
515 0.318467
520 0.411634
525 0.422475
530 0.688077
535 11.4154
540 201.579
545 325.647
550 92.7295
555 11.441
560 1.88668
565 0.732431
570 0.577127
575 0.540391
580 0.421635
585 0.436997
590 0.444471
595 0.329683
600 0.229268
Ex : 553
200 0.283663
205 0.314979
210 0.307812
215 0.280761
220 0.235977
225 0.366495
230 0.255747
235 0.290393
240 0.209622
245 0.216641
250 0.26165
255 0.210222
260 0.272484
265 0.231408
270 0.247595
275 0.194987
280 0.290833
285 0.179536
290 0.233984
295 0.170477
300 0.173311
305 0.218606
310 0.218389
315 0.244005
320 0.175468
325 0.194658
330 0.259793
335 0.315803
340 0.222284
345 0.187986
350 0.18636
355 0.211632
360 0.233435
365 0.270747
370 0.212772
375 0.375806
380 0.366286
385 0.30511
390 0.215372
395 0.239606
400 0.226903
405 0.231936
410 0.187568
415 0.224221
420 0.377488
425 0.27031
430 0.314502
435 0.285054
440 0.365741
445 0.246794
450 0.255962
455 0.249101
460 0.258378
465 0.219303
470 0.333022
475 0.340675
480 0.210886
485 0.236307
490 0.308158
495 0.282494
500 0.325794
505 0.307376
510 0.343018
515 0.340538
520 0.370934
525 0.356782
530 0.471657
535 0.622082
540 10.5246
545 190.361
550 325.058
555 95.8133
560 11.8011
565 2.04912
570 0.883236
575 0.692516
580 0.458461
585 0.388092
590 0.303443
595 0.391554
600 1.02744
Ex : 558
200 0.23971
205 0.207332
210 0.205345
215 0.203756
220 0.189317
225 0.262358
230 0.243965
235 0.261671
240 0.223155
245 0.260176
250 0.210284
255 0.247029
260 0.207947
265 0.280779
270 0.214958
275 0.190922
280 0.170483
285 0.275067
290 0.239626
295 0.221795
300 0.21532
305 0.230575
310 0.259373
315 0.271856
320 0.285158
325 0.360962
330 0.236462
335 0.163145
340 0.192235
345 0.199673
350 0.194735
355 0.279245
360 0.237942
365 0.309087
370 0.320462
375 0.256501
380 0.290904
385 0.269787
390 0.230986
395 0.229921
400 0.248144
405 0.269702
410 0.288742
415 0.279151
420 0.3397
425 0.308056
430 0.236138
435 0.198023
440 0.252021
445 0.239428
450 0.307302
455 0.293149
460 0.30179
465 0.275468
470 0.237078
475 0.24271
480 0.306753
485 0.267589
490 0.297362
495 0.276011
500 0.250213
505 0.282184
510 0.203993
515 0.288783
520 0.351731
525 0.302414
530 0.374445
535 0.398656
540 0.55994
545 9.18185
550 176.094
555 314.083
560 91.9612
565 11.3303
570 1.77734
575 0.638047
580 0.479346
585 0.441732
590 0.405649
595 0.481531
600 0.503369
Ex : 563
200 0.203366
205 0.258077
210 0.218251
215 0.153761
220 0.23973
225 0.258529
230 0.380145
235 0.267402
240 0.188943
245 0.260364
250 0.182963
255 0.240194
260 0.226972
265 0.26428
270 0.276424
275 0.310446
280 0.218465
285 0.248908
290 0.25693
295 0.227219
300 0.266044
305 0.301926
310 0.195163
315 0.238483
320 0.220041
325 0.369713
330 0.333864
335 0.329878
340 0.336145
345 0.269904
350 0.212758
355 0.15974
360 0.233301
365 0.228763
370 0.274949
375 0.234525
380 0.219732
385 0.300631
390 0.23414
395 0.390142
400 0.423925
405 0.329743
410 0.317312
415 0.237407
420 0.312788
425 0.230556
430 0.204744
435 0.243795
440 0.314179
445 0.26495
450 0.300487
455 0.18818
460 0.224185
465 0.293037
470 0.217654
475 0.262557
480 0.368085
485 0.259211
490 0.29049
495 0.265701
500 0.267568
505 0.226775
510 0.320661
515 0.369566
520 0.371354
525 0.289336
530 0.326402
535 0.34079
540 0.449207
545 0.516276
550 9.34505
555 172.859
560 301.66
565 89.2504
570 11.0857
575 1.80687
580 0.592974
585 0.491688
590 0.392986
595 0.216992
600 0.329502
Ex : 568
200 0.329295
205 0.348561
210 0.317232
215 0.232287
220 0.164472
225 0.239598
230 0.318422
235 0.177815
240 0.239182
245 0.196899
250 0.244519
255 0.336809
260 0.335646
265 0.235876
270 0.208143
275 0.265634
280 0.246806
285 0.256159
290 0.357066
295 0.203136
300 0.246037
305 0.296498
310 0.22794
315 0.180933
320 0.211306
325 0.242257
330 0.273185
335 0.287317
340 0.271456
345 0.278442
350 0.372544
355 0.307736
360 0.234971
365 0.237605
370 0.289571
375 0.283272
380 0.28885
385 0.259717
390 0.351146
395 0.303926
400 0.251615
405 0.2692
410 0.288671
415 0.313783
420 0.326937
425 0.287696
430 0.246856
435 0.286561
440 0.267863
445 0.236243
450 0.357858
455 0.329592
460 0.364174
465 0.267533
470 0.32486
475 0.297442
480 0.344954
485 0.282573
490 0.214477
495 0.247046
500 0.300759
505 0.261069
510 0.388003
515 0.266478
520 0.320247
525 0.314424
530 0.306454
535 0.368578
540 0.394375
545 0.389498
550 0.509335
555 6.85523
560 157.058
565 291.598
570 89.5609
575 11.1709
580 1.74805
585 0.615504
590 0.545371
595 0.387554
600 0.154154
Ex : 573
200 0.26192
205 0.279779
210 0.290423
215 0.252179
220 0.308475
225 0.244612
230 0.239637
235 0.22533
240 0.270559
245 0.249013
250 0.271328
255 0.224796
260 0.327311
265 0.238972
270 0.258321
275 0.253445
280 0.47593
285 0.345008
290 0.281084
295 0.196434
300 0.202036
305 0.304392
310 0.244701
315 0.261741
320 0.225229
325 0.390912
330 0.286706
335 0.320696
340 0.26877
345 0.284034
350 0.231428
355 0.249326
360 0.272812
365 0.228076
370 0.310031
375 0.191831
380 0.250699
385 0.261938
390 0.263926
395 0.255154
400 0.286819
405 0.281256
410 0.275076
415 0.320784
420 0.284913
425 0.318164
430 0.214056
435 0.217376
440 0.26246
445 0.279859
450 0.299692
455 0.300139
460 0.303687
465 0.178064
470 0.284996
475 0.255866
480 0.213646
485 0.296525
490 0.34049
495 0.407033
500 0.291822
505 0.335143
510 0.287842
515 0.33287
520 0.358501
525 0.414794
530 0.343621
535 0.358101
540 0.475728
545 0.441119
550 0.493517
555 0.528102
560 5.77913
565 131.652
570 264.347
575 82.5014
580 10.2595
585 1.58618
590 0.544053
595 0.363085
600 0.0413177
Ex : 578
200 0.304963
205 0.235804
210 0.223009
215 0.150365
220 0.221426
225 0.263601
230 0.324499
235 0.198905
240 0.173956
245 0.297979
250 0.294233
255 0.222326
260 0.213971
265 0.228846
270 0.187926
275 0.260896
280 0.217757
285 0.331985
290 0.377587
295 0.228003
300 0.304556
305 0.190583
310 0.203839
315 0.248532
320 0.341748
325 0.330071
330 0.311303
335 0.292274
340 0.232585
345 0.262155
350 0.26355
355 0.24383
360 0.303134
365 0.251186
370 0.229737
375 0.215853
380 0.257266
385 0.239959
390 0.242171
395 0.204739
400 0.252984
405 0.302744
410 0.23388
415 0.295747
420 0.350262
425 0.316918
430 0.22978
435 0.354306
440 0.195642
445 0.303756
450 0.380391
455 0.321521
460 0.446934
465 0.418521
470 0.329661
475 0.283806
480 0.296464
485 0.260961
490 0.238617
495 0.262919
500 0.250239
505 0.397777
510 0.252239
515 0.276307
520 0.307778
525 0.381095
530 0.394081
535 0.264572
540 0.426688
545 0.300849
550 0.421464
555 0.436075
560 0.419553
565 5.19226
570 120.063
575 231.557
580 71.9336
585 8.78423
590 1.44657
595 0.499762
600 0.37293
Ex : 583
200 0.214445
205 0.293153
210 0.288497
215 0.217119
220 0.209966
225 0.267049
230 0.223605
235 0.251544
240 0.197011
245 0.288387
250 0.413618
255 0.287916
260 0.220589
265 0.263584
270 0.198128
275 0.268029
280 0.315178
285 0.359109
290 0.256751
295 0.284461
300 0.290142
305 0.228199
310 0.325134
315 0.259966
320 0.182047
325 0.215475
330 0.191705
335 0.346211
340 0.30963
345 0.225114
350 0.281381
355 0.224825
360 0.260379
365 0.219944
370 0.256305
375 0.218708
380 0.233137
385 0.299008
390 0.366618
395 0.284731
400 0.309617
405 0.294833
410 0.257244
415 0.319703
420 0.271462
425 0.313247
430 0.229233
435 0.274665
440 0.451634
445 0.306184
450 0.284746
455 0.289382
460 0.322592
465 0.234763
470 0.381013
475 0.307739
480 0.359609
485 0.24354
490 0.255434
495 0.296241
500 0.278286
505 0.248221
510 0.327605
515 0.412857
520 0.386171
525 0.384144
530 0.304344
535 0.313983
540 0.214622
545 0.385993
550 0.268562
555 0.348306
560 0.625475
565 0.448753
570 4.47965
575 106.123
580 198.919
585 59.444
590 7.32054
595 1.31147
600 0.149241
Ex : 588
200 0.284728
205 0.349521
210 0.263332
215 0.124996
220 0.262317
225 0.273024
230 0.25683
235 0.233589
240 0.203286
245 0.161583
250 0.386341
255 0.374736
260 0.352728
265 0.217097
270 0.208572
275 0.255165
280 0.281809
285 0.214323
290 0.272035
295 0.250034
300 0.245729
305 0.263159
310 0.302309
315 0.281513
320 0.372167
325 0.306494
330 0.274233
335 0.252363
340 0.298418
345 0.262267
350 0.279593
355 0.357882
360 0.290396
365 0.321287
370 0.266008
375 0.268943
380 0.324589
385 0.303334
390 0.250985
395 0.314987
400 0.366706
405 0.311664
410 0.334077
415 0.291941
420 0.407774
425 0.322132
430 0.30613
435 0.353013
440 0.259159
445 0.351904
450 0.329216
455 0.183404
460 0.369938
465 0.383782
470 0.309738
475 0.202683
480 0.338632
485 0.364127
490 0.27602
495 0.307984
500 0.276026
505 0.272729
510 0.290709
515 0.224634
520 0.216447
525 0.262035
530 0.295727
535 0.325724
540 0.378771
545 0.279361
550 0.363762
555 0.335591
560 0.288363
565 0.388211
570 0.413717
575 4.11808
580 85.8018
585 169.206
590 50.9178
595 6.31286
600 0.71838
Ex : 593
200 0.261553
205 0.257227
210 0.23695
215 0.303149
220 0.26037
225 0.312082
230 0.324165
235 0.313511
240 0.221899
245 0.236064
250 0.225375
255 0.241441
260 0.237914
265 0.268646
270 0.310659
275 0.259497
280 0.318317
285 0.292402
290 0.174553
295 0.475418
300 0.207184
305 0.216954
310 0.311634
315 0.209914
320 0.190681
325 0.266146
330 0.272084
335 0.39158
340 0.240855
345 0.273567
350 0.262724
355 0.276686
360 0.21848
365 0.225153
370 0.236169
375 0.229616
380 0.359674
385 0.251954
390 0.351346
395 0.322639
400 0.25942
405 0.317566
410 0.335148
415 0.46176
420 0.345158
425 0.251803
430 0.283068
435 0.262365
440 0.416545
445 0.2941
450 0.258996
455 0.394371
460 0.296125
465 0.336152
470 0.290726
475 0.267268
480 0.284877
485 0.289277
490 0.363764
495 0.24546
500 0.410033
505 0.34042
510 0.221333
515 0.294449
520 0.293307
525 0.334906
530 0.298593
535 0.268064
540 0.306679
545 0.233729
550 0.259328
555 0.213282
560 0.443973
565 0.372838
570 0.488971
575 0.43314
580 3.31162
585 77.007
590 146.46
595 45.0069
600 8.12371
Ex : 598
200 0.225919
205 0.43866
210 0.313644
215 0.320161
220 0.364962
225 0.284789
230 0.333265
235 0.227702
240 0.265918
245 0.290031
250 0.225343
255 0.349058
260 0.314476
265 0.384357
270 0.278438
275 0.317364
280 0.293066
285 0.356641
290 0.217413
295 0.212943
300 0.285814
305 0.327292
310 0.329024
315 0.348213
320 0.322233
325 0.300172
330 0.285206
335 0.305478
340 0.216361
345 0.343359
350 0.349158
355 0.353384
360 0.406824
365 0.2324
370 0.258191
375 0.294364
380 0.387876
385 0.460203
390 0.434315
395 0.402565
400 0.260387
405 0.259336
410 0.307654
415 0.298401
420 0.240063
425 0.268884
430 0.200415
435 0.264467
440 0.388018
445 0.334235
450 0.320785
455 0.312825
460 0.327431
465 0.229771
470 0.411618
475 0.342012
480 0.330862
485 0.265931
490 0.380837
495 0.313239
500 0.291622
505 0.316101
510 0.250923
515 0.177318
520 0.337981
525 0.185619
530 0.241067
535 0.487234
540 0.451372
545 0.297111
550 0.483379
555 0.363259
560 0.291843
565 0.419513
570 0.496356
575 0.429068
580 0.513511
585 3.1341
590 68.6779
595 127.497
600 84.749
Ex : 603
200 0.300824
205 0.327537
210 0.146727
215 0.274678
220 0.308421
225 0.203564
230 0.26409
235 0.226328
240 0.267496
245 0.20779
250 0.204708
255 0.346349
260 0.29169
265 0.333699
270 0.237383
275 0.278287
280 0.366436
285 0.338653
290 0.365467
295 0.281876
300 0.34964
305 0.434033
310 0.405661
315 0.324275
320 0.339163
325 0.312213
330 0.271418
335 0.312101
340 0.309317
345 0.477127
350 0.292031
355 0.41037
360 0.220351
365 0.251975
370 0.238999
375 0.452669
380 0.295802
385 0.275876
390 0.327334
395 0.240087
400 0.361177
405 0.256542
410 0.407317
415 0.380916
420 0.431849
425 0.378023
430 0.383782
435 0.270849
440 0.315333
445 0.295287
450 0.281324
455 0.350501
460 0.382573
465 0.359754
470 0.242829
475 0.233926
480 0.42371
485 0.350788
490 0.469355
495 0.340408
500 0.431531
505 0.290133
510 0.430094
515 0.328335
520 0.273075
525 0.417743
530 0.368136
535 0.444923
540 0.326255
545 0.354665
550 0.402192
555 0.292115
560 0.400465
565 0.280097
570 0.301721
575 0.437837
580 0.425925
585 0.410787
590 2.9299
595 56.6897
600 124.577
