File format V 1.0
jeu. 12. janv. 23:47:01 2017
Operator : 
Comments : 

=============================================
SpectroFluorometer parameters
Mode : 3D measurement
Data : Fluorescence
Phospho. : Ordinary
Spectrum : Fluorescence

Scan speed : 2400 nm/mn
Response : 100 ms
PM Voltage : 700 V
Shutter : On

Lambda Ex. Start : 203
Lambda Ex. End : 603
Lambda Ex. Step : 5
Ex. Slit : 5 nm

Lambda Em. Start : 200
Lambda Em. End : 600
Lambda Em. Step : 5
Em. Slit : 5 nm

Repetition : 1
Decal lambda em : 10
=============================================
DATA
Ex : 203
200 8.37264
205 9.72268
210 7.08293
215 7.34073
220 5.13555
225 10.2258
230 9.41217
235 8.3166
240 9.25566
245 7.93709
250 6.07637
255 6.14077
260 4.876
265 5.66691
270 6.82779
275 6.88328
280 7.23119
285 8.50331
290 5.89053
295 7.0207
300 7.69742
305 8.79212
310 7.71276
315 9.49158
320 8.04372
325 9.03088
330 7.37171
335 8.1968
340 7.71415
345 10.1329
350 5.8193
355 6.97182
360 7.11384
365 8.27525
370 5.8387
375 8.86077
380 7.82738
385 10.4132
390 7.70119
395 7.3966
400 9.4703
405 7.58697
410 7.22564
415 9.59036
420 8.42468
425 7.63332
430 7.26107
435 6.84232
440 7.98405
445 6.90243
450 5.55995
455 7.21171
460 6.55233
465 6.25458
470 6.20105
475 5.59256
480 7.33446
485 8.8241
490 7.65698
495 7.32388
500 6.92279
505 6.35582
510 7.8927
515 9.53645
520 6.69199
525 9.58811
530 9.175
535 6.66381
540 5.77456
545 6.47311
550 7.10884
555 5.3256
560 6.90931
565 6.06245
570 8.92687
575 7.01544
580 8.05596
585 9.75232
590 8.37489
595 6.60709
600 2.70151
Ex : 208
200 4.80717
205 6.69982
210 7.04967
215 6.59497
220 6.1381
225 6.83408
230 5.37348
235 5.8951
240 5.47613
245 6.15605
250 6.7378
255 8.3149
260 7.90422
265 7.23322
270 7.677
275 5.53487
280 5.99138
285 9.6244
290 9.42121
295 6.38493
300 6.38401
305 6.48032
310 9.12566
315 6.27287
320 9.3928
325 5.51637
330 6.61954
335 5.29669
340 6.8021
345 10.4263
350 7.39409
355 7.17443
360 8.06612
365 6.87699
370 6.60679
375 9.34633
380 9.39055
385 7.54471
390 9.47298
395 7.11873
400 7.88299
405 6.75828
410 5.83879
415 7.45578
420 8.72123
425 6.31391
430 7.72452
435 9.61324
440 4.90794
445 8.63562
450 7.5017
455 5.79992
460 7.75384
465 6.07535
470 11.5417
475 6.225
480 6.72935
485 8.5084
490 7.38877
495 6.62772
500 9.15703
505 9.6704
510 6.38742
515 7.20141
520 6.21091
525 7.41224
530 6.95227
535 7.85851
540 8.0524
545 7.8618
550 7.16019
555 5.56808
560 7.67262
565 5.13986
570 7.67875
575 6.5481
580 8.06578
585 8.46195
590 5.96162
595 7.68786
600 0.874849
Ex : 213
200 4.78733
205 6.34426
210 8.33804
215 7.71394
220 7.15675
225 9.42783
230 8.82713
235 7.6115
240 10.6102
245 7.57396
250 9.96487
255 6.16678
260 6.72624
265 7.60305
270 8.48655
275 8.6594
280 7.95148
285 4.56976
290 6.77337
295 6.20183
300 5.5657
305 4.2341
310 7.07959
315 5.40885
320 8.29999
325 6.61791
330 8.64725
335 6.58978
340 5.39274
345 8.4947
350 6.77439
355 6.78915
360 11.3533
365 7.49539
370 6.86705
375 6.36282
380 7.17596
385 8.52106
390 8.20914
395 9.24393
400 8.89272
405 8.83327
410 7.21698
415 7.61828
420 11.168
425 7.29303
430 7.89922
435 7.98431
440 4.55468
445 11.2456
450 9.08776
455 5.87955
460 6.9538
465 7.14666
470 9.36706
475 7.63304
480 6.41544
485 8.35308
490 6.56043
495 5.30947
500 7.90483
505 6.8844
510 7.19785
515 8.8295
520 5.286
525 5.07789
530 7.51543
535 6.78842
540 8.07696
545 7.31484
550 6.61583
555 6.57186
560 7.42712
565 7.32554
570 6.46796
575 8.20485
580 6.4379
585 7.0866
590 6.14804
595 7.22377
600 0.822038
Ex : 218
200 6.71014
205 7.33558
210 8.23477
215 9.43187
220 6.75307
225 6.78781
230 5.64432
235 5.4977
240 6.96764
245 5.12787
250 5.11681
255 8.00258
260 6.96992
265 9.26409
270 5.99915
275 4.57333
280 11.67
285 8.12091
290 7.9835
295 4.33896
300 6.5115
305 5.59264
310 5.11667
315 7.01669
320 9.77811
325 6.5719
330 4.67985
335 6.29087
340 8.65992
345 7.83569
350 9.793
355 8.49528
360 6.54685
365 5.54895
370 6.38597
375 6.34068
380 6.96677
385 6.30267
390 7.02097
395 6.66379
400 7.09776
405 7.00708
410 5.64278
415 5.96804
420 5.99218
425 6.80223
430 10.5063
435 6.73121
440 8.03122
445 8.56939
450 6.78386
455 9.42115
460 7.10573
465 7.30175
470 7.31077
475 7.31977
480 4.05706
485 6.22408
490 4.89291
495 7.65068
500 7.70229
505 8.28085
510 7.8441
515 5.19981
520 10.0913
525 7.20543
530 5.12376
535 6.62824
540 5.67851
545 9.29389
550 6.51219
555 9.3637
560 8.66825
565 7.72578
570 8.68746
575 5.95388
580 3.42176
585 8.05144
590 8.70843
595 6.90598
600 6.45758
Ex : 223
200 3.80269
205 6.79652
210 5.28321
215 10.0249
220 6.98495
225 5.74862
230 8.38026
235 6.06477
240 4.63741
245 4.20787
250 4.72693
255 4.38886
260 7.26025
265 4.70439
270 5.94693
275 5.80347
280 5.86135
285 9.2672
290 9.94533
295 6.86335
300 6.61348
305 11.6501
310 6.90161
315 6.53328
320 4.26767
325 6.09422
330 12.2643
335 9.52195
340 6.81807
345 8.2729
350 4.88011
355 8.5113
360 6.7161
365 6.34735
370 6.04367
375 5.92136
380 6.22112
385 5.97682
390 7.31854
395 5.45847
400 8.52851
405 11.331
410 9.70628
415 8.50454
420 7.51764
425 7.1745
430 5.84791
435 4.84101
440 4.82409
445 11.6165
450 8.60458
455 7.92586
460 8.57275
465 7.55375
470 8.94514
475 7.17783
480 6.59728
485 6.75852
490 5.55928
495 8.05458
500 8.13044
505 10.4045
510 5.3066
515 8.62657
520 10.2177
525 6.38626
530 5.26743
535 6.73558
540 7.98027
545 9.5476
550 7.77181
555 6.38625
560 7.45145
565 5.20711
570 5.62568
575 5.56354
580 5.7723
585 5.9065
590 5.30641
595 7.04712
600 3.6821
Ex : 228
200 4.65086
205 4.74636
210 5.28251
215 6.08987
220 7.90107
225 5.87669
230 8.37712
235 6.77243
240 9.85526
245 8.05953
250 9.74927
255 4.09245
260 10.6127
265 6.66036
270 6.46859
275 4.8318
280 7.44254
285 8.43119
290 4.08587
295 5.65335
300 5.09046
305 4.27054
310 4.13955
315 4.05635
320 5.85489
325 7.58973
330 11.1653
335 7.90716
340 6.55995
345 5.26425
350 8.75903
355 5.58853
360 8.37627
365 8.99877
370 5.80486
375 4.58789
380 8.62243
385 5.79317
390 4.80426
395 4.91251
400 7.1693
405 4.90631
410 5.96682
415 6.68762
420 6.30443
425 5.13678
430 5.19515
435 4.79677
440 5.34442
445 6.10658
450 5.86192
455 4.75958
460 5.52497
465 6.25471
470 9.90173
475 6.03934
480 4.31611
485 8.00428
490 7.67443
495 7.40623
500 7.51968
505 6.10855
510 6.65171
515 5.69218
520 7.40971
525 6.28644
530 9.4965
535 10.7814
540 8.33234
545 6.57887
550 7.13638
555 6.93256
560 4.23903
565 6.4541
570 5.88882
575 5.01638
580 6.50917
585 8.98126
590 9.46323
595 4.66235
600 7.02938
Ex : 233
200 5.0339
205 6.38784
210 5.07636
215 6.3793
220 7.25606
225 9.31912
230 5.55582
235 7.28066
240 7.61281
245 8.98287
250 7.91776
255 4.82985
260 9.71593
265 6.42661
270 4.85179
275 6.54419
280 3.96565
285 5.82244
290 7.20268
295 5.35917
300 8.13866
305 6.74395
310 5.47935
315 5.11059
320 5.83845
325 7.32412
330 5.75393
335 5.4243
340 6.33446
345 7.03458
350 10.1257
355 7.60783
360 6.40174
365 8.52553
370 5.68418
375 6.8727
380 5.45068
385 6.65384
390 6.03028
395 5.52596
400 5.68175
405 7.53496
410 6.42356
415 6.21316
420 6.97195
425 7.47342
430 6.10188
435 6.48878
440 7.55784
445 5.5788
450 4.84523
455 8.05087
460 6.79904
465 7.13287
470 6.47419
475 4.96635
480 5.07213
485 5.75717
490 6.85857
495 8.00497
500 8.22025
505 4.94942
510 5.74439
515 6.222
520 5.39799
525 6.18524
530 6.56913
535 3.92898
540 7.95399
545 6.44485
550 5.50905
555 5.5685
560 6.15346
565 4.9199
570 6.28583
575 6.02902
580 5.9599
585 8.32081
590 6.00345
595 4.28291
600 11.7126
Ex : 238
200 5.7451
205 3.97703
210 6.57193
215 5.93487
220 8.18533
225 6.45535
230 7.04836
235 5.71558
240 3.75718
245 5.64092
250 7.50911
255 5.40231
260 5.80587
265 4.68136
270 5.26028
275 7.15114
280 3.90303
285 7.6833
290 5.79464
295 4.55189
300 7.08947
305 6.34637
310 5.10318
315 6.37842
320 4.00808
325 4.46255
330 6.77224
335 3.8296
340 4.40332
345 5.62889
350 5.20159
355 7.26451
360 3.99869
365 6.78807
370 5.03773
375 5.04193
380 6.45122
385 5.67007
390 6.05944
395 5.73409
400 6.70153
405 6.58299
410 5.37823
415 4.87565
420 5.05188
425 4.74713
430 7.41932
435 5.06184
440 6.55355
445 5.13143
450 5.73111
455 6.88843
460 5.22783
465 7.79948
470 6.64963
475 5.21542
480 8.37002
485 6.01093
490 5.75508
495 5.51888
500 4.38301
505 6.11599
510 5.95715
515 4.45662
520 5.0912
525 6.91706
530 7.41239
535 7.81291
540 5.80195
545 4.8547
550 6.43149
555 7.21246
560 6.02192
565 6.1916
570 5.1356
575 6.72102
580 4.92105
585 5.69783
590 4.40112
595 3.56019
600 0.405136
Ex : 243
200 6.21017
205 5.07396
210 3.78136
215 6.91902
220 4.38606
225 5.33846
230 7.32414
235 5.00613
240 4.91658
245 4.93438
250 3.96126
255 4.98623
260 6.93224
265 5.00279
270 5.21264
275 4.06982
280 6.96402
285 7.35955
290 6.38293
295 5.21145
300 7.29376
305 4.97352
310 5.06369
315 3.30037
320 4.40432
325 4.20079
330 6.6969
335 3.87897
340 5.54398
345 3.1439
350 6.17482
355 3.89727
360 3.63503
365 4.99133
370 5.98929
375 2.94433
380 4.78863
385 7.97396
390 6.34398
395 4.25102
400 6.41326
405 5.1696
410 4.63906
415 6.30394
420 4.8771
425 4.87869
430 5.11052
435 6.46328
440 5.47365
445 4.52792
450 4.28393
455 6.13362
460 6.20328
465 5.87491
470 6.64583
475 6.81355
480 5.21835
485 3.64128
490 4.58244
495 5.03112
500 5.22268
505 4.36598
510 6.05831
515 4.95001
520 6.43791
525 6.63742
530 3.98341
535 6.55994
540 6.06977
545 5.87925
550 4.867
555 3.9291
560 7.29587
565 7.24087
570 3.94168
575 7.3807
580 5.28912
585 4.70209
590 3.75409
595 4.33014
600 2.92981
Ex : 248
200 3.87906
205 5.58244
210 4.1162
215 3.58339
220 5.18724
225 5.00808
230 4.35067
235 5.82984
240 7.48058
245 5.52876
250 6.43902
255 6.58007
260 4.75253
265 4.42585
270 4.19089
275 5.34261
280 4.73377
285 4.06939
290 5.62037
295 4.95315
300 3.11484
305 4.63278
310 5.263
315 6.13835
320 5.09798
325 5.47085
330 5.91486
335 5.5392
340 5.48632
345 4.08606
350 3.74109
355 4.66161
360 4.33787
365 4.15941
370 6.27837
375 3.88092
380 4.28096
385 7.6478
390 4.1197
395 4.17352
400 3.79754
405 3.89736
410 4.93949
415 4.19877
420 4.78261
425 5.80092
430 4.11262
435 4.57936
440 3.26514
445 5.54842
450 6.516
455 5.88464
460 4.19336
465 5.44481
470 5.3079
475 4.73695
480 6.85915
485 5.00225
490 4.01861
495 5.41377
500 4.44394
505 5.85515
510 5.59821
515 6.82407
520 3.99101
525 3.88134
530 5.03886
535 5.51009
540 4.05209
545 4.28918
550 5.84547
555 3.84603
560 4.97586
565 3.1258
570 3.96324
575 5.9808
580 3.33391
585 4.08841
590 4.55501
595 4.42582
600 5.427
Ex : 253
200 4.19897
205 4.3502
210 2.68435
215 2.58924
220 3.61961
225 4.23964
230 3.63075
235 3.44258
240 3.61494
245 4.26169
250 3.41145
255 2.92791
260 2.64254
265 2.3043
270 3.48791
275 2.78601
280 4.99795
285 3.37168
290 3.89685
295 5.32341
300 4.16671
305 4.12025
310 3.74207
315 2.88926
320 3.19524
325 5.30599
330 4.58036
335 2.54588
340 5.6138
345 5.52995
350 4.0505
355 4.61501
360 4.63841
365 5.99698
370 4.96537
375 3.42391
380 5.27293
385 4.87857
390 3.42283
395 3.27424
400 4.24329
405 3.18324
410 4.27264
415 4.34177
420 3.78799
425 2.79731
430 5.10657
435 3.0265
440 4.17933
445 3.64934
450 5.35104
455 4.9394
460 2.78774
465 3.7549
470 5.46223
475 3.94653
480 2.52295
485 3.70914
490 5.18291
495 3.64615
500 4.22131
505 5.22756
510 5.23321
515 5.90161
520 4.72151
525 4.42788
530 6.2303
535 4.61319
540 4.32961
545 3.41992
550 3.61277
555 4.20371
560 4.69071
565 3.05386
570 3.59162
575 4.12404
580 2.80833
585 3.89145
590 3.67421
595 3.28655
600 0.373997
Ex : 258
200 4.17119
205 3.68214
210 3.85444
215 2.56732
220 2.92153
225 2.44458
230 2.69156
235 3.59068
240 2.80063
245 2.84242
250 4.32049
255 3.37
260 2.97815
265 3.69618
270 3.41505
275 3.57859
280 3.36678
285 2.31214
290 3.91219
295 2.06372
300 4.03286
305 3.35386
310 3.30827
315 3.02782
320 3.43284
325 3.62827
330 3.0062
335 2.65377
340 2.50941
345 3.03617
350 3.62374
355 2.74498
360 3.48591
365 2.24718
370 3.30477
375 3.0775
380 4.68735
385 3.2104
390 3.02394
395 2.32131
400 4.33083
405 2.74845
410 2.74334
415 3.60618
420 3.08159
425 3.92112
430 3.17129
435 2.88073
440 3.93256
445 3.25137
450 2.47792
455 4.41821
460 3.67017
465 3.58136
470 2.90569
475 2.33158
480 2.91649
485 3.34535
490 2.70697
495 3.48849
500 3.84088
505 3.8974
510 3.71885
515 4.04874
520 2.96295
525 2.75328
530 4.17124
535 5.2624
540 4.45503
545 3.98953
550 3.31994
555 2.42633
560 4.13204
565 2.38531
570 2.17423
575 4.2888
580 3.56962
585 2.57414
590 3.62814
595 3.32362
600 1.53028
Ex : 263
200 1.8898
205 2.54079
210 2.52986
215 2.31519
220 2.78606
225 1.89416
230 3.33704
235 3.33665
240 2.13903
245 2.10839
250 2.17887
255 1.98813
260 3.39776
265 2.50225
270 3.00011
275 2.02577
280 1.97181
285 2.83966
290 2.34345
295 2.13158
300 2.44587
305 2.2947
310 2.08694
315 2.24815
320 2.43913
325 2.94354
330 2.09385
335 3.64355
340 3.01667
345 3.03858
350 2.29426
355 2.16664
360 2.64434
365 2.35876
370 3.00396
375 2.97841
380 2.91973
385 3.07789
390 3.38246
395 5.35119
400 1.96644
405 2.73154
410 3.38174
415 3.51804
420 2.57597
425 2.55252
430 1.55584
435 2.87688
440 2.62999
445 3.55306
450 2.30271
455 2.14559
460 1.96985
465 2.29293
470 2.76289
475 2.00544
480 2.1741
485 2.98564
490 2.79274
495 1.9967
500 3.11708
505 2.62026
510 2.60172
515 2.61596
520 2.15449
525 2.32407
530 3.5054
535 3.23389
540 2.50712
545 3.41655
550 2.51742
555 3.6523
560 2.14415
565 2.31912
570 2.8761
575 2.58792
580 2.47637
585 3.19485
590 2.46517
595 2.81042
600 3.66012
Ex : 268
200 1.39211
205 1.54904
210 1.60131
215 1.70794
220 1.47668
225 1.2891
230 1.63162
235 1.62852
240 1.75833
245 1.98309
250 1.97005
255 2.00491
260 2.07772
265 2.1956
270 1.74739
275 2.32784
280 1.52055
285 1.99493
290 1.91011
295 1.77854
300 1.33733
305 1.8663
310 1.86468
315 2.34992
320 2.01348
325 1.61397
330 1.73038
335 2.50385
340 3.78045
345 2.58545
350 2.8289
355 2.15325
360 2.39657
365 2.70275
370 3.03022
375 3.47198
380 2.75712
385 2.44677
390 2.13119
395 3.02509
400 1.76028
405 1.94915
410 2.33768
415 2.61137
420 3.69212
425 2.71323
430 2.31843
435 2.56027
440 2.0661
445 2.1028
450 2.07156
455 2.57328
460 2.75725
465 2.24998
470 1.77071
475 1.75765
480 1.7928
485 1.60117
490 2.20915
495 3.10655
500 2.55358
505 2.36626
510 2.00051
515 1.46093
520 1.96565
525 2.92862
530 2.80189
535 2.40417
540 1.7205
545 1.61161
550 1.80498
555 1.59215
560 1.27877
565 2.34293
570 2.10364
575 2.10192
580 1.73114
585 3.54265
590 2.45154
595 1.55054
600 1.89962
Ex : 273
200 1.90356
205 1.62389
210 1.75837
215 1.39695
220 1.10606
225 1.49869
230 2.16022
235 1.59489
240 1.74781
245 1.15879
250 1.47908
255 1.31165
260 2.26753
265 1.0515
270 1.63683
275 1.57887
280 2.25156
285 1.51159
290 1.6708
295 1.61503
300 1.37497
305 1.46911
310 1.48309
315 1.18609
320 1.35456
325 1.59836
330 1.67806
335 1.31336
340 1.60502
345 1.99893
350 2.83949
355 2.66422
360 1.70404
365 2.35786
370 1.46362
375 1.75693
380 1.75713
385 1.64396
390 1.29908
395 1.8756
400 1.9963
405 1.64262
410 2.3121
415 1.89312
420 1.5608
425 1.64831
430 2.04926
435 1.40966
440 2.0436
445 1.75393
450 1.54264
455 1.54134
460 1.89165
465 1.63394
470 1.49486
475 1.45835
480 1.5545
485 1.4692
490 2.27145
495 1.75489
500 1.52712
505 1.97523
510 2.14837
515 1.75853
520 1.83719
525 1.38012
530 1.66246
535 2.34901
540 2.02626
545 1.7607
550 2.06635
555 1.67534
560 1.6114
565 1.31951
570 1.42939
575 1.92559
580 2.03556
585 1.71709
590 1.66518
595 1.32876
600 0.151208
Ex : 278
200 1.18827
205 2.05336
210 1.18942
215 1.25855
220 1.31795
225 2.17469
230 1.3377
235 0.986708
240 1.79157
245 1.24522
250 1.93831
255 1.77046
260 1.35603
265 1.21436
270 1.88616
275 0.923755
280 1.26787
285 0.977482
290 1.3457
295 1.51456
300 1.63102
305 1.32996
310 1.12524
315 0.870883
320 1.52034
325 1.2551
330 1.18226
335 1.44478
340 1.31117
345 1.75047
350 1.52381
355 2.10835
360 1.24871
365 1.91998
370 1.2475
375 1.35523
380 1.78921
385 1.66844
390 1.73994
395 2.01709
400 1.7042
405 1.55994
410 1.69041
415 1.49908
420 1.22315
425 1.18638
430 2.12582
435 1.69676
440 1.8418
445 1.33913
450 1.09173
455 1.34364
460 1.80803
465 1.53701
470 1.76204
475 1.11084
480 1.62309
485 1.28094
490 1.75138
495 1.89292
500 1.44334
505 2.04743
510 1.20356
515 1.51014
520 1.54527
525 1.30317
530 1.50158
535 0.797031
540 1.4441
545 1.43121
550 1.69202
555 1.52837
560 1.5884
565 1.0787
570 1.51757
575 1.38859
580 1.5469
585 0.937951
590 1.03337
595 1.04592
600 1.35338
Ex : 283
200 1.18853
205 0.89651
210 1.17766
215 1.02731
220 1.16076
225 0.97366
230 0.633783
235 0.759011
240 0.760202
245 0.784199
250 1.63961
255 1.2029
260 0.906791
265 0.616015
270 0.843408
275 1.21532
280 0.760568
285 0.866618
290 1.11476
295 0.856519
300 1.06495
305 0.9659
310 1.13025
315 0.729809
320 1.178
325 0.805831
330 0.972005
335 1.25646
340 1.0053
345 1.20405
350 1.12336
355 1.3654
360 1.5574
365 1.33506
370 1.27787
375 1.52974
380 1.38834
385 1.23368
390 1.30474
395 1.65951
400 1.52853
405 1.04331
410 1.23166
415 1.20617
420 0.979571
425 1.92295
430 1.54683
435 1.31367
440 1.5602
445 1.58253
450 1.02427
455 1.31573
460 1.37167
465 1.40365
470 1.08334
475 1.53421
480 1.12022
485 1.29941
490 1.29388
495 1.1248
500 1.27714
505 1.56352
510 1.16173
515 1.14928
520 0.965427
525 0.650055
530 1.18993
535 1.31272
540 1.08381
545 0.94972
550 0.965816
555 1.07715
560 1.58764
565 1.75861
570 1.32447
575 1.09284
580 0.932965
585 0.852002
590 1.05398
595 1.21451
600 0.138206
Ex : 288
200 0.859853
205 1.02708
210 0.893325
215 0.999844
220 0.646906
225 0.895149
230 0.80376
235 1.38015
240 0.863521
245 0.743173
250 0.652286
255 0.706068
260 1.21585
265 0.619874
270 1.4526
275 1.01864
280 0.715232
285 0.808002
290 0.675851
295 1.24475
300 0.761446
305 1.09145
310 0.879986
315 0.899237
320 0.950685
325 0.792073
330 0.803447
335 1.21937
340 0.991317
345 1.32018
350 1.08891
355 0.953066
360 1.1225
365 1.06257
370 1.96785
375 1.2068
380 1.08624
385 1.57558
390 1.30812
395 1.88632
400 1.25909
405 1.30098
410 1.23743
415 0.959849
420 1.23915
425 1.23605
430 0.947942
435 1.10778
440 1.06266
445 1.08586
450 1.4936
455 1.08386
460 0.993203
465 1.51235
470 1.19999
475 1.27627
480 0.912445
485 1.52241
490 0.972802
495 1.16034
500 0.94648
505 1.05292
510 0.911284
515 0.713812
520 0.816987
525 0.746905
530 0.947748
535 0.575508
540 0.813578
545 0.447933
550 0.667059
555 0.752194
560 0.963685
565 1.2644
570 1.37828
575 1.18551
580 1.6278
585 0.858427
590 0.98389
595 0.600135
600 0.636372
Ex : 293
200 0.812304
205 1.06833
210 0.858703
215 0.827938
220 0.866176
225 0.49056
230 0.671243
235 0.775634
240 0.681684
245 0.563916
250 0.722494
255 0.522997
260 0.630841
265 0.723272
270 0.620589
275 0.97845
280 0.86213
285 0.71627
290 0.621317
295 0.653805
300 0.70423
305 0.721203
310 0.809941
315 0.628386
320 0.658182
325 0.98463
330 0.731311
335 0.86451
340 1.0816
345 1.06444
350 0.901538
355 0.950841
360 0.855965
365 0.829487
370 0.893768
375 1.00718
380 0.828729
385 1.06423
390 1.18974
395 0.949786
400 1.04555
405 0.95482
410 1.10076
415 0.812047
420 0.674468
425 0.871073
430 1.14824
435 1.05826
440 1.02339
445 1.15197
450 0.951358
455 1.09764
460 1.05512
465 1.11154
470 0.803578
475 0.764977
480 0.704681
485 0.7798
490 0.80803
495 1.17971
500 1.21347
505 0.691676
510 0.80571
515 0.845676
520 1.1975
525 0.700471
530 0.823638
535 0.62683
540 0.786734
545 0.745216
550 1.02082
555 0.58368
560 0.736252
565 0.537703
570 0.967638
575 0.82292
580 1.06495
585 1.04069
590 0.762392
595 0.838423
600 8.23612
Ex : 298
200 0.634857
205 0.608735
210 0.799087
215 0.525644
220 1.17539
225 0.882513
230 0.802588
235 0.618758
240 0.590671
245 0.911334
250 0.588656
255 0.846607
260 0.730369
265 0.494594
270 0.517381
275 0.612504
280 0.367621
285 0.506721
290 1.07305
295 0.893989
300 0.51254
305 0.903811
310 0.672895
315 0.608855
320 0.719997
325 0.690723
330 0.641194
335 0.798332
340 0.643426
345 0.546182
350 0.876805
355 0.849826
360 0.82392
365 0.789347
370 0.862105
375 1.10647
380 1.16088
385 0.842826
390 1.11174
395 1.06728
400 0.97146
405 0.878512
410 1.06204
415 0.900954
420 0.743498
425 1.05466
430 0.980819
435 1.06984
440 0.899679
445 0.702879
450 0.938106
455 0.812115
460 0.724566
465 0.983978
470 1.11391
475 1.07818
480 0.646723
485 0.758388
490 0.743756
495 0.681197
500 0.760658
505 1.03357
510 0.696918
515 1.12329
520 0.613603
525 0.871514
530 0.717164
535 0.634685
540 0.647395
545 0.978603
550 0.819038
555 0.59424
560 0.527743
565 0.706841
570 0.912276
575 0.720898
580 0.818272
585 0.996478
590 1.26518
595 1.46091
600 0.83508
Ex : 303
200 0.406419
205 0.600345
210 0.851294
215 0.803263
220 1.03172
225 0.730932
230 0.698763
235 0.61778
240 0.575118
245 0.568924
250 0.439956
255 0.683765
260 0.695593
265 0.685798
270 0.506079
275 0.73372
280 0.491606
285 0.617655
290 0.490031
295 0.546049
300 0.559888
305 0.521153
310 0.714943
315 0.695017
320 0.767706
325 0.685787
330 0.68611
335 0.917493
340 0.743088
345 1.04834
350 0.887457
355 0.838216
360 0.393681
365 0.853369
370 0.677907
375 0.708951
380 0.808518
385 0.754156
390 0.896957
395 0.81556
400 1.0203
405 1.24267
410 1.19048
415 0.847284
420 0.724924
425 0.899539
430 0.706132
435 1.02631
440 0.81458
445 1.00046
450 0.626406
455 0.685986
460 0.64472
465 0.926748
470 0.987507
475 0.778758
480 0.984906
485 0.834979
490 0.607697
495 0.69877
500 0.789106
505 0.589591
510 0.749934
515 0.992363
520 0.729794
525 0.798694
530 0.892276
535 0.619988
540 0.516623
545 0.56008
550 0.540628
555 0.641405
560 0.653702
565 0.708783
570 0.446469
575 0.592434
580 0.697567
585 0.772961
590 0.549021
595 0.78396
600 0.931105
Ex : 308
200 0.454015
205 0.790219
210 0.625924
215 0.381079
220 0.498212
225 0.423906
230 0.401304
235 0.555249
240 0.618324
245 0.717437
250 0.311488
255 0.415509
260 0.612447
265 0.388411
270 0.488516
275 0.552633
280 0.489996
285 0.531559
290 0.553944
295 0.583975
300 0.397714
305 0.66676
310 0.38008
315 0.665956
320 0.528326
325 0.420694
330 0.577274
335 0.777087
340 0.504001
345 0.693555
350 0.751164
355 0.583285
360 0.615992
365 0.694524
370 0.800526
375 0.725144
380 0.935406
385 0.595123
390 0.829993
395 0.963211
400 0.846943
405 0.944026
410 0.975364
415 0.794356
420 1.04507
425 0.935695
430 0.622356
435 0.703607
440 1.12508
445 0.989719
450 1.14148
455 0.767828
460 0.923636
465 0.74293
470 0.967993
475 0.568535
480 0.723732
485 0.718992
490 0.829724
495 0.821896
500 0.672261
505 0.431901
510 0.531702
515 0.511785
520 0.671153
525 0.677607
530 0.651637
535 0.454042
540 0.778259
545 0.56968
550 0.456907
555 0.765325
560 0.532482
565 0.537452
570 0.468698
575 0.449131
580 0.600482
585 0.432114
590 0.502196
595 0.441241
600 0.165803
Ex : 313
200 0.36613
205 0.224244
210 0.29417
215 0.54517
220 0.290659
225 0.394161
230 0.415854
235 0.430094
240 0.497935
245 0.421695
250 0.653716
255 0.456123
260 0.508564
265 0.613555
270 0.458872
275 0.49706
280 0.581089
285 0.786033
290 0.339862
295 0.433816
300 0.519673
305 0.557426
310 0.541031
315 0.51488
320 0.369432
325 0.454432
330 0.622684
335 0.52053
340 0.835931
345 0.786574
350 0.671605
355 0.76019
360 0.895265
365 0.84992
370 0.873846
375 1.22191
380 1.15314
385 1.35813
390 1.15893
395 1.28728
400 1.34152
405 1.31674
410 1.48964
415 1.47352
420 1.32712
425 1.62642
430 1.30374
435 1.4081
440 1.20466
445 1.10867
450 1.12703
455 1.21706
460 1.22976
465 1.03121
470 1.28016
475 0.913649
480 0.8978
485 0.942389
490 0.964401
495 0.7508
500 0.688417
505 0.67906
510 0.830468
515 0.843061
520 0.59421
525 0.609942
530 0.409555
535 0.750845
540 0.65711
545 0.497247
550 0.607425
555 0.650877
560 0.508768
565 0.456057
570 0.590141
575 0.446767
580 0.392362
585 0.50647
590 0.639483
595 0.516274
600 0.8427
Ex : 318
200 0.335733
205 0.352818
210 0.401851
215 0.515176
220 0.388803
225 0.548677
230 0.601711
235 0.679934
240 0.579485
245 0.43357
250 0.3142
255 0.407771
260 0.252392
265 0.378451
270 0.594381
275 0.474023
280 0.283296
285 0.278552
290 0.42888
295 0.421607
300 0.42598
305 0.474044
310 0.584949
315 1.11748
320 0.75265
325 0.751553
330 1.03146
335 1.13103
340 1.57143
345 2.12938
350 2.7642
355 3.3829
360 4.5415
365 5.22067
370 5.81764
375 7.34812
380 8.57847
385 9.01888
390 9.88198
395 9.37366
400 10.7069
405 10.9489
410 10.5704
415 10.577
420 10.2644
425 10.0081
430 9.26466
435 9.14326
440 8.49754
445 8.0437
450 7.86323
455 7.55163
460 7.05801
465 6.72253
470 5.96265
475 5.39706
480 5.3082
485 4.78126
490 4.00602
495 3.843
500 3.44217
505 2.96025
510 2.77112
515 2.22438
520 2.0134
525 1.69221
530 1.65728
535 1.45323
540 1.17042
545 1.21884
550 1.0149
555 1.06763
560 0.865553
565 0.805703
570 0.742238
575 0.789388
580 0.503755
585 0.512538
590 0.55013
595 0.345494
600 0.0393159
Ex : 323
200 0.385353
205 0.372567
210 0.461878
215 0.477505
220 0.46111
225 0.331916
230 0.287122
235 0.330463
240 0.277097
245 0.288586
250 0.349584
255 0.405486
260 0.465236
265 0.331319
270 0.344238
275 0.42846
280 0.434367
285 0.351749
290 0.491677
295 0.542181
300 0.357948
305 0.43944
310 0.439768
315 5.00559
320 19.6695
325 8.29291
330 2.87234
335 3.23173
340 4.53403
345 6.07022
350 9.00387
355 12.1812
360 14.8672
365 17.398
370 20.5528
375 24.0365
380 26.7733
385 29.1242
390 31.8398
395 33.5609
400 33.6428
405 34.7489
410 35.6037
415 35.0902
420 34.2908
425 33.3284
430 31.7696
435 29.2721
440 29.131
445 27.8125
450 25.9553
455 24.3477
460 22.8938
465 21.5392
470 19.3346
475 18.246
480 16.6384
485 14.9764
490 13.8907
495 12.8096
500 11.0637
505 9.95959
510 8.90122
515 8.07774
520 6.52378
525 6.01792
530 4.64797
535 4.29953
540 3.86856
545 3.5032
550 2.97928
555 2.31868
560 1.94464
565 1.94749
570 1.54163
575 1.07074
580 0.906271
585 0.770699
590 0.870576
595 0.693393
600 0.0789055
Ex : 328
200 0.531143
205 0.268376
210 0.2948
215 0.328505
220 0.425097
225 0.337279
230 0.302406
235 0.382496
240 0.346507
245 0.302475
250 0.318794
255 0.374535
260 0.410443
265 0.430697
270 0.287568
275 0.356051
280 0.367516
285 0.23575
290 0.381839
295 0.410256
300 0.337322
305 0.387197
310 0.422612
315 1.44124
320 39.6598
325 90.8502
330 27.7746
335 6.33799
340 5.55563
345 6.87137
350 9.13952
355 12.1771
360 17.0476
365 18.894
370 20.8587
375 24.5525
380 25.7821
385 29.0532
390 30.4461
395 33.0965
400 34.3865
405 35.2644
410 35.5868
415 34.5924
420 33.2381
425 31.3511
430 31.0435
435 30.0151
440 28.2483
445 27.36
450 25.7984
455 23.6826
460 22.2483
465 20.3098
470 18.7077
475 17.8903
480 16.4395
485 15.5663
490 13.2877
495 12.0483
500 11.3577
505 9.53435
510 8.6386
515 7.61681
520 7.11832
525 5.86736
530 5.14651
535 4.43069
540 4.18943
545 3.45513
550 3.2396
555 2.7264
560 2.29627
565 2.25818
570 1.84571
575 1.49715
580 1.096
585 0.991766
590 0.870248
595 0.813754
600 0.372036
Ex : 333
200 0.342075
205 0.259057
210 0.272237
215 0.250927
220 0.323783
225 0.272798
230 0.275747
235 0.174176
240 0.333648
245 0.254599
250 0.276117
255 0.457611
260 0.27315
265 0.3537
270 0.312768
275 0.4406
280 0.322083
285 0.367188
290 0.213026
295 0.265777
300 0.257325
305 0.387395
310 0.312835
315 0.485425
320 5.47947
325 103.151
330 170.186
335 44.3756
340 8.27947
345 5.49214
350 5.79719
355 6.40854
360 9.23449
365 13.1679
370 14.5443
375 14.6287
380 15.3658
385 16.0611
390 16.6924
395 18.0293
400 18.4919
405 18.3179
410 19.1163
415 19.4769
420 18.1329
425 17.9073
430 17.0396
435 16.6401
440 15.9667
445 15.4002
450 14.4758
455 13.8448
460 12.8252
465 12.3651
470 11.2217
475 10.4436
480 9.99786
485 9.28532
490 8.89855
495 7.89399
500 7.03884
505 6.62621
510 5.676
515 5.18236
520 4.45043
525 4.24441
530 3.98794
535 3.42589
540 3.1025
545 2.78566
550 2.40966
555 1.92539
560 1.99168
565 1.69164
570 1.35098
575 1.24094
580 1.11578
585 0.780745
590 0.829254
595 0.39444
600 0.0668577
Ex : 338
200 0.427922
205 0.24041
210 0.312007
215 0.280175
220 0.305843
225 0.250469
230 0.36152
235 0.410352
240 0.254743
245 0.21623
250 0.285567
255 0.32281
260 0.236657
265 0.262378
270 0.33378
275 0.284255
280 0.343708
285 0.28725
290 0.288811
295 0.309716
300 0.264457
305 0.321929
310 0.312479
315 0.219902
320 0.362349
325 9.77246
330 147.135
335 220.097
340 55.0792
345 8.64883
350 4.21839
355 4.04152
360 3.51683
365 5.75188
370 10.3408
375 11.0521
380 9.43139
385 8.23461
390 8.31845
395 8.89154
400 9.77204
405 9.55527
410 9.75607
415 10.2423
420 10.5707
425 9.83761
430 10.0547
435 9.6103
440 9.68304
445 9.56098
450 8.87125
455 8.56757
460 8.64805
465 8.42598
470 7.45741
475 7.46973
480 6.99373
485 6.57253
490 6.49404
495 6.15417
500 5.633
505 5.29394
510 4.52678
515 4.08629
520 3.76159
525 3.47325
530 3.05639
535 2.95906
540 2.7318
545 2.33627
550 2.21971
555 1.7846
560 1.63077
565 1.35496
570 1.33416
575 1.03553
580 0.774321
585 0.625767
590 0.797717
595 0.592126
600 0.887451
Ex : 343
200 0.279706
205 0.205445
210 0.319592
215 0.318446
220 0.25348
225 0.25311
230 0.305543
235 0.409553
240 0.262068
245 0.272071
250 0.346236
255 0.253523
260 0.27114
265 0.228379
270 0.19778
275 0.206697
280 0.213208
285 0.291625
290 0.251086
295 0.265522
300 0.235627
305 0.26467
310 0.276119
315 0.313545
320 0.51352
325 0.469587
330 10.9097
335 167.209
340 242.541
345 58.0664
350 8.98518
355 3.50045
360 2.82032
365 2.66578
370 3.59356
375 7.71405
380 8.73091
385 7.23133
390 5.85982
395 5.78851
400 6.4024
405 6.89664
410 7.31247
415 8.28802
420 7.95006
425 7.93783
430 7.78279
435 8.22742
440 8.53114
445 8.40256
450 8.29001
455 8.33716
460 8.05493
465 7.84086
470 7.41678
475 7.27588
480 6.73347
485 6.60702
490 6.36756
495 5.80726
500 5.4145
505 4.9762
510 4.669
515 4.21984
520 4.19015
525 3.67218
530 3.79805
535 3.24601
540 2.83655
545 2.45275
550 2.48463
555 2.03134
560 1.69992
565 1.75387
570 1.15945
575 1.21346
580 1.05276
585 0.775875
590 0.754762
595 0.720895
600 1.14667
Ex : 348
200 0.243183
205 0.195137
210 0.205899
215 0.172548
220 0.16269
225 0.220498
230 0.171529
235 0.31304
240 0.276849
245 0.254735
250 0.23739
255 0.307166
260 0.238024
265 0.19924
270 0.206371
275 0.206532
280 0.257006
285 0.208118
290 0.253454
295 0.264261
300 0.21644
305 0.316624
310 0.237368
315 0.244708
320 0.231667
325 0.333348
330 0.424658
335 10.6816
340 168.08
345 253.673
350 65.9122
355 9.43248
360 3.41439
365 2.41005
370 2.20244
375 2.73868
380 5.91123
385 7.85023
390 6.38629
395 5.80875
400 4.91952
405 5.83999
410 6.86852
415 6.94951
420 7.4709
425 7.74443
430 7.85687
435 7.85194
440 8.49949
445 8.53809
450 8.27205
455 8.01487
460 7.7689
465 8.03484
470 7.89405
475 8.20163
480 7.92001
485 7.4495
490 6.75997
495 6.95992
500 6.22732
505 5.62714
510 5.4019
515 5.08877
520 4.55203
525 4.42036
530 3.80239
535 3.44917
540 3.26193
545 3.04059
550 2.6922
555 2.39935
560 1.95785
565 1.67868
570 1.45874
575 1.40634
580 0.997373
585 0.754787
590 0.697735
595 0.645427
600 0.413879
Ex : 353
200 0.233433
205 0.2698
210 0.242777
215 0.355513
220 0.180549
225 0.16078
230 0.140774
235 0.29241
240 0.192814
245 0.222279
250 0.251336
255 0.253164
260 0.314799
265 0.247401
270 0.33308
275 0.161291
280 0.219931
285 0.290816
290 0.225074
295 0.230225
300 0.222848
305 0.209745
310 0.246057
315 0.178737
320 0.229478
325 0.398628
330 0.417943
335 0.442611
340 11.0788
345 174.431
350 253.787
355 63.4732
360 8.91452
365 2.89289
370 2.44152
375 2.36116
380 2.37879
385 4.60887
390 7.57928
395 6.81899
400 6.00116
405 5.84557
410 6.35855
415 6.92029
420 7.41377
425 7.13718
430 7.31187
435 8.15535
440 8.74724
445 8.67608
450 8.52148
455 8.4265
460 8.63407
465 9.20059
470 8.90137
475 8.86431
480 8.18238
485 8.07631
490 7.80318
495 7.39327
500 6.95718
505 6.55771
510 6.09234
515 5.34998
520 5.30977
525 4.90562
530 4.26909
535 3.96399
540 3.49018
545 3.04898
550 2.57931
555 2.42511
560 2.30027
565 2.16418
570 1.68334
575 1.29359
580 1.04934
585 0.788782
590 0.710703
595 0.625959
600 0.229119
Ex : 358
200 0.177145
205 0.239536
210 0.165742
215 0.220404
220 0.202367
225 0.26498
230 0.286753
235 0.420967
240 0.267846
245 0.33098
250 0.262134
255 0.231456
260 0.169384
265 0.20532
270 0.225398
275 0.20366
280 0.190276
285 0.1981
290 0.216
295 0.200421
300 0.285105
305 0.322729
310 0.175949
315 0.195417
320 0.321806
325 0.175062
330 0.373288
335 0.358003
340 0.516544
345 10.7368
350 167.132
355 258.721
360 65.8234
365 9.15158
370 3.16837
375 2.88301
380 2.61531
385 2.5961
390 4.14535
395 7.58758
400 8.1101
405 7.20279
410 7.05711
415 7.20085
420 7.56602
425 7.55252
430 7.73578
435 8.85523
440 9.0956
445 8.99148
450 9.11374
455 9.5663
460 9.71778
465 9.463
470 9.26407
475 9.27253
480 9.06982
485 8.86383
490 8.37217
495 8.39918
500 7.49508
505 7.53255
510 6.764
515 6.16484
520 5.52045
525 5.20026
530 4.95089
535 4.35238
540 3.704
545 3.5454
550 3.08325
555 2.6824
560 2.29202
565 2.02835
570 1.82454
575 1.47361
580 1.05163
585 1.03415
590 0.851488
595 0.74465
600 0.719074
Ex : 363
200 0.231657
205 0.165147
210 0.199158
215 0.290209
220 0.158112
225 0.18693
230 0.190338
235 0.173319
240 0.174038
245 0.120778
250 0.151009
255 0.221701
260 0.241545
265 0.246691
270 0.226479
275 0.246581
280 0.242551
285 0.235411
290 0.219318
295 0.204312
300 0.199302
305 0.230496
310 0.205281
315 0.218304
320 0.183033
325 0.172782
330 0.212701
335 0.31486
340 0.373546
345 0.579307
350 9.84087
355 167.077
360 260.705
365 68.5985
370 9.40978
375 2.95732
380 2.6623
385 2.30169
390 2.32192
395 3.713
400 7.08349
405 9.00156
410 9.03167
415 8.80081
420 7.93999
425 8.19663
430 8.79046
435 9.64434
440 10.7391
445 10.8614
450 10.2726
455 10.2945
460 10.7945
465 10.829
470 10.9158
475 10.9277
480 10.3542
485 9.81083
490 9.38577
495 9.01171
500 8.60244
505 8.0974
510 7.61064
515 6.94174
520 6.47135
525 5.67514
530 5.23042
535 4.65721
540 3.96163
545 3.78734
550 3.60888
555 3.17905
560 2.68403
565 2.40779
570 1.90592
575 1.49344
580 1.21388
585 0.930992
590 0.805062
595 0.678198
600 0.818604
Ex : 368
200 0.247989
205 0.224155
210 0.227947
215 0.189879
220 0.186725
225 0.190402
230 0.211234
235 0.171804
240 0.212517
245 0.163621
250 0.178589
255 0.229491
260 0.151186
265 0.148717
270 0.146301
275 0.191216
280 0.149742
285 0.185332
290 0.201746
295 0.21466
300 0.242834
305 0.217745
310 0.327049
315 0.173078
320 0.170577
325 0.187353
330 0.209564
335 0.187438
340 0.234173
345 0.412336
350 0.559905
355 8.63871
360 160.703
365 267.088
370 72.6913
375 10.1332
380 3.00484
385 2.60829
390 2.69524
395 2.55535
400 3.33783
405 6.85856
410 9.98881
415 10.0306
420 8.50923
425 8.29163
430 8.44662
435 9.35858
440 9.7491
445 9.68164
450 10.1315
455 10.2496
460 10.4619
465 11.1066
470 10.8869
475 11.0072
480 10.8232
485 10.6605
490 10.4645
495 10.2805
500 9.51884
505 8.72288
510 8.12658
515 7.52839
520 7.38766
525 6.68227
530 5.97852
535 5.24708
540 4.85677
545 4.15238
550 3.91154
555 3.5636
560 2.85698
565 2.55818
570 2.14174
575 1.75981
580 1.37959
585 1.19312
590 0.816584
595 0.741493
600 0.32757
Ex : 373
200 0.171437
205 0.189495
210 0.175844
215 0.188508
220 0.18583
225 0.211281
230 0.220998
235 0.208707
240 0.180347
245 0.199082
250 0.132707
255 0.180483
260 0.153861
265 0.275158
270 0.150942
275 0.177254
280 0.191583
285 0.214149
290 0.145784
295 0.167151
300 0.201179
305 0.246565
310 0.123242
315 0.289176
320 0.217338
325 0.177062
330 0.197034
335 0.215918
340 0.17581
345 0.250822
350 0.327178
355 0.439587
360 10.13
365 164.295
370 267.21
375 72.1967
380 10.1382
385 2.97902
390 2.81364
395 2.8922
400 3.02914
405 4.09379
410 6.91119
415 9.70641
420 9.18973
425 8.41982
430 7.93241
435 8.15359
440 8.92697
445 9.20829
450 9.50791
455 9.49529
460 10.3536
465 10.8876
470 10.4228
475 11.1269
480 11.0053
485 10.7457
490 10.5741
495 10.1053
500 9.87316
505 8.86667
510 8.49883
515 7.7299
520 7.4812
525 6.67603
530 6.22421
535 5.3647
540 4.87
545 4.46124
550 3.95573
555 3.65296
560 3.33416
565 2.79081
570 2.49271
575 1.97034
580 1.5438
585 0.943914
590 0.901731
595 0.754803
600 0.683118
Ex : 378
200 0.13869
205 0.17663
210 0.118052
215 0.133148
220 0.212992
225 0.143801
230 0.183285
235 0.163607
240 0.134301
245 0.205152
250 0.173134
255 0.173506
260 0.179911
265 0.1208
270 0.175306
275 0.174358
280 0.147159
285 0.161864
290 0.134689
295 0.142356
300 0.154787
305 0.244395
310 0.177849
315 0.209061
320 0.132641
325 0.19656
330 0.21102
335 0.256703
340 0.250741
345 0.25379
350 0.228866
355 0.334136
360 0.473254
365 9.32362
370 167.296
375 274.429
380 74.8991
385 10.4369
390 3.3664
395 3.43944
400 3.62346
405 4.23748
410 5.48583
415 7.59775
420 9.91362
425 9.78461
430 8.70415
435 9.03862
440 9.24022
445 9.51242
450 9.3439
455 9.49742
460 9.68509
465 10.2563
470 10.2917
475 10.7068
480 10.9579
485 10.4812
490 10.2307
495 10.0102
500 9.52346
505 9.04403
510 8.58932
515 8.11393
520 7.43773
525 6.57162
530 5.9565
535 5.62144
540 4.62182
545 4.10247
550 3.9998
555 3.56585
560 2.75003
565 2.63915
570 2.25999
575 1.74859
580 1.39734
585 1.18872
590 0.968794
595 0.751452
600 0.581495
Ex : 383
200 0.142964
205 0.195843
210 0.169122
215 0.200825
220 0.128846
225 0.131669
230 0.170817
235 0.133825
240 0.17616
245 0.165748
250 0.221094
255 0.159598
260 0.179791
265 0.116768
270 0.167926
275 0.117252
280 0.177377
285 0.153065
290 0.12856
295 0.16968
300 0.126687
305 0.196409
310 0.16533
315 0.146529
320 0.153934
325 0.175051
330 0.182001
335 0.1949
340 0.143721
345 0.240779
350 0.235039
355 0.303607
360 0.274636
365 0.42989
370 8.90963
375 165.736
380 285.066
385 77.8378
390 10.7312
395 3.36611
400 3.3757
405 4.41995
410 5.95503
415 6.62245
420 7.42962
425 9.96377
430 10.9045
435 10.3069
440 10.3745
445 10.3138
450 10.2197
455 9.60946
460 10.0731
465 10.5304
470 10.6437
475 11.4785
480 10.9122
485 10.7708
490 10.0829
495 10.1829
500 9.91346
505 9.1966
510 8.30495
515 7.87113
520 7.12196
525 6.6842
530 5.94606
535 5.4438
540 5.05548
545 4.52983
550 4.01707
555 3.36124
560 3.0701
565 2.64506
570 2.31347
575 1.73746
580 1.28129
585 1.08067
590 0.805262
595 0.712137
600 0.723013
Ex : 388
200 0.170679
205 0.148219
210 0.229919
215 0.223457
220 0.136817
225 0.142744
230 0.152144
235 0.163692
240 0.18732
245 0.192514
250 0.145909
255 0.146888
260 0.185062
265 0.200875
270 0.181797
275 0.113757
280 0.178155
285 0.152497
290 0.173231
295 0.136889
300 0.159314
305 0.1384
310 0.174487
315 0.245087
320 0.22946
325 0.199517
330 0.202543
335 0.195536
340 0.229661
345 0.175202
350 0.143785
355 0.232388
360 0.249683
365 0.257828
370 0.444843
375 9.19344
380 169.445
385 284.465
390 77.0688
395 10.6747
400 3.38603
405 4.21867
410 5.71691
415 6.69904
420 6.46992
425 6.84003
430 8.87348
435 11.1248
440 11.0289
445 10.4811
450 9.95549
455 9.93161
460 10.0271
465 10.555
470 11.0044
475 10.9252
480 10.8638
485 10.4872
490 10.1776
495 10.0686
500 9.85941
505 9.03491
510 8.56067
515 8.36143
520 7.27092
525 6.78593
530 6.21112
535 5.56393
540 5.06321
545 4.46224
550 4.10131
555 3.54346
560 3.25385
565 2.85699
570 2.40923
575 1.90241
580 1.3742
585 1.18773
590 0.936426
595 0.847639
600 0.925811
Ex : 393
200 0.148161
205 0.0888172
210 0.100264
215 0.147166
220 0.123073
225 0.159541
230 0.104799
235 0.107688
240 0.112608
245 0.163768
250 0.147433
255 0.116259
260 0.15046
265 0.146363
270 0.149311
275 0.163587
280 0.138142
285 0.125346
290 0.146086
295 0.14832
300 0.138513
305 0.102997
310 0.176864
315 0.112913
320 0.151519
325 0.121358
330 0.217601
335 0.143075
340 0.132504
345 0.189259
350 0.203618
355 0.171668
360 0.207116
365 0.235673
370 0.374782
375 0.44832
380 8.37671
385 167.448
390 287.703
395 78.9798
400 11.0511
405 4.05417
410 4.65312
415 5.49431
420 5.36964
425 5.28951
430 5.87937
435 7.66912
440 10.1562
445 9.65648
450 9.05944
455 9.09321
460 9.03004
465 9.37013
470 9.89533
475 9.96304
480 10.0742
485 10.2042
490 9.91885
495 9.53288
500 9.27578
505 9.09517
510 8.70599
515 8.09667
520 7.22726
525 6.41606
530 6.2184
535 5.64829
540 5.0957
545 4.43171
550 4.11359
555 3.4947
560 3.13519
565 2.81307
570 2.42728
575 1.84113
580 1.52874
585 1.18887
590 0.931198
595 0.759876
600 1.32843
Ex : 398
200 0.109845
205 0.120832
210 0.124128
215 0.144136
220 0.130797
225 0.120738
230 0.129481
235 0.130452
240 0.152858
245 0.106145
250 0.122188
255 0.154517
260 0.196947
265 0.170523
270 0.166109
275 0.175266
280 0.104629
285 0.1485
290 0.108784
295 0.0893746
300 0.129298
305 0.152648
310 0.170157
315 0.184626
320 0.128592
325 0.172544
330 0.167118
335 0.224133
340 0.212833
345 0.2198
350 0.196221
355 0.238092
360 0.218936
365 0.254799
370 0.271187
375 0.286083
380 0.429625
385 8.52853
390 170.333
395 291.703
400 79.2272
405 11.5913
410 4.93651
415 4.99601
420 5.1472
425 4.86224
430 5.14982
435 5.86446
440 7.12359
445 9.55851
450 9.8654
455 8.87207
460 8.98213
465 8.9885
470 9.40733
475 9.62937
480 9.84429
485 9.79983
490 9.89425
495 9.76634
500 9.37338
505 9.01992
510 8.40607
515 7.63761
520 7.33358
525 6.90897
530 6.26437
535 5.54682
540 5.08019
545 4.53197
550 4.14273
555 3.44336
560 3.16279
565 2.91262
570 2.35795
575 1.85802
580 1.4707
585 1.20169
590 0.958234
595 0.774634
600 0.793496
Ex : 403
200 0.114869
205 0.111909
210 0.153294
215 0.1007
220 0.104969
225 0.142447
230 0.147822
235 0.1658
240 0.129035
245 0.10717
250 0.127314
255 0.155352
260 0.165258
265 0.149632
270 0.119644
275 0.147376
280 0.156912
285 0.178779
290 0.187562
295 0.176538
300 0.13385
305 0.170337
310 0.123365
315 0.109249
320 0.137795
325 0.160752
330 0.1506
335 0.120578
340 0.139023
345 0.166379
350 0.193018
355 0.205901
360 0.142367
365 0.161615
370 0.174073
375 0.205457
380 0.241259
385 0.487849
390 9.44929
395 174.941
400 289.525
405 80.8389
410 12.8385
415 5.78672
420 5.17252
425 5.23432
430 5.17459
435 5.67586
440 6.44977
445 7.5942
450 9.28501
455 10.0132
460 9.45603
465 9.66895
470 9.86311
475 10.1725
480 10.0508
485 9.79134
490 9.65833
495 9.59273
500 9.46125
505 9.06487
510 8.58915
515 7.92002
520 7.21412
525 6.70407
530 6.27225
535 5.83053
540 5.32946
545 4.56487
550 4.15315
555 3.7162
560 3.27582
565 2.7915
570 2.36185
575 1.85101
580 1.484
585 1.22812
590 1.04234
595 0.819172
600 1.05556
Ex : 408
200 0.0944422
205 0.109671
210 0.159447
215 0.202906
220 0.105942
225 0.106502
230 0.130984
235 0.139707
240 0.115136
245 0.115345
250 0.114233
255 0.109889
260 0.127576
265 0.147723
270 0.132471
275 0.167341
280 0.144799
285 0.132908
290 0.10441
295 0.115051
300 0.104523
305 0.0901396
310 0.138491
315 0.180726
320 0.173626
325 0.16272
330 0.147973
335 0.160121
340 0.143223
345 0.0838061
350 0.130804
355 0.164231
360 0.152133
365 0.251224
370 0.163412
375 0.222359
380 0.282888
385 0.320276
390 0.462215
395 9.20084
400 181.816
405 296.815
410 80.5046
415 13.1993
420 5.54997
425 4.79945
430 5.36106
435 5.83244
440 6.01883
445 6.46215
450 6.78021
455 8.36159
460 10.2589
465 9.89088
470 9.94277
475 9.74062
480 9.46722
485 9.50881
490 9.5093
495 9.16723
500 9.19711
505 9.03858
510 8.35277
515 7.6579
520 7.41783
525 6.72364
530 6.14959
535 5.6985
540 5.05904
545 4.71584
550 4.17422
555 3.62751
560 3.20857
565 2.73321
570 2.44686
575 1.98817
580 1.45415
585 1.25185
590 0.998375
595 0.757165
600 0.431632
Ex : 413
200 0.130314
205 0.157877
210 0.203897
215 0.148852
220 0.115837
225 0.131403
230 0.146046
235 0.115817
240 0.163787
245 0.167256
250 0.133243
255 0.135012
260 0.112275
265 0.151144
270 0.138628
275 0.169993
280 0.176112
285 0.199743
290 0.118444
295 0.129838
300 0.133542
305 0.143659
310 0.154873
315 0.130947
320 0.113754
325 0.205022
330 0.191937
335 0.133024
340 0.192831
345 0.162094
350 0.164034
355 0.146481
360 0.125464
365 0.202956
370 0.297365
375 0.170036
380 0.276769
385 0.258857
390 0.339635
395 0.4603
400 10.8029
405 186.188
410 297.267
415 77.157
420 11.8043
425 4.10036
430 3.43453
435 4.18
440 4.4145
445 4.54517
450 4.76161
455 5.4937
460 7.18727
465 9.23545
470 9.24878
475 8.9369
480 8.72171
485 8.56185
490 8.32342
495 8.47109
500 8.49904
505 7.95903
510 7.59022
515 7.22093
520 6.66834
525 6.34041
530 5.74227
535 5.37519
540 4.67674
545 4.37035
550 4.04383
555 3.72226
560 3.19496
565 2.69687
570 2.34308
575 1.84735
580 1.47948
585 1.15923
590 0.861805
595 0.836008
600 0.872403
Ex : 418
200 0.120446
205 0.0888319
210 0.123741
215 0.104384
220 0.102468
225 0.14005
230 0.126677
235 0.112542
240 0.14151
245 0.120849
250 0.168352
255 0.153352
260 0.203372
265 0.128818
270 0.0861033
275 0.16752
280 0.16321
285 0.109291
290 0.192509
295 0.120304
300 0.144545
305 0.118886
310 0.122881
315 0.119994
320 0.113049
325 0.123526
330 0.125805
335 0.177524
340 0.168287
345 0.15101
350 0.180844
355 0.131591
360 0.129916
365 0.167631
370 0.153373
375 0.178026
380 0.192206
385 0.215142
390 0.26297
395 0.294969
400 0.593813
405 10.0511
410 180.899
415 300.932
420 81.0021
425 11.1222
430 3.10061
435 2.47096
440 2.93523
445 3.13937
450 3.29524
455 3.72152
460 4.67595
465 5.89985
470 7.89995
475 8.53032
480 8.14151
485 7.81227
490 7.98896
495 7.5372
500 7.39345
505 7.1558
510 7.16878
515 6.56997
520 6.14988
525 5.73063
530 5.29995
535 5.06524
540 4.60981
545 4.08355
550 3.71114
555 3.33457
560 2.85678
565 2.57159
570 2.0969
575 1.71581
580 1.42311
585 1.17353
590 0.9342
595 0.695375
600 0.682566
Ex : 423
200 0.179235
205 0.183428
210 0.144702
215 0.160278
220 0.169178
225 0.085056
230 0.116157
235 0.122955
240 0.141932
245 0.132536
250 0.111006
255 0.116793
260 0.170163
265 0.134468
270 0.124383
275 0.142522
280 0.15284
285 0.108399
290 0.165858
295 0.15645
300 0.164949
305 0.113783
310 0.10177
315 0.145472
320 0.131753
325 0.156642
330 0.123183
335 0.190173
340 0.121179
345 0.157232
350 0.127082
355 0.119681
360 0.174873
365 0.165853
370 0.277176
375 0.188718
380 0.17836
385 0.140789
390 0.215649
395 0.281073
400 0.333091
405 0.636786
410 10.0611
415 195.665
420 301.98
425 76.4079
430 9.99787
435 2.42719
440 1.82862
445 2.48065
450 2.64183
455 3.05402
460 3.66851
465 4.3277
470 5.20392
475 6.91454
480 7.88894
485 7.44153
490 7.45978
495 7.02752
500 6.53339
505 6.40098
510 6.00475
515 6.06966
520 5.44646
525 5.23016
530 4.86757
535 4.48704
540 3.94421
545 3.80237
550 3.5379
555 3.08748
560 2.61978
565 2.33873
570 1.98334
575 1.59257
580 1.31753
585 1.09949
590 0.83447
595 0.691152
600 1.42672
Ex : 428
200 0.170508
205 0.118137
210 0.0981407
215 0.139924
220 0.131539
225 0.137209
230 0.109314
235 0.103984
240 0.120987
245 0.0958841
250 0.154144
255 0.144585
260 0.136048
265 0.147055
270 0.163964
275 0.11226
280 0.154975
285 0.138491
290 0.147238
295 0.122793
300 0.144736
305 0.15516
310 0.137277
315 0.109159
320 0.134271
325 0.144723
330 0.180818
335 0.175936
340 0.189801
345 0.133575
350 0.1316
355 0.0967617
360 0.141685
365 0.150551
370 0.183873
375 0.159444
380 0.160987
385 0.209926
390 0.192578
395 0.231563
400 0.257847
405 0.333353
410 0.459048
415 10.9398
420 190.506
425 304.711
430 80.3936
435 10.4689
440 2.46005
445 1.74298
450 2.39357
455 2.80696
460 3.21815
465 3.81088
470 4.18688
475 4.93133
480 6.27879
485 7.65225
490 7.03634
495 6.58032
500 6.2797
505 6.12911
510 5.58854
515 5.38458
520 5.02762
525 4.63628
530 4.35599
535 3.98751
540 3.93598
545 3.60107
550 3.27282
555 2.88183
560 2.61763
565 2.18451
570 2.02177
575 1.44234
580 1.14183
585 0.992198
590 0.783247
595 0.660697
600 0.710077
Ex : 433
200 0.0981048
205 0.166129
210 0.144045
215 0.11987
220 0.116078
225 0.140277
230 0.113368
235 0.114552
240 0.0765747
245 0.109209
250 0.140961
255 0.152495
260 0.116639
265 0.184044
270 0.139909
275 0.149642
280 0.142496
285 0.144911
290 0.182081
295 0.160602
300 0.166143
305 0.107676
310 0.141519
315 0.125604
320 0.160959
325 0.118115
330 0.170266
335 0.181988
340 0.118006
345 0.181426
350 0.191255
355 0.0882081
360 0.164225
365 0.153055
370 0.181043
375 0.142502
380 0.16115
385 0.175623
390 0.165965
395 0.210592
400 0.220567
405 0.296091
410 0.376896
415 0.485635
420 12.0216
425 202.211
430 310.196
435 79.2561
440 10.5031
445 2.59667
450 1.97737
455 2.66372
460 3.04297
465 3.23222
470 3.71839
475 3.99169
480 4.50094
485 5.15061
490 7.17046
495 6.98401
500 6.1436
505 5.84159
510 5.12812
515 4.81305
520 4.55347
525 4.199
530 3.92898
535 3.58422
540 3.25049
545 3.11463
550 2.90999
555 2.56437
560 2.24917
565 2.00768
570 1.6766
575 1.43803
580 1.11915
585 0.912837
590 0.691003
595 0.621551
600 0.572017
Ex : 438
200 0.124476
205 0.141037
210 0.102824
215 0.124128
220 0.133947
225 0.164103
230 0.111684
235 0.152189
240 0.120523
245 0.172653
250 0.152141
255 0.160988
260 0.169532
265 0.143551
270 0.146521
275 0.109958
280 0.107393
285 0.115284
290 0.106967
295 0.112636
300 0.134129
305 0.141975
310 0.180132
315 0.156745
320 0.14315
325 0.121478
330 0.159414
335 0.137902
340 0.171688
345 0.120393
350 0.17004
355 0.156569
360 0.126596
365 0.140646
370 0.178842
375 0.121729
380 0.172131
385 0.155198
390 0.195227
395 0.208607
400 0.208479
405 0.235251
410 0.243796
415 0.339988
420 0.527275
425 11.5093
430 207.904
435 330.903
440 83.2725
445 10.9845
450 2.93152
455 2.14031
460 2.64244
465 3.08286
470 3.33714
475 3.37561
480 3.70253
485 3.90431
490 4.49663
495 6.1122
500 6.58082
505 5.31881
510 5.00294
515 4.8924
520 3.98196
525 3.79139
530 3.39744
535 3.38919
540 2.93515
545 2.82464
550 2.74631
555 2.32028
560 2.00302
565 1.89919
570 1.60405
575 1.23455
580 1.03632
585 0.856655
590 0.714277
595 0.57159
600 0.138895
Ex : 443
200 0.0945538
205 0.092209
210 0.115414
215 0.124896
220 0.164281
225 0.118378
230 0.204065
235 0.159834
240 0.165108
245 0.153441
250 0.122353
255 0.1114
260 0.0855758
265 0.14587
270 0.126078
275 0.170215
280 0.147186
285 0.188442
290 0.174223
295 0.166612
300 0.181242
305 0.178014
310 0.192771
315 0.121424
320 0.143066
325 0.131565
330 0.204786
335 0.17664
340 0.149401
345 0.162401
350 0.184981
355 0.207041
360 0.164541
365 0.143747
370 0.150104
375 0.221584
380 0.192868
385 0.171658
390 0.161193
395 0.218823
400 0.195777
405 0.205257
410 0.212174
415 0.350663
420 0.357688
425 0.521361
430 13.6642
435 223.013
440 343.929
445 85.5758
450 11.2732
455 2.9403
460 2.13257
465 2.60674
470 3.02957
475 3.1719
480 3.27196
485 3.49932
490 3.75695
495 3.86032
500 4.92468
505 5.59904
510 4.76628
515 4.13764
520 4.06637
525 3.54992
530 3.19023
535 2.75769
540 2.73079
545 2.36212
550 2.08958
555 2.16233
560 1.78986
565 1.58282
570 1.41353
575 1.14939
580 0.856509
585 0.751185
590 0.645986
595 0.465373
600 0.476794
Ex : 448
200 0.118297
205 0.116524
210 0.179657
215 0.147126
220 0.122772
225 0.164743
230 0.176765
235 0.159168
240 0.167985
245 0.175667
250 0.175228
255 0.173326
260 0.120317
265 0.137121
270 0.131047
275 0.154806
280 0.170359
285 0.133303
290 0.114701
295 0.170412
300 0.147258
305 0.163948
310 0.184944
315 0.178392
320 0.139165
325 0.120012
330 0.144973
335 0.131599
340 0.114036
345 0.229921
350 0.139607
355 0.160797
360 0.148491
365 0.109684
370 0.16887
375 0.181641
380 0.173325
385 0.163198
390 0.174346
395 0.142428
400 0.198494
405 0.16689
410 0.178996
415 0.248309
420 0.262802
425 0.334483
430 0.5235
435 13.5997
440 234.166
445 354.447
450 88.3648
455 11.723
460 3.05598
465 2.24588
470 2.43927
475 2.83393
480 2.77925
485 2.78651
490 2.77153
495 2.75581
500 3.05904
505 3.88198
510 4.83705
515 4.15027
520 3.45665
525 3.41259
530 2.83572
535 2.50381
540 2.21999
545 1.9603
550 2.14809
555 1.86853
560 1.61174
565 1.49728
570 1.20354
575 1.02033
580 0.937702
585 0.769034
590 0.608805
595 0.506918
600 0.0813965
Ex : 453
200 0.113552
205 0.123322
210 0.180949
215 0.152745
220 0.137449
225 0.161375
230 0.122168
235 0.107426
240 0.114805
245 0.133557
250 0.161168
255 0.137453
260 0.10763
265 0.114698
270 0.167988
275 0.1257
280 0.141115
285 0.119156
290 0.102052
295 0.174949
300 0.127392
305 0.114306
310 0.109618
315 0.149472
320 0.14008
325 0.138952
330 0.208934
335 0.128164
340 0.141788
345 0.149561
350 0.112356
355 0.10796
360 0.12548
365 0.122741
370 0.112642
375 0.159818
380 0.146704
385 0.170332
390 0.168636
395 0.159868
400 0.156672
405 0.192301
410 0.178237
415 0.200013
420 0.267585
425 0.219038
430 0.410261
435 0.487549
440 14.0449
445 258.749
450 379.983
455 88.4409
460 11.6439
465 3.05273
470 1.90935
475 2.03884
480 2.46896
485 2.37612
490 2.3478
495 2.32446
500 2.35095
505 2.34018
510 2.88134
515 3.98055
520 3.9244
525 3.11463
530 2.76751
535 2.50525
540 1.96703
545 1.86308
550 1.79698
555 1.55466
560 1.42262
565 1.21796
570 1.07051
575 0.925819
580 0.798119
585 0.679207
590 0.555305
595 0.496773
600 0.229313
Ex : 458
200 0.141987
205 0.111638
210 0.143837
215 0.183695
220 0.14873
225 0.113253
230 0.13872
235 0.118594
240 0.130543
245 0.150443
250 0.16597
255 0.135469
260 0.121218
265 0.137306
270 0.15845
275 0.179579
280 0.109616
285 0.106874
290 0.127123
295 0.135607
300 0.0882059
305 0.147348
310 0.148656
315 0.131774
320 0.165409
325 0.165659
330 0.194755
335 0.0967487
340 0.130064
345 0.178287
350 0.14618
355 0.165931
360 0.167898
365 0.156578
370 0.144409
375 0.199874
380 0.188237
385 0.143644
390 0.152642
395 0.248566
400 0.157198
405 0.218267
410 0.24117
415 0.173091
420 0.201669
425 0.287234
430 0.297193
435 0.388852
440 0.607247
445 16.6298
450 264.719
455 397.788
460 96.7845
465 12.542
470 2.86971
475 1.73144
480 1.68852
485 2.17577
490 2.1162
495 1.8429
500 1.91836
505 1.88879
510 2.04871
515 2.155
520 3.02273
525 3.87633
530 2.79768
535 2.36972
540 2.20376
545 2.0163
550 1.5062
555 1.49207
560 1.31536
565 1.10604
570 1.08406
575 0.835286
580 0.691711
585 0.622933
590 0.593842
595 0.437907
600 0.418125
Ex : 463
200 0.115117
205 0.148983
210 0.104871
215 0.149788
220 0.135141
225 0.147139
230 0.144674
235 0.131427
240 0.110729
245 0.149351
250 0.162518
255 0.120793
260 0.0932695
265 0.127083
270 0.126294
275 0.135714
280 0.136539
285 0.106331
290 0.146293
295 0.13525
300 0.151312
305 0.112236
310 0.134196
315 0.128416
320 0.120701
325 0.125983
330 0.107614
335 0.154864
340 0.115983
345 0.169954
350 0.123783
355 0.185762
360 0.181094
365 0.145137
370 0.16373
375 0.146167
380 0.163355
385 0.112794
390 0.102425
395 0.148229
400 0.117629
405 0.161645
410 0.194618
415 0.225075
420 0.275692
425 0.209585
430 0.246702
435 0.276739
440 0.325727
445 0.591364
450 15.7326
455 277.308
460 431.192
465 104.862
470 13.3811
475 2.80218
480 1.72789
485 1.66956
490 1.81032
495 1.91536
500 1.69074
505 1.62299
510 1.66488
515 1.58273
520 1.92274
525 2.50964
530 3.67312
535 2.93799
540 2.17124
545 2.0612
550 1.78425
555 1.45632
560 1.3623
565 1.23582
570 1.07543
575 0.885032
580 0.766253
585 0.550551
590 0.438019
595 0.427562
600 0.408507
Ex : 468
200 0.123691
205 0.0828223
210 0.107692
215 0.1468
220 0.1039
225 0.0801481
230 0.131136
235 0.13739
240 0.122169
245 0.100449
250 0.101544
255 0.106911
260 0.100873
265 0.116029
270 0.108375
275 0.111083
280 0.128965
285 0.180365
290 0.112718
295 0.156214
300 0.165448
305 0.116523
310 0.111346
315 0.120706
320 0.131112
325 0.0986857
330 0.110177
335 0.132657
340 0.134626
345 0.204354
350 0.144869
355 0.160022
360 0.16331
365 0.163094
370 0.197638
375 0.10059
380 0.160736
385 0.153195
390 0.139678
395 0.133209
400 0.134133
405 0.12973
410 0.147002
415 0.162566
420 0.171367
425 0.153811
430 0.236095
435 0.265309
440 0.257084
445 0.407602
450 0.583937
455 17.5115
460 288.912
465 457.527
470 109.065
475 13.6218
480 2.92193
485 1.56608
490 1.39129
495 1.66898
500 1.73675
505 1.66524
510 1.49694
515 1.4793
520 1.62459
525 1.58457
530 1.7741
535 2.81388
540 2.99531
545 2.03357
550 1.78358
555 1.65782
560 1.46117
565 1.09777
570 1.0378
575 0.770508
580 0.752219
585 0.580979
590 0.495774
595 0.461234
600 1.17951
Ex : 473
200 0.0852405
205 0.144876
210 0.149106
215 0.138268
220 0.118194
225 0.101978
230 0.136619
235 0.178591
240 0.112081
245 0.12198
250 0.136129
255 0.112314
260 0.114296
265 0.202885
270 0.103457
275 0.175627
280 0.132518
285 0.150841
290 0.154915
295 0.108625
300 0.174519
305 0.121515
310 0.170562
315 0.148649
320 0.200165
325 0.139812
330 0.11
335 0.150125
340 0.126398
345 0.195899
350 0.152066
355 0.150318
360 0.132625
365 0.157088
370 0.161662
375 0.137577
380 0.145978
385 0.162457
390 0.162922
395 0.157532
400 0.148937
405 0.140342
410 0.166438
415 0.206582
420 0.179441
425 0.208502
430 0.141088
435 0.162614
440 0.185932
445 0.216788
450 0.399574
455 0.641282
460 20.8793
465 320.116
470 456.414
475 105.214
480 13.302
485 2.89868
490 1.57437
495 1.30734
500 1.5325
505 1.65462
510 1.59947
515 1.46539
520 1.35506
525 1.43188
530 1.55982
535 1.59092
540 2.49105
545 2.88595
550 2.21346
555 1.80435
560 1.58606
565 1.31115
570 0.97757
575 0.782771
580 0.672758
585 0.574028
590 0.464863
595 0.430776
600 0.200574
Ex : 478
200 0.149809
205 0.154042
210 0.187174
215 0.147932
220 0.165081
225 0.170596
230 0.140372
235 0.113012
240 0.19315
245 0.22694
250 0.158529
255 0.129807
260 0.205396
265 0.130173
270 0.190907
275 0.14788
280 0.157837
285 0.163986
290 0.207035
295 0.191382
300 0.142638
305 0.233883
310 0.136908
315 0.178902
320 0.135066
325 0.127976
330 0.161725
335 0.19481
340 0.140349
345 0.191353
350 0.146823
355 0.155082
360 0.131841
365 0.216787
370 0.114166
375 0.169411
380 0.153668
385 0.168689
390 0.179995
395 0.199681
400 0.198765
405 0.181736
410 0.222777
415 0.171224
420 0.184032
425 0.211367
430 0.171841
435 0.215753
440 0.260314
445 0.243208
450 0.27347
455 0.467733
460 0.73184
465 23.4046
470 335.4
475 475.242
480 114.727
485 14.3423
490 2.86963
495 1.51356
500 1.27912
505 1.29983
510 1.61163
515 1.51423
520 1.41492
525 1.62924
530 1.50359
535 1.50372
540 1.51895
545 1.85677
550 2.69317
555 2.20328
560 1.52442
565 1.4678
570 1.40089
575 1.02194
580 0.903461
585 0.618904
590 0.596346
595 0.454343
600 0.0517025
Ex : 483
200 0.165659
205 0.145695
210 0.134288
215 0.173978
220 0.133591
225 0.162681
230 0.169566
235 0.163699
240 0.14034
245 0.135162
250 0.164311
255 0.121201
260 0.144201
265 0.1594
270 0.132331
275 0.239247
280 0.0911157
285 0.148363
290 0.140463
295 0.154696
300 0.188657
305 0.175734
310 0.208572
315 0.143295
320 0.16837
325 0.180408
330 0.179584
335 0.245208
340 0.150534
345 0.269268
350 0.1682
355 0.148802
360 0.186862
365 0.204133
370 0.164678
375 0.263303
380 0.152071
385 0.156512
390 0.183316
395 0.156332
400 0.181589
405 0.239284
410 0.167215
415 0.180016
420 0.18729
425 0.174975
430 0.254172
435 0.19516
440 0.203161
445 0.222419
450 0.279488
455 0.352474
460 0.436219
465 0.674531
470 18.4276
475 334.877
480 518.986
485 124.42
490 15.4896
495 2.93515
500 1.39007
505 1.17846
510 1.42996
515 1.6386
520 1.5139
525 1.38344
530 1.27332
535 1.41473
540 1.35232
545 1.32058
550 1.48087
555 2.20958
560 2.279
565 1.67148
570 1.24004
575 1.11323
580 0.790181
585 0.61532
590 0.498038
595 0.454817
600 0.076288
Ex : 488
200 0.178689
205 0.26836
210 0.131621
215 0.169671
220 0.189616
225 0.210278
230 0.180967
235 0.132819
240 0.201641
245 0.153179
250 0.159341
255 0.159066
260 0.133034
265 0.172427
270 0.145495
275 0.145928
280 0.181167
285 0.154448
290 0.218659
295 0.177107
300 0.137035
305 0.189642
310 0.259479
315 0.231486
320 0.213725
325 0.169566
330 0.131472
335 0.149279
340 0.132622
345 0.120788
350 0.155743
355 0.196025
360 0.169817
365 0.164886
370 0.188139
375 0.138504
380 0.218192
385 0.218755
390 0.192573
395 0.158247
400 0.267643
405 0.208103
410 0.184293
415 0.223883
420 0.196102
425 0.235433
430 0.244133
435 0.253573
440 0.29851
445 0.238615
450 0.242236
455 0.357376
460 0.381121
465 0.606833
470 0.802728
475 23.8586
480 372.391
485 526.333
490 124.427
495 15.5029
500 2.82139
505 1.50435
510 1.17795
515 1.49942
520 1.57179
525 1.54456
530 1.46414
535 1.30735
540 1.2157
545 1.3193
550 1.28218
555 1.27982
560 1.84191
565 2.2652
570 1.5284
575 1.10919
580 0.943703
585 0.757914
590 0.694229
595 0.495564
600 0.606451
Ex : 493
200 0.183761
205 0.188257
210 0.136983
215 0.14773
220 0.216994
225 0.179207
230 0.165796
235 0.194059
240 0.1964
245 0.191407
250 0.178496
255 0.142926
260 0.147527
265 0.181242
270 0.225547
275 0.148472
280 0.192208
285 0.18026
290 0.153816
295 0.156272
300 0.201579
305 0.183906
310 0.189435
315 0.13114
320 0.26308
325 0.19601
330 0.153907
335 0.218575
340 0.238823
345 0.162357
350 0.146444
355 0.159484
360 0.277766
365 0.230651
370 0.193888
375 0.178575
380 0.165622
385 0.183383
390 0.153317
395 0.184232
400 0.162987
405 0.168575
410 0.22205
415 0.215497
420 0.231394
425 0.243982
430 0.212262
435 0.217401
440 0.258638
445 0.297404
450 0.283036
455 0.287116
460 0.294133
465 0.402541
470 0.49293
475 0.723718
480 21.2143
485 369.379
490 558.617
495 126.464
500 15.5859
505 2.96036
510 1.4942
515 1.18589
520 1.44626
525 1.49982
530 1.494
535 1.51167
540 1.22835
545 1.23623
550 1.12013
555 1.0954
560 1.05357
565 1.27826
570 1.7654
575 1.62378
580 1.05767
585 0.805948
590 0.70485
595 0.535228
600 0.181297
Ex : 498
200 0.31015
205 0.283836
210 0.271932
215 0.209754
220 0.215335
225 0.20835
230 0.25425
235 0.172104
240 0.215886
245 0.246451
250 0.17835
255 0.190177
260 0.192394
265 0.194842
270 0.180026
275 0.191407
280 0.200541
285 0.200893
290 0.124925
295 0.134904
300 0.204457
305 0.210268
310 0.229999
315 0.218996
320 0.173272
325 0.288548
330 0.181647
335 0.190731
340 0.148951
345 0.231438
350 0.249616
355 0.232309
360 0.222073
365 0.171505
370 0.165758
375 0.205105
380 0.226283
385 0.220119
390 0.175845
395 0.238903
400 0.209874
405 0.195944
410 0.251087
415 0.20496
420 0.23736
425 0.194306
430 0.279359
435 0.236682
440 0.224858
445 0.265574
450 0.285016
455 0.204357
460 0.307523
465 0.500046
470 0.467615
475 0.524409
480 0.82304
485 26.2196
490 401.845
495 556.009
500 129.381
505 16.0903
510 3.1081
515 1.48178
520 1.24002
525 1.31214
530 1.63523
535 1.46023
540 1.36294
545 1.13802
550 1.12918
555 0.971019
560 0.965027
565 0.933566
570 1.0743
575 1.40931
580 1.35273
585 0.992543
590 0.728261
595 0.61217
600 0.322864
Ex : 503
200 0.264141
205 0.242202
210 0.206185
215 0.187291
220 0.166097
225 0.199235
230 0.189622
235 0.180339
240 0.209767
245 0.177726
250 0.28411
255 0.22485
260 0.20872
265 0.186253
270 0.152325
275 0.281783
280 0.219123
285 0.185723
290 0.162198
295 0.203487
300 0.176545
305 0.246581
310 0.234603
315 0.192074
320 0.210236
325 0.147211
330 0.247465
335 0.150573
340 0.217742
345 0.204249
350 0.224072
355 0.138196
360 0.192855
365 0.222147
370 0.187166
375 0.179371
380 0.187355
385 0.235393
390 0.192056
395 0.248808
400 0.295993
405 0.26229
410 0.262724
415 0.236129
420 0.298538
425 0.21903
430 0.194693
435 0.258626
440 0.305008
445 0.289887
450 0.246497
455 0.288803
460 0.29321
465 0.282338
470 0.421509
475 0.462884
480 0.651877
485 0.843609
490 25.8284
495 427.662
500 598.472
505 136.04
510 16.9627
515 3.05967
520 1.58138
525 1.1919
530 1.13012
535 1.53329
540 1.57426
545 1.32706
550 1.09505
555 1.20241
560 1.00983
565 0.969953
570 0.89203
575 0.894625
580 1.07298
585 1.21596
590 0.936096
595 0.707988
600 0.600473
Ex : 508
200 0.215062
205 0.167864
210 0.149283
215 0.195813
220 0.178592
225 0.20563
230 0.225164
235 0.253623
240 0.22838
245 0.304383
250 0.200946
255 0.221826
260 0.228531
265 0.228859
270 0.230975
275 0.243121
280 0.186327
285 0.190325
290 0.20418
295 0.230042
300 0.189431
305 0.211686
310 0.200132
315 0.146644
320 0.243882
325 0.208603
330 0.216671
335 0.214537
340 0.267047
345 0.249333
350 0.229142
355 0.245526
360 0.204372
365 0.338265
370 0.255353
375 0.235739
380 0.30909
385 0.237827
390 0.193783
395 0.22384
400 0.221645
405 0.272268
410 0.250261
415 0.237876
420 0.203866
425 0.196539
430 0.246223
435 0.281648
440 0.226819
445 0.263289
450 0.272525
455 0.329786
460 0.227408
465 0.385218
470 0.349531
475 0.343889
480 0.482717
485 0.610475
490 0.863762
495 26.6543
500 419.085
505 598.557
510 143.402
515 17.8047
520 3.31469
525 1.60775
530 1.29595
535 1.3083
540 1.41339
545 1.39543
550 1.24846
555 1.16108
560 1.00924
565 0.793693
570 0.760029
575 0.707274
580 0.688757
585 0.676152
590 1.02002
595 0.906841
600 0.683256
Ex : 513
200 0.211931
205 0.246558
210 0.257744
215 0.205304
220 0.228664
225 0.172333
230 0.183413
235 0.165956
240 0.234676
245 0.211335
250 0.21643
255 0.209968
260 0.199077
265 0.226768
270 0.173655
275 0.28716
280 0.196738
285 0.213281
290 0.190217
295 0.199879
300 0.285721
305 0.255398
310 0.188265
315 0.233081
320 0.29312
325 0.18561
330 0.184233
335 0.238472
340 0.222317
345 0.190723
350 0.261762
355 0.237695
360 0.257361
365 0.231121
370 0.200006
375 0.278652
380 0.200322
385 0.195055
390 0.269255
395 0.205558
400 0.258531
405 0.242394
410 0.245439
415 0.291876
420 0.274115
425 0.246665
430 0.276135
435 0.253346
440 0.229374
445 0.251837
450 0.257787
455 0.344485
460 0.297084
465 0.394347
470 0.298147
475 0.306492
480 0.444322
485 0.447983
490 0.660107
495 0.847578
500 25.2239
505 425.272
510 619.947
515 149.898
520 18.5539
525 3.34686
530 1.79092
535 1.37245
540 1.20683
545 1.38463
550 1.18467
555 1.16563
560 1.00282
565 0.957512
570 0.693876
575 0.796217
580 0.713259
585 0.555053
590 0.588512
595 0.718903
600 0.744391
Ex : 518
200 0.195647
205 0.165233
210 0.373101
215 0.233415
220 0.269206
225 0.242533
230 0.27098
235 0.27758
240 0.229705
245 0.179498
250 0.334547
255 0.36999
260 0.231359
265 0.200942
270 0.190708
275 0.245994
280 0.194067
285 0.329316
290 0.213965
295 0.204484
300 0.250157
305 0.261102
310 0.222095
315 0.244764
320 0.233452
325 0.242895
330 0.241159
335 0.197347
340 0.230049
345 0.220549
350 0.209466
355 0.216942
360 0.26429
365 0.226739
370 0.274709
375 0.2774
380 0.214391
385 0.191095
390 0.23413
395 0.313563
400 0.268171
405 0.272485
410 0.265543
415 0.313819
420 0.242442
425 0.26917
430 0.27485
435 0.283621
440 0.21084
445 0.234258
450 0.267934
455 0.269571
460 0.366597
465 0.234778
470 0.333433
475 0.328577
480 0.317993
485 0.451432
490 0.507962
495 0.537139
500 0.867615
505 25.584
510 415.203
515 630.527
520 154.343
525 19.0747
530 3.25641
535 1.47274
540 1.14045
545 1.16088
550 1.12936
555 1.10518
560 1.0748
565 0.903948
570 0.834674
575 0.654163
580 0.615439
585 0.543105
590 0.536977
595 0.566749
600 0.194694
Ex : 523
200 0.161056
205 0.160288
210 0.17572
215 0.119647
220 0.310794
225 0.245019
230 0.3485
235 0.359784
240 0.221233
245 0.305169
250 0.337059
255 0.23131
260 0.248474
265 0.203509
270 0.240079
275 0.200921
280 0.332387
285 0.233629
290 0.244245
295 0.172777
300 0.260837
305 0.234029
310 0.2311
315 0.170744
320 0.228047
325 0.304358
330 0.330839
335 0.338457
340 0.306808
345 0.274627
350 0.242557
355 0.25044
360 0.245094
365 0.277685
370 0.26865
375 0.194761
380 0.22479
385 0.262877
390 0.202622
395 0.273797
400 0.25127
405 0.233102
410 0.261975
415 0.409628
420 0.261631
425 0.256734
430 0.247438
435 0.23003
440 0.314827
445 0.312923
450 0.24763
455 0.337211
460 0.288645
465 0.298056
470 0.340495
475 0.319631
480 0.338497
485 0.483087
490 0.385523
495 0.629752
500 0.694294
505 0.841551
510 24.4777
515 409.11
520 628.261
525 159.812
530 19.6581
535 3.29159
540 1.44819
545 1.13505
550 1.05911
555 0.973064
560 0.994644
565 0.990047
570 0.851482
575 0.742413
580 0.503671
585 0.506539
590 0.504983
595 0.518136
600 0.384772
Ex : 528
200 0.229406
205 0.289132
210 0.215812
215 0.262573
220 0.224938
225 0.1912
230 0.263724
235 0.164572
240 0.269428
245 0.206151
250 0.216433
255 0.182667
260 0.201537
265 0.370592
270 0.240628
275 0.198446
280 0.335921
285 0.247541
290 0.211264
295 0.201498
300 0.213745
305 0.200102
310 0.246849
315 0.250649
320 0.398531
325 0.26065
330 0.324955
335 0.300977
340 0.253864
345 0.249604
350 0.281159
355 0.306229
360 0.20518
365 0.271684
370 0.221571
375 0.230558
380 0.254434
385 0.202875
390 0.290943
395 0.187502
400 0.296806
405 0.270434
410 0.217604
415 0.295562
420 0.254646
425 0.250824
430 0.235371
435 0.307736
440 0.282389
445 0.354615
450 0.263796
455 0.250224
460 0.301302
465 0.285513
470 0.27378
475 0.2139
480 0.296637
485 0.317077
490 0.356856
495 0.484087
500 0.487503
505 0.655734
510 0.854484
515 23.37
520 404.957
525 638.796
530 159.458
535 19.5445
540 3.35454
545 1.30717
550 1.08236
555 0.967673
560 0.906005
565 0.791089
570 0.886539
575 0.642861
580 0.631908
585 0.472417
590 0.553909
595 0.427515
600 0.641724
Ex : 533
200 0.330642
205 0.180612
210 0.212761
215 0.2695
220 0.242337
225 0.220033
230 0.259209
235 0.241425
240 0.224198
245 0.287819
250 0.192859
255 0.328461
260 0.249398
265 0.208129
270 0.184004
275 0.245462
280 0.227415
285 0.234306
290 0.166543
295 0.288477
300 0.225384
305 0.195179
310 0.257163
315 0.271955
320 0.195755
325 0.304947
330 0.266895
335 0.263648
340 0.277168
345 0.239523
350 0.235151
355 0.317446
360 0.257731
365 0.172121
370 0.174208
375 0.200932
380 0.305651
385 0.19595
390 0.303665
395 0.316464
400 0.225183
405 0.271189
410 0.345933
415 0.236672
420 0.297794
425 0.236003
430 0.277706
435 0.340385
440 0.230688
445 0.237072
450 0.202793
455 0.292183
460 0.222092
465 0.31382
470 0.421456
475 0.354736
480 0.285883
485 0.317372
490 0.434251
495 0.474602
500 0.433013
505 0.51869
510 0.689471
515 0.913594
520 23.2313
525 400.388
530 623.103
535 161.959
540 19.865
545 3.25197
550 1.26901
555 0.948198
560 0.732517
565 0.810376
570 0.735432
575 0.680232
580 0.437223
585 0.669466
590 0.477455
595 0.420216
600 0.228772
Ex : 538
200 0.208697
205 0.244553
210 0.207263
215 0.23397
220 0.296659
225 0.223578
230 0.177674
235 0.287843
240 0.241516
245 0.234088
250 0.24038
255 0.299485
260 0.205195
265 0.221896
270 0.275109
275 0.236627
280 0.252899
285 0.176595
290 0.188381
295 0.239901
300 0.269752
305 0.319034
310 0.268
315 0.252996
320 0.27251
325 0.26427
330 0.40235
335 0.241284
340 0.301652
345 0.264694
350 0.285011
355 0.22244
360 0.287031
365 0.192592
370 0.359752
375 0.259627
380 0.297635
385 0.300132
390 0.254418
395 0.202482
400 0.28348
405 0.298155
410 0.281156
415 0.340484
420 0.29052
425 0.31652
430 0.338004
435 0.288058
440 0.271639
445 0.270781
450 0.372993
455 0.306972
460 0.268905
465 0.304904
470 0.333979
475 0.341781
480 0.352484
485 0.328327
490 0.297505
495 0.35089
500 0.493326
505 0.433398
510 0.409289
515 0.609586
520 1.09365
525 19.635
530 378.98
535 634.203
540 170.793
545 20.7698
550 3.45556
555 1.12142
560 0.918132
565 0.562739
570 0.533501
575 0.656459
580 0.579486
585 0.638548
590 0.379591
595 0.386739
600 0.530458
Ex : 543
200 0.318546
205 0.233015
210 0.209177
215 0.222243
220 0.268903
225 0.215202
230 0.307956
235 0.227488
240 0.1877
245 0.287893
250 0.286934
255 0.266264
260 0.322109
265 0.283833
270 0.209375
275 0.259765
280 0.279659
285 0.329109
290 0.244512
295 0.298566
300 0.264818
305 0.221095
310 0.242446
315 0.351891
320 0.324287
325 0.300403
330 0.288921
335 0.215304
340 0.250193
345 0.229678
350 0.253536
355 0.304938
360 0.264139
365 0.283427
370 0.230834
375 0.232561
380 0.307501
385 0.452002
390 0.253545
395 0.334951
400 0.248174
405 0.215875
410 0.276119
415 0.370319
420 0.302069
425 0.269134
430 0.361715
435 0.273979
440 0.269644
445 0.285486
450 0.350437
455 0.324221
460 0.263335
465 0.226638
470 0.300807
475 0.273476
480 0.298515
485 0.357913
490 0.454055
495 0.449174
500 0.347655
505 0.348949
510 0.426201
515 0.432667
520 0.653305
525 0.933743
530 17.7823
535 367.726
540 630.158
545 174.366
550 21.3395
555 3.36316
560 1.06717
565 0.829203
570 0.611528
575 0.55942
580 0.519713
585 0.629079
590 0.481285
595 0.471356
600 0.321447
Ex : 548
200 0.274135
205 0.279965
210 0.280083
215 0.281868
220 0.267443
225 0.306751
230 0.228121
235 0.305909
240 0.239004
245 0.310234
250 0.422015
255 0.311398
260 0.245973
265 0.298866
270 0.246242
275 0.290011
280 0.318247
285 0.317838
290 0.322985
295 0.267796
300 0.284193
305 0.287936
310 0.320421
315 0.253252
320 0.298707
325 0.289406
330 0.272487
335 0.294722
340 0.285463
345 0.299027
350 0.331685
355 0.253683
360 0.339112
365 0.205078
370 0.357469
375 0.357276
380 0.318672
385 0.329807
390 0.347098
395 0.274616
400 0.381026
405 0.324153
410 0.264748
415 0.224913
420 0.25648
425 0.335527
430 0.306525
435 0.242178
440 0.319538
445 0.302163
450 0.342199
455 0.397958
460 0.399671
465 0.314831
470 0.250803
475 0.345467
480 0.309454
485 0.323437
490 0.316321
495 0.304096
500 0.357322
505 0.342176
510 0.334823
515 0.448325
520 0.486597
525 0.6336
530 0.798486
535 20.0448
540 370.696
545 614.669
550 169.631
555 20.7131
560 3.28863
565 1.05443
570 0.74465
575 0.526321
580 0.503298
585 0.647551
590 0.518791
595 0.57363
600 0.616025
Ex : 553
200 0.35448
205 0.369344
210 0.333332
215 0.232291
220 0.284926
225 0.233912
230 0.267091
235 0.265527
240 0.35683
245 0.276095
250 0.212175
255 0.180198
260 0.220989
265 0.298277
270 0.282892
275 0.28223
280 0.270829
285 0.366237
290 0.208639
295 0.294274
300 0.261976
305 0.245647
310 0.255593
315 0.240163
320 0.360138
325 0.394992
330 0.333065
335 0.31838
340 0.228457
345 0.430066
350 0.342271
355 0.239901
360 0.289012
365 0.294958
370 0.32108
375 0.282111
380 0.341348
385 0.272463
390 0.341152
395 0.210116
400 0.294391
405 0.416462
410 0.355518
415 0.34616
420 0.349725
425 0.325058
430 0.254509
435 0.297335
440 0.24489
445 0.255614
450 0.278902
455 0.341797
460 0.36288
465 0.341574
470 0.304918
475 0.412172
480 0.356782
485 0.454736
490 0.357224
495 0.280132
500 0.253179
505 0.370975
510 0.37019
515 0.452567
520 0.466784
525 0.573081
530 0.634134
535 0.791092
540 17.2456
545 353.127
550 618.518
555 174.038
560 21.0631
565 3.00194
570 1.01158
575 0.600183
580 0.495419
585 0.455873
590 0.456597
595 0.489229
600 0.812314
Ex : 558
200 0.241567
205 0.232157
210 0.296239
215 0.252633
220 0.340947
225 0.320807
230 0.267047
235 0.323652
240 0.324289
245 0.32057
250 0.36392
255 0.264412
260 0.27501
265 0.275615
270 0.287387
275 0.390155
280 0.272231
285 0.25464
290 0.248286
295 0.394697
300 0.200664
305 0.315113
310 0.393587
315 0.242023
320 0.33465
325 0.31482
330 0.294985
335 0.321817
340 0.374033
345 0.418494
350 0.227957
355 0.300494
360 0.299928
365 0.31324
370 0.291769
375 0.372373
380 0.3083
385 0.234431
390 0.316719
395 0.288875
400 0.316099
405 0.389556
410 0.345121
415 0.227244
420 0.354526
425 0.398621
430 0.31795
435 0.292883
440 0.249062
445 0.285901
450 0.271783
455 0.272713
460 0.33331
465 0.305914
470 0.366751
475 0.356451
480 0.359765
485 0.380263
490 0.290493
495 0.358156
500 0.364079
505 0.355919
510 0.384324
515 0.332114
520 0.357406
525 0.489671
530 0.619741
535 0.899342
540 0.707044
545 16.4766
550 343.881
555 606.313
560 171.848
565 20.8883
570 3.12001
575 0.984868
580 0.611221
585 0.509434
590 0.663441
595 0.405639
600 1.00219
Ex : 563
200 0.244032
205 0.311854
210 0.313497
215 0.222279
220 0.219616
225 0.344465
230 0.270121
235 0.282086
240 0.308931
245 0.238614
250 0.319769
255 0.268218
260 0.315693
265 0.301548
270 0.272364
275 0.30873
280 0.291147
285 0.295622
290 0.228505
295 0.409405
300 0.417496
305 0.263595
310 0.237417
315 0.26715
320 0.357015
325 0.315188
330 0.391652
335 0.353961
340 0.378735
345 0.273903
350 0.263484
355 0.352997
360 0.27445
365 0.311909
370 0.33147
375 0.380703
380 0.278661
385 0.416058
390 0.229542
395 0.244229
400 0.29847
405 0.353461
410 0.353195
415 0.256426
420 0.354501
425 0.325183
430 0.330583
435 0.367144
440 0.296581
445 0.440757
450 0.330972
455 0.341252
460 0.321324
465 0.337653
470 0.296949
475 0.354974
480 0.386385
485 0.402312
490 0.387341
495 0.310072
500 0.285645
505 0.304655
510 0.348185
515 0.289813
520 0.360269
525 0.623625
530 0.519192
535 0.368844
540 0.53925
545 0.824029
550 16.4026
555 331.327
560 576.649
565 167.516
570 20.2266
575 2.96314
580 0.843709
585 0.76188
590 0.549353
595 0.352212
600 0.686619
Ex : 568
200 0.36988
205 0.44078
210 0.315816
215 0.302153
220 0.400887
225 0.300183
230 0.265665
235 0.279205
240 0.259944
245 0.255921
250 0.246756
255 0.223838
260 0.286785
265 0.221588
270 0.227921
275 0.285839
280 0.309755
285 0.429603
290 0.369026
295 0.422572
300 0.273899
305 0.322886
310 0.289614
315 0.302487
320 0.260863
325 0.324224
330 0.307501
335 0.243751
340 0.398615
345 0.349315
350 0.238681
355 0.265189
360 0.313354
365 0.289403
370 0.280674
375 0.258048
380 0.363009
385 0.297559
390 0.263345
395 0.354547
400 0.317556
405 0.369028
410 0.350049
415 0.287137
420 0.244316
425 0.321519
430 0.26964
435 0.278153
440 0.28044
445 0.276153
450 0.248588
455 0.443951
460 0.361402
465 0.238606
470 0.355829
475 0.422979
480 0.312822
485 0.340747
490 0.331585
495 0.248981
500 0.314435
505 0.407538
510 0.310747
515 0.404079
520 0.481616
525 0.450384
530 0.416435
535 0.444624
540 0.604355
545 0.472952
550 0.768654
555 12.5657
560 296.027
565 562.529
570 172.313
575 20.9063
580 2.93758
585 0.875256
590 0.589492
595 0.518153
600 0.392729
Ex : 573
200 0.181304
205 0.325273
210 0.248475
215 0.240295
220 0.272169
225 0.303563
230 0.354295
235 0.3195
240 0.312806
245 0.309118
250 0.491803
255 0.25472
260 0.289816
265 0.342339
270 0.335803
275 0.427487
280 0.400179
285 0.310993
290 0.355101
295 0.220445
300 0.358561
305 0.29
310 0.390685
315 0.239083
320 0.207859
325 0.338349
330 0.386034
335 0.256303
340 0.265441
345 0.248245
350 0.274136
355 0.3034
360 0.326177
365 0.281088
370 0.286506
375 0.553372
380 0.362034
385 0.337917
390 0.370393
395 0.275714
400 0.333968
405 0.31715
410 0.317347
415 0.348371
420 0.318814
425 0.437331
430 0.414383
435 0.300797
440 0.212418
445 0.2629
450 0.304271
455 0.287786
460 0.299742
465 0.388001
470 0.372293
475 0.414861
480 0.285981
485 0.361193
490 0.288153
495 0.385101
500 0.375288
505 0.344755
510 0.479601
515 0.281374
520 0.267459
525 0.392891
530 0.544558
535 0.391094
540 0.511039
545 0.433276
550 0.530104
555 0.728392
560 10.654
565 264.669
570 515.628
575 160.433
580 19.4525
585 2.88457
590 0.77933
595 0.515894
600 0.417822
Ex : 578
200 0.223077
205 0.289854
210 0.319808
215 0.220855
220 0.213492
225 0.234786
230 0.275881
235 0.199054
240 0.240462
245 0.249926
250 0.28026
255 0.322312
260 0.337601
265 0.279376
270 0.278859
275 0.260063
280 0.357014
285 0.292281
290 0.311893
295 0.336701
300 0.303573
305 0.34484
310 0.379268
315 0.269535
320 0.26537
325 0.3509
330 0.477106
335 0.353788
340 0.377717
345 0.358007
350 0.366169
355 0.304183
360 0.301714
365 0.364401
370 0.381104
375 0.27335
380 0.352786
385 0.286161
390 0.255267
395 0.25509
400 0.276081
405 0.271174
410 0.198897
415 0.383432
420 0.328433
425 0.226679
430 0.293855
435 0.209036
440 0.326468
445 0.311926
450 0.357281
455 0.342411
460 0.299732
465 0.248478
470 0.286193
475 0.323551
480 0.300351
485 0.520008
490 0.373045
495 0.366816
500 0.350187
505 0.331754
510 0.345125
515 0.31731
520 0.364049
525 0.455687
530 0.437355
535 0.35107
540 0.540685
545 0.41856
550 0.43558
555 0.537051
560 0.766824
565 9.80629
570 238.344
575 455.824
580 140.915
585 17.0978
590 2.48291
595 0.734497
600 0.083583
Ex : 583
200 0.263402
205 0.338348
210 0.486805
215 0.290273
220 0.223408
225 0.28333
230 0.282743
235 0.261126
240 0.252781
245 0.302057
250 0.302632
255 0.288969
260 0.270682
265 0.242332
270 0.257673
275 0.243418
280 0.285856
285 0.453725
290 0.312411
295 0.268528
300 0.217941
305 0.262426
310 0.39788
315 0.335257
320 0.277422
325 0.341168
330 0.337975
335 0.347952
340 0.338708
345 0.216971
350 0.365163
355 0.376303
360 0.398041
365 0.361244
370 0.391681
375 0.234085
380 0.31635
385 0.293634
390 0.307461
395 0.279602
400 0.3288
405 0.320165
410 0.385409
415 0.38158
420 0.347039
425 0.356331
430 0.396938
435 0.314729
440 0.283032
445 0.223292
450 0.454753
455 0.338675
460 0.347956
465 0.31647
470 0.349533
475 0.384845
480 0.325185
485 0.419425
490 0.458206
495 0.405615
500 0.478604
505 0.363011
510 0.381416
515 0.289637
520 0.338941
525 0.408301
530 0.301044
535 0.448916
540 0.404855
545 0.416628
550 0.50514
555 0.548718
560 0.437995
565 0.787283
570 8.20323
575 215.842
580 404
585 118.218
590 14.3836
595 2.08891
600 1.18546
Ex : 588
200 0.252439
205 0.387229
210 0.234053
215 0.210317
220 0.280228
225 0.287988
230 0.351713
235 0.222828
240 0.346494
245 0.267828
250 0.343373
255 0.226341
260 0.3126
265 0.264995
270 0.256521
275 0.290927
280 0.257855
285 0.29925
290 0.311126
295 0.30229
300 0.329546
305 0.282989
310 0.316317
315 0.338631
320 0.309043
325 0.323792
330 0.238109
335 0.313849
340 0.316201
345 0.301783
350 0.255469
355 0.242199
360 0.28282
365 0.333929
370 0.297124
375 0.285591
380 0.418038
385 0.309873
390 0.288288
395 0.20323
400 0.30659
405 0.395923
410 0.292706
415 0.470226
420 0.330219
425 0.393831
430 0.310631
435 0.402186
440 0.456607
445 0.414596
450 0.387874
455 0.28164
460 0.211241
465 0.362737
470 0.356009
475 0.314996
480 0.328099
485 0.281791
490 0.317993
495 0.401049
500 0.401375
505 0.279636
510 0.371843
515 0.375313
520 0.323749
525 0.439371
530 0.275629
535 0.352137
540 0.650441
545 0.508344
550 0.408643
555 0.471011
560 0.503761
565 0.650417
570 0.73364
575 7.16886
580 178.489
585 343.002
590 103.627
595 12.5643
600 1.59435
Ex : 593
200 0.348821
205 0.485103
210 0.312498
215 0.459203
220 0.300687
225 0.280828
230 0.419066
235 0.336792
240 0.314549
245 0.397413
250 0.420615
255 0.337594
260 0.260207
265 0.296614
270 0.345856
275 0.358773
280 0.173789
285 0.298016
290 0.229392
295 0.260402
300 0.258238
305 0.354758
310 0.233327
315 0.264667
320 0.337162
325 0.328522
330 0.376878
335 0.39826
340 0.414228
345 0.475483
350 0.22848
355 0.386846
360 0.377944
365 0.362196
370 0.329581
375 0.295588
380 0.320056
385 0.404588
390 0.31666
395 0.25032
400 0.388695
405 0.425556
410 0.437981
415 0.372126
420 0.406003
425 0.392728
430 0.340307
435 0.376281
440 0.341937
445 0.337985
450 0.296791
455 0.417276
460 0.376728
465 0.34837
470 0.308962
475 0.294815
480 0.409654
485 0.395175
490 0.432823
495 0.341675
500 0.390707
505 0.309939
510 0.443941
515 0.398596
520 0.402851
525 0.415709
530 0.447605
535 0.479046
540 0.35669
545 0.3791
550 0.398678
555 0.280196
560 0.428076
565 0.489418
570 0.478225
575 0.597624
580 6.28101
585 162.105
590 306.966
595 93.1349
600 14.2573
Ex : 598
200 0.27994
205 0.354097
210 0.295518
215 0.244765
220 0.230108
225 0.252678
230 0.272333
235 0.255295
240 0.299439
245 0.32069
250 0.297102
255 0.274682
260 0.233886
265 0.368982
270 0.305094
275 0.232986
280 0.241959
285 0.249543
290 0.391865
295 0.300138
300 0.312776
305 0.308386
310 0.283758
315 0.28451
320 0.335926
325 0.508413
330 0.372726
335 0.291068
340 0.298867
345 0.298737
350 0.34694
355 0.285222
360 0.330767
365 0.283325
370 0.420329
375 0.475975
380 0.272427
385 0.205002
390 0.270249
395 0.31485
400 0.344248
405 0.324998
410 0.431075
415 0.460057
420 0.517934
425 0.265786
430 0.363605
435 0.24434
440 0.329281
445 0.343369
450 0.185639
455 0.259352
460 0.383157
465 0.378531
470 0.351689
475 0.3413
480 0.421597
485 0.344546
490 0.402169
495 0.270822
500 0.332918
505 0.339287
510 0.398918
515 0.326538
520 0.340877
525 0.37883
530 0.372977
535 0.29074
540 0.46993
545 0.332021
550 0.466736
555 0.570065
560 0.47901
565 0.511733
570 0.522746
575 0.514767
580 0.634569
585 6.28394
590 142.838
595 265.361
600 167.365
Ex : 603
200 0.348138
205 0.305356
210 0.368273
215 0.453801
220 0.396913
225 0.289139
230 0.260949
235 0.469842
240 0.447605
245 0.370157
250 0.328724
255 0.222416
260 0.30168
265 0.374443
270 0.265289
275 0.468575
280 0.341765
285 0.31646
290 0.388118
295 0.379186
300 0.327145
305 0.330132
310 0.294717
315 0.289641
320 0.272536
325 0.369557
330 0.39773
335 0.427449
340 0.372088
345 0.285887
350 0.314045
355 0.313765
360 0.286779
365 0.278831
370 0.564889
375 0.40635
380 0.323941
385 0.299109
390 0.282418
395 0.258797
400 0.259626
405 0.319272
410 0.342599
415 0.539702
420 0.283314
425 0.268781
430 0.353336
435 0.507441
440 0.385152
445 0.464636
450 0.272128
455 0.298772
460 0.284746
465 0.36284
470 0.495776
475 0.299042
480 0.440142
485 0.487785
490 0.496874
495 0.292863
500 0.379974
505 0.347589
510 0.353738
515 0.407338
520 0.420965
525 0.290464
530 0.317993
535 0.333163
540 0.257808
545 0.303486
550 0.529032
555 0.298367
560 0.408698
565 0.415149
570 0.416998
575 0.431243
580 0.488617
585 0.589337
590 5.51238
595 122.163
600 234.276
