File format V 1.0
ven. 13. janv. 15:35:09 2017
Operator : 
Comments : 

=============================================
SpectroFluorometer parameters
Mode : 3D measurement
Data : Fluorescence
Phospho. : Ordinary
Spectrum : Fluorescence

Scan speed : 2400 nm/mn
Response : 100 ms
PM Voltage : 700 V
Shutter : On

Lambda Ex. Start : 203
Lambda Ex. End : 603
Lambda Ex. Step : 5
Ex. Slit : 5 nm

Lambda Em. Start : 200
Lambda Em. End : 600
Lambda Em. Step : 5
Em. Slit : 5 nm

Repetition : 1
Decal lambda em : 10
=============================================
DATA
Ex : 203
200 6.82407
205 6.36798
210 3.82637
215 8.10876
220 4.66156
225 6.84361
230 5.40433
235 4.22529
240 4.15917
245 6.43828
250 5.65046
255 6.32808
260 5.34132
265 6.30426
270 5.7449
275 5.74436
280 7.83705
285 8.17609
290 6.72732
295 7.54313
300 7.11941
305 10.3917
310 6.95307
315 7.06473
320 7.87693
325 6.69579
330 6.50285
335 6.04909
340 8.77288
345 6.1841
350 6.37795
355 5.12022
360 5.8511
365 3.59382
370 5.39438
375 4.92728
380 5.40876
385 7.71297
390 5.79403
395 4.94193
400 6.32877
405 6.98596
410 7.49767
415 7.40769
420 6.26606
425 4.1307
430 5.85002
435 5.85461
440 5.89246
445 6.48778
450 7.9689
455 5.30714
460 7.30104
465 9.1513
470 5.41565
475 5.88939
480 9.70431
485 6.43373
490 6.36644
495 5.68016
500 4.04485
505 6.37688
510 5.1954
515 9.20923
520 8.10792
525 5.89776
530 6.58333
535 6.42951
540 7.41227
545 6.92089
550 6.58482
555 6.38542
560 6.90926
565 6.87838
570 8.02144
575 4.96106
580 7.59148
585 6.18958
590 7.75564
595 6.57075
600 4.58794
Ex : 208
200 9.25234
205 9.71139
210 6.40956
215 4.68478
220 6.05643
225 6.30903
230 4.57153
235 7.37599
240 4.90493
245 10.3967
250 9.77402
255 6.99577
260 8.32882
265 7.97862
270 5.98641
275 5.1902
280 5.834
285 4.69928
290 5.30725
295 4.4608
300 5.65623
305 6.07629
310 6.36988
315 4.91156
320 4.79658
325 4.02279
330 5.66693
335 6.45305
340 8.10013
345 6.77071
350 8.13705
355 10.1114
360 9.97451
365 7.66475
370 7.76256
375 8.66225
380 7.65259
385 9.35476
390 7.43284
395 7.51653
400 7.64138
405 8.15984
410 10.9227
415 7.97184
420 6.08145
425 6.302
430 5.57613
435 5.07373
440 6.61437
445 6.71586
450 6.08146
455 7.59357
460 6.47532
465 10.3973
470 8.00991
475 6.39616
480 6.30843
485 6.82761
490 6.18074
495 6.15015
500 5.61161
505 6.76816
510 7.01464
515 7.74965
520 7.28672
525 6.04886
530 6.12261
535 4.79906
540 6.88394
545 7.00336
550 8.14289
555 7.76963
560 6.28794
565 6.29341
570 9.64668
575 5.19018
580 5.38805
585 9.17069
590 9.24304
595 6.62404
600 0.75379
Ex : 213
200 7.57991
205 5.89669
210 6.68915
215 6.47702
220 8.98313
225 6.1375
230 10.1791
235 8.93815
240 5.17453
245 5.72126
250 4.64696
255 5.30998
260 5.02351
265 6.39697
270 6.74039
275 5.80266
280 7.0545
285 6.40862
290 5.58771
295 8.3418
300 5.55992
305 8.0082
310 9.19485
315 6.30639
320 3.97633
325 6.84121
330 5.83484
335 6.14579
340 7.3459
345 5.83514
350 7.69173
355 8.56232
360 8.26318
365 5.75172
370 5.76897
375 7.20046
380 6.77434
385 4.39483
390 6.61492
395 8.61424
400 6.04369
405 7.78925
410 4.61256
415 7.03991
420 9.03735
425 4.72842
430 5.71384
435 5.73273
440 10.6865
445 7.57519
450 5.15025
455 7.95913
460 5.87158
465 8.32249
470 7.89427
475 10.5194
480 5.77919
485 8.92336
490 7.46914
495 6.12098
500 6.36422
505 6.12128
510 10.0161
515 4.38112
520 7
525 5.02974
530 4.96576
535 5.6454
540 8.22716
545 4.43652
550 7.82976
555 4.03151
560 5.06104
565 8.01341
570 5.93372
575 4.54474
580 6.14817
585 7.09153
590 5.78878
595 6.03751
600 12.7394
Ex : 218
200 4.9214
205 5.00331
210 8.15085
215 7.53491
220 5.06058
225 4.15429
230 5.8724
235 5.61296
240 4.8482
245 5.69851
250 6.14932
255 6.59675
260 4.74496
265 7.15499
270 9.3701
275 8.25697
280 6.55224
285 5.52613
290 6.65907
295 6.89334
300 6.04552
305 5.03036
310 5.0987
315 4.35335
320 5.75642
325 8.55231
330 5.96021
335 6.27241
340 6.75793
345 5.21653
350 5.23267
355 4.62253
360 6.7823
365 5.48907
370 5.65715
375 5.37154
380 6.03201
385 6.11651
390 6.17439
395 6.53776
400 4.87959
405 5.2546
410 4.54559
415 7.45851
420 7.32762
425 9.68329
430 10.1117
435 8.34071
440 9.42396
445 8.96982
450 8.45996
455 6.79859
460 8.7018
465 6.61345
470 8.46731
475 6.42157
480 7.38131
485 6.19765
490 6.33759
495 10.8215
500 7.23838
505 9.64758
510 10.2676
515 7.0036
520 4.42796
525 4.3091
530 5.51218
535 9.76701
540 6.82472
545 7.52052
550 5.81155
555 9.78684
560 9.31421
565 5.59698
570 6.6677
575 9.02331
580 6.72157
585 5.69823
590 5.56795
595 7.31134
600 4.15527
Ex : 223
200 4.8
205 6.32021
210 7.74524
215 8.48407
220 5.89669
225 7.57929
230 5.04324
235 7.69173
240 7.81598
245 9.20399
250 6.24029
255 5.96878
260 5.11024
265 4.58806
270 6.40219
275 6.22798
280 5.62276
285 6.45709
290 6.95025
295 4.86826
300 6.57212
305 6.59214
310 6.36907
315 4.81526
320 5.88569
325 5.12039
330 5.91647
335 5.52133
340 5.35473
345 6.03784
350 4.51827
355 5.47136
360 9.49578
365 6.14856
370 7.25178
375 3.88445
380 7.08065
385 6.01372
390 8.69797
395 6.30702
400 4.99772
405 6.50432
410 4.99953
415 5.44305
420 7.67724
425 7.27617
430 6.04143
435 6.44382
440 8.59402
445 6.51474
450 6.65205
455 7.02138
460 8.80692
465 7.97658
470 6.95
475 8.92887
480 5.85611
485 6.75194
490 3.60008
495 5.01477
500 4.58063
505 8.73111
510 8.6334
515 6.01078
520 4.77928
525 9.41357
530 9.4234
535 5.87629
540 4.58243
545 5.9851
550 6.85706
555 7.83786
560 5.01277
565 3.49069
570 7.13238
575 6.47226
580 6.02935
585 5.1008
590 8.51987
595 4.86416
600 0.553523
Ex : 228
200 4.82479
205 5.88168
210 7.02104
215 7.70579
220 7.23046
225 6.0514
230 7.11455
235 8.28671
240 7.0845
245 5.4825
250 5.72871
255 9.02294
260 6.21902
265 10.9861
270 6.05078
275 7.1524
280 6.8432
285 4.07657
290 6.27724
295 5.97807
300 4.46645
305 9.46919
310 6.72417
315 6.39587
320 6.65546
325 7.73717
330 4.47041
335 5.70545
340 6.44014
345 6.92046
350 6.73992
355 4.60331
360 5.17148
365 5.45869
370 6.70077
375 5.23141
380 7.46242
385 5.80896
390 6.02083
395 5.16457
400 5.33834
405 4.7187
410 5.83087
415 5.29613
420 6.16949
425 6.52569
430 7.76165
435 6.48969
440 4.45158
445 7.6871
450 8.03498
455 5.97893
460 7.11213
465 6.95828
470 5.94828
475 5.47684
480 6.55246
485 7.44226
490 5.81839
495 7.15549
500 7.81081
505 4.29293
510 4.68023
515 4.66952
520 7.04596
525 7.5741
530 5.56919
535 5.32987
540 5.65197
545 8.24606
550 5.51959
555 6.34964
560 5.63969
565 5.65424
570 10.0208
575 5.61248
580 9.54329
585 7.11446
590 7.07494
595 6.51577
600 21.3014
Ex : 233
200 4.25692
205 4.81498
210 6.01584
215 4.99049
220 5.32504
225 5.65882
230 5.69751
235 5.91535
240 4.43768
245 5.67514
250 4.77898
255 5.38526
260 4.49417
265 5.64445
270 4.20178
275 4.9556
280 5.06445
285 7.49454
290 6.41909
295 3.37805
300 5.5143
305 6.44483
310 4.50797
315 4.02887
320 5.12988
325 6.8779
330 7.33371
335 6.27732
340 7.02808
345 3.88142
350 7.54226
355 6.16127
360 5.33531
365 8.01739
370 6.61751
375 5.51116
380 4.75556
385 4.13894
390 6.13983
395 7.06583
400 8.47844
405 7.76625
410 6.19724
415 9.72187
420 6.88977
425 7.29024
430 5.73668
435 6.51512
440 5.93405
445 5.64163
450 7.01181
455 6.42584
460 4.7994
465 6.24318
470 6.51562
475 5.06082
480 4.69883
485 4.26839
490 6.08376
495 5.95868
500 5.46934
505 4.59244
510 6.51006
515 7.5847
520 6.11884
525 4.41988
530 7.22187
535 7.51431
540 6.65411
545 5.95145
550 7.04596
555 6.10831
560 6.30525
565 6.18057
570 4.29623
575 5.0852
580 7.44589
585 6.13263
590 5.46666
595 4.375
600 15.3861
Ex : 238
200 5.19565
205 4.74858
210 6.20408
215 6.17708
220 3.16875
225 4.47392
230 5.88276
235 5.88931
240 4.45154
245 7.47239
250 8.057
255 5.66233
260 4.51142
265 4.69347
270 6.01748
275 5.48773
280 5.40801
285 5.24049
290 7.24288
295 5.64177
300 3.73211
305 5.49468
310 4.40777
315 5.34086
320 4.73457
325 6.78519
330 5.37179
335 4.0717
340 6.96677
345 5.61768
350 6.77428
355 5.66273
360 4.44726
365 5.49892
370 6.08061
375 3.91451
380 5.12651
385 6.74349
390 5.26559
395 2.92249
400 4.39206
405 5.04325
410 4.44246
415 5.10042
420 6.12078
425 4.44635
430 5.63258
435 5.19122
440 7.72701
445 6.1255
450 4.52506
455 6.68554
460 4.46492
465 7.91755
470 5.26357
475 5.12846
480 5.86158
485 4.97323
490 4.26575
495 4.57868
500 5.21488
505 4.29938
510 5.81946
515 6.84574
520 5.96397
525 5.50001
530 6.86096
535 4.63081
540 4.71976
545 8.47354
550 5.64106
555 5.05318
560 5.92582
565 6.60762
570 5.11818
575 4.61354
580 3.50823
585 4.10876
590 5.28608
595 4.17557
600 7.74203
Ex : 243
200 5.46205
205 4.82962
210 4.06487
215 4.17086
220 3.9162
225 3.84183
230 5.39514
235 5.24947
240 4.78643
245 5.24606
250 3.83661
255 2.46018
260 3.54837
265 3.55011
270 3.11422
275 5.86314
280 4.32207
285 3.65727
290 3.43391
295 4.12655
300 5.74373
305 5.90585
310 3.93306
315 3.34329
320 3.53534
325 3.73186
330 4.05165
335 4.9148
340 4.42142
345 5.11435
350 5.80488
355 5.25272
360 2.71494
365 5.73587
370 5.83093
375 5.40086
380 6.56688
385 4.13468
390 3.90934
395 5.9764
400 5.17696
405 5.38843
410 6.84226
415 5.51686
420 3.81985
425 4.5703
430 7.92957
435 6.34487
440 5.50696
445 5.19135
450 4.70086
455 5.74605
460 4.9583
465 4.88412
470 5.67005
475 4.69562
480 3.53247
485 4.02842
490 5.94755
495 4.4208
500 4.25371
505 4.27374
510 5.1368
515 5.0572
520 4.35049
525 4.21131
530 4.36338
535 5.35741
540 4.54451
545 3.89208
550 7.35877
555 4.30953
560 4.9156
565 3.78666
570 4.85628
575 5.18122
580 4.23162
585 5.13337
590 4.77924
595 4.33452
600 4.03807
Ex : 248
200 6.45429
205 3.63315
210 2.63278
215 3.4087
220 3.03403
225 3.68126
230 4.98607
235 3.77116
240 4.33248
245 5.16186
250 3.79234
255 4.06979
260 3.5863
265 3.37615
270 4.31068
275 4.04282
280 4.12606
285 5.13582
290 3.66216
295 4.79428
300 4.46456
305 3.87514
310 4.87454
315 7.08982
320 4.70261
325 4.33024
330 3.73877
335 3.49309
340 4.39162
345 5.08642
350 5.31184
355 4.68629
360 4.75803
365 4.09361
370 3.1601
375 2.93345
380 4.26091
385 5.41393
390 3.5791
395 5.96263
400 3.86421
405 4.26572
410 4.63673
415 4.74527
420 3.86389
425 4.04997
430 4.2359
435 4.5666
440 5.04656
445 6.33835
450 5.11269
455 5.22164
460 4.56469
465 5.86662
470 4.81413
475 4.27249
480 4.7113
485 5.35517
490 3.69609
495 2.93447
500 4.32677
505 3.27475
510 4.11468
515 3.02921
520 5.9497
525 4.68693
530 6.22238
535 3.84271
540 4.4918
545 3.60144
550 4.95073
555 3.40713
560 3.75477
565 2.69477
570 3.49649
575 3.14277
580 3.37619
585 4.47899
590 4.97391
595 3.60332
600 8.89228
Ex : 253
200 2.375
205 3.71565
210 3.04744
215 2.85984
220 3.08606
225 3.69362
230 3.07468
235 2.73485
240 1.81238
245 2.12421
250 2.08494
255 2.81648
260 2.83964
265 3.34899
270 2.72767
275 2.86054
280 4.38746
285 3.47701
290 2.72961
295 3.01892
300 2.85411
305 3.59836
310 4.10417
315 3.27441
320 4.95276
325 3.0867
330 4.24285
335 4.25911
340 3.05594
345 3.11
350 3.6902
355 3.00054
360 3.68032
365 2.24725
370 3.33893
375 3.25803
380 4.57864
385 3.96836
390 3.21966
395 4.19885
400 2.57094
405 3.97585
410 4.23717
415 5.19781
420 3.19231
425 2.9968
430 4.06308
435 4.06751
440 3.74831
445 3.71938
450 3.60005
455 3.91401
460 3.59207
465 4.73628
470 4.92438
475 3.9634
480 3.54951
485 4.21249
490 4.06679
495 4.72898
500 3.76149
505 4.04742
510 4.41812
515 4.55933
520 3.28876
525 3.51297
530 3.73104
535 4.11287
540 4.05342
545 4.79823
550 3.54182
555 4.23604
560 3.88819
565 3.525
570 3.14709
575 3.41061
580 2.55322
585 3.11754
590 4.04942
595 3.15941
600 5.38135
Ex : 258
200 2.74903
205 2.32881
210 2.2646
215 3.17655
220 2.38956
225 2.45174
230 2.33859
235 2.47559
240 3.45153
245 2.4652
250 3.54819
255 2.41914
260 2.50632
265 3.80579
270 2.13535
275 3.05333
280 2.72935
285 2.26683
290 3.27611
295 3.36979
300 2.52441
305 2.81524
310 2.87779
315 2.06
320 2.45428
325 3.13346
330 2.28385
335 3.02906
340 2.51649
345 2.99255
350 2.66576
355 4.45878
360 3.5719
365 2.1701
370 2.44508
375 3.60791
380 3.05227
385 3.26782
390 3.28641
395 3.42932
400 2.7161
405 2.81007
410 3.02017
415 3.55617
420 2.71397
425 3.35124
430 4.18011
435 4.75361
440 3.02681
445 2.4898
450 3.9442
455 4.61595
460 3.49768
465 2.42457
470 3.0998
475 2.13744
480 3.10757
485 2.41077
490 4.13528
495 2.47601
500 1.80923
505 2.91188
510 3.43831
515 3.30052
520 3.19883
525 2.29584
530 2.79227
535 3.00117
540 2.6248
545 2.63236
550 1.9914
555 2.28005
560 2.68667
565 2.98848
570 2.42998
575 2.39929
580 2.48769
585 2.05199
590 3.19207
595 2.17802
600 0.656868
Ex : 263
200 2.10371
205 2.5866
210 2.97087
215 2.19938
220 1.54764
225 1.70429
230 2.0447
235 2.10004
240 1.58958
245 1.53692
250 2.70573
255 2.108
260 2.32101
265 2.14887
270 1.69145
275 2.14887
280 1.86739
285 2.55327
290 2.75718
295 1.96407
300 2.19068
305 2.84181
310 2.17104
315 1.32973
320 2.12298
325 2.3922
330 2.42581
335 2.5459
340 2.61308
345 2.55042
350 1.80607
355 2.13692
360 2.28199
365 1.81717
370 2.72094
375 2.38913
380 2.14061
385 3.03293
390 2.05164
395 2.32711
400 3.60523
405 2.45482
410 2.90057
415 2.83778
420 2.48174
425 2.03671
430 2.61654
435 1.56376
440 2.14045
445 2.12537
450 2.82731
455 2.30027
460 2.4738
465 2.61949
470 3.02245
475 2.15202
480 2.08335
485 2.46635
490 2.24316
495 1.64827
500 1.95997
505 1.26324
510 2.39227
515 3.44391
520 3.47325
525 3.17127
530 2.82086
535 4.20495
540 2.34561
545 2.1926
550 2.58549
555 1.69879
560 1.78275
565 1.98081
570 2.05773
575 2.66074
580 2.67714
585 2.57092
590 1.58477
595 1.87715
600 2.81684
Ex : 268
200 1.78352
205 1.71336
210 2.30144
215 0.989261
220 1.16159
225 1.25978
230 1.67247
235 1.90865
240 2.30303
245 1.44807
250 1.71123
255 1.85297
260 1.66131
265 1.25118
270 1.89635
275 2.73227
280 1.97046
285 1.25077
290 1.36805
295 1.68457
300 1.10642
305 2.23566
310 2.20101
315 1.3905
320 1.92506
325 1.93519
330 1.42948
335 1.38337
340 1.67584
345 1.79929
350 1.58061
355 2.26639
360 2.30187
365 1.26236
370 2.64006
375 1.88609
380 2.32454
385 1.77507
390 2.69888
395 1.79384
400 2.01046
405 1.58792
410 2.13318
415 2.15686
420 2.27277
425 2.02118
430 2.54341
435 2.66098
440 2.83779
445 2.08752
450 1.73553
455 2.17322
460 2.70115
465 2.91856
470 1.91778
475 1.98293
480 1.99248
485 1.63172
490 1.93602
495 1.87816
500 1.63342
505 2.12867
510 2.83862
515 1.88417
520 1.97578
525 2.0769
530 2.22416
535 1.74595
540 2.16436
545 1.60604
550 1.7015
555 1.80759
560 1.92272
565 1.95324
570 1.72904
575 2.02599
580 2.04558
585 1.48531
590 2.46803
595 1.64433
600 0.5416
Ex : 273
200 1.14486
205 0.87566
210 1.67893
215 1.49597
220 1.52878
225 1.26627
230 0.793323
235 1.37322
240 2.01505
245 1.20413
250 2.0708
255 1.3443
260 2.15657
265 1.41001
270 1.05204
275 1.39769
280 1.35646
285 1.61046
290 0.90988
295 1.09458
300 1.09335
305 1.48919
310 1.02622
315 1.13137
320 0.942515
325 1.11032
330 1.30586
335 1.96568
340 1.39779
345 2.11032
350 1.62868
355 1.83833
360 1.81094
365 1.99006
370 1.20946
375 1.47137
380 1.50665
385 1.486
390 1.6837
395 1.7617
400 1.81216
405 1.29596
410 1.6295
415 2.06705
420 1.7158
425 2.00481
430 2.28145
435 2.59738
440 2.43441
445 1.564
450 1.83305
455 2.22188
460 1.79902
465 1.25692
470 1.39619
475 1.63499
480 1.49918
485 1.81537
490 1.49463
495 2.01066
500 1.82986
505 1.22245
510 1.26116
515 1.96228
520 1.90745
525 1.66311
530 1.69051
535 2.19921
540 2.26226
545 1.59247
550 1.18278
555 1.47014
560 1.43675
565 1.23525
570 1.28588
575 1.23195
580 1.4343
585 1.48535
590 1.25505
595 0.893594
600 0.101688
Ex : 278
200 0.915903
205 0.833475
210 0.95827
215 0.945936
220 1.16237
225 1.27306
230 1.3784
235 1.18007
240 0.721647
245 0.587998
250 1.35358
255 0.926677
260 1.17986
265 1.27187
270 1.29069
275 1.37874
280 1.57983
285 1.15512
290 0.825543
295 0.797629
300 1.11186
305 0.934773
310 1.51975
315 1.19843
320 1.04162
325 1.12187
330 1.46217
335 1.63529
340 1.003
345 0.884845
350 1.63888
355 1.56726
360 1.63703
365 1.37008
370 1.88291
375 1.50545
380 1.41552
385 2.12546
390 1.59376
395 1.6798
400 1.38931
405 1.53879
410 1.47287
415 1.48551
420 1.77925
425 1.28748
430 1.16337
435 1.76341
440 1.97601
445 1.54646
450 1.988
455 1.81222
460 1.61351
465 1.32774
470 1.4419
475 1.82754
480 1.95022
485 1.52499
490 1.28074
495 1.53291
500 1.21438
505 1.0576
510 0.86988
515 1.38642
520 0.914105
525 1.01286
530 1.0755
535 1.17235
540 0.939181
545 1.28286
550 1.81565
555 1.47915
560 1.74722
565 1.27033
570 0.972772
575 1.34844
580 0.999202
585 1.38502
590 1.90585
595 1.04861
600 1.06665
Ex : 283
200 1.05658
205 1.02424
210 0.805418
215 0.737614
220 0.882253
225 0.569347
230 0.829723
235 1.02928
240 0.627404
245 0.887508
250 0.852368
255 0.892385
260 0.871922
265 1.13939
270 1.24362
275 1.1266
280 1.10229
285 0.785781
290 1.12291
295 1.04669
300 0.928306
305 0.990622
310 1.30288
315 1.29446
320 0.839036
325 1.08312
330 1.30445
335 1.57812
340 1.09178
345 0.919803
350 1.33106
355 0.94527
360 0.888067
365 1.12913
370 1.11737
375 1.00297
380 0.82396
385 1.43294
390 1.5
395 1.45922
400 1.62932
405 1.69393
410 1.45519
415 1.26746
420 1.50658
425 1.32878
430 1.38406
435 0.974413
440 1.61761
445 1.46984
450 1.63883
455 1.49793
460 1.70363
465 1.02464
470 1.23835
475 1.05652
480 1.12283
485 1.34905
490 1.88274
495 1.2189
500 1.04018
505 1.14314
510 0.758249
515 1.31469
520 1.55653
525 1.19335
530 1.3073
535 1.26873
540 1.49158
545 1.57475
550 1.1227
555 1.42092
560 1.27587
565 1.33527
570 0.953491
575 1.00531
580 0.838813
585 0.936116
590 0.804711
595 0.815531
600 0.0928044
Ex : 288
200 0.856649
205 1.13062
210 1.12129
215 0.903921
220 0.758501
225 0.866359
230 0.566466
235 0.62739
240 0.97605
245 1.1473
250 0.654806
255 0.891516
260 0.494521
265 0.947607
270 1.01614
275 0.808125
280 1.10799
285 0.827556
290 0.781674
295 0.983423
300 0.909596
305 0.900528
310 0.535427
315 0.673506
320 1.18311
325 0.748829
330 0.750384
335 0.828857
340 0.720571
345 0.878149
350 0.563766
355 1.12316
360 1.28855
365 1.28832
370 1.08482
375 0.863062
380 1.38649
385 1.13697
390 1.22293
395 1.66881
400 1.15004
405 1.00438
410 1.63475
415 1.14044
420 1.17089
425 0.926758
430 0.99633
435 1.1248
440 1.39661
445 1.3844
450 1.34137
455 1.01898
460 1.18247
465 1.31701
470 1.20553
475 1.15918
480 0.729713
485 0.979411
490 1.03113
495 1.12404
500 0.815932
505 0.607717
510 1.04112
515 0.653289
520 0.846745
525 0.941998
530 0.660298
535 1.10767
540 0.693733
545 1.06691
550 1.13957
555 0.7873
560 0.806849
565 1.3691
570 1.35909
575 1.35729
580 0.853083
585 0.927153
590 0.710204
595 0.738176
600 0.408222
Ex : 293
200 0.719464
205 0.758602
210 0.598306
215 0.579169
220 0.637368
225 0.62696
230 0.481765
235 0.403947
240 0.783013
245 0.794468
250 0.496987
255 0.735434
260 0.612063
265 0.67747
270 0.801968
275 0.721558
280 0.855173
285 0.959663
290 0.755681
295 1.0661
300 0.749669
305 0.513789
310 0.593375
315 0.728466
320 0.625345
325 0.845652
330 0.896053
335 0.631124
340 0.747633
345 1.03433
350 0.736231
355 0.883449
360 1.15466
365 1.15458
370 1.00476
375 0.962681
380 1.20614
385 0.915772
390 1.16739
395 0.975711
400 1.23765
405 1.08118
410 1.35599
415 1.55975
420 1.25673
425 0.896154
430 0.914626
435 1.14033
440 1.247
445 1.16725
450 1.29201
455 1.31688
460 0.872046
465 1.35608
470 1.06525
475 1.10044
480 1.01143
485 0.751795
490 0.745602
495 0.985237
500 0.821968
505 0.791559
510 0.935556
515 0.854637
520 0.972945
525 0.645949
530 0.892219
535 0.470234
540 0.626344
545 0.708234
550 0.675648
555 0.638104
560 0.616211
565 0.605967
570 0.885174
575 1.12674
580 1.22269
585 1.22571
590 0.603998
595 0.655579
600 0.635262
Ex : 298
200 0.689597
205 0.75902
210 0.612023
215 0.472604
220 0.507922
225 0.621055
230 0.482484
235 0.652212
240 0.537825
245 0.603235
250 0.750225
255 0.57665
260 0.600557
265 0.549932
270 0.718065
275 0.690094
280 0.731243
285 0.615011
290 0.827419
295 0.87278
300 0.864747
305 0.691497
310 0.637715
315 0.445191
320 0.556303
325 0.588987
330 0.474825
335 0.726195
340 0.786131
345 0.92037
350 0.631534
355 0.594746
360 0.737969
365 0.609899
370 0.805436
375 0.791469
380 0.856255
385 0.968481
390 0.909127
395 1.17486
400 1.22774
405 1.22872
410 0.885822
415 0.981661
420 1.19506
425 0.964352
430 0.769572
435 1.04941
440 0.964926
445 1.274
450 0.886702
455 0.855903
460 0.975177
465 0.732569
470 0.65892
475 0.845726
480 0.963212
485 0.761264
490 0.897403
495 0.888927
500 0.770425
505 0.661799
510 0.823677
515 0.879386
520 0.640458
525 0.515031
530 0.395935
535 0.727044
540 0.655688
545 0.85076
550 0.6448
555 0.719859
560 0.617673
565 0.565788
570 0.701404
575 0.72554
580 0.667534
585 0.980455
590 0.964911
595 1.01005
600 0.11494
Ex : 303
200 0.618553
205 0.452287
210 0.563229
215 0.470854
220 0.453105
225 0.674757
230 0.441594
235 0.399322
240 0.592199
245 0.375895
250 0.586385
255 0.577088
260 0.457357
265 0.648472
270 0.577266
275 0.820287
280 0.484201
285 0.586094
290 0.640063
295 0.677764
300 0.790646
305 0.575987
310 0.553773
315 0.52195
320 0.515814
325 0.65677
330 0.680578
335 0.691255
340 0.890106
345 0.598486
350 0.93343
355 0.694594
360 0.675064
365 0.803893
370 0.681401
375 1.07415
380 0.774699
385 1.01998
390 1.06413
395 0.968348
400 1.06133
405 1.24619
410 0.968319
415 0.960642
420 1.13345
425 1.14141
430 1.13272
435 1.00212
440 0.963827
445 0.836468
450 1.14053
455 0.990025
460 0.964524
465 1.01561
470 0.724609
475 0.781412
480 0.625012
485 0.697446
490 0.700073
495 0.627174
500 0.82521
505 0.596066
510 0.802056
515 0.690938
520 0.463975
525 0.654912
530 0.499495
535 0.579508
540 0.433816
545 0.551347
550 0.476655
555 0.651256
560 0.563741
565 0.63693
570 0.727915
575 0.710534
580 0.635984
585 0.455497
590 0.396987
595 0.889781
600 1.46573
Ex : 308
200 0.381883
205 0.337979
210 0.491935
215 0.30621
220 0.499089
225 0.342855
230 0.541586
235 0.558079
240 0.438122
245 0.49602
250 0.46831
255 0.466795
260 0.634437
265 0.362269
270 0.361779
275 0.365397
280 0.593917
285 0.407555
290 0.470494
295 0.586961
300 0.673482
305 0.691
310 0.56313
315 0.444219
320 0.401204
325 0.48085
330 0.397256
335 0.3987
340 0.615757
345 0.610603
350 0.615265
355 0.802477
360 0.848407
365 0.834854
370 0.893519
375 0.760704
380 0.748229
385 0.912777
390 0.947832
395 0.926095
400 1.16977
405 1.03255
410 1.19302
415 1.09938
420 1.13641
425 0.892472
430 0.931054
435 0.979062
440 1.0265
445 1.04701
450 0.883104
455 0.838555
460 0.797027
465 0.915243
470 0.842363
475 1.08591
480 0.741881
485 0.665731
490 0.6327
495 0.579902
500 0.61549
505 0.586944
510 0.579888
515 0.683041
520 0.841464
525 0.517299
530 0.485992
535 0.473182
540 0.475973
545 0.419654
550 0.502285
555 0.455656
560 0.559421
565 0.535875
570 0.466517
575 0.510155
580 0.462529
585 0.410546
590 0.370635
595 0.37275
600 0.947084
Ex : 313
200 0.285511
205 0.330348
210 0.485193
215 0.416525
220 0.437576
225 0.593905
230 0.357671
235 0.421272
240 0.408699
245 0.401859
250 0.442102
255 0.376363
260 0.448663
265 0.516723
270 0.367859
275 0.454757
280 0.408686
285 0.303419
290 0.390699
295 0.403137
300 0.463033
305 0.693228
310 0.642274
315 0.557149
320 0.473402
325 0.377087
330 0.326455
335 0.785596
340 0.616949
345 0.658857
350 0.627919
355 0.793906
360 0.759948
365 0.78227
370 0.739141
375 0.921662
380 0.873352
385 0.934076
390 1.14186
395 1.50683
400 1.26635
405 1.33446
410 1.3344
415 1.1799
420 1.24049
425 1.3112
430 1.19171
435 1.23432
440 1.20693
445 1.3425
450 1.42341
455 1.25572
460 1.2994
465 1.05155
470 0.87688
475 1.00111
480 0.897586
485 0.842742
490 0.876854
495 0.69631
500 0.722235
505 0.953544
510 0.769278
515 0.606388
520 0.587195
525 0.577658
530 0.679321
535 0.595046
540 0.673496
545 0.522817
550 0.448391
555 0.515986
560 0.374666
565 0.544246
570 0.472194
575 0.565848
580 0.318288
585 0.368933
590 0.425663
595 0.310829
600 0.0564712
Ex : 318
200 0.447861
205 0.306503
210 0.382351
215 0.293512
220 0.261627
225 0.30802
230 0.406589
235 0.272132
240 0.398995
245 0.409459
250 0.453246
255 0.35072
260 0.455584
265 0.378279
270 0.492934
275 0.278617
280 0.261233
285 0.410712
290 0.317241
295 0.335246
300 0.24656
305 0.341567
310 0.568982
315 0.853915
320 0.542559
325 0.512481
330 0.663327
335 0.779506
340 1.00937
345 1.66423
350 2.13972
355 2.50258
360 3.1111
365 3.7529
370 4.93368
375 5.23199
380 5.74731
385 6.90387
390 7.65929
395 7.4857
400 7.84135
405 9.00761
410 8.46732
415 8.51799
420 8.49598
425 8.02909
430 8.31559
435 7.22252
440 7.40938
445 7.61018
450 6.60246
455 6.00056
460 6.01977
465 5.43855
470 4.83059
475 4.73019
480 4.40947
485 4.0024
490 3.60587
495 3.27531
500 2.95409
505 2.26241
510 2.13481
515 1.75307
520 1.50687
525 1.4715
530 1.42627
535 1.38361
540 1.01704
545 1.00057
550 0.773313
555 0.688952
560 0.655949
565 0.581865
570 0.5877
575 0.580476
580 0.5761
585 0.338078
590 0.387082
595 0.562542
600 0.160342
Ex : 323
200 0.337552
205 0.400552
210 0.31995
215 0.422399
220 0.418326
225 0.261536
230 0.272723
235 0.23296
240 0.26553
245 0.363432
250 0.359866
255 0.323242
260 0.222244
265 0.335666
270 0.312615
275 0.283924
280 0.323412
285 0.303586
290 0.568717
295 0.292174
300 0.308524
305 0.272991
310 0.362802
315 2.17598
320 10.3998
325 4.86477
330 2.17164
335 2.83602
340 4.16267
345 5.58196
350 7.83546
355 10.9746
360 13.3424
365 15.359
370 19.6523
375 22.9484
380 25.3859
385 28.8031
390 30.5162
395 33.0918
400 34.6897
405 35.0265
410 35.8718
415 35.2837
420 34.7271
425 33.8548
430 32.8126
435 32.3843
440 31.4748
445 28.891
450 28.1038
455 26.3437
460 24.753
465 22.6481
470 21.2161
475 19.0532
480 17.0127
485 16.0133
490 14.6533
495 12.6753
500 11.1538
505 9.89943
510 8.34421
515 7.8277
520 6.27895
525 5.65641
530 4.85458
535 4.3561
540 3.80485
545 3.21935
550 2.80725
555 2.445
560 1.97477
565 1.63072
570 1.35027
575 1.43003
580 0.962313
585 0.98774
590 0.634987
595 0.660883
600 0.646126
Ex : 328
200 0.208609
205 0.252081
210 0.265228
215 0.262455
220 0.39264
225 0.331144
230 0.259234
235 0.213211
240 0.451262
245 0.385667
250 0.476358
255 0.416536
260 0.307216
265 0.413225
270 0.226256
275 0.384519
280 0.314162
285 0.429312
290 0.37692
295 0.450117
300 0.315573
305 0.250878
310 0.303129
315 0.731968
320 25.2984
325 64.0773
330 23.4017
335 6.16299
340 5.86925
345 7.37222
350 9.75904
355 13.1537
360 18.3695
365 20.573
370 22.9891
375 26.1642
380 30.5691
385 32.2173
390 35.7989
395 37.8694
400 38.7955
405 39.5451
410 40.0812
415 41.1132
420 40.7002
425 39.6592
430 38.2213
435 36.5758
440 35.029
445 33.0333
450 31.8946
455 29.397
460 28.2879
465 25.9726
470 24.7364
475 21.8699
480 20.821
485 19.0793
490 16.3543
495 15.2353
500 13.5726
505 11.9027
510 10.6913
515 9.39534
520 8.35688
525 7.27793
530 6.24747
535 5.69687
540 4.68072
545 4.19196
550 3.87795
555 3.25126
560 2.85908
565 2.49411
570 1.86459
575 1.66139
580 1.2832
585 1.18621
590 1.03004
595 0.725951
600 0.175084
Ex : 333
200 0.193912
205 0.311622
210 0.246133
215 0.191952
220 0.191069
225 0.254595
230 0.187531
235 0.319826
240 0.236217
245 0.191612
250 0.237593
255 0.251272
260 0.44202
265 0.395469
270 0.288127
275 0.335581
280 0.194676
285 0.328321
290 0.28527
295 0.296488
300 0.250861
305 0.236254
310 0.366501
315 0.406348
320 4.86356
325 86.5017
330 159.6
335 46.0451
340 9.05464
345 6.07068
350 6.7248
355 7.36908
360 11.0964
365 14.8789
370 16.1347
375 16.44
380 17.246
385 19.2683
390 20.9744
395 21.5884
400 22.9944
405 22.6029
410 23.0173
415 22.9331
420 22.6097
425 22.8
430 21.7463
435 21.8523
440 21.1469
445 19.7969
450 18.9681
455 18.1889
460 17.6916
465 16.1055
470 15.0468
475 14.6023
480 14.0344
485 13.1298
490 12.1532
495 10.7896
500 9.74241
505 8.85605
510 7.96207
515 7.21184
520 6.17902
525 5.91393
530 5.43711
535 4.52244
540 3.84508
545 3.89504
550 3.58349
555 2.91663
560 2.57853
565 2.17059
570 2.00745
575 1.67462
580 1.53721
585 1.13338
590 0.949352
595 0.584619
600 1.55535
Ex : 338
200 0.237923
205 0.252125
210 0.332981
215 0.419546
220 0.257508
225 0.269961
230 0.264372
235 0.243105
240 0.281724
245 0.231482
250 0.318161
255 0.259754
260 0.308146
265 0.281489
270 0.412252
275 0.288591
280 0.302501
285 0.191474
290 0.297309
295 0.291548
300 0.347716
305 0.327381
310 0.291597
315 0.351756
320 0.326019
325 10.5991
330 151.118
335 231.193
340 60.054
345 9.8935
350 5.06668
355 4.32496
360 4.42283
365 6.75546
370 11.4079
375 11.9036
380 10.1207
385 9.63117
390 10.9492
395 11.4239
400 11.599
405 11.9538
410 12.3839
415 12.1681
420 12.7413
425 12.7514
430 12.2396
435 12.0748
440 12.3539
445 11.8501
450 11.7878
455 11.3747
460 10.9312
465 10.7488
470 10.7351
475 10.7358
480 10.1049
485 9.60676
490 8.86115
495 9.02378
500 7.81808
505 8.09638
510 7.20352
515 6.70095
520 6.04356
525 5.1749
530 5.29657
535 4.86021
540 3.92634
545 3.81077
550 3.36106
555 2.70044
560 2.59239
565 2.24819
570 1.87027
575 1.61112
580 1.29106
585 1.11943
590 1.20505
595 0.770089
600 1.20336
Ex : 343
200 0.266298
205 0.238229
210 0.20977
215 0.273855
220 0.174272
225 0.144189
230 0.283816
235 0.282277
240 0.242515
245 0.330813
250 0.273008
255 0.2809
260 0.186882
265 0.183521
270 0.220452
275 0.274115
280 0.201514
285 0.301565
290 0.23861
295 0.316514
300 0.270245
305 0.189497
310 0.302939
315 0.28212
320 0.317284
325 0.419542
330 12.9672
335 182.649
340 262.843
345 65.2015
350 9.82056
355 4.08334
360 3.43455
365 3.29488
370 4.41984
375 8.16142
380 9.82167
385 8.53055
390 7.06516
395 7.32182
400 7.76811
405 8.15383
410 8.03567
415 8.63345
420 9.09457
425 9.0211
430 9.27223
435 9.04253
440 9.10135
445 9.62951
450 9.7446
455 9.59636
460 9.98887
465 9.97364
470 10.294
475 10.2111
480 10.3852
485 9.82839
490 9.81854
495 9.91939
500 9.15142
505 8.80106
510 7.66638
515 7.14325
520 6.36478
525 6.48356
530 5.60739
535 5.01851
540 4.36744
545 4.07987
550 3.54019
555 3.17832
560 2.9959
565 2.53446
570 2.03286
575 1.78289
580 1.49672
585 1.1909
590 0.910264
595 0.877034
600 0.135017
Ex : 348
200 0.221013
205 0.239976
210 0.185854
215 0.177884
220 0.200001
225 0.19617
230 0.200324
235 0.25523
240 0.267898
245 0.236138
250 0.23141
255 0.258222
260 0.225356
265 0.159239
270 0.221522
275 0.196824
280 0.238618
285 0.25599
290 0.258521
295 0.219737
300 0.234349
305 0.214379
310 0.250915
315 0.275047
320 0.251062
325 0.374358
330 0.489759
335 12.7857
340 174.416
345 263.619
350 71.2652
355 10.1616
360 3.4573
365 3.25699
370 2.52128
375 3.17857
380 6.75255
385 9.21779
390 7.89586
395 7.18309
400 6.66695
405 6.71437
410 7.55234
415 7.98509
420 8.38888
425 9.05184
430 8.47337
435 8.76002
440 9.17159
445 9.07859
450 9.99817
455 10.2844
460 10.9895
465 11.078
470 11.5165
475 11.8842
480 11.6966
485 11.8535
490 11.8934
495 11.0971
500 10.8697
505 10.5072
510 9.23919
515 8.61187
520 7.98333
525 7.43647
530 6.76255
535 5.69972
540 5.37978
545 4.91838
550 4.29799
555 3.85607
560 3.54584
565 3.03014
570 2.46805
575 2.12237
580 1.70207
585 1.34181
590 1.09703
595 0.87581
600 0.252835
Ex : 353
200 0.293013
205 0.233985
210 0.285563
215 0.190468
220 0.18524
225 0.159893
230 0.266818
235 0.158582
240 0.206751
245 0.238759
250 0.202102
255 0.173044
260 0.177481
265 0.268806
270 0.232349
275 0.171763
280 0.175116
285 0.203882
290 0.183641
295 0.20793
300 0.197002
305 0.199828
310 0.269041
315 0.242466
320 0.271246
325 0.336509
330 0.338852
335 0.516703
340 12.8315
345 178.875
350 260.217
355 66.8299
360 9.54701
365 3.26913
370 2.72932
375 2.9266
380 2.93418
385 5.64556
390 9.43698
395 8.37264
400 7.36558
405 7.00358
410 7.26851
415 8.08114
420 8.0996
425 7.71605
430 8.04984
435 8.51283
440 9.04503
445 9.72641
450 10.3605
455 10.9859
460 11.8626
465 12.8715
470 12.751
475 13.3626
480 13.3065
485 13.5631
490 13.211
495 13.0493
500 12.6023
505 11.7621
510 11.2193
515 10.0772
520 9.15653
525 8.74227
530 7.64784
535 7.1487
540 6.46262
545 5.60101
550 5.21378
555 4.60137
560 4.08509
565 3.55568
570 2.84214
575 2.44393
580 1.9756
585 1.50116
590 1.21968
595 1.0309
600 1.08363
Ex : 358
200 0.188105
205 0.190736
210 0.14329
215 0.153241
220 0.237022
225 0.225314
230 0.202472
235 0.229046
240 0.294091
245 0.268813
250 0.163707
255 0.137276
260 0.221807
265 0.172866
270 0.179202
275 0.237613
280 0.179605
285 0.162559
290 0.181367
295 0.180398
300 0.219456
305 0.251233
310 0.150384
315 0.207151
320 0.195303
325 0.203288
330 0.299394
335 0.440512
340 0.6193
345 12.2143
350 171.158
355 258.884
360 67.2993
365 9.47755
370 3.19568
375 3.30503
380 2.99533
385 3.02082
390 5.51375
395 9.98219
400 9.41187
405 7.92914
410 7.16657
415 7.34962
420 7.82089
425 8.02928
430 7.98478
435 8.22312
440 9.22126
445 10.0612
450 10.5356
455 11.6081
460 12.4306
465 12.7814
470 13.4112
475 14.213
480 14.4097
485 14.0542
490 14.3252
495 13.8797
500 13.2977
505 12.526
510 11.626
515 11.2987
520 10.4834
525 9.24478
530 8.73586
535 8.03181
540 6.90055
545 6.421
550 6.07959
555 5.46097
560 4.36285
565 3.86871
570 3.15142
575 2.4897
580 1.98336
585 1.59443
590 1.35882
595 1.17
600 1.09906
Ex : 363
200 0.229257
205 0.152042
210 0.165873
215 0.185371
220 0.153062
225 0.164296
230 0.26258
235 0.245802
240 0.130362
245 0.232369
250 0.182172
255 0.147121
260 0.188902
265 0.167554
270 0.231869
275 0.234057
280 0.156366
285 0.249059
290 0.137947
295 0.232006
300 0.220347
305 0.194916
310 0.21817
315 0.215481
320 0.225179
325 0.201391
330 0.204548
335 0.267884
340 0.36439
345 0.582052
350 10.6588
355 162.863
360 250.477
365 67.3513
370 9.35748
375 3.37879
380 3.38529
385 3.11626
390 3.39915
395 4.80674
400 8.38358
405 9.66658
410 8.43937
415 8.06197
420 7.79691
425 8.09319
430 8.17104
435 8.67045
440 9.54031
445 10.6449
450 11.0524
455 12.2269
460 13.3425
465 14.2623
470 15.3332
475 15.4402
480 16.6654
485 16.2798
490 16.344
495 15.9606
500 15.5929
505 14.3712
510 13.7284
515 12.8715
520 11.8399
525 10.6397
530 9.89805
535 8.95688
540 7.82865
545 7.39233
550 6.53884
555 5.62922
560 4.83675
565 4.26429
570 3.75138
575 2.94264
580 2.54347
585 1.72645
590 1.53786
595 1.2091
600 1.44057
Ex : 368
200 0.113776
205 0.219482
210 0.148452
215 0.157476
220 0.187791
225 0.222962
230 0.189094
235 0.150977
240 0.195598
245 0.169631
250 0.134312
255 0.202003
260 0.145534
265 0.179445
270 0.165332
275 0.251912
280 0.249038
285 0.218206
290 0.230135
295 0.16823
300 0.211308
305 0.177057
310 0.218932
315 0.213287
320 0.174241
325 0.182877
330 0.206984
335 0.311502
340 0.309241
345 0.405706
350 0.507304
355 8.82167
360 154.241
365 247.544
370 68.9617
375 9.65291
380 3.4054
385 3.55113
390 3.80593
395 4.16277
400 5.07875
405 7.97553
410 10.655
415 9.26112
420 8.84747
425 8.17811
430 7.99125
435 8.93566
440 9.88093
445 10.7527
450 11.9786
455 13.4689
460 14.6093
465 16.2058
470 17.3372
475 17.8731
480 18.6369
485 19.0619
490 18.6473
495 18.6926
500 17.8321
505 17.6235
510 16.3227
515 15.0734
520 13.7205
525 12.8459
530 11.7486
535 10.4103
540 9.78322
545 8.91495
550 7.67755
555 6.79738
560 6.00897
565 5.57751
570 4.40021
575 3.63786
580 2.78673
585 2.11143
590 1.80799
595 1.3455
600 2.14097
Ex : 373
200 0.165053
205 0.19934
210 0.149285
215 0.126607
220 0.212154
225 0.156654
230 0.170324
235 0.190843
240 0.165108
245 0.161022
250 0.141873
255 0.196853
260 0.153034
265 0.190949
270 0.242653
275 0.181615
280 0.19458
285 0.130006
290 0.144397
295 0.156183
300 0.199254
305 0.16539
310 0.124903
315 0.179138
320 0.144184
325 0.191832
330 0.201733
335 0.180261
340 0.238751
345 0.278226
350 0.416025
355 0.520319
360 10.0392
365 153.613
370 249.506
375 70.9017
380 10.2093
385 3.58031
390 4.03687
395 4.58314
400 4.63166
405 5.04915
410 7.79438
415 11.0174
420 9.72565
425 8.56036
430 7.9566
435 8.30616
440 9.06566
445 10.8175
450 11.7747
455 13.4405
460 15.1378
465 16.3836
470 17.9015
475 18.9104
480 19.2023
485 20.2667
490 19.6697
495 19.6849
500 19.6166
505 18.7645
510 17.3859
515 16.482
520 15.0048
525 13.7868
530 12.5603
535 11.5386
540 10.4804
545 9.40964
550 8.30317
555 7.5427
560 6.73653
565 5.72824
570 4.71715
575 3.80102
580 2.98661
585 2.34728
590 1.80585
595 1.53759
600 0.809633
Ex : 378
200 0.186816
205 0.208041
210 0.153947
215 0.199174
220 0.117129
225 0.203236
230 0.185619
235 0.205135
240 0.16471
245 0.197999
250 0.181474
255 0.184737
260 0.20067
265 0.110919
270 0.126917
275 0.162963
280 0.196524
285 0.152796
290 0.133102
295 0.142476
300 0.185557
305 0.233213
310 0.17884
315 0.189834
320 0.194327
325 0.151313
330 0.134118
335 0.198754
340 0.196209
345 0.246628
350 0.237614
355 0.321016
360 0.41004
365 10.0495
370 165.26
375 272.214
380 78.2783
385 11.3629
390 4.1174
395 4.4709
400 4.50988
405 4.45489
410 4.92981
415 7.05729
420 10.0996
425 9.6318
430 8.42393
435 8.11219
440 8.36429
445 9.39254
450 11.2773
455 12.2428
460 14.1836
465 15.618
470 16.7949
475 17.7965
480 18.4492
485 19.1151
490 19.4611
495 19.0208
500 18.5132
505 17.2389
510 16.7045
515 15.5109
520 14.3936
525 12.7408
530 11.9053
535 11.0263
540 9.90675
545 9.1218
550 8.00824
555 6.919
560 6.15547
565 5.2585
570 4.34751
575 3.70788
580 2.8261
585 2.2485
590 1.86959
595 1.35995
600 0.960397
Ex : 383
200 0.164086
205 0.114566
210 0.123351
215 0.110766
220 0.121378
225 0.122904
230 0.137635
235 0.197529
240 0.140088
245 0.191563
250 0.142989
255 0.116254
260 0.261262
265 0.184629
270 0.176083
275 0.138901
280 0.132945
285 0.146995
290 0.147165
295 0.136683
300 0.13424
305 0.13133
310 0.0932621
315 0.182039
320 0.172942
325 0.174387
330 0.145104
335 0.171542
340 0.186682
345 0.23346
350 0.253968
355 0.243738
360 0.335622
365 0.487279
370 9.29409
375 161.124
380 276.637
385 79.4361
390 12.0476
395 4.42441
400 4.14877
405 4.60253
410 4.85431
415 5.42253
420 6.50519
425 9.11983
430 9.60374
435 8.88096
440 9.14998
445 9.96124
450 11.0438
455 12.4753
460 14.5577
465 16.4096
470 17.142
475 17.8182
480 18.7316
485 19.3612
490 19.6311
495 19.4134
500 18.978
505 17.8038
510 17.1281
515 16.1082
520 14.6587
525 13.0173
530 12.6873
535 11.0951
540 10.3063
545 9.30893
550 7.99179
555 7.12138
560 6.19428
565 5.36435
570 4.51781
575 3.43585
580 2.73957
585 2.15241
590 1.80211
595 1.50698
600 1.83923
Ex : 388
200 0.169128
205 0.130072
210 0.122775
215 0.157626
220 0.119455
225 0.174913
230 0.156533
235 0.14287
240 0.176572
245 0.164092
250 0.167441
255 0.150634
260 0.228947
265 0.208583
270 0.158012
275 0.128888
280 0.110932
285 0.123288
290 0.172874
295 0.138969
300 0.157298
305 0.118564
310 0.122158
315 0.12166
320 0.197856
325 0.148642
330 0.159106
335 0.142132
340 0.150499
345 0.185745
350 0.155987
355 0.233695
360 0.252353
365 0.260594
370 0.488256
375 10.0406
380 167.835
385 274.86
390 78.6989
395 12.2362
400 4.45854
405 4.42284
410 5.13421
415 5.50907
420 5.53499
425 5.97248
430 8.69418
435 10.5739
440 10.2388
445 10.2139
450 11.2852
455 12.2375
460 14.1395
465 16.703
470 17.841
475 18.8823
480 19.6459
485 20.1784
490 20.2636
495 20.2709
500 19.5911
505 18.9219
510 17.6066
515 16.5408
520 15.243
525 14.3064
530 13.383
535 11.7451
540 10.9778
545 9.76379
550 8.83415
555 7.79928
560 6.74729
565 5.68144
570 4.70468
575 3.90834
580 3.15449
585 2.32188
590 1.77064
595 1.52241
600 1.06956
Ex : 393
200 0.13335
205 0.162696
210 0.112471
215 0.150403
220 0.140163
225 0.113939
230 0.11391
235 0.0982246
240 0.12684
245 0.1976
250 0.136364
255 0.146606
260 0.119277
265 0.0983111
270 0.133247
275 0.152829
280 0.201076
285 0.132075
290 0.20454
295 0.181293
300 0.140234
305 0.141275
310 0.142797
315 0.167245
320 0.119588
325 0.135017
330 0.145857
335 0.210469
340 0.221422
345 0.22035
350 0.193648
355 0.182601
360 0.222011
365 0.247084
370 0.28274
375 0.40824
380 8.97639
385 163.091
390 280.595
395 81.8316
400 12.6879
405 4.66244
410 4.67501
415 5.47114
420 5.35855
425 5.20767
430 5.37368
435 7.7802
440 10.8363
445 11.0917
450 11.479
455 12.9286
460 14.8357
465 16.1663
470 18.3199
475 19.0841
480 20.058
485 20.8838
490 21.4487
495 20.9509
500 21.0025
505 19.8914
510 18.9488
515 17.3517
520 16.1136
525 15.0137
530 13.9091
535 12.3087
540 11.0202
545 10.0094
550 8.99461
555 8.05756
560 7.11044
565 6.11309
570 5.35932
575 4.1952
580 3.12754
585 2.59108
590 1.95877
595 1.50366
600 1.1912
Ex : 398
200 0.120311
205 0.137762
210 0.135253
215 0.124483
220 0.096701
225 0.137925
230 0.141689
235 0.134885
240 0.103745
245 0.098535
250 0.123137
255 0.124724
260 0.134023
265 0.101168
270 0.138217
275 0.165037
280 0.110034
285 0.133553
290 0.145234
295 0.154059
300 0.102263
305 0.13577
310 0.145597
315 0.178889
320 0.157862
325 0.154562
330 0.123155
335 0.130904
340 0.174799
345 0.244405
350 0.179513
355 0.175454
360 0.142575
365 0.200407
370 0.18355
375 0.314815
380 0.50434
385 9.4678
390 170.121
395 296.694
400 83.6126
405 12.1151
410 4.51063
415 4.15041
420 4.42923
425 4.08074
430 4.18655
435 4.96652
440 6.98162
445 10.8611
450 12.411
455 13.0058
460 14.4257
465 16.2984
470 17.4853
475 19.1978
480 20.3321
485 21.1354
490 21.226
495 21.4684
500 20.6549
505 20.2549
510 18.9204
515 18.0421
520 16.6919
525 15.3117
530 13.984
535 12.3757
540 11.6329
545 10.426
550 9.31679
555 8.18262
560 7.09211
565 6.28186
570 5.13739
575 4.31041
580 3.26462
585 2.53403
590 2.04721
595 1.61981
600 0.566731
Ex : 403
200 0.135639
205 0.0926141
210 0.088549
215 0.114241
220 0.131317
225 0.115775
230 0.165091
235 0.136207
240 0.0940493
245 0.107069
250 0.141337
255 0.115263
260 0.1638
265 0.101953
270 0.109307
275 0.161365
280 0.167943
285 0.16658
290 0.155577
295 0.131288
300 0.133387
305 0.164164
310 0.171488
315 0.116547
320 0.1225
325 0.173635
330 0.159527
335 0.175774
340 0.166461
345 0.136541
350 0.192764
355 0.205167
360 0.180743
365 0.254814
370 0.194493
375 0.161397
380 0.296223
385 0.451802
390 10.3287
395 177.625
400 291.547
405 83.9007
410 12.0683
415 4.07673
420 3.42268
425 3.72288
430 3.86088
435 4.10738
440 5.3613
445 7.47272
450 11.6635
455 14.2377
460 14.979
465 16.5377
470 17.5092
475 19.1678
480 20.3409
485 20.9053
490 21.4673
495 21.5558
500 21.2847
505 20.6174
510 19.4909
515 17.7383
520 16.5808
525 15.3461
530 14.0407
535 12.7606
540 11.8238
545 10.6152
550 9.49926
555 8.33544
560 7.52527
565 6.50011
570 5.29441
575 4.32971
580 3.28136
585 2.71016
590 2.04182
595 1.58529
600 1.36098
Ex : 408
200 0.125317
205 0.17496
210 0.158379
215 0.0824794
220 0.180626
225 0.118836
230 0.138251
235 0.111412
240 0.137389
245 0.139095
250 0.110328
255 0.153753
260 0.138531
265 0.100919
270 0.137407
275 0.187805
280 0.126077
285 0.11761
290 0.138032
295 0.167535
300 0.154163
305 0.117911
310 0.129108
315 0.130439
320 0.131975
325 0.154198
330 0.136433
335 0.165326
340 0.18963
345 0.142185
350 0.159903
355 0.188161
360 0.209244
365 0.190717
370 0.25875
375 0.251014
380 0.258853
385 0.308089
390 0.469434
395 9.79906
400 173.904
405 290.296
410 81.9959
415 11.6888
420 3.56366
425 2.93792
430 3.53797
435 3.86322
440 4.85157
445 6.33883
450 8.3825
455 12.7429
460 15.9641
465 16.8237
470 18.1855
475 19.3537
480 20.0336
485 20.8145
490 21.6653
495 21.7561
500 21.2853
505 20.3899
510 19.1393
515 17.8338
520 16.9614
525 15.8406
530 14.5101
535 13.0554
540 11.9386
545 10.7934
550 9.87483
555 8.47012
560 7.43327
565 6.41445
570 5.29711
575 4.08712
580 3.33649
585 2.66289
590 2.05078
595 1.66895
600 1.16989
Ex : 413
200 0.127257
205 0.114514
210 0.151796
215 0.0964617
220 0.140288
225 0.172361
230 0.142497
235 0.10864
240 0.133964
245 0.11594
250 0.15634
255 0.149843
260 0.145158
265 0.166771
270 0.152011
275 0.159605
280 0.104904
285 0.220247
290 0.141604
295 0.135865
300 0.0788275
305 0.13192
310 0.10995
315 0.170775
320 0.200088
325 0.194815
330 0.140818
335 0.176201
340 0.116261
345 0.148987
350 0.151944
355 0.145755
360 0.191803
365 0.158231
370 0.223881
375 0.244992
380 0.222567
385 0.237764
390 0.317676
395 0.504719
400 11.121
405 186.163
410 305.149
415 82.0343
420 11.4517
425 3.23574
430 2.6841
435 3.57184
440 4.48866
445 5.44028
450 7.32165
455 9.90968
460 13.4912
465 17.2902
470 18.1835
475 19.0966
480 20.0686
485 20.6155
490 20.7647
495 20.6995
500 20.8622
505 19.7695
510 18.8321
515 17.7676
520 16.3536
525 15.2248
530 14.0875
535 12.8209
540 11.5648
545 10.5095
550 9.20436
555 8.03558
560 7.13412
565 6.33106
570 5.29515
575 4.26251
580 3.36257
585 2.53888
590 2.02555
595 1.51493
600 1.21446
Ex : 418
200 0.0788372
205 0.123009
210 0.153178
215 0.137086
220 0.181693
225 0.145327
230 0.156629
235 0.135163
240 0.105624
245 0.139742
250 0.121851
255 0.117232
260 0.167731
265 0.198033
270 0.1453
275 0.127424
280 0.129553
285 0.148187
290 0.162047
295 0.172096
300 0.142466
305 0.171845
310 0.138906
315 0.131176
320 0.118633
325 0.130063
330 0.187322
335 0.151149
340 0.172175
345 0.128973
350 0.172693
355 0.169175
360 0.197168
365 0.111326
370 0.138196
375 0.168197
380 0.18153
385 0.187331
390 0.229273
395 0.344414
400 0.529733
405 10.8404
410 183.197
415 304.854
420 85.087
425 11.357
430 3.07274
435 2.63089
440 3.82746
445 4.80386
450 6.74065
455 8.84032
460 11.2123
465 14.1896
470 17.627
475 19.1998
480 18.9783
485 19.8345
490 20.0953
495 20.199
500 19.5809
505 18.9887
510 18.2363
515 17.2913
520 15.7147
525 14.8309
530 13.6768
535 12.3696
540 11.0457
545 10.0081
550 8.88788
555 7.98446
560 6.88116
565 6.10342
570 5.06194
575 3.9256
580 3.22318
585 2.57917
590 1.9577
595 1.54915
600 1.17694
Ex : 423
200 0.0854076
205 0.150643
210 0.101117
215 0.0849035
220 0.114827
225 0.170556
230 0.108352
235 0.10591
240 0.148826
245 0.0890404
250 0.102895
255 0.126896
260 0.100496
265 0.129848
270 0.131199
275 0.104022
280 0.143494
285 0.143653
290 0.121025
295 0.11418
300 0.163761
305 0.145714
310 0.149888
315 0.128555
320 0.160783
325 0.170889
330 0.128286
335 0.160145
340 0.132436
345 0.157729
350 0.128264
355 0.164902
360 0.132781
365 0.207171
370 0.204299
375 0.189594
380 0.194778
385 0.186292
390 0.221424
395 0.264978
400 0.451055
405 0.484414
410 11.7648
415 214.413
420 342.09
425 88.684
430 11.8752
435 3.37227
440 3.15678
445 4.36548
450 6.3111
455 8.01497
460 10.2222
465 11.8346
470 13.9787
475 17.0001
480 19.5629
485 19.099
490 18.7908
495 18.91
500 18.0885
505 17.5626
510 16.8299
515 15.8239
520 14.5118
525 13.4889
530 12.3198
535 11.3506
540 10.5049
545 9.47594
550 8.38572
555 7.55202
560 6.44997
565 5.46236
570 4.75141
575 3.73244
580 2.93672
585 2.2609
590 1.81408
595 1.457
600 0.810841
Ex : 428
200 0.126965
205 0.148663
210 0.142774
215 0.116702
220 0.139163
225 0.102011
230 0.11399
235 0.0902589
240 0.167828
245 0.17308
250 0.16174
255 0.151727
260 0.146719
265 0.162395
270 0.115171
275 0.140392
280 0.103895
285 0.124716
290 0.143754
295 0.184444
300 0.235448
305 0.157433
310 0.149584
315 0.151551
320 0.138662
325 0.144155
330 0.128415
335 0.196582
340 0.161702
345 0.146655
350 0.11955
355 0.169788
360 0.143153
365 0.161506
370 0.17314
375 0.182802
380 0.194881
385 0.169571
390 0.190338
395 0.271038
400 0.284003
405 0.343768
410 0.517165
415 13.2193
420 201.248
425 320.905
430 88.3335
435 11.8954
440 3.75681
445 3.93344
450 5.627
455 7.5405
460 8.81481
465 10.5881
470 12.0413
475 13.871
480 16.4765
485 18.7292
490 17.9293
495 17.5165
500 16.5112
505 15.7848
510 15.3305
515 14.2176
520 13.1399
525 12.1766
530 11.0847
535 10.5217
540 9.6757
545 8.31468
550 7.58502
555 6.73686
560 6.13626
565 5.25077
570 4.18073
575 3.28035
580 2.70272
585 2.01504
590 1.68052
595 1.32267
600 1.64799
Ex : 433
200 0.166519
205 0.114242
210 0.124305
215 0.15361
220 0.104386
225 0.0897513
230 0.156447
235 0.107443
240 0.13532
245 0.154789
250 0.105963
255 0.186003
260 0.166526
265 0.127003
270 0.149777
275 0.159281
280 0.134793
285 0.103371
290 0.140516
295 0.151634
300 0.162705
305 0.140018
310 0.182565
315 0.094536
320 0.117905
325 0.146722
330 0.104465
335 0.178584
340 0.210223
345 0.139446
350 0.170437
355 0.119778
360 0.170036
365 0.171891
370 0.194986
375 0.147489
380 0.168483
385 0.21238
390 0.17552
395 0.205043
400 0.202411
405 0.304527
410 0.33684
415 0.631765
420 14.3923
425 231.869
430 359.852
435 93.4764
440 13.1448
445 4.60409
450 4.80914
455 6.6606
460 7.96132
465 9.28343
470 10.3713
475 11.7545
480 13.0221
485 14.7345
490 16.7736
495 16.5108
500 15.2229
505 14.6087
510 14.018
515 12.4567
520 11.6415
525 10.7471
530 10.0303
535 9.04736
540 8.14088
545 7.40856
550 6.78631
555 5.91478
560 5.10239
565 4.66077
570 3.63116
575 3.06146
580 2.37064
585 1.91852
590 1.62665
595 1.26569
600 0.563342
Ex : 438
200 0.140347
205 0.13861
210 0.0889201
215 0.15177
220 0.169301
225 0.164919
230 0.183266
235 0.129936
240 0.164777
245 0.116556
250 0.151013
255 0.122282
260 0.111861
265 0.111703
270 0.11888
275 0.126867
280 0.126679
285 0.124391
290 0.185177
295 0.177936
300 0.134393
305 0.14299
310 0.190696
315 0.217068
320 0.153445
325 0.138752
330 0.16208
335 0.144094
340 0.187526
345 0.116122
350 0.18294
355 0.172728
360 0.14851
365 0.196491
370 0.148281
375 0.175464
380 0.125063
385 0.216358
390 0.204398
395 0.241138
400 0.213452
405 0.242957
410 0.282219
415 0.372656
420 0.571114
425 14.3904
430 227.804
435 362.931
440 96.5279
445 13.8755
450 5.42574
455 5.42041
460 6.97273
465 8.32408
470 8.96406
475 10.0966
480 11.1285
485 11.8716
490 12.7864
495 14.3773
500 14.5377
505 12.8109
510 12.1973
515 11.0011
520 9.75177
525 9.24119
530 8.49427
535 7.74925
540 6.99396
545 6.32651
550 5.70692
555 5.17013
560 4.60865
565 3.87112
570 3.15972
575 2.60727
580 2.06001
585 1.63767
590 1.26363
595 1.14432
600 0.739668
Ex : 443
200 0.124408
205 0.171941
210 0.15224
215 0.156955
220 0.179856
225 0.156281
230 0.126845
235 0.149
240 0.160458
245 0.126459
250 0.154511
255 0.13865
260 0.143799
265 0.094575
270 0.135015
275 0.102451
280 0.150758
285 0.184253
290 0.158032
295 0.103469
300 0.159164
305 0.15269
310 0.119868
315 0.175139
320 0.137332
325 0.228712
330 0.158036
335 0.0898382
340 0.142704
345 0.173297
350 0.175122
355 0.138022
360 0.128769
365 0.163645
370 0.17619
375 0.168132
380 0.133403
385 0.208285
390 0.139916
395 0.166321
400 0.153269
405 0.218561
410 0.261044
415 0.310762
420 0.406567
425 0.559939
430 16.2281
435 242.039
440 369.03
445 96.3435
450 14.154
455 5.77113
460 5.52782
465 6.51832
470 7.72189
475 8.22352
480 8.6834
485 9.05099
490 9.68418
495 10.0405
500 11.3135
505 11.9205
510 10.6332
515 9.26545
520 8.27369
525 7.99666
530 7.09553
535 6.47014
540 5.71378
545 4.93984
550 4.80717
555 4.20496
560 3.81176
565 3.32329
570 2.74014
575 2.19207
580 1.95997
585 1.4201
590 1.10922
595 0.930591
600 0.875338
Ex : 448
200 0.146596
205 0.165321
210 0.163192
215 0.154646
220 0.135536
225 0.137819
230 0.121524
235 0.116712
240 0.186664
245 0.139302
250 0.201777
255 0.144595
260 0.144333
265 0.134017
270 0.146936
275 0.19804
280 0.195935
285 0.143525
290 0.172346
295 0.160513
300 0.151203
305 0.16147
310 0.126419
315 0.132561
320 0.130284
325 0.163507
330 0.169948
335 0.142465
340 0.164246
345 0.13812
350 0.117525
355 0.147957
360 0.107812
365 0.183353
370 0.146367
375 0.170597
380 0.193836
385 0.181197
390 0.226001
395 0.160486
400 0.164038
405 0.227824
410 0.209367
415 0.318893
420 0.30391
425 0.398981
430 0.596573
435 16.6403
440 263.222
445 398.214
450 104.834
455 15.4768
460 5.728
465 5.02328
470 5.7932
475 6.69796
480 6.90903
485 7.23801
490 7.30386
495 7.28355
500 7.4396
505 8.03336
510 9.54741
515 8.31823
520 7.09846
525 6.63296
530 5.62284
535 5.13075
540 4.64362
545 4.18981
550 3.69942
555 3.36199
560 2.9222
565 2.59332
570 2.39366
575 1.88759
580 1.43129
585 1.11922
590 0.933984
595 0.782586
600 1.1334
Ex : 453
200 0.0980555
205 0.0984993
210 0.147834
215 0.198242
220 0.133436
225 0.166953
230 0.102469
235 0.144746
240 0.166239
245 0.164128
250 0.102913
255 0.132391
260 0.14204
265 0.119468
270 0.150377
275 0.158518
280 0.159812
285 0.155339
290 0.146704
295 0.16018
300 0.132057
305 0.176647
310 0.157984
315 0.102724
320 0.131152
325 0.119999
330 0.14145
335 0.17235
340 0.150174
345 0.145292
350 0.118531
355 0.175279
360 0.167512
365 0.0988555
370 0.178796
375 0.167203
380 0.171597
385 0.169392
390 0.204794
395 0.141263
400 0.203254
405 0.262827
410 0.183478
415 0.208132
420 0.285935
425 0.327244
430 0.473843
435 0.624112
440 18.2874
445 311.502
450 442.853
455 105.502
460 14.9134
465 5.04261
470 3.95334
475 4.4955
480 5.2488
485 5.38557
490 5.22798
495 5.17691
500 5.24943
505 5.31491
510 5.60917
515 6.78325
520 6.61247
525 5.33048
530 4.84155
535 4.04468
540 3.56689
545 3.25758
550 2.88372
555 2.5937
560 2.39331
565 2.10879
570 1.76783
575 1.35628
580 1.13533
585 0.956229
590 0.739348
595 0.625726
600 0.781287
Ex : 458
200 0.126741
205 0.150708
210 0.139754
215 0.147348
220 0.127858
225 0.138761
230 0.163491
235 0.106357
240 0.151236
245 0.1544
250 0.160822
255 0.110043
260 0.125574
265 0.14947
270 0.146212
275 0.158554
280 0.150197
285 0.1518
290 0.136059
295 0.154341
300 0.16608
305 0.127616
310 0.160726
315 0.119957
320 0.144437
325 0.160995
330 0.171476
335 0.159591
340 0.1725
345 0.14816
350 0.185151
355 0.149494
360 0.10962
365 0.125025
370 0.139886
375 0.140742
380 0.1648
385 0.138415
390 0.153748
395 0.174037
400 0.196205
405 0.162832
410 0.170713
415 0.190914
420 0.237166
425 0.284178
430 0.279978
435 0.454531
440 0.714459
445 19.7985
450 281.115
455 414.996
460 104.377
465 14.4135
470 4.18857
475 3.37229
480 3.55678
485 3.87266
490 4.00344
495 4.09583
500 3.69541
505 3.78426
510 3.63179
515 3.77773
520 4.67372
525 5.3673
530 4.04437
535 3.43262
540 2.98656
545 2.62279
550 2.23788
555 2.0897
560 1.85171
565 1.43717
570 1.42859
575 1.25161
580 1.03268
585 0.718597
590 0.587123
595 0.56597
600 0.64751
Ex : 463
200 0.14269
205 0.115109
210 0.125596
215 0.141539
220 0.165681
225 0.180718
230 0.140587
235 0.0981978
240 0.10841
245 0.139162
250 0.144903
255 0.160673
260 0.143782
265 0.174976
270 0.153723
275 0.119292
280 0.176487
285 0.156372
290 0.170541
295 0.179143
300 0.169493
305 0.147653
310 0.156369
315 0.137862
320 0.155646
325 0.147548
330 0.165982
335 0.120489
340 0.128907
345 0.151906
350 0.116855
355 0.143518
360 0.168267
365 0.131714
370 0.175285
375 0.181519
380 0.160686
385 0.137208
390 0.208287
395 0.214579
400 0.209742
405 0.138533
410 0.160306
415 0.249015
420 0.193889
425 0.273598
430 0.261641
435 0.377114
440 0.534239
445 0.70787
450 18.3864
455 290.474
460 446.985
465 111.672
470 14.7552
475 3.87159
480 2.8082
485 2.69909
490 3.01572
495 3.05504
500 2.82391
505 2.67207
510 2.55309
515 2.60856
520 2.50609
525 3.27136
530 4.33802
535 3.7386
540 2.70217
545 2.512
550 2.21728
555 1.76916
560 1.54733
565 1.38169
570 1.11566
575 1.0402
580 0.815062
585 0.653981
590 0.505339
595 0.438601
600 0.488973
Ex : 468
200 0.106871
205 0.102431
210 0.136687
215 0.123358
220 0.123425
225 0.106184
230 0.13246
235 0.145995
240 0.144537
245 0.170771
250 0.14743
255 0.13803
260 0.113245
265 0.112645
270 0.118973
275 0.153342
280 0.136888
285 0.173337
290 0.126807
295 0.154105
300 0.134087
305 0.127075
310 0.133784
315 0.140001
320 0.140174
325 0.190974
330 0.145168
335 0.167166
340 0.165923
345 0.192298
350 0.157516
355 0.141359
360 0.174234
365 0.18502
370 0.169252
375 0.125424
380 0.104242
385 0.144611
390 0.191386
395 0.18385
400 0.146869
405 0.147263
410 0.179709
415 0.224371
420 0.176389
425 0.157228
430 0.21877
435 0.250958
440 0.387282
445 0.489716
450 0.853083
455 21.1289
460 359.442
465 567.986
470 131.137
475 16.742
480 3.76663
485 2.18713
490 2.14056
495 2.35539
500 2.33518
505 2.19873
510 2.05213
515 2.09953
520 2.11567
525 2.06797
530 2.36033
535 3.45421
540 3.4802
545 2.43878
550 2.1018
555 1.82911
560 1.54777
565 1.14852
570 1.11647
575 0.904794
580 0.678247
585 0.647838
590 0.53761
595 0.43059
600 0.553845
Ex : 473
200 0.120625
205 0.159715
210 0.144634
215 0.103907
220 0.124668
225 0.201455
230 0.138176
235 0.162318
240 0.174242
245 0.178209
250 0.139499
255 0.171495
260 0.12245
265 0.157254
270 0.160014
275 0.140249
280 0.140378
285 0.179208
290 0.121469
295 0.151793
300 0.207907
305 0.171173
310 0.123694
315 0.114516
320 0.0961482
325 0.156438
330 0.135277
335 0.154756
340 0.12785
345 0.127648
350 0.145069
355 0.140581
360 0.161659
365 0.144722
370 0.134348
375 0.125606
380 0.145663
385 0.125535
390 0.170913
395 0.146156
400 0.163242
405 0.170246
410 0.179668
415 0.202983
420 0.213759
425 0.222848
430 0.254629
435 0.229386
440 0.259302
445 0.36995
450 0.463669
455 0.772556
460 23.6121
465 322.563
470 460.661
475 114.34
480 14.7492
485 3.34664
490 1.88514
495 1.77783
500 2.01633
505 2.00508
510 1.92135
515 1.98683
520 1.70461
525 1.71629
530 1.79289
535 1.84796
540 2.57487
545 3.26004
550 2.38871
555 1.64353
560 1.59429
565 1.3943
570 1.08135
575 0.890865
580 0.746877
585 0.738223
590 0.5255
595 0.535534
600 0.178579
Ex : 478
200 0.196305
205 0.202014
210 0.181564
215 0.167673
220 0.162852
225 0.189839
230 0.152193
235 0.190435
240 0.166165
245 0.172044
250 0.168953
255 0.210122
260 0.160586
265 0.142147
270 0.140765
275 0.166712
280 0.16375
285 0.155296
290 0.19265
295 0.149591
300 0.193342
305 0.217884
310 0.14669
315 0.187945
320 0.172314
325 0.171626
330 0.184101
335 0.182215
340 0.201681
345 0.14303
350 0.172084
355 0.157508
360 0.190254
365 0.180163
370 0.180005
375 0.189474
380 0.208491
385 0.266303
390 0.216782
395 0.209131
400 0.155783
405 0.180518
410 0.179917
415 0.206889
420 0.210093
425 0.173664
430 0.165114
435 0.169453
440 0.259999
445 0.283057
450 0.379799
455 0.563046
460 0.830732
465 25.0169
470 332.083
475 464.815
480 112.159
485 14.4039
490 3.05068
495 1.71135
500 1.50824
505 1.84931
510 1.80676
515 1.72787
520 1.60229
525 1.46934
530 1.48487
535 1.53818
540 1.61107
545 2.16238
550 3.01682
555 2.31706
560 1.85091
565 1.40355
570 1.27958
575 0.945988
580 0.718546
585 0.593658
590 0.477333
595 0.471919
600 0.606794
Ex : 483
200 0.116492
205 0.157906
210 0.189102
215 0.195715
220 0.165061
225 0.129874
230 0.217842
235 0.157683
240 0.170791
245 0.139213
250 0.124714
255 0.143633
260 0.12579
265 0.187946
270 0.167898
275 0.149261
280 0.127547
285 0.146537
290 0.125916
295 0.145607
300 0.143785
305 0.162473
310 0.204325
315 0.192641
320 0.153255
325 0.194059
330 0.199114
335 0.189171
340 0.142292
345 0.183681
350 0.154012
355 0.199077
360 0.180884
365 0.188025
370 0.225494
375 0.146624
380 0.176824
385 0.168543
390 0.208035
395 0.195898
400 0.228818
405 0.225677
410 0.195515
415 0.183864
420 0.162166
425 0.177621
430 0.212477
435 0.228259
440 0.166062
445 0.311417
450 0.277293
455 0.363055
460 0.538339
465 0.834864
470 18.7916
475 331.441
480 502.012
485 128.202
490 16.1035
495 3.09782
500 1.67114
505 1.42877
510 1.4394
515 1.63999
520 1.61879
525 1.45523
530 1.36611
535 1.4608
540 1.5022
545 1.31605
550 1.55223
555 2.47939
560 2.48145
565 1.7913
570 1.20293
575 1.00074
580 0.842136
585 0.696007
590 0.533558
595 0.431848
600 0.580247
Ex : 488
200 0.158234
205 0.206991
210 0.154484
215 0.214204
220 0.183997
225 0.269709
230 0.192403
235 0.192991
240 0.220818
245 0.123677
250 0.154283
255 0.287794
260 0.202139
265 0.205647
270 0.123662
275 0.130903
280 0.157304
285 0.198541
290 0.185196
295 0.218449
300 0.213165
305 0.222869
310 0.192643
315 0.190167
320 0.157371
325 0.151425
330 0.186575
335 0.222578
340 0.152704
345 0.155987
350 0.144669
355 0.167984
360 0.199533
365 0.148122
370 0.231721
375 0.239901
380 0.172267
385 0.183241
390 0.18069
395 0.187143
400 0.19829
405 0.224177
410 0.23491
415 0.262194
420 0.264028
425 0.219241
430 0.214561
435 0.2264
440 0.224101
445 0.325801
450 0.313588
455 0.325374
460 0.448655
465 0.588809
470 0.736628
475 23.2816
480 361.392
485 493.361
490 118.618
495 14.914
500 2.94637
505 1.46424
510 1.2682
515 1.40838
520 1.67608
525 1.568
530 1.41157
535 1.33038
540 1.34494
545 1.34669
550 1.14779
555 1.29447
560 1.88396
565 2.27349
570 1.51531
575 1.18366
580 0.997931
585 0.800196
590 0.641421
595 0.482021
600 0.329644
Ex : 493
200 0.176027
205 0.119077
210 0.145388
215 0.173507
220 0.146923
225 0.119424
230 0.153158
235 0.152742
240 0.154518
245 0.192327
250 0.129145
255 0.160719
260 0.128579
265 0.208296
270 0.192187
275 0.162808
280 0.131342
285 0.133403
290 0.18557
295 0.184912
300 0.181179
305 0.144686
310 0.141127
315 0.152112
320 0.219678
325 0.176302
330 0.164782
335 0.233143
340 0.185194
345 0.178645
350 0.230749
355 0.161602
360 0.220072
365 0.158785
370 0.241371
375 0.180099
380 0.209043
385 0.18197
390 0.164708
395 0.198243
400 0.229018
405 0.290717
410 0.227241
415 0.187614
420 0.204658
425 0.176312
430 0.17927
435 0.184656
440 0.231775
445 0.269408
450 0.29198
455 0.253077
460 0.367408
465 0.413915
470 0.573635
475 0.641935
480 20.2641
485 320.237
490 474.36
495 138.216
500 17.0794
505 3.18545
510 1.47582
515 1.2883
520 1.46137
525 1.72632
530 1.67397
535 1.31931
540 1.46308
545 1.17397
550 1.18915
555 1.00627
560 1.18841
565 1.29207
570 2.01007
575 1.8034
580 0.963768
585 0.77459
590 0.59421
595 0.520809
600 0.733185
Ex : 498
200 0.212479
205 0.213626
210 0.166609
215 0.215704
220 0.21231
225 0.169754
230 0.153929
235 0.189876
240 0.165437
245 0.198905
250 0.181929
255 0.229911
260 0.123955
265 0.223772
270 0.215346
275 0.15798
280 0.260868
285 0.193453
290 0.171117
295 0.213462
300 0.201281
305 0.244501
310 0.21347
315 0.191335
320 0.206833
325 0.177803
330 0.193934
335 0.208417
340 0.196536
345 0.214506
350 0.155981
355 0.180749
360 0.162124
365 0.204036
370 0.191882
375 0.222551
380 0.249025
385 0.209931
390 0.238979
395 0.206389
400 0.313957
405 0.218669
410 0.14352
415 0.180057
420 0.222865
425 0.247092
430 0.228048
435 0.216248
440 0.283353
445 0.252274
450 0.269836
455 0.292188
460 0.379059
465 0.46641
470 0.475184
475 0.537572
480 0.757138
485 23.2442
490 325.963
495 451.62
500 108.067
505 13.5662
510 2.73895
515 1.34199
520 1.17289
525 1.35288
530 1.71604
535 1.43347
540 1.54636
545 1.26422
550 1.0041
555 1.17406
560 1.03337
565 0.909858
570 1.08165
575 1.53875
580 1.57483
585 0.939236
590 0.599207
595 0.542183
600 0.437776
Ex : 503
200 0.236468
205 0.169988
210 0.228391
215 0.170114
220 0.174266
225 0.208308
230 0.167009
235 0.171169
240 0.183122
245 0.171953
250 0.184667
255 0.178547
260 0.1794
265 0.186424
270 0.220304
275 0.169866
280 0.164541
285 0.174511
290 0.228182
295 0.220842
300 0.156417
305 0.241679
310 0.172629
315 0.176812
320 0.177982
325 0.175851
330 0.275304
335 0.172845
340 0.178569
345 0.252949
350 0.252203
355 0.165745
360 0.24271
365 0.150195
370 0.172463
375 0.155427
380 0.202731
385 0.212882
390 0.226241
395 0.200635
400 0.164822
405 0.217738
410 0.208104
415 0.205872
420 0.182228
425 0.232018
430 0.242986
435 0.246264
440 0.231492
445 0.189611
450 0.29848
455 0.254615
460 0.310655
465 0.321487
470 0.312674
475 0.46953
480 0.691407
485 0.891498
490 24.3111
495 355.46
500 473.413
505 112.463
510 14.0003
515 2.80188
520 1.45762
525 1.17486
530 1.20981
535 1.50031
540 1.33158
545 1.31963
550 1.2077
555 1.15148
560 1.1186
565 1.0364
570 1.01938
575 0.853382
580 0.948808
585 1.29977
590 0.971049
595 0.600555
600 0.685518
Ex : 508
200 0.189484
205 0.173298
210 0.165905
215 0.212868
220 0.195199
225 0.261131
230 0.219998
235 0.170691
240 0.252843
245 0.196256
250 0.227575
255 0.182899
260 0.198979
265 0.177275
270 0.25697
275 0.229857
280 0.144036
285 0.188234
290 0.141877
295 0.329148
300 0.267883
305 0.223035
310 0.219305
315 0.263026
320 0.171255
325 0.267181
330 0.248223
335 0.279503
340 0.25348
345 0.226652
350 0.267188
355 0.188044
360 0.233323
365 0.290491
370 0.212808
375 0.238169
380 0.141952
385 0.259161
390 0.213924
395 0.207998
400 0.228539
405 0.200715
410 0.23409
415 0.20386
420 0.286667
425 0.164616
430 0.221192
435 0.240886
440 0.246607
445 0.260388
450 0.256762
455 0.277948
460 0.268114
465 0.358089
470 0.373369
475 0.324729
480 0.399965
485 0.425906
490 0.726722
495 22.5738
500 317.88
505 471.601
510 120.197
515 15.0132
520 2.92171
525 1.50486
530 1.22601
535 1.21557
540 1.35501
545 1.46583
550 1.42621
555 1.2089
560 0.99395
565 0.947391
570 0.819586
575 0.715261
580 0.690481
585 0.766072
590 0.997448
595 0.998032
600 1.17785
Ex : 513
200 0.199159
205 0.192116
210 0.185731
215 0.244408
220 0.171946
225 0.164907
230 0.211318
235 0.181212
240 0.18536
245 0.159758
250 0.206884
255 0.117989
260 0.231364
265 0.169854
270 0.200674
275 0.230951
280 0.194962
285 0.219233
290 0.19331
295 0.205288
300 0.260988
305 0.266744
310 0.149841
315 0.231579
320 0.227882
325 0.220048
330 0.201959
335 0.187885
340 0.18909
345 0.212958
350 0.286543
355 0.240285
360 0.226446
365 0.207132
370 0.193512
375 0.247928
380 0.207989
385 0.162309
390 0.215718
395 0.228964
400 0.247682
405 0.31641
410 0.196291
415 0.292016
420 0.20207
425 0.235223
430 0.199043
435 0.285229
440 0.244562
445 0.260459
450 0.270708
455 0.29018
460 0.315764
465 0.230837
470 0.286532
475 0.348184
480 0.394326
485 0.369427
490 0.537718
495 0.761117
500 19.4526
505 302.473
510 458.021
515 118.12
520 14.9466
525 2.76486
530 1.65634
535 1.39305
540 1.0777
545 1.18671
550 1.23884
555 1.16346
560 0.969877
565 0.912417
570 0.849239
575 0.840737
580 0.634085
585 0.597147
590 0.549693
595 0.776061
600 1.04592
Ex : 518
200 0.128806
205 0.196654
210 0.168042
215 0.181432
220 0.192411
225 0.189329
230 0.23383
235 0.244162
240 0.200271
245 0.335053
250 0.25201
255 0.298108
260 0.139538
265 0.15928
270 0.174514
275 0.220809
280 0.209019
285 0.142383
290 0.216135
295 0.282846
300 0.248526
305 0.195267
310 0.177026
315 0.187091
320 0.153061
325 0.17728
330 0.234439
335 0.142736
340 0.174505
345 0.258615
350 0.270334
355 0.149731
360 0.206932
365 0.23582
370 0.194871
375 0.222162
380 0.171803
385 0.161736
390 0.182721
395 0.218537
400 0.192796
405 0.26828
410 0.23716
415 0.25814
420 0.232049
425 0.18335
430 0.287037
435 0.286673
440 0.304286
445 0.27779
450 0.234389
455 0.267949
460 0.212245
465 0.255892
470 0.296631
475 0.303565
480 0.329111
485 0.284876
490 0.425602
495 0.561057
500 0.858493
505 22.641
510 466.792
515 784.63
520 155.423
525 19.1204
530 3.23405
535 1.40381
540 1.18531
545 1.15514
550 1.09368
555 1.18088
560 0.931942
565 1.06703
570 0.727019
575 0.683881
580 0.525692
585 0.554423
590 0.55545
595 0.493549
600 0.483094
Ex : 523
200 0.241441
205 0.214719
210 0.179285
215 0.211889
220 0.199124
225 0.226261
230 0.205196
235 0.143273
240 0.233301
245 0.174694
250 0.223059
255 0.223949
260 0.221346
265 0.336284
270 0.286315
275 0.155909
280 0.194747
285 0.231567
290 0.226174
295 0.189504
300 0.215228
305 0.254569
310 0.171943
315 0.192435
320 0.273903
325 0.221859
330 0.184356
335 0.261265
340 0.252351
345 0.157132
350 0.166045
355 0.264059
360 0.262017
365 0.191637
370 0.29113
375 0.253124
380 0.210271
385 0.242986
390 0.301876
395 0.258578
400 0.177162
405 0.243351
410 0.201262
415 0.226525
420 0.220043
425 0.255524
430 0.26527
435 0.233354
440 0.217632
445 0.357804
450 0.322154
455 0.286433
460 0.285353
465 0.21307
470 0.324511
475 0.259522
480 0.296134
485 0.376708
490 0.358627
495 0.394322
500 0.597193
505 0.850925
510 18.8206
515 304.052
520 466.448
525 123.351
530 15.366
535 2.84315
540 1.4144
545 1.11171
550 1.0011
555 0.991221
560 1.11854
565 1.01005
570 0.848612
575 0.787349
580 0.54829
585 0.542523
590 0.46953
595 0.37558
600 0.26429
Ex : 528
200 0.135339
205 0.212151
210 0.204683
215 0.249026
220 0.324371
225 0.206755
230 0.24019
235 0.250073
240 0.218509
245 0.289465
250 0.149528
255 0.244723
260 0.304822
265 0.205563
270 0.206977
275 0.21222
280 0.205944
285 0.202219
290 0.315113
295 0.233387
300 0.16655
305 0.186284
310 0.192864
315 0.239586
320 0.26945
325 0.17337
330 0.334049
335 0.203255
340 0.220125
345 0.241197
350 0.231181
355 0.257819
360 0.254745
365 0.289272
370 0.310349
375 0.245076
380 0.276234
385 0.207745
390 0.260322
395 0.176457
400 0.225033
405 0.232536
410 0.178895
415 0.245184
420 0.248621
425 0.247511
430 0.339827
435 0.253166
440 0.23874
445 0.206165
450 0.290531
455 0.283805
460 0.256838
465 0.29299
470 0.347537
475 0.319496
480 0.358945
485 0.306498
490 0.354853
495 0.343912
500 0.378827
505 0.546003
510 0.79889
515 16.7224
520 279.716
525 439.466
530 112.484
535 14.2682
540 2.67518
545 1.30617
550 1.1187
555 0.882696
560 0.892431
565 0.965781
570 0.872434
575 0.692341
580 0.648924
585 0.367998
590 0.32817
595 0.399434
600 0.63471
Ex : 533
200 0.288172
205 0.254258
210 0.177607
215 0.251028
220 0.243869
225 0.267127
230 0.236569
235 0.177262
240 0.286889
245 0.242828
250 0.292098
255 0.206508
260 0.181466
265 0.196039
270 0.164284
275 0.216036
280 0.222166
285 0.273269
290 0.292759
295 0.247317
300 0.242777
305 0.163048
310 0.217014
315 0.228632
320 0.234241
325 0.186014
330 0.182862
335 0.230483
340 0.202944
345 0.231586
350 0.235567
355 0.26982
360 0.311727
365 0.24369
370 0.216355
375 0.219731
380 0.324184
385 0.286465
390 0.264085
395 0.230766
400 0.256694
405 0.280015
410 0.203532
415 0.20079
420 0.271464
425 0.327889
430 0.231663
435 0.175335
440 0.274247
445 0.348528
450 0.339403
455 0.324805
460 0.22575
465 0.276881
470 0.30095
475 0.25966
480 0.255277
485 0.32011
490 0.296518
495 0.345942
500 0.418597
505 0.413641
510 0.513554
515 0.862212
520 18.6634
525 303.412
530 451.287
535 123.151
540 15.3702
545 2.66035
550 1.27933
555 0.994236
560 0.709946
565 0.717605
570 0.910584
575 0.819283
580 0.725891
585 0.60093
590 0.512568
595 0.48703
600 0.951104
Ex : 538
200 0.1875
205 0.219727
210 0.184867
215 0.201282
220 0.215327
225 0.2091
230 0.205537
235 0.245294
240 0.207313
245 0.167119
250 0.233275
255 0.232609
260 0.166726
265 0.214533
270 0.261957
275 0.233685
280 0.208188
285 0.232432
290 0.205955
295 0.205763
300 0.223214
305 0.195024
310 0.307997
315 0.216111
320 0.188085
325 0.243632
330 0.306086
335 0.205369
340 0.195832
345 0.283023
350 0.226024
355 0.228248
360 0.253202
365 0.237395
370 0.170369
375 0.212546
380 0.252714
385 0.180352
390 0.225196
395 0.199055
400 0.178756
405 0.255435
410 0.232907
415 0.303686
420 0.224552
425 0.238497
430 0.301772
435 0.295542
440 0.212383
445 0.221588
450 0.210147
455 0.371745
460 0.267653
465 0.342073
470 0.409654
475 0.287763
480 0.258797
485 0.34202
490 0.351574
495 0.32314
500 0.298439
505 0.358852
510 0.399863
515 0.542667
520 0.944879
525 16.4119
530 291.337
535 474.016
540 141.818
545 17.4062
550 2.91882
555 1.20276
560 0.908025
565 0.74869
570 0.711573
575 0.714397
580 0.698513
585 0.496082
590 0.370786
595 0.40415
600 0.0459907
Ex : 543
200 0.199108
205 0.219579
210 0.147787
215 0.253789
220 0.255567
225 0.229991
230 0.296665
235 0.197261
240 0.260336
245 0.265358
250 0.196594
255 0.273501
260 0.236195
265 0.247375
270 0.168033
275 0.203828
280 0.213597
285 0.238705
290 0.185995
295 0.277977
300 0.223728
305 0.259359
310 0.236391
315 0.206574
320 0.164791
325 0.197053
330 0.208053
335 0.241316
340 0.26659
345 0.176077
350 0.243741
355 0.275274
360 0.186938
365 0.251862
370 0.311912
375 0.2353
380 0.300786
385 0.295204
390 0.282842
395 0.218284
400 0.292993
405 0.227871
410 0.208846
415 0.28034
420 0.309877
425 0.335042
430 0.217941
435 0.303994
440 0.385463
445 0.326079
450 0.250714
455 0.306886
460 0.39751
465 0.274392
470 0.291462
475 0.304917
480 0.218673
485 0.295846
490 0.273993
495 0.333374
500 0.35948
505 0.387672
510 0.431694
515 0.423523
520 0.450467
525 0.77095
530 13.3052
535 243.97
540 402.548
545 120.473
550 14.9686
555 2.64706
560 1.00828
565 0.848252
570 0.586952
575 0.590004
580 0.541268
585 0.546437
590 0.482084
595 0.378711
600 0.744048
Ex : 548
200 0.250312
205 0.232745
210 0.228919
215 0.192764
220 0.35727
225 0.25835
230 0.196372
235 0.212203
240 0.296147
245 0.313764
250 0.269829
255 0.212567
260 0.223199
265 0.281702
270 0.159312
275 0.218623
280 0.281036
285 0.208973
290 0.229564
295 0.244073
300 0.267266
305 0.2617
310 0.217054
315 0.26414
320 0.167371
325 0.221335
330 0.264486
335 0.263803
340 0.264632
345 0.281431
350 0.244635
355 0.272291
360 0.28082
365 0.186952
370 0.215668
375 0.236291
380 0.300275
385 0.257647
390 0.292789
395 0.349536
400 0.416849
405 0.266653
410 0.256553
415 0.283961
420 0.328709
425 0.234826
430 0.264965
435 0.246017
440 0.196165
445 0.245301
450 0.333699
455 0.361609
460 0.268776
465 0.320103
470 0.333069
475 0.320373
480 0.330536
485 0.192879
490 0.284624
495 0.388335
500 0.251415
505 0.414949
510 0.29749
515 0.375886
520 0.397578
525 0.583233
530 0.665483
535 15.0829
540 289.899
545 483.969
550 132.912
555 16.2358
560 2.58539
565 0.973945
570 0.782659
575 0.568487
580 0.455018
585 0.527883
590 0.509557
595 0.471325
600 0.116191
Ex : 553
200 0.207922
205 0.327729
210 0.226563
215 0.28438
220 0.207137
225 0.292266
230 0.242089
235 0.197669
240 0.228159
245 0.226691
250 0.282064
255 0.275194
260 0.231796
265 0.190513
270 0.351849
275 0.25001
280 0.282525
285 0.26002
290 0.24806
295 0.197411
300 0.288899
305 0.226973
310 0.219229
315 0.35131
320 0.346397
325 0.291875
330 0.379564
335 0.19623
340 0.305299
345 0.287415
350 0.303029
355 0.321643
360 0.222206
365 0.254868
370 0.179289
375 0.254489
380 0.264641
385 0.299414
390 0.29181
395 0.352809
400 0.333424
405 0.227067
410 0.291114
415 0.225714
420 0.217782
425 0.271635
430 0.314357
435 0.334959
440 0.319537
445 0.284632
450 0.344264
455 0.307661
460 0.256019
465 0.333052
470 0.318767
475 0.333205
480 0.244374
485 0.271473
490 0.295246
495 0.310879
500 0.368372
505 0.39208
510 0.419161
515 0.316954
520 0.361646
525 0.392397
530 0.675402
535 0.783983
540 12.986
545 330.502
550 503.163
555 129.025
560 15.8674
565 2.62389
570 0.972032
575 0.755463
580 0.527989
585 0.414386
590 0.460572
595 0.344538
600 0.0444822
Ex : 558
200 0.292669
205 0.285995
210 0.318264
215 0.276381
220 0.218778
225 0.199475
230 0.15059
235 0.328609
240 0.25703
245 0.272866
250 0.334923
255 0.274513
260 0.237953
265 0.240935
270 0.187447
275 0.354679
280 0.193781
285 0.169268
290 0.199489
295 0.178727
300 0.207198
305 0.222687
310 0.298979
315 0.230356
320 0.26106
325 0.358858
330 0.254391
335 0.271406
340 0.221115
345 0.241772
350 0.239732
355 0.313425
360 0.28532
365 0.26653
370 0.273764
375 0.217674
380 0.276186
385 0.320236
390 0.260659
395 0.223684
400 0.335362
405 0.337688
410 0.300299
415 0.297304
420 0.309979
425 0.309981
430 0.376755
435 0.328453
440 0.450104
445 0.247569
450 0.273034
455 0.299557
460 0.295385
465 0.328357
470 0.364195
475 0.282296
480 0.38737
485 0.269574
490 0.311466
495 0.319145
500 0.340876
505 0.361634
510 0.368188
515 0.292793
520 0.331366
525 0.490872
530 0.534712
535 0.595229
540 0.979918
545 14.4834
550 283.949
555 413.964
560 120.113
565 14.8389
570 2.34556
575 0.937488
580 0.658063
585 0.456474
590 0.417874
595 0.469033
600 0.141444
Ex : 563
200 0.29436
205 0.273621
210 0.296971
215 0.252991
220 0.248056
225 0.273282
230 0.242594
235 0.220819
240 0.333143
245 0.30054
250 0.245994
255 0.306117
260 0.247208
265 0.194337
270 0.148171
275 0.185896
280 0.214238
285 0.201429
290 0.20348
295 0.24641
300 0.246686
305 0.321701
310 0.331603
315 0.206652
320 0.239607
325 0.242009
330 0.245158
335 0.292183
340 0.255682
345 0.368123
350 0.2744
355 0.219855
360 0.247047
365 0.364353
370 0.326129
375 0.300181
380 0.274735
385 0.375313
390 0.40068
395 0.323469
400 0.257443
405 0.298655
410 0.30001
415 0.289982
420 0.327318
425 0.31808
430 0.244553
435 0.296368
440 0.29188
445 0.400393
450 0.331212
455 0.363972
460 0.232686
465 0.338928
470 0.304878
475 0.302635
480 0.290221
485 0.307057
490 0.230408
495 0.35391
500 0.363234
505 0.219962
510 0.301252
515 0.271314
520 0.432868
525 0.403468
530 0.408228
535 0.431115
540 0.634278
545 0.837877
550 14.9746
555 261.87
560 411.125
565 119.348
570 14.5817
575 2.18443
580 0.712652
585 0.62705
590 0.520716
595 0.475276
600 0.389251
Ex : 568
200 0.29803
205 0.244675
210 0.347366
215 0.387076
220 0.330446
225 0.278799
230 0.259309
235 0.247003
240 0.274283
245 0.306444
250 0.16895
255 0.15171
260 0.21342
265 0.233331
270 0.264909
275 0.289076
280 0.365257
285 0.28267
290 0.286728
295 0.262963
300 0.198678
305 0.289452
310 0.179027
315 0.195658
320 0.287875
325 0.277855
330 0.281853
335 0.307078
340 0.238041
345 0.325989
350 0.270765
355 0.306068
360 0.348579
365 0.201011
370 0.303589
375 0.283108
380 0.23693
385 0.265153
390 0.233852
395 0.246201
400 0.383334
405 0.255391
410 0.278705
415 0.22532
420 0.228469
425 0.189339
430 0.208607
435 0.304078
440 0.361357
445 0.251456
450 0.281956
455 0.282101
460 0.28192
465 0.296099
470 0.342244
475 0.269127
480 0.305222
485 0.289751
490 0.303321
495 0.308074
500 0.250225
505 0.247888
510 0.342122
515 0.424975
520 0.433624
525 0.317067
530 0.3438
535 0.363566
540 0.393196
545 0.599305
550 0.727293
555 9.67791
560 198.725
565 364.219
570 114.838
575 14.2207
580 2.10208
585 0.892876
590 0.565441
595 0.435041
600 0.188518
Ex : 573
200 0.169805
205 0.194727
210 0.278477
215 0.345605
220 0.334345
225 0.279413
230 0.227795
235 0.238714
240 0.225579
245 0.229137
250 0.22632
255 0.289334
260 0.276865
265 0.209378
270 0.232913
275 0.219164
280 0.199162
285 0.241233
290 0.316953
295 0.299934
300 0.237157
305 0.272642
310 0.32337
315 0.438079
320 0.343333
325 0.249995
330 0.293249
335 0.29719
340 0.261527
345 0.309183
350 0.401206
355 0.322233
360 0.403344
365 0.313961
370 0.217164
375 0.269237
380 0.298634
385 0.217568
390 0.282146
395 0.309109
400 0.322939
405 0.315085
410 0.311457
415 0.28809
420 0.309355
425 0.272391
430 0.27224
435 0.31128
440 0.378432
445 0.26032
450 0.221831
455 0.236512
460 0.355068
465 0.371633
470 0.353445
475 0.335141
480 0.390487
485 0.341855
490 0.262611
495 0.316414
500 0.29196
505 0.295685
510 0.306148
515 0.319452
520 0.305583
525 0.414926
530 0.334195
535 0.385677
540 0.416906
545 0.380382
550 0.560226
555 0.7016
560 8.96066
565 207.984
570 469.798
575 143.25
580 17.4295
585 2.48584
590 0.717961
595 0.497807
600 0.0566485
Ex : 578
200 0.199336
205 0.341836
210 0.209175
215 0.410567
220 0.276138
225 0.311402
230 0.242646
235 0.298364
240 0.353582
245 0.205221
250 0.228695
255 0.281763
260 0.323067
265 0.299145
270 0.302081
275 0.305696
280 0.24819
285 0.353953
290 0.364557
295 0.280175
300 0.237925
305 0.311164
310 0.292713
315 0.397921
320 0.336139
325 0.244939
330 0.280668
335 0.22516
340 0.297082
345 0.353363
350 0.352415
355 0.24476
360 0.265492
365 0.248073
370 0.26758
375 0.244611
380 0.217294
385 0.222998
390 0.259125
395 0.296158
400 0.363711
405 0.372035
410 0.304105
415 0.336113
420 0.344654
425 0.252294
430 0.31756
435 0.214621
440 0.250899
445 0.256306
450 0.245041
455 0.252971
460 0.243301
465 0.22958
470 0.27762
475 0.247071
480 0.329768
485 0.386037
490 0.38962
495 0.372166
500 0.339083
505 0.364555
510 0.439487
515 0.3239
520 0.318792
525 0.308785
530 0.410214
535 0.380373
540 0.49223
545 0.370392
550 0.48577
555 0.424862
560 0.596964
565 6.9623
570 185.611
575 405.532
580 148.072
585 17.7732
590 2.55009
595 0.731595
600 0.0832528
Ex : 583
200 0.254595
205 0.363182
210 0.28593
215 0.308178
220 0.246056
225 0.362385
230 0.457571
235 0.288229
240 0.273371
245 0.239171
250 0.326998
255 0.329974
260 0.25997
265 0.195946
270 0.286895
275 0.261326
280 0.286391
285 0.306571
290 0.252458
295 0.207461
300 0.292756
305 0.338456
310 0.304558
315 0.325298
320 0.305426
325 0.363553
330 0.417595
335 0.313655
340 0.254698
345 0.265092
350 0.270978
355 0.295089
360 0.242375
365 0.275458
370 0.275753
375 0.408173
380 0.365779
385 0.305397
390 0.251475
395 0.385744
400 0.385506
405 0.406227
410 0.224961
415 0.247074
420 0.362112
425 0.24777
430 0.270987
435 0.428353
440 0.352669
445 0.318449
450 0.313671
455 0.284954
460 0.320386
465 0.295932
470 0.33242
475 0.302916
480 0.369076
485 0.253029
490 0.305153
495 0.301317
500 0.346557
505 0.301573
510 0.308753
515 0.273437
520 0.360966
525 0.338707
530 0.28942
535 0.306222
540 0.456092
545 0.384095
550 0.474555
555 0.413776
560 0.525828
565 0.580321
570 7.6919
575 168.413
580 331.064
585 103.894
590 12.6301
595 2.02725
600 0.32702
Ex : 588
200 0.271336
205 0.26029
210 0.343323
215 0.303753
220 0.250866
225 0.251931
230 0.189898
235 0.168839
240 0.277038
245 0.331631
250 0.247608
255 0.201755
260 0.242192
265 0.204928
270 0.296131
275 0.346605
280 0.29188
285 0.308744
290 0.342078
295 0.215066
300 0.303504
305 0.252048
310 0.252792
315 0.252441
320 0.277888
325 0.287161
330 0.291881
335 0.244119
340 0.286039
345 0.196239
350 0.263794
355 0.288933
360 0.238086
365 0.291045
370 0.384177
375 0.313079
380 0.347686
385 0.314109
390 0.235184
395 0.257865
400 0.261647
405 0.2997
410 0.425424
415 0.397074
420 0.230729
425 0.228992
430 0.317402
435 0.265228
440 0.376815
445 0.290376
450 0.341022
455 0.338036
460 0.285488
465 0.387598
470 0.259542
475 0.356785
480 0.336262
485 0.233437
490 0.224701
495 0.269531
500 0.25796
505 0.238796
510 0.42509
515 0.320654
520 0.281436
525 0.35026
530 0.413812
535 0.39095
540 0.407262
545 0.412222
550 0.426396
555 0.347475
560 0.466659
565 0.43648
570 0.595305
575 7.46409
580 152.567
585 372.078
590 128.871
595 15.6891
600 2.57383
Ex : 593
200 0.350202
205 0.292935
210 0.290863
215 0.308742
220 0.280546
225 0.25919
230 0.259092
235 0.221352
240 0.29221
245 0.345598
250 0.236605
255 0.266633
260 0.409067
265 0.476457
270 0.271028
275 0.25982
280 0.219374
285 0.278726
290 0.215449
295 0.214815
300 0.262275
305 0.305826
310 0.269318
315 0.325555
320 0.272942
325 0.217983
330 0.255659
335 0.304902
340 0.211152
345 0.260788
350 0.239584
355 0.214014
360 0.246068
365 0.426524
370 0.295471
375 0.207975
380 0.33256
385 0.327627
390 0.303111
395 0.423185
400 0.388789
405 0.264938
410 0.28218
415 0.259865
420 0.247712
425 0.334806
430 0.425412
435 0.375942
440 0.293408
445 0.303281
450 0.352447
455 0.3069
460 0.376827
465 0.370331
470 0.351397
475 0.322066
480 0.318468
485 0.23312
490 0.37151
495 0.368919
500 0.332581
505 0.331503
510 0.341831
515 0.268789
520 0.404557
525 0.372559
530 0.349901
535 0.317179
540 0.373247
545 0.410564
550 0.384973
555 0.594864
560 0.343845
565 0.385417
570 0.52772
575 0.696827
580 7.5221
585 295.024
590 572.445
595 145.641
600 19.9887
Ex : 598
200 0.413261
205 0.23151
210 0.333535
215 0.227697
220 0.234873
225 0.200216
230 0.323339
235 0.310784
240 0.34136
245 0.396388
250 0.512156
255 0.260027
260 0.270893
265 0.222995
270 0.295979
275 0.286072
280 0.280478
285 0.238099
290 0.210885
295 0.368405
300 0.295444
305 0.297559
310 0.185557
315 0.204279
320 0.271
325 0.279778
330 0.465957
335 0.342662
340 0.335363
345 0.276151
350 0.435601
355 0.321126
360 0.289817
365 0.49217
370 0.257253
375 0.43049
380 0.437407
385 0.39638
390 0.436018
395 0.284624
400 0.420425
405 0.405746
410 0.394018
415 0.398566
420 0.319799
425 0.374386
430 0.350352
435 0.323974
440 0.298626
445 0.336509
450 0.32353
455 0.291339
460 0.410192
465 0.373464
470 0.258901
475 0.273956
480 0.262136
485 0.319063
490 0.352626
495 0.414249
500 0.350893
505 0.41785
510 0.433243
515 0.297829
520 0.363048
525 0.369537
530 0.255595
535 0.427131
540 0.340127
545 0.401009
550 0.28071
555 0.351796
560 0.323996
565 0.465872
570 0.47853
575 0.561784
580 0.571454
585 5.24527
590 153.175
595 341.944
600 221.626
Ex : 603
200 0.338626
205 0.349831
210 0.265648
215 0.201014
220 0.285069
225 0.302247
230 0.247219
235 0.278147
240 0.336201
245 0.314783
250 0.35434
255 0.282498
260 0.282872
265 0.438366
270 0.253129
275 0.261483
280 0.2964
285 0.347802
290 0.248212
295 0.270344
300 0.218431
305 0.284999
310 0.490622
315 0.301174
320 0.31288
325 0.254345
330 0.257003
335 0.321019
340 0.334549
345 0.315233
350 0.380001
355 0.318161
360 0.260482
365 0.322721
370 0.315711
375 0.255739
380 0.244382
385 0.479381
390 0.306809
395 0.511072
400 0.39389
405 0.416042
410 0.341432
415 0.342685
420 0.340606
425 0.452393
430 0.352626
435 0.410901
440 0.325009
445 0.429008
450 0.339134
455 0.287809
460 0.531687
465 0.354656
470 0.248509
475 0.35306
480 0.307196
485 0.294643
490 0.308459
495 0.308938
500 0.22927
505 0.386133
510 0.343575
515 0.219487
520 0.323593
525 0.41609
530 0.355047
535 0.476267
540 0.329423
545 0.319314
550 0.404471
555 0.33307
560 0.313307
565 0.400372
570 0.36118
575 0.370007
580 0.477873
585 0.632936
590 11.8968
595 114.108
600 250.69
