File format V 1.0
ven. 13. janv. 16:22:28 2017
Operator : 
Comments : 

=============================================
SpectroFluorometer parameters
Mode : 3D measurement
Data : Fluorescence
Phospho. : Ordinary
Spectrum : Fluorescence

Scan speed : 2400 nm/mn
Response : 100 ms
PM Voltage : 700 V
Shutter : On

Lambda Ex. Start : 203
Lambda Ex. End : 603
Lambda Ex. Step : 5
Ex. Slit : 5 nm

Lambda Em. Start : 200
Lambda Em. End : 600
Lambda Em. Step : 5
Em. Slit : 5 nm

Repetition : 1
Decal lambda em : 10
=============================================
DATA
Ex : 203
200 7.01333
205 4.11829
210 5.58658
215 5.25756
220 5.97743
225 3.89575
230 5.95073
235 5.45855
240 5.10187
245 5.78972
250 4.57426
255 7.07926
260 7.96595
265 6.65661
270 5.73929
275 6.83192
280 7.99959
285 5.89087
290 8.01199
295 7.47466
300 6.59813
305 6.89579
310 6.66143
315 4.75251
320 4.55936
325 6.29843
330 6.15883
335 6.53503
340 7.67323
345 7.32021
350 6.96892
355 4.17094
360 6.90978
365 6.77952
370 9.97248
375 7.10943
380 5.31455
385 7.09261
390 5.12736
395 7.05768
400 5.08777
405 5.23449
410 4.68402
415 9.43628
420 6.27019
425 5.37712
430 5.90802
435 6.88002
440 8.01886
445 7.06554
450 6.38751
455 7.24865
460 7.13255
465 5.85093
470 7.25623
475 7.98887
480 5.02734
485 5.30683
490 6.81986
495 6.9333
500 6.90459
505 7.84566
510 6.5256
515 5.69021
520 5.21168
525 8.63675
530 8.02253
535 6.33833
540 7.00252
545 4.8207
550 8.84704
555 5.92794
560 7.11121
565 5.73874
570 6.56386
575 7.33533
580 6.37147
585 4.46589
590 4.67633
595 6.07617
600 0.691445
Ex : 208
200 6.0274
205 7.91125
210 9.12295
215 6.79442
220 5.46367
225 5.47782
230 6.95971
235 8.76366
240 5.52497
245 8.75566
250 5.54263
255 7.69164
260 6.04272
265 7.24555
270 3.85987
275 7.81571
280 7.29023
285 8.27453
290 4.906
295 5.87146
300 5.86942
305 6.67441
310 8.41791
315 5.78152
320 7.70671
325 7.44044
330 6.75763
335 5.45813
340 7.47048
345 6.16734
350 7.14731
355 9.85351
360 5.40319
365 5.93609
370 6.80439
375 5.14828
380 6.19708
385 6.28009
390 5.02091
395 7.67313
400 9.38458
405 6.909
410 5.63379
415 5.62054
420 6.46262
425 6.95872
430 5.07781
435 5.75343
440 5.14265
445 8.57359
450 5.39406
455 8.36295
460 9.47555
465 6.78117
470 6.01293
475 7.75659
480 7.68377
485 8.05838
490 5.96543
495 5.75675
500 6.39687
505 5.73262
510 8.47008
515 6.09597
520 7.19541
525 7.26068
530 9.05589
535 5.82948
540 6.42167
545 5.46159
550 5.05253
555 5.25747
560 5.3109
565 8.52735
570 7.81204
575 7.99436
580 5.98851
585 8.03817
590 7.73593
595 8.11622
600 28.6913
Ex : 213
200 8.03139
205 7.91258
210 5.12466
215 5.75545
220 3.05919
225 4.8875
230 6.20983
235 7.45512
240 9.04575
245 8.01915
250 6.04363
255 7.42532
260 6.86704
265 6.9185
270 6.3949
275 7.2534
280 5.85139
285 6.21913
290 6.39722
295 7.58661
300 5.31422
305 6.87291
310 4.92521
315 4.877
320 6.63844
325 4.30823
330 7.68246
335 7.2338
340 9.09167
345 6.70785
350 6.75925
355 5.47258
360 6.20901
365 6.08708
370 5.56881
375 6.96079
380 6.40217
385 4.95081
390 4.84011
395 6.64247
400 6.52671
405 7.90724
410 7.34062
415 8.26275
420 9.22099
425 7.32692
430 9.25889
435 8.65324
440 7.027
445 6.91867
450 5.77221
455 9.94991
460 10.954
465 5.57204
470 5.557
475 5.96146
480 4.74473
485 7.66565
490 6.57232
495 7.26411
500 6.69571
505 6.5769
510 7.04393
515 6.53816
520 8.74307
525 7.3474
530 6.20925
535 8.13209
540 9.52024
545 6.77222
550 7.42927
555 8.03075
560 6.13217
565 4.88134
570 4.11686
575 7.07897
580 7.3962
585 5.54205
590 8.55838
595 6.94864
600 6.69875
Ex : 218
200 5.61644
205 5.46075
210 8.45995
215 5.83872
220 4.81252
225 7.42268
230 7.3673
235 5.75004
240 7.57338
245 7.56059
250 5.08388
255 8.16396
260 6.14865
265 5.77485
270 6.17797
275 5.35256
280 6.42456
285 5.97646
290 8.66865
295 7.61228
300 5.22848
305 6.02196
310 6.66715
315 5.33003
320 7.17323
325 6.77539
330 6.53346
335 8.45892
340 5.80551
345 6.80845
350 5.35902
355 6.90896
360 6.5857
365 6.0466
370 5.70213
375 4.50228
380 6.17397
385 4.80987
390 7.69522
395 6.04307
400 7.22498
405 7.15733
410 6.38032
415 6.60299
420 7.74128
425 7.79412
430 7.75299
435 8.55072
440 6.75503
445 4.32886
450 6.14515
455 4.8519
460 6.14172
465 5.68179
470 5.67754
475 8.81977
480 6.81411
485 8.58942
490 6.77532
495 5.99273
500 5.52355
505 5.86119
510 6.80654
515 6.01225
520 5.26225
525 6.00425
530 4.4406
535 5.02002
540 5.55305
545 5.04704
550 6.47715
555 5.39265
560 5.42179
565 6.61431
570 6.92817
575 4.04432
580 3.94622
585 8.38059
590 4.49437
595 4.62233
600 0.526004
Ex : 223
200 3.72532
205 8.67694
210 5.80637
215 5.38716
220 6.53881
225 6.51983
230 5.1113
235 7.79615
240 6.76973
245 7.30261
250 5.10431
255 5.69984
260 7.83585
265 5.21435
270 7.94766
275 4.93792
280 5.13664
285 6.58708
290 7.06573
295 7.51552
300 5.45653
305 7.56715
310 6.30437
315 6.90115
320 4.05538
325 6.17347
330 7.69503
335 11.7834
340 6.33484
345 7.69689
350 5.23031
355 4.84657
360 7.38147
365 5.46957
370 4.56934
375 6.61961
380 5.19999
385 4.87309
390 5.3621
395 5.53443
400 4.44047
405 8.86579
410 5.78963
415 7.17931
420 5.61018
425 8.75934
430 5.48445
435 6.37224
440 6.74239
445 7.2648
450 5.25403
455 6.38067
460 6.67121
465 7.13597
470 6.45958
475 6.39126
480 9.18433
485 6.43264
490 8.69989
495 7.45617
500 4.8785
505 3.99219
510 7.22412
515 7.53586
520 5.47303
525 5.99034
530 7.04659
535 7.86878
540 10.7192
545 5.19406
550 5.72317
555 6.47193
560 5.80281
565 5.20408
570 4.93846
575 5.72761
580 8.33485
585 6.83888
590 5.06089
595 6.42175
600 0.73077
Ex : 228
200 5.32245
205 3.64894
210 4.07035
215 6.83469
220 4.92633
225 7.09965
230 5.23893
235 5.21436
240 7.16325
245 6.84056
250 5.28395
255 6.38747
260 5.94246
265 8.86235
270 5.44713
275 4.82648
280 7.06074
285 5.58111
290 5.3481
295 6.39322
300 4.79364
305 4.75696
310 6.07628
315 7.03543
320 4.41477
325 6.54965
330 5.69003
335 7.40383
340 7.61938
345 7.2714
350 5.68048
355 6.31812
360 8.21763
365 4.38278
370 8.09589
375 4.83749
380 6.33839
385 5.4832
390 4.7797
395 5.20011
400 4.57967
405 5.69259
410 8.16384
415 7.968
420 7.39266
425 7.13716
430 6.12153
435 6.2149
440 5.27137
445 9.13658
450 7.15374
455 6.82679
460 8.40121
465 6.8792
470 7.10295
475 6.52866
480 8.83874
485 7.88479
490 6.58068
495 5.51312
500 5.60081
505 6.11119
510 5.21397
515 5.4416
520 8.25422
525 5.02609
530 4.96493
535 8.37202
540 6.16329
545 6.25239
550 6.8841
555 5.73874
560 5.32676
565 6.06917
570 6.89407
575 6.1737
580 5.63378
585 3.55615
590 5.42775
595 6.32068
600 0.71927
Ex : 233
200 4.67451
205 7.38573
210 7.02988
215 4.95077
220 5.13019
225 5.41326
230 6.84539
235 6.57562
240 5.43507
245 6.63002
250 4.63689
255 5.91646
260 4.29563
265 4.42092
270 7.33951
275 6.34508
280 4.77126
285 7.18396
290 6.25781
295 6.67575
300 6.11786
305 6.33017
310 6.58161
315 5.46701
320 5.34855
325 4.44886
330 5.35472
335 3.55519
340 5.73575
345 5.62347
350 5.25882
355 5.85681
360 5.36991
365 8.11754
370 6.96638
375 5.0101
380 4.34739
385 5.38873
390 6.77734
395 6.30826
400 6.5547
405 5.94127
410 4.37814
415 6.97351
420 5.44613
425 6.67607
430 7.57062
435 4.75858
440 4.90518
445 4.76198
450 6.47911
455 8.57512
460 5.52165
465 5.75566
470 4.60766
475 4.52101
480 7.28281
485 6.78736
490 7.13054
495 6.77974
500 7.18183
505 4.8721
510 5.22275
515 5.82149
520 6.81685
525 5.56897
530 7.41447
535 5.87997
540 4.32338
545 6.44426
550 5.84122
555 7.1731
560 6.41513
565 7.67683
570 4.06908
575 4.47447
580 4.00773
585 4.91567
590 5.5044
595 7.04235
600 7.25802
Ex : 238
200 5.75458
205 6.4287
210 6.28149
215 5.81779
220 5.60472
225 5.79993
230 6.7152
235 7.19342
240 4.58024
245 6.41463
250 3.68185
255 3.20005
260 4.11451
265 4.01621
270 4.86464
275 4.74651
280 4.62254
285 6.92196
290 5.01372
295 6.46178
300 5.22173
305 3.60003
310 4.67866
315 4.10733
320 4.71861
325 5.44906
330 5.39669
335 5.47671
340 5.78328
345 4.85303
350 5.78539
355 4.59285
360 6.13303
365 4.92042
370 6.48228
375 5.8158
380 5.85292
385 4.91847
390 3.79641
395 5.51446
400 6.67949
405 8.0441
410 4.13262
415 5.02105
420 5.07303
425 6.69177
430 6.40278
435 5.2185
440 5.58881
445 4.67277
450 6.60485
455 6.33667
460 4.41675
465 5.03426
470 6.30344
475 5.29924
480 4.91115
485 4.84996
490 5.20933
495 5.13839
500 5.37292
505 8.20837
510 3.87112
515 6.03673
520 8.11591
525 10.6029
530 5.19962
535 5.0358
540 4.36313
545 3.72718
550 5.35365
555 6.59682
560 5.81424
565 4.64637
570 4.84315
575 4.34074
580 8.06579
585 5.96215
590 7.50864
595 5.27529
600 0.600308
Ex : 243
200 3.15309
205 4.11872
210 5.31117
215 5.33851
220 4.69833
225 7.78253
230 7.38155
235 5.40337
240 4.94775
245 2.90557
250 4.57811
255 4.4275
260 2.8034
265 5.17726
270 3.71101
275 3.05185
280 6.48345
285 4.13913
290 2.91682
295 3.8739
300 4.00023
305 3.29496
310 4.00754
315 5.80996
320 4.45229
325 3.38398
330 5.4851
335 3.18666
340 3.6794
345 3.43909
350 4.43394
355 4.90243
360 4.86906
365 6.40418
370 3.97819
375 5.78159
380 6.45364
385 7.45149
390 5.1792
395 5.56817
400 5.07863
405 5.49847
410 4.71926
415 4.10677
420 3.45384
425 4.87551
430 4.63979
435 3.84187
440 4.06889
445 2.97824
450 3.72287
455 3.64647
460 6.04949
465 4.3164
470 4.22802
475 5.95163
480 6.39624
485 5.00829
490 3.57205
495 3.23662
500 4.1376
505 5.86355
510 6.83339
515 3.2737
520 4.82383
525 6.14484
530 3.58238
535 4.33436
540 4.77749
545 4.63004
550 5.50664
555 6.94307
560 2.99176
565 3.37845
570 4.56641
575 3.30018
580 3.30235
585 4.14357
590 4.19128
595 3.48382
600 1.97192
Ex : 248
200 2.9382
205 2.74806
210 5.24032
215 3.58433
220 3.55443
225 3.47682
230 4.3593
235 3.50504
240 4.86886
245 4.47148
250 4.03567
255 4.11452
260 2.63892
265 4.76127
270 2.61955
275 3.76115
280 2.7495
285 4.06807
290 3.94173
295 3.54377
300 4.42348
305 4.20955
310 3.20058
315 5.1168
320 4.54458
325 4.82594
330 3.98641
335 4.19785
340 4.72059
345 4.61996
350 4.94699
355 3.58205
360 4.47577
365 2.86841
370 4.4885
375 4.27966
380 4.60901
385 4.73016
390 3.75765
395 3.08885
400 2.82676
405 4.33595
410 4.00057
415 5.1986
420 4.27838
425 3.91963
430 7.08368
435 3.89008
440 4.01002
445 4.62856
450 4.23692
455 4.0115
460 4.11368
465 3.78779
470 4.77604
475 3.54855
480 3.41296
485 3.51047
490 5.38562
495 4.19696
500 4.16234
505 4.18387
510 3.64792
515 2.93626
520 3.34622
525 4.00244
530 4.12031
535 5.15981
540 3.4764
545 5.40035
550 5.00894
555 4.01312
560 3.72395
565 2.62927
570 3.6301
575 3.85176
580 4.72495
585 4.78889
590 4.04938
595 3.18432
600 0.362364
Ex : 253
200 4.02174
205 3.01941
210 2.80672
215 3.56954
220 3.88122
225 3.91142
230 4.42081
235 3.60585
240 4.27305
245 3.10013
250 5.38901
255 4.79198
260 3.08916
265 1.98861
270 3.75851
275 3.85072
280 2.30257
285 2.30626
290 3.1457
295 2.52706
300 5.2693
305 3.02934
310 3.17974
315 3.30515
320 3.32802
325 2.74402
330 3.76243
335 5.2903
340 4.70375
345 3.89991
350 3.74653
355 3.8562
360 4.08141
365 3.78126
370 3.01046
375 3.13327
380 4.38973
385 4.31123
390 4.28372
395 2.80215
400 4.20149
405 2.0737
410 3.85499
415 2.90133
420 2.60356
425 2.7867
430 3.85552
435 6.06734
440 5.32277
445 3.08919
450 3.37506
455 4.14617
460 2.59136
465 3.3122
470 3.45596
475 4.62526
480 3.10669
485 3.45738
490 3.80719
495 3.6798
500 4.02446
505 3.70595
510 2.84345
515 2.87953
520 2.52044
525 2.70067
530 2.65909
535 2.72687
540 3.41746
545 3.62975
550 3.35403
555 3.06839
560 2.04702
565 3.30761
570 5.1227
575 3.74617
580 3.29343
585 3.38326
590 2.73885
595 3.87508
600 10.592
Ex : 258
200 2.8591
205 2.93264
210 2.59127
215 2.39853
220 2.25051
225 2.30365
230 2.55062
235 2.70953
240 1.91153
245 2.52026
250 2.41098
255 3.2158
260 2.66657
265 3.91384
270 2.30277
275 3.98652
280 3.1018
285 2.97509
290 2.88389
295 2.91554
300 3.23004
305 2.87079
310 1.95543
315 3.07922
320 2.58488
325 2.50185
330 2.53794
335 2.82233
340 3.15737
345 3.56602
350 3.28468
355 2.57644
360 3.1921
365 3.32709
370 2.82259
375 3.17675
380 2.01609
385 2.53288
390 2.86371
395 2.93439
400 3.15303
405 3.1637
410 4.52998
415 3.13922
420 3.28051
425 3.5499
430 5.46675
435 4.60832
440 3.29465
445 1.89511
450 1.8421
455 3.18685
460 3.50029
465 3.33633
470 3.20699
475 2.66527
480 2.55397
485 2.67392
490 3.6105
495 3.05761
500 2.96164
505 2.0627
510 3.93366
515 3.16314
520 2.75097
525 2.68613
530 3.68476
535 4.48676
540 3.78953
545 1.75792
550 1.96034
555 2.76306
560 2.85511
565 2.25046
570 3.47075
575 3.37724
580 3.74543
585 3.03259
590 2.72442
595 3.04016
600 2.24497
Ex : 263
200 1.8438
205 2.26881
210 1.64253
215 2.34583
220 2.63475
225 2.51533
230 2.92959
235 2.42443
240 1.94134
245 2.7792
250 1.96951
255 2.40374
260 2.19845
265 2.6116
270 2.57798
275 2.70817
280 2.87343
285 1.71056
290 2.08075
295 1.89997
300 1.52553
305 2.33433
310 2.0298
315 1.57524
320 1.66775
325 2.45544
330 2.06019
335 2.02762
340 3.42245
345 2.77443
350 3.16355
355 2.2919
360 2.65669
365 3.22182
370 2.6106
375 2.63753
380 2.02438
385 2.19008
390 2.18651
395 2.77614
400 4.06692
405 3.23287
410 2.08841
415 2.45921
420 2.98136
425 2.30678
430 2.13627
435 3.39234
440 2.62494
445 2.19655
450 2.05666
455 1.12432
460 2.62517
465 3.33715
470 3.55231
475 1.67971
480 1.68958
485 1.93656
490 2.07551
495 2.13247
500 1.95276
505 2.51041
510 1.99701
515 2.57472
520 3.19847
525 3.07159
530 2.21434
535 3.25664
540 2.16364
545 2.83404
550 1.39988
555 3.09459
560 1.92855
565 1.79295
570 1.76608
575 2.13362
580 2.35437
585 2.80761
590 2.18695
595 1.48652
600 6.11939
Ex : 268
200 1.24067
205 1.40232
210 2.10616
215 1.82353
220 2.24011
225 1.38585
230 1.68852
235 2.03415
240 1.3145
245 1.5476
250 1.77236
255 2.22245
260 2.39726
265 2.34277
270 1.5856
275 2.08117
280 2.12879
285 1.8458
290 1.541
295 1.78904
300 1.46834
305 1.79342
310 2.24764
315 1.50392
320 1.63321
325 2.00707
330 1.28634
335 1.76003
340 1.65728
345 2.40625
350 2.21712
355 1.82924
360 1.16548
365 2.1626
370 2.03136
375 2.41699
380 2.91297
385 2.29115
390 1.34265
395 1.76733
400 1.89257
405 2.20878
410 1.54936
415 2.02375
420 1.6927
425 1.83362
430 2.50204
435 2.23503
440 2.26951
445 1.92825
450 1.63563
455 2.28567
460 1.58941
465 1.66804
470 1.51858
475 1.74197
480 1.88676
485 1.65014
490 1.80507
495 1.29994
500 1.44777
505 2.1469
510 1.20234
515 1.53632
520 1.85046
525 2.0888
530 2.3833
535 2.54939
540 1.65702
545 1.90878
550 2.19108
555 1.31758
560 1.62406
565 2.03375
570 1.61989
575 1.74414
580 1.54371
585 1.58107
590 1.68408
595 1.60804
600 2.05386
Ex : 273
200 1.03949
205 0.923525
210 1.5308
215 1.23747
220 1.47768
225 1.28631
230 1.77862
235 1.4532
240 1.09149
245 1.39332
250 1.73502
255 1.91798
260 1.51547
265 1.72286
270 1.22685
275 1.14719
280 1.40874
285 1.86948
290 1.66608
295 1.42655
300 1.74579
305 1.42777
310 1.9216
315 1.36412
320 1.27764
325 1.11689
330 1.35056
335 2.29698
340 2.20889
345 1.22699
350 1.64635
355 2.31158
360 1.56639
365 1.07249
370 1.4995
375 1.61692
380 1.48086
385 1.73167
390 1.67436
395 1.57916
400 1.39823
405 1.25037
410 1.84262
415 2.17212
420 1.70155
425 2.144
430 1.41992
435 1.57897
440 2.20388
445 1.76092
450 1.29442
455 1.72779
460 2.44949
465 2.30092
470 1.41072
475 2.05588
480 1.32972
485 1.37361
490 1.37506
495 2.04219
500 1.53049
505 1.19361
510 1.52119
515 1.86032
520 1.75535
525 1.90231
530 1.98978
535 2.39938
540 2.99533
545 2.14096
550 1.94166
555 1.98099
560 1.39059
565 1.62691
570 1.72405
575 1.46283
580 1.62123
585 1.25665
590 1.42943
595 1.35512
600 2.60831
Ex : 278
200 1.11884
205 0.879272
210 0.906562
215 1.02783
220 1.57213
225 1.13654
230 0.897672
235 1.41005
240 1.13089
245 1.06038
250 1.06887
255 0.885076
260 0.772578
265 1.28208
270 1.05023
275 1.32724
280 1.17906
285 1.25616
290 1.25487
295 1.14914
300 1.31583
305 1.06465
310 1.47485
315 0.968487
320 0.873269
325 1.17717
330 1.77508
335 1.70021
340 1.22616
345 1.69168
350 1.21656
355 1.14217
360 1.78349
365 1.24607
370 1.22542
375 1.63986
380 1.36232
385 1.5863
390 1.50612
395 1.66159
400 1.35576
405 1.57411
410 1.46115
415 1.47625
420 1.28624
425 1.72552
430 1.52566
435 1.58298
440 1.61288
445 1.45132
450 1.37797
455 1.80771
460 1.1014
465 1.27245
470 1.20648
475 1.80168
480 1.19836
485 1.15762
490 1.10422
495 1.39851
500 1.09442
505 0.82158
510 1.46977
515 1.14025
520 1.12269
525 1.16927
530 1.10824
535 1.23513
540 1.56054
545 1.53933
550 2.16986
555 1.93843
560 1.18155
565 1.29334
570 0.77213
575 0.783386
580 1.09815
585 1.14041
590 1.46054
595 1.19669
600 3.43483
Ex : 283
200 0.761255
205 0.771951
210 0.721902
215 1.19477
220 1.0973
225 0.971455
230 0.821357
235 0.946508
240 1.20648
245 0.878625
250 0.869085
255 1.60754
260 1.13157
265 0.907498
270 0.892089
275 1.70993
280 1.46812
285 0.835659
290 0.863219
295 1.13771
300 0.948488
305 1.18786
310 0.86222
315 1.2089
320 0.78717
325 1.15339
330 0.819079
335 1.46591
340 0.874674
345 0.888152
350 1.06158
355 1.24702
360 1.1953
365 0.878993
370 1.11747
375 1.4586
380 1.49683
385 1.88916
390 1.04955
395 1.5381
400 1.30265
405 1.47541
410 1.49781
415 1.33424
420 0.931789
425 0.804255
430 1.12796
435 1.40343
440 1.71619
445 1.50277
450 1.70134
455 1.4643
460 1.11421
465 1.53509
470 1.24322
475 1.50052
480 1.52156
485 0.820573
490 0.944231
495 1.03124
500 0.851372
505 1.08852
510 1.21165
515 1.24974
520 0.853382
525 1.02654
530 0.760718
535 1.37931
540 1.30388
545 1.19869
550 0.889374
555 1.54686
560 1.81308
565 2.51291
570 1.41441
575 1.03269
580 0.936351
585 1.03441
590 0.766346
595 1.07931
600 0.122821
Ex : 288
200 1.09795
205 0.767925
210 0.709582
215 0.476037
220 0.606384
225 0.929684
230 0.933682
235 0.845182
240 0.817141
245 0.766584
250 1.06267
255 0.910705
260 1.27451
265 0.596053
270 0.808628
275 0.680958
280 1.15582
285 1.59137
290 0.781934
295 0.770285
300 0.829131
305 0.827498
310 0.83138
315 0.824901
320 0.83364
325 0.788304
330 0.976427
335 1.03832
340 0.651112
345 0.893973
350 0.937484
355 0.740489
360 0.781597
365 1.0977
370 0.87119
375 1.09278
380 1.00799
385 0.952099
390 0.920868
395 1.17681
400 1.03952
405 1.36125
410 1.2642
415 1.21377
420 1.16696
425 1.60191
430 1.43578
435 0.799675
440 1.29319
445 1.2311
450 0.904027
455 0.919924
460 1.05898
465 1.3666
470 1.22428
475 1.38499
480 0.966459
485 1.00549
490 1.02474
495 1.04399
500 0.742464
505 0.746596
510 0.827747
515 1.25397
520 0.588612
525 1.01792
530 1.09554
535 1.20964
540 0.763841
545 0.700763
550 0.821324
555 0.968385
560 1.10679
565 1.4438
570 2.17877
575 1.73237
580 1.13911
585 1.16208
590 0.863678
595 0.994762
600 0.221274
Ex : 293
200 0.704343
205 0.585737
210 0.772108
215 0.657597
220 0.790022
225 0.590227
230 0.740539
235 0.579966
240 0.47283
245 0.58965
250 0.869551
255 0.517352
260 1.09616
265 0.745605
270 0.536211
275 0.776514
280 0.635495
285 1.08108
290 1.75006
295 1.00614
300 0.956865
305 0.739145
310 0.609075
315 0.60587
320 0.764653
325 0.81845
330 0.905966
335 0.656045
340 0.877942
345 1.09024
350 0.727261
355 0.963707
360 1.04312
365 0.872937
370 0.712291
375 0.807918
380 1.08496
385 1.14358
390 0.902443
395 1.10561
400 0.743219
405 1.14364
410 1.10339
415 1.01089
420 0.879629
425 0.743735
430 0.996372
435 1.11871
440 1.18647
445 1.2076
450 1.06564
455 1.16388
460 1.38361
465 1.19846
470 0.861456
475 0.86007
480 0.873573
485 0.900275
490 0.727925
495 0.563555
500 1.03205
505 0.805348
510 0.914393
515 0.837055
520 0.923747
525 0.852456
530 0.664938
535 0.943928
540 0.568294
545 0.550624
550 0.852854
555 0.524722
560 0.707524
565 0.705236
570 0.821529
575 1.4261
580 1.78692
585 1.17499
590 0.921251
595 1.03036
600 0.117251
Ex : 298
200 0.725532
205 0.662969
210 0.455083
215 0.706757
220 0.581308
225 0.547503
230 0.451238
235 0.908585
240 0.840067
245 0.55978
250 0.404402
255 0.475889
260 0.36805
265 0.516485
270 0.733117
275 0.61667
280 0.382299
285 0.632663
290 0.935067
295 1.17235
300 0.626372
305 0.673928
310 0.683862
315 0.622884
320 0.845172
325 0.470234
330 0.726369
335 0.767608
340 0.666057
345 0.739978
350 0.829605
355 0.777387
360 0.644386
365 0.805675
370 1.13321
375 0.928571
380 0.679384
385 1.2865
390 0.957867
395 0.903594
400 1.22573
405 1.12809
410 1.07208
415 0.901083
420 1.29532
425 0.92858
430 0.98541
435 1.03619
440 1.12915
445 0.773283
450 0.924354
455 0.770881
460 0.949575
465 0.682638
470 0.67102
475 0.608006
480 0.684587
485 0.502464
490 0.729839
495 0.84108
500 0.737104
505 0.607946
510 0.56883
515 0.583982
520 1.00667
525 0.725363
530 0.676133
535 0.976286
540 0.606207
545 0.902252
550 0.75663
555 0.58378
560 0.684537
565 0.699033
570 0.739374
575 0.659086
580 0.655208
585 1.00846
590 1.82085
595 1.3988
600 1.21946
Ex : 303
200 0.740944
205 0.594485
210 0.449863
215 0.681582
220 0.37717
225 0.598328
230 0.615585
235 0.386717
240 0.3382
245 0.429645
250 0.432106
255 0.596211
260 0.580199
265 0.719208
270 0.543414
275 0.517364
280 0.517984
285 0.424632
290 0.578726
295 1.10999
300 0.932013
305 0.437428
310 0.434941
315 0.435422
320 0.56049
325 0.56705
330 0.437614
335 0.608896
340 0.375644
345 0.705456
350 0.529974
355 0.771333
360 1.00876
365 0.859258
370 1.0104
375 1.00318
380 0.817636
385 0.867637
390 1.1905
395 0.880518
400 0.924219
405 0.992372
410 0.90417
415 1.2657
420 0.849762
425 0.735205
430 1.10267
435 1.08507
440 0.841212
445 1.21943
450 0.933215
455 1.01436
460 0.75213
465 0.998818
470 0.868199
475 0.874891
480 0.774226
485 0.699256
490 0.671813
495 0.715863
500 0.668519
505 0.727225
510 0.568152
515 0.664368
520 0.769009
525 0.651669
530 0.643009
535 0.429925
540 0.616705
545 0.556226
550 0.540611
555 0.802133
560 0.582577
565 0.53708
570 0.520139
575 0.418327
580 0.559589
585 0.591467
590 0.686322
595 0.872537
600 0.722403
Ex : 308
200 0.253398
205 0.4243
210 0.505604
215 0.310695
220 0.296657
225 0.557584
230 0.477947
235 0.39185
240 0.560846
245 0.402365
250 0.465767
255 0.458158
260 0.531221
265 0.397622
270 0.402747
275 0.433764
280 0.421496
285 0.364611
290 0.541067
295 0.515863
300 0.873778
305 1.08979
310 0.469928
315 0.444046
320 0.336628
325 0.616051
330 0.646093
335 0.536924
340 0.617263
345 0.616246
350 0.761516
355 0.61315
360 0.672032
365 0.887854
370 0.720853
375 0.789259
380 0.726674
385 1.01661
390 0.814368
395 0.85306
400 0.861234
405 0.849129
410 0.852929
415 0.897671
420 0.917915
425 1.06158
430 1.02631
435 0.895709
440 0.85253
445 0.757209
450 0.880947
455 0.860807
460 0.98592
465 0.74822
470 0.704736
475 0.696913
480 0.539876
485 0.636783
490 0.571891
495 0.817115
500 1.04646
505 0.461866
510 0.71369
515 0.71906
520 0.683001
525 0.531292
530 0.558857
535 0.456107
540 0.43187
545 0.462629
550 0.70001
555 0.490466
560 0.534692
565 0.624873
570 0.401777
575 0.463374
580 0.609789
585 0.445709
590 0.366991
595 0.536685
600 0.557347
Ex : 313
200 0.347615
205 0.34526
210 0.327396
215 0.629934
220 0.559643
225 0.430911
230 0.480322
235 0.448016
240 0.540275
245 0.528552
250 0.484903
255 0.409713
260 0.341425
265 0.28247
270 0.396631
275 0.533925
280 0.545576
285 0.26734
290 0.434321
295 0.38092
300 0.51722
305 0.909603
310 1.29549
315 0.658102
320 0.316953
325 0.435894
330 0.58883
335 0.591652
340 0.418829
345 0.681106
350 0.567595
355 0.526835
360 0.727432
365 0.729343
370 0.804956
375 0.817402
380 0.817768
385 1.08604
390 1.05057
395 1.04547
400 1.18665
405 1.50663
410 1.09335
415 1.12581
420 1.03887
425 1.04827
430 0.967898
435 1.13805
440 1.20039
445 1.18442
450 1.19807
455 0.879785
460 0.985807
465 0.965657
470 0.935924
475 0.914944
480 0.813745
485 1.0309
490 0.733355
495 0.793693
500 0.829035
505 0.611229
510 0.66499
515 0.616403
520 0.713057
525 0.60958
530 0.600727
535 0.508252
540 0.370855
545 0.660317
550 0.687203
555 0.467492
560 0.33308
565 0.496302
570 0.759408
575 0.739719
580 0.399927
585 0.442456
590 0.411709
595 0.384077
600 0.0437065
Ex : 318
200 0.486459
205 0.326243
210 0.338334
215 0.316728
220 0.399293
225 0.451576
230 0.330399
235 0.40813
240 0.389027
245 0.309674
250 0.314099
255 0.263914
260 0.338944
265 0.332756
270 0.45796
275 0.334843
280 0.406533
285 0.415628
290 0.461819
295 0.38405
300 0.393721
305 0.371891
310 1.16713
315 1.86914
320 1.14662
325 0.705068
330 0.961354
335 0.764319
340 1.2378
345 1.72049
350 2.01548
355 2.39028
360 2.95992
365 3.39452
370 4.32967
375 4.92578
380 5.25822
385 5.95682
390 6.68268
395 7.6979
400 7.43174
405 7.49555
410 7.77873
415 7.54288
420 7.42593
425 7.36299
430 7.63551
435 7.39265
440 6.68321
445 6.53533
450 6.3093
455 5.55755
460 5.49163
465 4.60918
470 4.24424
475 3.90349
480 3.92826
485 3.54186
490 2.92862
495 2.94614
500 2.59246
505 2.58064
510 2.25547
515 1.66382
520 1.43304
525 1.23284
530 1.11973
535 1.03444
540 1.15219
545 0.947361
550 0.811342
555 0.731766
560 0.69386
565 0.73123
570 0.578551
575 0.391765
580 0.320721
585 0.382641
590 0.511949
595 0.611593
600 0.0695969
Ex : 323
200 0.404323
205 0.371701
210 0.34878
215 0.36928
220 0.46976
225 0.327938
230 0.296179
235 0.417637
240 0.388373
245 0.209576
250 0.320137
255 0.388392
260 0.30469
265 0.296023
270 0.287963
275 0.414323
280 0.375448
285 0.322118
290 0.404306
295 0.378716
300 0.407298
305 0.307153
310 0.488312
315 5.64368
320 18.5221
325 7.61128
330 3.02395
335 2.87502
340 3.74868
345 5.375
350 8.11702
355 10.7741
360 13.0876
365 15.2857
370 18.1739
375 21.1763
380 24.815
385 27.3069
390 28.6176
395 30.9378
400 33.0407
405 33.5794
410 34.0195
415 34.6
420 33.6501
425 33.1148
430 31.743
435 31.9168
440 29.9874
445 28.6383
450 26.816
455 25.113
460 23.2985
465 21.9606
470 20.0572
475 18.3144
480 17.0407
485 14.9471
490 13.0924
495 11.9684
500 10.0622
505 9.21106
510 8.20434
515 7.3997
520 6.57554
525 5.31228
530 4.85179
535 4.09755
540 3.97063
545 3.29814
550 2.38056
555 2.32579
560 2.03117
565 1.71399
570 1.59922
575 1.218
580 0.821396
585 0.627236
590 0.627194
595 0.450594
600 1.09938
Ex : 328
200 0.343511
205 0.282755
210 0.348163
215 0.324556
220 0.411624
225 0.376768
230 0.29763
235 0.274754
240 0.355514
245 0.429139
250 0.212932
255 0.311173
260 0.256638
265 0.32626
270 0.343469
275 0.307515
280 0.37348
285 0.374527
290 0.384686
295 0.34404
300 0.342642
305 0.364475
310 0.265053
315 1.43562
320 41.4223
325 85.7074
330 27.3892
335 6.53804
340 6.11862
345 7.07621
350 9.26405
355 12.8182
360 18.1715
365 20.0523
370 21.4206
375 25.377
380 28.6919
385 31.8846
390 34.7955
395 36.4932
400 37.3712
405 38.842
410 39.4862
415 39.202
420 39.0215
425 36.8774
430 36.0399
435 35.0657
440 34.0305
445 32.4721
450 31.6093
455 29.5915
460 27.7281
465 25.3828
470 22.6414
475 21.2512
480 20.4209
485 17.8409
490 16.643
495 15.2302
500 13.4588
505 12.1457
510 10.8512
515 9.26521
520 8.10348
525 7.00996
530 5.98796
535 5.09941
540 4.94372
545 4.19452
550 3.88155
555 3.09829
560 2.57295
565 2.18739
570 1.83125
575 1.48041
580 1.28991
585 1.02913
590 0.93008
595 0.61876
600 1.09533
Ex : 333
200 0.306865
205 0.239442
210 0.233396
215 0.240907
220 0.293022
225 0.231789
230 0.286915
235 0.303228
240 0.228606
245 0.307002
250 0.3867
255 0.374445
260 0.234809
265 0.286081
270 0.32297
275 0.33428
280 0.263938
285 0.395706
290 0.318535
295 0.308051
300 0.211253
305 0.265961
310 0.311971
315 0.333779
320 6.96541
325 112.478
330 183.989
335 48.8901
340 9.53157
345 5.89921
350 6.41661
355 7.28624
360 10.9657
365 14.8656
370 16.0153
375 15.7793
380 16.9499
385 18.0229
390 19.7698
395 20.9859
400 21.9448
405 22.5905
410 22.347
415 22.2504
420 21.5687
425 21.3734
430 20.7569
435 19.5537
440 19.7726
445 18.3305
450 18.1113
455 17.1163
460 16.3047
465 15.6509
470 14.7073
475 13.5071
480 12.5468
485 12.1524
490 11.0567
495 9.69664
500 9.31378
505 8.11605
510 7.55651
515 6.89696
520 6.12215
525 5.79534
530 5.01666
535 4.47562
540 3.9499
545 3.50259
550 2.75595
555 2.69899
560 2.16744
565 2.5665
570 1.91997
575 1.31292
580 1.38489
585 0.911858
590 0.840645
595 0.834109
600 0.770121
Ex : 338
200 0.269337
205 0.292462
210 0.23211
215 0.307821
220 0.250932
225 0.400402
230 0.275949
235 0.258806
240 0.280165
245 0.294814
250 0.321734
255 0.340012
260 0.31564
265 0.278099
270 0.268399
275 0.259513
280 0.223934
285 0.258686
290 0.240834
295 0.377057
300 0.232831
305 0.298725
310 0.343914
315 0.295838
320 0.331117
325 12.9173
330 174.784
335 243.013
340 60.5415
345 9.60765
350 4.87525
355 4.33322
360 4.6489
365 6.43919
370 10.9813
375 11.5901
380 10.1726
385 9.09415
390 9.62224
395 10.4571
400 10.5225
405 10.827
410 11.1535
415 11.4797
420 11.3054
425 10.7122
430 10.9192
435 10.7259
440 10.4518
445 10.848
450 10.7641
455 10.3398
460 10.2839
465 9.88039
470 9.22624
475 9.60661
480 9.54403
485 8.8707
490 8.70691
495 7.88699
500 7.51616
505 7.12781
510 6.37731
515 6.19488
520 5.64993
525 5.07012
530 4.49349
535 4.11302
540 3.63529
545 3.54339
550 3.01774
555 2.85871
560 2.7014
565 2.35187
570 1.96749
575 1.7629
580 1.41533
585 1.25351
590 0.981165
595 0.773358
600 1.29117
Ex : 343
200 0.260623
205 0.229591
210 0.19403
215 0.218795
220 0.239429
225 0.238039
230 0.199409
235 0.261486
240 0.209504
245 0.239682
250 0.271988
255 0.187002
260 0.165753
265 0.210649
270 0.254596
275 0.277793
280 0.250948
285 0.280329
290 0.295768
295 0.188968
300 0.232518
305 0.239792
310 0.230819
315 0.24194
320 0.223383
325 0.434783
330 13.9593
335 193.346
340 268.555
345 66.0497
350 9.87773
355 4.06293
360 3.51878
365 2.85885
370 4.291
375 8.5303
380 9.54776
385 7.50094
390 6.72992
395 6.9184
400 6.75405
405 7.08806
410 7.19685
415 7.41328
420 8.02199
425 7.83046
430 7.77455
435 7.7221
440 7.85163
445 8.06275
450 8.43538
455 8.59615
460 8.90807
465 8.74857
470 8.78255
475 9.04238
480 9.2542
485 8.67735
490 8.53419
495 8.27597
500 8.10335
505 7.48012
510 6.93021
515 6.50696
520 6.18293
525 5.41093
530 4.62182
535 4.52657
540 4.19122
545 3.82118
550 3.20011
555 2.98927
560 2.87809
565 2.50126
570 1.98994
575 1.7488
580 1.31732
585 1.18096
590 0.917454
595 0.811767
600 0.880113
Ex : 348
200 0.163455
205 0.259676
210 0.222056
215 0.155669
220 0.222585
225 0.213363
230 0.195047
235 0.234156
240 0.256239
245 0.261711
250 0.186632
255 0.234862
260 0.206255
265 0.231452
270 0.244172
275 0.187427
280 0.207133
285 0.249133
290 0.259822
295 0.195502
300 0.231196
305 0.218991
310 0.308557
315 0.29531
320 0.271418
325 0.371384
330 0.676197
335 14.3736
340 194.155
345 281.187
350 72.8253
355 10.5742
360 3.39175
365 2.88405
370 2.4381
375 3.24671
380 6.06536
385 8.5741
390 7.04478
395 5.81728
400 5.64829
405 5.90647
410 5.98623
415 6.47703
420 6.46537
425 6.3782
430 7.06024
435 7.25336
440 7.46695
445 7.85006
450 8.09533
455 8.75643
460 9.24095
465 9.74317
470 10.0596
475 10.2336
480 10.1872
485 10.1033
490 10.0917
495 9.72245
500 9.24486
505 8.82224
510 8.0493
515 7.82059
520 6.94295
525 6.09627
530 5.83635
535 5.5273
540 5.10532
545 4.61529
550 4.34063
555 3.48782
560 3.03569
565 2.88686
570 2.26295
575 1.95215
580 1.57824
585 1.32918
590 1.04804
595 1.01682
600 0.394999
Ex : 353
200 0.235636
205 0.204585
210 0.212442
215 0.198959
220 0.216585
225 0.200225
230 0.22629
235 0.212485
240 0.170046
245 0.168238
250 0.188152
255 0.153401
260 0.257377
265 0.29329
270 0.168401
275 0.277203
280 0.144008
285 0.180414
290 0.175764
295 0.204929
300 0.228776
305 0.197964
310 0.229618
315 0.205664
320 0.180373
325 0.373753
330 0.305716
335 0.486892
340 14.5399
345 197.474
350 278.687
355 70.1584
360 9.77385
365 3.03067
370 2.71662
375 2.58568
380 2.75252
385 5.38591
390 8.46294
395 7.47002
400 6.11769
405 5.62554
410 5.84992
415 5.67807
420 5.68955
425 6.18701
430 6.0623
435 6.78234
440 7.26741
445 7.73226
450 8.7612
455 9.303
460 10.0491
465 10.2332
470 10.9077
475 11.0849
480 11.2924
485 11.6979
490 11.8415
495 10.987
500 11.3873
505 10.6266
510 9.81071
515 9.17186
520 8.18069
525 7.7619
530 7.08281
535 6.19077
540 5.82407
545 5.13918
550 4.9085
555 4.30645
560 3.7434
565 3.31531
570 2.76154
575 2.20466
580 1.89064
585 1.27644
590 1.03908
595 0.870045
600 0.65977
Ex : 358
200 0.192831
205 0.181135
210 0.192245
215 0.200603
220 0.186035
225 0.203124
230 0.183132
235 0.233655
240 0.221805
245 0.241906
250 0.248266
255 0.242687
260 0.177783
265 0.216567
270 0.142423
275 0.220586
280 0.157499
285 0.19171
290 0.255563
295 0.231873
300 0.200646
305 0.228744
310 0.237728
315 0.293217
320 0.221451
325 0.255214
330 0.284837
335 0.355822
340 0.547904
345 13.2279
350 192.101
355 280.029
360 70.9455
365 9.58869
370 3.1263
375 3.19463
380 2.78488
385 2.70508
390 4.55991
395 8.33646
400 8.28095
405 6.7781
410 6.10088
415 5.81952
420 5.95674
425 6.13637
430 6.44702
435 6.42985
440 7.04308
445 7.77613
450 8.4246
455 9.56727
460 10.2331
465 11.1453
470 11.3278
475 12.1469
480 12.3765
485 12.4333
490 12.73
495 12.4084
500 12.1615
505 11.2539
510 10.6464
515 9.84054
520 9.36343
525 8.444
530 7.6545
535 7.25156
540 6.64749
545 5.68921
550 5.14385
555 4.52315
560 4.11636
565 3.59127
570 2.9217
575 2.51428
580 1.77086
585 1.41621
590 1.19965
595 1.02668
600 1.14047
Ex : 363
200 0.171613
205 0.189064
210 0.17799
215 0.158485
220 0.173722
225 0.247258
230 0.144371
235 0.183293
240 0.208081
245 0.163331
250 0.255542
255 0.191501
260 0.223036
265 0.153984
270 0.138603
275 0.18305
280 0.172835
285 0.163646
290 0.155663
295 0.208889
300 0.206132
305 0.202143
310 0.230692
315 0.171009
320 0.184706
325 0.271203
330 0.238908
335 0.29112
340 0.343667
345 0.551965
350 12.1301
355 185.465
360 279.64
365 74.864
370 10.3425
375 3.1951
380 3.09074
385 2.66053
390 2.66481
395 3.81065
400 7.21572
405 8.21653
410 6.67648
415 5.98819
420 5.4802
425 5.70988
430 5.90844
435 6.42847
440 7.03791
445 8.13984
450 9.02485
455 10.0961
460 11.1019
465 12.1123
470 12.5354
475 13.1819
480 14.34
485 13.991
490 14.5213
495 14.0478
500 13.3918
505 12.938
510 12.1742
515 11.3974
520 10.5288
525 9.7983
530 9.11895
535 8.02244
540 7.311
545 6.76636
550 5.62812
555 5.17115
560 4.62136
565 3.95621
570 3.29629
575 2.73566
580 2.03246
585 1.75
590 1.35671
595 0.976323
600 1.13564
Ex : 368
200 0.154871
205 0.186336
210 0.138109
215 0.214233
220 0.146075
225 0.194374
230 0.140786
235 0.2142
240 0.167054
245 0.185956
250 0.169513
255 0.219451
260 0.166013
265 0.16275
270 0.221772
275 0.232282
280 0.143924
285 0.196215
290 0.192786
295 0.202427
300 0.229578
305 0.217062
310 0.247332
315 0.171915
320 0.17079
325 0.254778
330 0.225322
335 0.261066
340 0.356509
345 0.438603
350 0.465504
355 10.199
360 176.606
365 283.328
370 78.0729
375 10.7845
380 3.14068
385 2.8594
390 2.63339
395 2.4743
400 3.13409
405 6.30977
410 8.14382
415 6.74896
420 5.66043
425 5.50283
430 5.58924
435 6.04058
440 7.11269
445 8.02781
450 9.11241
455 10.5081
460 12.1309
465 13.5197
470 14.4919
475 15.0164
480 15.9587
485 16.5702
490 16.3474
495 16.3421
500 16.0677
505 15.5984
510 14.3014
515 13.4833
520 12.1472
525 11.3943
530 10.3606
535 9.2887
540 8.94506
545 7.8701
550 6.98019
555 6.20915
560 5.17507
565 4.70954
570 3.80975
575 3.10183
580 2.52908
585 1.87122
590 1.47192
595 1.22782
600 1.43431
Ex : 373
200 0.163416
205 0.123117
210 0.184366
215 0.159775
220 0.171831
225 0.120447
230 0.154453
235 0.217579
240 0.215578
245 0.154284
250 0.146609
255 0.183391
260 0.137863
265 0.137072
270 0.212286
275 0.211751
280 0.15942
285 0.182543
290 0.162355
295 0.150519
300 0.185682
305 0.138308
310 0.233731
315 0.153277
320 0.19522
325 0.208819
330 0.184823
335 0.220579
340 0.223143
345 0.303677
350 0.32283
355 0.604419
360 11.6068
365 179.303
370 281.305
375 77.9313
380 10.9087
385 3.23395
390 3.05219
395 2.98792
400 3.00288
405 3.31509
410 5.34755
415 8.09385
420 6.96804
425 6.13923
430 5.39689
435 5.73574
440 6.63396
445 7.60847
450 9.00127
455 10.5245
460 12.4812
465 13.9691
470 15.9339
475 16.1262
480 16.9205
485 17.4364
490 17.5134
495 17.784
500 17.1498
505 16.3784
510 15.1988
515 14.4864
520 13.5822
525 12.5174
530 11.5078
535 10.2402
540 9.28521
545 8.61131
550 7.79545
555 6.77433
560 5.77963
565 5.08974
570 4.37365
575 3.4987
580 2.64904
585 2.16019
590 1.55966
595 1.29081
600 1.9193
Ex : 378
200 0.206656
205 0.1885
210 0.165645
215 0.117278
220 0.160167
225 0.161078
230 0.129726
235 0.186473
240 0.142776
245 0.144646
250 0.133604
255 0.141026
260 0.16113
265 0.184999
270 0.15573
275 0.18447
280 0.143411
285 0.152652
290 0.13084
295 0.157035
300 0.160035
305 0.16447
310 0.209564
315 0.199537
320 0.150448
325 0.139746
330 0.224156
335 0.186094
340 0.180469
345 0.193988
350 0.28098
355 0.293221
360 0.497761
365 11.5672
370 187.994
375 292.162
380 79.9226
385 11.2631
390 3.42776
395 3.26797
400 3.51596
405 3.24691
410 3.43168
415 4.99358
420 8.09845
425 7.34255
430 6.39675
435 6.10501
440 6.2658
445 7.30728
450 8.58278
455 10.3823
460 12.0003
465 13.5937
470 15.0692
475 15.4854
480 16.1781
485 16.5882
490 16.9147
495 16.9354
500 16.2104
505 15.4049
510 14.667
515 13.9793
520 12.7968
525 11.7808
530 10.941
535 9.55254
540 8.88816
545 7.97575
550 7.17219
555 6.36684
560 5.85131
565 4.7503
570 3.9605
575 3.38176
580 2.57904
585 1.83305
590 1.50423
595 1.22968
600 1.84247
Ex : 383
200 0.123725
205 0.160868
210 0.166328
215 0.150161
220 0.170221
225 0.141774
230 0.113713
235 0.193128
240 0.158595
245 0.123893
250 0.100859
255 0.173934
260 0.143406
265 0.171588
270 0.120607
275 0.160977
280 0.121325
285 0.12187
290 0.104625
295 0.114537
300 0.15541
305 0.165791
310 0.130438
315 0.159109
320 0.147158
325 0.135316
330 0.166493
335 0.213855
340 0.263964
345 0.201061
350 0.251643
355 0.241392
360 0.316316
365 0.5523
370 11.944
375 190.803
380 303.086
385 82.5095
390 11.5744
395 3.38082
400 3.04116
405 3.44096
410 3.51488
415 3.51528
420 4.5182
425 7.26065
430 8.20106
435 7.05827
440 7.15374
445 7.56904
450 8.61275
455 10.2615
460 12.2699
465 13.3336
470 14.523
475 15.6416
480 16.3866
485 16.5
490 16.7889
495 17.0153
500 16.5002
505 15.8078
510 15.1059
515 13.9349
520 13.0775
525 11.9949
530 10.8777
535 9.85476
540 8.78236
545 8.2628
550 7.17773
555 6.62941
560 5.68274
565 5.0048
570 3.9946
575 3.2296
580 2.69233
585 2.04152
590 1.66475
595 1.25182
600 1.24233
Ex : 388
200 0.141456
205 0.133287
210 0.139672
215 0.100302
220 0.195309
225 0.142145
230 0.134183
235 0.144497
240 0.161742
245 0.145553
250 0.164602
255 0.135993
260 0.151852
265 0.149517
270 0.163891
275 0.119838
280 0.115298
285 0.16613
290 0.167387
295 0.119575
300 0.155813
305 0.161938
310 0.192366
315 0.129059
320 0.154823
325 0.175007
330 0.173867
335 0.226316
340 0.19402
345 0.213986
350 0.216146
355 0.245111
360 0.280721
365 0.291635
370 0.494992
375 13.026
380 198.837
385 304.233
390 79.787
395 11.0968
400 3.20259
405 2.92973
410 3.37617
415 3.12065
420 3.07727
425 3.69825
430 6.13221
435 8.05232
440 7.51947
445 7.74204
450 8.47197
455 10.2615
460 11.7219
465 13.2079
470 14.4651
475 16.1284
480 16.9502
485 16.9399
490 17.6497
495 18.0276
500 17.2288
505 16.539
510 15.7506
515 14.6277
520 13.6636
525 12.5083
530 11.5406
535 10.5173
540 9.62244
545 8.72643
550 7.73889
555 6.93943
560 5.82347
565 5.14011
570 4.3747
575 3.60649
580 2.62721
585 2.02948
590 1.53804
595 1.32327
600 0.800015
Ex : 393
200 0.178562
205 0.158652
210 0.16719
215 0.137248
220 0.128526
225 0.145411
230 0.151641
235 0.156334
240 0.196518
245 0.147919
250 0.139912
255 0.137622
260 0.177593
265 0.167411
270 0.154292
275 0.165156
280 0.168983
285 0.153886
290 0.148122
295 0.168827
300 0.116107
305 0.159335
310 0.132802
315 0.185504
320 0.141582
325 0.186121
330 0.162422
335 0.175752
340 0.168124
345 0.302469
350 0.214194
355 0.186167
360 0.237558
365 0.250043
370 0.267881
375 0.52853
380 11.4517
385 191.656
390 313.593
395 84.9126
400 11.5683
405 3.242
410 2.82646
415 2.96335
420 2.81381
425 2.69238
430 3.20351
435 5.44889
440 8.50365
445 8.30455
450 9.15654
455 10.3907
460 12.1637
465 13.6917
470 15.3582
475 16.3864
480 17.3968
485 18.0986
490 18.7239
495 18.5194
500 18.0942
505 17.2399
510 16.6952
515 15.7521
520 14.2514
525 13.2494
530 12.1706
535 11.0483
540 10.274
545 9.05304
550 8.2359
555 7.06486
560 6.16097
565 5.41382
570 4.42701
575 3.68342
580 2.94093
585 2.21835
590 1.72077
595 1.43698
600 1.80749
Ex : 398
200 0.166599
205 0.113771
210 0.138671
215 0.115484
220 0.138099
225 0.150607
230 0.180743
235 0.143571
240 0.183329
245 0.137464
250 0.100347
255 0.12357
260 0.155478
265 0.156276
270 0.171594
275 0.157856
280 0.116309
285 0.113602
290 0.145253
295 0.15326
300 0.115013
305 0.178796
310 0.127842
315 0.159032
320 0.165507
325 0.0965011
330 0.156652
335 0.16183
340 0.161779
345 0.181806
350 0.149706
355 0.173714
360 0.250041
365 0.190247
370 0.276107
375 0.323586
380 0.509668
385 10.5752
390 192.898
395 325.092
400 88.8273
405 12.0096
410 3.27315
415 2.57773
420 2.75239
425 2.66769
430 2.61717
435 3.41742
440 5.39249
445 8.83258
450 10.5181
455 10.9647
460 12.4961
465 13.8402
470 15.1882
475 16.6012
480 17.7379
485 18.6351
490 18.941
495 19.1111
500 19.1493
505 17.9513
510 16.7584
515 15.5524
520 14.7797
525 13.4731
530 12.6229
535 11.3506
540 10.2899
545 9.42246
550 8.61168
555 7.38206
560 6.60438
565 5.69638
570 4.8907
575 3.84201
580 2.99924
585 2.36346
590 1.76518
595 1.34455
600 1.2683
Ex : 403
200 0.19617
205 0.13376
210 0.127326
215 0.119888
220 0.140853
225 0.182659
230 0.161686
235 0.130305
240 0.153195
245 0.129849
250 0.143815
255 0.201916
260 0.15271
265 0.124717
270 0.137708
275 0.133802
280 0.125654
285 0.184163
290 0.107227
295 0.146005
300 0.128169
305 0.0927085
310 0.151916
315 0.139421
320 0.142603
325 0.16011
330 0.129281
335 0.107989
340 0.148401
345 0.167538
350 0.213053
355 0.191865
360 0.200226
365 0.1652
370 0.170446
375 0.290583
380 0.370316
385 0.500469
390 12.1411
395 198.679
400 321.773
405 89.4342
410 12.0613
415 3.1819
420 2.41406
425 2.75327
430 2.9656
435 3.40984
440 4.15662
445 6.39077
450 9.98347
455 12.9381
460 13.1012
465 14.7394
470 15.6182
475 16.8888
480 17.8767
485 19.4123
490 19.4874
495 19.4686
500 19.3783
505 18.5035
510 17.6749
515 16.4352
520 15.0073
525 14.0921
530 12.6134
535 11.8449
540 10.7857
545 9.83469
550 8.68457
555 7.48121
560 6.88816
565 5.6583
570 4.83924
575 3.8702
580 3.04894
585 2.17925
590 1.72848
595 1.38602
600 1.12559
Ex : 408
200 0.106399
205 0.150806
210 0.121875
215 0.0884447
220 0.106004
225 0.109397
230 0.142912
235 0.159168
240 0.142086
245 0.125173
250 0.111884
255 0.147964
260 0.162992
265 0.139245
270 0.148805
275 0.162475
280 0.198338
285 0.109553
290 0.164025
295 0.126152
300 0.129583
305 0.155922
310 0.111326
315 0.149013
320 0.138567
325 0.14458
330 0.110102
335 0.155037
340 0.155714
345 0.167905
350 0.145365
355 0.213452
360 0.165867
365 0.245656
370 0.166188
375 0.214101
380 0.311373
385 0.292833
390 0.494635
395 11.1416
400 202.553
405 332.903
410 89.3693
415 12.1445
420 3.10569
425 2.44702
430 2.75445
435 3.09862
440 3.88724
445 5.10917
450 7.34419
455 10.9097
460 14.7303
465 15.3303
470 16.6351
475 16.9788
480 18.0569
485 18.609
490 19.1601
495 19.815
500 19.038
505 18.171
510 17.4269
515 16.3454
520 15.0875
525 13.9852
530 12.8661
535 11.4774
540 10.6158
545 9.51372
550 8.5193
555 7.53864
560 6.69507
565 5.74643
570 4.70037
575 3.9164
580 2.96098
585 2.39212
590 1.86724
595 1.44461
600 0.99293
Ex : 413
200 0.119134
205 0.169569
210 0.0970912
215 0.113845
220 0.15675
225 0.119875
230 0.105803
235 0.138579
240 0.123707
245 0.121931
250 0.159047
255 0.119745
260 0.145933
265 0.136412
270 0.116757
275 0.137141
280 0.128997
285 0.084945
290 0.140312
295 0.137629
300 0.157237
305 0.160056
310 0.106969
315 0.124336
320 0.101091
325 0.121597
330 0.176862
335 0.17054
340 0.141008
345 0.132183
350 0.166291
355 0.152545
360 0.145112
365 0.174252
370 0.19132
375 0.198955
380 0.22496
385 0.290373
390 0.353089
395 0.520151
400 13.1367
405 213.059
410 337.005
415 87.1499
420 11.6797
425 2.89804
430 2.34786
435 3.07583
440 3.7666
445 4.8495
450 6.26265
455 8.75225
460 12.0042
465 15.8199
470 16.3028
475 16.6627
480 17.5745
485 18.3657
490 18.9782
495 18.8077
500 18.5152
505 17.6881
510 17.0982
515 16.1529
520 15.0577
525 13.8703
530 12.5303
535 11.8732
540 10.6175
545 9.45677
550 8.39005
555 7.48832
560 6.47933
565 5.66327
570 4.44351
575 3.70921
580 2.97646
585 2.23277
590 1.8011
595 1.34894
600 1.05743
Ex : 418
200 0.163325
205 0.134704
210 0.137742
215 0.156243
220 0.117534
225 0.15735
230 0.175371
235 0.145241
240 0.107748
245 0.134915
250 0.158284
255 0.117702
260 0.124205
265 0.117755
270 0.113801
275 0.108063
280 0.163868
285 0.168676
290 0.141818
295 0.157111
300 0.119428
305 0.200745
310 0.167139
315 0.11427
320 0.149919
325 0.106159
330 0.121734
335 0.113309
340 0.187923
345 0.166394
350 0.159874
355 0.159239
360 0.186079
365 0.147957
370 0.207382
375 0.226861
380 0.177188
385 0.172872
390 0.32183
395 0.361112
400 0.564864
405 12.6498
410 210.529
415 339.042
420 91.9165
425 12.3114
430 3.14329
435 2.58768
440 3.50392
445 4.46345
450 5.85957
455 7.52725
460 10.0612
465 12.7895
470 16.0288
475 17.7797
480 17.7967
485 17.6977
490 18.299
495 18.2148
500 17.3552
505 16.8428
510 15.9291
515 15.2499
520 14.0531
525 13.1742
530 11.9569
535 10.7854
540 9.92198
545 9.05434
550 7.82442
555 7.04035
560 6.52611
565 5.41939
570 4.48992
575 3.56748
580 2.95271
585 2.16401
590 1.72703
595 1.36803
600 1.5895
Ex : 423
200 0.121252
205 0.147432
210 0.160559
215 0.182616
220 0.155661
225 0.131748
230 0.136547
235 0.165634
240 0.137909
245 0.140224
250 0.150587
255 0.140914
260 0.119739
265 0.125564
270 0.10062
275 0.0901085
280 0.107996
285 0.136152
290 0.161543
295 0.116725
300 0.110891
305 0.14696
310 0.152373
315 0.195154
320 0.188915
325 0.180177
330 0.170702
335 0.132742
340 0.1502
345 0.19271
350 0.193077
355 0.149397
360 0.211035
365 0.203705
370 0.19263
375 0.135258
380 0.187379
385 0.197695
390 0.253129
395 0.336459
400 0.356531
405 0.58308
410 13.1111
415 229.772
420 346.6
425 87.6236
430 11.5675
435 3.26299
440 2.99687
445 4.1668
450 5.6422
455 7.56979
460 8.98774
465 10.8362
470 12.8864
475 15.9931
480 17.4106
485 17.1764
490 17.4403
495 16.8544
500 16.4286
505 15.7917
510 15.2988
515 13.9472
520 12.8544
525 11.9412
530 11.1075
535 10.2986
540 9.29452
545 8.61223
550 7.28125
555 6.32153
560 5.74158
565 5.09403
570 4.03006
575 3.29385
580 2.63685
585 2.06774
590 1.59045
595 1.23547
600 1.20925
Ex : 428
200 0.128804
205 0.1491
210 0.15924
215 0.180383
220 0.112308
225 0.104513
230 0.131285
235 0.0877948
240 0.213835
245 0.134602
250 0.0934425
255 0.158274
260 0.0999255
265 0.202419
270 0.123241
275 0.154574
280 0.151086
285 0.147251
290 0.127754
295 0.191466
300 0.158001
305 0.137293
310 0.132098
315 0.195981
320 0.145719
325 0.131151
330 0.149741
335 0.156615
340 0.1552
345 0.15742
350 0.121157
355 0.136081
360 0.162489
365 0.165398
370 0.16625
375 0.13746
380 0.208631
385 0.211806
390 0.253051
395 0.251537
400 0.350208
405 0.383178
410 0.559971
415 15.5044
420 238.604
425 357.464
430 90.9079
435 12.2168
440 3.66088
445 3.6124
450 5.01806
455 6.86258
460 8.08946
465 9.27368
470 11.0481
475 12.35
480 14.7916
485 16.7015
490 16.1305
495 15.1542
500 15.2429
505 14.1661
510 13.1702
515 12.492
520 11.7012
525 11.1957
530 10.0078
535 9.18157
540 8.20632
545 7.46267
550 6.85782
555 6.20744
560 5.25071
565 4.59302
570 3.75335
575 2.97321
580 2.45598
585 1.76899
590 1.55135
595 1.177
600 1.10369
Ex : 433
200 0.0886147
205 0.0751599
210 0.167441
215 0.127199
220 0.127481
225 0.159574
230 0.119179
235 0.132914
240 0.13902
245 0.15898
250 0.112666
255 0.159026
260 0.11108
265 0.165857
270 0.15292
275 0.127901
280 0.140473
285 0.112183
290 0.128065
295 0.159112
300 0.154949
305 0.121528
310 0.149626
315 0.126585
320 0.143312
325 0.1706
330 0.142676
335 0.205252
340 0.138215
345 0.150385
350 0.139056
355 0.172432
360 0.191504
365 0.153393
370 0.21293
375 0.190416
380 0.192668
385 0.213344
390 0.200284
395 0.170361
400 0.278816
405 0.27318
410 0.438562
415 0.646611
420 17.3739
425 255.9
430 369.449
435 92.2213
440 12.7235
445 4.57646
450 4.40738
455 5.92293
460 7.51365
465 8.68787
470 9.60057
475 10.7763
480 11.6895
485 13.3387
490 15.2857
495 14.6411
500 13.6193
505 13.0906
510 12.1344
515 11.2394
520 10.487
525 9.62128
530 8.90074
535 8.18006
540 7.43805
545 6.75158
550 6.03832
555 5.33953
560 4.67746
565 3.87609
570 3.29949
575 2.88382
580 2.19659
585 1.66129
590 1.26747
595 1.19003
600 1.44832
Ex : 438
200 0.129778
205 0.12838
210 0.159593
215 0.147607
220 0.109727
225 0.122977
230 0.111314
235 0.136749
240 0.126399
245 0.148638
250 0.134357
255 0.224551
260 0.165835
265 0.139286
270 0.153424
275 0.104271
280 0.145597
285 0.129021
290 0.116445
295 0.147988
300 0.155819
305 0.145258
310 0.146301
315 0.165518
320 0.102212
325 0.176196
330 0.12294
335 0.198841
340 0.165442
345 0.144403
350 0.151863
355 0.111122
360 0.17463
365 0.171349
370 0.146201
375 0.198506
380 0.164831
385 0.202883
390 0.225768
395 0.225711
400 0.235343
405 0.294647
410 0.268801
415 0.457155
420 0.605466
425 17.0693
430 263.583
435 394.097
440 97.3975
445 13.8608
450 4.88296
455 4.99807
460 6.21069
465 7.41697
470 8.26675
475 8.80126
480 9.63767
485 10.2455
490 11.2083
495 12.8496
500 13.1011
505 11.5144
510 10.6908
515 9.57693
520 8.7598
525 8.12321
530 7.55368
535 6.94384
540 6.3772
545 5.62155
550 5.16527
555 4.56808
560 3.98666
565 3.29597
570 2.73847
575 2.32442
580 1.69486
585 1.39686
590 1.23088
595 0.990638
600 0.210703
Ex : 443
200 0.122987
205 0.191251
210 0.150026
215 0.144389
220 0.128606
225 0.144487
230 0.153408
235 0.125332
240 0.160601
245 0.118832
250 0.134388
255 0.109009
260 0.12087
265 0.166699
270 0.161793
275 0.161599
280 0.163775
285 0.14269
290 0.140169
295 0.140472
300 0.134499
305 0.126126
310 0.147398
315 0.1475
320 0.115602
325 0.15976
330 0.186998
335 0.124713
340 0.157014
345 0.12056
350 0.19492
355 0.129748
360 0.164964
365 0.263841
370 0.17417
375 0.202286
380 0.211065
385 0.158052
390 0.217789
395 0.224899
400 0.227888
405 0.235012
410 0.297751
415 0.32902
420 0.412148
425 0.635815
430 18.6554
435 277.714
440 409.304
445 102.539
450 14.6309
455 5.3711
460 4.93295
465 6.18269
470 6.64722
475 7.48404
480 7.71161
485 8.19563
490 8.48447
495 9.18987
500 10.1262
505 10.8199
510 9.4683
515 8.34303
520 7.9547
525 7.22183
530 6.27798
535 5.68006
540 5.18266
545 4.61935
550 4.06375
555 3.62845
560 3.40082
565 2.80741
570 2.60941
575 2.15287
580 1.60612
585 1.29515
590 1.06019
595 0.82187
600 0.677342
Ex : 448
200 0.0915763
205 0.158936
210 0.135826
215 0.105985
220 0.101674
225 0.14375
230 0.141173
235 0.137065
240 0.145401
245 0.128698
250 0.183749
255 0.135187
260 0.111003
265 0.112091
270 0.157808
275 0.144107
280 0.148034
285 0.184454
290 0.1448
295 0.155148
300 0.167104
305 0.147891
310 0.107413
315 0.129862
320 0.154837
325 0.155303
330 0.198888
335 0.159523
340 0.148616
345 0.13232
350 0.142077
355 0.140907
360 0.155785
365 0.125855
370 0.146691
375 0.186392
380 0.195299
385 0.180416
390 0.195815
395 0.146587
400 0.207365
405 0.220325
410 0.229713
415 0.240856
420 0.363953
425 0.359695
430 0.636415
435 18.7169
440 291.307
445 427.875
450 107.337
455 15.3623
460 5.21594
465 4.50667
470 5.19319
475 5.72866
480 6.2597
485 6.25864
490 6.37849
495 6.50053
500 6.60448
505 7.05726
510 8.21383
515 7.47573
520 6.248
525 5.78385
530 5.13905
535 4.48824
540 4.02109
545 3.61376
550 3.40257
555 2.93215
560 2.56741
565 2.32673
570 1.95825
575 1.6989
580 1.2349
585 0.980832
590 0.862099
595 0.688019
600 0.554329
Ex : 453
200 0.131812
205 0.127229
210 0.0958546
215 0.157616
220 0.114677
225 0.136415
230 0.123257
235 0.0826486
240 0.133975
245 0.147535
250 0.18623
255 0.141795
260 0.118607
265 0.171702
270 0.126054
275 0.170503
280 0.158792
285 0.118839
290 0.127431
295 0.10646
300 0.158043
305 0.158608
310 0.162313
315 0.100554
320 0.159651
325 0.13209
330 0.176993
335 0.177579
340 0.160978
345 0.209941
350 0.159649
355 0.143105
360 0.222131
365 0.124765
370 0.13781
375 0.174816
380 0.170853
385 0.177517
390 0.184703
395 0.167905
400 0.146276
405 0.163893
410 0.247521
415 0.216223
420 0.286498
425 0.326607
430 0.462327
435 0.662446
440 19.4745
445 315.677
450 444.522
455 104.753
460 14.9598
465 5.02676
470 3.99193
475 4.14959
480 4.76488
485 4.66152
490 4.61422
495 4.52741
500 4.71594
505 4.57655
510 5.00796
515 6.15667
520 5.6573
525 4.68739
530 3.9975
535 3.58083
540 3.20522
545 2.90207
550 2.48001
555 2.40083
560 2.05187
565 1.72355
570 1.47366
575 1.34157
580 0.951257
585 0.752228
590 0.60831
595 0.522006
600 0.348197
Ex : 458
200 0.14699
205 0.154422
210 0.133641
215 0.151348
220 0.145274
225 0.0898514
230 0.114152
235 0.112571
240 0.134127
245 0.153415
250 0.127079
255 0.0975712
260 0.141071
265 0.143591
270 0.15654
275 0.124781
280 0.231827
285 0.136056
290 0.139019
295 0.133049
300 0.120143
305 0.160929
310 0.14583
315 0.105236
320 0.143602
325 0.147035
330 0.137192
335 0.140431
340 0.155805
345 0.141863
350 0.139996
355 0.146047
360 0.183852
365 0.160486
370 0.163658
375 0.182416
380 0.197565
385 0.160969
390 0.184077
395 0.173477
400 0.205828
405 0.195474
410 0.217324
415 0.246789
420 0.180142
425 0.261983
430 0.30598
435 0.539307
440 0.761646
445 21.9909
450 318.287
455 458.415
460 111.982
465 15.2798
470 4.50005
475 3.04711
480 3.05284
485 3.43803
490 3.49456
495 3.39943
500 3.43301
505 3.0178
510 3.03542
515 3.32382
520 4.53361
525 4.96567
530 3.82255
535 2.97839
540 2.85806
545 2.30182
550 2.12486
555 1.84249
560 1.54206
565 1.37603
570 1.18876
575 1.1368
580 0.769958
585 0.737142
590 0.630609
595 0.560222
600 0.527259
Ex : 463
200 0.121994
205 0.107298
210 0.119047
215 0.131149
220 0.184398
225 0.138681
230 0.136145
235 0.137886
240 0.197853
245 0.133372
250 0.119282
255 0.13267
260 0.115353
265 0.17835
270 0.191515
275 0.150581
280 0.143521
285 0.0976968
290 0.117077
295 0.14603
300 0.138826
305 0.198265
310 0.173313
315 0.133232
320 0.144209
325 0.137802
330 0.173476
335 0.233166
340 0.188891
345 0.120268
350 0.165513
355 0.1574
360 0.142488
365 0.0893862
370 0.114538
375 0.121081
380 0.147536
385 0.150352
390 0.105756
395 0.17268
400 0.226042
405 0.166984
410 0.172293
415 0.235405
420 0.1706
425 0.242701
430 0.322561
435 0.292194
440 0.472783
445 0.755486
450 20.7248
455 325.874
460 484.273
465 117.231
470 15.3652
475 3.74999
480 2.25703
485 2.34738
490 2.78293
495 2.74161
500 2.60525
505 2.29414
510 2.08805
515 2.29128
520 2.23047
525 2.80749
530 3.96426
535 3.58276
540 2.54376
545 2.17873
550 1.92567
555 1.47413
560 1.30246
565 1.2636
570 1.09298
575 0.919857
580 0.703841
585 0.667309
590 0.490335
595 0.404913
600 0.249335
Ex : 468
200 0.112416
205 0.130333
210 0.123383
215 0.0990198
220 0.104432
225 0.120944
230 0.138
235 0.149888
240 0.111719
245 0.109357
250 0.138427
255 0.110086
260 0.14467
265 0.135283
270 0.173971
275 0.0988933
280 0.124505
285 0.173043
290 0.125928
295 0.137284
300 0.146197
305 0.149941
310 0.155633
315 0.117996
320 0.123358
325 0.126484
330 0.131377
335 0.148734
340 0.163011
345 0.16198
350 0.162072
355 0.104583
360 0.124689
365 0.137497
370 0.111255
375 0.143219
380 0.112755
385 0.122567
390 0.160927
395 0.134386
400 0.19568
405 0.170969
410 0.199655
415 0.170177
420 0.173932
425 0.169413
430 0.163361
435 0.249064
440 0.33847
445 0.44228
450 0.705472
455 22.5642
460 324.804
465 501.482
470 120.191
475 15.4538
480 3.38476
485 2.04054
490 1.91411
495 2.15689
500 2.20305
505 1.9235
510 1.90107
515 1.82828
520 1.75125
525 1.81272
530 2.15895
535 3.46434
540 3.44664
545 2.36157
550 1.88872
555 1.63515
560 1.40791
565 1.26123
570 1.07396
575 0.75741
580 0.689092
585 0.630794
590 0.493711
595 0.479371
600 0.16961
Ex : 473
200 0.0925021
205 0.118655
210 0.117984
215 0.111417
220 0.117741
225 0.123218
230 0.134871
235 0.130722
240 0.164172
245 0.134363
250 0.138282
255 0.124361
260 0.137576
265 0.134706
270 0.14152
275 0.109428
280 0.11333
285 0.154442
290 0.12377
295 0.151209
300 0.145465
305 0.181129
310 0.1335
315 0.132984
320 0.146981
325 0.14935
330 0.157943
335 0.184876
340 0.139929
345 0.156668
350 0.157683
355 0.186958
360 0.187407
365 0.156756
370 0.154263
375 0.175496
380 0.133394
385 0.167407
390 0.147091
395 0.203802
400 0.18601
405 0.147117
410 0.152289
415 0.146039
420 0.176177
425 0.18434
430 0.237435
435 0.243564
440 0.293926
445 0.348366
450 0.549711
455 0.72948
460 25.4318
465 354.879
470 480.724
475 110.523
480 14.0368
485 3.1044
490 1.75541
495 1.58777
500 1.74877
505 1.80892
510 1.6461
515 1.53997
520 1.5296
525 1.63351
530 1.6263
535 1.77861
540 2.67266
545 3.25408
550 2.24711
555 1.57048
560 1.59289
565 1.23852
570 1.00505
575 0.691302
580 0.64636
585 0.516842
590 0.461041
595 0.433352
600 0.673035
Ex : 478
200 0.154652
205 0.188516
210 0.177572
215 0.123015
220 0.152925
225 0.148089
230 0.149471
235 0.161828
240 0.128492
245 0.140703
250 0.140623
255 0.143302
260 0.0983198
265 0.180948
270 0.131801
275 0.157318
280 0.158198
285 0.112052
290 0.158743
295 0.141188
300 0.181096
305 0.146011
310 0.186269
315 0.150181
320 0.176912
325 0.171371
330 0.159253
335 0.198096
340 0.131854
345 0.135981
350 0.179001
355 0.186038
360 0.154987
365 0.136891
370 0.231131
375 0.162138
380 0.145223
385 0.150404
390 0.208414
395 0.204799
400 0.212088
405 0.167671
410 0.169525
415 0.191611
420 0.213896
425 0.23089
430 0.226082
435 0.253711
440 0.220765
445 0.327617
450 0.377776
455 0.531193
460 0.875066
465 27.3062
470 361.842
475 477.462
480 114.383
485 14.6045
490 3.15503
495 1.57997
500 1.41518
505 1.58075
510 1.67497
515 1.70151
520 1.47854
525 1.49955
530 1.30808
535 1.36745
540 1.47799
545 1.82889
550 2.78263
555 2.32059
560 1.62741
565 1.28583
570 1.22185
575 0.873702
580 0.598944
585 0.552103
590 0.448523
595 0.436516
600 0.973455
Ex : 483
200 0.112526
205 0.121527
210 0.215418
215 0.142296
220 0.135564
225 0.1573
230 0.129097
235 0.148427
240 0.120877
245 0.218551
250 0.234404
255 0.18237
260 0.162106
265 0.156828
270 0.147074
275 0.158902
280 0.114045
285 0.134962
290 0.220898
295 0.176802
300 0.154187
305 0.152312
310 0.147863
315 0.140631
320 0.158918
325 0.159724
330 0.217892
335 0.126847
340 0.174992
345 0.165216
350 0.123815
355 0.221083
360 0.203069
365 0.241973
370 0.198794
375 0.176909
380 0.178294
385 0.190583
390 0.154641
395 0.146593
400 0.203897
405 0.146307
410 0.164126
415 0.219057
420 0.171247
425 0.227096
430 0.213996
435 0.299453
440 0.257809
445 0.244374
450 0.360414
455 0.383146
460 0.483856
465 1.03131
470 21.017
475 349.134
480 508.635
485 120.166
490 15.048
495 3.06679
500 1.51123
505 1.33366
510 1.49365
515 1.6716
520 1.55152
525 1.43374
530 1.38715
535 1.28006
540 1.314
545 1.16482
550 1.39359
555 2.27858
560 2.54639
565 1.59665
570 1.20007
575 1.04956
580 0.88303
585 0.560265
590 0.445176
595 0.392503
600 1.40186
Ex : 488
200 0.170601
205 0.176961
210 0.0800362
215 0.225261
220 0.205265
225 0.165643
230 0.093004
235 0.170015
240 0.209324
245 0.204579
250 0.113834
255 0.142572
260 0.120856
265 0.164749
270 0.127946
275 0.179966
280 0.166524
285 0.117929
290 0.194739
295 0.219451
300 0.165142
305 0.184297
310 0.222453
315 0.18787
320 0.175494
325 0.186335
330 0.147769
335 0.136078
340 0.120451
345 0.265592
350 0.22867
355 0.170374
360 0.176736
365 0.13797
370 0.210221
375 0.173759
380 0.203174
385 0.17126
390 0.204946
395 0.137958
400 0.212989
405 0.243075
410 0.148859
415 0.270259
420 0.20867
425 0.221804
430 0.276406
435 0.203728
440 0.255125
445 0.335383
450 0.308794
455 0.368344
460 0.469897
465 0.57148
470 0.896834
475 26.0429
480 366.018
485 491.24
490 113.336
495 14.2093
500 2.91907
505 1.44376
510 1.07779
515 1.38557
520 1.66809
525 1.60826
530 1.56767
535 1.29904
540 1.37413
545 1.19485
550 1.35629
555 1.26816
560 1.86059
565 2.05819
570 1.56682
575 0.916883
580 0.873589
585 0.70926
590 0.514366
595 0.440869
600 0.252828
Ex : 493
200 0.149002
205 0.267073
210 0.155276
215 0.18224
220 0.156076
225 0.227094
230 0.143067
235 0.154907
240 0.15916
245 0.130496
250 0.170418
255 0.189461
260 0.176599
265 0.16525
270 0.21479
275 0.14617
280 0.18457
285 0.175587
290 0.170607
295 0.212572
300 0.206758
305 0.197926
310 0.196246
315 0.306771
320 0.201032
325 0.159309
330 0.224973
335 0.185471
340 0.23196
345 0.202241
350 0.179585
355 0.165026
360 0.165341
365 0.200713
370 0.148412
375 0.238582
380 0.20157
385 0.225691
390 0.1957
395 0.168904
400 0.169733
405 0.239952
410 0.206024
415 0.212714
420 0.222075
425 0.23886
430 0.189693
435 0.26158
440 0.254806
445 0.273956
450 0.305119
455 0.267027
460 0.365073
465 0.46498
470 0.528261
475 0.826855
480 23.2807
485 364.323
490 509.982
495 113.099
500 14.0747
505 2.66368
510 1.41544
515 1.24544
520 1.25664
525 1.59501
530 1.49336
535 1.45329
540 1.25276
545 1.28027
550 1.20071
555 1.15123
560 1.01088
565 1.3542
570 1.98509
575 1.48345
580 0.852615
585 0.583773
590 0.553416
595 0.516844
600 0.30668
Ex : 498
200 0.165287
205 0.176586
210 0.219929
215 0.191968
220 0.177252
225 0.225366
230 0.181146
235 0.159644
240 0.193102
245 0.185577
250 0.134036
255 0.150928
260 0.165565
265 0.242052
270 0.169831
275 0.214343
280 0.182799
285 0.148293
290 0.142744
295 0.175952
300 0.181216
305 0.21058
310 0.203815
315 0.212259
320 0.178085
325 0.178209
330 0.217093
335 0.224809
340 0.166976
345 0.156995
350 0.14403
355 0.250646
360 0.250006
365 0.204329
370 0.249112
375 0.214324
380 0.251911
385 0.274569
390 0.209595
395 0.216664
400 0.237916
405 0.219692
410 0.307839
415 0.224848
420 0.371125
425 0.241667
430 0.180877
435 0.25124
440 0.216969
445 0.268876
450 0.262358
455 0.247444
460 0.302605
465 0.297231
470 0.496559
475 0.604684
480 0.85203
485 28.8651
490 374.09
495 476.451
500 107.372
505 13.4947
510 2.58368
515 1.42394
520 1.28243
525 1.3042
530 1.5451
535 1.49763
540 1.27354
545 1.22956
550 1.14394
555 0.977421
560 1.1194
565 0.797281
570 0.936927
575 1.43381
580 1.52239
585 0.844052
590 0.569208
595 0.55309
600 1.27682
Ex : 503
200 0.183554
205 0.183809
210 0.174369
215 0.176466
220 0.155058
225 0.21323
230 0.110438
235 0.158907
240 0.203084
245 0.193293
250 0.15264
255 0.155682
260 0.183074
265 0.191133
270 0.183154
275 0.160649
280 0.195104
285 0.25341
290 0.270693
295 0.195668
300 0.240945
305 0.247453
310 0.176112
315 0.218632
320 0.181096
325 0.200631
330 0.236742
335 0.265949
340 0.280825
345 0.22475
350 0.187798
355 0.177248
360 0.160642
365 0.191441
370 0.198115
375 0.17746
380 0.162583
385 0.196919
390 0.206088
395 0.222102
400 0.196174
405 0.229713
410 0.233315
415 0.267716
420 0.254005
425 0.261356
430 0.246833
435 0.332335
440 0.423928
445 0.243926
450 0.191048
455 0.215253
460 0.382348
465 0.327588
470 0.333027
475 0.444515
480 0.55037
485 0.883545
490 23.8601
495 360.028
500 489.734
505 110.626
510 13.8423
515 2.79955
520 1.451
525 1.15502
530 1.2716
535 1.44267
540 1.54365
545 1.37659
550 1.24045
555 1.10451
560 1.06836
565 1.02466
570 0.907605
575 0.774789
580 0.97153
585 1.17815
590 0.874089
595 0.571814
600 0.809481
Ex : 508
200 0.212168
205 0.191623
210 0.221411
215 0.171272
220 0.176042
225 0.213678
230 0.234553
235 0.228647
240 0.150819
245 0.191385
250 0.159425
255 0.173208
260 0.28722
265 0.192105
270 0.204381
275 0.228616
280 0.196791
285 0.167609
290 0.174329
295 0.170525
300 0.190401
305 0.222675
310 0.258985
315 0.211963
320 0.129195
325 0.215134
330 0.147871
335 0.214056
340 0.199205
345 0.218051
350 0.20839
355 0.260842
360 0.193776
365 0.202327
370 0.221289
375 0.327598
380 0.248641
385 0.247312
390 0.138759
395 0.242145
400 0.271239
405 0.252737
410 0.225629
415 0.370937
420 0.289868
425 0.208144
430 0.254822
435 0.213693
440 0.18024
445 0.191583
450 0.273228
455 0.270915
460 0.285901
465 0.254257
470 0.417079
475 0.337799
480 0.432801
485 0.485655
490 0.758161
495 24.5115
500 354.617
505 486.211
510 117.074
515 14.6447
520 2.96139
525 1.38701
530 1.23309
535 1.18158
540 1.48757
545 1.4379
550 1.44779
555 1.12341
560 0.89604
565 0.852027
570 0.730256
575 0.655324
580 0.609828
585 0.660888
590 0.811388
595 0.738926
600 2.52525
Ex : 513
200 0.196664
205 0.206739
210 0.356017
215 0.192636
220 0.140351
225 0.194771
230 0.240369
235 0.181141
240 0.188416
245 0.215454
250 0.197967
255 0.172473
260 0.208058
265 0.189922
270 0.285798
275 0.184765
280 0.180607
285 0.205013
290 0.296701
295 0.260606
300 0.181505
305 0.202655
310 0.209748
315 0.251126
320 0.246266
325 0.195487
330 0.239997
335 0.237005
340 0.183389
345 0.180967
350 0.245182
355 0.210173
360 0.277161
365 0.22454
370 0.176153
375 0.176845
380 0.265927
385 0.220285
390 0.284432
395 0.23157
400 0.166268
405 0.243348
410 0.214821
415 0.216082
420 0.208725
425 0.213754
430 0.262185
435 0.211756
440 0.227723
445 0.273852
450 0.233996
455 0.379149
460 0.309259
465 0.443429
470 0.367099
475 0.343929
480 0.391198
485 0.463298
490 0.585516
495 0.843072
500 21.544
505 345.682
510 493.386
515 119.655
520 14.9786
525 2.88395
530 1.57199
535 1.4879
540 1.26518
545 1.2553
550 1.33821
555 1.26863
560 1.06291
565 0.818884
570 0.758929
575 0.811328
580 0.576039
585 0.537613
590 0.522029
595 0.711982
600 1.20663
Ex : 518
200 0.199462
205 0.19698
210 0.2227
215 0.236706
220 0.298614
225 0.178019
230 0.174954
235 0.248378
240 0.191049
245 0.216352
250 0.160446
255 0.224241
260 0.18759
265 0.203004
270 0.205362
275 0.194355
280 0.221078
285 0.220249
290 0.221638
295 0.227002
300 0.20633
305 0.189847
310 0.268613
315 0.328745
320 0.173773
325 0.171401
330 0.250103
335 0.253629
340 0.184785
345 0.233955
350 0.231874
355 0.225774
360 0.27079
365 0.16903
370 0.189213
375 0.236873
380 0.223402
385 0.272767
390 0.223321
395 0.250017
400 0.251775
405 0.281297
410 0.235403
415 0.293737
420 0.22763
425 0.277711
430 0.263268
435 0.26852
440 0.219913
445 0.254427
450 0.252708
455 0.237729
460 0.312057
465 0.337457
470 0.277633
475 0.281007
480 0.381787
485 0.401145
490 0.43492
495 0.638145
500 0.757985
505 22.5078
510 326.268
515 478.333
520 117.776
525 14.7983
530 2.82761
535 1.6165
540 1.42497
545 1.23936
550 1.18856
555 1.2282
560 1.07637
565 1.01454
570 0.848363
575 0.707439
580 0.543524
585 0.574165
590 0.472161
595 0.404623
600 0.0460446
Ex : 523
200 0.250899
205 0.168982
210 0.247086
215 0.22392
220 0.160146
225 0.236561
230 0.331383
235 0.167191
240 0.257019
245 0.187491
250 0.192966
255 0.209695
260 0.122918
265 0.138511
270 0.134329
275 0.208841
280 0.130946
285 0.199113
290 0.217752
295 0.206219
300 0.223909
305 0.19024
310 0.151471
315 0.193592
320 0.254744
325 0.238778
330 0.242009
335 0.200087
340 0.208719
345 0.222748
350 0.240078
355 0.194607
360 0.219188
365 0.236431
370 0.185755
375 0.240765
380 0.236845
385 0.195255
390 0.204711
395 0.280133
400 0.230523
405 0.217223
410 0.260502
415 0.288228
420 0.283887
425 0.204482
430 0.174596
435 0.222371
440 0.247768
445 0.212373
450 0.260632
455 0.324382
460 0.300953
465 0.29473
470 0.326137
475 0.292927
480 0.320123
485 0.254349
490 0.397283
495 0.470902
500 0.572406
505 0.690807
510 20.049
515 312.865
520 470.722
525 120.977
530 15.152
535 2.81696
540 1.58367
545 1.50314
550 1.27345
555 1.26893
560 1.17449
565 1.07541
570 0.813323
575 0.682419
580 0.594708
585 0.507873
590 0.454444
595 0.419241
600 0.406734
Ex : 528
200 0.245389
205 0.257739
210 0.25797
215 0.324092
220 0.231719
225 0.19702
230 0.243633
235 0.178355
240 0.205672
245 0.255714
250 0.252208
255 0.19675
260 0.231248
265 0.21881
270 0.240388
275 0.22387
280 0.204772
285 0.187138
290 0.200616
295 0.297778
300 0.258659
305 0.232126
310 0.177218
315 0.266654
320 0.282582
325 0.22593
330 0.231488
335 0.219724
340 0.232151
345 0.273723
350 0.29942
355 0.210512
360 0.226096
365 0.257486
370 0.201089
375 0.233779
380 0.209314
385 0.233057
390 0.270091
395 0.226303
400 0.215724
405 0.260884
410 0.245629
415 0.204328
420 0.19347
425 0.282468
430 0.312494
435 0.331666
440 0.2612
445 0.294576
450 0.262248
455 0.281156
460 0.272604
465 0.307537
470 0.320287
475 0.358411
480 0.277417
485 0.290355
490 0.392654
495 0.416835
500 0.47408
505 0.592949
510 0.838261
515 19.0022
520 307.231
525 455.045
530 113.741
535 14.3767
540 2.96882
545 1.63327
550 1.42163
555 1.27485
560 1.26175
565 1.07723
570 0.811583
575 0.79728
580 0.612174
585 0.530644
590 0.482687
595 0.396067
600 0.178925
Ex : 533
200 0.148191
205 0.232716
210 0.289685
215 0.250852
220 0.177774
225 0.184584
230 0.214953
235 0.178613
240 0.198506
245 0.207898
250 0.248024
255 0.180197
260 0.189339
265 0.292381
270 0.198195
275 0.212209
280 0.272364
285 0.186891
290 0.166954
295 0.202398
300 0.265571
305 0.192547
310 0.222942
315 0.229852
320 0.19499
325 0.171538
330 0.194154
335 0.265294
340 0.197534
345 0.232308
350 0.234914
355 0.233372
360 0.207569
365 0.276446
370 0.23131
375 0.205353
380 0.148039
385 0.227423
390 0.218841
395 0.200749
400 0.296051
405 0.393169
410 0.264266
415 0.225469
420 0.281229
425 0.305722
430 0.291639
435 0.20516
440 0.291879
445 0.243737
450 0.250889
455 0.209913
460 0.249608
465 0.30515
470 0.316516
475 0.237006
480 0.295281
485 0.24233
490 0.298574
495 0.346023
500 0.455981
505 0.54763
510 0.571451
515 0.751625
520 18.7745
525 292.626
530 443.377
535 114.191
540 14.736
545 2.91251
550 1.65852
555 1.31342
560 1.09656
565 1.02793
570 0.841056
575 0.777933
580 0.642489
585 0.51278
590 0.530391
595 0.521712
600 0.898182
Ex : 538
200 0.273426
205 0.23517
210 0.22815
215 0.20581
220 0.229882
225 0.184554
230 0.0894637
235 0.243485
240 0.219307
245 0.225861
250 0.210738
255 0.241958
260 0.240228
265 0.219082
270 0.2623
275 0.292042
280 0.243195
285 0.234459
290 0.283369
295 0.235783
300 0.242964
305 0.17267
310 0.195009
315 0.213726
320 0.229248
325 0.238134
330 0.229195
335 0.244275
340 0.22683
345 0.227844
350 0.236033
355 0.311288
360 0.302189
365 0.28009
370 0.204632
375 0.280587
380 0.173358
385 0.237369
390 0.251165
395 0.208444
400 0.293424
405 0.269143
410 0.336097
415 0.307177
420 0.264756
425 0.265761
430 0.290618
435 0.209369
440 0.281531
445 0.372631
450 0.312486
455 0.356549
460 0.266718
465 0.302258
470 0.282864
475 0.303088
480 0.285127
485 0.32718
490 0.256394
495 0.339247
500 0.395232
505 0.465073
510 0.416297
515 0.539591
520 0.879001
525 16.4418
530 278.784
535 434.069
540 115.713
545 14.6579
550 2.85439
555 1.38365
560 1.07046
565 0.8537
570 0.75504
575 0.715389
580 0.648983
585 0.55938
590 0.51444
595 0.42363
600 0.454588
Ex : 543
200 0.246741
205 0.213204
210 0.261088
215 0.233367
220 0.219712
225 0.166679
230 0.198339
235 0.187606
240 0.293971
245 0.270096
250 0.233716
255 0.193923
260 0.204154
265 0.252966
270 0.169768
275 0.192997
280 0.206959
285 0.192917
290 0.202903
295 0.210435
300 0.257126
305 0.223366
310 0.242307
315 0.253256
320 0.199406
325 0.266624
330 0.272597
335 0.328072
340 0.259548
345 0.196001
350 0.260991
355 0.363187
360 0.276094
365 0.198065
370 0.259093
375 0.191733
380 0.259125
385 0.308122
390 0.27449
395 0.285196
400 0.262599
405 0.258287
410 0.282177
415 0.251164
420 0.260443
425 0.365207
430 0.213275
435 0.238357
440 0.293009
445 0.375327
450 0.278838
455 0.247506
460 0.287598
465 0.27752
470 0.312694
475 0.219024
480 0.256302
485 0.325779
490 0.422992
495 0.268173
500 0.308497
505 0.371965
510 0.40875
515 0.362177
520 0.606825
525 0.766516
530 15.4732
535 270.818
540 426.288
545 114.559
550 14.4117
555 2.56318
560 1.04469
565 0.961321
570 0.693902
575 0.656181
580 0.567006
585 0.534187
590 0.592148
595 0.456261
600 0.167077
Ex : 548
200 0.255093
205 0.164476
210 0.178766
215 0.26393
220 0.299045
225 0.185976
230 0.202224
235 0.320315
240 0.187355
245 0.168813
250 0.213032
255 0.235996
260 0.240659
265 0.233646
270 0.203454
275 0.21992
280 0.236893
285 0.212991
290 0.323742
295 0.196043
300 0.214005
305 0.290935
310 0.259319
315 0.280615
320 0.347357
325 0.349165
330 0.219489
335 0.269939
340 0.211152
345 0.282676
350 0.288687
355 0.317934
360 0.345778
365 0.271553
370 0.24133
375 0.202291
380 0.285483
385 0.186723
390 0.220423
395 0.207194
400 0.237717
405 0.26753
410 0.293023
415 0.300053
420 0.331329
425 0.255157
430 0.215916
435 0.23588
440 0.289108
445 0.215798
450 0.282588
455 0.277111
460 0.23779
465 0.284801
470 0.318976
475 0.30935
480 0.262575
485 0.216613
490 0.328843
495 0.24022
500 0.388988
505 0.278265
510 0.329886
515 0.348128
520 0.434993
525 0.685663
530 0.792565
535 16.7124
540 264.324
545 412.252
550 112.564
555 13.8514
560 2.33086
565 0.952048
570 0.791975
575 0.580563
580 0.514669
585 0.386616
590 0.488092
595 0.310717
600 0.0353584
Ex : 553
200 0.232877
205 0.222223
210 0.236614
215 0.250776
220 0.171749
225 0.177075
230 0.187458
235 0.301908
240 0.235568
245 0.251813
250 0.201419
255 0.237793
260 0.255568
265 0.303788
270 0.246494
275 0.334592
280 0.212836
285 0.193331
290 0.232427
295 0.322793
300 0.276268
305 0.281322
310 0.283751
315 0.263977
320 0.214964
325 0.316751
330 0.243628
335 0.223626
340 0.197402
345 0.302955
350 0.184308
355 0.181079
360 0.240773
365 0.232154
370 0.302604
375 0.340298
380 0.233866
385 0.248998
390 0.198176
395 0.213558
400 0.239221
405 0.327678
410 0.285534
415 0.272786
420 0.218489
425 0.249509
430 0.272135
435 0.264436
440 0.329459
445 0.288359
450 0.384381
455 0.174307
460 0.34644
465 0.327414
470 0.277585
475 0.281266
480 0.333802
485 0.248773
490 0.405665
495 0.296072
500 0.313674
505 0.398046
510 0.3326
515 0.363468
520 0.320804
525 0.366462
530 0.626431
535 0.824291
540 14.207
545 246.203
550 405.31
555 113.407
560 14.157
565 2.22409
570 0.83001
575 0.727109
580 0.565442
585 0.418493
590 0.345333
595 0.388257
600 1.15194
Ex : 558
200 0.331061
205 0.249437
210 0.296258
215 0.215349
220 0.368804
225 0.22095
230 0.203396
235 0.292151
240 0.20337
245 0.175718
250 0.238604
255 0.294939
260 0.272658
265 0.341877
270 0.207818
275 0.34363
280 0.284999
285 0.280094
290 0.248053
295 0.237373
300 0.255561
305 0.229282
310 0.29374
315 0.260102
320 0.225228
325 0.166415
330 0.309594
335 0.251689
340 0.230837
345 0.201052
350 0.283814
355 0.251808
360 0.285762
365 0.236197
370 0.26349
375 0.239847
380 0.2361
385 0.260716
390 0.245709
395 0.330641
400 0.28812
405 0.331836
410 0.247589
415 0.344129
420 0.281272
425 0.200008
430 0.332121
435 0.232259
440 0.357401
445 0.259813
450 0.27817
455 0.332503
460 0.227851
465 0.282891
470 0.287211
475 0.345111
480 0.402055
485 0.308902
490 0.344462
495 0.503106
500 0.317582
505 0.393211
510 0.35507
515 0.346281
520 0.396345
525 0.36773
530 0.387071
535 0.477921
540 0.604023
545 11.9952
550 223.548
555 391.058
560 111.465
565 13.6849
570 2.1805
575 0.693086
580 0.538252
585 0.32077
590 0.430004
595 0.354397
600 0.317268
Ex : 563
200 0.210061
205 0.337195
210 0.294174
215 0.154862
220 0.347275
225 0.283347
230 0.210393
235 0.247342
240 0.238151
245 0.175641
250 0.220926
255 0.223483
260 0.361107
265 0.331019
270 0.19468
275 0.236941
280 0.287603
285 0.266866
290 0.219948
295 0.202785
300 0.243942
305 0.201469
310 0.27195
315 0.248522
320 0.17969
325 0.22161
330 0.237907
335 0.335318
340 0.382588
345 0.328725
350 0.239953
355 0.281462
360 0.330562
365 0.239306
370 0.351727
375 0.406377
380 0.377819
385 0.220727
390 0.237392
395 0.220705
400 0.270843
405 0.299264
410 0.275203
415 0.239051
420 0.246363
425 0.228331
430 0.298926
435 0.260704
440 0.264087
445 0.270669
450 0.297032
455 0.317359
460 0.25712
465 0.240864
470 0.277722
475 0.345675
480 0.302407
485 0.355511
490 0.269334
495 0.274861
500 0.410748
505 0.413621
510 0.370028
515 0.392556
520 0.423076
525 0.31809
530 0.354156
535 0.354743
540 0.507056
545 0.57662
550 11.2764
555 220.263
560 383.931
565 111.955
570 13.669
575 2.06631
580 0.678581
585 0.654162
590 0.404052
595 0.427107
600 0.957385
Ex : 568
200 0.325337
205 0.265544
210 0.361444
215 0.308225
220 0.19874
225 0.259838
230 0.286016
235 0.331445
240 0.28826
245 0.223876
250 0.280199
255 0.226688
260 0.270406
265 0.378728
270 0.323652
275 0.260168
280 0.225434
285 0.230669
290 0.2001
295 0.207024
300 0.241992
305 0.198409
310 0.336524
315 0.264429
320 0.222244
325 0.227987
330 0.227629
335 0.236424
340 0.249154
345 0.233878
350 0.311064
355 0.211828
360 0.274146
365 0.19105
370 0.275142
375 0.301469
380 0.167888
385 0.304251
390 0.353948
395 0.325385
400 0.300962
405 0.392698
410 0.28643
415 0.199585
420 0.352612
425 0.26273
430 0.254414
435 0.246061
440 0.249797
445 0.378133
450 0.266053
455 0.314952
460 0.294649
465 0.423465
470 0.321081
475 0.302582
480 0.31189
485 0.233219
490 0.351906
495 0.475266
500 0.338915
505 0.299356
510 0.379661
515 0.297665
520 0.29077
525 0.462273
530 0.417562
535 0.302556
540 0.409097
545 0.440096
550 0.59784
555 9.25493
560 194.507
565 362.758
570 113.273
575 13.9168
580 2.16511
585 0.567103
590 0.40053
595 0.293884
600 0.0334429
Ex : 573
200 0.299191
205 0.217733
210 0.206363
215 0.191109
220 0.261332
225 0.279404
230 0.235351
235 0.212676
240 0.190437
245 0.15791
250 0.240893
255 0.181907
260 0.256829
265 0.242475
270 0.271744
275 0.225764
280 0.292536
285 0.270373
290 0.271763
295 0.252332
300 0.27215
305 0.235924
310 0.172378
315 0.256669
320 0.239521
325 0.296946
330 0.32384
335 0.273443
340 0.267428
345 0.267148
350 0.320736
355 0.399959
360 0.313185
365 0.223674
370 0.336721
375 0.328824
380 0.429216
385 0.274829
390 0.273084
395 0.221419
400 0.236918
405 0.325549
410 0.279052
415 0.249487
420 0.331285
425 0.264746
430 0.294155
435 0.384015
440 0.272873
445 0.291844
450 0.350533
455 0.315027
460 0.357421
465 0.340272
470 0.273711
475 0.247487
480 0.280848
485 0.359814
490 0.379636
495 0.402648
500 0.393646
505 0.292233
510 0.267303
515 0.291024
520 0.444244
525 0.396015
530 0.230212
535 0.331078
540 0.410928
545 0.649092
550 0.43895
555 0.542575
560 7.90224
565 166.791
570 327.452
575 103.47
580 12.7957
585 1.9054
590 0.662881
595 0.46267
600 0.26968
Ex : 578
200 0.287646
205 0.400686
210 0.325117
215 0.214622
220 0.232155
225 0.344024
230 0.295186
235 0.235365
240 0.26148
245 0.326443
250 0.311308
255 0.191361
260 0.226023
265 0.400789
270 0.317537
275 0.329321
280 0.162262
285 0.240127
290 0.266976
295 0.226574
300 0.189242
305 0.245709
310 0.247141
315 0.215882
320 0.2798
325 0.338877
330 0.263973
335 0.278632
340 0.384471
345 0.227876
350 0.287147
355 0.230682
360 0.254017
365 0.199972
370 0.229037
375 0.272083
380 0.235379
385 0.346812
390 0.292646
395 0.281409
400 0.338792
405 0.310649
410 0.323892
415 0.284519
420 0.312677
425 0.399213
430 0.355221
435 0.343
440 0.268348
445 0.333869
450 0.336018
455 0.238075
460 0.299349
465 0.350894
470 0.409133
475 0.376939
480 0.334594
485 0.455921
490 0.259027
495 0.264042
500 0.281489
505 0.311902
510 0.313413
515 0.288612
520 0.475723
525 0.305038
530 0.383682
535 0.376805
540 0.362055
545 0.302798
550 0.451983
555 0.41494
560 0.504186
565 6.81785
570 151.937
575 288.327
580 88.8109
585 11.0335
590 1.661
595 0.623505
600 0.492663
Ex : 583
200 0.253971
205 0.282776
210 0.33115
215 0.186072
220 0.244892
225 0.263239
230 0.270483
235 0.380505
240 0.245243
245 0.347222
250 0.192903
255 0.292838
260 0.306569
265 0.426855
270 0.239332
275 0.247798
280 0.233224
285 0.2267
290 0.249208
295 0.226726
300 0.288249
305 0.20602
310 0.274614
315 0.161757
320 0.163947
325 0.32099
330 0.241024
335 0.274111
340 0.291311
345 0.232044
350 0.299694
355 0.226204
360 0.342221
365 0.238507
370 0.29886
375 0.245898
380 0.25849
385 0.22684
390 0.256844
395 0.294783
400 0.291286
405 0.289841
410 0.276321
415 0.299003
420 0.35549
425 0.335089
430 0.226035
435 0.322796
440 0.24509
445 0.321969
450 0.293404
455 0.286481
460 0.281306
465 0.266815
470 0.321393
475 0.391944
480 0.444754
485 0.331692
490 0.354575
495 0.26106
500 0.245911
505 0.427527
510 0.296507
515 0.410687
520 0.340867
525 0.355432
530 0.379131
535 0.301835
540 0.363918
545 0.258964
550 0.368101
555 0.52943
560 0.434541
565 0.647364
570 5.40819
575 134.657
580 253.527
585 73.6518
590 8.98184
595 1.31887
600 1.06816
Ex : 588
200 0.328569
205 0.368047
210 0.270009
215 0.352197
220 0.316476
225 0.251004
230 0.340343
235 0.395146
240 0.352898
245 0.33367
250 0.280964
255 0.296589
260 0.19845
265 0.261496
270 0.228929
275 0.356957
280 0.268071
285 0.311678
290 0.239025
295 0.282748
300 0.247917
305 0.202251
310 0.281924
315 0.249878
320 0.271574
325 0.244434
330 0.285326
335 0.332787
340 0.262828
345 0.266513
350 0.294977
355 0.30468
360 0.334211
365 0.300582
370 0.31811
375 0.259911
380 0.388508
385 0.314589
390 0.278534
395 0.356968
400 0.228485
405 0.305207
410 0.273136
415 0.26015
420 0.214236
425 0.357771
430 0.288196
435 0.324847
440 0.219001
445 0.429609
450 0.331076
455 0.401685
460 0.37678
465 0.389535
470 0.344669
475 0.373038
480 0.313981
485 0.35757
490 0.33204
495 0.333921
500 0.360824
505 0.356476
510 0.266991
515 0.25351
520 0.261961
525 0.341048
530 0.324224
535 0.374339
540 0.285394
545 0.384449
550 0.372991
555 0.33638
560 0.406229
565 0.321223
570 0.531823
575 4.95009
580 109.081
585 211.947
590 65.4732
595 8.07897
600 2.38754
Ex : 593
200 0.346894
205 0.366179
210 0.234552
215 0.296276
220 0.258639
225 0.219333
230 0.377423
235 0.442942
240 0.236358
245 0.368098
250 0.290739
255 0.200763
260 0.253908
265 0.264143
270 0.285352
275 0.277571
280 0.229941
285 0.259928
290 0.421707
295 0.270937
300 0.265318
305 0.302443
310 0.307712
315 0.360988
320 0.228703
325 0.240238
330 0.262204
335 0.220092
340 0.311504
345 0.198592
350 0.34258
355 0.326935
360 0.275854
365 0.406626
370 0.32872
375 0.240362
380 0.238557
385 0.327156
390 0.310702
395 0.373953
400 0.378819
405 0.249884
410 0.285283
415 0.235769
420 0.28078
425 0.29313
430 0.324339
435 0.271762
440 0.212306
445 0.298296
450 0.344075
455 0.338545
460 0.481545
465 0.260287
470 0.32535
475 0.330782
480 0.312682
485 0.383213
490 0.28524
495 0.392731
500 0.323974
505 0.358027
510 0.38002
515 0.341104
520 0.483393
525 0.429953
530 0.394791
535 0.298127
540 0.288863
545 0.345688
550 0.291484
555 0.274324
560 0.337307
565 0.324246
570 0.447562
575 0.632538
580 4.2778
585 98.9779
590 184.853
595 54.6476
600 7.45525
Ex : 598
200 0.28924
205 0.221721
210 0.272536
215 0.325841
220 0.212054
225 0.249425
230 0.283986
235 0.35534
240 0.323293
245 0.168704
250 0.316489
255 0.248321
260 0.263573
265 0.234834
270 0.280982
275 0.250782
280 0.368843
285 0.296105
290 0.267884
295 0.273084
300 0.269855
305 0.291105
310 0.26136
315 0.352435
320 0.363679
325 0.286194
330 0.365884
335 0.267531
340 0.275942
345 0.291757
350 0.230785
355 0.256991
360 0.293883
365 0.224143
370 0.225955
375 0.309731
380 0.39524
385 0.240936
390 0.277045
395 0.297491
400 0.310535
405 0.374691
410 0.365773
415 0.326622
420 0.225587
425 0.336427
430 0.431112
435 0.30184
440 0.391272
445 0.322473
450 0.228638
455 0.284001
460 0.312235
465 0.385136
470 0.323509
475 0.227342
480 0.29799
485 0.346111
490 0.384582
495 0.325402
500 0.305607
505 0.358238
510 0.25803
515 0.297488
520 0.359789
525 0.308861
530 0.448523
535 0.274137
540 0.26419
545 0.335218
550 0.314431
555 0.32895
560 0.303724
565 0.395558
570 0.588398
575 0.405295
580 0.48509
585 4.03355
590 84.1824
595 160.428
600 95.1704
Ex : 603
200 0.194663
205 0.381307
210 0.378871
215 0.29926
220 0.262144
225 0.181915
230 0.354386
235 0.3331
240 0.325454
245 0.299283
250 0.29967
255 0.293176
260 0.45625
265 0.296433
270 0.282608
275 0.1426
280 0.375189
285 0.2582
290 0.37158
295 0.290786
300 0.430138
305 0.290461
310 0.39621
315 0.346493
320 0.331539
325 0.3077
330 0.310623
335 0.299037
340 0.282338
345 0.34519
350 0.273549
355 0.481951
360 0.372659
365 0.296708
370 0.306676
375 0.265677
380 0.345826
385 0.364755
390 0.375718
395 0.459414
400 0.36887
405 0.457199
410 0.407722
415 0.337754
420 0.274984
425 0.371449
430 0.309446
435 0.462051
440 0.384951
445 0.271677
450 0.286207
455 0.294152
460 0.196373
465 0.43952
470 0.374574
475 0.386391
480 0.42436
485 0.263945
490 0.529331
495 0.274758
500 0.406701
505 0.245986
510 0.286984
515 0.384672
520 0.375564
525 0.408561
530 0.320837
535 0.286501
540 0.393477
545 0.306037
550 0.401018
555 0.4735
560 0.253958
565 0.389794
570 0.387248
575 0.32551
580 0.43089
585 0.603652
590 3.55884
595 73.8898
600 149.846
