File format V 1.0
ven. 13. janv. 13:13:09 2017
Operator : 
Comments : 

=============================================
SpectroFluorometer parameters
Mode : 3D measurement
Data : Fluorescence
Phospho. : Ordinary
Spectrum : Fluorescence

Scan speed : 2400 nm/mn
Response : 100 ms
PM Voltage : 700 V
Shutter : On

Lambda Ex. Start : 203
Lambda Ex. End : 603
Lambda Ex. Step : 5
Ex. Slit : 5 nm

Lambda Em. Start : 200
Lambda Em. End : 600
Lambda Em. Step : 5
Em. Slit : 5 nm

Repetition : 1
Decal lambda em : 10
=============================================
DATA
Ex : 203
200 5.80556
205 6.64763
210 6.8972
215 5.5184
220 8.098
225 6.30659
230 5.65143
235 5.62314
240 7.497
245 7.32486
250 4.56081
255 3.25485
260 6.26004
265 6.84795
270 5.06045
275 5.92248
280 8.51834
285 4.39209
290 7.17844
295 5.61967
300 6.64001
305 3.95016
310 4.7866
315 5.03303
320 5.36867
325 5.04195
330 6.63091
335 6.66404
340 6.68972
345 7.40557
350 6.83685
355 7.81447
360 7.28554
365 6.92016
370 7.97903
375 5.00159
380 6.04712
385 6.01397
390 7.08762
395 4.81072
400 7.6018
405 4.2462
410 5.3062
415 6.23509
420 6.17302
425 6.33959
430 4.722
435 5.41765
440 6.62944
445 4.76694
450 10.623
455 7.43737
460 7.83457
465 6.79681
470 7.1821
475 4.49977
480 9.61957
485 5.76623
490 5.46818
495 8.1973
500 6.41195
505 5.93448
510 7.21696
515 6.11728
520 5.18307
525 3.20329
530 5.90002
535 5.54768
540 5.85372
545 5.96063
550 3.76192
555 4.03839
560 6.71973
565 6.68574
570 5.77957
575 4.59638
580 4.56767
585 5.68192
590 9.03042
595 6.90202
600 0.785423
Ex : 208
200 8.58173
205 6.78058
210 5.25752
215 5.06339
220 6.96442
225 7.88215
230 5.12716
235 6.01827
240 4.45337
245 6.82392
250 7.16833
255 7.10561
260 6.67483
265 6.30686
270 5.27156
275 4.33491
280 8.3292
285 5.16388
290 4.75776
295 6.07065
300 8.88708
305 6.35315
310 3.48415
315 6.87552
320 4.3009
325 4.46444
330 6.60871
335 5.8167
340 5.58904
345 7.67714
350 5.65999
355 6.60067
360 7.84994
365 8.80771
370 7.93987
375 5.3003
380 5.31858
385 6.09726
390 5.71838
395 4.61333
400 4.56022
405 6.8084
410 8.23141
415 7.87047
420 6.10859
425 7.35035
430 6.33729
435 5.11689
440 5.37111
445 6.66621
450 7.74883
455 4.8326
460 5.00289
465 6.15798
470 5.0965
475 4.7004
480 7.41702
485 5.7159
490 5.10916
495 7.25423
500 10.0347
505 5.25915
510 4.51185
515 4.97697
520 5.30581
525 6.27549
530 6.29855
535 3.96194
540 5.28391
545 7.65763
550 4.99269
555 7.53935
560 3.74955
565 4.94333
570 6.04705
575 7.26573
580 6.382
585 5.37675
590 6.43156
595 5.76459
600 0.655989
Ex : 213
200 5.7032
205 5.59697
210 6.76849
215 6.36113
220 6.35024
225 5.33248
230 5.5473
235 8.73311
240 7.87466
245 4.07577
250 5.90877
255 8.89183
260 3.23143
265 4.24752
270 5.57414
275 6.20588
280 5.24489
285 7.1847
290 7.20975
295 7.22125
300 5.37994
305 6.71718
310 6.2718
315 4.71254
320 5.7609
325 5.7667
330 5.74115
335 6.6704
340 5.61849
345 6.43573
350 6.72033
355 5.75281
360 5.42017
365 7.15723
370 7.22409
375 7.46016
380 4.47647
385 7.07696
390 7.93206
395 6.42559
400 5.25127
405 4.81224
410 6.49663
415 4.23555
420 8.57712
425 7.82438
430 7.67513
435 5.98397
440 5.86504
445 5.07703
450 6.71587
455 5.79166
460 5.99719
465 6.43636
470 7.42593
475 5.40444
480 7.80044
485 5.67482
490 7.076
495 6.46522
500 5.85213
505 5.79156
510 7.41427
515 8.09408
520 4.35195
525 5.36312
530 6.94441
535 5.21298
540 5.07454
545 6.96851
550 7.9123
555 6.55646
560 6.23812
565 4.72973
570 7.06353
575 7.64206
580 5.91521
585 6.43759
590 7.85246
595 7.4676
600 5.2808
Ex : 218
200 7.35135
205 6.05625
210 9.71682
215 4.26778
220 7.052
225 7.61543
230 4.75382
235 4.48014
240 4.31834
245 4.56153
250 4.77542
255 5.74616
260 3.77217
265 4.5475
270 4.97312
275 4.07312
280 5.2931
285 4.03428
290 7.17348
295 4.63782
300 5.15162
305 5.01725
310 4.70508
315 7.52295
320 4.7485
325 7.1601
330 5.69752
335 4.43301
340 6.93554
345 6.56399
350 6.58841
355 7.16651
360 7.57228
365 7.26562
370 7.90787
375 8.76954
380 4.21903
385 5.44612
390 4.97793
395 7.12183
400 8.09561
405 8.41295
410 5.0456
415 7.18042
420 5.74585
425 4.59254
430 4.08455
435 3.97337
440 7.69219
445 4.43605
450 5.98538
455 7.45273
460 6.35404
465 4.1181
470 4.73506
475 6.06363
480 7.40262
485 5.32503
490 5.57677
495 6.11259
500 6.08987
505 4.60395
510 5.68107
515 4.99694
520 7.48186
525 5.3334
530 6.42936
535 6.44411
540 7.44698
545 5.50911
550 5.45136
555 5.98333
560 5.75349
565 4.53396
570 6.96687
575 4.91853
580 6.27405
585 5.37617
590 5.75433
595 4.65304
600 4.60604
Ex : 223
200 7.10762
205 6.122
210 5.25206
215 3.98466
220 3.83786
225 5.42984
230 6.1057
235 5.79658
240 6.39365
245 4.73735
250 4.07988
255 3.64373
260 4.78919
265 4.63942
270 8.7185
275 6.24025
280 6.99232
285 5.76008
290 10.137
295 6.10048
300 4.76032
305 4.40391
310 4.94921
315 3.51721
320 3.60599
325 5.57853
330 4.78765
335 9.82239
340 4.71722
345 8.56647
350 5.57306
355 7.9076
360 8.30153
365 6.16252
370 6.42688
375 4.19419
380 6.87941
385 5.74319
390 4.59399
395 7.90147
400 5.55376
405 6.4608
410 5.99118
415 4.72783
420 7.53665
425 5.70802
430 4.34538
435 6.65591
440 7.17204
445 4.54685
450 5.50379
455 8.47265
460 6.17111
465 4.32874
470 5.7479
475 7.27267
480 7.62183
485 5.31461
490 6.28242
495 4.44419
500 4.04654
505 3.64591
510 5.89754
515 5.58149
520 6.42956
525 6.18374
530 6.93292
535 6.50221
540 6.08952
545 5.61493
550 5.48603
555 7.26872
560 8.80696
565 4.52723
570 4.5505
575 6.56749
580 6.75729
585 4.95425
590 5.16507
595 3.78704
600 0.430951
Ex : 228
200 5.31858
205 4.25592
210 7.42878
215 7.96345
220 6.91825
225 5.13315
230 5.58457
235 5.34346
240 5.38638
245 3.2074
250 5.97368
255 5.51503
260 6.30234
265 5.69293
270 4.02854
275 5.35694
280 5.95403
285 6.76488
290 6.54958
295 4.63066
300 4.77529
305 7.45883
310 4.76753
315 7.53413
320 4.27557
325 3.78862
330 5.26996
335 5.43319
340 5.68072
345 5.31324
350 5.60362
355 5.23711
360 4.93796
365 6.82365
370 5.75229
375 4.66562
380 3.94492
385 5.02236
390 4.23275
395 6.39237
400 6.3113
405 6.42929
410 4.09105
415 4.78097
420 8.40911
425 6.32905
430 3.2948
435 4.85542
440 7.26798
445 7.20929
450 7.08827
455 5.7203
460 4.55849
465 5.04525
470 4.83029
475 3.38786
480 6.39878
485 9.28592
490 7.59245
495 6.41423
500 4.26351
505 3.97091
510 6.76456
515 6.27258
520 4.07616
525 6.33753
530 5.64848
535 5.81608
540 4.41147
545 4.67074
550 6.97773
555 4.67267
560 2.94039
565 3.90593
570 5.4663
575 6.68187
580 4.87861
585 5.26583
590 9.39006
595 6.31127
600 1.95888
Ex : 233
200 6.35918
205 4.82632
210 4.48959
215 7.79302
220 6.59129
225 4.40332
230 3.94408
235 4.84715
240 6.62999
245 4.70044
250 7.7157
255 3.52902
260 3.95748
265 3.82852
270 4.4996
275 7.66026
280 6.18139
285 4.44931
290 6.04326
295 4.37613
300 5.10346
305 5.47939
310 4.40867
315 4.35506
320 5.90749
325 7.25061
330 4.55169
335 6.00434
340 5.08326
345 4.75129
350 4.8655
355 4.07964
360 6.23241
365 7.65241
370 7.72649
375 6.43137
380 4.16316
385 5.41479
390 5.97828
395 6.14035
400 6.61771
405 5.24875
410 5.41578
415 4.60421
420 3.97804
425 6.77156
430 6.08048
435 6.15992
440 4.5124
445 5.56635
450 5.72256
455 4.44262
460 6.02134
465 5.38355
470 4.92066
475 4.38691
480 4.18304
485 5.4484
490 4.81742
495 4.76041
500 8.33277
505 4.13201
510 5.08523
515 4.3947
520 4.97637
525 5.19838
530 6.61467
535 4.75111
540 5.20157
545 4.32106
550 4.55228
555 4.94905
560 5.37966
565 8.31085
570 5.66838
575 5.18457
580 7.01854
585 3.5147
590 4.66714
595 5.98997
600 14.8609
Ex : 238
200 7.35531
205 3.5353
210 4.72806
215 4.38512
220 5.90731
225 3.25334
230 5.77374
235 4.17559
240 4.27271
245 4.32643
250 5.0952
255 3.91549
260 4.9234
265 4.60295
270 4.74172
275 5.39831
280 6.22474
285 5.12874
290 3.90512
295 5.34715
300 4.05966
305 4.22749
310 2.5052
315 4.18852
320 5.80744
325 5.05819
330 5.63962
335 4.59534
340 3.5044
345 6.85126
350 5.01186
355 7.1912
360 3.56953
365 3.55984
370 4.16734
375 4.26849
380 5.34481
385 5.69004
390 5.68799
395 4.12782
400 7.61686
405 5.29779
410 5.30041
415 6.46467
420 5.02874
425 3.97381
430 3.67785
435 4.93883
440 5.92144
445 5.20406
450 6.17659
455 5.54817
460 5.05288
465 4.60472
470 6.32016
475 6.14502
480 6.18011
485 3.39292
490 4.7194
495 8.51288
500 6.56914
505 5.02459
510 6.85757
515 5.95922
520 7.39283
525 3.97476
530 6.37052
535 3.83483
540 3.62054
545 6.17566
550 4.10645
555 6.0689
560 3.93893
565 4.14374
570 3.43324
575 5.12754
580 6.37488
585 4.20337
590 3.81308
595 4.50401
600 20.5407
Ex : 243
200 4.39731
205 3.81767
210 3.37543
215 2.87601
220 4.1675
225 3.1738
230 3.66161
235 3.67495
240 3.01652
245 4.10007
250 6.30402
255 5.16583
260 5.9261
265 3.60029
270 4.30589
275 3.80083
280 3.1062
285 3.18342
290 4.21429
295 3.55037
300 4.31732
305 6.31492
310 4.56173
315 3.85734
320 5.72643
325 3.29799
330 4.51586
335 3.97999
340 5.00668
345 5.16673
350 5.30219
355 4.05897
360 6.24585
365 5.00106
370 5.22999
375 4.73269
380 5.28885
385 3.18686
390 2.49545
395 3.29406
400 4.2771
405 3.43494
410 4.65519
415 4.77784
420 3.41244
425 4.77503
430 4.71102
435 4.67576
440 3.99382
445 2.90903
450 3.00422
455 3.83472
460 3.34182
465 4.66464
470 5.1238
475 3.88331
480 4.3246
485 4.53654
490 4.47122
495 3.85379
500 3.62582
505 3.90903
510 5.16497
515 3.36829
520 3.75887
525 4.88544
530 4.33194
535 4.54123
540 3.52553
545 4.24237
550 4.66269
555 5.12833
560 4.27814
565 3.72301
570 4.16178
575 3.3939
580 4.57933
585 5.16922
590 3.73023
595 3.47007
600 3.9397
Ex : 248
200 5.34808
205 4.24669
210 3.67734
215 3.713
220 3.25569
225 2.85186
230 4.45928
235 3.59423
240 3.81527
245 3.02805
250 2.85934
255 3.59891
260 3.56819
265 3.1
270 2.31578
275 3.14878
280 2.12571
285 3.72416
290 3.51402
295 5.4628
300 3.2726
305 3.47673
310 6.27395
315 3.25778
320 2.79882
325 3.91544
330 4.06159
335 3.22216
340 4.75635
345 3.84621
350 3.56843
355 4.3124
360 3.48295
365 3.49266
370 4.66116
375 4.12691
380 4.45251
385 5.08315
390 4.1956
395 5.39395
400 3.52304
405 3.58696
410 2.97012
415 4.8646
420 4.14865
425 4.46651
430 2.72378
435 3.89674
440 3.55161
445 4.67428
450 3.26572
455 3.5284
460 4.13163
465 4.7596
470 4.77318
475 4.41301
480 2.89896
485 3.91653
490 4.50371
495 4.03516
500 2.98186
505 4.71211
510 4.43552
515 5.40893
520 4.67089
525 4.91717
530 3.22069
535 3.65812
540 3.94599
545 2.95995
550 3.80845
555 3.93441
560 3.13963
565 4.0272
570 3.41406
575 4.02168
580 4.63805
585 5.58499
590 5.16504
595 2.9362
600 10.3778
Ex : 253
200 3.2823
205 3.51986
210 2.51545
215 2.7375
220 2.23015
225 4.84397
230 3.69361
235 3.83112
240 2.56819
245 2.82552
250 4.08522
255 2.7162
260 3.12448
265 2.89156
270 3.18678
275 2.6994
280 2.1036
285 2.93528
290 3.24404
295 3.2124
300 2.86206
305 3.17562
310 2.90556
315 2.2743
320 2.97445
325 1.89322
330 1.85568
335 3.48711
340 4.7053
345 3.41279
350 3.17357
355 3.48629
360 2.55242
365 2.79089
370 2.92637
375 3.43692
380 3.21588
385 2.85389
390 2.97449
395 2.66855
400 2.41626
405 2.71202
410 5.68492
415 3.10883
420 5.32084
425 4.84598
430 3.52132
435 3.13968
440 2.30693
445 3.08909
450 4.11359
455 3.06295
460 4.75585
465 4.63389
470 4.88088
475 3.32593
480 3.92983
485 5.17576
490 3.6417
495 3.87422
500 4.1942
505 5.27386
510 4.22117
515 3.1474
520 3.46982
525 2.95377
530 2.72291
535 4.02705
540 2.66087
545 3.50017
550 2.6864
555 2.37789
560 2.67036
565 3.18671
570 3.21115
575 2.76465
580 3.28972
585 2.43367
590 1.95354
595 2.77122
600 0.315354
Ex : 258
200 3.10039
205 2.1484
210 2.76861
215 1.52748
220 1.82498
225 2.15381
230 2.07143
235 2.16657
240 2.51188
245 2.62656
250 2.45286
255 1.58978
260 1.98017
265 3.31812
270 1.70168
275 2.15281
280 2.47121
285 2.27348
290 2.18987
295 1.98026
300 2.38055
305 3.39397
310 1.63011
315 1.75642
320 2.40479
325 1.66854
330 2.40799
335 2.76929
340 2.76316
345 2.05695
350 2.084
355 2.97857
360 1.62272
365 3.3411
370 1.71304
375 3.3141
380 2.82712
385 3.00461
390 3.33221
395 3.57128
400 2.97407
405 2.26922
410 2.92033
415 3.20588
420 1.812
425 2.45923
430 2.83493
435 2.27477
440 2.59844
445 2.94175
450 2.82971
455 2.09442
460 3.44028
465 2.8551
470 2.25957
475 2.15062
480 2.1129
485 2.81482
490 3.01921
495 2.42641
500 3.57956
505 2.03295
510 4.40536
515 3.78692
520 3.30209
525 3.69194
530 2.09035
535 2.03604
540 2.91016
545 3.46242
550 2.40714
555 2.12786
560 4.02929
565 2.93131
570 2.43229
575 3.40456
580 2.73399
585 2.31853
590 2.73382
595 2.86181
600 2.09807
Ex : 263
200 1.4441
205 1.74262
210 1.34925
215 1.66296
220 1.77748
225 1.80878
230 2.08742
235 1.98905
240 2.93457
245 1.93888
250 1.49044
255 2.12932
260 2.44927
265 3.0126
270 2.249
275 1.54866
280 1.84345
285 1.5356
290 1.42708
295 1.97098
300 1.42088
305 2.10452
310 3.14004
315 2.05401
320 1.33793
325 1.7153
330 1.47327
335 2.02446
340 3.32357
345 2.96759
350 1.72872
355 2.49946
360 2.60477
365 1.51371
370 1.77673
375 2.59437
380 2.95384
385 1.89854
390 3.09727
395 1.36849
400 1.67534
405 2.63759
410 2.96018
415 2.06944
420 1.73501
425 1.63699
430 2.73009
435 2.2719
440 2.06264
445 2.5211
450 2.03665
455 1.79814
460 2.87883
465 2.55081
470 1.86869
475 2.79274
480 3.91491
485 1.97674
490 3.12779
495 2.10615
500 2.59485
505 2.26271
510 2.52874
515 2.74458
520 3.46188
525 2.83275
530 1.33271
535 2.71749
540 2.48292
545 2.99239
550 2.03814
555 1.22926
560 1.77067
565 1.99637
570 2.442
575 2.76257
580 2.3147
585 1.62049
590 0.983396
595 2.58447
600 0.294103
Ex : 268
200 1.29308
205 1.4296
210 1.5428
215 1.27107
220 1.98419
225 1.41561
230 1.04842
235 1.1222
240 1.77624
245 1.01982
250 1.90607
255 2.01956
260 1.80219
265 1.49158
270 1.89115
275 1.55296
280 1.2213
285 1.51619
290 1.69174
295 1.18265
300 2.07044
305 1.10042
310 1.78923
315 1.24554
320 1.04798
325 1.67039
330 1.31667
335 1.63648
340 1.95078
345 1.38346
350 1.87569
355 2.06408
360 1.4985
365 1.23767
370 1.62156
375 2.31076
380 2.82822
385 2.85636
390 1.44428
395 2.03646
400 2.20083
405 2.17037
410 2.26259
415 1.84078
420 1.78312
425 1.7307
430 2.13621
435 1.62372
440 1.31683
445 1.65807
450 1.36352
455 1.81776
460 2.10762
465 1.722
470 2.23292
475 1.90119
480 2.82132
485 2.14005
490 1.96296
495 1.4603
500 1.82139
505 1.13436
510 2.11138
515 1.22126
520 2.79538
525 2.18947
530 2.13024
535 2.08126
540 2.23407
545 2.03431
550 1.90457
555 2.62022
560 1.46661
565 1.67045
570 2.22714
575 2.56705
580 1.65456
585 1.92061
590 2.23417
595 1.70449
600 5.51119
Ex : 273
200 1.10251
205 1.24115
210 1.12342
215 0.837168
220 1.60379
225 1.73336
230 0.912018
235 1.2929
240 0.879364
245 1.42669
250 1.37377
255 0.620835
260 0.920974
265 1.18358
270 1.29828
275 1.29354
280 1.16065
285 1.48287
290 1.52992
295 1.5464
300 1.16527
305 1.15033
310 0.923679
315 1.15539
320 1.45808
325 1.33246
330 1.41854
335 1.64509
340 1.22863
345 1.0818
350 1.61738
355 1.30508
360 1.69399
365 1.31649
370 2.16441
375 1.10182
380 2.62535
385 1.33341
390 1.81915
395 1.71969
400 1.26837
405 1.72748
410 1.48402
415 1.75802
420 1.52482
425 1.45228
430 1.83187
435 1.57984
440 2.11217
445 1.32279
450 1.42422
455 1.64534
460 1.80858
465 1.79363
470 1.65632
475 1.20038
480 1.40273
485 1.5759
490 1.52042
495 1.13142
500 1.00678
505 1.12555
510 1.41068
515 1.54928
520 0.969032
525 1.14989
530 1.55171
535 1.39781
540 2.58033
545 1.84998
550 1.83222
555 1.06058
560 1.16918
565 0.944879
570 1.34314
575 1.12345
580 1.47535
585 0.970927
590 1.12636
595 1.64405
600 2.20763
Ex : 278
200 1.33891
205 1.18193
210 1.03097
215 1.34074
220 0.805059
225 1.03468
230 0.609823
235 0.697216
240 0.810147
245 1.12128
250 1.4662
255 1.0269
260 0.78915
265 1.14212
270 1.48208
275 1.54149
280 0.795092
285 0.995207
290 0.932431
295 1.04905
300 0.666609
305 1.44181
310 1.24787
315 0.857264
320 0.671986
325 1.16307
330 0.696503
335 0.811634
340 1.11109
345 0.900464
350 1.30501
355 1.20023
360 0.90157
365 0.834548
370 1.10419
375 1.65206
380 2.02445
385 1.1025
390 1.22875
395 1.39855
400 1.50215
405 1.56045
410 1.31221
415 1.14788
420 1.55365
425 1.50573
430 1.52729
435 1.44512
440 1.25556
445 1.31234
450 1.32647
455 1.66726
460 1.55341
465 1.92424
470 1.30832
475 0.95731
480 1.00249
485 1.3879
490 2.02865
495 1.27225
500 1.17399
505 1.43535
510 0.892191
515 0.849747
520 0.747666
525 1.79566
530 0.773454
535 1.22155
540 1.58736
545 1.6554
550 1.77215
555 1.79049
560 1.72242
565 1.53702
570 1.13762
575 0.62073
580 0.778425
585 0.920008
590 0.938244
595 1.16277
600 0.712935
Ex : 283
200 1.40836
205 0.7558
210 0.739032
215 0.789837
220 0.800225
225 1.13152
230 0.984841
235 0.767551
240 0.694081
245 0.628741
250 0.862132
255 0.832903
260 0.941997
265 0.935966
270 0.940437
275 0.995696
280 1.25622
285 1.32581
290 1.15033
295 1.10224
300 0.721949
305 0.428743
310 0.944964
315 1.07867
320 0.997218
325 0.745333
330 0.975981
335 0.591915
340 0.899216
345 0.746219
350 1.22031
355 1.26049
360 0.794565
365 1.25851
370 1.13561
375 1.30714
380 0.931561
385 1.14311
390 1.22945
395 0.707699
400 1.1405
405 1.28278
410 1.31259
415 1.39524
420 1.00208
425 1.15303
430 1.17062
435 1.09021
440 1.64821
445 1.08242
450 1.35789
455 0.982309
460 1.35161
465 1.1583
470 1.12176
475 1.19011
480 1.11197
485 0.894705
490 1.1194
495 0.984818
500 0.907982
505 0.556659
510 0.955127
515 0.926964
520 1.47236
525 1.19302
530 1.42032
535 0.920262
540 1.35714
545 1.36476
550 1.1201
555 1.39338
560 1.65254
565 1.22093
570 0.891835
575 1.05558
580 0.877612
585 0.812064
590 0.848454
595 0.571546
600 0.87068
Ex : 288
200 0.834957
205 0.515754
210 0.900273
215 0.590743
220 0.806503
225 0.683094
230 0.735256
235 0.607801
240 1.35658
245 0.571781
250 0.802887
255 0.704139
260 0.635537
265 0.633549
270 0.539555
275 0.741868
280 0.610118
285 1.1415
290 1.08987
295 0.737629
300 0.563966
305 0.638732
310 0.582705
315 0.611785
320 0.59634
325 0.649513
330 0.600176
335 0.830568
340 0.839732
345 0.790815
350 1.14054
355 0.851057
360 0.861993
365 0.872872
370 1.01639
375 1.34247
380 0.965979
385 1.264
390 0.932036
395 1.19948
400 1.0892
405 1.2141
410 1.07518
415 0.98732
420 1.23883
425 1.03709
430 0.966292
435 1.50664
440 1.07431
445 1.09305
450 1.13101
455 1.00348
460 0.946034
465 0.994887
470 0.734121
475 0.977459
480 0.829495
485 0.756995
490 0.831663
495 0.793019
500 0.847403
505 0.766374
510 1.06942
515 0.735815
520 0.853018
525 0.512299
530 0.894582
535 0.658591
540 0.778968
545 0.712956
550 0.549354
555 0.789925
560 0.820284
565 1.19187
570 1.30093
575 1.45964
580 0.898994
585 0.453059
590 0.556553
595 0.669493
600 2.4605
Ex : 293
200 0.698872
205 1.15273
210 0.791825
215 0.742703
220 0.558985
225 0.411367
230 0.550398
235 0.61701
240 0.539719
245 0.767819
250 0.626919
255 0.635734
260 0.559778
265 0.610592
270 0.761305
275 0.574669
280 0.619829
285 0.791853
290 0.83362
295 0.602712
300 0.680743
305 0.480326
310 0.792569
315 0.556005
320 0.540763
325 0.779508
330 0.711142
335 0.712666
340 1.17144
345 0.871516
350 0.729266
355 0.913721
360 0.70863
365 0.907971
370 0.74132
375 0.780379
380 0.691244
385 1.08853
390 1.27696
395 0.909142
400 0.883852
405 1.36627
410 1.25865
415 1.09698
420 0.97268
425 1.13505
430 0.987024
435 0.948378
440 0.987938
445 0.901942
450 0.972356
455 1.49454
460 1.06871
465 0.682112
470 0.900493
475 0.796873
480 0.831902
485 0.971658
490 0.773228
495 0.754863
500 0.694167
505 0.617485
510 0.686969
515 0.570361
520 0.632359
525 0.488396
530 0.469376
535 1.0086
540 0.683275
545 0.523499
550 0.708448
555 0.883352
560 0.6928
565 0.696149
570 0.702566
575 1.21583
580 1.59968
585 1.24159
590 0.714272
595 0.590838
600 0.0672351
Ex : 298
200 0.523993
205 0.712218
210 0.761973
215 0.708259
220 0.910746
225 0.614366
230 0.481832
235 0.971447
240 0.553841
245 0.465252
250 0.370921
255 0.304164
260 0.503914
265 0.524775
270 0.587758
275 0.474899
280 0.676738
285 0.934404
290 0.777779
295 0.886092
300 0.701748
305 0.566037
310 0.449035
315 0.633893
320 0.431282
325 0.547784
330 0.640819
335 0.666033
340 0.700738
345 0.807021
350 0.881153
355 0.722075
360 0.764396
365 0.627512
370 0.692862
375 1.1578
380 1.05267
385 0.878408
390 0.635077
395 0.82314
400 0.855897
405 1.04959
410 1.32765
415 0.984682
420 0.965534
425 1.05367
430 1.17329
435 0.794238
440 1.15805
445 1.00828
450 0.89031
455 0.712661
460 0.69782
465 0.708526
470 0.747007
475 0.961205
480 0.782789
485 1.01631
490 0.805477
495 0.780716
500 0.744672
505 0.756503
510 0.840718
515 0.719823
520 0.359667
525 0.792685
530 0.465137
535 0.651676
540 0.585651
545 0.575455
550 0.510703
555 0.576954
560 0.608489
565 0.525072
570 0.532521
575 0.799677
580 0.616201
585 1.0026
590 1.40179
595 1.26727
600 0.144211
Ex : 303
200 0.667288
205 0.516365
210 0.540642
215 0.529001
220 0.52354
225 0.317089
230 0.568549
235 0.322631
240 0.358849
245 0.451858
250 0.424505
255 0.373439
260 0.441964
265 0.798215
270 0.524621
275 0.465307
280 0.45458
285 0.312516
290 0.564312
295 0.721904
300 0.735001
305 0.614088
310 0.493732
315 0.521988
320 0.753286
325 0.632964
330 0.709796
335 0.654336
340 0.646496
345 0.597204
350 0.718222
355 0.603603
360 0.483549
365 0.675369
370 0.711246
375 1.0986
380 0.82266
385 0.946005
390 0.837035
395 0.850797
400 0.817131
405 0.808728
410 0.850487
415 0.755362
420 0.864145
425 0.747641
430 0.9391
435 0.923195
440 0.938814
445 0.799641
450 0.934297
455 0.815484
460 0.852876
465 0.726027
470 0.827125
475 0.4996
480 0.523417
485 0.698759
490 0.575053
495 0.523288
500 0.482875
505 0.469811
510 0.562666
515 0.638297
520 0.622235
525 0.551524
530 0.486716
535 0.578583
540 0.576907
545 0.687594
550 0.517821
555 0.47814
560 0.580426
565 0.584364
570 0.404849
575 0.535823
580 0.443325
585 0.602185
590 0.672832
595 1.20886
600 2.23351
Ex : 308
200 0.235333
205 0.265905
210 0.281557
215 0.43647
220 0.395454
225 0.500543
230 0.305787
235 0.241178
240 0.415765
245 0.325477
250 0.274282
255 0.349637
260 0.421482
265 0.521491
270 0.501706
275 0.441699
280 0.410559
285 0.450448
290 0.442708
295 0.333496
300 0.703046
305 0.947365
310 0.470544
315 0.440189
320 0.586471
325 0.482376
330 0.439863
335 0.40943
340 0.507382
345 0.445233
350 0.381409
355 0.553847
360 0.565719
365 0.464693
370 0.488214
375 0.58957
380 0.894668
385 0.803841
390 0.924341
395 0.825577
400 0.829258
405 0.893393
410 0.893535
415 0.944763
420 0.963619
425 0.803707
430 0.966725
435 0.778318
440 0.786978
445 0.823208
450 0.834394
455 0.722972
460 0.675326
465 0.788993
470 0.817054
475 0.544745
480 0.712736
485 0.589267
490 0.783151
495 0.542778
500 0.642019
505 0.695909
510 0.556514
515 0.529721
520 0.486611
525 0.740725
530 0.49956
535 0.508806
540 0.293733
545 0.442261
550 0.504746
555 0.404814
560 0.389437
565 0.410582
570 0.377003
575 0.697033
580 0.491044
585 0.402107
590 0.384766
595 0.643138
600 1.42644
Ex : 313
200 0.31801
205 0.299619
210 0.292796
215 0.355011
220 0.341335
225 0.262658
230 0.256987
235 0.409375
240 0.456058
245 0.368269
250 0.380061
255 0.625161
260 0.306203
265 0.292414
270 0.257694
275 0.490689
280 0.46778
285 0.289084
290 0.196655
295 0.193885
300 0.296099
305 0.599603
310 0.929012
315 0.514953
320 0.51738
325 0.430267
330 0.454003
335 0.454835
340 0.563109
345 0.478827
350 0.673018
355 0.684624
360 1.00499
365 0.831865
370 0.734771
375 1.20902
380 1.3565
385 1.26538
390 1.51218
395 1.30903
400 1.42524
405 1.61765
410 1.39458
415 1.51763
420 1.48385
425 1.40907
430 1.5528
435 1.40584
440 1.63258
445 1.32511
450 1.16933
455 1.26298
460 1.23311
465 1.08206
470 1.03822
475 0.844771
480 1.1686
485 0.919281
490 0.820381
495 0.921753
500 0.698027
505 0.870455
510 0.695261
515 0.69191
520 0.471713
525 0.414964
530 0.527693
535 0.476888
540 0.396641
545 0.386958
550 0.538672
555 0.442758
560 0.453204
565 0.358989
570 0.62248
575 0.426039
580 0.403534
585 0.577954
590 0.452945
595 0.373705
600 0.0425262
Ex : 318
200 0.187468
205 0.446859
210 0.270842
215 0.580313
220 0.416214
225 0.285717
230 0.367802
235 0.309911
240 0.264561
245 0.399242
250 0.289791
255 0.456513
260 0.364064
265 0.360701
270 0.324539
275 0.260497
280 0.399513
285 0.392418
290 0.25059
295 0.25336
300 0.31224
305 0.325478
310 0.994551
315 1.68443
320 0.674246
325 0.514176
330 0.819569
335 1.15892
340 1.51744
345 2.16438
350 2.93819
355 4.16728
360 4.48801
365 5.4718
370 6.95326
375 7.504
380 8.92133
385 9.95347
390 10.6762
395 11.1106
400 11.7141
405 12.6335
410 13.2227
415 12.3144
420 12.1243
425 11.2338
430 11.3081
435 11.0468
440 11.6241
445 10.6321
450 9.65453
455 9.31372
460 8.98758
465 8.29329
470 7.18153
475 7.01122
480 6.30589
485 5.50957
490 4.75128
495 4.34306
500 4.23328
505 3.6833
510 2.92652
515 2.67692
520 2.33487
525 2.23517
530 1.75788
535 1.56421
540 1.22326
545 1.28873
550 1.22035
555 1.15821
560 0.826907
565 0.687053
570 0.612918
575 0.595435
580 0.590321
585 0.572924
590 0.5008
595 0.489008
600 1.4183
Ex : 323
200 0.254117
205 0.391985
210 0.368742
215 0.271216
220 0.458743
225 0.300658
230 0.326846
235 0.339655
240 0.379704
245 0.324406
250 0.27156
255 0.301079
260 0.319974
265 0.482293
270 0.308055
275 0.239234
280 0.19073
285 0.391093
290 0.249299
295 0.389993
300 0.303085
305 0.2905
310 0.2705
315 5.61508
320 22.5971
325 9.59044
330 3.14529
335 3.64819
340 5.13774
345 6.81851
350 10.1705
355 12.633
360 15.9205
365 17.9525
370 21.5714
375 25.2144
380 27.7074
385 32.1941
390 34.9949
395 37.3091
400 38.2662
405 41.0606
410 40.8119
415 39.9682
420 40.4646
425 38.7691
430 37.8553
435 37.9302
440 35.3284
445 33.5217
450 31.0161
455 29.8551
460 28.6662
465 25.9496
470 24.5762
475 22.0065
480 19.256
485 17.0575
490 16.3887
495 13.9317
500 12.9869
505 10.3089
510 9.48256
515 8.84991
520 7.65924
525 6.84028
530 5.62934
535 5.08289
540 4.13021
545 3.77438
550 3.33022
555 2.65128
560 2.54533
565 2.05117
570 1.57441
575 1.14233
580 1.12638
585 0.958532
590 0.837729
595 0.766099
600 0.887344
Ex : 328
200 0.347436
205 0.387775
210 0.241744
215 0.189631
220 0.323766
225 0.347955
230 0.254251
235 0.246818
240 0.173281
245 0.283461
250 0.214547
255 0.209071
260 0.268544
265 0.249159
270 0.215389
275 0.252157
280 0.31193
285 0.223106
290 0.247356
295 0.259058
300 0.262584
305 0.279479
310 0.326029
315 1.61299
320 47.7682
325 109.561
330 35.1406
335 7.84922
340 6.02784
345 7.0787
350 9.25304
355 13.15
360 18.3418
365 20.483
370 22.4899
375 25.5701
380 28.7971
385 31.7704
390 34.0847
395 35.9506
400 37.6864
405 38.7143
410 39.3021
415 38.6446
420 39.3523
425 38.9601
430 37.4583
435 37.035
440 35.3622
445 33.0173
450 31.9506
455 30.9459
460 28.8953
465 26.4534
470 23.8242
475 22.2464
480 21.1466
485 19.6144
490 17.2693
495 15.8907
500 14.6242
505 12.1176
510 10.9833
515 9.88956
520 8.65211
525 7.74095
530 6.42219
535 6.03117
540 5.23454
545 4.65685
550 3.80127
555 3.73431
560 3.40486
565 2.42436
570 2.08361
575 1.60159
580 1.18335
585 1.08798
590 1.10133
595 0.617211
600 1.53967
Ex : 333
200 0.4448
205 0.225126
210 0.242348
215 0.27742
220 0.307243
225 0.198069
230 0.214398
235 0.196931
240 0.365332
245 0.312292
250 0.276614
255 0.227699
260 0.28417
265 0.349153
270 0.199459
275 0.264589
280 0.252754
285 0.276142
290 0.337641
295 0.229412
300 0.32785
305 0.31018
310 0.301361
315 0.375973
320 7.20704
325 129.745
330 220.179
335 59.2335
340 10.3349
345 5.97312
350 6.18946
355 7.31002
360 9.94518
365 14.6308
370 15.0182
375 15.2749
380 15.9755
385 16.8224
390 18.452
395 19.9005
400 20.43
405 21.7515
410 22.5253
415 24.142
420 23.1636
425 22.5754
430 22.0208
435 21.7011
440 22.3001
445 21.6884
450 20.7365
455 19.7312
460 18.9781
465 18.0122
470 16.9775
475 16.0635
480 15.4077
485 14.7607
490 12.9123
495 12.1803
500 11.1212
505 10.5754
510 9.54823
515 9.35003
520 7.59264
525 6.72505
530 5.9095
535 5.23339
540 4.88755
545 4.17214
550 3.93885
555 3.27966
560 3.10241
565 2.45039
570 2.2032
575 1.68359
580 1.29186
585 1.1997
590 0.87954
595 0.722926
600 1.05287
Ex : 338
200 0.226897
205 0.302354
210 0.274051
215 0.358956
220 0.325825
225 0.235603
230 0.312507
235 0.270902
240 0.197919
245 0.299873
250 0.279023
255 0.226273
260 0.226885
265 0.385863
270 0.289614
275 0.327538
280 0.290759
285 0.226848
290 0.344589
295 0.407706
300 0.255278
305 0.306152
310 0.292372
315 0.331963
320 0.31945
325 13.173
330 191.69
335 283.065
340 71.6941
345 11.3048
350 4.82087
355 4.17598
360 4.10797
365 6.01463
370 11.0466
375 11.6805
380 10.0439
385 9.61521
390 10.3275
395 10.7608
400 11.1703
405 12.4764
410 13.9072
415 15.0743
420 15.1076
425 14.6235
430 15.0212
435 15.6257
440 15.9153
445 16.0479
450 15.1295
455 14.9166
460 15.063
465 14.9201
470 14.2998
475 14.5506
480 13.9724
485 12.8373
490 12.1759
495 11.263
500 10.8346
505 9.74033
510 9.38337
515 8.50704
520 6.90034
525 6.86199
530 6.12916
535 5.42354
540 4.89661
545 4.53773
550 3.89658
555 3.51071
560 3.12377
565 2.84929
570 2.25659
575 1.99337
580 1.54042
585 1.38259
590 0.929676
595 0.857074
600 0.386511
Ex : 343
200 0.194807
205 0.259961
210 0.121195
215 0.25761
220 0.245786
225 0.203263
230 0.254907
235 0.267873
240 0.313599
245 0.345497
250 0.32816
255 0.317374
260 0.219153
265 0.169616
270 0.217285
275 0.237393
280 0.176851
285 0.172082
290 0.230919
295 0.234046
300 0.281028
305 0.214686
310 0.347596
315 0.276063
320 0.360343
325 0.536645
330 15.0494
335 217.53
340 312.196
345 76.6354
350 11.2992
355 4.11257
360 3.21171
365 2.85998
370 4.17966
375 8.44581
380 9.93225
385 8.08809
390 7.38649
395 7.40461
400 8.24318
405 9.93007
410 11.3351
415 13.265
420 13.4961
425 13.4841
430 13.7535
435 14.8029
440 15.3486
445 15.9197
450 16.1678
455 15.5037
460 15.2897
465 15.7479
470 15.4376
475 15.779
480 15.1166
485 14.43
490 13.5407
495 12.8773
500 12.0469
505 11.8108
510 10.7719
515 9.2307
520 8.88593
525 7.98245
530 7.02127
535 6.39627
540 6.03458
545 5.45018
550 4.61307
555 4.04386
560 3.71419
565 3.11602
570 2.65767
575 2.2315
580 1.73561
585 1.38371
590 1.19115
595 0.904446
600 0.633479
Ex : 348
200 0.224458
205 0.230927
210 0.268504
215 0.228539
220 0.250564
225 0.326178
230 0.22634
235 0.235504
240 0.208198
245 0.2963
250 0.223544
255 0.194468
260 0.19885
265 0.207854
270 0.218953
275 0.191218
280 0.19103
285 0.20878
290 0.17057
295 0.199212
300 0.250703
305 0.205979
310 0.219114
315 0.235318
320 0.29492
325 0.249623
330 0.557131
335 14.7856
340 215.204
345 322.704
350 83.2224
355 11.6679
360 3.78545
365 2.93697
370 2.32775
375 3.10774
380 6.52887
385 9.07128
390 8.56002
395 7.09402
400 7.37708
405 9.18721
410 11.7854
415 13.0971
420 13.69
425 14.2022
430 14.8636
435 16.2629
440 16.7292
445 17.6868
450 16.8516
455 17.3632
460 17.8506
465 18.0521
470 18.5244
475 18.3489
480 17.201
485 16.7308
490 16.3671
495 15.6128
500 14.5384
505 13.7189
510 12.2836
515 11.7119
520 11.0303
525 9.73252
530 8.86109
535 8.17713
540 7.47619
545 6.40652
550 5.78413
555 5.07769
560 4.45002
565 3.60446
570 3.14057
575 2.84626
580 2.16145
585 1.71177
590 1.24558
595 1.04595
600 1.99617
Ex : 353
200 0.13011
205 0.117791
210 0.228853
215 0.181404
220 0.169453
225 0.166501
230 0.20781
235 0.242149
240 0.209563
245 0.150533
250 0.17221
255 0.205898
260 0.157489
265 0.203496
270 0.156408
275 0.133848
280 0.181524
285 0.265173
290 0.217558
295 0.224977
300 0.235094
305 0.170068
310 0.185266
315 0.202815
320 0.242821
325 0.281297
330 0.371886
335 0.588353
340 14.5815
345 220.334
350 316.65
355 80.1842
360 11.0727
365 3.26526
370 2.7779
375 2.60123
380 2.93078
385 5.47101
390 8.9698
395 8.57175
400 8.05649
405 8.90983
410 11.0108
415 12.6709
420 13.5699
425 13.6104
430 14.5995
435 16.3475
440 17.4466
445 17.6814
450 17.8513
455 18.997
460 18.9002
465 19.5503
470 20.0451
475 20.0912
480 20.0394
485 18.7358
490 18.3453
495 17.8984
500 17.2729
505 16.1177
510 15.0048
515 13.8086
520 12.5163
525 11.3697
530 10.2629
535 9.8643
540 8.39787
545 7.50607
550 7.19995
555 6.0191
560 5.28962
565 4.75307
570 3.80159
575 3.38964
580 2.58807
585 1.88248
590 1.47707
595 1.17025
600 1.39411
Ex : 358
200 0.185872
205 0.164185
210 0.199383
215 0.235743
220 0.168678
225 0.147973
230 0.127657
235 0.125415
240 0.14813
245 0.197138
250 0.217699
255 0.169136
260 0.172263
265 0.203196
270 0.22219
275 0.149999
280 0.213592
285 0.19945
290 0.151774
295 0.208201
300 0.188795
305 0.179852
310 0.300836
315 0.188862
320 0.178486
325 0.317322
330 0.356908
335 0.279096
340 0.55927
345 13.6839
350 208.019
355 320.489
360 81.3973
365 11.0346
370 3.45651
375 3.16688
380 2.87067
385 3.11787
390 4.98661
395 9.10722
400 9.96028
405 10.6234
410 12.3244
415 14.0447
420 14.3367
425 14.7526
430 15.3281
435 17.6079
440 18.7761
445 20.0412
450 20.0511
455 19.814
460 20.858
465 21.6617
470 22.2555
475 22.3335
480 22.1832
485 21.1579
490 21.1961
495 20.2766
500 19.001
505 17.9003
510 16.5287
515 15.1626
520 14.2934
525 12.7518
530 11.9017
535 10.7079
540 9.42443
545 8.62531
550 7.57466
555 7.099
560 5.92512
565 5.26637
570 4.08318
575 3.27763
580 2.82156
585 2.12568
590 1.702
595 1.29877
600 1.4655
Ex : 363
200 0.240773
205 0.181046
210 0.217525
215 0.150862
220 0.252516
225 0.167793
230 0.276939
235 0.156313
240 0.169208
245 0.18044
250 0.154137
255 0.177519
260 0.195517
265 0.190845
270 0.175235
275 0.115778
280 0.179548
285 0.183309
290 0.237969
295 0.193171
300 0.132274
305 0.167821
310 0.180244
315 0.15119
320 0.188041
325 0.175986
330 0.271051
335 0.34509
340 0.423883
345 0.667408
350 12.609
355 201.07
360 314.671
365 83.6562
370 11.2498
375 3.46557
380 3.3884
385 3.33769
390 3.38951
395 4.89238
400 9.72703
405 13.2809
410 14.82
415 16.6189
420 17.4772
425 16.9852
430 18.1937
435 20.8012
440 22.7324
445 23.1042
450 23.7043
455 23.5017
460 24.1769
465 24.5264
470 26.084
475 26.0319
480 25.3052
485 24.9922
490 24.0123
495 23.0292
500 22.2784
505 21.5724
510 19.4373
515 18.2487
520 16.7999
525 15.0024
530 13.547
535 12.2835
540 11.0955
545 9.69031
550 9.02267
555 7.6093
560 6.59404
565 5.61676
570 5.0161
575 3.866
580 2.92488
585 2.39135
590 1.82851
595 1.49509
600 0.420203
Ex : 368
200 0.171854
205 0.071177
210 0.16369
215 0.170146
220 0.142886
225 0.248076
230 0.239553
235 0.187593
240 0.182199
245 0.15034
250 0.127526
255 0.126435
260 0.145102
265 0.167357
270 0.205034
275 0.159058
280 0.184762
285 0.204198
290 0.158948
295 0.152844
300 0.139429
305 0.202766
310 0.145367
315 0.164112
320 0.181391
325 0.182387
330 0.262653
335 0.236248
340 0.262865
345 0.355039
350 0.527898
355 10.2192
360 189.654
365 313.487
370 85.1845
375 11.5977
380 3.51068
385 3.5771
390 3.49174
395 3.81791
400 5.1958
405 10.6763
410 16.7018
415 17.6462
420 16.9199
425 15.9089
430 16.9345
435 19.4886
440 21.7797
445 22.3776
450 23.2541
455 24.2774
460 25.1697
465 26.4992
470 27.458
475 27.7805
480 27.7832
485 27.2309
490 26.5466
495 26.2649
500 25.3124
505 24.4552
510 22.5015
515 20.4819
520 19.0729
525 16.9848
530 15.907
535 14.6061
540 12.7598
545 11.5402
550 10.3349
555 9.48152
560 8.07106
565 6.72126
570 5.72217
575 4.70037
580 3.58848
585 2.7812
590 2.24043
595 1.7037
600 1.22368
Ex : 373
200 0.255763
205 0.17018
210 0.139053
215 0.120056
220 0.13882
225 0.117761
230 0.15095
235 0.0970714
240 0.161175
245 0.162155
250 0.161954
255 0.13259
260 0.184359
265 0.146022
270 0.174043
275 0.109699
280 0.116557
285 0.20284
290 0.150359
295 0.169885
300 0.203862
305 0.14333
310 0.178175
315 0.177745
320 0.143606
325 0.176292
330 0.230272
335 0.166944
340 0.244635
345 0.297781
350 0.396962
355 0.527474
360 11.803
365 193.552
370 314.922
375 86.9046
380 12.2673
385 3.80095
390 3.45494
395 3.87755
400 4.33569
405 7.14593
410 12.2216
415 16.6573
420 16.3889
425 15.3363
430 15.8314
435 16.785
440 19.7122
445 20.6057
450 21.6799
455 22.737
460 23.8388
465 26.3359
470 27.4673
475 27.807
480 28.7071
485 28.5453
490 27.9619
495 27.6678
500 26.3472
505 25.625
510 23.6486
515 22.3922
520 20.4686
525 18.9029
530 17.0489
535 15.7949
540 14.147
545 12.7609
550 11.1813
555 9.75843
560 8.42266
565 7.49076
570 6.00176
575 5.03002
580 3.82585
585 2.90571
590 2.40512
595 1.93722
600 0.755227
Ex : 378
200 0.130932
205 0.136928
210 0.113307
215 0.0967133
220 0.187033
225 0.144385
230 0.145993
235 0.146699
240 0.200158
245 0.242044
250 0.18994
255 0.206383
260 0.127595
265 0.143719
270 0.171201
275 0.176257
280 0.13971
285 0.11378
290 0.144522
295 0.158024
300 0.143503
305 0.142843
310 0.132379
315 0.216883
320 0.192253
325 0.205744
330 0.176094
335 0.244134
340 0.219579
345 0.325685
350 0.283395
355 0.314887
360 0.531667
365 10.8874
370 201.63
375 330.768
380 92.0944
385 13.0809
390 3.93079
395 4.37632
400 5.17419
405 7.53105
410 11.226
415 14.8511
420 17.799
425 17.6849
430 17.3669
435 18.8439
440 20.0683
445 21.5767
450 21.615
455 22.6977
460 24.334
465 25.5855
470 27.2906
475 27.8768
480 28.3299
485 27.3477
490 26.9973
495 26.31
500 25.4869
505 24.6598
510 23.0976
515 21.2357
520 19.4479
525 17.8823
530 16.514
535 14.6921
540 13.0817
545 11.7491
550 10.7133
555 9.51472
560 8.43181
565 7.3589
570 6.0123
575 4.72972
580 4.06737
585 3.01983
590 2.15332
595 1.72099
600 1.75673
Ex : 383
200 0.098829
205 0.152674
210 0.212142
215 0.146321
220 0.120959
225 0.12025
230 0.126547
235 0.176085
240 0.127999
245 0.103845
250 0.122749
255 0.188405
260 0.119281
265 0.115389
270 0.12659
275 0.160244
280 0.167825
285 0.228264
290 0.161168
295 0.160281
300 0.192375
305 0.143373
310 0.202792
315 0.155326
320 0.119607
325 0.20277
330 0.233114
335 0.270905
340 0.181726
345 0.240275
350 0.2724
355 0.208944
360 0.393573
365 0.533015
370 10.8967
375 206.433
380 352.514
385 98.4539
390 14.1656
395 4.62377
400 5.35034
405 8.27363
410 12.1336
415 14.6195
420 16.2119
425 18.9785
430 20.7445
435 21.2383
440 23.6931
445 23.7876
450 24.2292
455 24.5912
460 25.8491
465 27.5588
470 28.9644
475 29.1402
480 29.0338
485 28.2955
490 28.522
495 27.4775
500 27.1404
505 25.4102
510 23.5033
515 21.3642
520 19.5972
525 18.1287
530 16.3788
535 15.2814
540 13.8781
545 12.1794
550 11.0227
555 9.15962
560 8.29992
565 7.43128
570 6.17034
575 5.05513
580 3.93344
585 2.85099
590 2.1808
595 1.95402
600 2.239
Ex : 388
200 0.165477
205 0.112293
210 0.208722
215 0.101522
220 0.134361
225 0.107623
230 0.135376
235 0.131347
240 0.138912
245 0.163738
250 0.0993142
255 0.15609
260 0.113972
265 0.174039
270 0.10626
275 0.147403
280 0.1234
285 0.1379
290 0.119645
295 0.176472
300 0.100815
305 0.144638
310 0.127842
315 0.128226
320 0.152133
325 0.234719
330 0.199353
335 0.150778
340 0.226771
345 0.25171
350 0.238268
355 0.208224
360 0.269038
365 0.297769
370 0.482011
375 11.8582
380 210.756
385 352.989
390 97.4455
395 13.9129
400 5.36227
405 7.87326
410 11.4111
415 13.6083
420 13.7809
425 14.8253
430 17.9175
435 21.7367
440 22.7208
445 23.2837
450 23.2071
455 23.8542
460 25.2692
465 27.2392
470 28.5676
475 29.5349
480 29.6554
485 28.5819
490 28.9448
495 28.2965
500 26.7897
505 25.5862
510 24.2998
515 22.5044
520 20.8059
525 19.1167
530 17.1461
535 15.8507
540 13.9638
545 12.7068
550 11.3038
555 10.1528
560 8.64034
565 7.38727
570 6.20723
575 4.85975
580 3.89457
585 3.0038
590 2.24038
595 1.79482
600 0.952294
Ex : 393
200 0.100694
205 0.173772
210 0.13028
215 0.107583
220 0.122311
225 0.09088
230 0.196952
235 0.187368
240 0.134047
245 0.122479
250 0.133918
255 0.0970616
260 0.181729
265 0.149473
270 0.101322
275 0.154057
280 0.112092
285 0.137341
290 0.131706
295 0.128181
300 0.147728
305 0.140738
310 0.105143
315 0.12716
320 0.163332
325 0.201881
330 0.175424
335 0.157524
340 0.184835
345 0.150409
350 0.172946
355 0.188755
360 0.262359
365 0.341181
370 0.382325
375 0.505624
380 10.7053
385 207.136
390 359.611
395 98.9324
400 14.4298
405 6.62992
410 9.33117
415 11.3708
420 11.1134
425 11.173
430 12.5392
435 16.2915
440 20.0421
445 20.9702
450 20.9006
455 22.0268
460 23.0099
465 24.9487
470 26.8572
475 27.9723
480 28.5811
485 28.4873
490 28.7357
495 27.9604
500 26.8909
505 26.3358
510 24.8213
515 22.3676
520 20.8465
525 19.037
530 17.5102
535 16.4974
540 14.6935
545 13.0761
550 11.8412
555 10.3752
560 9.27057
565 7.86959
570 6.78086
575 5.32982
580 4.02364
585 3.27751
590 2.41771
595 1.99615
600 1.64444
Ex : 398
200 0.113418
205 0.112747
210 0.12999
215 0.161539
220 0.171671
225 0.197025
230 0.107238
235 0.097161
240 0.146539
245 0.164242
250 0.116528
255 0.100362
260 0.150801
265 0.152347
270 0.121519
275 0.114236
280 0.151431
285 0.147148
290 0.155398
295 0.136826
300 0.126791
305 0.167765
310 0.159216
315 0.19727
320 0.156962
325 0.124406
330 0.108321
335 0.120566
340 0.155205
345 0.14505
350 0.160492
355 0.182723
360 0.143974
365 0.281963
370 0.278411
375 0.336189
380 0.464033
385 10.7017
390 217.473
395 368.13
400 100.737
405 16.0192
410 9.35627
415 9.95777
420 10.4335
425 10.2211
430 11.4199
435 13.0677
440 16.5483
445 20.361
450 21.2101
455 21.495
460 23.4871
465 24.5739
470 26.6575
475 28.001
480 28.3342
485 29.2504
490 28.9501
495 28.444
500 28.0012
505 26.8301
510 25.5205
515 23.3367
520 21.6452
525 19.8615
530 18.2038
535 16.6944
540 15.1747
545 13.5264
550 12.3696
555 10.983
560 9.54132
565 8.08309
570 6.8894
575 5.2749
580 4.11277
585 3.38406
590 2.60257
595 1.92164
600 1.88665
Ex : 403
200 0.0866449
205 0.146199
210 0.128965
215 0.179635
220 0.136468
225 0.155391
230 0.123966
235 0.125973
240 0.114329
245 0.104105
250 0.133328
255 0.140001
260 0.104063
265 0.100162
270 0.0812827
275 0.150855
280 0.105882
285 0.140328
290 0.108276
295 0.130011
300 0.0744108
305 0.0965548
310 0.136141
315 0.17642
320 0.155562
325 0.162289
330 0.134034
335 0.128214
340 0.166231
345 0.160285
350 0.158762
355 0.214537
360 0.232739
365 0.199632
370 0.153514
375 0.233626
380 0.262868
385 0.575309
390 12.3031
395 220.708
400 370.091
405 104.089
410 19.7304
415 11.5071
420 11.2406
425 11.0048
430 12.0843
435 14.0074
440 16.3157
445 18.5699
450 21.633
455 23.6716
460 25.1706
465 26.7642
470 27.9329
475 28.678
480 29.3589
485 29.7243
490 29.7674
495 29.5207
500 28.8708
505 27.946
510 25.913
515 23.8791
520 22.599
525 20.8918
530 18.7516
535 17.2357
540 15.4472
545 13.9748
550 12.3505
555 11.0759
560 9.86392
565 8.20252
570 6.97739
575 5.67343
580 4.32573
585 3.36823
590 2.43955
595 2.0061
600 2.15144
Ex : 408
200 0.121804
205 0.117842
210 0.108053
215 0.105102
220 0.123676
225 0.125973
230 0.100175
235 0.129841
240 0.166233
245 0.125668
250 0.0937045
255 0.110597
260 0.116137
265 0.145935
270 0.164223
275 0.134473
280 0.11913
285 0.133959
290 0.08904
295 0.171293
300 0.130295
305 0.129622
310 0.129621
315 0.126116
320 0.120786
325 0.138876
330 0.143176
335 0.224949
340 0.155053
345 0.138398
350 0.152701
355 0.199308
360 0.181961
365 0.154389
370 0.204871
375 0.223876
380 0.241301
385 0.347382
390 0.540466
395 11.777
400 226.783
405 380.889
410 107.035
415 21.2534
420 11.2265
425 10.4813
430 11.4577
435 13.3763
440 14.8476
445 16.913
450 18.0289
455 21.7458
460 25.2131
465 26.2569
470 27.3901
475 28.5554
480 29.2069
485 29.6369
490 29.8518
495 29.1201
500 28.7872
505 27.4258
510 26.2417
515 24.1501
520 22.0104
525 20.7295
530 18.8732
535 17.2516
540 15.9548
545 14.1315
550 12.6588
555 11.0361
560 9.70786
565 8.15384
570 6.80893
575 5.67967
580 4.41827
585 3.38548
590 2.69632
595 2.05482
600 1.54806
Ex : 413
200 0.120639
205 0.148309
210 0.159336
215 0.162
220 0.109769
225 0.108534
230 0.122224
235 0.100507
240 0.140992
245 0.15472
250 0.186255
255 0.123947
260 0.12074
265 0.0976247
270 0.121858
275 0.0899778
280 0.139371
285 0.151481
290 0.172175
295 0.147732
300 0.122672
305 0.156264
310 0.103059
315 0.14731
320 0.144705
325 0.149793
330 0.157469
335 0.127566
340 0.168822
345 0.184153
350 0.14666
355 0.190487
360 0.204649
365 0.194349
370 0.258009
375 0.255198
380 0.27286
385 0.317745
390 0.421629
395 0.740373
400 13.8336
405 236.937
410 385.613
415 103.414
420 18.1175
425 8.14293
430 7.83456
435 9.43729
440 10.9185
445 12.139
450 13.7469
455 15.9827
460 19.6682
465 23.6114
470 25.3687
475 26.5213
480 26.5194
485 27.2354
490 27.6464
495 27.5772
500 26.6995
505 26.3495
510 24.4878
515 23.1928
520 21.7603
525 20.1124
530 18.0532
535 16.6205
540 15.5002
545 13.5156
550 11.9798
555 10.8628
560 9.74425
565 8.16032
570 6.80911
575 5.39432
580 4.20184
585 3.21315
590 2.66739
595 1.96193
600 2.54216
Ex : 418
200 0.177592
205 0.10092
210 0.133091
215 0.161292
220 0.12836
225 0.154378
230 0.113441
235 0.119857
240 0.148232
245 0.122598
250 0.125279
255 0.152421
260 0.095745
265 0.0734965
270 0.119104
275 0.184031
280 0.146413
285 0.102559
290 0.118138
295 0.13092
300 0.125691
305 0.159173
310 0.130376
315 0.156142
320 0.151948
325 0.13747
330 0.142041
335 0.114389
340 0.17473
345 0.138792
350 0.159524
355 0.168856
360 0.1677
365 0.153899
370 0.155974
375 0.159401
380 0.244553
385 0.27172
390 0.274154
395 0.375388
400 0.844263
405 13.6461
410 239.233
415 395.87
420 106.979
425 15.6928
430 5.44036
435 5.2147
440 6.49585
445 7.99959
450 9.63521
455 11.7752
460 14.5275
465 17.9545
470 21.5861
475 23.7346
480 24.0351
485 24.9059
490 25.3131
495 25.1851
500 24.5234
505 23.6233
510 22.8334
515 21.5426
520 20.2756
525 18.0606
530 16.6883
535 15.7096
540 14.4596
545 12.5675
550 11.5941
555 10.0999
560 9.21319
565 8.02973
570 6.53388
575 5.09372
580 4.0599
585 3.11226
590 2.42957
595 1.8399
600 1.11626
Ex : 423
200 0.10558
205 0.129012
210 0.138242
215 0.146721
220 0.157392
225 0.129104
230 0.125063
235 0.155999
240 0.113686
245 0.0779623
250 0.120625
255 0.126224
260 0.148458
265 0.163818
270 0.122393
275 0.150107
280 0.124087
285 0.163366
290 0.118645
295 0.121497
300 0.123966
305 0.153644
310 0.108172
315 0.0972813
320 0.114104
325 0.178668
330 0.140271
335 0.173936
340 0.133827
345 0.128804
350 0.164215
355 0.173781
360 0.131179
365 0.142207
370 0.213009
375 0.181839
380 0.195738
385 0.240147
390 0.22694
395 0.254102
400 0.363001
405 0.735394
410 14.2625
415 257.787
420 406.225
425 104.99
430 14.3007
435 4.2093
440 3.85392
445 5.39832
450 7.2446
455 9.43987
460 11.9448
465 14.601
470 17.0584
475 20.4831
480 22.675
485 23.061
490 22.9411
495 22.8051
500 22.4311
505 21.8713
510 20.5836
515 19.4741
520 18.1585
525 17.0391
530 15.6269
535 14.5417
540 13.0906
545 11.9486
550 10.5458
555 9.54008
560 8.24124
565 7.02052
570 5.84781
575 4.76965
580 3.80017
585 2.84869
590 2.36815
595 1.81621
600 1.40959
Ex : 428
200 0.141212
205 0.117635
210 0.12061
215 0.128961
220 0.0875966
225 0.134979
230 0.131204
235 0.137209
240 0.120739
245 0.133752
250 0.13262
255 0.166838
260 0.162024
265 0.143146
270 0.109679
275 0.1185
280 0.114434
285 0.120157
290 0.171165
295 0.16882
300 0.159476
305 0.13373
310 0.104481
315 0.15578
320 0.153183
325 0.148729
330 0.128603
335 0.116641
340 0.136744
345 0.149077
350 0.0876337
355 0.125271
360 0.161247
365 0.172589
370 0.176071
375 0.166248
380 0.140556
385 0.224888
390 0.173588
395 0.203537
400 0.322719
405 0.509295
410 0.795227
415 14.7372
420 257.206
425 413.139
430 110.347
435 14.7428
440 4.33693
445 4.24723
450 6.13973
455 8.1701
460 10.4571
465 12.6635
470 14.4094
475 16.3657
480 19.0489
485 21.4985
490 21.4571
495 21.0001
500 20.418
505 19.5085
510 17.8586
515 17.7016
520 16.5723
525 15.0372
530 14.1912
535 12.6986
540 11.451
545 10.4129
550 9.61473
555 8.2838
560 7.58965
565 6.73297
570 5.63822
575 4.3024
580 3.27104
585 2.72412
590 2.13557
595 1.55434
600 1.13669
Ex : 433
200 0.138579
205 0.202014
210 0.125295
215 0.108062
220 0.0855459
225 0.100502
230 0.147431
235 0.136614
240 0.113433
245 0.111835
250 0.164729
255 0.171833
260 0.124744
265 0.201414
270 0.135461
275 0.183917
280 0.115533
285 0.132336
290 0.109739
295 0.106861
300 0.186076
305 0.128704
310 0.149571
315 0.114072
320 0.113795
325 0.10114
330 0.148824
335 0.123607
340 0.161707
345 0.132852
350 0.126259
355 0.16044
360 0.13331
365 0.164546
370 0.18574
375 0.164643
380 0.202714
385 0.144863
390 0.230077
395 0.239416
400 0.228807
405 0.385809
410 0.47703
415 0.691525
420 17.2488
425 282.422
430 431.816
435 111.883
440 15.3371
445 5.06959
450 5.24555
455 7.46807
460 9.38779
465 10.7411
470 12.4349
475 14.105
480 14.9312
485 17.5526
490 19.2144
495 19.2135
500 18.4031
505 17.7745
510 16.6356
515 15.3844
520 14.5347
525 13.6018
530 12.3567
535 11.3609
540 10.4874
545 9.31721
550 8.35656
555 7.74118
560 6.47568
565 5.70085
570 4.81671
575 3.72541
580 2.90706
585 2.4636
590 1.74044
595 1.33346
600 0.712707
Ex : 438
200 0.162621
205 0.138532
210 0.115547
215 0.151631
220 0.154379
225 0.146229
230 0.0855648
235 0.108472
240 0.129799
245 0.146207
250 0.1594
255 0.151829
260 0.154237
265 0.131467
270 0.0985794
275 0.115019
280 0.117331
285 0.165028
290 0.0993564
295 0.123682
300 0.108209
305 0.106539
310 0.122551
315 0.183332
320 0.0999776
325 0.114996
330 0.132895
335 0.14626
340 0.108352
345 0.129042
350 0.130711
355 0.159936
360 0.161081
365 0.23703
370 0.156012
375 0.221838
380 0.179687
385 0.197688
390 0.164951
395 0.185724
400 0.22645
405 0.239196
410 0.342834
415 0.468475
420 0.644422
425 16.4629
430 281.191
435 458.189
440 117.324
445 16.4721
450 6.05983
455 5.9794
460 7.61481
465 9.64957
470 10.6767
475 11.8158
480 12.8765
485 13.6005
490 14.8331
495 17.0584
500 17.2052
505 15.2613
510 14.457
515 13.6238
520 12.1883
525 11.363
530 10.1819
535 9.66671
540 8.74024
545 8.13918
550 7.25087
555 6.51949
560 5.64715
565 4.87893
570 4.1977
575 3.3918
580 2.56423
585 2.0055
590 1.5287
595 1.36003
600 1.55792
Ex : 443
200 0.105251
205 0.148724
210 0.130786
215 0.114008
220 0.157548
225 0.176016
230 0.111962
235 0.123445
240 0.15405
245 0.13752
250 0.111855
255 0.165033
260 0.124482
265 0.100036
270 0.0915847
275 0.123819
280 0.141459
285 0.116214
290 0.13622
295 0.137813
300 0.14991
305 0.121281
310 0.111089
315 0.14333
320 0.10335
325 0.120066
330 0.188376
335 0.135003
340 0.122472
345 0.128033
350 0.139043
355 0.150176
360 0.180469
365 0.207215
370 0.158487
375 0.125617
380 0.144627
385 0.231775
390 0.169129
395 0.150451
400 0.203938
405 0.229399
410 0.286896
415 0.38743
420 0.498888
425 0.758979
430 18.835
435 306.352
440 476.186
445 119.523
450 17.106
455 6.4663
460 6.42061
465 7.33095
470 8.532
475 9.18483
480 10.2241
485 11.0362
490 11.4398
495 12.2316
500 13.3026
505 13.9868
510 12.2836
515 11.3087
520 10.7584
525 9.47338
530 8.90347
535 8.04322
540 7.32965
545 6.67588
550 5.98582
555 5.4421
560 4.65794
565 4.1388
570 3.5791
575 2.81193
580 2.28149
585 1.64883
590 1.3546
595 1.13332
600 0.501949
Ex : 448
200 0.113057
205 0.115324
210 0.12707
215 0.107426
220 0.121396
225 0.154276
230 0.12709
235 0.0974612
240 0.149903
245 0.16112
250 0.132656
255 0.121354
260 0.149984
265 0.102124
270 0.130966
275 0.14318
280 0.191701
285 0.111815
290 0.124115
295 0.173693
300 0.170488
305 0.142874
310 0.141707
315 0.137294
320 0.170393
325 0.134059
330 0.13009
335 0.109909
340 0.182589
345 0.143156
350 0.143075
355 0.141088
360 0.127347
365 0.197807
370 0.212334
375 0.233309
380 0.198257
385 0.190229
390 0.199931
395 0.191576
400 0.226309
405 0.225797
410 0.261992
415 0.249922
420 0.320906
425 0.404961
430 0.839221
435 19.8247
440 329.747
445 503.454
450 127.067
455 18.2109
460 6.59636
465 5.63077
470 6.60282
475 7.51207
480 8.10171
485 8.02849
490 8.5438
495 8.83678
500 8.88993
505 9.48703
510 10.6731
515 9.78504
520 8.40072
525 8.11759
530 7.16388
535 6.08852
540 5.70712
545 5.07553
550 4.68844
555 4.15566
560 3.56153
565 3.2836
570 2.67465
575 2.27053
580 1.78286
585 1.28598
590 1.12981
595 0.925182
600 1.3585
Ex : 453
200 0.124144
205 0.117545
210 0.133847
215 0.102861
220 0.125742
225 0.12544
230 0.132907
235 0.146703
240 0.129822
245 0.138981
250 0.143946
255 0.1079
260 0.115252
265 0.15059
270 0.184951
275 0.138609
280 0.190664
285 0.134213
290 0.114943
295 0.0779423
300 0.0897337
305 0.150789
310 0.160384
315 0.105379
320 0.100686
325 0.112316
330 0.118606
335 0.15911
340 0.15102
345 0.130786
350 0.122662
355 0.12233
360 0.196184
365 0.154752
370 0.172805
375 0.129925
380 0.171652
385 0.171211
390 0.145573
395 0.164188
400 0.228262
405 0.218261
410 0.195672
415 0.232876
420 0.229303
425 0.30278
430 0.402816
435 0.706964
440 20.6281
445 363.142
450 525.875
455 124.098
460 17.8267
465 5.90879
470 4.77335
475 4.98197
480 5.73316
485 6.21295
490 6.25688
495 6.155
500 6.42563
505 6.56479
510 6.53361
515 7.82616
520 7.75584
525 6.22308
530 5.66171
535 4.9913
540 4.38753
545 4.01848
550 3.58025
555 3.2521
560 2.84096
565 2.43177
570 2.07478
575 1.67488
580 1.33645
585 1.10917
590 0.921623
595 0.730155
600 0.44601
Ex : 458
200 0.122082
205 0.118476
210 0.110843
215 0.138554
220 0.174968
225 0.114799
230 0.127489
235 0.127156
240 0.140413
245 0.153642
250 0.191927
255 0.138413
260 0.10529
265 0.16732
270 0.134248
275 0.118961
280 0.129859
285 0.142624
290 0.174218
295 0.12354
300 0.152007
305 0.0904126
310 0.117487
315 0.15181
320 0.146273
325 0.169962
330 0.151495
335 0.149519
340 0.140881
345 0.123774
350 0.144249
355 0.192683
360 0.152212
365 0.165161
370 0.121287
375 0.168371
380 0.184565
385 0.183951
390 0.132711
395 0.163573
400 0.162531
405 0.179433
410 0.246918
415 0.235473
420 0.272611
425 0.291453
430 0.378162
435 0.506671
440 0.854442
445 23.1244
450 366.985
455 540.414
460 130.406
465 17.8563
470 5.11827
475 3.7149
480 3.81865
485 4.57058
490 4.55871
495 4.29756
500 4.3449
505 4.23151
510 4.07917
515 4.21116
520 5.38498
525 5.73745
530 4.77415
535 4.1339
540 3.42411
545 3.18592
550 2.84773
555 2.44677
560 2.29708
565 2.0283
570 1.75307
575 1.33383
580 1.12485
585 0.830049
590 0.752384
595 0.650711
600 0.389923
Ex : 463
200 0.115359
205 0.10417
210 0.131911
215 0.136308
220 0.132719
225 0.15033
230 0.158289
235 0.138519
240 0.150015
245 0.149115
250 0.131143
255 0.098371
260 0.113106
265 0.126973
270 0.121173
275 0.0879164
280 0.117077
285 0.120064
290 0.140254
295 0.142803
300 0.176655
305 0.164825
310 0.117479
315 0.119527
320 0.11986
325 0.136064
330 0.153873
335 0.166993
340 0.138533
345 0.148646
350 0.179003
355 0.128143
360 0.17297
365 0.126659
370 0.18318
375 0.15807
380 0.177946
385 0.134586
390 0.148721
395 0.173845
400 0.214829
405 0.217216
410 0.197327
415 0.194631
420 0.265096
425 0.220859
430 0.272389
435 0.39783
440 0.594892
445 0.884569
450 21.7101
455 371.493
460 574.25
465 138.501
470 18.3301
475 4.58674
480 2.97754
485 2.89825
490 3.35639
495 3.28097
500 2.98725
505 2.88846
510 2.91323
515 2.96707
520 2.91991
525 3.72819
530 4.71232
535 4.01573
540 3.16993
545 2.90449
550 2.56504
555 2.14568
560 1.89571
565 1.59769
570 1.23395
575 1.13946
580 0.947193
585 0.806294
590 0.550898
595 0.472219
600 0.714312
Ex : 468
200 0.138103
205 0.126432
210 0.10141
215 0.159967
220 0.124114
225 0.125874
230 0.106468
235 0.0814208
240 0.135566
245 0.114121
250 0.136833
255 0.174726
260 0.164116
265 0.13764
270 0.085742
275 0.135664
280 0.124891
285 0.167635
290 0.118924
295 0.125001
300 0.134816
305 0.111133
310 0.120012
315 0.123174
320 0.117759
325 0.144984
330 0.132639
335 0.124459
340 0.120954
345 0.219981
350 0.157223
355 0.101114
360 0.121893
365 0.147547
370 0.135542
375 0.154385
380 0.143231
385 0.138216
390 0.133854
395 0.141816
400 0.158066
405 0.192543
410 0.179367
415 0.201851
420 0.163054
425 0.158795
430 0.274468
435 0.209811
440 0.32656
445 0.57085
450 0.741428
455 23.6282
460 369.595
465 588.731
470 141.495
475 18.0975
480 3.96136
485 2.42193
490 2.22165
495 2.62961
500 2.66134
505 2.6061
510 2.3025
515 2.29319
520 2.38038
525 2.36267
530 2.60133
535 3.67467
540 3.76259
545 2.79509
550 2.32926
555 2.13483
560 1.75653
565 1.46982
570 1.30383
575 0.995537
580 0.870437
585 0.672794
590 0.621291
595 0.407266
600 0.348239
Ex : 473
200 0.101895
205 0.156053
210 0.130084
215 0.166422
220 0.140638
225 0.150011
230 0.158434
235 0.141098
240 0.120796
245 0.1552
250 0.152188
255 0.139844
260 0.121632
265 0.127389
270 0.11748
275 0.128686
280 0.102108
285 0.126555
290 0.141064
295 0.104043
300 0.13391
305 0.135566
310 0.138497
315 0.126567
320 0.119896
325 0.14824
330 0.128759
335 0.161281
340 0.144176
345 0.163118
350 0.177499
355 0.130446
360 0.152671
365 0.172388
370 0.136106
375 0.134654
380 0.129484
385 0.164296
390 0.140803
395 0.157602
400 0.157011
405 0.170114
410 0.19336
415 0.171808
420 0.170132
425 0.18018
430 0.20601
435 0.22511
440 0.357718
445 0.425034
450 0.562246
455 0.761652
460 27.7536
465 404.458
470 559.167
475 129.352
480 16.5473
485 3.491
490 1.95398
495 1.74929
500 2.13876
505 2.12652
510 2.06442
515 1.95313
520 1.87785
525 1.99013
530 2.0117
535 2.08957
540 2.91828
545 3.41623
550 2.53741
555 2.03791
560 1.88412
565 1.52045
570 1.17694
575 0.919198
580 0.738517
585 0.671584
590 0.539835
595 0.497314
600 0.195706
Ex : 478
200 0.131887
205 0.169562
210 0.13289
215 0.127889
220 0.112145
225 0.177773
230 0.179083
235 0.127631
240 0.146421
245 0.164375
250 0.10261
255 0.127093
260 0.16502
265 0.15792
270 0.133344
275 0.0978744
280 0.114627
285 0.143677
290 0.170862
295 0.16864
300 0.144132
305 0.143966
310 0.115659
315 0.103583
320 0.158415
325 0.154914
330 0.19364
335 0.156984
340 0.146859
345 0.145141
350 0.138414
355 0.152917
360 0.14568
365 0.205124
370 0.16211
375 0.119485
380 0.169277
385 0.132791
390 0.169768
395 0.176443
400 0.151421
405 0.160926
410 0.187888
415 0.203945
420 0.196609
425 0.238163
430 0.224784
435 0.250553
440 0.206534
445 0.282522
450 0.57603
455 0.608683
460 1.033
465 28.2995
470 402.706
475 565.762
480 135.902
485 17.1731
490 3.47396
495 1.97012
500 1.684
505 1.94479
510 1.97669
515 1.93456
520 1.76565
525 1.69339
530 1.76728
535 1.67176
540 1.87096
545 2.38513
550 2.88863
555 2.5897
560 1.75552
565 1.71036
570 1.45917
575 1.08218
580 0.84235
585 0.701622
590 0.585666
595 0.39325
600 0.4232
Ex : 483
200 0.138287
205 0.125167
210 0.173959
215 0.128318
220 0.133036
225 0.135502
230 0.168013
235 0.194761
240 0.122761
245 0.115905
250 0.196301
255 0.15984
260 0.112625
265 0.159484
270 0.130225
275 0.156633
280 0.197501
285 0.135734
290 0.14056
295 0.177103
300 0.167804
305 0.138632
310 0.18043
315 0.173643
320 0.162653
325 0.199615
330 0.154392
335 0.230744
340 0.216525
345 0.19635
350 0.14798
355 0.160912
360 0.184442
365 0.157139
370 0.129896
375 0.170422
380 0.154836
385 0.141659
390 0.182534
395 0.17766
400 0.18258
405 0.206504
410 0.181426
415 0.187342
420 0.185608
425 0.191226
430 0.247709
435 0.29165
440 0.218003
445 0.263604
450 0.344372
455 0.387334
460 0.583046
465 0.858994
470 22.036
475 393.899
480 600.078
485 142.395
490 17.7529
495 3.47224
500 1.67681
505 1.44539
510 1.63934
515 1.82239
520 1.86708
525 1.73814
530 1.63832
535 1.62017
540 1.66737
545 1.64009
550 1.7094
555 2.54527
560 2.64188
565 1.7302
570 1.32364
575 1.19128
580 0.872462
585 0.654396
590 0.512526
595 0.436634
600 0.205162
Ex : 488
200 0.145336
205 0.181758
210 0.208424
215 0.162594
220 0.207382
225 0.177097
230 0.160393
235 0.140768
240 0.16898
245 0.112138
250 0.171415
255 0.162174
260 0.146015
265 0.135434
270 0.143836
275 0.158663
280 0.184471
285 0.146451
290 0.152379
295 0.132989
300 0.105327
305 0.121706
310 0.181737
315 0.189603
320 0.219821
325 0.188265
330 0.173004
335 0.242121
340 0.157604
345 0.154647
350 0.201804
355 0.19273
360 0.206235
365 0.172718
370 0.203339
375 0.18984
380 0.194445
385 0.15982
390 0.250075
395 0.190137
400 0.217576
405 0.25623
410 0.217644
415 0.167587
420 0.241917
425 0.233369
430 0.218038
435 0.187841
440 0.264702
445 0.277989
450 0.258739
455 0.324542
460 0.42619
465 0.703737
470 1.00656
475 26.9896
480 425.461
485 591.171
490 138.066
495 17.1769
500 3.22123
505 1.56589
510 1.40835
515 1.36646
520 1.69002
525 1.86248
530 1.84456
535 1.50431
540 1.54803
545 1.41421
550 1.56792
555 1.58886
560 1.92528
565 2.1623
570 1.73788
575 1.11368
580 1.1079
585 0.794175
590 0.593007
595 0.450047
600 0.566448
Ex : 493
200 0.227273
205 0.158509
210 0.147133
215 0.156555
220 0.139462
225 0.198752
230 0.147625
235 0.173992
240 0.206655
245 0.127255
250 0.175254
255 0.150069
260 0.196231
265 0.178767
270 0.141833
275 0.141778
280 0.176025
285 0.208757
290 0.154097
295 0.149639
300 0.170986
305 0.118457
310 0.132562
315 0.168847
320 0.167549
325 0.145321
330 0.156127
335 0.173167
340 0.206079
345 0.162006
350 0.214983
355 0.145779
360 0.177229
365 0.220775
370 0.204448
375 0.187602
380 0.198153
385 0.192617
390 0.184476
395 0.222061
400 0.165844
405 0.26091
410 0.182794
415 0.203696
420 0.202397
425 0.193637
430 0.251152
435 0.237378
440 0.293481
445 0.27539
450 0.286623
455 0.285284
460 0.425399
465 0.540573
470 0.624093
475 0.892401
480 24.1512
485 404.22
490 608.465
495 140.365
500 17.3919
505 3.18832
510 1.59069
515 1.41311
520 1.51909
525 1.80535
530 1.64107
535 1.54935
540 1.37041
545 1.31534
550 1.36115
555 1.29635
560 1.26509
565 1.59623
570 1.99657
575 1.71578
580 0.949281
585 0.788694
590 0.635412
595 0.496847
600 0.819474
Ex : 498
200 0.156425
205 0.202579
210 0.239736
215 0.154188
220 0.160817
225 0.146092
230 0.134329
235 0.138081
240 0.18807
245 0.174974
250 0.183465
255 0.12848
260 0.173368
265 0.178772
270 0.174746
275 0.180363
280 0.174115
285 0.129089
290 0.129334
295 0.168903
300 0.141378
305 0.149037
310 0.194736
315 0.170505
320 0.13106
325 0.180492
330 0.209726
335 0.1974
340 0.134043
345 0.120871
350 0.180881
355 0.212557
360 0.155408
365 0.224513
370 0.224034
375 0.141179
380 0.257338
385 0.204381
390 0.227683
395 0.229589
400 0.202335
405 0.171897
410 0.19003
415 0.158074
420 0.215171
425 0.205409
430 0.293382
435 0.312145
440 0.293934
445 0.231955
450 0.214801
455 0.358372
460 0.332134
465 0.390736
470 0.547435
475 0.755232
480 1.00502
485 28.5207
490 422.741
495 587.77
500 136.522
505 17.0239
510 3.3577
515 1.55025
520 1.52314
525 1.44134
530 1.40031
535 1.52664
540 1.63447
545 1.59379
550 1.33011
555 1.2278
560 1.25463
565 1.10444
570 1.03443
575 1.58168
580 1.51422
585 0.977122
590 0.675667
595 0.627143
600 0.454892
Ex : 503
200 0.233061
205 0.175379
210 0.188582
215 0.124557
220 0.132542
225 0.162878
230 0.172999
235 0.221977
240 0.24257
245 0.162048
250 0.127888
255 0.177884
260 0.151873
265 0.144341
270 0.151778
275 0.165083
280 0.152939
285 0.107048
290 0.199819
295 0.223779
300 0.171922
305 0.187317
310 0.204224
315 0.215221
320 0.26262
325 0.261761
330 0.193204
335 0.162102
340 0.211712
345 0.17321
350 0.212764
355 0.207506
360 0.211768
365 0.185837
370 0.169335
375 0.13494
380 0.190288
385 0.1661
390 0.188149
395 0.215413
400 0.247487
405 0.263655
410 0.244303
415 0.277505
420 0.198072
425 0.209488
430 0.18794
435 0.222879
440 0.241959
445 0.263999
450 0.271029
455 0.259616
460 0.294102
465 0.311119
470 0.370896
475 0.450364
480 0.653667
485 1.04469
490 25.3427
495 415.512
500 589.711
505 136.339
510 17.0005
515 3.12303
520 1.54089
525 1.26824
530 1.31492
535 1.54614
540 1.6511
545 1.49303
550 1.37918
555 1.39807
560 1.15097
565 1.03866
570 0.828498
575 0.899928
580 1.07554
585 1.37321
590 0.876354
595 0.62367
600 0.937394
Ex : 508
200 0.167104
205 0.189769
210 0.147039
215 0.146746
220 0.169483
225 0.183261
230 0.131471
235 0.174636
240 0.125966
245 0.209874
250 0.238197
255 0.218866
260 0.184421
265 0.145775
270 0.157638
275 0.150776
280 0.190145
285 0.198079
290 0.172575
295 0.206528
300 0.175473
305 0.197642
310 0.162969
315 0.14338
320 0.146236
325 0.218578
330 0.201114
335 0.259253
340 0.256362
345 0.177384
350 0.243036
355 0.157966
360 0.168203
365 0.142135
370 0.189846
375 0.188171
380 0.228908
385 0.269499
390 0.167471
395 0.228345
400 0.186284
405 0.190106
410 0.179367
415 0.164223
420 0.178378
425 0.226413
430 0.204683
435 0.266186
440 0.291509
445 0.25078
450 0.274281
455 0.337241
460 0.329937
465 0.309025
470 0.371376
475 0.441356
480 0.442297
485 0.631545
490 1.00218
495 27.2246
500 414.453
505 584.281
510 139.017
515 17.0926
520 3.12314
525 1.66931
530 1.2987
535 1.40423
540 1.48557
545 1.5536
550 1.41169
555 1.33415
560 1.1338
565 0.978204
570 0.859252
575 0.854602
580 0.742903
585 0.812055
590 1.12665
595 0.921226
600 0.338691
Ex : 513
200 0.145485
205 0.138805
210 0.14945
215 0.196602
220 0.180039
225 0.1838
230 0.199426
235 0.186383
240 0.226237
245 0.263989
250 0.264844
255 0.16324
260 0.201873
265 0.154738
270 0.239009
275 0.195692
280 0.218735
285 0.223395
290 0.268786
295 0.188755
300 0.180872
305 0.185474
310 0.16931
315 0.222472
320 0.322496
325 0.17021
330 0.168932
335 0.193432
340 0.268992
345 0.234584
350 0.248473
355 0.199478
360 0.156979
365 0.207397
370 0.213595
375 0.186495
380 0.172726
385 0.207124
390 0.275089
395 0.188449
400 0.166762
405 0.146877
410 0.253458
415 0.269213
420 0.293754
425 0.216051
430 0.261269
435 0.268945
440 0.342634
445 0.227965
450 0.302678
455 0.291605
460 0.234685
465 0.275932
470 0.253831
475 0.36957
480 0.384384
485 0.456739
490 0.706426
495 0.888986
500 26.1782
505 409.365
510 593.197
515 145.666
520 17.8877
525 3.2805
530 1.67957
535 1.41562
540 1.2898
545 1.53536
550 1.43341
555 1.27643
560 1.2114
565 0.940039
570 0.914557
575 0.905982
580 0.692687
585 0.611635
590 0.581423
595 0.762101
600 0.0867242
Ex : 518
200 0.147331
205 0.136874
210 0.135367
215 0.201548
220 0.186116
225 0.153903
230 0.19668
235 0.194285
240 0.30564
245 0.164492
250 0.129701
255 0.138097
260 0.143278
265 0.187079
270 0.235765
275 0.160641
280 0.129702
285 0.170754
290 0.210908
295 0.175699
300 0.213605
305 0.189404
310 0.196453
315 0.187471
320 0.169
325 0.18683
330 0.202865
335 0.226031
340 0.181756
345 0.231497
350 0.251802
355 0.158043
360 0.203578
365 0.242737
370 0.185533
375 0.22586
380 0.205696
385 0.200772
390 0.241668
395 0.309998
400 0.217718
405 0.230182
410 0.15063
415 0.174645
420 0.216429
425 0.203068
430 0.24187
435 0.261497
440 0.278538
445 0.312411
450 0.270899
455 0.320974
460 0.272246
465 0.319594
470 0.312445
475 0.335682
480 0.399508
485 0.340588
490 0.404104
495 0.620208
500 0.799543
505 25.0248
510 384.288
515 578.079
520 140.43
525 17.3281
530 3.06694
535 1.59652
540 1.17659
545 1.26111
550 1.38742
555 1.44949
560 1.27495
565 1.10045
570 0.938608
575 0.79461
580 0.704587
585 0.553272
590 0.508086
595 0.49694
600 0.593385
Ex : 523
200 0.257543
205 0.173696
210 0.178009
215 0.152363
220 0.131198
225 0.168346
230 0.176899
235 0.186207
240 0.233767
245 0.227278
250 0.169695
255 0.2019
260 0.229538
265 0.219841
270 0.200355
275 0.223951
280 0.184194
285 0.18773
290 0.184441
295 0.185717
300 0.257598
305 0.255091
310 0.173508
315 0.160513
320 0.193451
325 0.138025
330 0.198456
335 0.225785
340 0.193715
345 0.248908
350 0.286194
355 0.204671
360 0.223446
365 0.203944
370 0.199787
375 0.144674
380 0.196594
385 0.24725
390 0.242302
395 0.188429
400 0.235148
405 0.182029
410 0.303266
415 0.300916
420 0.258577
425 0.18384
430 0.237651
435 0.216251
440 0.260922
445 0.204325
450 0.277081
455 0.231676
460 0.268143
465 0.318522
470 0.264944
475 0.254101
480 0.276293
485 0.343849
490 0.376501
495 0.51412
500 0.59423
505 0.987122
510 22.492
515 365.337
520 570.894
525 147.505
530 18.0703
535 3.32507
540 1.56038
545 1.35849
550 1.28275
555 1.25149
560 1.29295
565 1.06861
570 1.03542
575 0.865184
580 0.751419
585 0.597707
590 0.480935
595 0.429191
600 0.0798575
Ex : 528
200 0.202922
205 0.198073
210 0.26093
215 0.234406
220 0.162105
225 0.179454
230 0.199744
235 0.188502
240 0.210341
245 0.195757
250 0.210936
255 0.181681
260 0.202257
265 0.195321
270 0.266152
275 0.239853
280 0.224008
285 0.191482
290 0.20851
295 0.214852
300 0.214491
305 0.212531
310 0.191364
315 0.207716
320 0.189546
325 0.170135
330 0.219009
335 0.24716
340 0.266511
345 0.215358
350 0.159734
355 0.2189
360 0.195232
365 0.257215
370 0.166886
375 0.221974
380 0.195815
385 0.172911
390 0.274493
395 0.357994
400 0.175035
405 0.287055
410 0.210587
415 0.311939
420 0.199952
425 0.256712
430 0.346936
435 0.362852
440 0.275244
445 0.262462
450 0.236058
455 0.264778
460 0.259114
465 0.318217
470 0.32285
475 0.321748
480 0.331211
485 0.293693
490 0.389271
495 0.37807
500 0.433891
505 0.660357
510 0.846927
515 20.8812
520 365.059
525 550.666
530 138.219
535 17.2883
540 3.26328
545 1.75838
550 1.60603
555 1.21317
560 1.06373
565 1.29466
570 0.991473
575 0.832984
580 0.629057
585 0.515294
590 0.452116
595 0.508358
600 0.500951
Ex : 533
200 0.242613
205 0.225444
210 0.177315
215 0.223804
220 0.142915
225 0.230596
230 0.27129
235 0.155255
240 0.200111
245 0.185349
250 0.226802
255 0.175521
260 0.223994
265 0.161549
270 0.234326
275 0.269545
280 0.153767
285 0.212044
290 0.183911
295 0.245057
300 0.186804
305 0.190993
310 0.216731
315 0.236838
320 0.188286
325 0.150001
330 0.209197
335 0.203169
340 0.222402
345 0.229015
350 0.226895
355 0.178221
360 0.348716
365 0.220858
370 0.271288
375 0.319002
380 0.25434
385 0.250864
390 0.290688
395 0.239784
400 0.239237
405 0.262186
410 0.249791
415 0.15625
420 0.226226
425 0.323905
430 0.223398
435 0.295126
440 0.261342
445 0.2073
450 0.262949
455 0.450272
460 0.322375
465 0.23876
470 0.228372
475 0.208555
480 0.316934
485 0.288246
490 0.371691
495 0.392264
500 0.427668
505 0.542749
510 0.531706
515 0.820726
520 20.9681
525 346.037
530 548.765
535 141.354
540 17.6935
545 3.32392
550 1.67106
555 1.12971
560 1.09128
565 0.959542
570 0.985664
575 0.837851
580 0.632396
585 0.588509
590 0.484776
595 0.500147
600 0.393388
Ex : 538
200 0.343084
205 0.261002
210 0.192791
215 0.185094
220 0.202212
225 0.140271
230 0.337196
235 0.212395
240 0.221995
245 0.188473
250 0.17947
255 0.200638
260 0.216395
265 0.246117
270 0.220296
275 0.244182
280 0.185506
285 0.181897
290 0.24008
295 0.183357
300 0.202233
305 0.149681
310 0.19505
315 0.282166
320 0.251228
325 0.198764
330 0.333116
335 0.23015
340 0.213141
345 0.165032
350 0.171444
355 0.216145
360 0.261365
365 0.2427
370 0.219145
375 0.252055
380 0.211279
385 0.273119
390 0.265345
395 0.202042
400 0.161575
405 0.196661
410 0.21773
415 0.244536
420 0.232489
425 0.209934
430 0.236759
435 0.269945
440 0.227912
445 0.228276
450 0.323755
455 0.297518
460 0.215352
465 0.237994
470 0.26955
475 0.308132
480 0.275494
485 0.204305
490 0.33658
495 0.255761
500 0.300454
505 0.427668
510 0.484401
515 0.572769
520 0.99974
525 17.8231
530 322.753
535 531.34
540 143.142
545 17.8357
550 3.24478
555 1.43407
560 1.23532
565 0.891492
570 0.734802
575 0.678597
580 0.716751
585 0.557494
590 0.557285
595 0.523624
600 0.734086
Ex : 543
200 0.169981
205 0.162003
210 0.33115
215 0.216656
220 0.149247
225 0.202298
230 0.189093
235 0.217139
240 0.185115
245 0.176939
250 0.243395
255 0.293282
260 0.240973
265 0.242358
270 0.196775
275 0.241958
280 0.201186
285 0.231928
290 0.318108
295 0.229669
300 0.230413
305 0.211428
310 0.29998
315 0.183013
320 0.190125
325 0.152711
330 0.239655
335 0.211362
340 0.24042
345 0.295037
350 0.222941
355 0.259794
360 0.223844
365 0.250058
370 0.238032
375 0.211412
380 0.261761
385 0.279017
390 0.215269
395 0.188011
400 0.22432
405 0.156607
410 0.230156
415 0.261999
420 0.249136
425 0.274191
430 0.231457
435 0.237568
440 0.299768
445 0.259672
450 0.392482
455 0.304051
460 0.245664
465 0.237688
470 0.255176
475 0.325485
480 0.279323
485 0.373242
490 0.304301
495 0.267251
500 0.328544
505 0.319132
510 0.334254
515 0.454153
520 0.531047
525 0.81969
530 15.7818
535 310.51
540 535.396
545 148.095
550 18.3283
555 3.16072
560 1.36627
565 0.898298
570 0.954282
575 0.7012
580 0.570744
585 0.562201
590 0.516791
595 0.437647
600 0.0498025
Ex : 548
200 0.188711
205 0.316793
210 0.282176
215 0.282793
220 0.210629
225 0.266054
230 0.274531
235 0.230528
240 0.278622
245 0.214272
250 0.207062
255 0.252037
260 0.2122
265 0.254289
270 0.193867
275 0.230471
280 0.356291
285 0.202945
290 0.191389
295 0.191509
300 0.175426
305 0.209059
310 0.150867
315 0.19182
320 0.240343
325 0.241708
330 0.191997
335 0.193594
340 0.189897
345 0.195329
350 0.254496
355 0.211811
360 0.174324
365 0.232205
370 0.244314
375 0.283836
380 0.303972
385 0.286877
390 0.272875
395 0.273442
400 0.186273
405 0.207038
410 0.196969
415 0.205307
420 0.262921
425 0.279106
430 0.233755
435 0.22496
440 0.251678
445 0.279584
450 0.300932
455 0.342495
460 0.350233
465 0.203315
470 0.224749
475 0.226223
480 0.272194
485 0.424306
490 0.30735
495 0.329673
500 0.3796
505 0.275713
510 0.382743
515 0.387296
520 0.446242
525 0.50679
530 0.734171
535 17.4467
540 310.235
545 514.331
550 142.889
555 17.4468
560 2.84408
565 1.06166
570 0.82484
575 0.646707
580 0.501662
585 0.585696
590 0.504112
595 0.536816
600 0.0610876
Ex : 553
200 0.188532
205 0.322283
210 0.325959
215 0.235821
220 0.296222
225 0.224018
230 0.207055
235 0.229794
240 0.175313
245 0.18211
250 0.348834
255 0.329416
260 0.369845
265 0.385088
270 0.273734
275 0.27085
280 0.20146
285 0.17139
290 0.19883
295 0.226088
300 0.195405
305 0.174095
310 0.24288
315 0.197832
320 0.212203
325 0.176061
330 0.193682
335 0.245302
340 0.212975
345 0.194291
350 0.215752
355 0.321949
360 0.196667
365 0.173624
370 0.249236
375 0.273016
380 0.225392
385 0.179091
390 0.26176
395 0.290353
400 0.235155
405 0.285708
410 0.257123
415 0.277677
420 0.203179
425 0.24413
430 0.237536
435 0.243783
440 0.31585
445 0.318711
450 0.265619
455 0.25254
460 0.278827
465 0.244689
470 0.296766
475 0.255544
480 0.282482
485 0.261949
490 0.311575
495 0.275698
500 0.419564
505 0.326721
510 0.388179
515 0.371084
520 0.378856
525 0.564506
530 0.614841
535 0.764181
540 14.4669
545 283.441
550 488.491
555 140.8
560 17.4016
565 2.65513
570 0.913542
575 0.745718
580 0.536361
585 0.4754
590 0.371474
595 0.346143
600 0.543518
Ex : 558
200 0.277908
205 0.227669
210 0.195693
215 0.166832
220 0.158856
225 0.169975
230 0.152589
235 0.263168
240 0.215005
245 0.36658
250 0.245083
255 0.288847
260 0.278096
265 0.209857
270 0.253083
275 0.261638
280 0.204057
285 0.159449
290 0.235975
295 0.207122
300 0.268121
305 0.246978
310 0.319649
315 0.213248
320 0.250979
325 0.258434
330 0.247503
335 0.192427
340 0.281552
345 0.217979
350 0.264036
355 0.25209
360 0.255235
365 0.259233
370 0.244033
375 0.228507
380 0.258648
385 0.190801
390 0.254607
395 0.226727
400 0.291793
405 0.222044
410 0.29836
415 0.318799
420 0.188173
425 0.380692
430 0.244009
435 0.221431
440 0.276296
445 0.289405
450 0.202239
455 0.2397
460 0.270793
465 0.336574
470 0.283578
475 0.340793
480 0.227207
485 0.289717
490 0.317638
495 0.34635
500 0.280461
505 0.27073
510 0.315594
515 0.31186
520 0.261929
525 0.355752
530 0.469658
535 0.66262
540 0.757969
545 13.9278
550 273.189
555 491.058
560 139.845
565 17.0636
570 2.62874
575 0.792321
580 0.754914
585 0.502765
590 0.378591
595 0.38266
600 0.802357
Ex : 563
200 0.260368
205 0.290389
210 0.236651
215 0.327562
220 0.203328
225 0.259296
230 0.178832
235 0.216429
240 0.262661
245 0.237383
250 0.241018
255 0.270725
260 0.19456
265 0.300461
270 0.189804
275 0.212275
280 0.170211
285 0.185685
290 0.233771
295 0.228944
300 0.302992
305 0.169122
310 0.242253
315 0.269533
320 0.312609
325 0.338292
330 0.236746
335 0.284605
340 0.207893
345 0.217361
350 0.272666
355 0.277076
360 0.243831
365 0.205912
370 0.209665
375 0.222934
380 0.275871
385 0.221518
390 0.274829
395 0.261571
400 0.311826
405 0.288861
410 0.393471
415 0.226659
420 0.238807
425 0.274289
430 0.260854
435 0.310123
440 0.266557
445 0.292551
450 0.315216
455 0.356679
460 0.245066
465 0.295479
470 0.284256
475 0.347286
480 0.313666
485 0.236464
490 0.324378
495 0.289883
500 0.287054
505 0.413986
510 0.348121
515 0.47937
520 0.298872
525 0.406327
530 0.398737
535 0.386129
540 0.535719
545 0.714924
550 13.81
555 266.662
560 465.313
565 136.485
570 16.5825
575 2.40577
580 0.72821
585 0.55197
590 0.566663
595 0.399545
600 0.369272
Ex : 568
200 0.270927
205 0.189664
210 0.221594
215 0.242107
220 0.301473
225 0.201029
230 0.226194
235 0.242182
240 0.202938
245 0.238253
250 0.208104
255 0.322623
260 0.304191
265 0.222497
270 0.205074
275 0.263784
280 0.284848
285 0.233004
290 0.241251
295 0.159328
300 0.197825
305 0.265411
310 0.190169
315 0.316809
320 0.242227
325 0.214317
330 0.221416
335 0.201685
340 0.223263
345 0.207699
350 0.293932
355 0.206597
360 0.187358
365 0.228185
370 0.177767
375 0.386847
380 0.287898
385 0.271976
390 0.283275
395 0.254973
400 0.315916
405 0.237694
410 0.211663
415 0.231965
420 0.190761
425 0.298969
430 0.356303
435 0.341065
440 0.26647
445 0.264564
450 0.317855
455 0.250149
460 0.332621
465 0.432885
470 0.344894
475 0.344466
480 0.347808
485 0.290034
490 0.346689
495 0.236169
500 0.288279
505 0.283278
510 0.2985
515 0.301183
520 0.28216
525 0.410574
530 0.388746
535 0.373295
540 0.388783
545 0.511695
550 0.714268
555 10.1115
560 235.826
565 443.879
570 136.008
575 16.8548
580 2.40589
585 0.611835
590 0.551196
595 0.421095
600 0.047919
Ex : 573
200 0.285027
205 0.272395
210 0.407387
215 0.237859
220 0.21609
225 0.253579
230 0.181506
235 0.318341
240 0.210827
245 0.166458
250 0.194724
255 0.257327
260 0.334451
265 0.244581
270 0.357239
275 0.27415
280 0.268614
285 0.272792
290 0.294276
295 0.224914
300 0.216632
305 0.211289
310 0.269371
315 0.195281
320 0.267379
325 0.251088
330 0.339192
335 0.324331
340 0.38155
345 0.207832
350 0.285057
355 0.252733
360 0.315105
365 0.237026
370 0.246047
375 0.294562
380 0.271409
385 0.254059
390 0.290286
395 0.256203
400 0.245738
405 0.232417
410 0.371465
415 0.260181
420 0.31309
425 0.519819
430 0.264583
435 0.262412
440 0.272038
445 0.335652
450 0.333216
455 0.288852
460 0.334808
465 0.221234
470 0.303439
475 0.476489
480 0.336521
485 0.455357
490 0.34631
495 0.266544
500 0.236024
505 0.22093
510 0.220015
515 0.261646
520 0.2752
525 0.290055
530 0.363079
535 0.530242
540 0.442334
545 0.471261
550 0.52208
555 0.709627
560 8.93384
565 210.474
570 412.556
575 130.401
580 15.7616
585 2.24615
590 0.639271
595 0.424948
600 0.539362
Ex : 578
200 0.219295
205 0.212826
210 0.19675
215 0.247558
220 0.242737
225 0.272758
230 0.329456
235 0.374757
240 0.199835
245 0.242554
250 0.258862
255 0.212708
260 0.277089
265 0.209301
270 0.180917
275 0.193491
280 0.279829
285 0.241687
290 0.261397
295 0.256309
300 0.359763
305 0.278644
310 0.148458
315 0.17593
320 0.343985
325 0.409329
330 0.2076
335 0.297737
340 0.270311
345 0.239574
350 0.317413
355 0.275173
360 0.277891
365 0.341225
370 0.234459
375 0.22803
380 0.22079
385 0.233279
390 0.338648
395 0.219719
400 0.224782
405 0.199123
410 0.224564
415 0.306524
420 0.328228
425 0.347691
430 0.332545
435 0.375074
440 0.259005
445 0.305451
450 0.261923
455 0.370687
460 0.319554
465 0.337077
470 0.322537
475 0.261594
480 0.239136
485 0.318166
490 0.459901
495 0.284394
500 0.35283
505 0.31937
510 0.288619
515 0.308742
520 0.237758
525 0.328987
530 0.28998
535 0.300798
540 0.323008
545 0.356734
550 0.46185
555 0.486005
560 0.666338
565 7.76175
570 181.795
575 355.567
580 109.66
585 13.5028
590 2.02926
595 0.571204
600 0.364477
Ex : 583
200 0.170526
205 0.246373
210 0.211577
215 0.227791
220 0.208353
225 0.189143
230 0.229899
235 0.181989
240 0.309199
245 0.333971
250 0.262027
255 0.205181
260 0.303569
265 0.335184
270 0.272402
275 0.214653
280 0.30219
285 0.290802
290 0.212331
295 0.239184
300 0.33539
305 0.295607
310 0.276031
315 0.283636
320 0.22889
325 0.205165
330 0.234399
335 0.259599
340 0.216158
345 0.285532
350 0.246675
355 0.283724
360 0.275769
365 0.260512
370 0.339135
375 0.225997
380 0.283992
385 0.261778
390 0.222271
395 0.457212
400 0.21247
405 0.260882
410 0.267767
415 0.268878
420 0.280587
425 0.240093
430 0.285722
435 0.262259
440 0.256657
445 0.249773
450 0.263424
455 0.335878
460 0.269926
465 0.316476
470 0.253765
475 0.226603
480 0.306167
485 0.340376
490 0.346965
495 0.327198
500 0.373192
505 0.374567
510 0.21509
515 0.25846
520 0.280256
525 0.371225
530 0.307069
535 0.281876
540 0.360698
545 0.348857
550 0.242281
555 0.333834
560 0.380772
565 0.55935
570 6.56789
575 167.357
580 314.682
585 92.8626
590 11.3159
595 1.67217
600 0.271993
Ex : 588
200 0.202868
205 0.21766
210 0.223798
215 0.19121
220 0.295807
225 0.238278
230 0.226246
235 0.241897
240 0.232492
245 0.321078
250 0.210416
255 0.297986
260 0.212558
265 0.167135
270 0.17641
275 0.268768
280 0.211194
285 0.305686
290 0.338507
295 0.290103
300 0.289117
305 0.218061
310 0.285921
315 0.16771
320 0.24697
325 0.282597
330 0.236195
335 0.284996
340 0.237733
345 0.306066
350 0.209554
355 0.278712
360 0.207104
365 0.299452
370 0.205615
375 0.307549
380 0.2604
385 0.390388
390 0.24991
395 0.247728
400 0.341272
405 0.386391
410 0.251546
415 0.294611
420 0.240068
425 0.403478
430 0.268018
435 0.257586
440 0.362678
445 0.337139
450 0.217736
455 0.289164
460 0.364371
465 0.347462
470 0.419095
475 0.270725
480 0.211345
485 0.293093
490 0.339439
495 0.319805
500 0.295213
505 0.250681
510 0.211588
515 0.291655
520 0.326817
525 0.315743
530 0.313571
535 0.29933
540 0.241346
545 0.283906
550 0.471249
555 0.352884
560 0.528495
565 0.352572
570 0.373369
575 6.07849
580 134.475
585 262.042
590 79.8695
595 9.78854
600 1.3586
Ex : 593
200 0.239839
205 0.178216
210 0.314813
215 0.215755
220 0.221613
225 0.205944
230 0.296367
235 0.264816
240 0.280153
245 0.295144
250 0.218246
255 0.247327
260 0.355113
265 0.251241
270 0.213561
275 0.250268
280 0.322631
285 0.358174
290 0.310409
295 0.259284
300 0.214812
305 0.356873
310 0.339274
315 0.271108
320 0.265425
325 0.223929
330 0.302791
335 0.247992
340 0.316918
345 0.326561
350 0.248456
355 0.204631
360 0.266301
365 0.2777
370 0.231801
375 0.293703
380 0.258229
385 0.348589
390 0.250879
395 0.240248
400 0.287238
405 0.207785
410 0.325598
415 0.396874
420 0.315216
425 0.262498
430 0.313628
435 0.295484
440 0.317184
445 0.378952
450 0.351799
455 0.340441
460 0.349059
465 0.269092
470 0.307428
475 0.313449
480 0.578637
485 0.37288
490 0.284361
495 0.210087
500 0.212107
505 0.404986
510 0.242564
515 0.315113
520 0.387158
525 0.363971
530 0.31139
535 0.271006
540 0.359642
545 0.434051
550 0.292748
555 0.38685
560 0.41451
565 0.3643
570 0.368399
575 0.424775
580 5.2582
585 119.95
590 227.945
595 68.0063
600 9.2045
Ex : 598
200 0.263724
205 0.255808
210 0.329527
215 0.195553
220 0.353128
225 0.266388
230 0.291226
235 0.233454
240 0.227681
245 0.239366
250 0.233269
255 0.271974
260 0.279631
265 0.281499
270 0.207559
275 0.197137
280 0.23628
285 0.288469
290 0.294095
295 0.262749
300 0.27681
305 0.234306
310 0.253069
315 0.215991
320 0.218057
325 0.323303
330 0.240729
335 0.280376
340 0.368824
345 0.237123
350 0.312994
355 0.222555
360 0.298697
365 0.386173
370 0.303213
375 0.184856
380 0.188396
385 0.249773
390 0.318341
395 0.275491
400 0.410761
405 0.318267
410 0.276256
415 0.412019
420 0.268523
425 0.296009
430 0.410347
435 0.371219
440 0.339472
445 0.369036
450 0.323232
455 0.327587
460 0.385248
465 0.253851
470 0.332211
475 0.400156
480 0.351437
485 0.242324
490 0.27087
495 0.356745
500 0.355946
505 0.313747
510 0.212535
515 0.292841
520 0.324913
525 0.369386
530 0.270069
535 0.224782
540 0.293804
545 0.348874
550 0.324941
555 0.281741
560 0.370128
565 0.493423
570 0.434752
575 0.359696
580 0.442331
585 4.99568
590 107.328
595 200.943
600 136.699
Ex : 603
200 0.376974
205 0.274267
210 0.310224
215 0.173638
220 0.211289
225 0.299011
230 0.376032
235 0.300122
240 0.327604
245 0.262393
250 0.248867
255 0.324614
260 0.361533
265 0.228962
270 0.307883
275 0.311764
280 0.267907
285 0.406783
290 0.207937
295 0.270157
300 0.330428
305 0.259821
310 0.368854
315 0.234705
320 0.201566
325 0.340811
330 0.234361
335 0.271782
340 0.302167
345 0.240923
350 0.309374
355 0.309355
360 0.372255
365 0.246403
370 0.307026
375 0.234952
380 0.256025
385 0.41655
390 0.244138
395 0.280093
400 0.392327
405 0.440199
410 0.379295
415 0.267073
420 0.290034
425 0.350226
430 0.29969
435 0.461297
440 0.387018
445 0.311346
450 0.382406
455 0.301082
460 0.399243
465 0.335365
470 0.265902
475 0.316888
480 0.287946
485 0.367531
490 0.315462
495 0.317751
500 0.3012
505 0.30058
510 0.244654
515 0.315982
520 0.279358
525 0.38249
530 0.447702
535 0.442228
540 0.238258
545 0.223929
550 0.279089
555 0.31654
560 0.274717
565 0.318607
570 0.434227
575 0.211251
580 0.449831
585 0.564198
590 4.10404
595 88.7715
600 184.572
