File format V 1.0
ven. 13. janv. 04:30:56 2017
Operator : 
Comments : 

=============================================
SpectroFluorometer parameters
Mode : 3D measurement
Data : Fluorescence
Phospho. : Ordinary
Spectrum : Fluorescence

Scan speed : 2400 nm/mn
Response : 100 ms
PM Voltage : 700 V
Shutter : On

Lambda Ex. Start : 203
Lambda Ex. End : 603
Lambda Ex. Step : 5
Ex. Slit : 5 nm

Lambda Em. Start : 200
Lambda Em. End : 600
Lambda Em. Step : 5
Em. Slit : 5 nm

Repetition : 1
Decal lambda em : 10
=============================================
DATA
Ex : 203
200 10.4502
205 5.18354
210 3.81281
215 8.56438
220 6.55171
225 4.76225
230 6.01529
235 4.0872
240 3.91054
245 4.6642
250 5.34832
255 4.5248
260 9.75424
265 5.89382
270 11.4528
275 5.24979
280 5.93553
285 5.4523
290 4.68813
295 6.05554
300 6.04342
305 5.69818
310 7.07887
315 7.34951
320 5.88186
325 4.15333
330 7.18913
335 4.88134
340 4.10443
345 5.62034
350 6.37919
355 5.34833
360 6.31782
365 8.94798
370 5.67185
375 9.27971
380 6.55367
385 7.03089
390 3.9492
395 5.67356
400 6.07826
405 5.10558
410 6.13913
415 4.01351
420 7.88791
425 6.16907
430 4.82882
435 5.94615
440 9.07886
445 6.8441
450 10.108
455 5.35437
460 6.73255
465 5.72216
470 10.0119
475 5.8966
480 4.82509
485 6.23737
490 4.33634
495 7.02478
500 6.88102
505 7.53747
510 6.05623
515 6.6657
520 6.18958
525 7.52194
530 4.48853
535 5.28264
540 7.53813
545 5.90649
550 5.60534
555 7.47549
560 5.81514
565 6.43247
570 5.3623
575 7.87626
580 6.44434
585 7.08726
590 7.56697
595 6.10948
600 0.695236
Ex : 208
200 6.52174
205 8.16411
210 6.70675
215 5.58144
220 5.92729
225 6.10768
230 4.69751
235 5.48181
240 3.85585
245 9.27041
250 5.469
255 4.59323
260 7.13412
265 6.01256
270 7.02164
275 4.88756
280 5.27221
285 6.52806
290 5.67847
295 4.03908
300 5.73923
305 8.77872
310 10.2232
315 7.59479
320 7.43625
325 7.22089
330 7.18465
335 8.05939
340 5.73345
345 5.34933
350 5.45387
355 7.05117
360 7.85874
365 7.47265
370 5.03662
375 3.40561
380 5.59557
385 8.48852
390 5.08346
395 7.8604
400 6.30239
405 5.4535
410 6.67845
415 6.40543
420 5.54765
425 5.35501
430 12.2046
435 7.56718
440 6.5389
445 6.29929
450 6.39896
455 7.044
460 9.16254
465 7.16005
470 7.02694
475 5.42571
480 6.50522
485 6.95679
490 8.31797
495 7.33391
500 7.94092
505 6.43207
510 6.32881
515 6.77384
520 5.87487
525 5.24512
530 6.12187
535 7.31561
540 6.25099
545 7.69019
550 6.8062
555 6.56322
560 7.03892
565 6.25931
570 6.88752
575 6.01362
580 4.24186
585 5.77565
590 5.61911
595 6.10722
600 13.1018
Ex : 213
200 4.74009
205 5.72391
210 6.96966
215 3.73583
220 4.38124
225 6.44818
230 8.02758
235 5.67034
240 6.83212
245 5.83839
250 5.04691
255 5.33984
260 6.55726
265 5.88096
270 4.38726
275 5.31122
280 3.46041
285 5.43709
290 5.85726
295 8.72491
300 6.52277
305 7.40423
310 5.01391
315 7.20225
320 5.2679
325 8.95828
330 5.96219
335 4.12386
340 5.14647
345 7.78097
350 7.84003
355 6.20939
360 6.13071
365 9.10229
370 8.383
375 6.01857
380 5.46778
385 4.29126
390 5.81387
395 3.9308
400 6.32693
405 6.32096
410 8.17166
415 6.218
420 5.5505
425 5.64383
430 5.06487
435 4.63311
440 6.86832
445 6.23667
450 5.31305
455 4.22185
460 5.68739
465 4.06657
470 7.60914
475 5.73587
480 11.1785
485 9.58183
490 5.24839
495 4.16951
500 3.97174
505 5.86159
510 5.54525
515 5.93985
520 5.45644
525 6.08799
530 5.81698
535 6.01125
540 5.05888
545 6.55313
550 4.52658
555 7.83556
560 7.31565
565 7.03592
570 6.11788
575 4.45143
580 6.02696
585 6.45638
590 5.27598
595 5.24427
600 14.0671
Ex : 218
200 5.3301
205 6.06045
210 4.41877
215 7.43453
220 8.07925
225 5.34634
230 6.48108
235 4.58583
240 6.47146
245 6.84789
250 8.97665
255 7.15709
260 5.67649
265 5.6821
270 3.71959
275 4.80437
280 5.63921
285 6.2223
290 7.15789
295 6.57705
300 9.22498
305 6.8792
310 5.59253
315 10.2412
320 6.66857
325 8.78347
330 7.91763
335 6.71802
340 6.08171
345 8.62149
350 6.29832
355 6.83113
360 7.68219
365 5.67277
370 8.84081
375 5.12936
380 8.73078
385 4.64652
390 7.7524
395 9.53804
400 6.08581
405 7.48015
410 4.67397
415 5.53141
420 4.37753
425 5.75971
430 6.79402
435 6.19164
440 10.7118
445 6.18087
450 4.8677
455 6.17674
460 6.27959
465 8.28407
470 4.63313
475 7.15246
480 5.53307
485 9.99297
490 8.15625
495 7.51198
500 7.06658
505 6.16949
510 8.61374
515 6.17954
520 8.43659
525 5.17482
530 5.04609
535 4.91456
540 4.6028
545 4.85079
550 10.3418
555 8.57729
560 5.12745
565 5.04159
570 4.76012
575 5.90765
580 6.06618
585 3.67155
590 3.3491
595 4.20182
600 7.39054
Ex : 223
200 8.44828
205 5.38009
210 5.91748
215 6.85286
220 3.7863
225 10.383
230 5.44356
235 7.14553
240 6.59723
245 6.261
250 5.75027
255 5.01812
260 9.09589
265 10.9817
270 6.31026
275 4.88365
280 6.26203
285 4.52583
290 7.38821
295 6.64023
300 3.23962
305 7.04712
310 8.30215
315 7.43526
320 8.33556
325 6.42096
330 5.11106
335 5.23829
340 6.43438
345 8.00547
350 8.49431
355 7.17829
360 7.79416
365 5.47173
370 6.56989
375 5.04005
380 4.56145
385 7.44797
390 5.64982
395 7.14309
400 5.66893
405 7.9386
410 5.35722
415 6.37998
420 5.63639
425 5.56802
430 9.56809
435 8.18243
440 7.93057
445 6.47289
450 4.97206
455 5.61157
460 7.14282
465 4.28475
470 7.21433
475 10.1405
480 9.02553
485 8.27189
490 8.71929
495 5.91651
500 4.34061
505 5.4446
510 3.79713
515 4.59914
520 10.1018
525 8.02994
530 5.18512
535 5.57084
540 3.92434
545 5.02327
550 6.05599
555 5.94192
560 4.46848
565 6.36706
570 4.47356
575 7.6068
580 3.77155
585 4.57861
590 6.53198
595 4.93001
600 0.561016
Ex : 228
200 4.75771
205 6.17165
210 7.90321
215 5.87151
220 4.22852
225 6.30537
230 4.39566
235 6.0659
240 4.20227
245 4.03817
250 5.01715
255 4.64233
260 7.19876
265 5.35751
270 5.15678
275 4.85491
280 5.78226
285 6.0834
290 6.80866
295 7.02704
300 3.0959
305 6.02849
310 5.22308
315 5.61112
320 5.70255
325 8.52764
330 7.55964
335 6.08608
340 5.1508
345 6.39484
350 6.65005
355 3.95778
360 6.59022
365 9.22886
370 6.91641
375 5.54417
380 5.58988
385 6.46281
390 6.49387
395 5.25476
400 4.96938
405 4.03925
410 5.06791
415 7.56409
420 7.04793
425 2.90074
430 5.09545
435 6.20984
440 4.83395
445 7.6951
450 5.78672
455 8.15595
460 8.31986
465 6.70709
470 5.85992
475 6.72129
480 4.25847
485 6.17599
490 7.13079
495 5.54053
500 5.809
505 8.06162
510 4.7998
515 9.84383
520 4.5173
525 6.09371
530 6.28832
535 5.42137
540 4.81064
545 6.61716
550 8.54098
555 6.11523
560 5.90186
565 6.66903
570 3.99158
575 4.48101
580 10.3679
585 4.31473
590 5.59178
595 5.69924
600 0.648552
Ex : 233
200 3.984
205 5.64771
210 5.33005
215 4.93373
220 5.37548
225 5.60736
230 4.34207
235 3.49577
240 6.13579
245 4.50742
250 3.84834
255 9.16921
260 5.22704
265 6.34238
270 5.13406
275 8.01558
280 4.18544
285 4.48752
290 4.79646
295 7.38866
300 5.58985
305 5.19855
310 6.31094
315 7.09883
320 5.31909
325 7.14899
330 5.42564
335 3.58379
340 5.40721
345 4.98775
350 5.49137
355 9.86453
360 7.14724
365 3.73708
370 7.21826
375 4.34713
380 4.83671
385 7.30401
390 6.16958
395 8.41574
400 7.92964
405 6.40576
410 5.04299
415 4.60685
420 5.42764
425 5.9385
430 4.18304
435 9.73877
440 4.33871
445 5.54698
450 5.85324
455 5.27589
460 6.62809
465 6.71982
470 7.78285
475 5.47915
480 4.84825
485 6.29507
490 7.74373
495 9.85735
500 4.79261
505 8.26747
510 3.75221
515 6.16418
520 4.81838
525 5.08115
530 8.11095
535 8.17034
540 7.91727
545 7.36082
550 4.40363
555 5.18906
560 5.05355
565 5.11499
570 9.30474
575 6.20032
580 4.73309
585 4.49447
590 4.35804
595 6.14735
600 0.699546
Ex : 238
200 3.01619
205 4.05913
210 4.83776
215 4.55326
220 4.32216
225 4.71252
230 4.12198
235 3.27083
240 7.60667
245 8.49774
250 5.17481
255 5.1659
260 5.05158
265 4.61859
270 4.86937
275 3.86944
280 2.90715
285 5.11987
290 4.0368
295 3.93549
300 5.0254
305 6.51338
310 5.78169
315 6.1484
320 6.06053
325 5.0262
330 6.37225
335 5.48975
340 4.68677
345 5.44774
350 4.3078
355 6.00776
360 5.89387
365 4.94533
370 6.87954
375 8.41893
380 7.29806
385 7.08931
390 5.56702
395 6.6496
400 6.77536
405 5.13574
410 7.48363
415 7.99167
420 6.72906
425 4.9838
430 7.29125
435 4.11116
440 4.46898
445 4.64644
450 7.62544
455 6.06613
460 7.43492
465 4.71379
470 4.74754
475 3.71266
480 3.92415
485 5.13519
490 3.09125
495 3.3376
500 5.56481
505 4.91657
510 6.07552
515 4.57551
520 4.33637
525 3.65535
530 4.15567
535 6.67633
540 3.37471
545 4.44118
550 4.84347
555 5.51857
560 3.7805
565 6.76122
570 4.95172
575 4.29938
580 5.92717
585 3.7331
590 4.67587
595 6.32407
600 0.719655
Ex : 243
200 6.54983
205 5.12696
210 3.04193
215 6.38789
220 5.23203
225 6.63967
230 4.59271
235 6.50218
240 4.9937
245 4.50116
250 3.50548
255 5.03651
260 5.58995
265 5.7942
270 4.91314
275 4.79626
280 4.0533
285 3.44293
290 3.34783
295 3.79581
300 6.00789
305 5.48653
310 4.0225
315 3.61792
320 4.59939
325 6.55139
330 4.9143
335 5.60067
340 5.48034
345 7.73409
350 4.28562
355 4.72456
360 2.75771
365 5.07452
370 4.34066
375 4.39443
380 3.76645
385 4.19194
390 3.70208
395 6.04729
400 6.72616
405 4.36112
410 5.99322
415 5.01054
420 4.71895
425 5.94348
430 6.1547
435 4.34781
440 4.69894
445 3.68177
450 6.57809
455 5.99068
460 5.01929
465 5.33375
470 5.00311
475 4.0781
480 5.04487
485 3.36996
490 3.90706
495 3.51271
500 3.95686
505 6.69398
510 5.37317
515 5.01388
520 3.63978
525 4.79058
530 4.00802
535 4.71463
540 4.16678
545 7.05522
550 7.95579
555 5.71616
560 5.50773
565 6.53284
570 5.6326
575 4.81224
580 5.04215
585 4.7516
590 3.32759
595 2.57695
600 0.588649
Ex : 248
200 3.9912
205 4.18682
210 3.6746
215 3.79405
220 3.803
225 3.01641
230 3.89066
235 3.08801
240 4.97425
245 4.48012
250 2.58547
255 3.16904
260 5.93248
265 4.46328
270 3.81244
275 7.93072
280 5.64725
285 5.469
290 4.84591
295 3.70775
300 6.26198
305 3.64697
310 2.81568
315 3.2422
320 4.11506
325 4.68556
330 3.88677
335 2.45754
340 2.62256
345 4.64715
350 4.8047
355 6.99187
360 3.89868
365 4.95907
370 7.33821
375 5.85775
380 3.27149
385 2.97726
390 5.7387
395 4.84074
400 3.61707
405 3.98257
410 3.30559
415 3.79587
420 3.88893
425 3.17227
430 3.76602
435 5.56317
440 5.8639
445 4.1532
450 4.98779
455 5.35415
460 4.32918
465 4.26335
470 3.19448
475 3.08757
480 3.8364
485 3.86042
490 3.63962
495 4.4784
500 3.47253
505 3.89376
510 3.91788
515 5.13735
520 2.65993
525 3.65087
530 5.19651
535 3.54447
540 4.07752
545 3.7499
550 3.10873
555 3.61382
560 3.69237
565 4.92055
570 3.19516
575 3.98798
580 2.94387
585 3.49474
590 3.36711
595 3.07305
600 2.01133
Ex : 253
200 3.47607
205 4.33449
210 2.82513
215 4.58165
220 3.75463
225 4.06548
230 3.66167
235 3.48811
240 3.82254
245 3.95798
250 4.2298
255 4.29089
260 3.21613
265 3.14675
270 2.57702
275 3.74855
280 4.50084
285 3.59151
290 2.70887
295 2.00887
300 3.32492
305 1.76039
310 1.63566
315 3.47352
320 2.1767
325 2.26342
330 3.51621
335 2.68968
340 3.02063
345 3.55536
350 3.72275
355 3.35032
360 4.04273
365 3.66537
370 1.9702
375 1.84475
380 3.40377
385 3.62863
390 3.93993
395 4.47069
400 2.87818
405 4.1195
410 3.21646
415 5.15607
420 3.91726
425 3.05464
430 4.3298
435 3.76712
440 4.07295
445 3.19027
450 4.62471
455 3.90731
460 3.80687
465 3.91279
470 3.88739
475 3.68068
480 4.18293
485 3.70724
490 3.60374
495 4.29368
500 3.4124
505 4.77864
510 3.04351
515 2.3453
520 3.96904
525 3.64792
530 4.10462
535 2.42403
540 3.31774
545 3.89793
550 2.75963
555 3.14273
560 5.20309
565 2.87474
570 3.75896
575 2.67012
580 3.58171
585 2.80279
590 2.23531
595 3.39406
600 1.27244
Ex : 258
200 4.10484
205 2.66025
210 2.40493
215 3.09406
220 2.3127
225 2.15788
230 2.89316
235 3.52695
240 4.68345
245 3.4589
250 2.95275
255 3.18609
260 4.04165
265 3.03781
270 1.6109
275 2.11685
280 2.02609
285 4.05874
290 2.49471
295 2.3505
300 2.38228
305 2.40352
310 2.60024
315 1.96682
320 2.82238
325 2.29071
330 2.06072
335 2.6775
340 3.29381
345 5.38702
350 2.89726
355 2.51957
360 2.87224
365 4.07381
370 3.17163
375 2.57829
380 2.65356
385 3.10012
390 2.30568
395 2.85031
400 3.03251
405 3.00914
410 3.36626
415 4.11959
420 2.77513
425 3.13385
430 4.27789
435 2.97108
440 2.1896
445 3.73262
450 3.3274
455 2.64585
460 3.31202
465 2.6189
470 2.78862
475 3.40377
480 2.36567
485 2.44694
490 2.88098
495 3.26749
500 1.96007
505 4.29302
510 4.78799
515 3.87387
520 2.48858
525 2.09892
530 2.62996
535 3.55113
540 2.70462
545 3.68078
550 2.73815
555 3.60739
560 2.50033
565 1.80703
570 3.70851
575 2.99545
580 2.40451
585 2.6321
590 2.90275
595 2.01301
600 3.62619
Ex : 263
200 2.1254
205 3.03097
210 2.46725
215 1.51298
220 2.268
225 1.98691
230 1.55758
235 2.53417
240 2.01497
245 2.15159
250 2.26207
255 1.70431
260 1.64841
265 1.77447
270 1.57282
275 1.61032
280 1.72492
285 1.7071
290 1.85881
295 1.83551
300 2.21382
305 1.90038
310 1.69894
315 2.45678
320 2.34835
325 2.12499
330 2.14621
335 2.08989
340 1.88342
345 2.28934
350 3.13095
355 2.24734
360 2.6237
365 2.41227
370 1.71062
375 1.7641
380 2.41772
385 2.3201
390 3.08428
395 1.32901
400 2.0393
405 2.99545
410 2.60432
415 4.03046
420 3.82449
425 2.33138
430 2.83078
435 1.74715
440 1.96692
445 1.90326
450 1.54076
455 2.37247
460 1.55533
465 2.29387
470 2.98463
475 2.97223
480 1.63895
485 1.93189
490 2.04421
495 2.26719
500 1.83443
505 3.03362
510 3.18985
515 2.65737
520 2.90643
525 2.12498
530 3.39163
535 2.57085
540 1.56897
545 2.04393
550 3.11921
555 2.11001
560 2.42381
565 2.90854
570 3.06247
575 2.05948
580 1.62246
585 2.35999
590 1.27785
595 2.46768
600 2.9985
Ex : 268
200 2.03613
205 1.46985
210 1.84427
215 1.56292
220 2.48757
225 1.4098
230 1.37464
235 1.02749
240 2.6592
245 2.38276
250 1.46306
255 2.25073
260 1.29099
265 2.16248
270 1.72001
275 1.54679
280 2.01757
285 1.56467
290 2.36729
295 1.92625
300 2.48087
305 1.30948
310 1.49392
315 2.10857
320 1.65811
325 1.8391
330 1.7985
335 1.60363
340 1.79714
345 1.99085
350 1.8684
355 1.7042
360 1.93411
365 2.55802
370 2.38221
375 2.17868
380 2.46003
385 1.67945
390 2.16341
395 2.47502
400 1.86506
405 1.96738
410 2.76065
415 2.41081
420 2.36317
425 2.42955
430 1.56735
435 1.93812
440 2.28254
445 1.54685
450 1.53317
455 2.21367
460 1.45552
465 2.11642
470 2.43743
475 1.61289
480 1.4954
485 1.99924
490 2.10174
495 2.43979
500 1.82451
505 1.82986
510 1.58075
515 1.65231
520 1.4699
525 2.403
530 1.92057
535 2.80553
540 1.45453
545 2.15718
550 1.88253
555 1.84507
560 1.84058
565 1.63453
570 2.34262
575 1.79213
580 1.78005
585 2.10011
590 1.63515
595 1.30341
600 0.521462
Ex : 273
200 1.56684
205 1.20283
210 1.31756
215 0.986236
220 1.46172
225 2.17196
230 1.22133
235 2.15376
240 0.940206
245 1.25564
250 2.25925
255 1.80934
260 1.59621
265 1.34765
270 1.48128
275 1.52383
280 1.6362
285 0.983777
290 1.25096
295 1.38875
300 1.53854
305 1.25204
310 1.81117
315 1.07928
320 1.16557
325 1.25994
330 2.25118
335 1.43467
340 1.06706
345 2.27848
350 1.98598
355 1.87394
360 1.72391
365 1.48182
370 1.55006
375 2.1623
380 1.28849
385 2.17755
390 1.68247
395 1.46937
400 2.03901
405 1.97588
410 1.97225
415 2.8077
420 2.01413
425 1.63298
430 1.34909
435 1.71377
440 2.05725
445 1.57684
450 2.02159
455 1.61747
460 1.75332
465 2.0208
470 1.52369
475 2.09043
480 1.41917
485 1.47398
490 1.65409
495 1.84533
500 2.04697
505 1.60973
510 1.26115
515 1.3016
520 1.43664
525 1.12432
530 1.87594
535 1.98121
540 2.05888
545 2.13085
550 2.35546
555 1.36994
560 1.16218
565 1.21446
570 1.56226
575 1.50615
580 1.10214
585 1.00056
590 1.77608
595 1.02281
600 2.27411
Ex : 278
200 1.07199
205 1.22282
210 1.2043
215 1.0341
220 1.26112
225 1.14906
230 1.29564
235 0.791741
240 0.8441
245 1.08261
250 0.700689
255 0.871319
260 1.4825
265 1.54089
270 1.15328
275 0.832977
280 1.04131
285 0.923299
290 1.33552
295 1.03427
300 0.671287
305 0.702127
310 1.58878
315 1.03072
320 1.08684
325 0.811917
330 0.93232
335 1.04937
340 1.57356
345 1.33136
350 1.0632
355 1.11289
360 1.39722
365 0.899167
370 1.49273
375 1.99612
380 1.50518
385 1.38828
390 1.5434
395 1.79729
400 1.87003
405 1.63941
410 1.32453
415 1.27834
420 1.77855
425 1.47751
430 2.06604
435 1.31188
440 1.28968
445 1.45905
450 1.0967
455 1.58823
460 0.909374
465 1.34933
470 1.42346
475 1.75032
480 1.47055
485 1.3235
490 1.25952
495 1.52578
500 1.281
505 1.33018
510 1.05366
515 1.35302
520 0.946402
525 1.2988
530 1.01076
535 1.5892
540 1.10096
545 1.32799
550 2.22332
555 1.3745
560 1.81987
565 1.05463
570 1.47321
575 1.40848
580 1.18674
585 0.828895
590 1.52577
595 1.01694
600 0.115724
Ex : 283
200 1.65882
205 1.12853
210 0.945958
215 0.783876
220 0.986865
225 0.7078
230 1.21967
235 0.939173
240 0.743371
245 0.848936
250 0.859743
255 0.885501
260 0.681317
265 0.838899
270 0.864058
275 1.13039
280 0.763365
285 0.675757
290 1.15402
295 0.836069
300 0.848415
305 1.02963
310 0.855032
315 1.04154
320 0.726426
325 1.12059
330 1.33018
335 1.00319
340 1.0055
345 1.47895
350 1.38239
355 0.87447
360 1.21788
365 1.03708
370 1.21338
375 0.994954
380 1.25116
385 1.07704
390 1.13491
395 1.68162
400 1.32341
405 1.30089
410 1.37202
415 2.01897
420 1.2627
425 1.08692
430 1.76348
435 1.1441
440 1.03618
445 1.39762
450 1.38674
455 1.20221
460 1.41539
465 1.76922
470 1.59449
475 1.39535
480 2.12253
485 0.992382
490 0.762469
495 1.37305
500 1.49127
505 0.806342
510 0.835047
515 0.708896
520 0.876642
525 1.01408
530 0.941106
535 0.953741
540 1.07705
545 1.04633
550 1.10572
555 1.02678
560 1.26904
565 1.49623
570 0.791692
575 1.5475
580 1.32419
585 0.643735
590 0.540866
595 0.697666
600 0.0793917
Ex : 288
200 0.766864
205 0.708467
210 0.826106
215 0.834819
220 0.944433
225 0.898174
230 0.68361
235 0.740454
240 0.737504
245 0.935817
250 0.572379
255 0.818515
260 0.600926
265 0.737459
270 0.929255
275 0.635657
280 0.655673
285 0.919849
290 0.730675
295 0.659584
300 0.649577
305 0.818883
310 0.59088
315 0.598535
320 1.19659
325 0.742069
330 0.995907
335 0.458113
340 1.13623
345 1.13671
350 1.09418
355 0.898607
360 0.868633
365 0.956464
370 1.03413
375 0.943948
380 0.869223
385 1.17805
390 1.07064
395 0.831335
400 1.0601
405 1.48148
410 1.52478
415 1.57374
420 1.40309
425 1.60203
430 0.952187
435 1.19361
440 1.00038
445 1.33096
450 1.16897
455 1.03407
460 1.4783
465 1.12528
470 1.36457
475 0.782188
480 1.01516
485 0.883458
490 0.900305
495 1.04652
500 1.16764
505 1.09533
510 0.912975
515 1.26265
520 0.569826
525 0.833136
530 1.20535
535 0.83495
540 0.841857
545 1.31639
550 0.80865
555 0.746762
560 0.638724
565 0.83328
570 1.25032
575 1.0519
580 1.02035
585 0.843528
590 0.653911
595 0.753252
600 0.0857172
Ex : 293
200 0.486336
205 0.616059
210 0.699465
215 0.669786
220 0.595451
225 0.589375
230 0.589865
235 0.967563
240 0.588272
245 0.491271
250 0.721126
255 0.556521
260 0.729117
265 0.691266
270 0.979841
275 0.822749
280 0.421917
285 0.585871
290 0.715101
295 0.553653
300 0.450804
305 0.488013
310 0.846884
315 0.495827
320 1.17687
325 0.757078
330 0.724634
335 0.832535
340 0.953107
345 1.09547
350 1.30201
355 0.834858
360 0.586481
365 1.3153
370 0.973882
375 0.899872
380 1.17183
385 1.32087
390 0.984038
395 0.945488
400 1.09726
405 0.892481
410 1.16827
415 1.07719
420 1.09297
425 0.880121
430 1.29884
435 1.23914
440 1.36301
445 1.328
450 0.749377
455 1.01694
460 0.98059
465 0.811365
470 0.798757
475 0.767066
480 0.968491
485 0.884559
490 0.628368
495 0.519343
500 1.00493
505 0.901644
510 1.26499
515 0.8356
520 0.573501
525 0.856761
530 0.67346
535 0.997416
540 0.629468
545 0.68124
550 0.655839
555 0.487159
560 0.948912
565 0.569376
570 1.02534
575 1.12424
580 1.05891
585 0.998112
590 0.821725
595 0.603042
600 0.162901
Ex : 298
200 0.491436
205 0.455676
210 0.450428
215 0.62856
220 0.663779
225 0.37869
230 0.586085
235 0.351772
240 0.799243
245 0.789303
250 0.433796
255 0.494448
260 0.837341
265 0.359287
270 0.608975
275 0.551568
280 0.358565
285 0.605506
290 0.585132
295 0.641431
300 0.578046
305 0.574841
310 0.426887
315 0.7
320 0.299631
325 0.881273
330 0.629105
335 0.579171
340 0.714792
345 0.693253
350 0.587775
355 0.597659
360 0.7612
365 0.810256
370 0.93289
375 0.851652
380 0.819808
385 1.3308
390 1.09078
395 1.17326
400 1.18509
405 0.736056
410 0.93799
415 1.14764
420 1.23825
425 0.99528
430 1.22386
435 0.883254
440 0.83433
445 1.00127
450 1.12608
455 1.09538
460 0.682056
465 0.735758
470 0.808802
475 0.621946
480 0.815677
485 0.761931
490 0.802424
495 0.646317
500 0.74457
505 0.688026
510 0.794504
515 0.707298
520 0.624572
525 0.589597
530 0.716161
535 0.653828
540 0.688142
545 0.598677
550 0.598513
555 0.60817
560 0.585733
565 0.703551
570 0.542052
575 0.455859
580 0.625094
585 0.722615
590 0.964057
595 0.852201
600 2.33855
Ex : 303
200 0.263379
205 0.454164
210 0.511284
215 0.579982
220 0.556131
225 0.431028
230 0.343418
235 0.578836
240 0.496672
245 0.604959
250 0.56776
255 0.83176
260 0.506505
265 0.645145
270 0.380414
275 0.449538
280 0.546004
285 0.330443
290 0.45724
295 0.694984
300 0.97656
305 0.500085
310 0.366719
315 0.537526
320 0.365556
325 0.421941
330 0.592895
335 0.334331
340 0.629989
345 0.694065
350 0.819812
355 0.592701
360 0.676324
365 0.679582
370 0.866966
375 0.610967
380 1.04404
385 0.697969
390 0.969385
395 0.954202
400 0.837692
405 1.00424
410 1.05933
415 0.704162
420 1.11113
425 0.683047
430 0.786139
435 0.81958
440 0.803727
445 1.06233
450 0.754434
455 0.98161
460 0.785616
465 0.652541
470 0.494109
475 0.827572
480 0.689118
485 0.817206
490 0.822024
495 0.580749
500 0.652208
505 0.985743
510 0.759297
515 0.487731
520 0.402784
525 0.610126
530 0.599911
535 0.406724
540 0.522708
545 0.723791
550 0.650576
555 0.700032
560 0.602435
565 0.567964
570 0.500554
575 0.512929
580 0.447334
585 0.729904
590 0.651472
595 0.760317
600 0.711222
Ex : 308
200 0.438384
205 0.303302
210 0.360374
215 0.366302
220 0.216573
225 0.415882
230 0.472148
235 0.538616
240 0.393581
245 0.457046
250 0.212782
255 0.331874
260 0.609043
265 0.399218
270 0.384679
275 0.341491
280 0.367039
285 0.502414
290 0.299028
295 0.386523
300 0.627228
305 0.846842
310 0.358611
315 0.251362
320 0.490629
325 0.730333
330 0.637823
335 0.715838
340 0.6911
345 0.838118
350 0.809136
355 0.587168
360 0.810558
365 0.793197
370 0.669658
375 0.826896
380 0.852883
385 0.879798
390 1.2541
395 0.955166
400 0.756328
405 0.842656
410 1.0176
415 0.971548
420 1.05929
425 0.982754
430 1.18137
435 0.789114
440 0.792485
445 0.810091
450 1.00958
455 1.05808
460 0.678765
465 0.775967
470 0.729776
475 0.783204
480 0.593205
485 0.792853
490 0.854151
495 0.824648
500 0.780236
505 0.732068
510 0.618059
515 0.617852
520 0.472445
525 0.644464
530 0.554672
535 0.604822
540 0.625448
545 0.799964
550 0.488711
555 0.400935
560 0.587511
565 0.479555
570 0.33671
575 0.418032
580 0.473213
585 0.334496
590 0.467784
595 0.301393
600 0.0342974
Ex : 313
200 0.454305
205 0.454685
210 0.358646
215 0.316197
220 0.40887
225 0.361482
230 0.508513
235 0.370181
240 0.470883
245 0.569165
250 0.579979
255 0.229602
260 0.338874
265 0.349023
270 0.444295
275 0.401249
280 0.675709
285 0.344019
290 0.432199
295 0.341326
300 0.378553
305 0.460068
310 0.766454
315 0.407135
320 0.439377
325 0.403061
330 0.514312
335 0.493615
340 0.741157
345 0.52638
350 0.848786
355 0.920787
360 0.926626
365 1.0798
370 1.19246
375 1.37775
380 1.48344
385 1.44853
390 1.64905
395 1.45359
400 2.03764
405 1.84141
410 1.94714
415 1.87727
420 2.01808
425 1.63554
430 1.71662
435 1.70785
440 1.78131
445 1.47707
450 1.36466
455 1.33812
460 1.59173
465 1.39516
470 1.11372
475 0.966578
480 0.863504
485 0.887518
490 1.07214
495 0.840577
500 0.744884
505 0.760406
510 0.831658
515 0.730752
520 0.523884
525 0.561877
530 0.584051
535 0.645914
540 0.470456
545 0.506759
550 0.540669
555 0.587231
560 0.40903
565 0.521005
570 0.409495
575 0.449804
580 0.349326
585 0.406285
590 0.617366
595 0.44536
600 1.37438
Ex : 318
200 0.35383
205 0.501725
210 0.376628
215 0.489961
220 0.392865
225 0.370423
230 0.369513
235 0.430648
240 0.373571
245 0.482541
250 0.330578
255 0.325947
260 0.369653
265 0.266713
270 0.460254
275 0.403031
280 0.244292
285 0.348461
290 0.29895
295 0.475706
300 0.532136
305 0.34021
310 0.635929
315 1.42776
320 0.900269
325 0.81655
330 0.969582
335 1.31779
340 1.51128
345 2.37056
350 3.32511
355 4.38646
360 5.67843
365 6.49513
370 8.27909
375 8.64575
380 10.3162
385 11.5003
390 12.3874
395 12.7817
400 13.4094
405 13.4412
410 13.4068
415 13.5411
420 13.016
425 12.3436
430 11.8914
435 11.511
440 11.0348
445 11.6128
450 10.166
455 9.69623
460 9.32154
465 7.96633
470 7.61201
475 6.92078
480 5.88774
485 5.70223
490 4.9949
495 4.78261
500 4.45052
505 3.51262
510 3.274
515 2.54366
520 2.66317
525 2.06333
530 1.77182
535 1.78556
540 1.77916
545 1.21115
550 1.18356
555 1.04804
560 1.10276
565 0.82005
570 0.717004
575 0.566563
580 0.458315
585 0.552837
590 0.511323
595 0.501406
600 0.808405
Ex : 323
200 0.267882
205 0.327851
210 0.242646
215 0.345256
220 0.227481
225 0.526393
230 0.352917
235 0.254477
240 0.226826
245 0.314805
250 0.264942
255 0.266596
260 0.205323
265 0.25453
270 0.339976
275 0.232164
280 0.270338
285 0.332387
290 0.238098
295 0.184758
300 0.22053
305 0.294828
310 0.374979
315 5.94965
320 23.117
325 9.56184
330 2.80653
335 3.62183
340 5.14999
345 6.74417
350 9.37591
355 13.1098
360 15.715
365 19.0702
370 22.4569
375 26.3043
380 29.122
385 31.6783
390 35.555
395 37.6903
400 38.8781
405 39.3177
410 40.8172
415 40.3028
420 39.3147
425 36.6457
430 35.8604
435 33.9145
440 32.4596
445 31.2733
450 29.3077
455 27.9486
460 25.6117
465 23.5194
470 22.5012
475 21.2991
480 19.0966
485 16.1343
490 15.8403
495 13.7372
500 13.0208
505 10.9424
510 9.70655
515 8.32327
520 7.08582
525 6.45345
530 5.51908
535 4.92291
540 4.73373
545 3.72331
550 3.51958
555 2.94664
560 2.37262
565 1.94115
570 1.65345
575 1.41967
580 1.11044
585 0.868035
590 0.693504
595 0.681704
600 0.217964
Ex : 328
200 0.356705
205 0.280397
210 0.229321
215 0.313407
220 0.382325
225 0.311604
230 0.275808
235 0.189033
240 0.272747
245 0.226507
250 0.286113
255 0.256233
260 0.430065
265 0.346597
270 0.276344
275 0.388687
280 0.43404
285 0.227163
290 0.309623
295 0.324969
300 0.389351
305 0.320307
310 0.325535
315 1.27415
320 44.8204
325 101.306
330 32.0486
335 7.05202
340 6.40067
345 6.86682
350 8.80501
355 13.0476
360 17.8419
365 19.5232
370 21.3203
375 24.7797
380 27.5885
385 30.8581
390 33.2442
395 35.3479
400 36.3745
405 36.797
410 36.5818
415 37.4765
420 36.5716
425 34.7336
430 33.1048
435 32.5778
440 31.2088
445 29.6649
450 28.4533
455 26.2782
460 24.6007
465 23.4337
470 21.4443
475 20.426
480 18.4732
485 16.441
490 14.7567
495 13.2459
500 12.6225
505 11.0879
510 9.39886
515 8.44722
520 8.05165
525 6.58976
530 5.83229
535 5.12438
540 4.39626
545 3.92286
550 3.5656
555 2.98911
560 2.46248
565 2.19044
570 1.98319
575 1.64323
580 1.45085
585 1.13487
590 0.823721
595 0.705957
600 0.259131
Ex : 333
200 0.187727
205 0.227321
210 0.354596
215 0.247629
220 0.260696
225 0.357801
230 0.370106
235 0.232739
240 0.300524
245 0.346189
250 0.255418
255 0.22577
260 0.220963
265 0.383613
270 0.291398
275 0.253597
280 0.175813
285 0.237381
290 0.264609
295 0.260607
300 0.248574
305 0.42406
310 0.296606
315 0.37727
320 6.147
325 114.814
330 194.347
335 51.306
340 9.23154
345 5.90874
350 5.75315
355 6.80776
360 9.26853
365 14.4625
370 14.8246
375 15.2944
380 15.4136
385 17.2633
390 18.071
395 18.8585
400 19.7127
405 20.8937
410 20.9719
415 21.3054
420 21.6174
425 20.6427
430 19.3978
435 19.0487
440 18.6078
445 17.7714
450 16.6051
455 16.3707
460 14.844
465 14.1485
470 12.9983
475 12.6152
480 11.8726
485 10.3419
490 9.5952
495 8.74139
500 8.37599
505 7.54478
510 6.71422
515 6.13201
520 5.20076
525 4.78672
530 4.09542
535 3.74561
540 3.26601
545 3.10178
550 2.55445
555 2.21369
560 2.13175
565 1.77969
570 1.56846
575 1.45795
580 0.987239
585 1.06337
590 0.776424
595 0.653507
600 0.967717
Ex : 338
200 0.284319
205 0.215046
210 0.315247
215 0.354098
220 0.244109
225 0.164022
230 0.23059
235 0.354614
240 0.199532
245 0.253614
250 0.375007
255 0.30487
260 0.231954
265 0.173265
270 0.174085
275 0.326772
280 0.150985
285 0.318133
290 0.220357
295 0.299586
300 0.251857
305 0.21738
310 0.208057
315 0.328842
320 0.347194
325 10.7987
330 165.573
335 248.248
340 61.9728
345 9.88392
350 4.48342
355 4.0399
360 4.15877
365 6.1291
370 10.391
375 11.1575
380 9.53956
385 9.3951
390 9.56752
395 10.2487
400 11.6766
405 12.1757
410 12.4003
415 13.0807
420 12.9723
425 12.5653
430 12.5817
435 12.8163
440 12.5704
445 12.1814
450 11.8883
455 11.4699
460 10.8213
465 10.1536
470 9.65202
475 9.25476
480 9.11391
485 8.19932
490 7.94561
495 7.09445
500 6.95422
505 6.07084
510 5.57293
515 5.20865
520 4.81634
525 4.28598
530 3.84789
535 3.25392
540 2.97156
545 2.71914
550 2.4455
555 2.03583
560 1.97159
565 1.59222
570 1.42868
575 1.18627
580 1.01023
585 0.827496
590 0.742528
595 0.679971
600 0.725497
Ex : 343
200 0.237594
205 0.265647
210 0.205701
215 0.154623
220 0.280819
225 0.335635
230 0.267165
235 0.244372
240 0.214408
245 0.190678
250 0.185082
255 0.191118
260 0.283825
265 0.218083
270 0.190333
275 0.262269
280 0.241943
285 0.189865
290 0.272832
295 0.156716
300 0.256112
305 0.229237
310 0.187318
315 0.257095
320 0.281399
325 0.478165
330 12.9387
335 191.993
340 277.594
345 67.2684
350 9.75669
355 3.73953
360 3.04485
365 2.6818
370 4.06894
375 7.69903
380 8.80593
385 7.57129
390 6.56227
395 6.65446
400 7.69551
405 8.84742
410 9.94012
415 10.6503
420 10.6784
425 11.4249
430 11.1667
435 11.5986
440 11.7747
445 11.3634
450 11.1976
455 10.7447
460 10.1659
465 10.0747
470 10.35
475 9.62133
480 9.54409
485 9.01963
490 8.06912
495 7.94473
500 7.14938
505 6.78824
510 6.09013
515 5.6635
520 4.78782
525 4.73257
530 4.10684
535 3.73094
540 3.18461
545 3.10503
550 2.7045
555 2.45087
560 2.07767
565 1.79093
570 1.56457
575 1.61563
580 1.22104
585 0.851673
590 0.868201
595 0.672157
600 0.243024
Ex : 348
200 0.26047
205 0.243122
210 0.248626
215 0.162911
220 0.268214
225 0.200324
230 0.258131
235 0.18638
240 0.196094
245 0.185877
250 0.208399
255 0.294127
260 0.191866
265 0.171323
270 0.238662
275 0.210335
280 0.191062
285 0.220699
290 0.224841
295 0.264154
300 0.275016
305 0.236612
310 0.269828
315 0.2685
320 0.274707
325 0.366853
330 0.528087
335 12.7825
340 191.856
345 286.061
350 73.195
355 10.2975
360 3.33981
365 2.70559
370 2.07118
375 2.93522
380 5.9235
385 8.64326
390 8.01998
395 7.39576
400 7.18134
405 8.36738
410 9.9703
415 11.0085
420 12.1766
425 11.8017
430 12.0095
435 12.2366
440 13.0249
445 13.0947
450 12.4279
455 11.9993
460 11.9674
465 11.7492
470 11.444
475 11.1194
480 10.9211
485 9.96841
490 9.43358
495 8.92359
500 8.51204
505 7.78866
510 6.92086
515 6.58517
520 5.91277
525 5.5204
530 4.66335
535 4.4159
540 3.80179
545 3.36513
550 3.48944
555 2.88942
560 2.39111
565 2.15849
570 1.84714
575 1.52629
580 1.08913
585 0.936064
590 0.795078
595 0.650295
600 0.0740011
Ex : 353
200 0.183329
205 0.160218
210 0.21401
215 0.315402
220 0.191483
225 0.263427
230 0.13965
235 0.144544
240 0.207327
245 0.226623
250 0.184948
255 0.24798
260 0.283029
265 0.155379
270 0.231072
275 0.229909
280 0.274905
285 0.251175
290 0.174112
295 0.261307
300 0.253465
305 0.224199
310 0.169956
315 0.194085
320 0.262277
325 0.258208
330 0.277784
335 0.500977
340 13.2803
345 199.895
350 288.627
355 72.3799
360 9.99564
365 3.09397
370 2.70667
375 2.4299
380 3.04313
385 5.53924
390 8.89051
395 8.98464
400 8.0875
405 8.50806
410 9.72205
415 11.5481
420 12.3997
425 11.7257
430 11.9527
435 13.0721
440 13.9458
445 13.7417
450 13.3966
455 12.9619
460 12.4225
465 12.7275
470 12.4599
475 12.6669
480 11.7057
485 11.4121
490 10.4683
495 9.55996
500 8.99298
505 8.59756
510 8.23359
515 7.5378
520 6.67077
525 5.9763
530 5.35176
535 4.79847
540 4.40241
545 4.03415
550 3.62952
555 3.38966
560 2.63908
565 2.34709
570 1.97388
575 1.80135
580 1.32561
585 1.01558
590 0.752558
595 0.724674
600 0.36605
Ex : 358
200 0.156317
205 0.199435
210 0.138463
215 0.160819
220 0.211521
225 0.151737
230 0.16896
235 0.194531
240 0.199017
245 0.225463
250 0.24572
255 0.224534
260 0.238037
265 0.238962
270 0.193801
275 0.19327
280 0.204238
285 0.203639
290 0.240451
295 0.281237
300 0.21194
305 0.236413
310 0.212372
315 0.223614
320 0.173997
325 0.376834
330 0.346812
335 0.328087
340 0.560718
345 12.4869
350 194.099
355 293.953
360 74.6328
365 10.1785
370 3.06871
375 3.06335
380 2.62127
385 3.00345
390 5.37318
395 9.4929
400 10.3316
405 9.34282
410 11.0349
415 11.707
420 12.3259
425 12.5299
430 12.8375
435 13.4044
440 14.282
445 14.4822
450 14.1898
455 13.4081
460 13.8717
465 13.3974
470 13.6578
475 13.0208
480 12.6204
485 12.0356
490 11.396
495 10.8356
500 10.6055
505 9.55335
510 8.73577
515 8.20324
520 7.31767
525 6.9568
530 6.00368
535 5.36125
540 4.71517
545 4.21166
550 4.33464
555 3.5338
560 2.96711
565 2.56151
570 2.14017
575 1.57961
580 1.36717
585 1.01665
590 0.804873
595 0.759067
600 0.827227
Ex : 363
200 0.233809
205 0.152483
210 0.176708
215 0.205503
220 0.182358
225 0.198077
230 0.137735
235 0.239844
240 0.183627
245 0.311424
250 0.19212
255 0.206103
260 0.217043
265 0.263641
270 0.222019
275 0.186095
280 0.226399
285 0.149569
290 0.169241
295 0.208888
300 0.172085
305 0.163937
310 0.212621
315 0.182666
320 0.233022
325 0.201792
330 0.21316
335 0.342045
340 0.424298
345 0.493233
350 11.3785
355 186.791
360 293.951
365 76.9354
370 10.3867
375 3.18243
380 2.78293
385 2.83801
390 3.77783
395 5.34062
400 9.28727
405 11.816
410 13.4278
415 14.1964
420 13.9371
425 13.6467
430 14.0868
435 15.4478
440 16.8455
445 16.7522
450 15.9006
455 15.5392
460 16.0683
465 15.9058
470 15.4416
475 15.2688
480 14.6672
485 14.1713
490 13.2704
495 12.4745
500 11.9877
505 11.1536
510 10.0208
515 9.38674
520 8.4628
525 7.23623
530 6.6674
535 6.08906
540 5.44931
545 5.0206
550 4.35126
555 3.97322
560 3.51903
565 2.94204
570 2.32981
575 2.13268
580 1.68831
585 1.19905
590 0.900292
595 0.61488
600 0.890692
Ex : 368
200 0.237838
205 0.136422
210 0.121841
215 0.247582
220 0.188131
225 0.217972
230 0.200025
235 0.219936
240 0.14527
245 0.175067
250 0.102044
255 0.235483
260 0.110553
265 0.158242
270 0.144072
275 0.117563
280 0.145322
285 0.150968
290 0.187775
295 0.169826
300 0.128351
305 0.117859
310 0.145855
315 0.16085
320 0.14557
325 0.186039
330 0.186882
335 0.221399
340 0.349822
345 0.448324
350 0.542531
355 10.0286
360 182.568
365 299.178
370 79.7964
375 10.8424
380 3.18545
385 3.28615
390 4.12761
395 4.68476
400 6.21589
405 10.0429
410 14.8779
415 15.8307
420 15.1518
425 13.8388
430 13.9969
435 15.3436
440 16.5899
445 16.7577
450 16.7925
455 16.2824
460 16.5151
465 16.2388
470 16.7757
475 16.3878
480 15.8949
485 15.2143
490 14.553
495 13.7627
500 13.2091
505 12.1498
510 11.2109
515 9.88923
520 9.15932
525 8.44458
530 7.68584
535 6.78966
540 6.20141
545 5.55482
550 4.98424
555 4.17162
560 3.71778
565 3.2844
570 2.78001
575 2.06712
580 1.68114
585 1.40511
590 1.08036
595 0.942556
600 0.540056
Ex : 373
200 0.119481
205 0.143828
210 0.113849
215 0.171163
220 0.161374
225 0.134117
230 0.21657
235 0.185865
240 0.151168
245 0.110045
250 0.121208
255 0.186478
260 0.180347
265 0.126953
270 0.194059
275 0.163526
280 0.122232
285 0.140033
290 0.206701
295 0.171036
300 0.162283
305 0.163584
310 0.144781
315 0.166151
320 0.12321
325 0.246759
330 0.170055
335 0.241785
340 0.272237
345 0.292772
350 0.342354
355 0.438318
360 11.5049
365 190.197
370 304.397
375 83.2299
380 11.4941
385 3.88281
390 4.46166
395 5.33838
400 5.72646
405 7.46035
410 11.8566
415 16.0795
420 15.3779
425 13.6929
430 13.4612
435 14.0849
440 15.2812
445 15.7663
450 15.0892
455 14.96
460 15.0068
465 15.559
470 16.0428
475 15.545
480 15.4788
485 14.9041
490 14.2501
495 13.3002
500 13.0724
505 12.3851
510 11.3399
515 10.5576
520 9.44757
525 8.50529
530 7.65485
535 7.09444
540 6.5221
545 5.96966
550 4.93619
555 4.5771
560 4.11424
565 3.30484
570 2.88055
575 2.3917
580 1.79536
585 1.28162
590 1.14193
595 1.01476
600 0.919696
Ex : 378
200 0.115813
205 0.176878
210 0.152308
215 0.138506
220 0.125089
225 0.146658
230 0.15313
235 0.163774
240 0.118026
245 0.116955
250 0.142847
255 0.149125
260 0.171658
265 0.132222
270 0.202721
275 0.196253
280 0.193671
285 0.149029
290 0.156333
295 0.148543
300 0.108438
305 0.142669
310 0.162352
315 0.134403
320 0.109352
325 0.185654
330 0.267431
335 0.20051
340 0.163285
345 0.254148
350 0.227568
355 0.301397
360 0.380859
365 10.6581
370 191.042
375 314.044
380 85.083
385 11.9941
390 4.34074
395 4.92166
400 5.74962
405 6.84691
410 9.55568
415 12.6526
420 15.2761
425 14.9277
430 14.215
435 14.5817
440 15.4164
445 15.5928
450 15.4214
455 15.0988
460 14.8853
465 15.6525
470 15.333
475 15.5817
480 15.4956
485 14.2089
490 14.0404
495 13.4507
500 12.9414
505 12.0467
510 10.9514
515 10.1781
520 9.2615
525 7.98156
530 7.24947
535 7.10817
540 6.07006
545 5.55389
550 4.7338
555 4.30807
560 3.66556
565 2.99186
570 2.55092
575 2.12946
580 1.7882
585 1.3718
590 1.03101
595 0.872574
600 1.59454
Ex : 383
200 0.19628
205 0.165504
210 0.124478
215 0.139299
220 0.178726
225 0.115582
230 0.197866
235 0.168616
240 0.183157
245 0.106971
250 0.209385
255 0.157567
260 0.246996
265 0.116477
270 0.122572
275 0.109162
280 0.148497
285 0.156114
290 0.148319
295 0.136545
300 0.128393
305 0.131437
310 0.183595
315 0.167159
320 0.123453
325 0.162459
330 0.217109
335 0.192702
340 0.195389
345 0.19646
350 0.227269
355 0.200029
360 0.36809
365 0.463355
370 10.1579
375 190.625
380 326.371
385 89.6148
390 13.0002
395 4.88261
400 5.20076
405 7.38675
410 9.96972
415 12.1958
420 12.9947
425 15.2081
430 16.2778
435 16.5458
440 17.2383
445 16.7951
450 16.5367
455 15.7647
460 15.409
465 16.1667
470 15.9715
475 16.3712
480 15.5255
485 15.1675
490 13.9902
495 13.6687
500 13.2972
505 12.0065
510 11.2608
515 10.198
520 9.41429
525 8.43326
530 7.57496
535 7.2221
540 6.15782
545 5.47713
550 5.03701
555 4.36143
560 3.90778
565 3.46953
570 2.64877
575 2.07199
580 1.71496
585 1.27297
590 1.05024
595 0.887881
600 0.788369
Ex : 388
200 0.128872
205 0.183201
210 0.21301
215 0.213657
220 0.13269
225 0.127593
230 0.164827
235 0.117026
240 0.150034
245 0.0902661
250 0.10598
255 0.132756
260 0.172676
265 0.1694
270 0.138702
275 0.138636
280 0.136513
285 0.110508
290 0.11617
295 0.141123
300 0.219905
305 0.176713
310 0.118621
315 0.120814
320 0.127515
325 0.173315
330 0.170791
335 0.143787
340 0.168152
345 0.198833
350 0.220818
355 0.259358
360 0.256665
365 0.309217
370 0.452433
375 11.4324
380 196.78
385 327.966
390 91.9768
395 14.1697
400 5.85554
405 7.14907
410 10.236
415 11.7661
420 12.0094
425 12.4311
430 14.4522
435 16.8458
440 17.4822
445 16.7796
450 15.4654
455 15.3656
460 15.5621
465 15.6406
470 16.1796
475 16.0699
480 15.3953
485 15.055
490 14.405
495 14.007
500 13.2912
505 12.3343
510 11.8577
515 10.6757
520 9.85647
525 8.8057
530 7.9599
535 7.35923
540 6.41589
545 5.68971
550 5.18232
555 4.27256
560 3.86477
565 3.49372
570 2.72058
575 2.2876
580 1.5581
585 1.40363
590 1.15099
595 0.89132
600 0.551244
Ex : 393
200 0.12318
205 0.132372
210 0.144138
215 0.112342
220 0.113404
225 0.176594
230 0.172727
235 0.157907
240 0.137194
245 0.134194
250 0.119098
255 0.122947
260 0.180551
265 0.0969429
270 0.133212
275 0.146519
280 0.126802
285 0.105393
290 0.123993
295 0.0946119
300 0.131887
305 0.192754
310 0.130042
315 0.091673
320 0.132096
325 0.202929
330 0.164641
335 0.167009
340 0.151955
345 0.155484
350 0.20991
355 0.203515
360 0.294991
365 0.273484
370 0.330269
375 0.519976
380 10.0525
385 197.235
390 340.058
395 94.9885
400 15.0076
405 7.35908
410 8.4608
415 10.6081
420 10.9296
425 10.35
430 10.9727
435 12.6061
440 15.932
445 15.7771
450 14.5452
455 14.0071
460 13.5709
465 14.0569
470 14.2985
475 14.5874
480 14.4871
485 14.006
490 14.0621
495 13.3554
500 12.9101
505 11.8878
510 11.1752
515 10.4263
520 9.4466
525 8.61658
530 7.90738
535 7.07793
540 6.50191
545 5.81356
550 5.07066
555 4.60531
560 3.92787
565 3.36563
570 2.73694
575 2.29493
580 1.85391
585 1.436
590 1.13814
595 0.797293
600 0.300369
Ex : 398
200 0.170682
205 0.102049
210 0.104332
215 0.11165
220 0.118609
225 0.133379
230 0.101908
235 0.146292
240 0.168677
245 0.171621
250 0.149824
255 0.145431
260 0.108633
265 0.11607
270 0.105373
275 0.119868
280 0.129335
285 0.154535
290 0.145665
295 0.114562
300 0.101434
305 0.123192
310 0.127584
315 0.150425
320 0.113308
325 0.185084
330 0.141093
335 0.167405
340 0.142781
345 0.140362
350 0.134306
355 0.210156
360 0.13395
365 0.182627
370 0.250228
375 0.343067
380 0.543947
385 10.29
390 204.778
395 352.164
400 96.5082
405 15.6851
410 8.16224
415 8.85867
420 9.41538
425 9.09589
430 9.03798
435 10.0927
440 12.2358
445 14.453
450 14.3153
455 13.4565
460 13.3162
465 13.2244
470 13.5989
475 13.6212
480 13.5224
485 13.3346
490 13.2861
495 13.2853
500 12.2951
505 11.8093
510 10.9433
515 10.2471
520 9.49349
525 8.46514
530 7.74988
535 7.12291
540 6.59979
545 5.67185
550 5.20852
555 4.61308
560 4.03553
565 3.38843
570 3.00801
575 2.3533
580 1.80598
585 1.40593
590 1.08094
595 0.940674
600 0.764939
Ex : 403
200 0.173201
205 0.0922944
210 0.0930399
215 0.130341
220 0.126052
225 0.130285
230 0.109646
235 0.0997841
240 0.180429
245 0.131978
250 0.12113
255 0.14991
260 0.148991
265 0.090176
270 0.106062
275 0.136126
280 0.0980553
285 0.134039
290 0.140909
295 0.101227
300 0.146413
305 0.119932
310 0.168527
315 0.133797
320 0.128787
325 0.115955
330 0.0989733
335 0.145503
340 0.144822
345 0.19432
350 0.146532
355 0.20684
360 0.216566
365 0.160384
370 0.188242
375 0.260245
380 0.395326
385 0.493862
390 12.0683
395 210.385
400 350.63
405 97.1691
410 17.0495
415 9.63681
420 8.73259
425 8.55604
430 8.97701
435 9.83478
440 10.9533
445 12.3071
450 13.4452
455 14.2294
460 13.8601
465 14.0421
470 13.6341
475 13.4859
480 13.1483
485 13.4115
490 13.2431
495 12.7913
500 12.6304
505 11.789
510 11.1264
515 10.337
520 9.32594
525 8.59541
530 7.8228
535 7.17253
540 6.59632
545 5.81323
550 5.29916
555 4.55185
560 4.09094
565 3.59123
570 2.88372
575 2.33997
580 1.73546
585 1.32987
590 1.16948
595 1.01578
600 1.26979
Ex : 408
200 0.167016
205 0.117457
210 0.127311
215 0.112071
220 0.100102
225 0.0914149
230 0.10674
235 0.136661
240 0.128312
245 0.0925776
250 0.10681
255 0.14511
260 0.0992951
265 0.209032
270 0.108318
275 0.117984
280 0.126063
285 0.162624
290 0.107524
295 0.104802
300 0.149114
305 0.132208
310 0.16353
315 0.120976
320 0.111753
325 0.114309
330 0.188093
335 0.138449
340 0.18692
345 0.144803
350 0.140761
355 0.133571
360 0.144574
365 0.183587
370 0.230217
375 0.245403
380 0.256383
385 0.278988
390 0.605497
395 11.7708
400 219.761
405 364.663
410 99.7002
415 18.1035
420 8.71153
425 7.49845
430 7.84956
435 9.16711
440 9.83629
445 10.4816
450 10.4671
455 12.4655
460 13.7103
465 13.3034
470 13.3845
475 13.5244
480 13.4386
485 12.7626
490 12.9312
495 12.2245
500 11.7625
505 11.2209
510 10.9176
515 9.67978
520 8.95745
525 8.70936
530 7.95263
535 6.96396
540 6.34447
545 5.83104
550 5.16837
555 4.83783
560 4.20068
565 3.48629
570 2.77957
575 2.25401
580 1.92608
585 1.50341
590 1.27957
595 0.942624
600 1.14344
Ex : 413
200 0.132053
205 0.146009
210 0.0987405
215 0.0971308
220 0.101486
225 0.0963745
230 0.143674
235 0.166708
240 0.178677
245 0.110324
250 0.224226
255 0.106177
260 0.0896342
265 0.101818
270 0.092804
275 0.0889677
280 0.114703
285 0.145318
290 0.108394
295 0.121362
300 0.117067
305 0.115902
310 0.139193
315 0.125875
320 0.117416
325 0.121039
330 0.100953
335 0.16058
340 0.135582
345 0.148281
350 0.106414
355 0.142848
360 0.172812
365 0.169919
370 0.20217
375 0.270456
380 0.229284
385 0.241238
390 0.402498
395 0.722221
400 13.1444
405 224.716
410 362.575
415 97.0667
420 15.5494
425 6.05402
430 5.59885
435 6.43934
440 6.92487
445 7.21422
450 7.86512
455 7.97298
460 9.7103
465 12.2069
470 12.0632
475 11.8661
480 11.6319
485 11.5443
490 11.254
495 10.9832
500 10.227
505 10.4149
510 9.92528
515 8.87002
520 8.68742
525 7.74344
530 7.4742
535 6.57682
540 5.91729
545 5.52779
550 4.91554
555 4.44625
560 4.007
565 3.31338
570 2.75777
575 2.23396
580 1.81108
585 1.32716
590 1.12435
595 0.85679
600 0.921042
Ex : 418
200 0.114993
205 0.0805779
210 0.105049
215 0.149919
220 0.128642
225 0.0980472
230 0.0692273
235 0.101602
240 0.154897
245 0.10326
250 0.101575
255 0.135243
260 0.126209
265 0.0969726
270 0.143857
275 0.183069
280 0.113189
285 0.100286
290 0.137242
295 0.110814
300 0.0880557
305 0.118723
310 0.13958
315 0.117078
320 0.109237
325 0.139624
330 0.110443
335 0.157007
340 0.114741
345 0.0869132
350 0.169564
355 0.126934
360 0.129565
365 0.118173
370 0.238416
375 0.204974
380 0.185973
385 0.197547
390 0.269405
395 0.476772
400 0.810418
405 12.3815
410 224.801
415 368.071
420 99.7419
425 13.9523
430 4.0743
435 3.41294
440 3.96992
445 4.19549
450 4.6439
455 4.99225
460 5.96476
465 7.39967
470 9.55841
475 10.3289
480 9.69852
485 9.59676
490 9.69977
495 9.63204
500 9.27147
505 9.13735
510 8.55399
515 7.99267
520 7.32208
525 7.21528
530 6.7731
535 5.98944
540 5.52068
545 5.0996
550 4.58488
555 4.20291
560 3.42446
565 3.03595
570 2.70703
575 2.13124
580 1.65899
585 1.33598
590 1.01153
595 0.893972
600 0.4727
Ex : 423
200 0.0998683
205 0.102376
210 0.0972059
215 0.0619299
220 0.0745578
225 0.11772
230 0.106978
235 0.125196
240 0.148436
245 0.133408
250 0.0861356
255 0.113512
260 0.17561
265 0.181232
270 0.14153
275 0.106605
280 0.12276
285 0.136505
290 0.182922
295 0.115694
300 0.0971709
305 0.149486
310 0.10804
315 0.0961811
320 0.141449
325 0.122352
330 0.113958
335 0.101914
340 0.124378
345 0.14006
350 0.134479
355 0.160153
360 0.154553
365 0.19141
370 0.192441
375 0.154114
380 0.179606
385 0.172843
390 0.227283
395 0.294415
400 0.347347
405 0.656389
410 12.8184
415 231.675
420 362.835
425 92.2218
430 12.3027
435 3.11521
440 2.36376
445 2.90005
450 3.53581
455 3.86201
460 4.49559
465 5.27817
470 6.39425
475 8.57454
480 9.76055
485 8.78153
490 8.96143
495 8.66268
500 8.23552
505 8.06333
510 7.7297
515 7.41988
520 6.99559
525 6.68582
530 6.09087
535 5.43606
540 4.94666
545 4.59668
550 4.19305
555 3.77659
560 3.23884
565 2.8165
570 2.50117
575 2.16584
580 1.64391
585 1.22393
590 1.02597
595 0.700616
600 0.475199
Ex : 428
200 0.14669
205 0.0677085
210 0.132154
215 0.122182
220 0.113945
225 0.100463
230 0.165133
235 0.186792
240 0.12441
245 0.131311
250 0.149003
255 0.137577
260 0.103497
265 0.107356
270 0.0925958
275 0.0949945
280 0.106287
285 0.101388
290 0.126868
295 0.134108
300 0.124045
305 0.137698
310 0.115571
315 0.145279
320 0.173772
325 0.0929384
330 0.115306
335 0.122344
340 0.155715
345 0.133382
350 0.181914
355 0.126014
360 0.125921
365 0.120205
370 0.183867
375 0.177267
380 0.178035
385 0.189037
390 0.196799
395 0.221013
400 0.239681
405 0.4077
410 0.611656
415 13.9783
420 238.358
425 379.894
430 99.1828
435 12.8779
440 2.98045
445 2.18105
450 2.74769
455 3.35703
460 3.93711
465 4.24104
470 5.21054
475 5.92835
480 7.4121
485 9.23817
490 8.326
495 8.20926
500 8.02057
505 7.30667
510 6.96285
515 6.55414
520 6.24594
525 5.93698
530 5.53046
535 5.17727
540 4.67098
545 4.12004
550 3.85172
555 3.42473
560 3.02184
565 2.68398
570 2.14007
575 1.87821
580 1.44426
585 1.04177
590 0.907836
595 0.808256
600 0.523262
Ex : 433
200 0.140773
205 0.134842
210 0.130942
215 0.132245
220 0.121157
225 0.108217
230 0.0985002
235 0.158399
240 0.124191
245 0.126657
250 0.0987897
255 0.152005
260 0.120614
265 0.159262
270 0.106367
275 0.115015
280 0.0926814
285 0.15916
290 0.132787
295 0.105323
300 0.101785
305 0.115405
310 0.152534
315 0.108909
320 0.139411
325 0.0952016
330 0.14093
335 0.125483
340 0.130861
345 0.19496
350 0.139433
355 0.177183
360 0.157595
365 0.132508
370 0.190289
375 0.21949
380 0.16028
385 0.23852
390 0.228151
395 0.207364
400 0.284421
405 0.350591
410 0.424553
415 0.527501
420 15.412
425 256.495
430 383.567
435 96.2724
440 12.5259
445 3.08371
450 2.38774
455 2.87416
460 3.81959
465 4.0329
470 4.5883
475 4.93092
480 5.40774
485 6.5555
490 8.25746
495 8.2235
500 7.31004
505 7.04478
510 6.47315
515 5.94859
520 5.54331
525 4.96729
530 5.01464
535 4.64073
540 4.12719
545 3.89366
550 3.49455
555 3.12548
560 2.93904
565 2.47755
570 2.06656
575 1.60989
580 1.42562
585 1.03578
590 0.798769
595 0.660431
600 0.274402
Ex : 438
200 0.137235
205 0.104956
210 0.133716
215 0.11858
220 0.140315
225 0.129666
230 0.132425
235 0.127713
240 0.139688
245 0.114967
250 0.128736
255 0.120952
260 0.1412
265 0.143893
270 0.142884
275 0.126762
280 0.0999881
285 0.105334
290 0.0988294
295 0.126113
300 0.135634
305 0.145765
310 0.0996426
315 0.0740647
320 0.127002
325 0.131933
330 0.116815
335 0.124271
340 0.0996773
345 0.140954
350 0.126076
355 0.140276
360 0.124973
365 0.151242
370 0.148508
375 0.13676
380 0.187555
385 0.21217
390 0.202645
395 0.156673
400 0.214058
405 0.225187
410 0.326936
415 0.357401
420 0.564491
425 14.7482
430 257.243
435 410.955
440 104.294
445 13.5646
450 3.40793
455 2.43855
460 3.02182
465 3.58007
470 3.93156
475 4.18614
480 4.52131
485 4.9264
490 5.54103
495 7.07901
500 7.10083
505 6.54268
510 6.0295
515 5.62144
520 5.12258
525 4.62552
530 4.39308
535 3.99312
540 3.60171
545 3.36764
550 3.06961
555 2.83885
560 2.59849
565 2.16255
570 1.81834
575 1.59866
580 1.24615
585 1.02526
590 0.695846
595 0.684112
600 0.710852
Ex : 443
200 0.108112
205 0.113286
210 0.10167
215 0.113368
220 0.155433
225 0.161625
230 0.173491
235 0.126425
240 0.115234
245 0.147707
250 0.116599
255 0.121594
260 0.158995
265 0.113974
270 0.0878562
275 0.127122
280 0.12227
285 0.104068
290 0.126872
295 0.0938182
300 0.158709
305 0.180898
310 0.134596
315 0.102598
320 0.15797
325 0.138861
330 0.167317
335 0.150361
340 0.114204
345 0.103822
350 0.166806
355 0.149694
360 0.154811
365 0.16801
370 0.15467
375 0.155866
380 0.105132
385 0.134425
390 0.210377
395 0.25361
400 0.219308
405 0.206182
410 0.235925
415 0.329936
420 0.329698
425 0.620785
430 17.3308
435 279.045
440 430.66
445 108.489
450 14.2277
455 3.63361
460 2.46117
465 3.11284
470 3.46348
475 3.48914
480 3.87869
485 3.96848
490 4.35301
495 4.59729
500 5.74824
505 6.69653
510 5.55974
515 4.94383
520 4.71142
525 4.45193
530 3.93804
535 3.64344
540 3.25012
545 2.95949
550 2.73704
555 2.55924
560 2.21604
565 2.08928
570 1.85814
575 1.41769
580 1.18939
585 0.914862
590 0.728575
595 0.639178
600 0.55264
Ex : 448
200 0.178371
205 0.153874
210 0.109957
215 0.12428
220 0.137961
225 0.173805
230 0.124488
235 0.133876
240 0.120192
245 0.0824278
250 0.0812152
255 0.100278
260 0.184312
265 0.141655
270 0.110991
275 0.132815
280 0.124693
285 0.117546
290 0.171941
295 0.123963
300 0.10911
305 0.0847754
310 0.111005
315 0.167712
320 0.140478
325 0.132277
330 0.168484
335 0.16717
340 0.122151
345 0.180201
350 0.100005
355 0.130076
360 0.136127
365 0.153512
370 0.162876
375 0.145885
380 0.184236
385 0.140615
390 0.186474
395 0.188171
400 0.198199
405 0.170694
410 0.259846
415 0.262539
420 0.321322
425 0.392113
430 0.496013
435 17.683
440 298.961
445 454.409
450 111.904
455 14.6633
460 3.74375
465 2.48831
470 2.86517
475 3.23526
480 3.52958
485 3.45409
490 3.46209
495 3.6223
500 3.76301
505 4.49045
510 5.5555
515 5.24191
520 4.18833
525 3.9558
530 3.67697
535 3.26903
540 2.88271
545 2.59632
550 2.39731
555 2.20905
560 1.95623
565 1.78197
570 1.52777
575 1.30011
580 0.978488
585 0.84732
590 0.624447
595 0.563253
600 0.306325
Ex : 453
200 0.127553
205 0.142129
210 0.111617
215 0.0980532
220 0.106516
225 0.135447
230 0.0881554
235 0.177649
240 0.140076
245 0.0912192
250 0.0859133
255 0.151895
260 0.121482
265 0.143605
270 0.122089
275 0.123959
280 0.107182
285 0.135766
290 0.104742
295 0.129932
300 0.105469
305 0.169417
310 0.109572
315 0.0886914
320 0.121899
325 0.121126
330 0.121734
335 0.147329
340 0.13715
345 0.139173
350 0.149455
355 0.132861
360 0.111296
365 0.180552
370 0.198055
375 0.162483
380 0.135944
385 0.133322
390 0.170671
395 0.163903
400 0.19245
405 0.202617
410 0.179976
415 0.262179
420 0.245812
425 0.275394
430 0.378217
435 0.650349
440 19.0152
445 329.82
450 481.074
455 113.174
460 14.8576
465 3.55011
470 2.21198
475 2.45414
480 2.84085
485 2.81688
490 2.85062
495 2.7299
500 2.8184
505 2.97559
510 3.32953
515 4.58647
520 4.6157
525 3.56945
530 3.30967
535 2.97699
540 2.60747
545 2.31089
550 2.2216
555 1.84313
560 1.82804
565 1.58298
570 1.24831
575 1.2116
580 0.921887
585 0.748211
590 0.641906
595 0.557199
600 0.548576
Ex : 458
200 0.105535
205 0.169673
210 0.10684
215 0.150523
220 0.147684
225 0.127131
230 0.125155
235 0.094393
240 0.108228
245 0.116727
250 0.142039
255 0.121806
260 0.216866
265 0.133542
270 0.105611
275 0.0936924
280 0.16629
285 0.134572
290 0.120554
295 0.107328
300 0.0936003
305 0.113436
310 0.107949
315 0.131658
320 0.156722
325 0.112331
330 0.124611
335 0.119634
340 0.118346
345 0.13913
350 0.124796
355 0.234313
360 0.143701
365 0.188562
370 0.16322
375 0.133908
380 0.171701
385 0.168048
390 0.185878
395 0.183842
400 0.136148
405 0.207244
410 0.171446
415 0.148319
420 0.157191
425 0.218014
430 0.261558
435 0.399796
440 0.659495
445 20.9792
450 339.047
455 494.406
460 120.583
465 15.4525
470 3.45071
475 2.06347
480 2.06396
485 2.41531
490 2.48592
495 2.44236
500 2.35945
505 2.38963
510 2.33109
515 2.57795
520 3.54016
525 4.1464
530 3.39279
535 3.08224
540 2.73503
545 2.38336
550 2.01998
555 1.75196
560 1.76458
565 1.59406
570 1.25652
575 1.06281
580 0.926897
585 0.683433
590 0.624113
595 0.436633
600 0.303713
Ex : 463
200 0.194135
205 0.171652
210 0.136747
215 0.162019
220 0.140229
225 0.12813
230 0.136161
235 0.0948639
240 0.108872
245 0.0779261
250 0.0867458
255 0.125172
260 0.133633
265 0.103814
270 0.096131
275 0.160697
280 0.120986
285 0.122538
290 0.105504
295 0.106799
300 0.13599
305 0.129839
310 0.154422
315 0.132641
320 0.141888
325 0.167438
330 0.133329
335 0.101285
340 0.185963
345 0.121481
350 0.134348
355 0.151992
360 0.118051
365 0.13701
370 0.107431
375 0.153052
380 0.141365
385 0.147492
390 0.12332
395 0.172029
400 0.149387
405 0.179951
410 0.152029
415 0.216508
420 0.197608
425 0.268293
430 0.278344
435 0.309336
440 0.38552
445 0.627319
450 20.773
455 358.54
460 544.231
465 131.939
470 16.6588
475 3.47838
480 1.80886
485 1.87468
490 2.13632
495 2.13256
500 2.0091
505 1.94852
510 2.04729
515 2.05334
520 2.15567
525 2.8266
530 3.78048
535 3.42901
540 2.58044
545 2.49077
550 2.1344
555 1.90747
560 1.51536
565 1.48339
570 1.20404
575 1.04436
580 0.915108
585 0.730034
590 0.552009
595 0.484019
600 0.455692
Ex : 468
200 0.0905417
205 0.157325
210 0.114923
215 0.127892
220 0.113169
225 0.0949438
230 0.126815
235 0.103046
240 0.12063
245 0.109861
250 0.126849
255 0.114172
260 0.14023
265 0.129647
270 0.117838
275 0.120825
280 0.124619
285 0.121998
290 0.124942
295 0.125723
300 0.13276
305 0.124431
310 0.080722
315 0.0964428
320 0.120663
325 0.127943
330 0.109674
335 0.099971
340 0.126364
345 0.104258
350 0.0944705
355 0.160236
360 0.141605
365 0.0924401
370 0.133788
375 0.111743
380 0.124429
385 0.140068
390 0.162139
395 0.170103
400 0.21986
405 0.132028
410 0.158674
415 0.167715
420 0.153634
425 0.193908
430 0.226984
435 0.199865
440 0.335842
445 0.434666
450 0.660658
455 23.7508
460 372.649
465 589.467
470 142.232
475 17.6801
480 3.33932
485 1.63501
490 1.49902
495 1.85877
500 2.0751
505 1.88762
510 1.84219
515 1.91628
520 1.7288
525 1.84342
530 2.24211
535 3.36392
540 3.58155
545 2.6148
550 2.39635
555 2.11189
560 1.7143
565 1.30706
570 1.18949
575 0.962175
580 0.827074
585 0.708216
590 0.62787
595 0.428184
600 0.283594
Ex : 473
200 0.151246
205 0.106749
210 0.0953134
215 0.135224
220 0.141883
225 0.160826
230 0.117078
235 0.195833
240 0.122572
245 0.120849
250 0.146987
255 0.122488
260 0.136104
265 0.147073
270 0.13685
275 0.0961817
280 0.123888
285 0.156825
290 0.0925936
295 0.0957251
300 0.159021
305 0.13499
310 0.0953159
315 0.10112
320 0.116371
325 0.141888
330 0.0904507
335 0.135166
340 0.186972
345 0.165246
350 0.100062
355 0.124476
360 0.12504
365 0.141303
370 0.175072
375 0.161917
380 0.125234
385 0.133629
390 0.175532
395 0.138094
400 0.131647
405 0.145904
410 0.139677
415 0.170519
420 0.1566
425 0.179172
430 0.193173
435 0.220914
440 0.287759
445 0.364581
450 0.423015
455 0.692621
460 27.1865
465 415.035
470 581.874
475 135.319
480 17.0685
485 3.37139
490 1.70256
495 1.53783
500 1.71797
505 1.79491
510 1.7797
515 1.71785
520 1.72471
525 1.74692
530 1.82449
535 2.14554
540 2.91027
545 3.33827
550 2.63294
555 2.17112
560 1.98081
565 1.74299
570 1.52139
575 1.10832
580 0.881551
585 0.795054
590 0.578706
595 0.571144
600 0.403687
Ex : 478
200 0.164803
205 0.141987
210 0.180095
215 0.156753
220 0.143513
225 0.160666
230 0.0985537
235 0.125494
240 0.163255
245 0.133157
250 0.118567
255 0.142135
260 0.0914533
265 0.178548
270 0.183556
275 0.175372
280 0.185058
285 0.128982
290 0.122986
295 0.152812
300 0.175977
305 0.138171
310 0.167501
315 0.187705
320 0.212688
325 0.152521
330 0.169048
335 0.18812
340 0.141312
345 0.135034
350 0.185196
355 0.181717
360 0.171785
365 0.179664
370 0.139594
375 0.151133
380 0.185295
385 0.171265
390 0.195096
395 0.175221
400 0.194639
405 0.219868
410 0.219008
415 0.161818
420 0.169437
425 0.154379
430 0.21366
435 0.22983
440 0.236789
445 0.232935
450 0.366926
455 0.486341
460 0.791621
465 30.6916
470 440.753
475 615.335
480 149.249
485 18.5366
490 3.50618
495 1.74687
500 1.4499
505 1.63807
510 1.81954
515 1.79489
520 1.70024
525 1.67587
530 1.75071
535 1.83166
540 1.94607
545 2.46444
550 3.26799
555 2.921
560 1.98508
565 1.89504
570 1.7105
575 1.23153
580 1.00868
585 0.809249
590 0.676374
595 0.630135
600 0.78067
Ex : 483
200 0.275814
205 0.16245
210 0.157788
215 0.123987
220 0.109955
225 0.203787
230 0.131251
235 0.133979
240 0.123559
245 0.120488
250 0.139343
255 0.10485
260 0.182838
265 0.174764
270 0.128173
275 0.108999
280 0.144143
285 0.126225
290 0.104908
295 0.105996
300 0.238647
305 0.151711
310 0.206417
315 0.186708
320 0.149345
325 0.13756
330 0.18793
335 0.118844
340 0.120956
345 0.106227
350 0.124008
355 0.15893
360 0.119182
365 0.159109
370 0.148309
375 0.17192
380 0.191397
385 0.202069
390 0.161675
395 0.158844
400 0.140308
405 0.171328
410 0.205682
415 0.186871
420 0.255464
425 0.251748
430 0.213087
435 0.219148
440 0.248625
445 0.241847
450 0.309183
455 0.373413
460 0.5051
465 0.951245
470 24.6369
475 456.269
480 689.2
485 163.862
490 20.2275
495 3.56424
500 1.76529
505 1.45203
510 1.48717
515 1.87673
520 1.67748
525 1.76418
530 1.72324
535 1.76319
540 1.92014
545 1.95478
550 2.31837
555 3.04763
560 3.02807
565 2.18849
570 1.74351
575 1.45896
580 1.11953
585 0.793008
590 0.610813
595 0.56284
600 0.568268
Ex : 488
200 0.190951
205 0.142091
210 0.157785
215 0.15499
220 0.14939
225 0.0994167
230 0.17615
235 0.125048
240 0.145468
245 0.178898
250 0.185018
255 0.147597
260 0.197901
265 0.13354
270 0.179805
275 0.220953
280 0.171533
285 0.216972
290 0.124962
295 0.149969
300 0.145921
305 0.226639
310 0.127785
315 0.162623
320 0.17282
325 0.161443
330 0.129414
335 0.234812
340 0.174163
345 0.208017
350 0.144837
355 0.139885
360 0.196497
365 0.149043
370 0.231429
375 0.166942
380 0.190547
385 0.188014
390 0.165862
395 0.204933
400 0.205148
405 0.161407
410 0.180825
415 0.190205
420 0.215351
425 0.190705
430 0.205785
435 0.211972
440 0.278772
445 0.264836
450 0.30669
455 0.341924
460 0.442372
465 0.628133
470 0.806883
475 31.4944
480 485.944
485 680.857
490 159.799
495 19.7144
500 3.60084
505 1.66739
510 1.43477
515 1.64689
520 1.85587
525 1.80862
530 1.77926
535 1.89613
540 1.97757
545 2.11371
550 2.06716
555 2.07955
560 2.55134
565 2.84171
570 2.21186
575 1.34929
580 1.24871
585 0.945735
590 0.780566
595 0.651629
600 0.453955
Ex : 493
200 0.143036
205 0.171389
210 0.19437
215 0.162198
220 0.247008
225 0.151984
230 0.129533
235 0.155561
240 0.154664
245 0.153865
250 0.186387
255 0.163988
260 0.126845
265 0.111765
270 0.195816
275 0.164362
280 0.155728
285 0.157915
290 0.145273
295 0.113593
300 0.135298
305 0.151785
310 0.17403
315 0.154821
320 0.182904
325 0.180575
330 0.137466
335 0.142255
340 0.147775
345 0.128285
350 0.129407
355 0.157348
360 0.161097
365 0.173144
370 0.166417
375 0.158349
380 0.170849
385 0.237465
390 0.218411
395 0.179064
400 0.153344
405 0.182689
410 0.212785
415 0.257839
420 0.182857
425 0.166092
430 0.139619
435 0.229268
440 0.242333
445 0.177058
450 0.220014
455 0.285874
460 0.383315
465 0.481802
470 0.607359
475 0.889859
480 28.4863
485 491.287
490 722.329
495 166.017
500 20.3939
505 3.714
510 1.7288
515 1.39959
520 1.62889
525 1.8811
530 2.10586
535 2.06917
540 2.10171
545 2.18829
550 2.05366
555 2.01702
560 1.94519
565 2.09835
570 2.39113
575 2.04643
580 1.33995
585 1.05008
590 0.840992
595 0.697818
600 0.567319
Ex : 498
200 0.184818
205 0.172166
210 0.164921
215 0.245479
220 0.235421
225 0.244972
230 0.187606
235 0.201793
240 0.169936
245 0.20379
250 0.174489
255 0.205885
260 0.194012
265 0.166643
270 0.14863
275 0.187599
280 0.142113
285 0.156836
290 0.146251
295 0.177344
300 0.231654
305 0.277847
310 0.164294
315 0.154681
320 0.253408
325 0.233925
330 0.176999
335 0.178651
340 0.198742
345 0.169742
350 0.185031
355 0.18354
360 0.153897
365 0.187738
370 0.240313
375 0.173318
380 0.193827
385 0.237159
390 0.220314
395 0.219087
400 0.324801
405 0.185578
410 0.195934
415 0.199573
420 0.172467
425 0.212306
430 0.244225
435 0.23443
440 0.256943
445 0.199486
450 0.317037
455 0.23842
460 0.404805
465 0.441009
470 0.488979
475 0.651582
480 0.987859
485 35.7291
490 545.352
495 744.302
500 170.651
505 20.9312
510 3.68623
515 1.75678
520 1.43196
525 1.55145
530 1.74082
535 2.06951
540 2.19554
545 2.18463
550 2.2666
555 2.10982
560 2.05344
565 1.76546
570 1.57836
575 1.73599
580 1.94679
585 1.17028
590 0.93899
595 0.685761
600 0.7289
Ex : 503
200 0.222901
205 0.21808
210 0.265299
215 0.196031
220 0.184006
225 0.137701
230 0.184069
235 0.188556
240 0.173906
245 0.226088
250 0.173351
255 0.173497
260 0.139503
265 0.160077
270 0.20815
275 0.188811
280 0.154015
285 0.227769
290 0.186687
295 0.181751
300 0.170186
305 0.285844
310 0.25914
315 0.150177
320 0.166773
325 0.190072
330 0.186045
335 0.189842
340 0.152143
345 0.157989
350 0.199137
355 0.184775
360 0.327682
365 0.2729
370 0.295154
375 0.200108
380 0.240334
385 0.193747
390 0.219075
395 0.201047
400 0.18809
405 0.206314
410 0.231815
415 0.226985
420 0.292378
425 0.18069
430 0.260388
435 0.201693
440 0.276488
445 0.33167
450 0.255711
455 0.306325
460 0.30428
465 0.31759
470 0.442345
475 0.498024
480 0.633071
485 1.0381
490 32.9749
495 538.635
500 768.392
505 175.66
510 21.7787
515 3.65111
520 1.95938
525 1.60922
530 1.75084
535 2.10962
540 2.49419
545 2.48192
550 2.31547
555 2.17056
560 2.03259
565 1.58525
570 1.36522
575 1.27454
580 1.41389
585 1.57395
590 1.04369
595 0.75089
600 0.932784
Ex : 508
200 0.168599
205 0.240543
210 0.215765
215 0.263612
220 0.235741
225 0.196389
230 0.227166
235 0.128808
240 0.174481
245 0.18518
250 0.190011
255 0.19896
260 0.208331
265 0.156189
270 0.143134
275 0.171323
280 0.274969
285 0.187508
290 0.183452
295 0.172587
300 0.254892
305 0.167988
310 0.189804
315 0.213547
320 0.160692
325 0.186799
330 0.20969
335 0.216393
340 0.254972
345 0.179134
350 0.210869
355 0.23566
360 0.185837
365 0.180602
370 0.182761
375 0.198252
380 0.21943
385 0.208293
390 0.262218
395 0.211697
400 0.233925
405 0.191081
410 0.296683
415 0.234735
420 0.199585
425 0.214339
430 0.271982
435 0.234837
440 0.216867
445 0.264895
450 0.271942
455 0.417791
460 0.325558
465 0.403829
470 0.3856
475 0.365906
480 0.516117
485 0.704171
490 1.01013
495 36.9747
500 542.382
505 760.609
510 185.804
515 22.9423
520 4.11071
525 2.06002
530 1.7337
535 2.14927
540 2.25364
545 2.54147
550 2.49793
555 2.36438
560 1.98709
565 2.02798
570 1.72684
575 1.21005
580 1.04221
585 0.956984
590 1.2096
595 0.963765
600 0.705846
Ex : 513
200 0.177502
205 0.217798
210 0.159124
215 0.195348
220 0.201223
225 0.196572
230 0.156432
235 0.234928
240 0.195847
245 0.203982
250 0.187073
255 0.210884
260 0.168556
265 0.164645
270 0.161833
275 0.157292
280 0.184261
285 0.306658
290 0.23151
295 0.220797
300 0.175531
305 0.214282
310 0.180073
315 0.17129
320 0.248925
325 0.297241
330 0.159452
335 0.188072
340 0.231526
345 0.219124
350 0.187029
355 0.185413
360 0.182317
365 0.233112
370 0.236234
375 0.199708
380 0.229045
385 0.215128
390 0.209801
395 0.267203
400 0.250366
405 0.211222
410 0.227058
415 0.226986
420 0.300693
425 0.241002
430 0.296032
435 0.215608
440 0.229405
445 0.189951
450 0.245254
455 0.286626
460 0.316478
465 0.31954
470 0.318228
475 0.37145
480 0.35914
485 0.490984
490 0.632237
495 0.813019
500 34.2233
505 560.53
510 804.411
515 195.788
520 24.0292
525 4.3779
530 2.41462
535 2.46046
540 2.51052
545 2.93815
550 2.89592
555 2.73106
560 2.39366
565 1.98638
570 1.55302
575 1.3823
580 1.01279
585 0.88868
590 0.765507
595 0.971026
600 2.24488
Ex : 518
200 0.178355
205 0.198991
210 0.197181
215 0.166372
220 0.201159
225 0.196205
230 0.205552
235 0.224912
240 0.186583
245 0.215083
250 0.166813
255 0.239203
260 0.267615
265 0.184009
270 0.178505
275 0.21701
280 0.197117
285 0.195819
290 0.244937
295 0.141813
300 0.250253
305 0.233758
310 0.219582
315 0.215736
320 0.167824
325 0.182147
330 0.161299
335 0.294969
340 0.262629
345 0.254591
350 0.210592
355 0.23304
360 0.182385
365 0.22366
370 0.190303
375 0.224595
380 0.202493
385 0.253868
390 0.265966
395 0.226506
400 0.280098
405 0.208422
410 0.217951
415 0.245638
420 0.243007
425 0.214884
430 0.190699
435 0.245424
440 0.305897
445 0.290961
450 0.22465
455 0.281039
460 0.33
465 0.308531
470 0.240587
475 0.359106
480 0.392964
485 0.468776
490 0.489025
495 0.622119
500 1.07487
505 35.4164
510 554.833
515 808.152
520 198.069
525 24.4602
530 4.98876
535 2.95287
540 2.94467
545 3.19004
550 3.48378
555 3.33527
560 2.87968
565 2.42842
570 2.34313
575 1.76803
580 1.24016
585 0.859533
590 0.883443
595 0.769694
600 1.14422
Ex : 523
200 0.134301
205 0.18705
210 0.237783
215 0.184165
220 0.244086
225 0.201046
230 0.204691
235 0.219668
240 0.186592
245 0.217429
250 0.259019
255 0.180312
260 0.185281
265 0.142387
270 0.192452
275 0.168179
280 0.252405
285 0.275071
290 0.195062
295 0.223038
300 0.186595
305 0.209417
310 0.190964
315 0.153726
320 0.134246
325 0.301903
330 0.262107
335 0.219863
340 0.244155
345 0.25243
350 0.266785
355 0.258432
360 0.256544
365 0.239519
370 0.222236
375 0.217733
380 0.260749
385 0.33045
390 0.214467
395 0.212149
400 0.259044
405 0.220374
410 0.266493
415 0.176386
420 0.229605
425 0.244845
430 0.241421
435 0.21105
440 0.221091
445 0.23771
450 0.351102
455 0.305973
460 0.285587
465 0.29185
470 0.288805
475 0.370791
480 0.42897
485 0.368604
490 0.438283
495 0.502927
500 0.662274
505 1.07511
510 31.3186
515 534.973
520 825.291
525 214.012
530 26.7784
535 5.6676
540 3.85393
545 3.86897
550 3.89132
555 3.58349
560 3.4839
565 2.95512
570 2.22901
575 1.91135
580 1.32397
585 1.1029
590 1.08961
595 0.665679
600 0.140914
Ex : 528
200 0.177028
205 0.181822
210 0.170788
215 0.252932
220 0.190835
225 0.286483
230 0.217395
235 0.255503
240 0.217032
245 0.238145
250 0.188169
255 0.176663
260 0.19669
265 0.197919
270 0.250552
275 0.166054
280 0.145512
285 0.174996
290 0.249554
295 0.174694
300 0.195377
305 0.239802
310 0.249466
315 0.196319
320 0.194487
325 0.238759
330 0.239605
335 0.187034
340 0.200958
345 0.256485
350 0.247493
355 0.24356
360 0.278647
365 0.195346
370 0.243483
375 0.220469
380 0.269177
385 0.267466
390 0.225669
395 0.361688
400 0.268872
405 0.238687
410 0.314796
415 0.246674
420 0.257815
425 0.207276
430 0.228155
435 0.230921
440 0.253125
445 0.263276
450 0.263126
455 0.304342
460 0.280163
465 0.342844
470 0.303831
475 0.260904
480 0.297368
485 0.314588
490 0.37589
495 0.372944
500 0.540388
505 0.720408
510 1.16474
515 31.2538
520 539.393
525 823.991
530 206.163
535 26.9297
540 6.77272
545 4.74958
550 4.54055
555 4.00383
560 3.54192
565 3.25283
570 2.34818
575 1.97276
580 1.48848
585 1.08696
590 1.04951
595 0.774876
600 0.956388
Ex : 533
200 0.196894
205 0.263167
210 0.214793
215 0.21966
220 0.290756
225 0.175068
230 0.181696
235 0.24531
240 0.189644
245 0.213618
250 0.271355
255 0.194065
260 0.237002
265 0.209515
270 0.17794
275 0.261574
280 0.295002
285 0.223935
290 0.182704
295 0.191223
300 0.194342
305 0.242966
310 0.222772
315 0.165583
320 0.207865
325 0.233037
330 0.195427
335 0.16316
340 0.371745
345 0.300643
350 0.269927
355 0.143062
360 0.244312
365 0.181331
370 0.205916
375 0.270656
380 0.28673
385 0.16839
390 0.268102
395 0.232163
400 0.336114
405 0.272401
410 0.223588
415 0.263921
420 0.146865
425 0.259106
430 0.19928
435 0.235482
440 0.174778
445 0.210443
450 0.294002
455 0.420401
460 0.407254
465 0.314396
470 0.298045
475 0.317457
480 0.285349
485 0.363481
490 0.35532
495 0.393733
500 0.371272
505 0.582218
510 0.647903
515 1.21817
520 31.3558
525 527.669
530 841.158
535 219.978
540 29.2564
545 7.43882
550 5.05495
555 4.30262
560 3.7846
565 3.07562
570 2.54234
575 1.95366
580 1.66626
585 1.12426
590 0.944764
595 0.798496
600 0.6909
Ex : 538
200 0.150032
205 0.247615
210 0.266433
215 0.159473
220 0.219033
225 0.185454
230 0.162609
235 0.228897
240 0.335411
245 0.212013
250 0.238529
255 0.184711
260 0.196274
265 0.19406
270 0.191366
275 0.245471
280 0.244258
285 0.293703
290 0.253114
295 0.292471
300 0.170099
305 0.242272
310 0.245734
315 0.205227
320 0.239887
325 0.214968
330 0.247265
335 0.275354
340 0.198649
345 0.210819
350 0.220567
355 0.188029
360 0.214675
365 0.257695
370 0.210267
375 0.22583
380 0.242308
385 0.186142
390 0.24791
395 0.327841
400 0.29638
405 0.226911
410 0.258747
415 0.290004
420 0.27481
425 0.289233
430 0.267425
435 0.30603
440 0.278407
445 0.263758
450 0.228322
455 0.342098
460 0.242961
465 0.302967
470 0.363516
475 0.285614
480 0.282858
485 0.333804
490 0.319349
495 0.283278
500 0.410914
505 0.485209
510 0.569148
515 0.871005
520 1.37114
525 28.1226
530 526.438
535 843.229
540 228.049
545 30.0113
550 7.33315
555 4.23915
560 3.54152
565 2.83498
570 2.2555
575 1.72794
580 1.50583
585 1.10895
590 0.80347
595 0.698153
600 0.574959
Ex : 543
200 0.336489
205 0.213901
210 0.208333
215 0.260963
220 0.234688
225 0.240406
230 0.228724
235 0.225631
240 0.157576
245 0.239542
250 0.284196
255 0.253684
260 0.166762
265 0.17767
270 0.285161
275 0.223112
280 0.284884
285 0.225999
290 0.177746
295 0.200721
300 0.24289
305 0.345606
310 0.234707
315 0.172007
320 0.272269
325 0.191036
330 0.332548
335 0.295459
340 0.317765
345 0.349453
350 0.222311
355 0.281905
360 0.35323
365 0.31757
370 0.296697
375 0.255136
380 0.279271
385 0.186919
390 0.226533
395 0.256006
400 0.313208
405 0.276687
410 0.224474
415 0.284583
420 0.225053
425 0.241467
430 0.294223
435 0.260498
440 0.285259
445 0.404
450 0.256137
455 0.208163
460 0.278007
465 0.241558
470 0.28875
475 0.337165
480 0.364622
485 0.309848
490 0.300315
495 0.244549
500 0.40834
505 0.456502
510 0.572889
515 0.585763
520 0.698492
525 1.48577
530 25.6828
535 487.578
540 836.879
545 223.037
550 29.1459
555 5.98791
560 2.99088
565 2.25901
570 1.77312
575 1.49608
580 1.11684
585 1.10552
590 0.930885
595 0.55199
600 0.759117
Ex : 548
200 0.286859
205 0.28446
210 0.234545
215 0.264458
220 0.143884
225 0.234219
230 0.238181
235 0.21241
240 0.228176
245 0.227939
250 0.209776
255 0.330256
260 0.171981
265 0.20328
270 0.246619
275 0.335898
280 0.267242
285 0.215503
290 0.19437
295 0.214144
300 0.252264
305 0.169372
310 0.282583
315 0.206564
320 0.18809
325 0.181589
330 0.167102
335 0.195336
340 0.199469
345 0.276754
350 0.279063
355 0.215439
360 0.272945
365 0.239829
370 0.2574
375 0.202856
380 0.333165
385 0.215105
390 0.209099
395 0.341064
400 0.253361
405 0.323299
410 0.278968
415 0.333938
420 0.374807
425 0.239424
430 0.250178
435 0.235977
440 0.276746
445 0.282733
450 0.286688
455 0.252932
460 0.340181
465 0.385365
470 0.399113
475 0.347145
480 0.231678
485 0.246821
490 0.334967
495 0.27329
500 0.343927
505 0.342309
510 0.462563
515 0.523889
520 0.63317
525 0.911997
530 1.33082
535 27.4343
540 497.998
545 847.45
550 225.782
555 28.1906
560 4.88609
565 1.99115
570 1.36943
575 1.00372
580 0.794702
585 0.821334
590 0.829112
595 0.606392
600 0.32727
Ex : 553
200 0.306048
205 0.333781
210 0.258381
215 0.357793
220 0.266972
225 0.164612
230 0.250983
235 0.270435
240 0.294766
245 0.193207
250 0.158325
255 0.204869
260 0.279339
265 0.243094
270 0.222373
275 0.271549
280 0.206334
285 0.184994
290 0.246101
295 0.211783
300 0.261012
305 0.156499
310 0.230763
315 0.188183
320 0.280963
325 0.246581
330 0.248824
335 0.21945
340 0.209462
345 0.341558
350 0.248074
355 0.294705
360 0.252085
365 0.315381
370 0.317226
375 0.378473
380 0.332816
385 0.267926
390 0.226076
395 0.242326
400 0.257886
405 0.272725
410 0.263429
415 0.235215
420 0.220048
425 0.202382
430 0.169634
435 0.272111
440 0.25239
445 0.31086
450 0.387861
455 0.320289
460 0.379584
465 0.323676
470 0.358643
475 0.326636
480 0.372575
485 0.3469
490 0.19563
495 0.314578
500 0.329742
505 0.347483
510 0.334278
515 0.465948
520 0.492506
525 0.669369
530 0.878707
535 1.39625
540 24.5642
545 459.114
550 775.353
555 222.665
560 27.1952
565 4.37979
570 1.39491
575 1.05268
580 0.81325
585 0.667474
590 0.536536
595 0.489264
600 0.133871
Ex : 558
200 0.363649
205 0.224931
210 0.173426
215 0.221245
220 0.199531
225 0.234431
230 0.236352
235 0.175456
240 0.224019
245 0.253618
250 0.236822
255 0.257084
260 0.299254
265 0.231879
270 0.236431
275 0.191816
280 0.215107
285 0.239108
290 0.149038
295 0.217999
300 0.167261
305 0.308939
310 0.248803
315 0.282941
320 0.314748
325 0.205124
330 0.243651
335 0.347662
340 0.348258
345 0.255623
350 0.223288
355 0.222458
360 0.354866
365 0.264567
370 0.241071
375 0.279125
380 0.296838
385 0.396252
390 0.292251
395 0.384108
400 0.356677
405 0.295316
410 0.258099
415 0.262922
420 0.266713
425 0.339337
430 0.38077
435 0.278528
440 0.446137
445 0.306608
450 0.258115
455 0.268929
460 0.285228
465 0.349024
470 0.340075
475 0.407566
480 0.328716
485 0.350291
490 0.262579
495 0.221576
500 0.255682
505 0.372826
510 0.33688
515 0.32018
520 0.425992
525 0.488682
530 0.664615
535 0.901766
540 1.27987
545 23.0882
550 455.672
555 800.102
560 227.525
565 28.0107
570 4.10293
575 1.11681
580 0.795739
585 0.628244
590 0.466885
595 0.468461
600 0.523429
Ex : 563
200 0.196631
205 0.351841
210 0.279513
215 0.400636
220 0.334909
225 0.26645
230 0.209385
235 0.203808
240 0.275114
245 0.244246
250 0.332398
255 0.228871
260 0.264209
265 0.34903
270 0.284725
275 0.342492
280 0.217069
285 0.298663
290 0.278769
295 0.255478
300 0.232314
305 0.203624
310 0.209224
315 0.237322
320 0.213611
325 0.315518
330 0.179827
335 0.249427
340 0.235125
345 0.30196
350 0.225409
355 0.311801
360 0.232238
365 0.159832
370 0.226053
375 0.384113
380 0.337738
385 0.413105
390 0.389398
395 0.218948
400 0.25049
405 0.255075
410 0.399351
415 0.287815
420 0.24788
425 0.312487
430 0.309227
435 0.217866
440 0.288887
445 0.384176
450 0.409689
455 0.257228
460 0.322843
465 0.319433
470 0.330951
475 0.332261
480 0.367113
485 0.347002
490 0.305229
495 0.368497
500 0.392315
505 0.259667
510 0.329132
515 0.358171
520 0.425162
525 0.486506
530 0.583707
535 0.635659
540 0.683856
545 1.13408
550 23.0501
555 454.48
560 779.012
565 220.151
570 26.5473
575 3.7276
580 0.921459
585 0.776076
590 0.523753
595 0.48223
600 0.439455
Ex : 568
200 0.294325
205 0.393231
210 0.285376
215 0.278345
220 0.27979
225 0.253253
230 0.291025
235 0.295818
240 0.196099
245 0.199254
250 0.431113
255 0.289534
260 0.279062
265 0.21475
270 0.363015
275 0.364371
280 0.282248
285 0.313737
290 0.315
295 0.20567
300 0.295494
305 0.291418
310 0.231441
315 0.203165
320 0.282874
325 0.30009
330 0.325882
335 0.294303
340 0.311655
345 0.283903
350 0.323553
355 0.239879
360 0.258951
365 0.27162
370 0.226168
375 0.283564
380 0.255948
385 0.191693
390 0.30843
395 0.391853
400 0.298636
405 0.261079
410 0.395566
415 0.395863
420 0.345834
425 0.240479
430 0.348528
435 0.25782
440 0.319104
445 0.323571
450 0.343836
455 0.283156
460 0.207485
465 0.268317
470 0.238866
475 0.343213
480 0.286952
485 0.341306
490 0.219482
495 0.290755
500 0.430688
505 0.258119
510 0.283887
515 0.30215
520 0.37313
525 0.409019
530 0.425592
535 0.513903
540 0.581773
545 0.781673
550 1.0523
555 16.4904
560 385.463
565 725.712
570 218.976
575 26.7565
580 3.78969
585 1.06486
590 0.606228
595 0.375993
600 0.338188
Ex : 573
200 0.326579
205 0.314832
210 0.238194
215 0.246288
220 0.275445
225 0.314049
230 0.242946
235 0.200214
240 0.260119
245 0.341972
250 0.269314
255 0.349364
260 0.251414
265 0.274708
270 0.271689
275 0.201292
280 0.309682
285 0.201068
290 0.233374
295 0.289308
300 0.319236
305 0.359059
310 0.335557
315 0.255197
320 0.260328
325 0.300963
330 0.265284
335 0.258586
340 0.311164
345 0.245031
350 0.229802
355 0.264174
360 0.273074
365 0.27251
370 0.284774
375 0.395247
380 0.283593
385 0.354785
390 0.273346
395 0.361047
400 0.222351
405 0.360992
410 0.347004
415 0.346612
420 0.314837
425 0.29814
430 0.341297
435 0.412184
440 0.323668
445 0.314895
450 0.349
455 0.29774
460 0.31075
465 0.396632
470 0.370142
475 0.342553
480 0.30957
485 0.305395
490 0.411153
495 0.397811
500 0.400712
505 0.302184
510 0.250934
515 0.333206
520 0.31927
525 0.321655
530 0.404998
535 0.47615
540 0.518467
545 0.463678
550 0.61874
555 0.786461
560 14.3854
565 344.611
570 683.253
575 208.34
580 25.0767
585 3.37615
590 0.745731
595 0.451722
600 0.858639
Ex : 578
200 0.28442
205 0.247749
210 0.249058
215 0.319875
220 0.307655
225 0.202701
230 0.277888
235 0.308715
240 0.335475
245 0.205054
250 0.29471
255 0.302259
260 0.238236
265 0.174352
270 0.153358
275 0.250671
280 0.327784
285 0.325802
290 0.203864
295 0.384728
300 0.378263
305 0.331014
310 0.307774
315 0.308883
320 0.307091
325 0.382766
330 0.224893
335 0.245076
340 0.287855
345 0.35396
350 0.258544
355 0.394977
360 0.215755
365 0.405908
370 0.326633
375 0.294118
380 0.344834
385 0.24723
390 0.320872
395 0.281857
400 0.283953
405 0.292585
410 0.286973
415 0.279524
420 0.217997
425 0.280139
430 0.217143
435 0.27037
440 0.31684
445 0.238342
450 0.310129
455 0.279747
460 0.334186
465 0.344775
470 0.310039
475 0.279416
480 0.334092
485 0.292107
490 0.39074
495 0.335815
500 0.358944
505 0.366202
510 0.332272
515 0.296045
520 0.387188
525 0.390238
530 0.379241
535 0.356932
540 0.439315
545 0.481295
550 0.559885
555 0.481793
560 0.852352
565 13.5666
570 309.917
575 596.529
580 183.318
585 22.3523
590 3.03088
595 0.83478
600 0.661683
Ex : 583
200 0.272317
205 0.305308
210 0.27967
215 0.246258
220 0.255377
225 0.245752
230 0.288552
235 0.207425
240 0.241062
245 0.236871
250 0.219284
255 0.174096
260 0.18286
265 0.236981
270 0.246316
275 0.412606
280 0.305076
285 0.235125
290 0.297582
295 0.193315
300 0.257551
305 0.257555
310 0.331545
315 0.285764
320 0.280876
325 0.232756
330 0.307508
335 0.342065
340 0.334525
345 0.260958
350 0.266265
355 0.359704
360 0.366695
365 0.293403
370 0.289419
375 0.264876
380 0.288066
385 0.302863
390 0.380633
395 0.268208
400 0.195119
405 0.358618
410 0.247822
415 0.239436
420 0.32638
425 0.218626
430 0.294958
435 0.303557
440 0.373062
445 0.44024
450 0.485149
455 0.393617
460 0.345801
465 0.288363
470 0.247647
475 0.366101
480 0.421591
485 0.297633
490 0.265222
495 0.346757
500 0.345891
505 0.352174
510 0.2867
515 0.370255
520 0.325398
525 0.333869
530 0.275161
535 0.335847
540 0.393564
545 0.449526
550 0.476723
555 0.529415
560 0.602525
565 0.668978
570 10.9257
575 272.867
580 502.131
585 151.814
590 18.29
595 2.63258
600 0.567935
Ex : 588
200 0.181427
205 0.24258
210 0.331182
215 0.219843
220 0.260375
225 0.239213
230 0.331641
235 0.231241
240 0.282585
245 0.196513
250 0.18791
255 0.247495
260 0.252669
265 0.267743
270 0.176026
275 0.198593
280 0.359556
285 0.280987
290 0.247526
295 0.281127
300 0.317259
305 0.28043
310 0.31957
315 0.203612
320 0.267391
325 0.357053
330 0.276963
335 0.179295
340 0.291775
345 0.24089
350 0.330434
355 0.18625
360 0.303043
365 0.287818
370 0.262754
375 0.256002
380 0.30709
385 0.273042
390 0.231936
395 0.313368
400 0.295486
405 0.302153
410 0.281328
415 0.27135
420 0.209314
425 0.332057
430 0.314629
435 0.356798
440 0.254508
445 0.30637
450 0.229856
455 0.284562
460 0.338124
465 0.248752
470 0.329521
475 0.33357
480 0.262585
485 0.313836
490 0.404797
495 0.228047
500 0.27741
505 0.204625
510 0.266449
515 0.343749
520 0.326927
525 0.47193
530 0.398304
535 0.388496
540 0.374234
545 0.329749
550 0.356173
555 0.633484
560 0.495437
565 0.672949
570 0.703729
575 9.74613
580 233.432
585 438.091
590 133.607
595 16.1005
600 2.19442
Ex : 593
200 0.255544
205 0.307583
210 0.345836
215 0.246911
220 0.21057
225 0.317773
230 0.280142
235 0.336046
240 0.218025
245 0.258529
250 0.343529
255 0.269544
260 0.317769
265 0.248335
270 0.345708
275 0.316089
280 0.149388
285 0.264835
290 0.202481
295 0.242276
300 0.178539
305 0.225047
310 0.367222
315 0.330688
320 0.22744
325 0.214613
330 0.302164
335 0.233061
340 0.235662
345 0.199727
350 0.251952
355 0.28064
360 0.299548
365 0.433104
370 0.408319
375 0.339581
380 0.363132
385 0.32165
390 0.256308
395 0.285167
400 0.343603
405 0.306963
410 0.22392
415 0.330881
420 0.35726
425 0.262525
430 0.361247
435 0.278976
440 0.336715
445 0.312308
450 0.211403
455 0.271247
460 0.227392
465 0.297318
470 0.218359
475 0.224902
480 0.317901
485 0.30671
490 0.342701
495 0.263889
500 0.275831
505 0.365844
510 0.365931
515 0.398556
520 0.328463
525 0.368333
530 0.41014
535 0.266624
540 0.313298
545 0.475136
550 0.317591
555 0.394376
560 0.417068
565 0.483615
570 0.577535
575 0.751639
580 8.37952
585 202.47
590 386.018
595 117.694
600 15.5492
Ex : 598
200 0.255367
205 0.226961
210 0.226892
215 0.321559
220 0.265893
225 0.327447
230 0.227575
235 0.477239
240 0.263937
245 0.286177
250 0.295101
255 0.354062
260 0.216617
265 0.261625
270 0.29565
275 0.274019
280 0.381926
285 0.316411
290 0.304517
295 0.240946
300 0.261533
305 0.247047
310 0.276043
315 0.282812
320 0.29295
325 0.255055
330 0.244294
335 0.293912
340 0.200376
345 0.462368
350 0.327784
355 0.304454
360 0.334408
365 0.319845
370 0.365535
375 0.247514
380 0.266992
385 0.254322
390 0.275323
395 0.299643
400 0.335219
405 0.253954
410 0.36407
415 0.317216
420 0.296865
425 0.374357
430 0.366055
435 0.351693
440 0.346875
445 0.354422
450 0.329894
455 0.320336
460 0.355292
465 0.282077
470 0.351045
475 0.346317
480 0.319201
485 0.387102
490 0.255571
495 0.350894
500 0.372257
505 0.38178
510 0.30998
515 0.293324
520 0.466918
525 0.34483
530 0.390946
535 0.394668
540 0.355403
545 0.337796
550 0.356082
555 0.280189
560 0.397068
565 0.42191
570 0.500591
575 0.323547
580 0.627509
585 8.35388
590 184.855
595 334.072
600 205.237
Ex : 603
200 0.27605
205 0.345482
210 0.353317
215 0.375213
220 0.363303
225 0.296544
230 0.280818
235 0.260535
240 0.271197
245 0.223128
250 0.254747
255 0.245102
260 0.274915
265 0.241919
270 0.247377
275 0.234536
280 0.348104
285 0.221034
290 0.302683
295 0.271279
300 0.296261
305 0.260704
310 0.290818
315 0.306912
320 0.208804
325 0.363665
330 0.283186
335 0.303127
340 0.308625
345 0.303311
350 0.337581
355 0.251516
360 0.317019
365 0.285977
370 0.371304
375 0.408676
380 0.365994
385 0.377366
390 0.318278
395 0.364333
400 0.384099
405 0.286192
410 0.310869
415 0.283732
420 0.362428
425 0.412127
430 0.269934
435 0.30022
440 0.35381
445 0.193906
450 0.263821
455 0.271271
460 0.363744
465 0.254089
470 0.294112
475 0.295397
480 0.415666
485 0.237743
490 0.325678
495 0.433699
500 0.539712
505 0.356877
510 0.361179
515 0.286776
520 0.288364
525 0.262442
530 0.283892
535 0.328468
540 0.247619
545 0.445596
550 0.430932
555 0.29119
560 0.364174
565 0.404757
570 0.53355
575 0.457672
580 0.44702
585 0.601302
590 7.13527
595 154.445
600 311.665
