File format V 1.0
ven. 13. janv. 04:15:42 2017
Operator : 
Comments : 

=============================================
SpectroFluorometer parameters
Mode : 3D measurement
Data : Fluorescence
Phospho. : Ordinary
Spectrum : Fluorescence

Scan speed : 2400 nm/mn
Response : 100 ms
PM Voltage : 700 V
Shutter : On

Lambda Ex. Start : 203
Lambda Ex. End : 603
Lambda Ex. Step : 5
Ex. Slit : 5 nm

Lambda Em. Start : 200
Lambda Em. End : 600
Lambda Em. Step : 5
Em. Slit : 5 nm

Repetition : 1
Decal lambda em : 10
=============================================
DATA
Ex : 203
200 7.09406
205 4.48269
210 5.94721
215 6.71228
220 6.20704
225 7.52297
230 4.88998
235 6.5577
240 4.47809
245 4.83635
250 6.40012
255 6.25716
260 8.93805
265 8.3316
270 8.26732
275 5.03581
280 7.236
285 5.77064
290 4.64902
295 4.57673
300 4.18859
305 5.1722
310 5.00663
315 6.31268
320 5.26938
325 7.23132
330 7.05265
335 7.73581
340 6.70393
345 7.40716
350 5.42371
355 3.42493
360 5.49577
365 6.21984
370 5.79912
375 5.38066
380 5.92952
385 8.40147
390 7.2047
395 8.16336
400 7.07186
405 4.48883
410 4.71493
415 6.08141
420 5.22783
425 5.23396
430 5.70957
435 6.83525
440 5.06478
445 6.66784
450 3.83855
455 7.5916
460 7.70937
465 7.74538
470 7.2257
475 4.76046
480 4.86197
485 4.29502
490 5.44031
495 5.94487
500 9.53854
505 7.33253
510 6.43976
515 6.22099
520 5.78099
525 7.41894
530 9.88616
535 4.93442
540 5.81671
545 5.11722
550 8.34529
555 6.57416
560 5.42995
565 6.82133
570 8.33851
575 8.92909
580 8.21913
585 3.75465
590 9.25765
595 5.2565
600 5.20643
Ex : 208
200 5.92488
205 8.137
210 5.50772
215 6.48395
220 7.91699
225 6.71098
230 5.82641
235 8.57731
240 5.58607
245 5.20109
250 10.2341
255 8.86644
260 6.58536
265 5.61073
270 5.72757
275 4.29787
280 6.23366
285 6.0573
290 4.75176
295 9.21759
300 6.01755
305 4.97023
310 7.05139
315 5.88219
320 7.83143
325 4.75626
330 5.99447
335 6.29761
340 8.64882
345 6.05347
350 7.06953
355 7.23891
360 7.04391
365 5.92889
370 6.85681
375 6.86286
380 8.03337
385 4.42717
390 4.33581
395 5.054
400 6.59446
405 4.79205
410 4.74087
415 3.80711
420 7.01943
425 6.02694
430 5.28131
435 6.04918
440 5.22392
445 6.93457
450 7.84774
455 9.67689
460 4.02794
465 5.83889
470 7.0566
475 8.18066
480 8.0074
485 9.1696
490 4.36239
495 5.53615
500 5.6214
505 6.25686
510 5.358
515 7.18978
520 4.92454
525 7.45454
530 10.1279
535 6.783
540 6.1315
545 5.49233
550 5.15794
555 3.70539
560 4.78673
565 7.59486
570 5.71688
575 5.12589
580 4.51431
585 7.57086
590 4.76175
595 7.64006
600 3.08492
Ex : 213
200 6.005
205 4.38356
210 4.98524
215 5.82031
220 7.13944
225 8.23014
230 6.1004
235 4.64296
240 6.47138
245 4.16564
250 4.87647
255 4.87463
260 4.87906
265 8.10279
270 5.82298
275 4.10144
280 4.47939
285 7.56027
290 7.66312
295 8.23304
300 5.93922
305 5.70968
310 6.71171
315 6.0043
320 5.75218
325 4.85216
330 5.84406
335 9.60683
340 8.40549
345 4.78829
350 5.49355
355 5.75991
360 5.62694
365 6.09389
370 7.01393
375 8.29061
380 7.44655
385 5.71943
390 7.20525
395 5.20079
400 5.48079
405 6.41301
410 6.45697
415 5.02746
420 6.32595
425 5.95535
430 8.71201
435 8.42635
440 10.6494
445 5.7448
450 6.36719
455 6.02088
460 7.25324
465 7.99208
470 5.7749
475 6.14633
480 5.37214
485 8.15822
490 7.0258
495 7.99055
500 5.79219
505 5.34771
510 9.021
515 7.71804
520 11.2663
525 8.04675
530 7.1278
535 5.60827
540 3.37425
545 4.28841
550 5.97518
555 5.24451
560 6.60518
565 4.49671
570 4.36511
575 5.60359
580 6.11679
585 6.30723
590 5.14876
595 4.99593
600 5.73804
Ex : 218
200 7.95775
205 5.44789
210 5.60041
215 7.00105
220 6.87295
225 9.20105
230 7.22121
235 5.42335
240 8.63876
245 5.12749
250 6.56325
255 7.74954
260 10.1681
265 7.81374
270 6.26662
275 6.20254
280 5.79593
285 7.12621
290 6.08047
295 6.65629
300 4.41305
305 7.84857
310 8.33553
315 6.97645
320 5.48356
325 6.40379
330 6.56186
335 5.58491
340 10.462
345 5.07178
350 7.79399
355 7.86633
360 8.88863
365 6.96971
370 6.6273
375 6.64586
380 9.56642
385 5.39608
390 7.42335
395 5.75954
400 5.55063
405 5.38454
410 5.27654
415 6.80812
420 6.54342
425 12.5704
430 7.32436
435 7.29539
440 4.49623
445 7.36554
450 6.36826
455 4.96956
460 7.25983
465 11.6196
470 6.74375
475 5.3722
480 6.53202
485 8.19165
490 5.52778
495 7.09042
500 5.67246
505 9.54409
510 8.22024
515 6.92389
520 7.97147
525 7.0751
530 6.21791
535 3.78858
540 7.14338
545 9.06566
550 5.19594
555 6.84444
560 8.25947
565 5.4437
570 4.24812
575 6.14246
580 4.68288
585 4.21984
590 4.24762
595 10.4416
600 1.85287
Ex : 223
200 6.34061
205 6.18986
210 6.08881
215 6.42616
220 6.44729
225 4.67987
230 3.63
235 4.57265
240 5.25387
245 5.98357
250 4.62207
255 6.5656
260 5.90025
265 5.29473
270 7.62799
275 5.73176
280 4.79515
285 8.18867
290 6.05036
295 4.65838
300 5.55761
305 5.07949
310 4.53559
315 5.51778
320 6.43043
325 5.88748
330 7.99431
335 5.07614
340 7.75128
345 4.97097
350 7.16387
355 7.75018
360 5.92927
365 7.44908
370 6.07708
375 6.39222
380 8.30892
385 6.77902
390 6.34185
395 6.47782
400 6.93646
405 9.47248
410 6.24531
415 4.72216
420 5.35058
425 7.1176
430 6.37381
435 9.45484
440 5.52835
445 5.09934
450 6.64192
455 5.06446
460 5.86858
465 5.35015
470 6.63016
475 6.60258
480 7.39578
485 10.066
490 5.90091
495 6.36678
500 5.69225
505 3.21429
510 5.06746
515 5.47388
520 5.34112
525 8.11675
530 4.78497
535 4.57896
540 6.77419
545 5.0649
550 4.04098
555 7.27648
560 6.34264
565 6.35251
570 9.00123
575 5.86862
580 5.43485
585 6.82613
590 6.10998
595 5.48325
600 0.623973
Ex : 228
200 5.27778
205 5.65446
210 8.22006
215 6.76484
220 8.90181
225 4.93243
230 6.01517
235 7.19256
240 4.49903
245 5.48548
250 3.92287
255 5.03479
260 4.47865
265 4.03925
270 4.88283
275 5.73124
280 5.95387
285 5.16572
290 4.77717
295 3.05131
300 5.96908
305 3.86303
310 5.52825
315 4.59434
320 9.22518
325 7.60195
330 4.96035
335 3.54815
340 8.5748
345 5.73132
350 6.15152
355 8.76282
360 4.72002
365 6.23068
370 6.95098
375 5.31571
380 6.84492
385 7.47863
390 5.23873
395 5.30632
400 4.92603
405 6.13545
410 6.41401
415 4.35055
420 3.92249
425 4.4444
430 4.21844
435 5.62668
440 8.31306
445 6.06986
450 5.53977
455 5.76636
460 4.61731
465 10.043
470 4.90239
475 6.51426
480 6.82456
485 8.82334
490 6.44196
495 4.05937
500 6.29074
505 7.11532
510 4.13499
515 6.09253
520 7.07954
525 7.06735
530 8.00411
535 4.42693
540 5.88291
545 5.64428
550 5.5226
555 4.91691
560 8.67138
565 5.4903
570 4.54018
575 5.21846
580 4.11887
585 4.73166
590 5.9478
595 6.48229
600 0.73766
Ex : 233
200 5.27074
205 5.26423
210 5.73305
215 8.01158
220 5.77677
225 3.48312
230 5.51832
235 5.55299
240 7.05785
245 6.05042
250 4.46252
255 5.56218
260 4.95971
265 5.16495
270 4.85728
275 5.55761
280 6.77202
285 6.90021
290 6.72278
295 4.39808
300 6.51816
305 4.03336
310 4.20861
315 3.17815
320 4.33859
325 6.20351
330 5.48767
335 8.53989
340 6.40265
345 4.48813
350 6.07499
355 4.93424
360 4.82282
365 4.54239
370 5.27384
375 5.91737
380 9.19014
385 5.63256
390 5.44608
395 3.87892
400 4.38443
405 3.79863
410 5.28712
415 6.37564
420 3.77676
425 5.03581
430 6.97342
435 4.58141
440 6.1172
445 6.3787
450 6.07619
455 4.84756
460 5.25048
465 7.309
470 6.22986
475 4.69685
480 4.59158
485 5.67719
490 6.36067
495 3.44945
500 4.60799
505 4.10772
510 7.82574
515 5.663
520 6.21376
525 3.91959
530 4.52819
535 3.04261
540 5.18884
545 5.44658
550 6.37093
555 6.35977
560 7.92734
565 4.75413
570 4.75978
575 6.12358
580 5.86636
585 4.41346
590 5.46964
595 7.8923
600 0.898114
Ex : 238
200 3.43233
205 4.89264
210 4.6742
215 4.73174
220 3.17264
225 4.81657
230 4.9278
235 5.13228
240 4.1792
245 3.98924
250 3.86138
255 6.99596
260 8.03518
265 4.45213
270 3.61522
275 3.99056
280 6.77638
285 6.331
290 3.74112
295 3.84145
300 4.49484
305 7.84282
310 6.47014
315 6.02613
320 4.4085
325 7.74689
330 4.98148
335 4.38818
340 4.55009
345 5.58229
350 6.79986
355 7.03261
360 3.74743
365 4.8539
370 6.38138
375 6.49547
380 6.17272
385 4.16638
390 5.3015
395 4.97381
400 6.92281
405 3.55456
410 4.52415
415 7.45676
420 6.27869
425 6.89106
430 7.52641
435 4.10945
440 5.82817
445 4.73772
450 5.83164
455 6.39788
460 6.09601
465 7.02079
470 7.98131
475 6.08185
480 5.58651
485 5.33396
490 4.47001
495 8.89716
500 8.02284
505 4.97928
510 4.76368
515 6.43517
520 4.06155
525 6.61108
530 7.83471
535 5.38458
540 4.07581
545 4.99708
550 4.33923
555 5.90987
560 6.61833
565 4.4917
570 5.86911
575 6.84272
580 6.09914
585 4.34922
590 5.64119
595 5.13552
600 0.584403
Ex : 243
200 4.76333
205 5.00125
210 5.37097
215 7.06956
220 5.64329
225 3.42782
230 6.59047
235 5.05298
240 7.31136
245 4.95544
250 3.55983
255 3.69946
260 4.15121
265 3.56153
270 6.88139
275 4.78896
280 5.50257
285 3.61277
290 4.86983
295 4.33236
300 3.52969
305 3.40458
310 7.81437
315 4.27732
320 3.30762
325 5.01024
330 5.50043
335 3.69378
340 4.75044
345 7.78812
350 4.62162
355 3.20293
360 4.7955
365 2.8949
370 4.20235
375 5.34932
380 6.94402
385 4.53906
390 5.64635
395 6.26411
400 5.63963
405 4.96045
410 4.44502
415 5.3502
420 4.20846
425 3.22118
430 3.60437
435 6.41913
440 5.0275
445 5.74113
450 4.59268
455 6.51083
460 7.78406
465 6.32344
470 5.25783
475 3.19406
480 4.37712
485 6.20953
490 5.60564
495 4.31881
500 5.18646
505 4.93434
510 5.98099
515 3.98234
520 7.24345
525 2.93915
530 5.07287
535 5.45613
540 4.74526
545 4.42927
550 3.46212
555 5.64187
560 3.25632
565 5.01907
570 4.6429
575 3.54022
580 4.49958
585 3.75947
590 4.90329
595 5.76517
600 10.5309
Ex : 248
200 4.76608
205 3.62435
210 4.65804
215 3.05393
220 4.54098
225 3.19104
230 3.4098
235 4.86812
240 2.47822
245 5.32613
250 3.34551
255 3.20598
260 3.46392
265 3.08454
270 2.52624
275 2.33296
280 4.30412
285 3.64804
290 3.96526
295 2.49028
300 2.76691
305 3.02481
310 3.27361
315 3.54719
320 2.82523
325 4.0951
330 2.90444
335 3.36583
340 4.03484
345 4.18505
350 3.76181
355 4.23658
360 4.29628
365 2.38639
370 4.57792
375 4.16812
380 4.79622
385 2.89936
390 4.09761
395 4.06402
400 5.32077
405 3.9393
410 5.73848
415 4.40399
420 4.78041
425 4.30967
430 3.96093
435 2.82797
440 6.73624
445 6.0892
450 5.04943
455 4.78474
460 3.45747
465 4.65148
470 3.05319
475 3.16866
480 4.44813
485 4.60888
490 6.80846
495 4.91469
500 3.61819
505 3.59353
510 4.64891
515 3.24655
520 3.76787
525 4.90746
530 3.24433
535 4.69077
540 2.93348
545 4.24093
550 3.9396
555 4.2764
560 4.688
565 4.6478
570 4.63489
575 4.23936
580 4.82482
585 3.27783
590 3.20617
595 3.27628
600 1.13243
Ex : 253
200 3.42257
205 2.464
210 3.14387
215 2.802
220 2.59702
225 4.46446
230 3.81477
235 3.24042
240 3.55092
245 2.24902
250 3.7232
255 3.20493
260 3.8184
265 2.9477
270 3.00071
275 2.38154
280 3.38525
285 4.1303
290 2.69923
295 2.54123
300 4.00772
305 3.1398
310 2.36496
315 2.73181
320 2.85727
325 1.92344
330 5.44703
335 4.82525
340 4.22937
345 3.63273
350 5.57327
355 3.66975
360 2.77698
365 2.64848
370 4.31095
375 5.87335
380 3.35549
385 3.64157
390 4.08121
395 3.50124
400 3.77638
405 3.58797
410 3.75467
415 4.40729
420 4.25876
425 3.71294
430 2.82275
435 2.90726
440 3.55421
445 3.38183
450 3.23988
455 3.00237
460 5.23066
465 3.35052
470 2.75771
475 4.82269
480 3.10561
485 3.36106
490 3.90957
495 5.13103
500 4.28134
505 4.42176
510 2.95799
515 4.33437
520 3.39124
525 3.51625
530 3.79918
535 3.06687
540 4.24271
545 3.31087
550 3.60934
555 4.50038
560 4.76545
565 4.53934
570 4.2863
575 2.29812
580 2.83997
585 2.90503
590 3.48667
595 4.07827
600 7.4651
Ex : 258
200 4.57778
205 2.32763
210 2.58666
215 2.03029
220 3.38259
225 3.61793
230 2.47109
235 3.03726
240 3.68986
245 2.35141
250 3.18911
255 3.69231
260 2.00697
265 4.05048
270 3.23869
275 3.36746
280 3.27608
285 2.50653
290 2.05945
295 1.9977
300 2.27713
305 2.1734
310 3.04881
315 2.2158
320 3.59588
325 2.2625
330 4.32066
335 3.10105
340 2.91964
345 3.20602
350 3.35417
355 3.23008
360 3.62364
365 3.03573
370 3.01483
375 2.62423
380 2.00457
385 2.76165
390 4.6862
395 3.16088
400 3.63973
405 3.19914
410 2.8422
415 3.81891
420 3.80584
425 2.55737
430 4.73642
435 5.41494
440 3.30399
445 2.47284
450 3.22743
455 2.06197
460 3.71891
465 3.46161
470 3.27591
475 2.73049
480 2.94092
485 3.24059
490 3.937
495 3.03045
500 3.1131
505 2.80255
510 3.06431
515 3.54595
520 2.83466
525 2.89144
530 3.33573
535 1.99055
540 3.17812
545 3.37042
550 2.30849
555 3.6197
560 3.09626
565 3.11969
570 2.55834
575 3.32928
580 3.22395
585 3.45516
590 2.86109
595 2.26506
600 2.43298
Ex : 263
200 1.94884
205 1.71787
210 2.01925
215 2.69568
220 1.88255
225 2.06994
230 2.11094
235 1.72881
240 1.69712
245 1.98448
250 2.05489
255 3.3902
260 2.20185
265 2.36134
270 3.26382
275 2.31905
280 2.12507
285 3.13511
290 2.13647
295 1.79074
300 3.09706
305 2.01134
310 1.46517
315 2.44637
320 3.36019
325 1.93799
330 1.80637
335 2.34109
340 2.73034
345 2.03616
350 1.99696
355 1.68755
360 1.96156
365 2.66638
370 2.85674
375 3.41385
380 2.64271
385 2.119
390 3.2493
395 2.71994
400 2.15219
405 3.62127
410 3.27669
415 2.22083
420 2.24491
425 2.25051
430 3.38542
435 1.99745
440 2.98834
445 3.10713
450 2.27492
455 2.11131
460 3.48026
465 1.58399
470 2.49171
475 2.12198
480 3.48796
485 2.73965
490 2.38006
495 2.56304
500 1.91372
505 2.13643
510 2.26852
515 3.94328
520 3.20711
525 2.24377
530 2.5306
535 2.25978
540 2.39698
545 1.74004
550 2.63107
555 1.88915
560 2.53613
565 2.33965
570 2.24404
575 2.75272
580 1.94888
585 1.84284
590 1.80401
595 1.66319
600 0.189265
Ex : 268
200 1.00132
205 1.26891
210 1.19967
215 1.05191
220 1.27672
225 1.43757
230 1.89888
235 1.20441
240 1.24795
245 1.57096
250 2.15453
255 1.11743
260 2.32335
265 1.64332
270 1.05349
275 1.05882
280 1.03757
285 1.24282
290 1.45081
295 1.48571
300 1.39945
305 1.44922
310 1.51835
315 2.32335
320 2.08629
325 1.95313
330 1.61588
335 1.80232
340 2.00981
345 1.59946
350 2.69761
355 2.00028
360 1.20118
365 1.62027
370 2.37835
375 2.0488
380 1.50097
385 1.84781
390 1.95593
395 1.87467
400 1.74373
405 1.75424
410 2.18866
415 1.88027
420 1.42253
425 2.26805
430 1.83409
435 2.50042
440 1.88346
445 1.88146
450 2.46759
455 1.60603
460 2.02064
465 2.16903
470 2.70075
475 2.20651
480 1.94927
485 1.69844
490 1.84752
495 1.33384
500 1.70555
505 1.75763
510 1.6191
515 2.09798
520 2.64085
525 2.0233
530 2.3058
535 1.90919
540 2.18222
545 2.23579
550 1.16955
555 1.51609
560 2.70404
565 2.4367
570 2.31357
575 1.65028
580 1.27132
585 1.98204
590 2.10728
595 2.65275
600 0.301873
Ex : 273
200 1.60291
205 1.32583
210 1.65146
215 0.97722
220 0.507886
225 1.18144
230 1.4014
235 1.5885
240 1.56248
245 1.36537
250 1.15639
255 1.73173
260 1.14791
265 1.5954
270 1.51179
275 0.920262
280 0.984437
285 0.897673
290 1.0208
295 1.76422
300 1.21528
305 0.840498
310 1.60398
315 1.14786
320 1.19011
325 1.13042
330 1.66234
335 1.56587
340 1.5061
345 1.68795
350 1.11564
355 1.24096
360 1.99855
365 1.93801
370 1.65391
375 1.93702
380 1.74734
385 1.11023
390 1.64019
395 1.94778
400 2.08343
405 1.6515
410 1.73104
415 1.55363
420 1.77864
425 1.66539
430 1.64102
435 1.49151
440 1.16475
445 1.66136
450 1.22264
455 0.87779
460 1.2556
465 1.06941
470 2.09976
475 2.22169
480 1.76278
485 1.94702
490 1.63478
495 1.76213
500 2.05823
505 1.96749
510 1.65208
515 1.66624
520 1.91906
525 1.13813
530 2.31331
535 1.76034
540 1.5451
545 1.95381
550 1.50761
555 1.46612
560 1.22184
565 1.18905
570 1.81366
575 2.08852
580 1.28651
585 1.37424
590 1.12889
595 1.40709
600 0.160121
Ex : 278
200 0.907018
205 0.958433
210 1.17298
215 1.04345
220 0.886476
225 1.06158
230 1.6699
235 1.3291
240 1.2817
245 0.978001
250 1.30909
255 1.11294
260 1.64419
265 1.02719
270 1.57324
275 1.51614
280 1.20087
285 0.897128
290 1.36975
295 0.824952
300 1.05737
305 0.973073
310 1.22802
315 0.987147
320 0.963647
325 1.10479
330 0.965695
335 1.3694
340 1.25913
345 1.63327
350 1.52894
355 1.09475
360 0.974834
365 1.07047
370 0.916585
375 1.15284
380 1.54818
385 1.41655
390 1.40265
395 1.61231
400 1.73684
405 1.30888
410 1.50021
415 1.51079
420 1.08869
425 1.7593
430 1.33748
435 1.81085
440 1.54043
445 1.53661
450 2.08695
455 1.83141
460 2.47727
465 1.37402
470 1.62797
475 1.41961
480 1.52908
485 1.51257
490 1.10804
495 1.1289
500 0.879745
505 1.3051
510 1.59475
515 1.4025
520 1.09155
525 1.44303
530 1.70787
535 1.2221
540 0.917219
545 1.44572
550 1.26458
555 1.20548
560 1.14025
565 1.00069
570 1.15434
575 1.63956
580 1.32499
585 1.05598
590 1.36425
595 0.732668
600 0.444421
Ex : 283
200 0.83142
205 1.06577
210 1.00941
215 0.760318
220 1.02679
225 0.960541
230 1.27009
235 1.23608
240 1.16404
245 0.701751
250 0.888775
255 0.836118
260 0.514826
265 0.719418
270 0.854667
275 0.807638
280 1.15781
285 0.86523
290 0.828199
295 1.05489
300 0.836778
305 0.899936
310 1.1057
315 0.598939
320 0.990349
325 1.34978
330 1.01708
335 0.86195
340 1.10327
345 1.01823
350 0.914667
355 0.860415
360 0.843041
365 1.20947
370 1.02901
375 1.15636
380 1.35219
385 1.41414
390 1.51382
395 1.11406
400 1.39315
405 1.51657
410 1.23615
415 1.49456
420 1.4765
425 1.45195
430 1.8741
435 2.38318
440 1.39821
445 1.37515
450 1.05297
455 1.10263
460 1.1596
465 1.08865
470 1.33499
475 1.89281
480 1.32331
485 1.31489
490 1.2469
495 0.894842
500 0.919715
505 0.995356
510 1.16304
515 0.931407
520 0.922638
525 0.677026
530 0.771012
535 0.675121
540 1.15298
545 0.896979
550 1.3045
555 1.5296
560 2.43395
565 1.70446
570 0.885867
575 1.12498
580 1.32583
585 0.860222
590 0.948158
595 0.868598
600 0.0988431
Ex : 288
200 0.963777
205 0.663821
210 0.775175
215 0.922572
220 0.56355
225 0.87551
230 0.716979
235 1.00837
240 1.0933
245 0.868954
250 0.724408
255 0.971314
260 0.729852
265 0.808522
270 0.989984
275 1.1029
280 1.31629
285 0.782638
290 0.580448
295 0.542408
300 0.82998
305 1.02563
310 1.12777
315 0.483898
320 0.888033
325 0.925406
330 0.868592
335 0.841078
340 0.99903
345 1.09474
350 1.07883
355 1.33538
360 1.00864
365 1.04102
370 1.3675
375 1.29671
380 1.29198
385 1.26079
390 1.57897
395 1.55112
400 1.16992
405 1.49363
410 1.10595
415 1.13632
420 1.03864
425 1.08306
430 1.2811
435 1.16608
440 1.22643
445 1.24156
450 1.0599
455 0.886116
460 1.04484
465 1.46652
470 1.27384
475 0.933653
480 0.921381
485 1.03699
490 0.769248
495 0.961975
500 1.29951
505 0.740979
510 0.945982
515 0.607795
520 0.931907
525 0.629859
530 0.830138
535 1.28451
540 0.736268
545 0.967348
550 0.60123
555 0.725632
560 0.753892
565 0.991329
570 1.30168
575 1.37601
580 1.00488
585 1.12181
590 0.962612
595 1.38209
600 2.26583
Ex : 293
200 0.495687
205 0.613673
210 0.746075
215 0.454644
220 0.57206
225 0.593623
230 0.580545
235 0.735088
240 0.881234
245 0.846073
250 0.51826
255 0.766928
260 0.552243
265 0.705766
270 0.450825
275 0.42841
280 0.60446
285 0.648929
290 0.658111
295 0.878314
300 0.520759
305 0.80532
310 0.71755
315 0.584734
320 0.609638
325 0.836658
330 0.841388
335 0.985605
340 0.714503
345 0.721623
350 1.05514
355 0.723463
360 0.701805
365 0.751146
370 1.08853
375 1.26015
380 0.860672
385 1.42451
390 1.13115
395 1.07358
400 0.91571
405 1.18103
410 1.24873
415 1.21661
420 1.04655
425 1.01442
430 0.699273
435 0.960319
440 1.00723
445 1.01857
450 0.931217
455 1.15173
460 0.810071
465 0.57486
470 1.00225
475 0.848452
480 1.04775
485 1.13554
490 1.08188
495 0.775624
500 0.843618
505 0.586975
510 0.860172
515 0.595169
520 0.873242
525 0.528253
530 0.610044
535 0.671892
540 0.655794
545 0.519805
550 0.570282
555 0.71508
560 0.763033
565 0.785931
570 0.731389
575 0.818522
580 0.889727
585 0.985161
590 1.05748
595 0.741921
600 0.662387
Ex : 298
200 0.620705
205 0.665651
210 0.552663
215 0.448543
220 0.402812
225 0.584956
230 0.672514
235 0.948824
240 0.722318
245 0.665099
250 0.726019
255 0.771491
260 0.384245
265 0.412152
270 0.610416
275 0.522554
280 0.577211
285 0.549822
290 0.848469
295 0.807984
300 0.792619
305 0.688266
310 0.526134
315 0.661547
320 0.525921
325 0.627113
330 0.537158
335 0.857803
340 0.509334
345 0.537108
350 0.641914
355 0.568815
360 0.692849
365 0.964652
370 0.940316
375 0.824257
380 1.21346
385 1.32405
390 0.862345
395 0.785594
400 1.02124
405 0.89555
410 0.99369
415 0.773286
420 0.909056
425 0.980596
430 1.46426
435 0.988286
440 1.00182
445 0.993852
450 0.951034
455 0.989321
460 1.17697
465 0.901032
470 0.920843
475 0.62027
480 0.660065
485 0.740953
490 0.630591
495 0.882161
500 0.661701
505 0.859658
510 0.610329
515 0.836093
520 0.923689
525 0.600367
530 0.782051
535 0.771536
540 0.7577
545 0.779463
550 0.642976
555 0.735846
560 0.706996
565 0.479304
570 0.539677
575 0.583975
580 0.830627
585 0.781389
590 1.14629
595 0.787821
600 0.089651
Ex : 303
200 0.457836
205 0.457546
210 0.390675
215 0.436768
220 0.500006
225 0.625841
230 0.842268
235 0.508879
240 0.421488
245 0.578588
250 0.382686
255 0.532559
260 0.35313
265 0.35703
270 0.485451
275 0.472625
280 0.496194
285 0.412532
290 0.370419
295 0.670639
300 0.660475
305 0.647072
310 0.803958
315 0.641628
320 0.479533
325 0.354004
330 0.642515
335 0.767652
340 0.690656
345 0.706664
350 0.935301
355 1.24226
360 0.905121
365 0.907109
370 0.995976
375 0.972656
380 1.04639
385 0.825419
390 1.03862
395 0.936014
400 0.904578
405 0.734079
410 0.942645
415 0.953941
420 1.05803
425 1.14877
430 1.10378
435 1.50196
440 1.01008
445 0.817687
450 0.719369
455 1.05404
460 0.968598
465 0.697363
470 0.76855
475 0.599214
480 0.643963
485 0.920447
490 0.800407
495 0.885267
500 0.943117
505 0.523136
510 0.559547
515 0.480854
520 0.503106
525 0.585203
530 0.511773
535 0.438831
540 0.483626
545 0.563248
550 0.365363
555 0.595196
560 0.664499
565 0.710008
570 0.612997
575 0.631019
580 0.487935
585 0.718894
590 0.640043
595 0.680016
600 0.0773833
Ex : 308
200 0.3583
205 0.427865
210 0.500283
215 0.381872
220 0.265006
225 0.427964
230 0.509612
235 0.440276
240 0.339752
245 0.411912
250 0.431035
255 0.455778
260 0.420088
265 0.636691
270 0.52844
275 0.464706
280 0.474553
285 0.438365
290 0.474814
295 0.446485
300 0.629344
305 0.677599
310 0.468996
315 0.342817
320 0.508408
325 0.489973
330 0.630485
335 0.416633
340 0.63731
345 0.557783
350 0.829781
355 0.719892
360 0.914717
365 0.870952
370 0.627488
375 0.905426
380 0.883817
385 0.918402
390 0.948816
395 0.864251
400 0.810167
405 0.956401
410 0.855143
415 0.851238
420 1.08542
425 1.1839
430 0.90969
435 0.851244
440 0.88161
445 0.930141
450 1.022
455 1.14545
460 0.685091
465 0.859423
470 0.972486
475 0.703273
480 0.758015
485 0.609651
490 0.675327
495 0.605791
500 0.643071
505 0.551223
510 0.566293
515 0.506194
520 0.578439
525 0.891874
530 0.521996
535 0.511552
540 0.552719
545 0.53279
550 0.515085
555 0.535684
560 0.56187
565 0.36484
570 0.403462
575 0.483716
580 0.422622
585 0.483073
590 0.495344
595 0.331703
600 1.1846
Ex : 313
200 0.317399
205 0.431802
210 0.395166
215 0.391917
220 0.294051
225 0.337507
230 0.50157
235 0.469753
240 0.28925
245 0.507942
250 0.455775
255 0.366436
260 0.366924
265 0.481035
270 0.509746
275 0.449946
280 0.460219
285 0.253998
290 0.500154
295 0.494742
300 0.316063
305 0.538228
310 0.628059
315 0.373448
320 0.392844
325 0.496833
330 0.54014
335 0.491621
340 0.555441
345 0.634404
350 0.822688
355 0.879478
360 0.983893
365 1.06051
370 1.04826
375 1.10998
380 1.48185
385 1.50165
390 1.53133
395 1.84483
400 1.94549
405 2.15533
410 1.74996
415 1.70558
420 2.0839
425 1.98415
430 1.79455
435 1.66048
440 1.39324
445 1.47812
450 1.42819
455 1.28726
460 1.23577
465 1.52673
470 1.41405
475 1.36806
480 0.957661
485 1.22627
490 1.06136
495 0.957882
500 0.816103
505 0.8674
510 0.897986
515 0.690514
520 0.626214
525 0.694964
530 0.614687
535 0.501635
540 0.511264
545 0.498905
550 0.652697
555 0.451914
560 0.364486
565 0.357547
570 0.700598
575 0.368763
580 0.535569
585 0.427413
590 0.616982
595 0.530507
600 0.136955
Ex : 318
200 0.317846
205 0.255167
210 0.354278
215 0.260273
220 0.337719
225 0.250179
230 0.41736
235 0.368911
240 0.495809
245 0.293278
250 0.443373
255 0.355629
260 0.387944
265 0.357175
270 0.336754
275 0.432216
280 0.330924
285 0.41393
290 0.425382
295 0.308306
300 0.374446
305 0.346331
310 0.606534
315 1.25804
320 0.744807
325 0.852264
330 1.02312
335 1.15045
340 1.82104
345 2.63477
350 2.99725
355 4.09212
360 5.24283
365 6.69904
370 7.36808
375 8.93715
380 10.1634
385 10.6906
390 11.9689
395 12.6853
400 13.036
405 13.2347
410 13.7724
415 13.4778
420 12.777
425 12.5386
430 12.5284
435 11.6414
440 10.6492
445 10.3789
450 10.2564
455 9.61467
460 9.01504
465 8.30939
470 7.33335
475 7.23482
480 6.19206
485 5.81353
490 5.34331
495 5.05898
500 4.74813
505 3.91344
510 3.16246
515 2.94033
520 2.75432
525 2.44908
530 1.8955
535 1.61134
540 1.66108
545 1.43221
550 1.71248
555 1.15764
560 1.03723
565 0.902715
570 0.710009
575 0.706144
580 0.667493
585 0.579072
590 0.419105
595 0.585745
600 0.193256
Ex : 323
200 0.261084
205 0.299141
210 0.314401
215 0.410008
220 0.330487
225 0.279623
230 0.359408
235 0.313658
240 0.411696
245 0.386861
250 0.294248
255 0.316146
260 0.385876
265 0.306683
270 0.306336
275 0.248865
280 0.251545
285 0.403249
290 0.311098
295 0.3993
300 0.402364
305 0.366745
310 0.460051
315 5.80403
320 22.6031
325 9.06044
330 2.92792
335 3.58604
340 4.98142
345 7.19132
350 10.3161
355 14.0654
360 16.2011
365 19.2256
370 22.4371
375 26.9179
380 30.3795
385 34.008
390 34.3034
395 37.2518
400 39.2169
405 39.036
410 40.5112
415 39.4766
420 39.1478
425 37.6057
430 35.648
435 34.4847
440 32.0956
445 30.8151
450 29.4856
455 28.5086
460 25.5918
465 24.3752
470 21.9732
475 21.3548
480 19.7073
485 17.6357
490 15.2171
495 14.0216
500 12.2635
505 11.3677
510 10.1404
515 8.09259
520 7.33896
525 6.0031
530 5.37809
535 4.60265
540 4.4463
545 4.03445
550 3.46569
555 2.63803
560 2.38915
565 2.12517
570 1.56263
575 1.38457
580 1.04083
585 0.837943
590 0.761111
595 0.631179
600 3.50369
Ex : 328
200 0.38491
205 0.257062
210 0.437035
215 0.370038
220 0.163715
225 0.425332
230 0.293246
235 0.221473
240 0.223336
245 0.251157
250 0.304783
255 0.304909
260 0.35548
265 0.324204
270 0.314568
275 0.218966
280 0.183499
285 0.326339
290 0.288306
295 0.254501
300 0.24165
305 0.360253
310 0.37916
315 1.59802
320 45.9701
325 104.052
330 31.943
335 7.1083
340 6.05169
345 7.31223
350 8.92844
355 13.5604
360 17.6736
365 20.721
370 22.8508
375 25.4144
380 28.4369
385 30.9612
390 33.1041
395 34.6418
400 35.7992
405 37.0354
410 37.2731
415 37.351
420 36.0456
425 34.6465
430 33.9516
435 32.5302
440 31.4524
445 29.2399
450 28.0457
455 25.8194
460 24.1979
465 23.1215
470 21.5227
475 19.1382
480 17.9277
485 16.5082
490 14.4658
495 13.5991
500 11.6756
505 10.9528
510 9.386
515 8.59677
520 7.33319
525 6.5901
530 5.51835
535 4.82075
540 4.29721
545 3.82013
550 3.33172
555 2.80678
560 2.51171
565 1.97271
570 1.67493
575 1.46499
580 1.15895
585 0.952219
590 0.691358
595 0.942154
600 0.612505
Ex : 333
200 0.437248
205 0.399969
210 0.32454
215 0.244603
220 0.179683
225 0.331031
230 0.370844
235 0.385358
240 0.33529
245 0.302606
250 0.359836
255 0.246698
260 0.308713
265 0.346582
270 0.226009
275 0.306643
280 0.339693
285 0.2476
290 0.324436
295 0.301427
300 0.345856
305 0.339316
310 0.279365
315 0.391489
320 6.16224
325 118.561
330 196.773
335 51.4509
340 9.42555
345 5.6603
350 5.76197
355 6.31041
360 9.71288
365 14.1071
370 15.278
375 15.6896
380 15.2468
385 16.8832
390 17.8089
395 19.0311
400 20.2443
405 20.9347
410 20.8195
415 20.5615
420 20.6381
425 20.6831
430 19.3656
435 18.7323
440 18.7114
445 17.9244
450 16.6357
455 15.7054
460 14.5075
465 13.6699
470 13.6763
475 11.9608
480 11.3272
485 10.6599
490 10.0393
495 9.42482
500 8.3367
505 7.03747
510 6.73645
515 6.1306
520 5.15722
525 4.83944
530 4.17764
535 3.79832
540 3.37438
545 2.89838
550 2.71344
555 2.23551
560 1.92202
565 1.50322
570 1.57986
575 1.22615
580 1.02163
585 0.852615
590 0.844537
595 0.724311
600 0.0824238
Ex : 338
200 0.227738
205 0.181322
210 0.180636
215 0.224105
220 0.273882
225 0.32662
230 0.235525
235 0.199449
240 0.214375
245 0.332551
250 0.329817
255 0.355263
260 0.311705
265 0.204709
270 0.277919
275 0.238912
280 0.258568
285 0.242795
290 0.352227
295 0.29576
300 0.249655
305 0.220569
310 0.332346
315 0.409524
320 0.458986
325 11.1521
330 167.902
335 249.566
340 61.9978
345 9.81101
350 4.7518
355 3.8935
360 4.08735
365 5.86141
370 10.4806
375 11.3978
380 9.25779
385 9.23376
390 9.7766
395 10.5464
400 10.8366
405 11.7351
410 12.3177
415 12.6007
420 13.2632
425 12.9712
430 12.5464
435 12.4586
440 12.1344
445 12.0697
450 11.4328
455 10.7646
460 10.1318
465 10.2569
470 9.92765
475 9.53466
480 9.22476
485 8.29686
490 7.56238
495 7.31706
500 7.14061
505 6.53515
510 5.6397
515 4.89393
520 4.65167
525 3.81042
530 3.62391
535 3.48054
540 3.10613
545 3.01035
550 2.49053
555 2.14635
560 1.94721
565 1.94273
570 1.47455
575 1.16954
580 1.00422
585 0.763721
590 0.746791
595 0.511995
600 0.423171
Ex : 343
200 0.173663
205 0.227314
210 0.231639
215 0.241223
220 0.193721
225 0.210331
230 0.223926
235 0.234899
240 0.143172
245 0.376098
250 0.254004
255 0.226236
260 0.203127
265 0.321265
270 0.243239
275 0.238565
280 0.293904
285 0.231297
290 0.192904
295 0.225568
300 0.284834
305 0.208231
310 0.212825
315 0.250142
320 0.214877
325 0.450155
330 12.9456
335 195.416
340 277.53
345 66.7221
350 9.73038
355 3.66763
360 3.25418
365 2.76058
370 3.9333
375 7.72388
380 8.6468
385 7.68635
390 6.65667
395 7.30857
400 8.22535
405 8.44352
410 9.89322
415 10.6491
420 10.928
425 10.42
430 10.5335
435 11.3538
440 11.3917
445 10.9326
450 11.4359
455 10.6878
460 10.7761
465 10.4722
470 9.98579
475 9.48843
480 9.38676
485 8.68764
490 8.00566
495 7.35775
500 6.95953
505 6.84211
510 6.41477
515 5.3672
520 5.00837
525 4.38041
530 4.23688
535 3.45921
540 3.31891
545 3.039
550 2.77855
555 2.54677
560 2.2329
565 1.80342
570 1.66718
575 1.40299
580 1.12335
585 0.881591
590 0.744782
595 0.608452
600 0.497472
Ex : 348
200 0.147149
205 0.215885
210 0.15608
215 0.222647
220 0.220338
225 0.228428
230 0.264285
235 0.212162
240 0.179622
245 0.205549
250 0.164973
255 0.137486
260 0.224473
265 0.222129
270 0.246501
275 0.245174
280 0.224601
285 0.236697
290 0.300643
295 0.176729
300 0.233483
305 0.217691
310 0.218756
315 0.233845
320 0.347534
325 0.347941
330 0.427564
335 12.2458
340 190.008
345 287.208
350 74.6511
355 10.5518
360 3.11868
365 2.5969
370 2.20974
375 3.03339
380 5.70773
385 8.53899
390 7.47127
395 7.27321
400 6.97149
405 7.93206
410 9.93791
415 11.451
420 11.5923
425 11.3216
430 11.3719
435 11.9422
440 13.0688
445 13.1049
450 12.1649
455 12.0343
460 11.7853
465 11.6079
470 11.0514
475 11.2101
480 10.4742
485 10.1683
490 9.21033
495 9.00248
500 8.66249
505 7.75311
510 6.87341
515 6.44031
520 5.97331
525 5.3351
530 4.64365
535 4.06535
540 3.89096
545 3.45189
550 3.26555
555 2.95754
560 2.34256
565 2.04787
570 1.72171
575 1.35912
580 1.20928
585 0.998154
590 0.785103
595 0.663748
600 0.075532
Ex : 353
200 0.297151
205 0.168172
210 0.154498
215 0.270383
220 0.17131
225 0.193991
230 0.256328
235 0.246689
240 0.178709
245 0.176175
250 0.1401
255 0.212188
260 0.14602
265 0.143113
270 0.174584
275 0.211965
280 0.17298
285 0.218685
290 0.195903
295 0.214724
300 0.202955
305 0.236341
310 0.224059
315 0.19967
320 0.183883
325 0.371147
330 0.288669
335 0.434313
340 13.187
345 198.313
350 285.888
355 71.1103
360 9.9215
365 3.00459
370 2.59351
375 2.37669
380 2.5503
385 5.29608
390 9.11769
395 9.35243
400 8.20299
405 8.36111
410 9.92938
415 11.225
420 11.5702
425 11.8971
430 11.8153
435 12.1034
440 13.652
445 12.7827
450 13.2115
455 12.5674
460 12.1982
465 12.1382
470 12.3786
475 12.6147
480 11.872
485 10.9511
490 10.2423
495 9.78666
500 9.02176
505 8.12622
510 7.9154
515 7.22478
520 6.33087
525 5.65168
530 5.14504
535 5.15811
540 4.54784
545 4.03649
550 3.544
555 3.34462
560 2.79503
565 2.45042
570 1.91495
575 1.5876
580 1.39237
585 1.10036
590 0.81247
595 0.614195
600 0.283804
Ex : 358
200 0.210546
205 0.251863
210 0.207841
215 0.14077
220 0.137019
225 0.154854
230 0.225798
235 0.246854
240 0.221043
245 0.205972
250 0.29017
255 0.161171
260 0.133413
265 0.278886
270 0.177685
275 0.157828
280 0.206557
285 0.204119
290 0.179391
295 0.297922
300 0.174351
305 0.185657
310 0.241466
315 0.215478
320 0.28045
325 0.313266
330 0.291146
335 0.320353
340 0.469
345 12.4628
350 196.964
355 296.589
360 74.3451
365 10.0039
370 3.29945
375 3.11432
380 2.72705
385 2.87478
390 4.99771
395 9.77248
400 9.71463
405 9.35082
410 10.2432
415 11.4893
420 12.3888
425 11.9934
430 12.5266
435 13.0143
440 13.4558
445 14.0982
450 13.5181
455 13.6908
460 13.0932
465 13.5216
470 13.8306
475 13.0018
480 12.8336
485 12.2662
490 11.5276
495 10.4552
500 9.9259
505 9.4449
510 8.82908
515 8.0578
520 7.30789
525 6.30964
530 5.90786
535 5.27799
540 4.72798
545 4.39929
550 3.84091
555 3.18124
560 2.82113
565 2.56285
570 2.14195
575 1.5497
580 1.4625
585 1.05252
590 0.746754
595 0.73694
600 0.396639
Ex : 363
200 0.164817
205 0.169468
210 0.204879
215 0.16036
220 0.196125
225 0.242738
230 0.123876
235 0.10619
240 0.149511
245 0.162889
250 0.34269
255 0.154818
260 0.160438
265 0.155848
270 0.17318
275 0.157092
280 0.18202
285 0.195634
290 0.195595
295 0.160147
300 0.14565
305 0.187481
310 0.243547
315 0.154421
320 0.2072
325 0.25777
330 0.255648
335 0.297558
340 0.389333
345 0.476974
350 11.6711
355 190.391
360 296.114
365 77.4013
370 10.3886
375 3.28167
380 2.88971
385 2.98416
390 3.56425
395 5.34875
400 9.32121
405 11.68
410 12.751
415 13.8735
420 13.3485
425 13.0242
430 13.7315
435 15.2065
440 16.215
445 15.4688
450 15.4645
455 15.5349
460 15.1638
465 15.3303
470 15.0076
475 14.6069
480 14.5263
485 13.7938
490 12.726
495 11.9169
500 11.3103
505 10.5389
510 10.0851
515 8.52909
520 7.92947
525 7.51435
530 6.46059
535 5.9705
540 5.31239
545 4.84956
550 4.27029
555 3.78715
560 3.5027
565 2.93408
570 2.42805
575 1.99244
580 1.61418
585 1.3061
590 0.947339
595 0.711251
600 0.327105
Ex : 368
200 0.196076
205 0.166544
210 0.189266
215 0.17004
220 0.194172
225 0.204959
230 0.144747
235 0.134527
240 0.165484
245 0.16387
250 0.139173
255 0.147006
260 0.183993
265 0.132707
270 0.211937
275 0.143989
280 0.211596
285 0.148092
290 0.118478
295 0.108929
300 0.160524
305 0.161893
310 0.170071
315 0.258131
320 0.12712
325 0.218488
330 0.235712
335 0.313686
340 0.261518
345 0.313011
350 0.47273
355 9.74529
360 184.319
365 302.362
370 82.9591
375 11.2984
380 3.3955
385 3.33266
390 4.23517
395 4.83301
400 5.8671
405 9.89671
410 14.2806
415 15.0438
420 14.0687
425 13.5914
430 13.5776
435 14.6084
440 16.1495
445 16.0057
450 15.6103
455 15.5034
460 15.5174
465 15.7764
470 15.854
475 15.7525
480 15.1074
485 14.4161
490 13.8011
495 13.1922
500 12.1664
505 12.1002
510 11.217
515 9.97826
520 9.15176
525 8.14753
530 7.32252
535 6.54897
540 6.05139
545 5.68999
550 4.92307
555 4.09072
560 3.76566
565 3.00979
570 2.57594
575 2.20288
580 1.59723
585 1.15119
590 1.05787
595 0.876278
600 0.620772
Ex : 373
200 0.140801
205 0.136296
210 0.184069
215 0.141208
220 0.143852
225 0.108882
230 0.202278
235 0.166602
240 0.189844
245 0.143918
250 0.181218
255 0.14991
260 0.159281
265 0.169685
270 0.147489
275 0.170162
280 0.111481
285 0.133895
290 0.107573
295 0.130792
300 0.202276
305 0.13855
310 0.1921
315 0.186716
320 0.160549
325 0.267201
330 0.194855
335 0.236974
340 0.333861
345 0.228515
350 0.337799
355 0.495447
360 11.4358
365 190.334
370 304.451
375 82.3259
380 11.387
385 3.67728
390 4.46984
395 5.37226
400 5.38999
405 7.02936
410 11.3391
415 15.3605
420 14.6882
425 13.2788
430 12.9212
435 13.2684
440 14.8218
445 14.8371
450 14.9109
455 14.5796
460 14.6784
465 14.9005
470 15.6102
475 15.2928
480 14.8715
485 14.6221
490 13.7498
495 13.3923
500 12.9069
505 12.2614
510 11.2899
515 10.0731
520 9.2181
525 8.22448
530 7.87929
535 7.089
540 6.50647
545 5.56109
550 4.81357
555 4.46541
560 4.05056
565 3.27903
570 2.48538
575 2.16844
580 1.79483
585 1.60039
590 1.09413
595 0.83444
600 1.21335
Ex : 378
200 0.183778
205 0.148626
210 0.181159
215 0.148044
220 0.177991
225 0.148372
230 0.183611
235 0.126853
240 0.129366
245 0.158954
250 0.111568
255 0.175585
260 0.144475
265 0.130052
270 0.14337
275 0.122035
280 0.149763
285 0.201083
290 0.165748
295 0.134461
300 0.149894
305 0.180632
310 0.129831
315 0.164654
320 0.252473
325 0.195622
330 0.176775
335 0.124283
340 0.225181
345 0.219117
350 0.270809
355 0.285838
360 0.437051
365 11.0757
370 194.644
375 317.508
380 86.5543
385 12.3368
390 4.48811
395 4.90806
400 5.54386
405 6.59931
410 9.26728
415 12.2825
420 15.0382
425 14.5166
430 13.6712
435 14.3905
440 14.5422
445 14.9939
450 14.7526
455 14.3493
460 13.9379
465 14.6636
470 14.6941
475 14.6795
480 14.556
485 14.0993
490 13.6327
495 12.8857
500 12.2322
505 11.5553
510 10.646
515 9.81529
520 9.08409
525 8.02966
530 7.17609
535 6.92051
540 6.10431
545 5.55048
550 4.93936
555 4.08965
560 3.81026
565 3.27118
570 2.722
575 2.10487
580 1.6927
585 1.40123
590 1.10062
595 0.849148
600 0.548849
Ex : 383
200 0.137821
205 0.167321
210 0.159867
215 0.198684
220 0.14722
225 0.145724
230 0.0927224
235 0.151656
240 0.229344
245 0.154321
250 0.173644
255 0.142349
260 0.128822
265 0.146492
270 0.127811
275 0.158169
280 0.172202
285 0.115571
290 0.129412
295 0.10748
300 0.150831
305 0.114885
310 0.157139
315 0.126947
320 0.154762
325 0.126562
330 0.186976
335 0.168363
340 0.172341
345 0.279894
350 0.199529
355 0.261466
360 0.37375
365 0.483626
370 10.4054
375 192.088
380 330.349
385 91.1898
390 13.3873
395 4.80647
400 5.07535
405 6.94875
410 9.33452
415 11.3222
420 12.4712
425 14.378
430 15.0029
435 15.5803
440 15.9891
445 15.5284
450 14.9226
455 14.4751
460 14.8355
465 14.9822
470 15.2913
475 15.4883
480 14.9671
485 14.2577
490 13.9347
495 13.4637
500 12.7246
505 11.6499
510 11.2602
515 10.0501
520 9.28284
525 8.2389
530 7.67759
535 6.94762
540 6.15761
545 5.48226
550 4.8715
555 4.30071
560 3.72364
565 3.42273
570 2.63406
575 2.12093
580 1.80169
585 1.3863
590 0.96814
595 0.857512
600 0.672229
Ex : 388
200 0.123809
205 0.143894
210 0.148114
215 0.138722
220 0.191417
225 0.16798
230 0.154426
235 0.18738
240 0.137791
245 0.152063
250 0.130905
255 0.18153
260 0.176861
265 0.170052
270 0.174475
275 0.11947
280 0.170305
285 0.186794
290 0.209706
295 0.156682
300 0.0941878
305 0.189932
310 0.148179
315 0.112528
320 0.144428
325 0.183355
330 0.173003
335 0.138267
340 0.175886
345 0.21214
350 0.205599
355 0.142542
360 0.217513
365 0.293597
370 0.459377
375 10.9792
380 201.13
385 332.93
390 91.6063
395 13.9456
400 5.49991
405 6.73588
410 9.79509
415 11.0621
420 11.3112
425 11.1119
430 13.7856
435 16.0282
440 16.4313
445 16.52
450 15.1889
455 14.6037
460 14.386
465 15.0283
470 15.3966
475 15.1601
480 15.0818
485 14.4938
490 13.6791
495 13.2641
500 12.9066
505 12.004
510 11.0279
515 10.3089
520 9.37927
525 8.90213
530 7.63557
535 6.99891
540 6.48583
545 5.82865
550 4.93732
555 4.66612
560 3.90286
565 3.38946
570 2.69909
575 2.34727
580 1.77892
585 1.28588
590 1.19766
595 0.928283
600 1.34632
Ex : 393
200 0.111871
205 0.11654
210 0.166726
215 0.159946
220 0.104005
225 0.160452
230 0.136049
235 0.171361
240 0.124746
245 0.116811
250 0.168539
255 0.209015
260 0.163028
265 0.110445
270 0.132555
275 0.181281
280 0.144386
285 0.187
290 0.183048
295 0.160133
300 0.152044
305 0.174723
310 0.135037
315 0.183186
320 0.131497
325 0.140022
330 0.129461
335 0.187801
340 0.172415
345 0.187615
350 0.23263
355 0.173715
360 0.254241
365 0.22935
370 0.340213
375 0.476393
380 10.1342
385 197.576
390 339.942
395 95.5764
400 15.3049
405 7.10451
410 8.311
415 10.3213
420 10.3273
425 9.87473
430 10.2577
435 12.5399
440 15.4295
445 14.9517
450 14.1428
455 13.2381
460 13.288
465 13.6079
470 13.9683
475 13.61
480 13.6159
485 13.4651
490 13.1469
495 13.2353
500 12.4647
505 11.4753
510 10.931
515 10.1153
520 9.13225
525 8.57693
530 7.48267
535 7.03204
540 6.24182
545 5.85349
550 5.08419
555 4.50445
560 3.93547
565 3.16173
570 2.93643
575 2.22087
580 1.72674
585 1.33556
590 1.10416
595 0.979905
600 1.01359
Ex : 398
200 0.131734
205 0.148241
210 0.123648
215 0.0922333
220 0.119754
225 0.106813
230 0.153049
235 0.124737
240 0.161727
245 0.155198
250 0.128642
255 0.148739
260 0.120568
265 0.180605
270 0.154109
275 0.128627
280 0.109804
285 0.123931
290 0.150903
295 0.15295
300 0.137921
305 0.141358
310 0.132964
315 0.092661
320 0.148833
325 0.123003
330 0.201177
335 0.159299
340 0.201742
345 0.12649
350 0.143125
355 0.1411
360 0.173899
365 0.154332
370 0.243077
375 0.347432
380 0.496009
385 10.4565
390 204.036
395 351.57
400 96.875
405 15.4894
410 8.00203
415 8.62917
420 8.73002
425 8.41793
430 8.63578
435 9.51163
440 11.2023
445 13.714
450 13.1305
455 12.7714
460 12.6754
465 12.8989
470 13.3151
475 13.346
480 13.3335
485 13.0514
490 13.0781
495 12.7672
500 11.8975
505 11.5404
510 11.1261
515 9.93483
520 9.2057
525 8.43436
530 7.55602
535 7.15684
540 6.44108
545 5.67025
550 4.96639
555 4.17111
560 3.89869
565 3.41124
570 2.75957
575 2.30536
580 1.81554
585 1.38607
590 1.06889
595 0.90615
600 0.941255
Ex : 403
200 0.103348
205 0.111057
210 0.141404
215 0.100779
220 0.130638
225 0.0894724
230 0.113817
235 0.125541
240 0.104375
245 0.127333
250 0.117949
255 0.11927
260 0.125476
265 0.121214
270 0.124161
275 0.105193
280 0.163351
285 0.147588
290 0.163091
295 0.112081
300 0.130798
305 0.177659
310 0.143953
315 0.149968
320 0.159915
325 0.157881
330 0.11795
335 0.148203
340 0.120789
345 0.14693
350 0.152903
355 0.194786
360 0.150015
365 0.176323
370 0.202244
375 0.256693
380 0.340481
385 0.534532
390 11.7988
395 210.981
400 347.429
405 96.4296
410 16.635
415 8.57056
420 8.1604
425 8.02727
430 8.74072
435 9.35997
440 10.1876
445 11.1082
450 12.7859
455 13.8151
460 13.1112
465 13.2415
470 13.1448
475 13.296
480 13.281
485 12.8812
490 12.901
495 12.5116
500 12.3067
505 11.595
510 10.943
515 10.2485
520 9.11023
525 8.38194
530 7.73231
535 7.00916
540 6.31245
545 5.74821
550 5.22331
555 4.58303
560 3.96847
565 3.34094
570 2.77289
575 2.27774
580 1.83354
585 1.4361
590 1.12097
595 0.843801
600 1.34035
Ex : 408
200 0.173368
205 0.132275
210 0.147223
215 0.142641
220 0.161117
225 0.173058
230 0.126746
235 0.136211
240 0.114355
245 0.153644
250 0.125667
255 0.117783
260 0.140439
265 0.149475
270 0.135383
275 0.164273
280 0.13501
285 0.134956
290 0.141843
295 0.11603
300 0.168425
305 0.131217
310 0.129477
315 0.137087
320 0.166588
325 0.161651
330 0.164675
335 0.129957
340 0.13349
345 0.17728
350 0.172702
355 0.147285
360 0.156074
365 0.178803
370 0.187312
375 0.218129
380 0.236148
385 0.328374
390 0.580727
395 11.3966
400 219.34
405 358.381
410 97.9941
415 17.3918
420 8.27083
425 7.11813
430 7.54429
435 8.50958
440 9.16279
445 9.89566
450 10.1565
455 11.6512
460 13.0844
465 12.9282
470 13.3352
475 12.9575
480 12.3436
485 12.5766
490 12.4811
495 11.8982
500 11.5563
505 11.2208
510 10.8631
515 9.85147
520 9.093
525 8.33427
530 7.49271
535 6.74741
540 6.14342
545 5.72698
550 5.18103
555 4.58287
560 3.91503
565 3.36865
570 2.87211
575 2.37456
580 1.76949
585 1.34757
590 1.0173
595 0.925248
600 0.482077
Ex : 413
200 0.149015
205 0.122661
210 0.115594
215 0.108267
220 0.0910607
225 0.138442
230 0.144641
235 0.149609
240 0.124323
245 0.137231
250 0.177545
255 0.119744
260 0.100266
265 0.171363
270 0.108043
275 0.0938265
280 0.129101
285 0.15416
290 0.142852
295 0.0810275
300 0.179799
305 0.138064
310 0.121554
315 0.119039
320 0.1529
325 0.150101
330 0.0854534
335 0.148016
340 0.175935
345 0.135446
350 0.128232
355 0.139407
360 0.173919
365 0.130664
370 0.171137
375 0.19129
380 0.221648
385 0.249352
390 0.31781
395 0.620429
400 13.3877
405 226.392
410 367.17
415 96.4651
420 15.1458
425 5.85355
430 5.16604
435 6.21389
440 6.50427
445 7.03311
450 7.17425
455 7.62866
460 9.26863
465 11.4251
470 11.4822
475 11.2304
480 11.346
485 10.9686
490 10.8382
495 10.7994
500 10.5482
505 10.3341
510 9.65507
515 9.25896
520 8.37564
525 7.71998
530 7.24235
535 6.39648
540 5.96796
545 5.43361
550 4.80717
555 4.37181
560 3.61963
565 3.25877
570 2.83957
575 2.22549
580 1.65199
585 1.37816
590 1.15205
595 0.865413
600 0.436364
Ex : 418
200 0.0909448
205 0.131906
210 0.100806
215 0.201878
220 0.125722
225 0.120224
230 0.152319
235 0.136608
240 0.120003
245 0.102473
250 0.115693
255 0.178849
260 0.123885
265 0.118714
270 0.0805812
275 0.107473
280 0.159521
285 0.150485
290 0.139828
295 0.151445
300 0.177998
305 0.146936
310 0.0943004
315 0.158995
320 0.134807
325 0.11946
330 0.128649
335 0.10267
340 0.160943
345 0.118346
350 0.14335
355 0.146287
360 0.170404
365 0.167792
370 0.136592
375 0.18201
380 0.142988
385 0.205326
390 0.255226
395 0.337861
400 0.658047
405 12.8106
410 223.855
415 368.707
420 98.7633
425 13.681
430 4.13269
435 3.17319
440 3.8178
445 4.1156
450 4.3632
455 5.06462
460 5.70328
465 7.18401
470 9.81181
475 10.2351
480 9.61205
485 9.69072
490 9.58733
495 9.71161
500 9.06869
505 8.64862
510 8.32315
515 8.21078
520 7.7544
525 7.16462
530 6.5988
535 5.83721
540 5.6684
545 5.00134
550 4.54908
555 3.96448
560 3.60604
565 3.09564
570 2.64417
575 2.12454
580 1.67081
585 1.30561
590 1.07691
595 0.797068
600 0.184296
Ex : 423
200 0.087883
205 0.0978772
210 0.145201
215 0.127919
220 0.137685
225 0.114212
230 0.114099
235 0.107032
240 0.144251
245 0.122604
250 0.149859
255 0.126158
260 0.126417
265 0.187194
270 0.16289
275 0.138443
280 0.0990619
285 0.0977436
290 0.109051
295 0.184171
300 0.157037
305 0.117905
310 0.18412
315 0.141921
320 0.132161
325 0.100641
330 0.104998
335 0.153379
340 0.199879
345 0.17206
350 0.129012
355 0.134563
360 0.119948
365 0.118019
370 0.124551
375 0.151957
380 0.150455
385 0.163515
390 0.252643
395 0.263036
400 0.418017
405 0.643643
410 13.0771
415 239.832
420 372.282
425 93.7658
430 12.4439
435 3.29889
440 2.41824
445 2.94369
450 3.28169
455 3.61612
460 4.46674
465 5.37741
470 6.3659
475 8.29747
480 9.60918
485 9.02597
490 8.88319
495 8.48248
500 8.31803
505 7.96647
510 7.70785
515 6.96481
520 6.82586
525 6.58576
530 6.11736
535 5.70752
540 5.21709
545 4.64421
550 4.09404
555 3.63941
560 3.32467
565 2.69484
570 2.42353
575 2.27179
580 1.65094
585 1.29895
590 1.02754
595 0.825259
600 0.957097
Ex : 428
200 0.129004
205 0.100595
210 0.112823
215 0.081194
220 0.125349
225 0.105727
230 0.135591
235 0.145677
240 0.169474
245 0.138778
250 0.179708
255 0.126191
260 0.142234
265 0.0839377
270 0.0936308
275 0.0833165
280 0.112513
285 0.117417
290 0.135648
295 0.106747
300 0.142295
305 0.14332
310 0.131031
315 0.131625
320 0.134232
325 0.184779
330 0.148171
335 0.115699
340 0.160985
345 0.144181
350 0.14826
355 0.112887
360 0.121346
365 0.137789
370 0.154063
375 0.141442
380 0.162878
385 0.237158
390 0.214443
395 0.17014
400 0.317673
405 0.38495
410 0.586565
415 14.0508
420 240.762
425 382.115
430 99.9787
435 12.9206
440 3.08013
445 2.18557
450 2.57672
455 3.30371
460 3.93755
465 4.294
470 5.03199
475 5.67386
480 7.50486
485 9.06365
490 8.59996
495 7.74532
500 8.07881
505 7.45691
510 6.83991
515 6.3464
520 6.04443
525 5.60912
530 5.22333
535 4.96645
540 4.47318
545 4.04365
550 3.65897
555 3.37227
560 2.94938
565 2.60726
570 2.1083
575 1.83015
580 1.59529
585 1.18334
590 0.816534
595 0.75221
600 0.483065
Ex : 433
200 0.101118
205 0.135322
210 0.157709
215 0.113708
220 0.123563
225 0.192129
230 0.153543
235 0.0976153
240 0.177187
245 0.155387
250 0.109128
255 0.107019
260 0.105331
265 0.114957
270 0.109532
275 0.178841
280 0.140633
285 0.153417
290 0.0961353
295 0.17319
300 0.138016
305 0.151563
310 0.102243
315 0.160598
320 0.124019
325 0.132145
330 0.128606
335 0.125135
340 0.12482
345 0.11824
350 0.145691
355 0.0913123
360 0.163596
365 0.115406
370 0.154556
375 0.144046
380 0.159658
385 0.125976
390 0.14114
395 0.219507
400 0.208648
405 0.29217
410 0.383284
415 0.662883
420 16.4184
425 259.528
430 389.199
435 98.3913
440 12.634
445 3.17922
450 2.36641
455 3.04897
460 3.52708
465 3.97644
470 4.40305
475 5.1125
480 5.24428
485 6.36903
490 7.98592
495 7.93094
500 7.38906
505 6.69045
510 6.3541
515 5.72248
520 5.74317
525 5.36784
530 4.90372
535 4.50235
540 4.08204
545 3.48387
550 3.43214
555 3.12526
560 2.73917
565 2.39723
570 2.13806
575 1.6104
580 1.34762
585 1.01812
590 0.831918
595 0.647573
600 0.334514
Ex : 438
200 0.130914
205 0.0811478
210 0.102012
215 0.137817
220 0.0865341
225 0.0764026
230 0.0806064
235 0.0935932
240 0.102196
245 0.110915
250 0.138869
255 0.128486
260 0.0930912
265 0.0983301
270 0.15288
275 0.137504
280 0.0992794
285 0.123263
290 0.145786
295 0.107914
300 0.130244
305 0.142088
310 0.108094
315 0.112478
320 0.124132
325 0.0947219
330 0.115502
335 0.133248
340 0.137586
345 0.128325
350 0.119633
355 0.186415
360 0.150384
365 0.122607
370 0.123268
375 0.178045
380 0.176297
385 0.128791
390 0.184574
395 0.197025
400 0.231287
405 0.196684
410 0.257184
415 0.374805
420 0.536327
425 15.1844
430 259.374
435 420.844
440 105.335
445 13.8478
450 3.42244
455 2.46245
460 3.15167
465 3.77537
470 4.04885
475 4.11201
480 4.65489
485 4.93648
490 5.42875
495 7.0497
500 7.20895
505 6.27741
510 5.87238
515 5.30582
520 4.92614
525 4.56854
530 4.37095
535 4.10959
540 3.73755
545 3.4418
550 3.04323
555 2.72098
560 2.49416
565 2.13919
570 1.82827
575 1.46082
580 1.20783
585 0.880342
590 0.794667
595 0.711091
600 0.50772
Ex : 443
200 0.112164
205 0.110301
210 0.126841
215 0.115455
220 0.096031
225 0.179091
230 0.150212
235 0.136233
240 0.118036
245 0.179662
250 0.135128
255 0.141409
260 0.170019
265 0.127385
270 0.145141
275 0.0817911
280 0.141843
285 0.116512
290 0.121199
295 0.150443
300 0.0988928
305 0.154011
310 0.113162
315 0.184813
320 0.136014
325 0.168338
330 0.138467
335 0.134934
340 0.142372
345 0.127715
350 0.117831
355 0.162046
360 0.15378
365 0.14409
370 0.163472
375 0.173395
380 0.156901
385 0.190645
390 0.138173
395 0.187148
400 0.159817
405 0.220695
410 0.23788
415 0.279072
420 0.385329
425 0.59316
430 16.7428
435 285.468
440 432.944
445 109.092
450 14.1817
455 3.58661
460 2.62454
465 3.11689
470 3.4837
475 3.62624
480 3.96195
485 3.92569
490 4.3082
495 4.53167
500 5.94601
505 6.82994
510 5.51818
515 5.03309
520 4.69754
525 4.18302
530 3.87416
535 3.36068
540 3.30786
545 3.05204
550 2.6701
555 2.51567
560 2.30731
565 2.02128
570 1.71602
575 1.54389
580 1.13411
585 0.846599
590 0.684332
595 0.604634
600 0.97872
Ex : 448
200 0.194931
205 0.155213
210 0.102181
215 0.09707
220 0.19687
225 0.134196
230 0.127908
235 0.0997346
240 0.11532
245 0.148371
250 0.134893
255 0.105274
260 0.130287
265 0.108907
270 0.154811
275 0.107721
280 0.0850079
285 0.103633
290 0.151911
295 0.125367
300 0.103976
305 0.104763
310 0.121128
315 0.125581
320 0.177841
325 0.149706
330 0.150059
335 0.14897
340 0.13883
345 0.174894
350 0.164217
355 0.189092
360 0.142525
365 0.228241
370 0.171383
375 0.127372
380 0.148107
385 0.155894
390 0.203785
395 0.137332
400 0.140131
405 0.160387
410 0.177782
415 0.220602
420 0.25842
425 0.32507
430 0.587177
435 18.599
440 308.917
445 457.026
450 114.148
455 14.8552
460 3.67588
465 2.46497
470 2.80331
475 3.32862
480 3.38274
485 3.21352
490 3.37808
495 3.60715
500 3.75151
505 4.57456
510 5.67707
515 5.06262
520 4.30287
525 3.83755
530 3.34573
535 3.10675
540 2.74167
545 2.664
550 2.45311
555 2.14628
560 2.05576
565 1.70513
570 1.53804
575 1.37521
580 1.01489
585 0.846721
590 0.678206
595 0.444044
600 0.0712086
Ex : 453
200 0.108366
205 0.12933
210 0.12576
215 0.101319
220 0.122697
225 0.143163
230 0.0978644
235 0.106917
240 0.0790551
245 0.0960436
250 0.110126
255 0.103394
260 0.0990571
265 0.13839
270 0.122637
275 0.115357
280 0.137067
285 0.114199
290 0.179978
295 0.152049
300 0.175594
305 0.109468
310 0.13441
315 0.119547
320 0.146498
325 0.137203
330 0.0901242
335 0.128617
340 0.156042
345 0.155165
350 0.155505
355 0.129186
360 0.130176
365 0.158846
370 0.123653
375 0.174186
380 0.120171
385 0.164254
390 0.156414
395 0.198811
400 0.135295
405 0.162013
410 0.206966
415 0.208068
420 0.226589
425 0.236423
430 0.401433
435 0.639338
440 18.5171
445 322.645
450 476.417
455 112.482
460 14.5747
465 3.5539
470 2.3459
475 2.36495
480 2.82657
485 2.83089
490 2.81157
495 2.75123
500 2.88487
505 2.94079
510 3.45908
515 4.44276
520 4.38182
525 3.6084
530 3.23768
535 3.0528
540 2.49315
545 2.27802
550 2.17435
555 1.89864
560 1.77856
565 1.56852
570 1.37677
575 1.21998
580 0.966942
585 0.742902
590 0.607857
595 0.555563
600 0.4478
Ex : 458
200 0.121426
205 0.14459
210 0.134226
215 0.135596
220 0.131276
225 0.141887
230 0.145364
235 0.123015
240 0.113339
245 0.125919
250 0.175679
255 0.11162
260 0.166411
265 0.111166
270 0.106357
275 0.149444
280 0.125732
285 0.112421
290 0.119121
295 0.125136
300 0.149642
305 0.131605
310 0.108192
315 0.114393
320 0.111092
325 0.106438
330 0.110034
335 0.132079
340 0.118424
345 0.132903
350 0.123623
355 0.157874
360 0.17104
365 0.134844
370 0.141767
375 0.143589
380 0.147203
385 0.241748
390 0.155121
395 0.138086
400 0.174207
405 0.195858
410 0.18397
415 0.191703
420 0.193551
425 0.292206
430 0.301914
435 0.400595
440 0.644802
445 21.5416
450 346.951
455 507.57
460 124.338
465 15.9255
470 3.44795
475 2.13244
480 2.02774
485 2.46748
490 2.38817
495 2.31814
500 2.25371
505 2.43998
510 2.26033
515 2.59104
520 3.40644
525 4.14706
530 3.18541
535 2.90045
540 2.75136
545 2.34723
550 2.07737
555 1.86889
560 1.656
565 1.48491
570 1.28724
575 1.03199
580 0.923916
585 0.786918
590 0.71905
595 0.535574
600 0.504048
Ex : 463
200 0.16159
205 0.152081
210 0.102402
215 0.123796
220 0.114473
225 0.122133
230 0.140733
235 0.149774
240 0.101658
245 0.110361
250 0.105519
255 0.124109
260 0.131118
265 0.124917
270 0.109351
275 0.124724
280 0.10667
285 0.114965
290 0.09786
295 0.150303
300 0.0939586
305 0.0968967
310 0.0966257
315 0.120117
320 0.133281
325 0.112471
330 0.0767416
335 0.133731
340 0.1278
345 0.103468
350 0.0995893
355 0.138257
360 0.18688
365 0.108595
370 0.145518
375 0.136822
380 0.158485
385 0.13871
390 0.117789
395 0.139094
400 0.142309
405 0.151088
410 0.181609
415 0.143887
420 0.257421
425 0.221598
430 0.231335
435 0.329497
440 0.383562
445 0.736614
450 21.3596
455 369.308
460 558.346
465 134.929
470 17.0467
475 3.36947
480 1.88353
485 1.85343
490 2.05634
495 2.17912
500 2.05036
505 1.76463
510 1.9714
515 1.92059
520 2.06908
525 2.66736
530 3.65609
535 3.20938
540 2.56332
545 2.35594
550 2.24106
555 1.80622
560 1.56772
565 1.48935
570 1.26396
575 1.00865
580 0.855922
585 0.734884
590 0.539939
595 0.507266
600 0.273872
Ex : 468
200 0.105737
205 0.106192
210 0.125017
215 0.135054
220 0.0990702
225 0.0902729
230 0.11561
235 0.107079
240 0.10709
245 0.131796
250 0.133933
255 0.14041
260 0.119472
265 0.107611
270 0.114161
275 0.0981581
280 0.13556
285 0.0971984
290 0.111482
295 0.122556
300 0.104353
305 0.162494
310 0.162546
315 0.136026
320 0.151062
325 0.127987
330 0.12877
335 0.149411
340 0.10664
345 0.145659
350 0.102599
355 0.127931
360 0.138148
365 0.14616
370 0.119999
375 0.139544
380 0.119028
385 0.142307
390 0.127924
395 0.116378
400 0.123968
405 0.130127
410 0.158659
415 0.144248
420 0.150378
425 0.193261
430 0.228943
435 0.237605
440 0.302963
445 0.390988
450 0.59134
455 23.5774
460 378.774
465 594.249
470 142.603
475 17.7364
480 3.46312
485 1.65434
490 1.7067
495 1.85087
500 1.9272
505 1.81769
510 1.69932
515 1.61835
520 1.86969
525 1.8551
530 2.13379
535 3.23822
540 3.4047
545 2.63382
550 2.12051
555 2.07533
560 1.69942
565 1.47339
570 1.19021
575 1.00183
580 0.808776
585 0.67517
590 0.553194
595 0.453009
600 0.804217
Ex : 473
200 0.157054
205 0.108681
210 0.115084
215 0.152639
220 0.108154
225 0.102858
230 0.101271
235 0.183896
240 0.158435
245 0.125329
250 0.120739
255 0.154286
260 0.112915
265 0.104395
270 0.102419
275 0.070256
280 0.160363
285 0.14296
290 0.0947374
295 0.139516
300 0.154959
305 0.134764
310 0.146466
315 0.137115
320 0.185149
325 0.13891
330 0.157305
335 0.164886
340 0.125017
345 0.117326
350 0.153475
355 0.161758
360 0.107269
365 0.173015
370 0.186386
375 0.190666
380 0.155236
385 0.135855
390 0.133145
395 0.133604
400 0.155535
405 0.122945
410 0.191305
415 0.185802
420 0.134357
425 0.215977
430 0.178552
435 0.17894
440 0.242823
445 0.336892
450 0.49631
455 0.710822
460 27.6508
465 420.334
470 590.708
475 136.55
480 17.085
485 3.27961
490 1.60276
495 1.56244
500 1.77491
505 1.82276
510 1.79139
515 1.61223
520 1.82381
525 1.694
530 1.90795
535 2.05457
540 2.85485
545 3.36145
550 2.60868
555 2.07264
560 1.97714
565 1.66926
570 1.37592
575 1.01368
580 0.83569
585 0.615768
590 0.575564
595 0.525252
600 0.565807
Ex : 478
200 0.122879
205 0.118739
210 0.160691
215 0.124502
220 0.149833
225 0.117387
230 0.161046
235 0.154408
240 0.132956
245 0.180071
250 0.155904
255 0.165132
260 0.125367
265 0.107974
270 0.124142
275 0.138913
280 0.120427
285 0.13719
290 0.1128
295 0.125587
300 0.164052
305 0.125383
310 0.173032
315 0.210331
320 0.160816
325 0.156124
330 0.160678
335 0.176487
340 0.135759
345 0.125743
350 0.179079
355 0.157033
360 0.195066
365 0.174453
370 0.204217
375 0.173518
380 0.13537
385 0.173016
390 0.185117
395 0.254966
400 0.196068
405 0.18942
410 0.170396
415 0.219715
420 0.24984
425 0.190145
430 0.227767
435 0.211509
440 0.16018
445 0.29378
450 0.358672
455 0.557712
460 0.830083
465 30.5358
470 437.986
475 615.386
480 150.123
485 18.7735
490 3.54928
495 1.736
500 1.52875
505 1.62592
510 1.87782
515 1.6951
520 1.67946
525 1.76601
530 1.70642
535 1.87899
540 1.87626
545 2.40822
550 3.14931
555 2.8014
560 2.22404
565 1.80169
570 1.58453
575 1.19507
580 0.862192
585 0.693888
590 0.634695
595 0.591014
600 0.288806
Ex : 483
200 0.169107
205 0.149677
210 0.162384
215 0.131836
220 0.142615
225 0.13882
230 0.136996
235 0.141778
240 0.13639
245 0.121844
250 0.141088
255 0.184585
260 0.203743
265 0.123831
270 0.108632
275 0.180795
280 0.156749
285 0.149344
290 0.133198
295 0.151423
300 0.150368
305 0.173483
310 0.158269
315 0.137758
320 0.163401
325 0.117815
330 0.129928
335 0.133133
340 0.143172
345 0.158217
350 0.175282
355 0.15233
360 0.190762
365 0.165562
370 0.151697
375 0.182991
380 0.170543
385 0.201913
390 0.154307
395 0.145385
400 0.200139
405 0.162632
410 0.183365
415 0.19855
420 0.174279
425 0.136925
430 0.236743
435 0.202364
440 0.214488
445 0.23617
450 0.264888
455 0.390606
460 0.631942
465 0.928321
470 24.9699
475 440.054
480 683.787
485 165.158
490 20.342
495 3.78566
500 1.65332
505 1.38522
510 1.64799
515 1.66852
520 1.76045
525 1.68557
530 1.78845
535 1.76539
540 1.85874
545 2.04647
550 2.27295
555 3.13707
560 2.98603
565 2.31828
570 1.653
575 1.51463
580 1.01559
585 0.916863
590 0.723512
595 0.495692
600 0.656442
Ex : 488
200 0.126193
205 0.161844
210 0.144622
215 0.12289
220 0.174511
225 0.134993
230 0.151531
235 0.182508
240 0.1698
245 0.154178
250 0.158112
255 0.157268
260 0.177763
265 0.125801
270 0.153022
275 0.198807
280 0.195688
285 0.180146
290 0.160074
295 0.212221
300 0.146591
305 0.173531
310 0.189733
315 0.169264
320 0.181763
325 0.131051
330 0.109047
335 0.201697
340 0.159907
345 0.125129
350 0.138938
355 0.15439
360 0.161368
365 0.128525
370 0.152975
375 0.232618
380 0.18019
385 0.16784
390 0.179172
395 0.166987
400 0.161046
405 0.224449
410 0.187076
415 0.233382
420 0.277151
425 0.175458
430 0.158966
435 0.191047
440 0.154369
445 0.227843
450 0.268194
455 0.306528
460 0.435446
465 0.593188
470 0.821767
475 30.6458
480 491.583
485 702.31
490 164.416
495 20.2597
500 3.73764
505 1.73823
510 1.31343
515 1.56579
520 1.84601
525 1.71798
530 1.62503
535 1.87967
540 1.89121
545 2.12321
550 1.90062
555 2.10706
560 2.40147
565 2.65324
570 2.11741
575 1.58764
580 1.15871
585 0.91396
590 0.698625
595 0.614897
600 1.05125
Ex : 493
200 0.16909
205 0.145934
210 0.195483
215 0.171721
220 0.174572
225 0.155316
230 0.136447
235 0.113065
240 0.11557
245 0.174609
250 0.175611
255 0.175142
260 0.167323
265 0.144744
270 0.115037
275 0.226278
280 0.116775
285 0.145548
290 0.103971
295 0.176084
300 0.164468
305 0.151163
310 0.16241
315 0.155119
320 0.201938
325 0.243707
330 0.172302
335 0.163905
340 0.198972
345 0.232621
350 0.204934
355 0.146738
360 0.144897
365 0.180323
370 0.155237
375 0.137464
380 0.217242
385 0.183925
390 0.244921
395 0.225692
400 0.189425
405 0.179416
410 0.18219
415 0.217854
420 0.25602
425 0.258959
430 0.17316
435 0.213206
440 0.279453
445 0.350956
450 0.341665
455 0.290519
460 0.367634
465 0.460336
470 0.692483
475 0.884778
480 29.9438
485 507.817
490 755.803
495 173.642
500 21.2887
505 3.68746
510 1.64991
515 1.44931
520 1.6322
525 1.7988
530 2.0741
535 2.05933
540 2.02775
545 2.13854
550 2.16845
555 2.11298
560 1.98158
565 1.99549
570 2.45701
575 2.13967
580 1.31708
585 1.02649
590 0.835243
595 0.772889
600 0.787586
Ex : 498
200 0.176978
205 0.175612
210 0.175748
215 0.187014
220 0.154837
225 0.214633
230 0.146886
235 0.134525
240 0.149228
245 0.14972
250 0.23974
255 0.153438
260 0.220668
265 0.206044
270 0.175914
275 0.219574
280 0.207779
285 0.148267
290 0.157837
295 0.203748
300 0.169716
305 0.171102
310 0.228731
315 0.167789
320 0.122151
325 0.17519
330 0.167097
335 0.234311
340 0.237699
345 0.160055
350 0.16516
355 0.125359
360 0.160363
365 0.238241
370 0.203729
375 0.245358
380 0.17028
385 0.235291
390 0.210599
395 0.210399
400 0.199307
405 0.237003
410 0.263386
415 0.197527
420 0.233474
425 0.275373
430 0.290693
435 0.24141
440 0.250771
445 0.25259
450 0.28117
455 0.295721
460 0.331173
465 0.407048
470 0.575218
475 0.597376
480 0.936132
485 35.8748
490 526.107
495 739.19
500 175.024
505 21.4571
510 3.83576
515 1.64401
520 1.5175
525 1.68187
530 1.8684
535 2.25589
540 2.39144
545 2.25629
550 2.40267
555 2.19215
560 1.97971
565 1.74624
570 1.63195
575 1.8588
580 1.61076
585 1.24451
590 0.965414
595 0.726738
600 1.13205
Ex : 503
200 0.20836
205 0.2036
210 0.157664
215 0.167423
220 0.21295
225 0.194114
230 0.156104
235 0.190279
240 0.154803
245 0.219269
250 0.194088
255 0.191281
260 0.199326
265 0.175895
270 0.175175
275 0.164632
280 0.175244
285 0.187658
290 0.227819
295 0.180598
300 0.183826
305 0.117657
310 0.201272
315 0.211869
320 0.198204
325 0.188747
330 0.155984
335 0.237858
340 0.175348
345 0.160881
350 0.153998
355 0.121052
360 0.212922
365 0.209167
370 0.203068
375 0.227178
380 0.181506
385 0.192975
390 0.197326
395 0.215677
400 0.281666
405 0.280612
410 0.190973
415 0.218948
420 0.324429
425 0.218604
430 0.200891
435 0.20323
440 0.302021
445 0.203044
450 0.207837
455 0.25362
460 0.390782
465 0.360708
470 0.377929
475 0.554935
480 0.671669
485 1.0274
490 34.0665
495 547.601
500 767.077
505 175.449
510 21.722
515 3.80362
520 1.82177
525 1.6963
530 1.68163
535 2.21353
540 2.44035
545 2.48989
550 2.44496
555 2.1196
560 1.98094
565 1.72609
570 1.4898
575 1.28825
580 1.33002
585 1.41697
590 1.14473
595 0.786281
600 0.654137
Ex : 508
200 0.23101
205 0.207487
210 0.176512
215 0.21715
220 0.228137
225 0.244001
230 0.248355
235 0.193437
240 0.169632
245 0.215807
250 0.193548
255 0.177474
260 0.193008
265 0.163941
270 0.171115
275 0.133291
280 0.174725
285 0.21374
290 0.185276
295 0.188416
300 0.111762
305 0.174155
310 0.139384
315 0.192364
320 0.208225
325 0.215625
330 0.175566
335 0.192372
340 0.158148
345 0.160575
350 0.174605
355 0.186542
360 0.147414
365 0.159327
370 0.259947
375 0.168765
380 0.15949
385 0.178039
390 0.218495
395 0.188244
400 0.209769
405 0.187298
410 0.292678
415 0.269236
420 0.3015
425 0.213236
430 0.280694
435 0.202172
440 0.258671
445 0.272376
450 0.259609
455 0.234466
460 0.337855
465 0.383357
470 0.403311
475 0.364661
480 0.468163
485 0.664304
490 1.12284
495 37.8755
500 558.068
505 774.739
510 187.449
515 23.0682
520 4.12886
525 1.9454
530 1.8563
535 2.22083
540 2.40993
545 2.52062
550 2.6725
555 2.40064
560 2.06997
565 1.66777
570 1.53896
575 1.19668
580 0.916805
585 0.942986
590 1.20285
595 1.03778
600 0.190439
Ex : 513
200 0.151401
205 0.207607
210 0.276698
215 0.154563
220 0.113802
225 0.176314
230 0.191065
235 0.190553
240 0.167707
245 0.207395
250 0.219786
255 0.248808
260 0.176644
265 0.15439
270 0.123953
275 0.210148
280 0.232508
285 0.162675
290 0.21222
295 0.232141
300 0.225123
305 0.230388
310 0.18073
315 0.181694
320 0.279323
325 0.281454
330 0.250996
335 0.194175
340 0.262386
345 0.296168
350 0.24053
355 0.190872
360 0.17374
365 0.198694
370 0.166983
375 0.235365
380 0.243354
385 0.208404
390 0.199231
395 0.212423
400 0.257342
405 0.229376
410 0.178916
415 0.232751
420 0.172042
425 0.235052
430 0.258979
435 0.236403
440 0.242403
445 0.23046
450 0.212375
455 0.23305
460 0.261913
465 0.325538
470 0.302477
475 0.326955
480 0.389863
485 0.556281
490 0.615706
495 0.961552
500 36.9019
505 580.877
510 841.701
515 201.545
520 24.9553
525 4.34834
530 2.60665
535 2.30839
540 2.65528
545 2.94885
550 3.07722
555 2.67959
560 2.45951
565 2.02891
570 1.8439
575 1.49063
580 1.1254
585 0.922083
590 0.835531
595 1.09233
600 0.482113
Ex : 518
200 0.161953
205 0.223135
210 0.218875
215 0.211557
220 0.182131
225 0.232369
230 0.208347
235 0.245873
240 0.209144
245 0.251963
250 0.252948
255 0.194186
260 0.185408
265 0.184022
270 0.206158
275 0.209026
280 0.197692
285 0.199615
290 0.214432
295 0.220801
300 0.198007
305 0.250767
310 0.198349
315 0.117613
320 0.186843
325 0.150663
330 0.24122
335 0.196348
340 0.188392
345 0.192407
350 0.252825
355 0.210614
360 0.210698
365 0.21263
370 0.201192
375 0.179404
380 0.183939
385 0.24929
390 0.238063
395 0.27618
400 0.251724
405 0.251467
410 0.257173
415 0.257539
420 0.266416
425 0.20611
430 0.233388
435 0.259016
440 0.305649
445 0.246567
450 0.330814
455 0.282894
460 0.302129
465 0.267652
470 0.291713
475 0.306016
480 0.359007
485 0.467624
490 0.488562
495 0.69709
500 1.03675
505 35.2975
510 555.687
515 842.528
520 205.882
525 25.359
530 5.05256
535 3.16517
540 3.01494
545 3.28717
550 3.18262
555 3.18646
560 3.05566
565 2.84328
570 2.10127
575 1.54879
580 1.27633
585 0.997219
590 0.970663
595 0.685364
600 0.192477
Ex : 523
200 0.196716
205 0.187216
210 0.176538
215 0.181542
220 0.209275
225 0.215686
230 0.264905
235 0.273555
240 0.248683
245 0.212507
250 0.251977
255 0.20346
260 0.251371
265 0.204332
270 0.248333
275 0.216654
280 0.172111
285 0.212248
290 0.158567
295 0.170439
300 0.357649
305 0.18172
310 0.230655
315 0.203993
320 0.225161
325 0.157673
330 0.195375
335 0.230559
340 0.223707
345 0.300799
350 0.237813
355 0.237802
360 0.249008
365 0.186546
370 0.201587
375 0.203465
380 0.24727
385 0.228154
390 0.239802
395 0.200499
400 0.287337
405 0.234208
410 0.20557
415 0.275016
420 0.244455
425 0.336379
430 0.223345
435 0.253734
440 0.258525
445 0.300279
450 0.247073
455 0.282113
460 0.262683
465 0.329635
470 0.29207
475 0.240914
480 0.363055
485 0.338787
490 0.371219
495 0.478014
500 0.739952
505 0.930623
510 33.6912
515 563.494
520 842.862
525 211.812
530 26.7102
535 5.68736
540 3.90108
545 4.00857
550 4.13797
555 3.81209
560 3.51276
565 3.13224
570 2.40241
575 1.73527
580 1.40253
585 1.16265
590 1.00348
595 0.732341
600 0.655223
Ex : 528
200 0.179512
205 0.228972
210 0.205135
215 0.130092
220 0.184086
225 0.149009
230 0.279763
235 0.201856
240 0.181329
245 0.176021
250 0.18487
255 0.201722
260 0.222316
265 0.215308
270 0.266579
275 0.161292
280 0.191062
285 0.234797
290 0.21917
295 0.236417
300 0.212124
305 0.254663
310 0.189113
315 0.24527
320 0.190528
325 0.292233
330 0.174247
335 0.210114
340 0.243614
345 0.226183
350 0.1908
355 0.313694
360 0.273762
365 0.263073
370 0.202865
375 0.231348
380 0.21522
385 0.262747
390 0.198199
395 0.203403
400 0.253662
405 0.23982
410 0.264262
415 0.274852
420 0.280327
425 0.246457
430 0.287492
435 0.229178
440 0.219764
445 0.198906
450 0.300138
455 0.303506
460 0.283097
465 0.370804
470 0.240031
475 0.316138
480 0.30872
485 0.332775
490 0.314568
495 0.44453
500 0.41436
505 0.667736
510 1.10579
515 33.1383
520 564.51
525 852.372
530 210.369
535 27.4486
540 6.89173
545 4.73511
550 4.53325
555 4.21704
560 3.62864
565 3.09054
570 2.5628
575 1.97641
580 1.383
585 1.09047
590 1.05295
595 0.797782
600 0.985985
Ex : 533
200 0.217767
205 0.21315
210 0.171153
215 0.175037
220 0.189151
225 0.199414
230 0.279276
235 0.216618
240 0.213759
245 0.288995
250 0.230367
255 0.2347
260 0.138292
265 0.289174
270 0.318502
275 0.276603
280 0.215258
285 0.150776
290 0.264567
295 0.181891
300 0.195123
305 0.172296
310 0.192219
315 0.186015
320 0.20392
325 0.236986
330 0.179887
335 0.200568
340 0.181485
345 0.27116
350 0.340794
355 0.254032
360 0.287351
365 0.267683
370 0.257334
375 0.281218
380 0.218094
385 0.195514
390 0.178004
395 0.18772
400 0.249878
405 0.165266
410 0.193902
415 0.171691
420 0.323414
425 0.29338
430 0.280958
435 0.302163
440 0.298768
445 0.290809
450 0.290602
455 0.325595
460 0.245861
465 0.232287
470 0.272526
475 0.327162
480 0.302317
485 0.269898
490 0.489908
495 0.492905
500 0.658
505 0.592054
510 0.607554
515 1.14661
520 33.3802
525 544.111
530 843.743
535 217.491
540 28.6373
545 7.57385
550 5.03029
555 4.33659
560 3.61588
565 2.82865
570 2.60468
575 1.91633
580 1.59429
585 1.2528
590 1.0025
595 0.791608
600 0.238556
Ex : 538
200 0.276656
205 0.210808
210 0.203284
215 0.249484
220 0.256245
225 0.290005
230 0.264672
235 0.186753
240 0.205279
245 0.183182
250 0.179733
255 0.224421
260 0.195078
265 0.239023
270 0.168572
275 0.17752
280 0.229444
285 0.259928
290 0.255309
295 0.303738
300 0.204859
305 0.238691
310 0.181827
315 0.222054
320 0.220234
325 0.220591
330 0.266086
335 0.199102
340 0.285992
345 0.28738
350 0.294862
355 0.315277
360 0.277044
365 0.215181
370 0.176256
375 0.262957
380 0.169814
385 0.190643
390 0.258031
395 0.215145
400 0.251468
405 0.280946
410 0.189344
415 0.266112
420 0.342775
425 0.25241
430 0.202946
435 0.238427
440 0.299259
445 0.307354
450 0.246761
455 0.268917
460 0.247669
465 0.271618
470 0.245676
475 0.27994
480 0.384795
485 0.322899
490 0.332954
495 0.302976
500 0.364899
505 0.472166
510 0.535847
515 0.804484
520 1.1976
525 27.2901
530 505.393
535 836.949
540 228.104
545 30.3097
550 7.29188
555 4.0777
560 3.50676
565 2.85319
570 2.24718
575 1.6175
580 1.47971
585 1.18277
590 0.849659
595 0.783172
600 0.32052
Ex : 543
200 0.251342
205 0.182177
210 0.234349
215 0.199542
220 0.201467
225 0.190683
230 0.330644
235 0.219773
240 0.267972
245 0.200198
250 0.25146
255 0.198259
260 0.301448
265 0.191318
270 0.205951
275 0.219597
280 0.195866
285 0.202762
290 0.20502
295 0.245474
300 0.17087
305 0.255624
310 0.170205
315 0.249258
320 0.215561
325 0.249372
330 0.303794
335 0.225606
340 0.224856
345 0.333607
350 0.251736
355 0.248573
360 0.234006
365 0.250516
370 0.2573
375 0.268019
380 0.270036
385 0.288532
390 0.215741
395 0.195504
400 0.309376
405 0.237699
410 0.291364
415 0.366453
420 0.216042
425 0.25875
430 0.270357
435 0.274572
440 0.250465
445 0.22804
450 0.233968
455 0.285964
460 0.257383
465 0.361438
470 0.255625
475 0.322439
480 0.256292
485 0.35522
490 0.335666
495 0.317286
500 0.466436
505 0.48338
510 0.464314
515 0.587998
520 0.789403
525 1.34257
530 25.2783
535 501.132
540 831.451
545 229.636
550 29.7573
555 5.84897
560 3.21096
565 2.41123
570 1.8087
575 1.34403
580 1.07589
585 0.909553
590 0.867788
595 0.741868
600 0.955731
Ex : 548
200 0.208718
205 0.241826
210 0.239342
215 0.182957
220 0.220319
225 0.20499
230 0.133259
235 0.171667
240 0.186803
245 0.243841
250 0.30965
255 0.196122
260 0.297163
265 0.305708
270 0.21581
275 0.202041
280 0.255738
285 0.327694
290 0.229014
295 0.240654
300 0.194874
305 0.187886
310 0.21686
315 0.234766
320 0.249241
325 0.279784
330 0.212504
335 0.343356
340 0.238177
345 0.235263
350 0.192844
355 0.215787
360 0.225309
365 0.288097
370 0.294427
375 0.276886
380 0.248799
385 0.305213
390 0.313364
395 0.209153
400 0.270272
405 0.236274
410 0.227755
415 0.28076
420 0.299719
425 0.315634
430 0.333724
435 0.268004
440 0.265771
445 0.255735
450 0.36211
455 0.346319
460 0.350218
465 0.346196
470 0.277473
475 0.295745
480 0.290615
485 0.373218
490 0.287716
495 0.240086
500 0.298008
505 0.364892
510 0.506947
515 0.489314
520 0.609894
525 0.764117
530 1.51298
535 29.7383
540 513.84
545 820.417
550 227.711
555 28.7131
560 5.0651
565 1.93767
570 1.312
575 1.1966
580 0.928889
585 0.672967
590 0.735155
595 0.641805
600 0.297075
Ex : 553
200 0.342502
205 0.290216
210 0.201303
215 0.241668
220 0.230294
225 0.252469
230 0.222011
235 0.215689
240 0.223868
245 0.225174
250 0.192926
255 0.276622
260 0.182261
265 0.249454
270 0.179791
275 0.216448
280 0.344336
285 0.219552
290 0.31689
295 0.297457
300 0.259909
305 0.141856
310 0.213077
315 0.238378
320 0.224547
325 0.208711
330 0.178902
335 0.223559
340 0.349817
345 0.230289
350 0.225798
355 0.241028
360 0.285743
365 0.22382
370 0.31041
375 0.355407
380 0.330746
385 0.232617
390 0.281509
395 0.270527
400 0.256832
405 0.283409
410 0.259736
415 0.269989
420 0.282838
425 0.262268
430 0.325835
435 0.233305
440 0.333139
445 0.376201
450 0.34409
455 0.319551
460 0.298461
465 0.290175
470 0.254041
475 0.318131
480 0.236203
485 0.254053
490 0.316577
495 0.259605
500 0.291659
505 0.294974
510 0.421774
515 0.422991
520 0.552664
525 0.542115
530 0.9655
535 1.33372
540 24.7619
545 461.873
550 804.721
555 228.362
560 28.1896
565 4.56626
570 1.48726
575 0.967102
580 0.76231
585 0.612826
590 0.542729
595 0.452354
600 0.554177
Ex : 558
200 0.242429
205 0.158877
210 0.202318
215 0.190662
220 0.226096
225 0.208183
230 0.217523
235 0.225964
240 0.278016
245 0.219136
250 0.226072
255 0.265073
260 0.205599
265 0.235455
270 0.173442
275 0.225133
280 0.235462
285 0.305754
290 0.307778
295 0.230909
300 0.239907
305 0.265928
310 0.268011
315 0.226962
320 0.3147
325 0.206196
330 0.371856
335 0.295499
340 0.289063
345 0.322885
350 0.265179
355 0.257925
360 0.25116
365 0.233615
370 0.289795
375 0.308113
380 0.290246
385 0.272233
390 0.258878
395 0.302809
400 0.384746
405 0.327471
410 0.299427
415 0.243652
420 0.339401
425 0.27509
430 0.275761
435 0.207722
440 0.304903
445 0.261905
450 0.277152
455 0.265193
460 0.475744
465 0.413884
470 0.348864
475 0.337297
480 0.367537
485 0.340354
490 0.2607
495 0.309275
500 0.284576
505 0.442362
510 0.402393
515 0.431147
520 0.375838
525 0.427974
530 0.823305
535 0.918026
540 1.22022
545 22.4002
550 450.051
555 803.716
560 229.228
565 28.0415
570 4.11606
575 1.23017
580 0.809231
585 0.723232
590 0.489205
595 0.500578
600 0.20735
Ex : 563
200 0.258074
205 0.264307
210 0.180222
215 0.222396
220 0.246892
225 0.190859
230 0.227421
235 0.258566
240 0.259486
245 0.201496
250 0.226388
255 0.270489
260 0.251199
265 0.258047
270 0.235354
275 0.256627
280 0.340863
285 0.272409
290 0.259856
295 0.231683
300 0.271299
305 0.230727
310 0.23479
315 0.279271
320 0.177179
325 0.237311
330 0.317712
335 0.326842
340 0.214674
345 0.278414
350 0.284618
355 0.250244
360 0.210907
365 0.270869
370 0.295863
375 0.432486
380 0.3199
385 0.340794
390 0.368205
395 0.352618
400 0.302366
405 0.277651
410 0.262472
415 0.309743
420 0.24094
425 0.272513
430 0.307374
435 0.286375
440 0.29545
445 0.237299
450 0.316374
455 0.371794
460 0.317751
465 0.263188
470 0.367132
475 0.378918
480 0.268718
485 0.317437
490 0.275226
495 0.287204
500 0.310962
505 0.390666
510 0.396508
515 0.337827
520 0.397454
525 0.394295
530 0.605981
535 0.558963
540 0.786839
545 1.15418
550 22.1874
555 453.671
560 779.621
565 221.863
570 26.9886
575 3.89149
580 0.995897
585 0.766848
590 0.430075
595 0.500135
600 1.48933
Ex : 568
200 0.24175
205 0.295991
210 0.232167
215 0.241245
220 0.237545
225 0.287888
230 0.289128
235 0.311567
240 0.193481
245 0.184292
250 0.23985
255 0.340521
260 0.282989
265 0.283973
270 0.206922
275 0.259996
280 0.302296
285 0.331724
290 0.282986
295 0.247363
300 0.310673
305 0.403511
310 0.359559
315 0.29734
320 0.210473
325 0.237372
330 0.332492
335 0.394319
340 0.257145
345 0.229302
350 0.255022
355 0.25774
360 0.290276
365 0.256195
370 0.291524
375 0.335504
380 0.278387
385 0.331019
390 0.31849
395 0.265812
400 0.320542
405 0.328592
410 0.26467
415 0.237665
420 0.330652
425 0.267582
430 0.252343
435 0.321881
440 0.304786
445 0.258047
450 0.319167
455 0.371253
460 0.376334
465 0.475968
470 0.365798
475 0.265401
480 0.305666
485 0.267163
490 0.288947
495 0.296031
500 0.24156
505 0.388094
510 0.36561
515 0.384758
520 0.375629
525 0.378649
530 0.430339
535 0.506388
540 0.665253
545 0.757293
550 0.871604
555 17.6573
560 395.934
565 731.443
570 222.949
575 26.9932
580 3.84466
585 0.93543
590 0.568637
595 0.599369
600 0.369343
Ex : 573
200 0.264279
205 0.197402
210 0.26589
215 0.211854
220 0.311796
225 0.326676
230 0.334186
235 0.294182
240 0.404043
245 0.241727
250 0.288865
255 0.204118
260 0.268577
265 0.247851
270 0.245647
275 0.196948
280 0.327655
285 0.277502
290 0.339879
295 0.211402
300 0.272739
305 0.290578
310 0.238697
315 0.311531
320 0.243812
325 0.300293
330 0.241241
335 0.261057
340 0.277991
345 0.245079
350 0.365309
355 0.266934
360 0.364222
365 0.273899
370 0.265694
375 0.340188
380 0.265944
385 0.277533
390 0.303836
395 0.26876
400 0.293299
405 0.319873
410 0.280582
415 0.282256
420 0.224926
425 0.269678
430 0.299144
435 0.268545
440 0.27102
445 0.331933
450 0.247492
455 0.403779
460 0.332202
465 0.321738
470 0.350267
475 0.365648
480 0.299404
485 0.372481
490 0.332026
495 0.297428
500 0.405046
505 0.315333
510 0.343256
515 0.30298
520 0.363059
525 0.419242
530 0.423187
535 0.448519
540 0.516058
545 0.506327
550 0.617726
555 0.823717
560 15.3267
565 345.717
570 679.998
575 206.903
580 25.059
585 3.54329
590 0.932577
595 0.546402
600 0.717969
Ex : 578
200 0.247805
205 0.235547
210 0.234093
215 0.226549
220 0.166204
225 0.252262
230 0.257889
235 0.184984
240 0.330245
245 0.241227
250 0.298945
255 0.219375
260 0.351468
265 0.225803
270 0.295826
275 0.221928
280 0.290783
285 0.194244
290 0.199461
295 0.243343
300 0.26986
305 0.227546
310 0.209061
315 0.251168
320 0.244491
325 0.310489
330 0.314763
335 0.267229
340 0.221779
345 0.279579
350 0.225541
355 0.328318
360 0.27954
365 0.203843
370 0.37568
375 0.287017
380 0.259975
385 0.231645
390 0.278162
395 0.333756
400 0.319868
405 0.352322
410 0.30161
415 0.288186
420 0.252896
425 0.247112
430 0.291792
435 0.340179
440 0.282862
445 0.26358
450 0.254846
455 0.383482
460 0.292811
465 0.329495
470 0.293555
475 0.319506
480 0.435527
485 0.30846
490 0.351738
495 0.331032
500 0.279375
505 0.334394
510 0.288772
515 0.332421
520 0.289413
525 0.458023
530 0.362467
535 0.44629
540 0.466561
545 0.383517
550 0.57859
555 0.588009
560 0.763913
565 13.1262
570 314.936
575 613.282
580 180.022
585 21.6731
590 2.9939
595 0.858284
600 0.199463
Ex : 583
200 0.310806
205 0.433229
210 0.382291
215 0.26751
220 0.304451
225 0.251929
230 0.319612
235 0.315911
240 0.298473
245 0.350552
250 0.240776
255 0.247313
260 0.348049
265 0.181214
270 0.262313
275 0.259287
280 0.397818
285 0.38468
290 0.267076
295 0.290183
300 0.182857
305 0.288765
310 0.205492
315 0.288442
320 0.378776
325 0.31274
330 0.372547
335 0.300416
340 0.238097
345 0.293687
350 0.351888
355 0.319336
360 0.241088
365 0.393456
370 0.254688
375 0.29838
380 0.349907
385 0.218663
390 0.260927
395 0.418169
400 0.260729
405 0.209819
410 0.368223
415 0.354654
420 0.424523
425 0.331716
430 0.297505
435 0.279359
440 0.262137
445 0.42126
450 0.338494
455 0.343747
460 0.388711
465 0.430871
470 0.280015
475 0.231075
480 0.313505
485 0.344044
490 0.314706
495 0.3212
500 0.290306
505 0.368084
510 0.236973
515 0.272287
520 0.29429
525 0.246041
530 0.330428
535 0.355526
540 0.315635
545 0.425687
550 0.44608
555 0.602768
560 0.621391
565 0.793761
570 11.2068
575 270.335
580 518.774
585 151.842
590 18.3749
595 2.50947
600 1.28952
Ex : 588
200 0.30243
205 0.23176
210 0.275119
215 0.246005
220 0.23308
225 0.41233
230 0.183369
235 0.288764
240 0.255064
245 0.260027
250 0.26339
255 0.320334
260 0.351067
265 0.309229
270 0.301281
275 0.237004
280 0.253749
285 0.266799
290 0.213316
295 0.236649
300 0.213855
305 0.295526
310 0.223805
315 0.209192
320 0.145781
325 0.254806
330 0.275806
335 0.37742
340 0.269806
345 0.438762
350 0.260683
355 0.305251
360 0.235581
365 0.254474
370 0.218892
375 0.289388
380 0.247441
385 0.345308
390 0.256403
395 0.352246
400 0.326387
405 0.268812
410 0.286341
415 0.400321
420 0.282977
425 0.262743
430 0.229461
435 0.228449
440 0.271865
445 0.36123
450 0.311192
455 0.440763
460 0.319912
465 0.280679
470 0.315322
475 0.216948
480 0.297697
485 0.309147
490 0.30567
495 0.305945
500 0.337109
505 0.304069
510 0.311243
515 0.364554
520 0.317658
525 0.24944
530 0.368063
535 0.265085
540 0.38385
545 0.386119
550 0.309246
555 0.465281
560 0.454113
565 0.528804
570 0.692284
575 10.2805
580 236.773
585 439.176
590 134.464
595 16.2851
600 2.11839
Ex : 593
200 0.282402
205 0.256979
210 0.323528
215 0.298646
220 0.325269
225 0.312137
230 0.295557
235 0.312629
240 0.339468
245 0.316178
250 0.297139
255 0.367866
260 0.27133
265 0.231344
270 0.225746
275 0.262704
280 0.22981
285 0.253214
290 0.297884
295 0.408559
300 0.313559
305 0.253289
310 0.270719
315 0.228472
320 0.414043
325 0.200016
330 0.383308
335 0.399606
340 0.245833
345 0.328402
350 0.316222
355 0.217487
360 0.311989
365 0.214323
370 0.239144
375 0.337913
380 0.255502
385 0.282093
390 0.217638
395 0.500842
400 0.330914
405 0.204091
410 0.24952
415 0.299854
420 0.291557
425 0.249298
430 0.40051
435 0.328023
440 0.22468
445 0.175894
450 0.309209
455 0.268246
460 0.280863
465 0.39078
470 0.368995
475 0.342813
480 0.238847
485 0.343979
490 0.442561
495 0.269748
500 0.309764
505 0.316902
510 0.271328
515 0.322211
520 0.484486
525 0.305334
530 0.340535
535 0.270642
540 0.384669
545 0.398671
550 0.324281
555 0.35361
560 0.490017
565 0.490079
570 0.636994
575 0.63521
580 8.13472
585 208.967
590 386.288
595 115.514
600 16.5245
Ex : 598
200 0.228077
205 0.194835
210 0.273243
215 0.299961
220 0.307783
225 0.34605
230 0.257218
235 0.228306
240 0.185875
245 0.383101
250 0.264727
255 0.244866
260 0.221915
265 0.190233
270 0.303431
275 0.287298
280 0.318544
285 0.272436
290 0.371439
295 0.208756
300 0.281622
305 0.256324
310 0.179276
315 0.350054
320 0.314927
325 0.218242
330 0.458343
335 0.31131
340 0.347857
345 0.249355
350 0.353916
355 0.328739
360 0.258291
365 0.340594
370 0.422808
375 0.274186
380 0.381799
385 0.257954
390 0.339927
395 0.347407
400 0.2775
405 0.319259
410 0.336824
415 0.33155
420 0.355475
425 0.325321
430 0.314225
435 0.369529
440 0.280928
445 0.288279
450 0.345128
455 0.315057
460 0.392053
465 0.295092
470 0.270842
475 0.221838
480 0.205506
485 0.250934
490 0.360861
495 0.297725
500 0.320045
505 0.302315
510 0.341676
515 0.316919
520 0.324135
525 0.318249
530 0.386828
535 0.340602
540 0.313036
545 0.430534
550 0.466099
555 0.356685
560 0.304465
565 0.398734
570 0.542954
575 0.507481
580 0.698851
585 8.41712
590 189.756
595 339.02
600 216.817
Ex : 603
200 0.25561
205 0.229816
210 0.369543
215 0.265831
220 0.259664
225 0.325415
230 0.291957
235 0.328625
240 0.201515
245 0.238981
250 0.288686
255 0.252781
260 0.209698
265 0.265698
270 0.228991
275 0.340215
280 0.25262
285 0.31579
290 0.289312
295 0.205074
300 0.204725
305 0.288333
310 0.285713
315 0.283645
320 0.231003
325 0.301382
330 0.322404
335 0.257065
340 0.332865
345 0.210775
350 0.317347
355 0.331223
360 0.287312
365 0.309262
370 0.313883
375 0.397413
380 0.590634
385 0.299225
390 0.410016
395 0.377589
400 0.445423
405 0.398352
410 0.356676
415 0.240993
420 0.381555
425 0.319933
430 0.41744
435 0.354688
440 0.417086
445 0.260616
450 0.200384
455 0.540581
460 0.332732
465 0.32377
470 0.276686
475 0.243127
480 0.316844
485 0.366268
490 0.250784
495 0.260535
500 0.294092
505 0.350542
510 0.309097
515 0.224714
520 0.37348
525 0.32571
530 0.356549
535 0.327302
540 0.290172
545 0.272976
550 0.322347
555 0.294051
560 0.347085
565 0.328264
570 0.387763
575 0.444387
580 0.442588
585 0.597834
590 8.18879
595 166.751
600 328.975
