File format V 1.0
ven. 13. janv. 00:19:06 2017
Operator : 
Comments : 

=============================================
SpectroFluorometer parameters
Mode : 3D measurement
Data : Fluorescence
Phospho. : Ordinary
Spectrum : Fluorescence

Scan speed : 2400 nm/mn
Response : 100 ms
PM Voltage : 700 V
Shutter : On

Lambda Ex. Start : 203
Lambda Ex. End : 603
Lambda Ex. Step : 5
Ex. Slit : 5 nm

Lambda Em. Start : 200
Lambda Em. End : 600
Lambda Em. Step : 5
Em. Slit : 5 nm

Repetition : 1
Decal lambda em : 10
=============================================
DATA
Ex : 203
200 7.09314
205 6.37928
210 5.93187
215 6.29062
220 4.39274
225 7.14853
230 5.30604
235 8.6089
240 5.47985
245 4.93265
250 6.65807
255 7.93547
260 7.20064
265 8.10224
270 8.23649
275 8.40235
280 7.61909
285 7.1742
290 6.87291
295 6.27744
300 5.88236
305 10.954
310 6.50293
315 9.06681
320 5.04699
325 5.84232
330 7.6918
335 11.4489
340 5.60428
345 7.5677
350 7.03802
355 6.72944
360 11.7818
365 9.1936
370 8.56138
375 6.51609
380 6.48053
385 8.77894
390 8.9793
395 6.09695
400 7.24187
405 6.11046
410 6.81595
415 8.76964
420 5.95702
425 5.59489
430 6.1975
435 6.56244
440 6.65341
445 12.2905
450 6.55847
455 8.57966
460 5.21452
465 6.14069
470 6.24062
475 8.64055
480 9.95398
485 5.49131
490 7.55838
495 7.50221
500 6.63598
505 7.25947
510 8.18581
515 8.86093
520 5.47904
525 8.11984
530 8.73397
535 8.33556
540 6.92207
545 7.56871
550 6.46227
555 8.26599
560 7.19071
565 7.26462
570 8.89363
575 7.6812
580 7.87205
585 6.57638
590 5.61801
595 8.68095
600 0.987859
Ex : 208
200 11.9087
205 7.4931
210 6.25595
215 7.97538
220 11.0629
225 7.36341
230 5.89378
235 7.12732
240 5.95786
245 7.92713
250 6.17353
255 5.52017
260 9.60099
265 6.35358
270 6.92644
275 6.1971
280 8.83012
285 5.70171
290 9.67732
295 5.97536
300 5.0848
305 7.33922
310 11.0492
315 6.8327
320 5.32095
325 6.24299
330 7.10771
335 8.80138
340 7.40482
345 8.49395
350 9.05997
355 7.13736
360 6.27208
365 5.45136
370 4.91843
375 7.11848
380 4.95424
385 6.25062
390 6.29644
395 4.88444
400 8.37828
405 5.89773
410 5.83328
415 6.58832
420 5.24857
425 5.03274
430 12.9439
435 9.71588
440 6.61979
445 6.22037
450 6.75015
455 8.1901
460 6.67268
465 6.90395
470 8.53769
475 5.52481
480 8.04604
485 6.5152
490 5.75019
495 9.55149
500 6.76772
505 7.21249
510 7.50677
515 7.26355
520 4.73779
525 7.4965
530 6.10481
535 4.54758
540 8.90689
545 8.23226
550 9.84807
555 6.69954
560 5.95797
565 4.92508
570 6.11429
575 5.07543
580 4.6723
585 7.57701
590 8.40547
595 5.89815
600 4.74772
Ex : 213
200 6.67857
205 6.79805
210 6.23575
215 6.59595
220 5.79333
225 8.53562
230 6.33453
235 7.1082
240 7.01666
245 9.91916
250 7.6773
255 5.46974
260 7.00921
265 6.3027
270 8.00571
275 7.88161
280 8.02976
285 5.99754
290 7.31789
295 5.78252
300 12.5901
305 4.73062
310 7.76364
315 4.72645
320 7.11985
325 6.19728
330 6.46349
335 7.37581
340 6.14761
345 7.03508
350 5.18166
355 7.54883
360 5.54209
365 3.51186
370 5.86523
375 8.31947
380 8.07028
385 7.42552
390 6.09892
395 5.7815
400 6.06418
405 9.52156
410 10.5025
415 6.28576
420 9.56913
425 7.06153
430 6.92495
435 10.5732
440 8.85161
445 6.77841
450 7.87795
455 6.57251
460 8.2848
465 5.9575
470 8.61615
475 9.07269
480 6.1925
485 5.41669
490 7.11951
495 6.41459
500 6.05161
505 7.15125
510 6.63003
515 5.39159
520 7.04432
525 8.15668
530 8.13342
535 8.45828
540 7.23845
545 8.01325
550 6.72646
555 8.16736
560 6.34606
565 9.15425
570 7.71333
575 7.54518
580 8.12462
585 8.57892
590 6.42748
595 5.45343
600 0.62058
Ex : 218
200 6.5404
205 6.02457
210 5.89829
215 8.46888
220 7.56329
225 6.04892
230 7.23022
235 7.54679
240 5.89365
245 6.06279
250 7.90492
255 7.62263
260 7.08311
265 6.18874
270 6.90344
275 7.65366
280 6.6422
285 5.9507
290 6.76665
295 6.2717
300 4.91588
305 6.33264
310 8.48795
315 5.29387
320 6.50257
325 8.48328
330 8.27764
335 6.15976
340 8.36726
345 5.70839
350 7.47423
355 5.04553
360 5.73726
365 5.01268
370 5.87044
375 7.37554
380 8.64572
385 9.24556
390 6.02587
395 6.66045
400 7.4843
405 9.45334
410 6.91403
415 6.2738
420 6.27176
425 7.09355
430 4.70737
435 8.24909
440 6.02534
445 7.4559
450 7.88374
455 6.3455
460 8.33226
465 6.07035
470 8.59778
475 8.83171
480 5.81772
485 8.75436
490 9.00413
495 5.90712
500 6.14783
505 9.61497
510 6.88152
515 5.50951
520 7.17059
525 6.11094
530 9.36291
535 7.88966
540 10.0553
545 6.75259
550 6.86783
555 4.82107
560 6.35818
565 6.74128
570 4.52932
575 4.49293
580 7.35215
585 6.32003
590 7.64976
595 6.84594
600 11.4135
Ex : 223
200 11.6452
205 8.86784
210 4.76713
215 5.18685
220 7.62368
225 5.75971
230 5.87937
235 4.42639
240 6.83921
245 6.48426
250 4.28664
255 8.15284
260 9.11662
265 8.38144
270 6.72065
275 7.20341
280 8.2886
285 5.3902
290 8.52899
295 7.26836
300 6.42994
305 7.61936
310 4.46647
315 6.6182
320 7.64154
325 5.19088
330 6.52301
335 5.96559
340 4.30827
345 6.3197
350 7.53108
355 5.73531
360 6.55358
365 5.5071
370 7.24141
375 7.0145
380 8.91466
385 6.49085
390 7.48615
395 8.64552
400 6.6686
405 4.95095
410 5.09971
415 7.82045
420 7.33727
425 9.04573
430 6.07991
435 8.18626
440 8.87348
445 5.40437
450 6.6763
455 8.04131
460 6.6754
465 9.34623
470 7.44339
475 8.78577
480 7.58301
485 7.56909
490 7.85572
495 5.55086
500 7.31042
505 5.78807
510 8.63449
515 6.65969
520 4.57378
525 3.44232
530 7.51147
535 8.51174
540 6.54672
545 5.3114
550 7.04991
555 5.50472
560 6.38271
565 6.1334
570 5.44667
575 6.82719
580 5.74927
585 5.7123
590 7.11462
595 8.60047
600 0.9787
Ex : 228
200 6.57522
205 7.04185
210 6.35641
215 6.93512
220 5.08728
225 6.19548
230 5.76041
235 6.82825
240 7.59368
245 7.16872
250 5.64997
255 6.08268
260 6.66371
265 6.75996
270 6.42639
275 6.23085
280 9.32405
285 5.69462
290 6.24243
295 5.93291
300 6.1893
305 5.8712
310 5.154
315 9.10577
320 4.61554
325 6.80416
330 5.47484
335 6.2065
340 5.81097
345 8.68703
350 8.10235
355 7.99075
360 6.66964
365 6.27358
370 4.63076
375 6.62959
380 6.58261
385 5.4067
390 7.15706
395 7.77399
400 7.31155
405 6.5607
410 6.17763
415 7.93361
420 5.12099
425 7.74522
430 5.62698
435 5.07919
440 8.31251
445 7.14134
450 7.67452
455 5.82802
460 6.52922
465 8.73039
470 6.76357
475 7.05178
480 5.54577
485 4.98626
490 8.16113
495 5.94539
500 7.82527
505 6.30921
510 8.59712
515 7.54354
520 5.90939
525 6.91961
530 5.21844
535 5.95537
540 6.62214
545 6.12719
550 6.02257
555 8.85193
560 7.49324
565 5.85509
570 8.04616
575 6.1874
580 5.92868
585 7.7797
590 6.98238
595 4.8658
600 0.55371
Ex : 233
200 5.18595
205 6.70864
210 7.12652
215 6.53374
220 5.73386
225 6.63041
230 6.73546
235 4.88016
240 8.09378
245 6.81037
250 3.84545
255 4.25096
260 4.80155
265 7.25892
270 6.7468
275 5.42313
280 6.82056
285 7.64517
290 6.41922
295 5.47879
300 10.7305
305 9.56069
310 8.51875
315 7.54112
320 5.88755
325 4.80171
330 4.16782
335 6.43429
340 5.11419
345 5.85193
350 6.05017
355 5.26174
360 5.94815
365 5.97185
370 4.98292
375 5.71237
380 5.51841
385 6.29067
390 11.6994
395 5.89929
400 7.34019
405 6.19489
410 6.54602
415 7.65436
420 7.03368
425 5.74623
430 6.33946
435 8.49547
440 7.66463
445 5.42013
450 5.22819
455 5.53621
460 10.7532
465 7.47415
470 7.32128
475 4.84047
480 7.28446
485 5.96971
490 7.37888
495 9.34802
500 6.97436
505 7.84509
510 5.80124
515 6.31709
520 6.12197
525 6.16472
530 5.46668
535 4.69343
540 7.16365
545 6.6399
550 7.77072
555 7.24455
560 6.16802
565 5.44701
570 8.15814
575 5.74437
580 8.97219
585 5.75116
590 8.07864
595 6.68343
600 0.760549
Ex : 238
200 5.44
205 5.33219
210 3.62949
215 5.78563
220 5.48245
225 5.61144
230 4.35269
235 6.66167
240 6.09234
245 4.12016
250 3.94318
255 5.92801
260 4.55219
265 6.01531
270 6.45691
275 4.54126
280 5.27193
285 4.25376
290 7.12197
295 4.94722
300 7.33066
305 6.90452
310 4.47703
315 5.19071
320 6.76823
325 8.15751
330 5.52229
335 4.84843
340 5.22
345 3.93135
350 3.98864
355 5.92275
360 8.64636
365 6.95034
370 5.1607
375 4.39555
380 4.63581
385 3.66835
390 4.1936
395 4.20736
400 4.31786
405 5.60298
410 3.59161
415 6.67896
420 6.4303
425 6.49556
430 7.11356
435 5.74349
440 5.25208
445 6.65614
450 6.33241
455 4.46652
460 5.52086
465 5.94208
470 5.51003
475 4.94425
480 4.77382
485 6.14883
490 6.24462
495 6.89653
500 4.42456
505 4.80177
510 5.08865
515 4.05599
520 4.55514
525 5.83915
530 6.98382
535 6.75141
540 5.54178
545 4.78426
550 4.98556
555 7.30743
560 7.27826
565 5.63906
570 5.29015
575 6.55173
580 6.22702
585 7.78434
590 4.30357
595 5.22792
600 3.12693
Ex : 243
200 3.97241
205 3.42672
210 2.86343
215 4.39802
220 3.01634
225 5.70936
230 7.22138
235 6.58209
240 4.26565
245 4.63705
250 5.02833
255 4.79415
260 4.54103
265 3.8993
270 3.42998
275 4.87162
280 4.40981
285 4.86231
290 5.70437
295 5.18662
300 5.01194
305 6.54258
310 6.62373
315 5.38952
320 4.92515
325 4.37676
330 5.52829
335 6.3193
340 5.79231
345 5.68911
350 5.2667
355 3.83604
360 4.29012
365 5.21989
370 4.36834
375 4.89107
380 6.51047
385 5.32561
390 6.34122
395 6.01729
400 7.29394
405 5.07642
410 5.69937
415 7.26194
420 5.70523
425 4.94295
430 4.86234
435 6.16694
440 4.83739
445 5.77614
450 6.16554
455 6.58052
460 3.85564
465 5.01592
470 4.89298
475 5.81178
480 5.2976
485 5.33454
490 4.93173
495 3.8837
500 3.7194
505 5.88714
510 5.11073
515 5.87101
520 4.14852
525 8.82772
530 5.49275
535 5.14153
540 4.84994
545 4.52485
550 8.17629
555 5.32806
560 5.2255
565 4.79341
570 6.90398
575 5.28436
580 4.13322
585 3.83066
590 3.89707
595 3.82312
600 13.4327
Ex : 248
200 3.84438
205 4.8488
210 5.66427
215 6.03247
220 4.84754
225 5.29711
230 4.92371
235 5.20258
240 4.1867
245 3.76464
250 4.61976
255 5.31498
260 6.39964
265 5.48678
270 4.22068
275 4.52601
280 3.64174
285 5.15007
290 5.85
295 4.47832
300 4.09237
305 4.20328
310 3.43408
315 3.57426
320 4.31032
325 3.28246
330 3.42449
335 4.826
340 5.57993
345 4.84512
350 4.77665
355 4.70191
360 4.90882
365 4.6511
370 2.5821
375 3.66611
380 4.31807
385 4.88446
390 5.56974
395 3.96737
400 4.35744
405 3.41218
410 3.74241
415 4.78281
420 4.48895
425 5.61305
430 7.13491
435 6.41927
440 4.34694
445 5.68643
450 8.9025
455 4.55789
460 5.14692
465 4.75005
470 6.10186
475 6.14358
480 5.02778
485 5.84464
490 5.1645
495 5.26167
500 3.87026
505 7.32596
510 5.18641
515 5.22313
520 5.35772
525 5.68597
530 6.06852
535 3.61064
540 4.25756
545 5.57598
550 6.08344
555 4.38878
560 4.15166
565 5.72949
570 6.46954
575 6.06654
580 6.80403
585 6.62106
590 4.40837
595 3.30102
600 0.486419
Ex : 253
200 3.32722
205 3.06479
210 3.89358
215 4.48809
220 4.84277
225 4.30679
230 3.55899
235 4.33285
240 4.53172
245 2.63223
250 3.02724
255 4.50266
260 2.95345
265 3.32373
270 6.76541
275 3.98295
280 3.63986
285 3.07281
290 4.20902
295 3.03551
300 3.66811
305 4.50277
310 3.16001
315 4.81581
320 3.96988
325 4.57672
330 4.36024
335 4.38184
340 4.00276
345 2.91845
350 3.25821
355 2.99458
360 3.21345
365 2.89403
370 4.3522
375 2.59246
380 3.30857
385 4.14463
390 3.73186
395 5.17472
400 3.2911
405 3.99201
410 4.5193
415 3.70001
420 4.41243
425 4.61913
430 6.3622
435 3.07883
440 5.29609
445 3.56044
450 3.25022
455 4.34519
460 3.98992
465 4.05395
470 6.06117
475 3.72197
480 4.99571
485 3.55408
490 3.83326
495 4.75074
500 3.93272
505 3.08787
510 4.1464
515 4.1939
520 3.40309
525 3.79891
530 3.17953
535 3.94671
540 6.13656
545 3.23327
550 4.01122
555 3.01946
560 4.95963
565 4.6814
570 2.62147
575 3.26396
580 4.17295
585 3.80463
590 5.87678
595 5.3032
600 4.93604
Ex : 258
200 3.99405
205 2.73094
210 2.13728
215 3.13324
220 3.85872
225 3.17172
230 2.68352
235 3.73089
240 2.3225
245 2.85726
250 3.40957
255 2.32506
260 2.68489
265 2.86979
270 3.1635
275 2.79067
280 3.02003
285 2.65575
290 2.91697
295 3.39957
300 2.24568
305 2.4496
310 1.72486
315 4.0661
320 2.64512
325 3.86596
330 3.87004
335 3.24332
340 2.36071
345 2.69533
350 3.3009
355 2.12957
360 2.67513
365 2.99559
370 4.15613
375 3.46204
380 3.16899
385 2.8431
390 4.08391
395 3.88188
400 3.19983
405 2.79985
410 3.23463
415 3.257
420 3.15103
425 2.82887
430 2.59555
435 2.29943
440 2.31639
445 4.03959
450 3.68653
455 3.30857
460 3.21714
465 3.26031
470 3.77542
475 2.82922
480 3.16694
485 3.17946
490 3.1353
495 3.83973
500 3.5709
505 3.57582
510 2.84028
515 3.22149
520 4.32172
525 3.57284
530 2.96918
535 3.61665
540 2.53957
545 2.99906
550 3.85874
555 2.5749
560 2.58404
565 3.77
570 2.07613
575 3.26307
580 2.89416
585 3.46244
590 3.47742
595 2.20444
600 1.29819
Ex : 263
200 3.33662
205 3.82701
210 3.16127
215 2.16016
220 2.14229
225 3.3797
230 2.40851
235 2.70219
240 2.36486
245 3.39619
250 2.642
255 2.52197
260 2.23927
265 2.72862
270 2.58974
275 2.33149
280 1.89289
285 2.31431
290 2.21589
295 2.32975
300 2.87889
305 2.81072
310 2.35623
315 2.02882
320 2.23459
325 2.05139
330 2.00441
335 2.45752
340 2.76571
345 1.96868
350 3.08135
355 2.76915
360 3.62932
365 2.78809
370 3.60109
375 2.45636
380 2.96157
385 2.06176
390 1.61463
395 3.40858
400 2.52845
405 2.90379
410 2.56457
415 2.21506
420 2.63082
425 3.38319
430 3.27375
435 2.3877
440 2.97014
445 2.771
450 2.5994
455 2.52772
460 1.81462
465 2.36843
470 3.10184
475 2.77411
480 2.1584
485 2.38432
490 1.94576
495 2.64212
500 1.75374
505 1.7452
510 2.71024
515 2.65252
520 1.69949
525 2.79681
530 2.2573
535 2.66542
540 2.54446
545 4.25052
550 2.12421
555 1.63327
560 3.34582
565 3.2934
570 2.50979
575 2.24208
580 1.8747
585 2.18822
590 2.59862
595 3.83323
600 1.49965
Ex : 268
200 1.65445
205 1.60737
210 2.12311
215 2.5765
220 1.41169
225 1.63019
230 1.71483
235 2.28197
240 1.44089
245 1.21415
250 1.68665
255 1.44062
260 2.14131
265 2.0077
270 2.81712
275 1.85033
280 1.28709
285 1.45528
290 1.60919
295 1.84955
300 1.66857
305 1.862
310 0.956948
315 1.75572
320 1.71849
325 1.72186
330 2.68155
335 2.29119
340 1.76644
345 2.15795
350 2.06146
355 1.87183
360 1.52404
365 1.6018
370 2.2329
375 1.92963
380 2.08391
385 2.05631
390 2.16635
395 2.17504
400 2.69919
405 2.50604
410 2.27182
415 2.45879
420 1.82393
425 2.6414
430 2.55897
435 2.40518
440 2.58064
445 2.79664
450 1.50486
455 1.80293
460 2.19595
465 2.18034
470 2.32698
475 1.9576
480 2.42425
485 1.62953
490 1.88419
495 2.31987
500 2.57092
505 2.03019
510 1.97145
515 2.69589
520 2.01346
525 2.69093
530 2.77727
535 1.72246
540 1.76409
545 1.36044
550 1.56452
555 2.14621
560 1.73338
565 1.66477
570 1.26447
575 2.13697
580 2.18771
585 1.76473
590 1.80692
595 2.58074
600 1.80544
Ex : 273
200 1.47363
205 1.30203
210 2.0007
215 1.46608
220 1.46409
225 1.50855
230 1.46623
235 1.23907
240 1.59664
245 1.5001
250 1.61199
255 1.29895
260 1.30509
265 1.90845
270 1.44481
275 1.80327
280 1.84857
285 1.5213
290 1.69437
295 2.12548
300 2.34414
305 1.58269
310 2.06645
315 1.42116
320 1.45564
325 1.63793
330 1.51948
335 1.87341
340 1.48072
345 1.08216
350 1.6776
355 1.66918
360 2.40882
365 1.40071
370 1.57542
375 1.89454
380 2.1022
385 1.6626
390 2.21809
395 1.30113
400 1.26339
405 1.74499
410 1.69801
415 1.56002
420 1.82579
425 1.81991
430 2.00147
435 2.03622
440 1.57757
445 1.87736
450 1.68039
455 1.9933
460 1.40843
465 1.40286
470 1.28564
475 2.08181
480 1.53692
485 1.78067
490 1.55012
495 1.8654
500 1.81774
505 2.32505
510 1.57225
515 1.57536
520 2.21698
525 1.85163
530 1.47847
535 1.93587
540 2.92111
545 2.5723
550 1.9353
555 1.2367
560 1.33971
565 1.37698
570 1.55096
575 1.80295
580 1.31829
585 1.4915
590 1.59274
595 1.63715
600 3.55388
Ex : 278
200 0.982578
205 1.09596
210 1.09437
215 1.49705
220 1.08166
225 1.69391
230 1.16673
235 1.23329
240 0.967781
245 1.54722
250 1.73588
255 1.26114
260 0.933509
265 0.983745
270 1.47961
275 1.93143
280 1.32597
285 1.10871
290 1.20983
295 1.23995
300 1.16558
305 1.49385
310 2.18395
315 1.38038
320 1.42488
325 1.74292
330 1.29288
335 1.23675
340 1.51209
345 1.98615
350 1.28273
355 1.00784
360 1.40378
365 1.27527
370 1.01567
375 1.37382
380 2.39447
385 2.65963
390 1.5149
395 1.66601
400 1.36375
405 1.85401
410 2.02274
415 2.02309
420 1.74276
425 1.4351
430 0.917055
435 1.09291
440 1.61523
445 1.32793
450 1.16729
455 1.84743
460 1.56216
465 1.86008
470 1.68348
475 1.24758
480 1.81934
485 1.22427
490 1.25559
495 1.84504
500 1.62354
505 1.95872
510 1.25536
515 1.49132
520 1.49744
525 1.00342
530 1.04028
535 1.25812
540 1.22709
545 1.41693
550 1.56684
555 1.271
560 1.42004
565 1.15711
570 1.23054
575 1.13701
580 1.23033
585 1.5653
590 1.46222
595 1.33262
600 0.151647
Ex : 283
200 1.29374
205 1.26453
210 0.810477
215 0.795845
220 0.825577
225 1.18947
230 1.24558
235 1.21063
240 1.27484
245 0.85171
250 1.19958
255 0.843893
260 1.08741
265 1.02615
270 1.42324
275 1.21531
280 1.03177
285 0.826764
290 0.754174
295 0.75435
300 0.921834
305 0.901247
310 1.05314
315 0.834945
320 1.04646
325 1.23647
330 1.12763
335 0.908945
340 1.14905
345 0.949386
350 1.1806
355 1.41124
360 1.27837
365 0.940719
370 1.10977
375 1.77145
380 1.43928
385 1.33321
390 1.52744
395 1.04639
400 1.45131
405 1.70672
410 1.65858
415 1.30465
420 1.36069
425 0.93919
430 0.970087
435 1.84601
440 1.50242
445 1.71285
450 1.2787
455 1.1176
460 1.09524
465 1.59753
470 1.0829
475 0.880602
480 1.17501
485 1.77635
490 0.909419
495 1.01578
500 1.11362
505 1.11205
510 1.30317
515 1.32404
520 1.23671
525 0.985824
530 1.32612
535 1.43713
540 1.39854
545 1.20163
550 1.0178
555 1.87529
560 1.40935
565 1.54366
570 1.71466
575 0.77194
580 0.960899
585 1.15615
590 1.21319
595 1.17685
600 0.133921
Ex : 288
200 1.23354
205 0.976229
210 0.819945
215 0.717378
220 0.885552
225 0.650701
230 0.807457
235 0.738782
240 0.725073
245 0.917858
250 0.992814
255 0.974111
260 0.969394
265 0.69407
270 0.512762
275 0.977894
280 0.761271
285 1.2859
290 1.11325
295 0.998333
300 0.786645
305 0.699225
310 0.470894
315 0.752818
320 0.929229
325 1.04034
330 0.776679
335 1.07147
340 0.838919
345 0.974091
350 0.857814
355 0.972966
360 1.09442
365 0.886961
370 1.42997
375 1.72426
380 1.13632
385 1.09907
390 1.27224
395 1.0255
400 1.14234
405 0.8515
410 1.22484
415 0.886435
420 1.27581
425 1.1171
430 1.13584
435 0.920858
440 1.30285
445 1.37754
450 1.21902
455 1.14755
460 1.06274
465 0.992541
470 0.985093
475 1.21416
480 1.0952
485 0.797428
490 1.10964
495 1.17806
500 1.33022
505 1.04575
510 0.787207
515 1.16112
520 0.873703
525 1.27341
530 1.06182
535 0.859153
540 1.06158
545 0.680597
550 1.00729
555 0.827501
560 0.634282
565 0.97393
570 1.6535
575 1.24694
580 1.23315
585 0.646261
590 0.972129
595 0.873474
600 0.099398
Ex : 293
200 0.841426
205 0.878128
210 0.654326
215 0.783516
220 1.04825
225 0.815029
230 0.66938
235 0.538699
240 0.595137
245 0.682603
250 0.717918
255 0.632105
260 0.901934
265 0.583798
270 0.783508
275 0.856121
280 1.02594
285 1.00341
290 0.808354
295 0.787829
300 1.37545
305 0.552189
310 0.838959
315 0.858962
320 0.75503
325 1.15334
330 0.757185
335 1.00546
340 0.710919
345 0.713117
350 0.797429
355 1.11946
360 0.680353
365 0.948871
370 1.14861
375 1.09555
380 1.20332
385 1.10859
390 0.8043
395 0.972607
400 1.39301
405 0.828147
410 1.24101
415 0.914107
420 0.757209
425 1.01422
430 1.51896
435 0.812241
440 1.149
445 1.1014
450 1.10499
455 0.846997
460 1.042
465 0.923882
470 0.77071
475 1.33619
480 0.813496
485 0.926944
490 1.03782
495 0.996888
500 0.959448
505 0.994918
510 1.19511
515 0.908002
520 0.795212
525 0.808559
530 0.86093
535 0.886942
540 0.549589
545 0.68744
550 0.822879
555 1.02229
560 1.0044
565 0.749871
570 1.1227
575 1.40598
580 1.17445
585 0.970747
590 0.615877
595 0.756133
600 0.0860451
Ex : 298
200 0.825696
205 0.551486
210 0.525422
215 1.00143
220 0.655439
225 0.671223
230 0.807941
235 0.78507
240 0.908052
245 0.919822
250 0.71339
255 0.484695
260 0.767626
265 0.674023
270 0.514017
275 0.630057
280 0.782416
285 0.46188
290 0.644435
295 1.01153
300 0.534156
305 0.348962
310 0.794952
315 0.751713
320 0.670884
325 0.745109
330 0.745503
335 0.610882
340 0.570101
345 0.579316
350 0.826326
355 0.573278
360 0.67127
365 1.12412
370 0.631138
375 0.77848
380 0.861268
385 0.726503
390 0.60908
395 0.71975
400 0.917774
405 0.676043
410 1.01042
415 0.978431
420 0.983175
425 0.829418
430 0.813059
435 0.741686
440 0.745142
445 0.826565
450 0.884458
455 1.0081
460 1.0711
465 0.729933
470 0.750511
475 0.764149
480 0.714784
485 0.675603
490 0.610193
495 0.693936
500 0.540439
505 0.947304
510 0.860214
515 1.00655
520 0.991593
525 0.809804
530 0.868381
535 1.23329
540 0.854895
545 0.84901
550 1.1052
555 0.86321
560 0.694173
565 0.568961
570 1.09732
575 0.57076
580 0.722081
585 0.699682
590 1.0942
595 0.982586
600 0.282238
Ex : 303
200 0.555771
205 0.430847
210 0.365777
215 0.664044
220 0.509938
225 0.692724
230 0.442856
235 0.658813
240 0.38359
245 0.660593
250 0.903989
255 0.551173
260 0.400339
265 0.702895
270 0.60422
275 0.533868
280 0.698471
285 0.431374
290 0.557026
295 0.5433
300 0.971634
305 0.504628
310 0.603449
315 0.472501
320 0.625087
325 0.759585
330 0.560381
335 0.896012
340 0.85729
345 0.752652
350 0.636841
355 0.688794
360 0.902531
365 0.97267
370 0.978406
375 0.892124
380 0.662817
385 0.686446
390 0.932471
395 0.761132
400 0.79378
405 0.948839
410 0.807079
415 0.634007
420 0.620866
425 0.823856
430 0.901431
435 0.688539
440 0.721163
445 0.584201
450 0.688745
455 0.914177
460 0.879588
465 0.698307
470 0.673525
475 0.784065
480 0.719351
485 0.667831
490 0.718745
495 0.744276
500 0.607822
505 0.717754
510 0.505394
515 0.561124
520 0.628398
525 0.606347
530 0.624499
535 0.816275
540 0.759278
545 0.447091
550 0.474428
555 0.387995
560 0.514035
565 0.507922
570 0.464633
575 0.670076
580 0.320602
585 0.59097
590 0.838756
595 0.682163
600 0.461649
Ex : 308
200 0.627732
205 0.447454
210 0.451347
215 0.378514
220 0.302043
225 0.581463
230 0.645362
235 0.51289
240 0.46287
245 0.686064
250 0.667142
255 0.848905
260 0.563651
265 0.54499
270 0.433339
275 0.559698
280 0.652441
285 0.432317
290 0.46163
295 0.535612
300 0.661508
305 0.519898
310 0.902344
315 0.53668
320 0.368221
325 0.638714
330 0.72123
335 0.693838
340 0.576898
345 0.61873
350 0.704065
355 0.618336
360 0.490081
365 0.472465
370 0.594489
375 0.712162
380 0.638673
385 0.695772
390 0.903057
395 0.720468
400 0.828917
405 0.647287
410 0.741443
415 0.832885
420 0.905529
425 0.841804
430 0.810246
435 0.844756
440 0.779347
445 0.813929
450 0.767127
455 0.852144
460 0.667896
465 0.689929
470 0.816409
475 0.691814
480 0.893305
485 0.739819
490 0.571174
495 0.582861
500 0.517336
505 0.620093
510 0.565445
515 0.489284
520 0.330613
525 0.536948
530 0.40407
535 0.518279
540 0.674789
545 0.74213
550 0.657174
555 0.62194
560 0.647602
565 0.447284
570 0.689769
575 0.541999
580 0.443469
585 0.471047
590 0.429346
595 0.453284
600 0.231391
Ex : 313
200 0.392623
205 0.560225
210 0.605483
215 0.426048
220 0.548392
225 0.596995
230 0.352383
235 0.397235
240 0.318783
245 0.514944
250 0.501968
255 0.313077
260 0.537252
265 0.434009
270 0.403172
275 0.339948
280 0.343083
285 0.445985
290 0.326251
295 0.349162
300 0.291641
305 0.55094
310 0.492516
315 0.362676
320 0.324621
325 0.430452
330 0.423718
335 0.672436
340 0.578024
345 0.657115
350 0.936819
355 0.762317
360 0.667172
365 0.639264
370 0.763675
375 0.870698
380 0.997688
385 0.822815
390 0.899297
395 1.12974
400 1.18234
405 1.01376
410 1.23573
415 0.959746
420 1.05382
425 0.84796
430 1.3159
435 1.11096
440 1.05069
445 1.01521
450 0.894425
455 1.07629
460 0.836571
465 0.784143
470 0.921638
475 0.69898
480 0.806814
485 0.772276
490 0.587354
495 0.557507
500 0.543817
505 0.552816
510 0.672006
515 0.551424
520 0.49193
525 0.41803
530 0.35605
535 0.503312
540 0.541
545 0.555824
550 0.436993
555 0.693946
560 0.366864
565 0.601104
570 0.494739
575 0.332304
580 0.447614
585 0.51435
590 0.400952
595 0.429096
600 0.281458
Ex : 318
200 0.520384
205 0.640677
210 0.36185
215 0.381897
220 0.303085
225 0.497846
230 0.300305
235 0.468951
240 0.328181
245 0.228323
250 0.286644
255 0.640859
260 0.56804
265 0.318621
270 0.434256
275 0.319563
280 0.327573
285 0.37191
290 0.404687
295 0.366837
300 0.519859
305 0.398404
310 0.557666
315 0.804
320 0.513993
325 0.469976
330 0.651249
335 1.08021
340 1.08934
345 1.41477
350 1.84302
355 2.66358
360 2.7804
365 3.31535
370 4.35367
375 4.48785
380 5.73426
385 6.14476
390 6.6612
395 6.73913
400 7.79456
405 7.2509
410 7.09155
415 7.36571
420 7.32768
425 6.39036
430 7.06623
435 6.38355
440 6.92249
445 6.46249
450 6.61198
455 5.59318
460 5.70172
465 4.74613
470 4.85565
475 3.9658
480 3.96497
485 3.6765
490 3.26931
495 2.82817
500 2.44748
505 2.23626
510 1.82688
515 1.98459
520 1.61953
525 1.57073
530 1.20869
535 1.13467
540 1.02532
545 1.04905
550 0.876115
555 0.894095
560 0.643037
565 0.651278
570 0.571252
575 0.638997
580 0.615819
585 0.752739
590 0.562478
595 0.437757
600 0.472776
Ex : 323
200 0.317839
205 0.444686
210 0.543641
215 0.369177
220 0.397213
225 0.327929
230 0.286892
235 0.401828
240 0.286522
245 0.244141
250 0.446941
255 0.267375
260 0.500241
265 0.370249
270 0.342712
275 0.353308
280 0.280091
285 0.528022
290 0.27694
295 0.418168
300 0.25726
305 0.431136
310 0.280887
315 2.01579
320 8.73589
325 4.23342
330 1.89551
335 2.86319
340 3.7772
345 5.55403
350 8.15028
355 10.8043
360 13.6142
365 15.2917
370 17.4294
375 21.5615
380 23.6368
385 26.4714
390 28.6081
395 30.5096
400 31.246
405 31.2348
410 32.8537
415 31.4688
420 30.4758
425 31.247
430 29.6697
435 28.4514
440 27.6555
445 27.2264
450 25.6206
455 25.3706
460 22.6112
465 21.3815
470 19.2247
475 17.8031
480 16.118
485 14.2182
490 13.1116
495 11.9425
500 10.5891
505 9.35132
510 7.92557
515 7.12406
520 6.19284
525 5.57439
530 4.4726
535 3.91109
540 3.55753
545 3.20498
550 2.69999
555 2.37204
560 2.2786
565 1.81637
570 1.57404
575 1.26134
580 0.811915
585 1.0669
590 0.601638
595 0.628416
600 1.06406
Ex : 328
200 0.299915
205 0.260695
210 0.194691
215 0.407152
220 0.287433
225 0.323152
230 0.353521
235 0.278107
240 0.256773
245 0.370905
250 0.425436
255 0.35511
260 0.311771
265 0.31377
270 0.415097
275 0.398768
280 0.354528
285 0.306528
290 0.353778
295 0.306139
300 0.328328
305 0.239563
310 0.361516
315 0.766845
320 21.0168
325 53.0382
330 17.8882
335 5.14484
340 5.48759
345 6.89524
350 8.81044
355 12.7115
360 17.4711
365 19.2447
370 21.0187
375 23.6209
380 27.609
385 29.8573
390 32.2013
395 34.4867
400 36.4424
405 37.1887
410 36.9444
415 36.4508
420 34.9115
425 35.2936
430 34.5931
435 31.8532
440 30.6052
445 30.8087
450 28.6103
455 26.5529
460 24.7829
465 23.7431
470 21.4086
475 19.5753
480 18.3946
485 16.1903
490 14.7327
495 13.6111
500 12.3416
505 10.298
510 9.36683
515 8.06277
520 7.19291
525 5.76589
530 5.40674
535 4.56382
540 3.66393
545 3.57078
550 2.70891
555 2.57223
560 2.61826
565 1.9015
570 1.7589
575 1.49203
580 1.08027
585 0.813423
590 0.805003
595 0.76331
600 0.813057
Ex : 333
200 0.369041
205 0.450732
210 0.361135
215 0.229789
220 0.313826
225 0.282217
230 0.25192
235 0.269406
240 0.324786
245 0.300663
250 0.324725
255 0.305567
260 0.307117
265 0.34124
270 0.331597
275 0.244267
280 0.34757
285 0.270504
290 0.354073
295 0.241655
300 0.302236
305 0.410122
310 0.263992
315 0.32125
320 3.34056
325 60.4428
330 105.03
335 29.3047
340 6.67876
345 5.22367
350 5.763
355 6.86044
360 9.84448
365 14.2482
370 14.9622
375 15.105
380 15.5726
385 17.0685
390 18.5864
395 20.1671
400 20.8077
405 20.4203
410 20.4609
415 20.7545
420 20.3548
425 20.3014
430 18.783
435 18.1944
440 17.6572
445 16.6717
450 16.6143
455 15.4673
460 14.0911
465 12.8476
470 12.4865
475 10.9647
480 10.2174
485 9.512
490 8.73073
495 7.76965
500 6.58729
505 6.00684
510 5.14149
515 4.78597
520 4.21727
525 3.71225
530 3.17983
535 2.9426
540 2.20428
545 2.38545
550 1.96373
555 1.94775
560 1.79106
565 1.4455
570 1.24902
575 1.08414
580 0.712097
585 0.713421
590 0.577279
595 0.45244
600 0.959482
Ex : 338
200 0.26902
205 0.324548
210 0.254712
215 0.263836
220 0.375294
225 0.285846
230 0.359435
235 0.270641
240 0.345913
245 0.334137
250 0.25646
255 0.259443
260 0.244536
265 0.267736
270 0.31967
275 0.293749
280 0.410542
285 0.26045
290 0.322577
295 0.292422
300 0.214553
305 0.332736
310 0.261537
315 0.320632
320 0.505321
325 6.11164
330 95.778
335 142.225
340 37.4904
345 7.00299
350 4.2347
355 4.01458
360 3.92389
365 6.14703
370 10.2247
375 10.9277
380 9.04408
385 8.6983
390 9.67682
395 10.0295
400 10.3697
405 10.9507
410 10.9061
415 11.4018
420 11.0933
425 10.9843
430 10.0704
435 9.88289
440 9.51648
445 9.05501
450 8.82977
455 8.445
460 7.8057
465 7.1262
470 6.75898
475 6.52115
480 5.99328
485 5.28398
490 4.89272
495 4.56548
500 3.99097
505 3.88618
510 3.42817
515 2.85385
520 2.68707
525 2.47398
530 2.21773
535 1.98026
540 1.87398
545 1.63727
550 1.4957
555 1.23163
560 1.16619
565 1.13394
570 1.19232
575 0.78402
580 0.780721
585 0.622689
590 0.647216
595 0.482078
600 0.0548586
Ex : 343
200 0.262097
205 0.226999
210 0.24447
215 0.17387
220 0.171653
225 0.255883
230 0.145131
235 0.252932
240 0.278355
245 0.291785
250 0.236944
255 0.252031
260 0.288036
265 0.252211
270 0.3195
275 0.275949
280 0.232682
285 0.227993
290 0.248608
295 0.196832
300 0.231657
305 0.199179
310 0.169648
315 0.307056
320 0.261273
325 0.453724
330 6.90758
335 107.218
340 157.534
345 38.6622
350 6.45386
355 3.37503
360 2.8263
365 2.65282
370 3.65619
375 8.01156
380 8.37438
385 6.43917
390 6.17243
395 6.55699
400 7.22328
405 7.1182
410 7.10445
415 8.04345
420 7.668
425 7.46107
430 7.21195
435 6.99649
440 7.02092
445 7.30221
450 6.76213
455 6.32623
460 5.95335
465 5.67379
470 5.51643
475 5.16746
480 4.94937
485 4.50334
490 4.43137
495 3.85349
500 3.49839
505 3.13404
510 2.84282
515 2.5885
520 2.52556
525 2.20495
530 1.89255
535 1.57393
540 1.74088
545 1.41884
550 1.34011
555 1.16805
560 1.3276
565 1.16529
570 1.16584
575 0.871338
580 0.838592
585 0.660588
590 0.682712
595 0.450881
600 0.390326
Ex : 348
200 0.269441
205 0.230241
210 0.309891
215 0.21356
220 0.163659
225 0.19404
230 0.248621
235 0.280367
240 0.218725
245 0.264237
250 0.219025
255 0.292589
260 0.214451
265 0.234045
270 0.190912
275 0.230592
280 0.228677
285 0.222883
290 0.194984
295 0.165405
300 0.242482
305 0.229955
310 0.214015
315 0.344263
320 0.237562
325 0.361298
330 0.492244
335 7.82546
340 107.112
345 163.755
350 43.2097
355 6.5767
360 2.69629
365 2.33202
370 2.02842
375 2.60368
380 5.6908
385 8.09727
390 7.10867
395 6.6777
400 6.43535
405 6.36906
410 7.00011
415 7.30283
420 7.44231
425 7.79809
430 7.74304
435 6.8665
440 7.26724
445 7.09167
450 6.75708
455 6.22066
460 5.94396
465 5.54303
470 5.32828
475 5.04472
480 4.9357
485 4.4635
490 4.03143
495 3.78321
500 3.59219
505 3.22061
510 2.99335
515 2.62841
520 2.542
525 2.17283
530 2.09919
535 1.94041
540 1.5721
545 1.69788
550 1.50254
555 1.46792
560 1.23609
565 1.04655
570 0.962235
575 0.756216
580 0.68645
585 0.593494
590 0.567905
595 0.41298
600 0.452272
Ex : 353
200 0.268873
205 0.235199
210 0.231856
215 0.162151
220 0.155969
225 0.229675
230 0.237835
235 0.189098
240 0.227156
245 0.268052
250 0.212151
255 0.268503
260 0.310236
265 0.205049
270 0.162101
275 0.179397
280 0.234969
285 0.188907
290 0.200528
295 0.17298
300 0.196337
305 0.189757
310 0.26312
315 0.239479
320 0.145721
325 0.252814
330 0.380114
335 0.457377
340 7.45239
345 116.518
350 170.853
355 42.484
360 6.27305
365 2.37454
370 2.36326
375 2.09577
380 2.26961
385 4.9721
390 9.05708
395 9.18716
400 8.14405
405 7.1291
410 6.98114
415 8.11041
420 8.51062
425 8.30789
430 7.57496
435 7.23619
440 7.76882
445 7.2612
450 7.24748
455 7.13729
460 6.40244
465 5.92823
470 5.9392
475 5.46257
480 5.39673
485 4.75109
490 4.31795
495 4.26224
500 3.84881
505 3.43148
510 3.23797
515 2.84805
520 2.51157
525 2.31011
530 2.17269
535 1.7873
540 1.86253
545 1.72353
550 1.43308
555 1.15101
560 1.42023
565 1.04782
570 0.891823
575 0.787721
580 0.666373
585 0.576924
590 0.653169
595 0.570432
600 0.283917
Ex : 358
200 0.152231
205 0.307682
210 0.19017
215 0.199493
220 0.149254
225 0.180494
230 0.150186
235 0.258462
240 0.251613
245 0.259127
250 0.17938
255 0.20248
260 0.179164
265 0.177023
270 0.341626
275 0.172465
280 0.252606
285 0.188192
290 0.305438
295 0.222812
300 0.195051
305 0.152477
310 0.240032
315 0.28819
320 0.273828
325 0.174494
330 0.194317
335 0.305241
340 0.387787
345 6.93257
350 107.623
355 162.956
360 41.1179
365 6.14592
370 2.43578
375 2.6832
380 2.29351
385 2.28705
390 5.27305
395 9.80746
400 10.4177
405 8.82423
410 7.74459
415 8.02014
420 8.53706
425 8.48529
430 7.82713
435 7.92689
440 7.45658
445 7.76354
450 7.3855
455 6.85551
460 6.56936
465 6.30771
470 5.69899
475 5.64071
480 5.30937
485 5.00445
490 4.63819
495 4.31712
500 4.12428
505 4.0895
510 3.31948
515 3.22854
520 2.85897
525 2.5709
530 2.12539
535 2.04018
540 1.83447
545 1.71094
550 1.52333
555 1.28851
560 1.23765
565 1.13897
570 0.92502
575 0.904865
580 0.747111
585 0.558511
590 0.486431
595 0.451272
600 0.254049
Ex : 363
200 0.14971
205 0.214274
210 0.241792
215 0.216703
220 0.146269
225 0.169749
230 0.183799
235 0.198135
240 0.133917
245 0.218403
250 0.216462
255 0.239781
260 0.193956
265 0.167991
270 0.157308
275 0.170469
280 0.193104
285 0.225929
290 0.179091
295 0.216889
300 0.191538
305 0.259074
310 0.152942
315 0.160007
320 0.266235
325 0.279133
330 0.233507
335 0.263976
340 0.415025
345 0.402685
350 6.73338
355 101.989
360 159.905
365 41.6422
370 6.18748
375 2.50868
380 2.34664
385 2.57877
390 3.45151
395 5.70894
400 9.05638
405 9.647
410 8.00609
415 7.87248
420 7.92026
425 7.90946
430 7.65315
435 7.36289
440 7.56046
445 7.56317
450 7.17487
455 7.0735
460 6.5832
465 6.54954
470 5.97301
475 5.85753
480 5.38837
485 5.0817
490 4.67594
495 4.44343
500 4.31237
505 3.77522
510 3.43591
515 3.05776
520 3.09028
525 2.90256
530 2.39818
535 2.01468
540 1.9454
545 1.71532
550 1.70111
555 1.39924
560 1.29031
565 1.15399
570 0.98029
575 0.810828
580 0.694875
585 0.518334
590 0.431784
595 0.382704
600 0.398032
Ex : 368
200 0.199159
205 0.249426
210 0.172092
215 0.228689
220 0.215289
225 0.167556
230 0.277125
235 0.179401
240 0.136249
245 0.162794
250 0.218885
255 0.171374
260 0.198143
265 0.215046
270 0.202976
275 0.236978
280 0.186063
285 0.172743
290 0.190892
295 0.214609
300 0.175612
305 0.131896
310 0.215915
315 0.164939
320 0.12016
325 0.188802
330 0.193028
335 0.15816
340 0.258621
345 0.2271
350 0.370418
355 5.42771
360 97.2181
365 160.233
370 43.4939
375 6.28426
380 2.33403
385 2.84723
390 4.3091
395 5.87556
400 6.82427
405 9.00173
410 11.3901
415 10.2607
420 9.7804
425 8.73069
430 7.7437
435 8.01937
440 7.91138
445 7.85857
450 7.67494
455 7.41925
460 6.93933
465 6.68923
470 6.45327
475 6.11956
480 5.94901
485 5.73488
490 5.07446
495 4.71544
500 4.24598
505 4.00299
510 3.61018
515 3.15186
520 2.88473
525 2.64472
530 2.26932
535 2.07169
540 1.97685
545 1.79476
550 1.69668
555 1.33878
560 1.2863
565 1.22888
570 0.891442
575 0.806185
580 0.661802
585 0.628721
590 0.515982
595 0.422437
600 0.595313
Ex : 373
200 0.163523
205 0.180374
210 0.171429
215 0.171879
220 0.147863
225 0.166814
230 0.152751
235 0.152484
240 0.223533
245 0.199376
250 0.180028
255 0.17979
260 0.162494
265 0.130024
270 0.116787
275 0.21397
280 0.172407
285 0.159093
290 0.221005
295 0.198808
300 0.201904
305 0.14636
310 0.131819
315 0.200906
320 0.182799
325 0.149248
330 0.184931
335 0.224472
340 0.225084
345 0.277845
350 0.242278
355 0.302452
360 6.47787
365 102.39
370 173.405
375 47.5053
380 7.0429
385 2.96814
390 4.93049
395 7.30583
400 7.46212
405 7.97388
410 9.64237
415 13.0339
420 12.669
425 11.5983
430 9.65023
435 9.15842
440 8.94991
445 8.99811
450 8.61226
455 8.02969
460 7.56413
465 7.19126
470 6.38425
475 6.45377
480 5.98888
485 5.46333
490 5.25826
495 5.04658
500 4.48926
505 4.18534
510 3.98425
515 3.41685
520 3.18417
525 2.91336
530 2.47705
535 2.46625
540 2.09275
545 2.12308
550 1.73768
555 1.60469
560 1.23268
565 1.05092
570 0.882645
575 0.848089
580 0.701565
585 0.60597
590 0.577922
595 0.433432
600 0.173702
Ex : 378
200 0.17019
205 0.138692
210 0.134213
215 0.157041
220 0.142785
225 0.130853
230 0.172649
235 0.194483
240 0.201678
245 0.192769
250 0.177863
255 0.13809
260 0.10772
265 0.157963
270 0.176242
275 0.204578
280 0.199022
285 0.109002
290 0.13584
295 0.191038
300 0.164145
305 0.158708
310 0.133713
315 0.193632
320 0.188835
325 0.192379
330 0.138914
335 0.152669
340 0.303327
345 0.126669
350 0.253675
355 0.22588
360 0.297216
365 6.10105
370 98.3417
375 160.873
380 44.5674
385 7.16402
390 4.35078
395 6.3086
400 7.17207
405 6.99371
410 6.97276
415 8.60252
420 12.1281
425 11.9525
430 10.1562
435 8.66046
440 7.95696
445 7.9692
450 8.08139
455 7.35461
460 7.22439
465 6.56641
470 6.50487
475 5.92167
480 5.80675
485 5.54156
490 5.2153
495 4.82095
500 4.39222
505 4.19004
510 3.6881
515 3.29054
520 3.01709
525 2.92207
530 2.49516
535 2.10598
540 2.18796
545 1.81752
550 1.71505
555 1.55138
560 1.21584
565 1.18555
570 0.935591
575 0.900359
580 0.842766
585 0.583937
590 0.45895
595 0.48872
600 0.0846704
Ex : 383
200 0.123344
205 0.148828
210 0.117122
215 0.196189
220 0.159645
225 0.128411
230 0.131782
235 0.139612
240 0.156777
245 0.162389
250 0.136846
255 0.134959
260 0.119435
265 0.175365
270 0.200409
275 0.17318
280 0.179818
285 0.21209
290 0.16569
295 0.159388
300 0.21659
305 0.161064
310 0.134219
315 0.14344
320 0.129849
325 0.160335
330 0.215217
335 0.247881
340 0.208576
345 0.226373
350 0.206039
355 0.175748
360 0.237029
365 0.32928
370 5.71586
375 102.615
380 171.735
385 47.1194
390 8.07975
395 5.17182
400 5.75637
405 5.77434
410 5.60729
415 5.96164
420 7.19219
425 9.81825
430 9.38228
435 7.99123
440 7.31267
445 6.94883
450 6.51326
455 6.23725
460 6.37763
465 6.00858
470 5.85532
475 5.6262
480 5.27341
485 4.99141
490 4.61041
495 4.60019
500 4.15602
505 3.70691
510 3.69806
515 3.539
520 3.01465
525 2.71397
530 2.37606
535 2.4466
540 2.02234
545 2.02356
550 1.77565
555 1.5521
560 1.34038
565 1.12735
570 1.28367
575 0.765685
580 0.650602
585 0.479344
590 0.461275
595 0.453752
600 0.491248
Ex : 388
200 0.221861
205 0.140338
210 0.118627
215 0.089964
220 0.108919
225 0.138023
230 0.188328
235 0.111156
240 0.11852
245 0.120942
250 0.11295
255 0.171594
260 0.179842
265 0.125782
270 0.173737
275 0.108616
280 0.252885
285 0.104613
290 0.138839
295 0.13199
300 0.109283
305 0.119012
310 0.0985955
315 0.127802
320 0.213915
325 0.200889
330 0.177171
335 0.127947
340 0.164271
345 0.155138
350 0.18295
355 0.216918
360 0.183384
365 0.250682
370 0.337111
375 5.85908
380 96.7046
385 170.985
390 49.5122
395 9.99347
400 5.92065
405 5.66159
410 5.92779
415 6.5103
420 7.01999
425 7.29639
430 8.69998
435 9.67759
440 8.26834
445 7.9152
450 7.04675
455 6.25308
460 5.97618
465 5.88869
470 5.88664
475 5.6024
480 5.60636
485 5.12826
490 4.76667
495 4.81164
500 4.11596
505 3.92527
510 3.63316
515 3.37829
520 2.87838
525 2.75193
530 2.39223
535 2.24139
540 2.04742
545 1.90185
550 1.64363
555 1.53806
560 1.28994
565 1.12492
570 1.04873
575 0.82303
580 0.677894
585 0.595425
590 0.480166
595 0.481732
600 0.0716034
Ex : 393
200 0.130901
205 0.163284
210 0.0795033
215 0.138182
220 0.112691
225 0.0969735
230 0.15514
235 0.150376
240 0.145045
245 0.147654
250 0.141315
255 0.121388
260 0.148029
265 0.113854
270 0.153322
275 0.108485
280 0.139033
285 0.136122
290 0.12339
295 0.110246
300 0.118914
305 0.120229
310 0.0970711
315 0.165765
320 0.114638
325 0.123573
330 0.120591
335 0.138035
340 0.163587
345 0.135705
350 0.202768
355 0.135186
360 0.19328
365 0.215438
370 0.187255
375 0.37387
380 5.04811
385 96.4814
390 172.569
395 51.3532
400 11.7698
405 7.11668
410 7.14051
415 8.12833
420 8.11803
425 7.70485
430 7.5805
435 8.35932
440 10.0857
445 9.31285
450 8.14947
455 7.20312
460 6.48094
465 6.22024
470 5.96391
475 5.89651
480 5.27654
485 5.26223
490 4.72359
495 4.54667
500 4.36233
505 3.90654
510 3.70396
515 3.29705
520 2.98076
525 2.75473
530 2.28833
535 2.15184
540 2.09022
545 1.76267
550 1.57125
555 1.45294
560 1.43112
565 1.12984
570 0.971253
575 0.868699
580 0.650432
585 0.530567
590 0.427994
595 0.375669
600 0.469797
Ex : 398
200 0.125706
205 0.117851
210 0.11142
215 0.131716
220 0.184079
225 0.111661
230 0.147441
235 0.152414
240 0.145845
245 0.143094
250 0.141956
255 0.141442
260 0.150992
265 0.120306
270 0.212986
275 0.129074
280 0.180594
285 0.0998576
290 0.101631
295 0.194714
300 0.131841
305 0.142057
310 0.106835
315 0.189254
320 0.170019
325 0.150967
330 0.0969609
335 0.105283
340 0.13648
345 0.12452
350 0.161619
355 0.149344
360 0.186353
365 0.198461
370 0.209259
375 0.233578
380 0.413868
385 5.80249
390 107.596
395 186.622
400 55.1556
405 11.2639
410 6.32932
415 6.48072
420 7.17097
425 7.22479
430 6.77054
435 6.35728
440 6.93016
445 9.12443
450 8.14234
455 7.09852
460 6.45049
465 5.59903
470 5.37064
475 5.02914
480 4.96473
485 4.78823
490 4.54406
495 4.10997
500 3.87819
505 3.5788
510 3.38176
515 2.97657
520 3.09917
525 2.48816
530 2.35359
535 2.04167
540 1.95398
545 1.90499
550 1.62397
555 1.50212
560 1.2155
565 1.18316
570 0.95481
575 0.718031
580 0.579714
585 0.592794
590 0.463999
595 0.396325
600 0.248442
Ex : 403
200 0.139958
205 0.199479
210 0.202849
215 0.147442
220 0.0998124
225 0.120596
230 0.146647
235 0.209501
240 0.122009
245 0.139535
250 0.133405
255 0.104763
260 0.150302
265 0.202265
270 0.132924
275 0.158067
280 0.131893
285 0.100044
290 0.131934
295 0.172627
300 0.127124
305 0.139148
310 0.108325
315 0.15449
320 0.134692
325 0.14696
330 0.104135
335 0.125483
340 0.110559
345 0.121278
350 0.1423
355 0.155175
360 0.17613
365 0.20342
370 0.119148
375 0.168535
380 0.25324
385 0.470608
390 6.54501
395 107.874
400 178.28
405 49.7816
410 8.64819
415 4.38566
420 4.39427
425 4.29434
430 4.20276
435 3.84746
440 3.90866
445 4.51782
450 6.46907
455 6.71415
460 5.37797
465 4.97607
470 4.4563
475 4.37676
480 4.1712
485 3.98259
490 3.82972
495 3.63924
500 3.66896
505 3.17967
510 3.13059
515 2.85125
520 2.66503
525 2.30913
530 2.06779
535 1.90555
540 1.85597
545 1.72257
550 1.58913
555 1.25868
560 1.23414
565 1.03251
570 0.982141
575 0.813967
580 0.700101
585 0.489819
590 0.476721
595 0.364294
600 0.313903
Ex : 408
200 0.128809
205 0.121155
210 0.146967
215 0.125771
220 0.0895084
225 0.104802
230 0.0888735
235 0.139142
240 0.102272
245 0.141181
250 0.0850812
255 0.163151
260 0.117639
265 0.108226
270 0.163733
275 0.145575
280 0.145065
285 0.119697
290 0.158548
295 0.149943
300 0.14144
305 0.121716
310 0.125007
315 0.143903
320 0.118441
325 0.0948943
330 0.149979
335 0.155885
340 0.121702
345 0.107534
350 0.114616
355 0.210121
360 0.20202
365 0.127711
370 0.144104
375 0.184092
380 0.187347
385 0.25347
390 0.45606
395 5.74528
400 112.314
405 199.443
410 52.9946
415 8.12852
420 2.77969
425 2.6181
430 2.786
435 2.61404
440 2.65177
445 2.60478
450 2.99
455 4.59914
460 5.76932
465 4.78332
470 4.14505
475 3.82302
480 3.48051
485 3.35145
490 3.27247
495 3.30159
500 3.09082
505 3.0424
510 2.76684
515 2.59085
520 2.41439
525 2.25111
530 1.99655
535 1.93204
540 1.76019
545 1.61455
550 1.46461
555 1.3125
560 1.14376
565 1.04686
570 1.01317
575 0.830005
580 0.634648
585 0.54088
590 0.49489
595 0.359629
600 0.349432
Ex : 413
200 0.0999762
205 0.142771
210 0.134158
215 0.120038
220 0.148019
225 0.102809
230 0.120825
235 0.0901511
240 0.164049
245 0.123497
250 0.186952
255 0.16594
260 0.1714
265 0.0941741
270 0.109152
275 0.126677
280 0.131112
285 0.135195
290 0.149784
295 0.105977
300 0.0943917
305 0.150899
310 0.168995
315 0.161834
320 0.118118
325 0.136431
330 0.132563
335 0.18881
340 0.106431
345 0.142333
350 0.193055
355 0.132372
360 0.166753
365 0.104148
370 0.153884
375 0.202309
380 0.176981
385 0.167852
390 0.246032
395 0.434425
400 6.73241
405 114.183
410 184.796
415 47.4425
420 6.8507
425 2.16919
430 1.91288
435 2.15412
440 2.26979
445 2.00988
450 1.90481
455 2.11689
460 3.6751
465 5.23293
470 4.6141
475 3.86234
480 3.53102
485 3.22898
490 2.88744
495 2.97581
500 2.67537
505 2.64904
510 2.69742
515 2.54788
520 2.36345
525 2.08924
530 1.8479
535 1.84703
540 1.65353
545 1.49947
550 1.46675
555 1.20104
560 1.12715
565 0.999089
570 0.920772
575 0.710789
580 0.562499
585 0.499642
590 0.416445
595 0.346769
600 0.450069
Ex : 418
200 0.0957999
205 0.119963
210 0.110915
215 0.0978242
220 0.0796782
225 0.145223
230 0.105688
235 0.134513
240 0.150672
245 0.142067
250 0.108059
255 0.11328
260 0.14556
265 0.143014
270 0.151617
275 0.135111
280 0.0892023
285 0.0926871
290 0.0956635
295 0.214137
300 0.148606
305 0.121704
310 0.137353
315 0.100278
320 0.139319
325 0.133833
330 0.155518
335 0.133201
340 0.160113
345 0.14972
350 0.114681
355 0.146563
360 0.117513
365 0.132787
370 0.173909
375 0.217283
380 0.164975
385 0.190577
390 0.203058
395 0.210532
400 0.346092
405 5.97458
410 112.461
415 187.022
420 48.5756
425 6.66675
430 1.91578
435 1.38492
440 1.69206
445 1.79745
450 1.59222
455 1.7121
460 1.90677
465 2.7697
470 4.52826
475 4.55364
480 3.57935
485 3.23614
490 2.86489
495 2.64839
500 2.59137
505 2.58022
510 2.47539
515 2.28221
520 2.22156
525 1.95615
530 1.98171
535 1.87524
540 1.504
545 1.56776
550 1.31724
555 1.1656
560 1.11187
565 1.21767
570 0.956455
575 0.673539
580 0.491431
585 0.449121
590 0.460836
595 0.286305
600 0.212775
Ex : 423
200 0.100886
205 0.130531
210 0.0983319
215 0.107936
220 0.156966
225 0.108588
230 0.0977168
235 0.151621
240 0.107986
245 0.10015
250 0.090871
255 0.117755
260 0.102485
265 0.167044
270 0.121945
275 0.149874
280 0.156149
285 0.071025
290 0.109612
295 0.136414
300 0.0911673
305 0.144448
310 0.0917955
315 0.114669
320 0.146253
325 0.151283
330 0.122372
335 0.104928
340 0.129921
345 0.15777
350 0.167621
355 0.174407
360 0.157653
365 0.154119
370 0.16525
375 0.141438
380 0.144517
385 0.121752
390 0.179596
395 0.230138
400 0.218414
405 0.316584
410 6.2391
415 119.911
420 185.824
425 47.0572
430 6.33885
435 1.65978
440 1.21153
445 1.62049
450 1.59801
455 1.58406
460 1.58152
465 1.74401
470 2.24826
475 4.22398
480 4.74745
485 3.58134
490 3.21847
495 2.82137
500 2.54673
505 2.33571
510 2.26449
515 2.10324
520 2.06362
525 1.85803
530 1.66026
535 1.70217
540 1.53858
545 1.3566
550 1.23095
555 1.17182
560 1.01678
565 0.926477
570 0.86394
575 0.641983
580 0.651141
585 0.515021
590 0.378096
595 0.34485
600 0.561053
Ex : 428
200 0.140179
205 0.156135
210 0.118284
215 0.112739
220 0.114977
225 0.179062
230 0.149077
235 0.159413
240 0.100884
245 0.138818
250 0.15562
255 0.107486
260 0.113028
265 0.0830474
270 0.166059
275 0.134249
280 0.200119
285 0.145479
290 0.125877
295 0.122464
300 0.101635
305 0.141925
310 0.119439
315 0.116095
320 0.175904
325 0.123331
330 0.17211
335 0.147566
340 0.161058
345 0.107479
350 0.119993
355 0.142427
360 0.131075
365 0.12844
370 0.103328
375 0.167918
380 0.152648
385 0.190261
390 0.169445
395 0.135977
400 0.196348
405 0.274869
410 0.323933
415 7.38428
420 129.75
425 206.36
430 55.1161
435 7.25786
440 1.81208
445 1.22646
450 1.44337
455 1.63803
460 1.56249
465 1.4681
470 1.54996
475 2.01543
480 3.31439
485 4.66062
490 3.67771
495 2.88513
500 2.66244
505 2.27055
510 2.17912
515 2.02517
520 1.85817
525 1.77241
530 1.67226
535 1.5208
540 1.38274
545 1.43518
550 1.27519
555 1.14075
560 1.09555
565 0.952248
570 0.770184
575 0.718909
580 0.551596
585 0.499123
590 0.433577
595 0.347599
600 0.307477
Ex : 433
200 0.161942
205 0.144846
210 0.095695
215 0.134871
220 0.12029
225 0.132119
230 0.0896389
235 0.148291
240 0.121281
245 0.152958
250 0.125836
255 0.111131
260 0.131852
265 0.134534
270 0.112107
275 0.109853
280 0.107828
285 0.119111
290 0.194924
295 0.128964
300 0.139545
305 0.13756
310 0.137722
315 0.0938751
320 0.10378
325 0.154923
330 0.133096
335 0.128795
340 0.162309
345 0.118484
350 0.150401
355 0.215061
360 0.125483
365 0.110677
370 0.186145
375 0.170212
380 0.112534
385 0.214752
390 0.176523
395 0.181696
400 0.199597
405 0.19218
410 0.26089
415 0.364426
420 7.93818
425 134.081
430 206.582
435 55.8266
440 7.41705
445 1.79008
450 1.30278
455 1.52248
460 1.64801
465 1.56602
470 1.48962
475 1.56051
480 1.8052
485 2.62529
490 4.32583
495 3.80922
500 2.86153
505 2.70436
510 2.31188
515 1.85879
520 1.79513
525 1.75343
530 1.67676
535 1.50509
540 1.40493
545 1.25086
550 1.19874
555 1.20305
560 1.00389
565 0.895175
570 0.759769
575 0.717961
580 0.576355
585 0.415478
590 0.384902
595 0.416327
600 0.589769
Ex : 438
200 0.101321
205 0.103804
210 0.119319
215 0.144441
220 0.168359
225 0.141372
230 0.140812
235 0.151649
240 0.127786
245 0.121774
250 0.116009
255 0.111856
260 0.102852
265 0.149152
270 0.132184
275 0.164067
280 0.154707
285 0.111112
290 0.120335
295 0.245187
300 0.114781
305 0.136536
310 0.153276
315 0.13807
320 0.127382
325 0.203927
330 0.125038
335 0.14573
340 0.179617
345 0.160043
350 0.16166
355 0.124371
360 0.154035
365 0.130228
370 0.192541
375 0.233173
380 0.136206
385 0.15877
390 0.129915
395 0.185685
400 0.178236
405 0.223504
410 0.223237
415 0.243329
420 0.365644
425 7.94429
430 142.331
435 221.495
440 57.671
445 7.64919
450 1.97942
455 1.27884
460 1.69705
465 1.79266
470 1.62853
475 1.36535
480 1.42865
485 1.65512
490 2.10661
495 3.87863
500 3.99299
505 2.80141
510 2.34487
515 2.19177
520 1.73633
525 1.59647
530 1.58457
535 1.46646
540 1.32404
545 1.18836
550 1.19467
555 1.20105
560 1.02655
565 0.888279
570 0.879359
575 0.640118
580 0.618421
585 0.469731
590 0.292495
595 0.337124
600 0.123182
Ex : 443
200 0.113391
205 0.129054
210 0.14925
215 0.12628
220 0.115137
225 0.0916535
230 0.109784
235 0.185506
240 0.114928
245 0.12697
250 0.121398
255 0.126311
260 0.140944
265 0.116864
270 0.120556
275 0.126501
280 0.162997
285 0.0975305
290 0.128925
295 0.165759
300 0.134014
305 0.0832061
310 0.117969
315 0.138179
320 0.127907
325 0.156971
330 0.216057
335 0.113235
340 0.127549
345 0.121851
350 0.128754
355 0.195006
360 0.17485
365 0.131703
370 0.132578
375 0.122667
380 0.125222
385 0.188718
390 0.283522
395 0.216869
400 0.188384
405 0.176023
410 0.177826
415 0.240792
420 0.260564
425 0.341462
430 8.63328
435 144.183
440 225.622
445 58.1249
450 7.68218
455 1.93281
460 1.32434
465 1.72876
470 1.77516
475 1.56711
480 1.47805
485 1.52671
490 1.50847
495 1.90399
500 3.10957
505 3.91093
510 3.03678
515 2.23094
520 2.10613
525 1.92054
530 1.52638
535 1.55735
540 1.30525
545 1.30055
550 1.14318
555 0.988796
560 0.892733
565 0.959975
570 0.740965
575 0.621507
580 0.502215
585 0.499149
590 0.413972
595 0.335082
600 0.038131
Ex : 448
200 0.0865589
205 0.128322
210 0.117933
215 0.0841341
220 0.108742
225 0.131455
230 0.109765
235 0.138126
240 0.0978857
245 0.132588
250 0.1935
255 0.141059
260 0.115386
265 0.181989
270 0.127864
275 0.104354
280 0.10668
285 0.13039
290 0.141754
295 0.169233
300 0.155461
305 0.146206
310 0.133928
315 0.162449
320 0.138844
325 0.209588
330 0.1107
335 0.192641
340 0.130086
345 0.149985
350 0.119554
355 0.124034
360 0.180834
365 0.143403
370 0.161489
375 0.118265
380 0.163742
385 0.160079
390 0.145436
395 0.197312
400 0.184252
405 0.17804
410 0.207123
415 0.207048
420 0.264553
425 0.276779
430 0.33964
435 9.58465
440 169.859
445 265.382
450 71.326
455 9.29366
460 2.23706
465 1.23687
470 1.44067
475 1.60328
480 1.62692
485 1.45104
490 1.34337
495 1.45659
500 1.62877
505 2.538
510 3.72397
515 3.19405
520 2.34347
525 2.12871
530 1.7676
535 1.48145
540 1.37601
545 1.29131
550 1.20613
555 1.12969
560 1.04172
565 0.915227
570 0.823202
575 0.722605
580 0.460173
585 0.442545
590 0.455797
595 0.379235
600 0.0431555
Ex : 453
200 0.205314
205 0.127686
210 0.125565
215 0.102157
220 0.0963702
225 0.121775
230 0.146478
235 0.138737
240 0.162931
245 0.133123
250 0.134928
255 0.160105
260 0.162499
265 0.132347
270 0.157051
275 0.198384
280 0.164656
285 0.116891
290 0.183441
295 0.165189
300 0.110286
305 0.109349
310 0.152557
315 0.150521
320 0.120867
325 0.195718
330 0.142358
335 0.145203
340 0.127099
345 0.119449
350 0.11402
355 0.136061
360 0.142331
365 0.202001
370 0.113592
375 0.156804
380 0.182155
385 0.116304
390 0.153587
395 0.141345
400 0.193995
405 0.163398
410 0.209147
415 0.190281
420 0.219391
425 0.202715
430 0.270357
435 0.441627
440 10.8528
445 204.943
450 315.52
455 71.1764
460 9.27667
465 2.19942
470 1.29634
475 1.47
480 1.7234
485 1.66116
490 1.31876
495 1.31101
500 1.32251
505 1.41053
510 1.92384
515 3.39113
520 3.31828
525 2.35129
530 2.0313
535 1.78549
540 1.42992
545 1.13144
550 1.11353
555 1.04497
560 1.0163
565 0.97432
570 0.77885
575 0.674988
580 0.602013
585 0.543292
590 0.425498
595 0.364826
600 0.289541
Ex : 458
200 0.154693
205 0.14796
210 0.107636
215 0.17633
220 0.103431
225 0.149607
230 0.16315
235 0.166939
240 0.126167
245 0.180702
250 0.163722
255 0.118541
260 0.167615
265 0.143873
270 0.0891254
275 0.132772
280 0.135272
285 0.152152
290 0.124704
295 0.184418
300 0.132709
305 0.128684
310 0.113371
315 0.146079
320 0.178633
325 0.178714
330 0.170116
335 0.139648
340 0.15596
345 0.143156
350 0.170464
355 0.146284
360 0.179052
365 0.15711
370 0.168551
375 0.120852
380 0.121157
385 0.179069
390 0.165744
395 0.135099
400 0.130884
405 0.165304
410 0.153829
415 0.136889
420 0.186998
425 0.178364
430 0.146509
435 0.256317
440 0.374003
445 10.8166
450 189.421
455 291.072
460 73.6432
465 9.5714
470 2.20222
475 1.2637
480 1.40196
485 1.77994
490 1.74239
495 1.50654
500 1.3579
505 1.32498
510 1.33388
515 1.67821
520 2.7412
525 3.5476
530 2.63356
535 1.79127
540 1.81247
545 1.42746
550 1.21945
555 1.05501
560 1.01247
565 0.913137
570 0.864
575 0.624597
580 0.600067
585 0.446314
590 0.457322
595 0.33558
600 0.452329
Ex : 463
200 0.100784
205 0.144176
210 0.118877
215 0.128147
220 0.0980901
225 0.142967
230 0.121532
235 0.0883649
240 0.130689
245 0.133486
250 0.139076
255 0.0860982
260 0.12355
265 0.137163
270 0.0989773
275 0.119067
280 0.170479
285 0.140552
290 0.125567
295 0.149211
300 0.127982
305 0.122217
310 0.159507
315 0.126253
320 0.180982
325 0.156516
330 0.149772
335 0.171242
340 0.187438
345 0.15591
350 0.109796
355 0.182995
360 0.146891
365 0.18963
370 0.158173
375 0.111284
380 0.155849
385 0.1082
390 0.132336
395 0.164759
400 0.234302
405 0.171081
410 0.138562
415 0.186952
420 0.18861
425 0.197763
430 0.239221
435 0.167967
440 0.287631
445 0.403753
450 10.8377
455 214.813
460 314.638
465 74.1941
470 9.55515
475 2.16821
480 1.17455
485 1.39959
490 1.52357
495 1.65771
500 1.43859
505 1.20834
510 1.40052
515 1.35419
520 1.2845
525 2.25543
530 3.16716
535 2.72768
540 1.86143
545 1.6385
550 1.48155
555 1.27153
560 1.13627
565 0.967019
570 0.791152
575 0.706722
580 0.587566
585 0.52605
590 0.421385
595 0.323554
600 0.22865
Ex : 468
200 0.124311
205 0.121467
210 0.0942079
215 0.157432
220 0.105319
225 0.144881
230 0.119436
235 0.13379
240 0.100526
245 0.116679
250 0.118555
255 0.10942
260 0.103053
265 0.0997876
270 0.125213
275 0.113263
280 0.107879
285 0.120122
290 0.131006
295 0.085691
300 0.104199
305 0.136846
310 0.121415
315 0.135539
320 0.0879768
325 0.0998474
330 0.0938705
335 0.163325
340 0.113783
345 0.143677
350 0.115126
355 0.133459
360 0.115033
365 0.130512
370 0.116882
375 0.13857
380 0.122327
385 0.129351
390 0.166389
395 0.167645
400 0.146629
405 0.133434
410 0.140818
415 0.163821
420 0.185554
425 0.198738
430 0.152589
435 0.181855
440 0.250057
445 0.28847
450 0.446888
455 14.4242
460 245.135
465 426.805
470 102.876
475 12.8794
480 2.57664
485 1.36055
490 1.41264
495 1.53893
500 1.61282
505 1.3698
510 1.21371
515 1.33093
520 1.28266
525 1.38514
530 1.75468
535 2.80345
540 2.94853
545 1.98245
550 1.55302
555 1.52611
560 1.20126
565 0.954221
570 0.841757
575 0.827822
580 0.564703
585 0.524396
590 0.481707
595 0.411612
600 0.385471
Ex : 473
200 0.11908
205 0.106975
210 0.109521
215 0.142992
220 0.211057
225 0.0744564
230 0.101572
235 0.156089
240 0.142478
245 0.13359
250 0.123958
255 0.124614
260 0.183151
265 0.205619
270 0.115765
275 0.128867
280 0.131441
285 0.19994
290 0.127479
295 0.15029
300 0.112363
305 0.155651
310 0.136086
315 0.178969
320 0.164532
325 0.122885
330 0.0973439
335 0.102348
340 0.13588
345 0.1209
350 0.116135
355 0.126597
360 0.152277
365 0.164988
370 0.144807
375 0.17614
380 0.136229
385 0.153556
390 0.154177
395 0.124822
400 0.194015
405 0.160332
410 0.162915
415 0.143558
420 0.132477
425 0.181689
430 0.158133
435 0.188591
440 0.202645
445 0.25254
450 0.302029
455 0.504238
460 15.4923
465 261.617
470 351.811
475 77.3123
480 9.86317
485 2.35234
490 1.43857
495 1.24023
500 1.46126
505 1.55851
510 1.43617
515 1.36847
520 1.19532
525 1.25155
530 1.37575
535 1.52434
540 2.38262
545 3.02294
550 2.28692
555 1.59868
560 1.38484
565 1.1144
570 0.856511
575 0.716246
580 0.595549
585 0.535374
590 0.415503
595 0.430454
600 0.617589
Ex : 478
200 0.203958
205 0.142167
210 0.166378
215 0.1983
220 0.171478
225 0.13398
230 0.153748
235 0.138938
240 0.11422
245 0.179636
250 0.204928
255 0.2156
260 0.152071
265 0.202783
270 0.172164
275 0.181301
280 0.139733
285 0.140799
290 0.147384
295 0.172807
300 0.134224
305 0.210494
310 0.156899
315 0.150446
320 0.157502
325 0.150798
330 0.147557
335 0.145002
340 0.176851
345 0.141324
350 0.17688
355 0.143847
360 0.224427
365 0.214889
370 0.159095
375 0.13172
380 0.153945
385 0.125102
390 0.210548
395 0.123945
400 0.187497
405 0.129982
410 0.206729
415 0.17109
420 0.205922
425 0.209102
430 0.200107
435 0.205356
440 0.248433
445 0.229245
450 0.292592
455 0.353806
460 0.617377
465 18.1905
470 259.749
475 348.307
480 82.5109
485 10.4801
490 2.37629
495 1.38054
500 1.12755
505 1.37534
510 1.58717
515 1.42042
520 1.24253
525 1.16109
530 1.22018
535 1.22494
540 1.2875
545 1.88305
550 2.76197
555 2.29826
560 1.60335
565 1.3037
570 1.2466
575 0.886535
580 0.675699
585 0.633033
590 0.470903
595 0.407354
600 0.365513
Ex : 483
200 0.209563
205 0.209286
210 0.146221
215 0.165966
220 0.169441
225 0.199605
230 0.150319
235 0.174316
240 0.187441
245 0.17847
250 0.142405
255 0.156611
260 0.100499
265 0.174661
270 0.212881
275 0.156448
280 0.163956
285 0.131302
290 0.129286
295 0.138417
300 0.117105
305 0.236862
310 0.154848
315 0.124597
320 0.124844
325 0.168406
330 0.185888
335 0.138673
340 0.206039
345 0.156788
350 0.185905
355 0.273966
360 0.176923
365 0.187962
370 0.179582
375 0.164581
380 0.150024
385 0.158826
390 0.175203
395 0.176861
400 0.154169
405 0.177686
410 0.173914
415 0.191013
420 0.155392
425 0.163537
430 0.20351
435 0.215073
440 0.21823
445 0.239881
450 0.261958
455 0.345381
460 0.429691
465 0.571083
470 12.4726
475 226.235
480 354.042
485 91.0958
490 11.3384
495 2.37079
500 1.23259
505 1.03118
510 1.37118
515 1.58729
520 1.40606
525 1.33779
530 1.3885
535 1.34137
540 1.20972
545 1.18606
550 1.44955
555 2.41784
560 2.50102
565 1.51115
570 1.17485
575 1.04002
580 0.793417
585 0.628109
590 0.458657
595 0.452835
600 0.171956
Ex : 488
200 0.175007
205 0.258941
210 0.124797
215 0.190776
220 0.20141
225 0.132002
230 0.146229
235 0.191786
240 0.177227
245 0.196188
250 0.156095
255 0.172981
260 0.206498
265 0.204829
270 0.196972
275 0.205599
280 0.170244
285 0.155706
290 0.117657
295 0.116129
300 0.148781
305 0.232357
310 0.15786
315 0.182592
320 0.108992
325 0.165144
330 0.167385
335 0.152744
340 0.182069
345 0.178027
350 0.126311
355 0.203499
360 0.249847
365 0.201425
370 0.154106
375 0.240183
380 0.182275
385 0.261535
390 0.172216
395 0.193594
400 0.165746
405 0.186444
410 0.23621
415 0.173941
420 0.217978
425 0.217504
430 0.175011
435 0.128941
440 0.233678
445 0.311065
450 0.257455
455 0.301291
460 0.362302
465 0.370759
470 0.673509
475 16.3027
480 271.293
485 419.22
490 102.442
495 12.8074
500 2.62562
505 1.3484
510 1.09835
515 1.2587
520 1.51885
525 1.55385
530 1.3726
535 1.1464
540 1.15656
545 1.15388
550 1.13998
555 1.31575
560 1.89096
565 2.22894
570 1.72327
575 1.07194
580 0.8619
585 0.715304
590 0.502563
595 0.462793
600 0.113782
Ex : 493
200 0.130139
205 0.202353
210 0.163402
215 0.184637
220 0.1878
225 0.211833
230 0.225142
235 0.159969
240 0.152746
245 0.146338
250 0.151532
255 0.23489
260 0.169099
265 0.199531
270 0.232264
275 0.152619
280 0.139362
285 0.197066
290 0.153292
295 0.12401
300 0.163327
305 0.182109
310 0.143597
315 0.178948
320 0.183073
325 0.187819
330 0.1576
335 0.157478
340 0.170653
345 0.20215
350 0.177158
355 0.165204
360 0.227597
365 0.265928
370 0.258967
375 0.217576
380 0.166482
385 0.129921
390 0.184149
395 0.11066
400 0.180231
405 0.197606
410 0.154217
415 0.205128
420 0.153832
425 0.174135
430 0.161886
435 0.172235
440 0.229327
445 0.206874
450 0.298105
455 0.298949
460 0.291752
465 0.310872
470 0.513453
475 0.64589
480 16.53
485 317.794
490 409.573
495 90.4243
500 11.4121
505 2.22522
510 1.39205
515 1.17052
520 1.31029
525 1.50493
530 1.49609
535 1.44207
540 1.1975
545 1.11493
550 1.14201
555 0.89777
560 1.03434
565 1.34149
570 1.87862
575 1.63028
580 1.04098
585 0.764088
590 0.652176
595 0.542466
600 0.676031
Ex : 498
200 0.184481
205 0.147034
210 0.187163
215 0.152179
220 0.157351
225 0.171777
230 0.16316
235 0.139042
240 0.197774
245 0.197143
250 0.173819
255 0.21967
260 0.225549
265 0.245227
270 0.204511
275 0.21613
280 0.223672
285 0.206068
290 0.198417
295 0.216481
300 0.161895
305 0.189204
310 0.155655
315 0.208113
320 0.317067
325 0.21334
330 0.245471
335 0.169247
340 0.172558
345 0.15982
350 0.172143
355 0.209256
360 0.183621
365 0.230284
370 0.224084
375 0.183779
380 0.174617
385 0.10668
390 0.184773
395 0.187972
400 0.271152
405 0.299966
410 0.25593
415 0.260103
420 0.247481
425 0.179535
430 0.161102
435 0.230531
440 0.202869
445 0.262564
450 0.261232
455 0.266796
460 0.236872
465 0.255361
470 0.339493
475 0.452413
480 0.773739
485 24.4136
490 319.208
495 513.414
500 133.005
505 16.3819
510 2.91356
515 1.40965
520 1.22884
525 1.29078
530 1.53346
535 1.44898
540 1.25219
545 1.14513
550 1.13043
555 1.07922
560 0.857947
565 0.871696
570 1.09974
575 1.51248
580 1.54621
585 0.959964
590 0.588017
595 0.506195
600 0.587842
Ex : 503
200 0.187494
205 0.17545
210 0.151655
215 0.166362
220 0.168045
225 0.18275
230 0.13757
235 0.183517
240 0.218506
245 0.215987
250 0.170987
255 0.149408
260 0.169144
265 0.178573
270 0.170727
275 0.184559
280 0.172524
285 0.21145
290 0.174581
295 0.247182
300 0.216577
305 0.198691
310 0.283182
315 0.193792
320 0.18735
325 0.160802
330 0.263977
335 0.270439
340 0.181146
345 0.178696
350 0.183019
355 0.188852
360 0.235376
365 0.140461
370 0.168891
375 0.196441
380 0.266698
385 0.204712
390 0.16075
395 0.267435
400 0.219427
405 0.240792
410 0.204172
415 0.308277
420 0.328827
425 0.237599
430 0.256272
435 0.209207
440 0.244583
445 0.288063
450 0.280347
455 0.248672
460 0.278832
465 0.294834
470 0.248886
475 0.324658
480 0.455638
485 0.688464
490 16.0653
495 277.499
500 406.742
505 90.0858
510 11.2918
515 2.17748
520 1.30258
525 1.18942
530 1.1016
535 1.37673
540 1.38593
545 1.20813
550 1.28498
555 1.07562
560 1.0616
565 0.956515
570 0.937596
575 0.990373
580 1.14053
585 1.37701
590 1.01472
595 0.722572
600 0.12949
Ex : 508
200 0.223631
205 0.215397
210 0.244084
215 0.244008
220 0.17731
225 0.200266
230 0.201814
235 0.164603
240 0.158633
245 0.25418
250 0.241614
255 0.213063
260 0.209336
265 0.159338
270 0.178063
275 0.157009
280 0.199396
285 0.266892
290 0.212206
295 0.22618
300 0.179137
305 0.194457
310 0.156105
315 0.220609
320 0.213137
325 0.222028
330 0.228905
335 0.20327
340 0.186624
345 0.21677
350 0.237826
355 0.242054
360 0.230142
365 0.23875
370 0.180669
375 0.258089
380 0.182313
385 0.254776
390 0.220643
395 0.184491
400 0.239542
405 0.191077
410 0.22051
415 0.195647
420 0.245779
425 0.217752
430 0.259004
435 0.234362
440 0.315561
445 0.27856
450 0.259416
455 0.247772
460 0.263066
465 0.290131
470 0.267559
475 0.337236
480 0.341153
485 0.489059
490 0.659531
495 23.364
500 337.727
505 397.204
510 92.8451
515 11.7494
520 2.44137
525 1.39317
530 1.2596
535 1.03234
540 1.26282
545 1.2258
550 1.25672
555 1.18186
560 1.07988
565 0.900198
570 0.819902
575 0.755776
580 0.68277
585 0.78772
590 1.22851
595 0.976651
600 0.245289
Ex : 513
200 0.256461
205 0.21314
210 0.21344
215 0.301307
220 0.144655
225 0.183724
230 0.176459
235 0.184783
240 0.163712
245 0.148651
250 0.202025
255 0.187953
260 0.238058
265 0.210228
270 0.216096
275 0.24222
280 0.201811
285 0.333251
290 0.276718
295 0.195828
300 0.216018
305 0.196993
310 0.150975
315 0.247835
320 0.202937
325 0.194308
330 0.185481
335 0.20601
340 0.17649
345 0.195881
350 0.195597
355 0.219236
360 0.210236
365 0.213276
370 0.208797
375 0.273544
380 0.264674
385 0.230012
390 0.211789
395 0.225841
400 0.178312
405 0.218511
410 0.204972
415 0.220402
420 0.233768
425 0.236232
430 0.228233
435 0.237204
440 0.194268
445 0.214484
450 0.223462
455 0.369596
460 0.209802
465 0.264598
470 0.285108
475 0.307381
480 0.316396
485 0.510746
490 0.560935
495 0.804213
500 21.5232
505 311.455
510 448.457
515 113.446
520 14.2631
525 2.75807
530 1.38562
535 1.07763
540 0.99807
545 1.16575
550 1.22201
555 1.17645
560 0.991814
565 0.958039
570 0.738835
575 0.658775
580 0.765418
585 0.642796
590 0.557164
595 0.770569
600 0.92511
Ex : 518
200 0.195022
205 0.204751
210 0.179773
215 0.216599
220 0.204733
225 0.184074
230 0.175101
235 0.229698
240 0.247791
245 0.21385
250 0.241983
255 0.209194
260 0.17154
265 0.195708
270 0.147424
275 0.197177
280 0.221182
285 0.198869
290 0.2007
295 0.177063
300 0.196409
305 0.213015
310 0.249327
315 0.318789
320 0.204594
325 0.197037
330 0.200404
335 0.208983
340 0.240755
345 0.265159
350 0.224642
355 0.311587
360 0.278559
365 0.20217
370 0.195214
375 0.169373
380 0.248552
385 0.195287
390 0.177487
395 0.268537
400 0.306794
405 0.241402
410 0.263907
415 0.250487
420 0.222906
425 0.276596
430 0.241091
435 0.33684
440 0.259831
445 0.218516
450 0.185356
455 0.22924
460 0.2824
465 0.245606
470 0.322098
475 0.312669
480 0.270877
485 0.411992
490 0.399699
495 0.567091
500 0.666092
505 21.4889
510 315.976
515 466.241
520 127.629
525 15.8336
530 2.99784
535 1.36337
540 1.26107
545 1.04384
550 1.09739
555 1.01393
560 1.05104
565 1.0139
570 0.783015
575 0.830997
580 0.593092
585 0.559714
590 0.613498
595 0.496232
600 0.702132
Ex : 523
200 0.270743
205 0.383021
210 0.170802
215 0.188432
220 0.234798
225 0.250466
230 0.236326
235 0.204846
240 0.198451
245 0.243037
250 0.196388
255 0.152623
260 0.18493
265 0.169198
270 0.165528
275 0.191041
280 0.167852
285 0.226684
290 0.180281
295 0.202926
300 0.179925
305 0.15762
310 0.209072
315 0.316581
320 0.207929
325 0.299744
330 0.244056
335 0.263737
340 0.31583
345 0.191125
350 0.198091
355 0.20882
360 0.231433
365 0.208332
370 0.297751
375 0.271793
380 0.276289
385 0.201659
390 0.186548
395 0.193861
400 0.228852
405 0.235996
410 0.208021
415 0.24546
420 0.239294
425 0.308923
430 0.280198
435 0.282739
440 0.232096
445 0.206422
450 0.285025
455 0.291694
460 0.266811
465 0.319857
470 0.287134
475 0.262156
480 0.247634
485 0.296333
490 0.499651
495 0.370299
500 0.660338
505 0.828166
510 24.9601
515 349.553
520 505.398
525 128.758
530 15.9676
535 2.83558
540 1.36879
545 1.11137
550 1.01707
555 1.14807
560 1.11447
565 1.03384
570 0.87866
575 0.746675
580 0.649496
585 0.572615
590 0.47683
595 0.495216
600 0.488648
Ex : 528
200 0.257971
205 0.219481
210 0.201267
215 0.194963
220 0.200074
225 0.156481
230 0.166361
235 0.298717
240 0.20855
245 0.230456
250 0.239413
255 0.269358
260 0.25525
265 0.195412
270 0.230527
275 0.211567
280 0.274782
285 0.201248
290 0.201543
295 0.226594
300 0.247255
305 0.234148
310 0.238573
315 0.230055
320 0.343488
325 0.344414
330 0.272788
335 0.227113
340 0.316231
345 0.240827
350 0.310839
355 0.317497
360 0.27052
365 0.18327
370 0.218543
375 0.25089
380 0.179219
385 0.230521
390 0.267392
395 0.305839
400 0.23638
405 0.225025
410 0.21402
415 0.196384
420 0.230271
425 0.265409
430 0.258389
435 0.21033
440 0.216216
445 0.305223
450 0.377307
455 0.267884
460 0.284518
465 0.424329
470 0.243319
475 0.227579
480 0.232438
485 0.2552
490 0.258045
495 0.376592
500 0.4576
505 0.507524
510 0.790865
515 19.0193
520 310.342
525 435.702
530 109.94
535 13.8913
540 2.63973
545 1.25301
550 1.04068
555 0.938745
560 1.08421
565 0.848229
570 0.900949
575 0.873099
580 0.64658
585 0.54462
590 0.594173
595 0.502988
600 0.53199
Ex : 533
200 0.147019
205 0.196247
210 0.2229
215 0.203563
220 0.254719
225 0.242897
230 0.280342
235 0.241819
240 0.245786
245 0.208118
250 0.222039
255 0.242735
260 0.249229
265 0.263905
270 0.268044
275 0.217136
280 0.20851
285 0.219779
290 0.244033
295 0.217448
300 0.210377
305 0.223553
310 0.211085
315 0.172652
320 0.246514
325 0.22058
330 0.166947
335 0.2829
340 0.193826
345 0.344201
350 0.201502
355 0.204009
360 0.256872
365 0.245259
370 0.264778
375 0.315515
380 0.247197
385 0.25063
390 0.211972
395 0.279485
400 0.22481
405 0.192017
410 0.270158
415 0.243516
420 0.263394
425 0.28535
430 0.252539
435 0.273915
440 0.290987
445 0.279126
450 0.347401
455 0.203386
460 0.254488
465 0.278895
470 0.263299
475 0.339733
480 0.347016
485 0.323355
490 0.305741
495 0.318217
500 0.361366
505 0.466143
510 0.59394
515 0.901702
520 19.3878
525 318.261
530 497.545
535 134.033
540 16.4409
545 2.93906
550 1.47808
555 1.00279
560 0.863875
565 0.755733
570 0.748599
575 0.673268
580 0.577809
585 0.555465
590 0.50067
595 0.47449
600 0.0539952
Ex : 538
200 0.22821
205 0.266442
210 0.18552
215 0.175105
220 0.266636
225 0.261897
230 0.207461
235 0.18688
240 0.194539
245 0.209146
250 0.274658
255 0.165111
260 0.234399
265 0.246963
270 0.274469
275 0.241422
280 0.197725
285 0.212878
290 0.180229
295 0.174343
300 0.276095
305 0.263995
310 0.27633
315 0.197337
320 0.29577
325 0.187182
330 0.272224
335 0.205544
340 0.257484
345 0.287882
350 0.255378
355 0.205565
360 0.208585
365 0.260543
370 0.284402
375 0.313571
380 0.223952
385 0.205907
390 0.245644
395 0.281089
400 0.23631
405 0.339669
410 0.233331
415 0.298655
420 0.34258
425 0.320453
430 0.333904
435 0.241298
440 0.305756
445 0.252206
450 0.243095
455 0.255168
460 0.340077
465 0.216912
470 0.35665
475 0.327737
480 0.272704
485 0.257275
490 0.328243
495 0.36262
500 0.347193
505 0.347209
510 0.484398
515 0.580302
520 0.775711
525 18.3916
530 355.615
535 639.27
540 162.23
545 19.7927
550 3.18155
555 1.21032
560 1.11693
565 1.02683
570 0.787877
575 0.863882
580 0.847569
585 0.566081
590 0.63216
595 0.429786
600 0.749295
Ex : 543
200 0.236953
205 0.276507
210 0.292654
215 0.205879
220 0.197969
225 0.237061
230 0.213384
235 0.13575
240 0.201713
245 0.226391
250 0.359759
255 0.214416
260 0.16288
265 0.169832
270 0.15942
275 0.223844
280 0.271758
285 0.275151
290 0.251863
295 0.259083
300 0.227751
305 0.272373
310 0.309389
315 0.367255
320 0.261548
325 0.230594
330 0.222465
335 0.208021
340 0.227021
345 0.312329
350 0.228287
355 0.385681
360 0.290787
365 0.254025
370 0.296693
375 0.260671
380 0.242452
385 0.303747
390 0.300403
395 0.332328
400 0.233555
405 0.237663
410 0.253055
415 0.227136
420 0.289596
425 0.348485
430 0.230312
435 0.211163
440 0.254086
445 0.301312
450 0.320723
455 0.266777
460 0.2719
465 0.293192
470 0.232637
475 0.220597
480 0.311813
485 0.347498
490 0.397044
495 0.322473
500 0.311023
505 0.347639
510 0.430846
515 0.482956
520 0.520527
525 0.73011
530 12.4799
535 266.738
540 568.362
545 172.711
550 21.0609
555 3.4435
560 1.24966
565 0.91358
570 0.746128
575 0.649196
580 0.638423
585 0.605809
590 0.512333
595 0.546184
600 0.490485
Ex : 548
200 0.212483
205 0.285247
210 0.255701
215 0.323777
220 0.200016
225 0.176646
230 0.164853
235 0.371289
240 0.263984
245 0.229609
250 0.275814
255 0.3979
260 0.290705
265 0.245055
270 0.346528
275 0.2502
280 0.245035
285 0.226692
290 0.236256
295 0.237354
300 0.206265
305 0.266185
310 0.208669
315 0.250742
320 0.273778
325 0.3228
330 0.331688
335 0.323176
340 0.230388
345 0.254798
350 0.235481
355 0.269406
360 0.20887
365 0.183113
370 0.22054
375 0.205218
380 0.265396
385 0.240263
390 0.263112
395 0.2801
400 0.259223
405 0.261856
410 0.195946
415 0.262657
420 0.3067
425 0.284206
430 0.302512
435 0.350762
440 0.227007
445 0.213929
450 0.223014
455 0.258354
460 0.290473
465 0.289762
470 0.238935
475 0.367127
480 0.305982
485 0.28179
490 0.273429
495 0.315206
500 0.39356
505 0.427131
510 0.364371
515 0.4497
520 0.403221
525 0.709486
530 0.912977
535 19.5436
540 392.51
545 679.065
550 199.505
555 23.9512
560 3.47021
565 1.20664
570 0.897416
575 0.729775
580 0.571865
585 0.636381
590 0.520309
595 0.412674
600 0.257246
Ex : 553
200 0.28749
205 0.223936
210 0.229351
215 0.220097
220 0.324298
225 0.188739
230 0.22065
235 0.293444
240 0.185567
245 0.234097
250 0.297103
255 0.28392
260 0.340974
265 0.216962
270 0.224703
275 0.299821
280 0.256105
285 0.209757
290 0.198302
295 0.276371
300 0.227512
305 0.322411
310 0.240582
315 0.193875
320 0.2531
325 0.276471
330 0.243083
335 0.230605
340 0.191944
345 0.365529
350 0.296056
355 0.282954
360 0.304801
365 0.255327
370 0.23908
375 0.282823
380 0.373118
385 0.280981
390 0.202068
395 0.230948
400 0.266966
405 0.254981
410 0.251127
415 0.204141
420 0.366906
425 0.297546
430 0.242437
435 0.259038
440 0.33904
445 0.313086
450 0.297016
455 0.323889
460 0.455145
465 0.306045
470 0.281957
475 0.353924
480 0.384419
485 0.351742
490 0.280465
495 0.29603
500 0.255394
505 0.4134
510 0.326582
515 0.409352
520 0.469713
525 0.460478
530 0.539557
535 0.979987
540 20.511
545 382.372
550 556.264
555 148.384
560 18.1995
565 2.88201
570 1.05355
575 0.698505
580 0.60179
585 0.724026
590 0.5842
595 0.630337
600 0.535684
Ex : 558
200 0.297406
205 0.249678
210 0.262545
215 0.22736
220 0.246458
225 0.349764
230 0.253691
235 0.301912
240 0.29645
245 0.274805
250 0.26671
255 0.217361
260 0.354047
265 0.252034
270 0.281679
275 0.271294
280 0.21933
285 0.277281
290 0.263761
295 0.222997
300 0.301483
305 0.346405
310 0.281483
315 0.282066
320 0.311045
325 0.265847
330 0.268102
335 0.261526
340 0.223033
345 0.306422
350 0.29495
355 0.220794
360 0.245747
365 0.362196
370 0.28249
375 0.284301
380 0.330223
385 0.404155
390 0.280114
395 0.21529
400 0.276452
405 0.243119
410 0.291611
415 0.364976
420 0.224859
425 0.252916
430 0.292201
435 0.317725
440 0.328472
445 0.270577
450 0.285627
455 0.225106
460 0.307753
465 0.432744
470 0.280596
475 0.250506
480 0.257904
485 0.289036
490 0.262164
495 0.420235
500 0.354822
505 0.333423
510 0.349729
515 0.316195
520 0.410939
525 0.321845
530 0.575864
535 0.626093
540 0.877763
545 17.7777
550 348.905
555 532.368
560 164.409
565 20.2625
570 3.03558
575 1.03618
580 0.831568
585 0.567271
590 0.470778
595 0.547908
600 0.0623499
Ex : 563
200 0.296006
205 0.209869
210 0.201495
215 0.298773
220 0.245013
225 0.310581
230 0.332909
235 0.323494
240 0.275467
245 0.289277
250 0.258481
255 0.249836
260 0.259291
265 0.158003
270 0.277803
275 0.301258
280 0.429535
285 0.243043
290 0.210841
295 0.225361
300 0.265983
305 0.25822
310 0.261659
315 0.269416
320 0.2785
325 0.386014
330 0.279391
335 0.291869
340 0.326226
345 0.214576
350 0.254223
355 0.178421
360 0.29191
365 0.241878
370 0.272082
375 0.283692
380 0.316737
385 0.282668
390 0.269216
395 0.393995
400 0.313713
405 0.199257
410 0.24293
415 0.34112
420 0.294066
425 0.315286
430 0.307316
435 0.310883
440 0.278347
445 0.215611
450 0.285129
455 0.321089
460 0.354684
465 0.291951
470 0.290941
475 0.266799
480 0.362886
485 0.214983
490 0.387002
495 0.358047
500 0.398921
505 0.308122
510 0.310641
515 0.367626
520 0.296319
525 0.324333
530 0.50363
535 0.416293
540 0.546927
545 0.643405
550 15.6753
555 275.281
560 589.338
565 185.526
570 22.5444
575 3.23944
580 1.05082
585 0.666468
590 0.495629
595 0.520546
600 0.108775
Ex : 568
200 0.271843
205 0.225014
210 0.344064
215 0.265957
220 0.421707
225 0.298354
230 0.311863
235 0.248918
240 0.320628
245 0.321469
250 0.247446
255 0.270845
260 0.320809
265 0.420574
270 0.357338
275 0.30587
280 0.274701
285 0.273434
290 0.230824
295 0.308673
300 0.211081
305 0.32957
310 0.222407
315 0.342053
320 0.234769
325 0.302132
330 0.335203
335 0.319366
340 0.286972
345 0.293625
350 0.20978
355 0.351023
360 0.283013
365 0.34108
370 0.290904
375 0.296625
380 0.369411
385 0.327606
390 0.322146
395 0.362164
400 0.260557
405 0.2371
410 0.2186
415 0.362828
420 0.342196
425 0.35968
430 0.300715
435 0.388837
440 0.397393
445 0.361088
450 0.397399
455 0.366252
460 0.317653
465 0.344779
470 0.302397
475 0.368673
480 0.350762
485 0.397858
490 0.316911
495 0.25468
500 0.295673
505 0.358965
510 0.38278
515 0.400041
520 0.353134
525 0.372833
530 0.3908
535 0.432041
540 0.432535
545 0.595438
550 0.801187
555 13.8175
560 326.933
565 524.475
570 156.16
575 19.4149
580 2.90067
585 0.837637
590 0.604503
595 0.544699
600 0.395017
Ex : 573
200 0.42893
205 0.312893
210 0.2657
215 0.313736
220 0.24238
225 0.229389
230 0.199544
235 0.354019
240 0.305516
245 0.387108
250 0.346974
255 0.206008
260 0.29368
265 0.289768
270 0.256111
275 0.225639
280 0.292045
285 0.255629
290 0.304012
295 0.326806
300 0.268747
305 0.364494
310 0.273987
315 0.186527
320 0.282646
325 0.245366
330 0.38161
335 0.329086
340 0.380486
345 0.231506
350 0.336845
355 0.369644
360 0.258423
365 0.389737
370 0.268556
375 0.368256
380 0.294706
385 0.327438
390 0.375543
395 0.239638
400 0.280652
405 0.405334
410 0.3343
415 0.279517
420 0.383942
425 0.327787
430 0.381983
435 0.337935
440 0.329402
445 0.227426
450 0.233567
455 0.335123
460 0.394064
465 0.27538
470 0.321993
475 0.2932
480 0.327364
485 0.290675
490 0.33579
495 0.293295
500 0.391766
505 0.375187
510 0.29859
515 0.35032
520 0.358747
525 0.26262
530 0.301129
535 0.405262
540 0.401332
545 0.436303
550 0.510739
555 0.702415
560 9.01981
565 246.275
570 553.271
575 164.898
580 20.3418
585 2.94568
590 0.867183
595 0.664219
600 0.428909
Ex : 578
200 0.227771
205 0.223638
210 0.299482
215 0.235642
220 0.306639
225 0.306026
230 0.371914
235 0.509331
240 0.27228
245 0.29351
250 0.294372
255 0.367449
260 0.230894
265 0.238623
270 0.367634
275 0.281705
280 0.259385
285 0.283296
290 0.29134
295 0.293064
300 0.250855
305 0.300902
310 0.204072
315 0.318817
320 0.266954
325 0.28265
330 0.239948
335 0.286943
340 0.3685
345 0.366561
350 0.266813
355 0.370173
360 0.327336
365 0.351092
370 0.324401
375 0.363198
380 0.312051
385 0.239896
390 0.219332
395 0.213501
400 0.392369
405 0.354075
410 0.33136
415 0.407513
420 0.278594
425 0.321465
430 0.299819
435 0.273683
440 0.290213
445 0.266275
450 0.300548
455 0.303191
460 0.378076
465 0.317046
470 0.303615
475 0.412458
480 0.423955
485 0.317896
490 0.315991
495 0.427028
500 0.354931
505 0.35085
510 0.365555
515 0.365841
520 0.431024
525 0.385414
530 0.384751
535 0.446931
540 0.350217
545 0.453502
550 0.585258
555 0.592214
560 0.822661
565 11.0365
570 258.732
575 427.656
580 148.33
585 17.9756
590 2.67897
595 0.750135
600 0.0913911
Ex : 583
200 0.285524
205 0.210088
210 0.270298
215 0.277999
220 0.24174
225 0.204839
230 0.293076
235 0.295979
240 0.162592
245 0.270115
250 0.287337
255 0.254138
260 0.2691
265 0.205194
270 0.23139
275 0.268951
280 0.243041
285 0.291898
290 0.223107
295 0.235174
300 0.314748
305 0.266449
310 0.328345
315 0.265638
320 0.254079
325 0.194067
330 0.301647
335 0.330123
340 0.338682
345 0.400381
350 0.272816
355 0.360516
360 0.320926
365 0.203639
370 0.195395
375 0.232981
380 0.43737
385 0.349245
390 0.332011
395 0.274899
400 0.356224
405 0.285264
410 0.265752
415 0.277109
420 0.32531
425 0.253119
430 0.219584
435 0.37148
440 0.392746
445 0.308083
450 0.330162
455 0.358126
460 0.399275
465 0.337536
470 0.276528
475 0.309495
480 0.279051
485 0.329076
490 0.354394
495 0.332383
500 0.331841
505 0.217969
510 0.359223
515 0.355683
520 0.306262
525 0.264241
530 0.245276
535 0.371188
540 0.369563
545 0.364717
550 0.414054
555 0.34713
560 0.517548
565 0.662661
570 10.8429
575 325.086
580 846.451
585 206.833
590 24.6623
595 3.29142
600 1.18075
Ex : 588
200 0.376251
205 0.291348
210 0.251968
215 0.321775
220 0.291112
225 0.361261
230 0.258372
235 0.259481
240 0.34312
245 0.316969
250 0.348964
255 0.287318
260 0.158308
265 0.342987
270 0.30624
275 0.253158
280 0.207513
285 0.23144
290 0.269867
295 0.268072
300 0.248505
305 0.249677
310 0.264867
315 0.246833
320 0.250137
325 0.321878
330 0.396472
335 0.234898
340 0.263854
345 0.273926
350 0.402983
355 0.274132
360 0.356187
365 0.460602
370 0.233673
375 0.355344
380 0.356237
385 0.283621
390 0.459839
395 0.240306
400 0.304684
405 0.356332
410 0.376258
415 0.429963
420 0.321441
425 0.428065
430 0.231807
435 0.33385
440 0.303867
445 0.323075
450 0.296883
455 0.269566
460 0.325365
465 0.278467
470 0.366137
475 0.384079
480 0.452677
485 0.36279
490 0.288365
495 0.376432
500 0.269899
505 0.323
510 0.374212
515 0.444121
520 0.343535
525 0.248798
530 0.278097
535 0.337776
540 0.418544
545 0.395967
550 0.391562
555 0.407779
560 0.481215
565 0.582953
570 0.75559
575 10.2582
580 239.186
585 432.087
590 148.603
595 17.7901
600 2.31032
Ex : 593
200 0.332436
205 0.259181
210 0.344542
215 0.267545
220 0.24172
225 0.276451
230 0.242567
235 0.341678
240 0.290463
245 0.248099
250 0.333089
255 0.220433
260 0.234036
265 0.294376
270 0.209368
275 0.279072
280 0.272508
285 0.304597
290 0.379635
295 0.281671
300 0.185266
305 0.222232
310 0.301089
315 0.294383
320 0.304235
325 0.237833
330 0.312076
335 0.296312
340 0.27831
345 0.260188
350 0.224711
355 0.24154
360 0.245044
365 0.342355
370 0.289689
375 0.321865
380 0.293629
385 0.241652
390 0.323591
395 0.260064
400 0.385006
405 0.430192
410 0.44507
415 0.310835
420 0.317134
425 0.272176
430 0.305041
435 0.418476
440 0.275179
445 0.245618
450 0.224511
455 0.400493
460 0.321697
465 0.368136
470 0.324659
475 0.388158
480 0.406504
485 0.377492
490 0.348941
495 0.368128
500 0.385629
505 0.231042
510 0.337626
515 0.2541
520 0.208532
525 0.347967
530 0.342487
535 0.367869
540 0.316339
545 0.317804
550 0.296644
555 0.457538
560 0.403302
565 0.463335
570 0.520618
575 0.655281
580 7.45949
585 221.571
590 575.204
595 161.484
600 23.6668
Ex : 598
200 0.373622
205 0.322135
210 0.327693
215 0.33947
220 0.233
225 0.371669
230 0.349678
235 0.253404
240 0.251559
245 0.321687
250 0.214047
255 0.164531
260 0.231619
265 0.370335
270 0.303547
275 0.394318
280 0.349191
285 0.260701
290 0.287624
295 0.304662
300 0.363121
305 0.327344
310 0.233999
315 0.367774
320 0.361967
325 0.419583
330 0.280105
335 0.303124
340 0.225761
345 0.348833
350 0.219787
355 0.184561
360 0.279841
365 0.196025
370 0.250972
375 0.397979
380 0.246486
385 0.320773
390 0.306093
395 0.240254
400 0.289615
405 0.444781
410 0.301881
415 0.292822
420 0.333903
425 0.262205
430 0.275622
435 0.306567
440 0.54966
445 0.373624
450 0.315105
455 0.2963
460 0.297017
465 0.365328
470 0.388465
475 0.296382
480 0.303602
485 0.380397
490 0.340089
495 0.274138
500 0.373175
505 0.353247
510 0.446807
515 0.320188
520 0.328102
525 0.41883
530 0.352976
535 0.322831
540 0.298196
545 0.316593
550 0.540629
555 0.356146
560 0.453724
565 0.430715
570 0.445478
575 0.621426
580 0.864677
585 11.4339
590 198.05
595 300.796
600 202.397
Ex : 603
200 0.284573
205 0.360302
210 0.298483
215 0.353887
220 0.350749
225 0.351075
230 0.32588
235 0.313522
240 0.357144
245 0.317558
250 0.275266
255 0.348432
260 0.237882
265 0.343098
270 0.280498
275 0.380935
280 0.356453
285 0.319695
290 0.379675
295 0.301573
300 0.245477
305 0.33202
310 0.320153
315 0.284792
320 0.26952
325 0.449296
330 0.288083
335 0.31825
340 0.28979
345 0.235498
350 0.31565
355 0.303947
360 0.212108
365 0.284478
370 0.244344
375 0.266846
380 0.351576
385 0.363592
390 0.26698
395 0.328217
400 0.297681
405 0.245687
410 0.272338
415 0.21432
420 0.328483
425 0.27803
430 0.439803
435 0.278757
440 0.617016
445 0.348904
450 0.380966
455 0.236513
460 0.391089
465 0.381551
470 0.383945
475 0.319922
480 0.381748
485 0.293641
490 0.284745
495 0.20458
500 0.311658
505 0.381335
510 0.416441
515 0.245254
520 0.310859
525 0.358768
530 0.433972
535 0.332141
540 0.387339
545 0.479072
550 0.338656
555 0.344938
560 0.453534
565 0.399377
570 0.414626
575 0.399678
580 0.520438
585 0.53799
590 7.44114
595 160.084
600 324.985
