File format V 1.0
ven. 13. janv. 15:04:40 2017
Operator : 
Comments : 

=============================================
SpectroFluorometer parameters
Mode : 3D measurement
Data : Fluorescence
Phospho. : Ordinary
Spectrum : Fluorescence

Scan speed : 2400 nm/mn
Response : 100 ms
PM Voltage : 700 V
Shutter : On

Lambda Ex. Start : 203
Lambda Ex. End : 603
Lambda Ex. Step : 5
Ex. Slit : 5 nm

Lambda Em. Start : 200
Lambda Em. End : 600
Lambda Em. Step : 5
Em. Slit : 5 nm

Repetition : 1
Decal lambda em : 10
=============================================
DATA
Ex : 203
200 5.26027
205 5.60811
210 6.25654
215 5.96167
220 6.90843
225 7.29502
230 8.04343
235 4.45587
240 5.36397
245 5.83663
250 6.30131
255 5.4421
260 4.69497
265 5.74568
270 5.48843
275 6.57057
280 7.62031
285 5.13858
290 6.42032
295 6.02263
300 6.68597
305 4.63102
310 7.01865
315 6.89662
320 5.95577
325 4.79923
330 6.11597
335 5.61378
340 6.59274
345 5.30661
350 6.52213
355 7.42825
360 7.39055
365 7.50719
370 5.49713
375 6.30305
380 6.24449
385 6.53135
390 7.21037
395 6.35207
400 5.43583
405 7.30296
410 10.2611
415 8.32418
420 5.14852
425 6.00998
430 4.93936
435 11.1661
440 8.60048
445 6.13641
450 5.51349
455 11.3263
460 5.62192
465 5.37028
470 7.20934
475 5.88745
480 7.85267
485 6.68106
490 7.25775
495 7.63227
500 7.14864
505 4.04793
510 5.41916
515 5.1532
520 5.38356
525 6.7604
530 7.17541
535 6.36476
540 5.91555
545 7.58471
550 5.18134
555 5.58716
560 8.51923
565 6.21482
570 5.30332
575 7.87037
580 7.64539
585 6.44861
590 6.37517
595 5.69806
600 0.648417
Ex : 208
200 5.27027
205 8.1347
210 7.52251
215 5.18811
220 6.77717
225 6.50982
230 6.36013
235 6.27308
240 8.25718
245 5.22017
250 6.2882
255 5.72143
260 5.8981
265 8.64275
270 5.01374
275 5.07716
280 5.75994
285 6.99033
290 8.45726
295 8.46784
300 5.08509
305 6.03422
310 4.21469
315 6.84946
320 6.11849
325 4.47904
330 6.28458
335 7.11798
340 10.0864
345 6.32251
350 5.38057
355 7.10701
360 5.68508
365 5.76418
370 6.09076
375 7.61894
380 7.87048
385 8.72448
390 7.45761
395 10.3626
400 6.71178
405 6.31124
410 4.64759
415 5.28844
420 6.69696
425 5.87417
430 6.52792
435 6.60543
440 5.36468
445 5.38235
450 9.3951
455 6.17555
460 6.1732
465 7.47593
470 4.97603
475 4.64598
480 5.61568
485 6.53703
490 6.73631
495 7.20099
500 9.07668
505 6.37063
510 7.35882
515 7.85495
520 7.48789
525 6.60618
530 5.44393
535 5.57745
540 6.46676
545 6.57146
550 6.64579
555 7.72183
560 6.59988
565 7.95662
570 6.37713
575 6.55683
580 5.15332
585 6.49187
590 5.12546
595 7.42929
600 11.8122
Ex : 213
200 6.51613
205 5.91103
210 5.20359
215 4.2799
220 5.30026
225 7.43006
230 4.70011
235 6.96985
240 7.33897
245 6.22455
250 4.34052
255 6.55743
260 5.44268
265 4.67978
270 5.87485
275 6.74888
280 6.23801
285 7.46974
290 10.103
295 6.36481
300 6.77738
305 7.15361
310 8.89607
315 9.42732
320 5.72337
325 5.6332
330 9.40275
335 8.35517
340 8.13566
345 6.34196
350 6.9172
355 6.33801
360 5.96773
365 6.23348
370 4.63929
375 5.6594
380 5.06306
385 5.54138
390 7.20291
395 7.89296
400 8.75047
405 4.64083
410 6.07791
415 4.62813
420 7.2234
425 7.85008
430 7.94459
435 7.31673
440 5.80931
445 8.90828
450 5.77868
455 5.87725
460 8.32384
465 4.96605
470 6.82842
475 8.66048
480 8.2844
485 6.6169
490 10.2689
495 7.07659
500 4.03218
505 5.39111
510 7.68241
515 9.65795
520 6.18974
525 6.50314
530 5.48844
535 4.76686
540 4.82096
545 9.38603
550 8.71678
555 6.81671
560 7.95731
565 6.7998
570 6.66585
575 6.4122
580 6.93743
585 8.14244
590 5.198
595 4.86824
600 8.78302
Ex : 218
200 7.04128
205 6.22182
210 5.01694
215 5.69794
220 7.50171
225 7.01434
230 8.12278
235 8.1928
240 9.60535
245 5.83466
250 12.6929
255 7.65201
260 5.05204
265 8.13884
270 5.53049
275 7.13999
280 6.33487
285 6.75589
290 4.61181
295 8.64144
300 3.99727
305 3.7482
310 4.26947
315 3.74195
320 6.33937
325 6.30654
330 5.58587
335 4.59587
340 5.47994
345 7.50398
350 7.05343
355 7.85915
360 5.72974
365 8.61538
370 5.08273
375 4.85475
380 3.97717
385 6.8044
390 4.53197
395 5.79685
400 4.76397
405 7.97976
410 6.36101
415 4.52305
420 7.31978
425 5.84358
430 6.70728
435 9.04843
440 6.86258
445 5.86346
450 5.85289
455 7.93776
460 5.00966
465 6.92898
470 6.08051
475 5.2635
480 4.1684
485 7.93668
490 6.71586
495 8.10325
500 7.65394
505 5.52641
510 6.65104
515 11.2654
520 7.03415
525 7.39546
530 7.42599
535 5.50165
540 6.49508
545 6.48333
550 5.6078
555 7.31224
560 6.42295
565 7.098
570 6.05468
575 4.33832
580 4.89188
585 6.16061
590 9.29009
595 8.64228
600 11.6179
Ex : 223
200 4.49565
205 4.74779
210 6.37119
215 5.24506
220 5.84653
225 5.93698
230 7.08148
235 7.2723
240 9.40601
245 5.52162
250 10.5136
255 5.91767
260 7.0849
265 7.75358
270 6.67488
275 4.68142
280 4.65316
285 4.14219
290 5.09538
295 5.71176
300 7.20001
305 5.13375
310 7.19193
315 6.70738
320 11.3439
325 5.57485
330 6.00193
335 7.60085
340 7.53295
345 8.11327
350 7.0164
355 6.16038
360 6.90058
365 6.02524
370 8.66958
375 7.44207
380 8.78711
385 4.24115
390 9.19425
395 6.23262
400 6.3455
405 5.57643
410 7.2332
415 8.12558
420 5.71419
425 6.90629
430 4.56625
435 8.04165
440 8.24935
445 4.57925
450 6.1487
455 6.40464
460 4.93323
465 9.20387
470 6.1744
475 6.67386
480 7.78663
485 5.77324
490 5.50207
495 5.51828
500 5.82675
505 6.42339
510 5.40087
515 4.83593
520 6.14652
525 5.63799
530 6.52238
535 5.97851
540 4.81731
545 6.52811
550 9.72152
555 8.56009
560 8.06759
565 4.38161
570 6.68919
575 10.0381
580 5.94224
585 6.88705
590 7.09047
595 5.91388
600 3.33159
Ex : 228
200 4.11765
205 5.14233
210 4.2969
215 6.3085
220 5.21995
225 8.68263
230 4.38956
235 3.69906
240 6.3883
245 5.09864
250 5.36948
255 5.7012
260 6.12677
265 3.85552
270 4.98617
275 5.89217
280 4.31123
285 7.38809
290 5.84873
295 4.77953
300 5.65102
305 4.38569
310 5.3732
315 9.03595
320 7.1093
325 5.516
330 7.50765
335 5.20617
340 4.93206
345 4.8452
350 6.21758
355 5.00657
360 4.72546
365 5.40595
370 6.43772
375 7.59276
380 7.04372
385 4.6166
390 5.25798
395 3.04978
400 5.67982
405 4.15571
410 4.52854
415 6.51365
420 5.89568
425 5.26031
430 4.17124
435 5.25867
440 5.28824
445 5.41371
450 7.68206
455 6.51536
460 4.56084
465 9.96522
470 6.92626
475 6.51075
480 6.57443
485 7.69644
490 6.58567
495 8.97185
500 6.33104
505 4.99437
510 5.58151
515 7.30842
520 4.81352
525 4.24638
530 4.79049
535 4.5844
540 4.6624
545 3.70413
550 5.27252
555 6.43068
560 6.36136
565 4.88224
570 7.06198
575 6.58322
580 7.45106
585 5.16383
590 7.58338
595 6.89356
600 7.43099
Ex : 233
200 3.56327
205 7.05381
210 4.06176
215 4.08895
220 8.72518
225 7.85826
230 5.55709
235 4.33273
240 6.80543
245 5.02527
250 3.55696
255 4.50743
260 4.98913
265 5.35473
270 5.43122
275 5.79348
280 5.89086
285 3.94249
290 3.74502
295 5.4676
300 4.97164
305 5.182
310 5.8243
315 5.35817
320 6.21734
325 3.24914
330 4.61059
335 5.25228
340 4.24633
345 5.7498
350 5.28065
355 6.57553
360 4.95866
365 6.78831
370 3.56112
375 6.03897
380 6.43842
385 5.48044
390 6.92678
395 6.43369
400 6.07644
405 9.84531
410 6.3146
415 6.28115
420 5.76651
425 6.00334
430 6.72615
435 5.76794
440 8.80206
445 5.10748
450 5.84738
455 4.7344
460 4.1079
465 6.66733
470 7.17592
475 5.31188
480 5.02814
485 6.59764
490 6.40597
495 6.55104
500 11.3986
505 6.35791
510 6.14737
515 5.32913
520 3.9801
525 7.84903
530 7.60197
535 3.94833
540 6.60547
545 7.34701
550 5.32178
555 5.55168
560 5.68033
565 4.96477
570 4.64588
575 6.57464
580 5.8773
585 5.05625
590 5.83352
595 4.87604
600 8.82611
Ex : 238
200 2.5036
205 4.59643
210 7.69856
215 7.66278
220 5.7393
225 5.1013
230 5.45132
235 5.74937
240 4.34793
245 3.59482
250 5.08479
255 4.98988
260 3.13615
265 7.5736
270 4.08323
275 5.48976
280 5.73154
285 5.03746
290 7.45598
295 6.7163
300 4.2084
305 6.99267
310 8.32672
315 5.53114
320 4.74394
325 5.18154
330 6.25659
335 5.54405
340 5.71618
345 4.09343
350 6.30943
355 4.23271
360 5.38623
365 4.75301
370 7.26921
375 5.40759
380 4.91081
385 6.42322
390 4.63352
395 4.19869
400 6.0447
405 7.46983
410 4.67995
415 4.93371
420 4.70274
425 5.2533
430 4.81491
435 4.68354
440 4.47089
445 5.44572
450 5.4184
455 4.84207
460 8.84334
465 5.6074
470 5.86967
475 4.69279
480 5.98603
485 4.6034
490 6.51836
495 4.63379
500 6.38246
505 6.74174
510 4.24097
515 5.81655
520 7.53884
525 4.3096
530 3.69133
535 5.2892
540 5.58598
545 6.80028
550 6.20184
555 5.50187
560 9.68093
565 5.85376
570 3.72518
575 3.64677
580 6.67771
585 4.33198
590 4.47441
595 6.36349
600 4.26896
Ex : 243
200 6.6634
205 4.61569
210 4.38443
215 4.02888
220 4.28803
225 4.05901
230 6.27146
235 4.32687
240 4.07612
245 4.64886
250 6.25137
255 3.54133
260 4.27784
265 3.93943
270 4.82101
275 3.50734
280 6.36873
285 3.63916
290 4.75773
295 4.92639
300 4.47443
305 5.37124
310 4.87758
315 4.93031
320 5.59182
325 5.3706
330 3.19767
335 3.52117
340 4.97238
345 6.8116
350 4.87421
355 5.81006
360 5.56502
365 4.79185
370 4.85347
375 5.08967
380 3.76829
385 5.44473
390 5.39738
395 5.95883
400 6.75886
405 5.72616
410 3.84607
415 4.29616
420 6.35102
425 5.18838
430 4.16382
435 3.55222
440 7.10235
445 3.94359
450 5.37344
455 5.75027
460 4.07048
465 6.79849
470 4.78832
475 3.96354
480 5.42427
485 4.45461
490 3.43139
495 4.91069
500 5.28427
505 7.17524
510 6.5045
515 3.43011
520 5.71907
525 7.47819
530 5.76913
535 4.05809
540 5.26056
545 4.91777
550 4.09266
555 4.42586
560 3.62437
565 5.11317
570 6.18506
575 4.75006
580 6.07217
585 5.08546
590 4.5752
595 5.10358
600 7.44885
Ex : 248
200 3.51989
205 3.07919
210 2.68607
215 2.50486
220 3.63348
225 3.87727
230 3.49398
235 3.23965
240 4.27414
245 5.51162
250 3.51246
255 3.19427
260 3.2936
265 3.83509
270 3.83608
275 4.36687
280 3.45865
285 2.1176
290 3.40371
295 4.18147
300 3.15941
305 3.68475
310 5.0185
315 5.0073
320 4.47624
325 3.65299
330 5.98042
335 3.79828
340 3.367
345 2.52092
350 2.93773
355 4.3607
360 4.48286
365 4.11229
370 3.78928
375 4.35765
380 3.32342
385 3.45619
390 2.94826
395 4.25796
400 4.06082
405 5.43136
410 4.26335
415 4.4847
420 3.42328
425 4.41043
430 6.40992
435 3.56681
440 5.57709
445 3.88319
450 4.65707
455 3.70531
460 4.12104
465 3.42033
470 5.47471
475 4.69344
480 4.56949
485 4.33566
490 5.28977
495 4.5141
500 5.76033
505 5.43654
510 3.83698
515 4.69873
520 4.5899
525 3.47879
530 4.32588
535 4.8328
540 3.76881
545 3.93951
550 3.82663
555 5.75268
560 4.08076
565 4.57908
570 3.33593
575 3.75663
580 3.26232
585 4.51123
590 4.11877
595 4.08482
600 11.0993
Ex : 253
200 3.98582
205 1.98646
210 3.79253
215 2.60622
220 3.68911
225 3.69983
230 3.82625
235 2.92141
240 3.06143
245 3.69505
250 3.01296
255 2.56702
260 3.57435
265 3.40687
270 3.61755
275 3.69684
280 3.03803
285 3.75095
290 4.03846
295 2.3302
300 3.80785
305 3.19427
310 3.75217
315 4.02583
320 3.44879
325 2.86951
330 2.53113
335 3.22197
340 3.21318
345 4.10499
350 2.59747
355 3.44061
360 5.07856
365 3.94935
370 3.24518
375 2.86561
380 2.93898
385 3.91192
390 2.56021
395 3.24753
400 4.63755
405 4.47361
410 3.22308
415 3.23589
420 5.60168
425 5.00441
430 7.09019
435 3.3131
440 3.74849
445 3.86113
450 4.41964
455 4.2541
460 6.03174
465 3.66823
470 3.5948
475 3.59941
480 5.70361
485 4.62749
490 3.78648
495 3.51333
500 3.48899
505 3.82524
510 4.27265
515 3.599
520 3.19206
525 2.49013
530 3.51152
535 3.64491
540 3.3659
545 5.0833
550 3.30129
555 3.41409
560 4.62494
565 3.85502
570 3.29204
575 2.80261
580 3.68519
585 2.20455
590 4.73326
595 4.08565
600 0.464932
Ex : 258
200 3.64286
205 2.07508
210 2.27335
215 2.30848
220 3.49911
225 2.51707
230 3.36187
235 2.90282
240 1.8388
245 2.07485
250 2.41085
255 2.85911
260 3.82698
265 2.84492
270 2.09958
275 2.07831
280 2.44409
285 2.29353
290 2.99418
295 2.94395
300 3.00583
305 2.79441
310 2.25635
315 3.48219
320 2.06602
325 1.87012
330 2.88734
335 2.82998
340 2.95802
345 3.09896
350 2.88789
355 2.77935
360 3.02224
365 2.26198
370 2.53921
375 2.86393
380 2.40954
385 4.34417
390 2.96206
395 1.85331
400 3.66887
405 4.00284
410 2.51795
415 4.42985
420 3.60153
425 4.2151
430 3.74104
435 3.13625
440 2.90014
445 4.28548
450 2.97332
455 4.25998
460 2.60957
465 3.97293
470 2.38955
475 2.88371
480 2.42937
485 2.62697
490 2.66803
495 4.54137
500 3.24105
505 2.72964
510 3.76123
515 3.33883
520 4.41671
525 3.79845
530 2.49533
535 2.46658
540 3.30885
545 3.00712
550 2.29082
555 3.43273
560 2.43229
565 2.78566
570 3.51009
575 1.91366
580 1.81604
585 3.32249
590 3.23787
595 2.76735
600 0.314914
Ex : 263
200 2.49054
205 2.71944
210 2.1363
215 2.4155
220 2.48134
225 1.92088
230 2.20618
235 2.63752
240 2.26748
245 2.44214
250 1.46135
255 1.75177
260 2.29426
265 2.07345
270 2.04051
275 1.94249
280 2.50879
285 1.6063
290 3.47623
295 2.13579
300 2.33923
305 1.46615
310 1.22304
315 3.03063
320 1.66075
325 2.10955
330 2.12078
335 1.69615
340 2.12065
345 2.75314
350 2.49418
355 2.38317
360 2.12897
365 2.61014
370 3.00981
375 3.3159
380 2.6614
385 2.36742
390 2.00178
395 2.38418
400 2.47484
405 2.3874
410 1.75821
415 2.1456
420 2.40594
425 3.15151
430 2.95911
435 2.69033
440 2.93531
445 2.84307
450 2.72659
455 2.34087
460 2.57108
465 3.35376
470 2.40766
475 2.52379
480 2.36964
485 3.82143
490 3.30241
495 2.13149
500 2.22649
505 2.57913
510 2.49516
515 2.42816
520 2.91399
525 1.87965
530 2.43218
535 2.20728
540 2.46811
545 3.11225
550 2.0881
555 3.20423
560 2.26325
565 1.41238
570 1.59718
575 2.91421
580 2.25362
585 2.16082
590 2.38247
595 2.52525
600 0.287364
Ex : 268
200 1.93875
205 1.52925
210 1.8588
215 2.15898
220 1.55446
225 1.31708
230 1.98968
235 1.36314
240 1.09871
245 1.65262
250 2.01621
255 1.75806
260 1.76737
265 1.7883
270 1.52173
275 1.23528
280 1.89348
285 1.79131
290 1.23485
295 1.77778
300 1.34675
305 2.09853
310 1.45471
315 2.09362
320 2.32942
325 1.81014
330 1.41405
335 2.37913
340 2.11037
345 1.69357
350 1.3607
355 1.93056
360 1.91962
365 2.09069
370 1.64747
375 2.46011
380 2.07655
385 2.92314
390 2.23671
395 2.25071
400 2.09773
405 2.13166
410 2.31927
415 2.43153
420 2.11233
425 1.82797
430 1.52235
435 2.59126
440 2.03948
445 1.76991
450 2.01639
455 2.36137
460 2.33105
465 1.79537
470 1.45225
475 1.84816
480 1.96515
485 1.88703
490 1.76697
495 2.50652
500 1.87706
505 2.41349
510 2.48959
515 2.96515
520 2.44974
525 2.4208
530 2.64163
535 2.2697
540 2.5096
545 2.23165
550 1.77425
555 1.68509
560 2.12741
565 1.89435
570 1.98577
575 1.89672
580 1.28081
585 1.65162
590 1.69582
595 2.45444
600 5.4566
Ex : 273
200 1.49597
205 1.74172
210 1.19607
215 1.52573
220 0.991588
225 1.09603
230 1.29764
235 1.20984
240 1.73856
245 1.64203
250 1.35807
255 1.0488
260 0.819549
265 1.84394
270 2.03554
275 1.22738
280 1.59211
285 1.15537
290 1.28526
295 1.50814
300 1.22237
305 1.55007
310 1.18495
315 1.23767
320 1.31701
325 1.68198
330 1.61508
335 1.38766
340 1.19843
345 1.52924
350 1.59789
355 1.44103
360 1.37711
365 1.48602
370 1.3761
375 1.30371
380 1.82604
385 1.6144
390 1.57944
395 2.17732
400 2.08213
405 2.17585
410 1.83128
415 2.08422
420 2.00778
425 1.62616
430 1.73771
435 1.50322
440 2.01095
445 2.19519
450 1.68431
455 1.70247
460 2.02522
465 1.6398
470 1.3528
475 1.32509
480 1.87796
485 1.46408
490 2.10399
495 2.14543
500 1.62298
505 2.12839
510 1.81221
515 1.47262
520 1.13524
525 1.15798
530 1.35233
535 1.7331
540 1.92635
545 2.21738
550 2.01204
555 1.41624
560 1.03027
565 2.13184
570 1.77568
575 1.12762
580 1.07313
585 1.61162
590 0.945567
595 1.58792
600 3.49433
Ex : 278
200 0.973466
205 0.80184
210 1.40167
215 0.89383
220 1.10554
225 1.38831
230 1.28354
235 0.980614
240 1.01343
245 1.22943
250 1.46846
255 0.707778
260 1.02627
265 1.40066
270 1.58729
275 1.0073
280 0.937741
285 1.05831
290 0.927927
295 1.23591
300 1.33118
305 1.31201
310 1.34218
315 1.10108
320 0.848042
325 0.876597
330 1.00242
335 1.20915
340 1.1486
345 1.20044
350 1.1962
355 1.36659
360 1.57315
365 1.585
370 1.66058
375 1.21258
380 1.23137
385 1.43478
390 1.54929
395 1.15327
400 1.11657
405 1.36982
410 1.525
415 1.51021
420 1.92654
425 1.18014
430 1.39914
435 2.13697
440 1.35859
445 1.22934
450 1.46406
455 1.5052
460 1.63214
465 1.22932
470 1.57516
475 1.8395
480 1.40783
485 1.30615
490 1.13541
495 1.37004
500 1.00967
505 1.15077
510 1.16784
515 1.43842
520 1.04688
525 0.968782
530 1.50466
535 1.4252
540 1.39078
545 1.80449
550 1.49874
555 2.21707
560 1.15162
565 1.3265
570 1.10566
575 1.07847
580 0.915327
585 1.1682
590 1.11981
595 1.12736
600 0.666342
Ex : 283
200 0.857143
205 0.898401
210 0.804638
215 0.751308
220 0.91551
225 1.46743
230 1.34236
235 1.44854
240 0.679009
245 0.577367
250 0.70247
255 1.07249
260 0.905829
265 1.33279
270 0.628995
275 0.992836
280 1.14524
285 0.783219
290 0.662083
295 1.00644
300 0.919214
305 0.766787
310 0.812447
315 0.737475
320 0.796105
325 0.982926
330 1.1404
335 0.706236
340 1.15003
345 1.30507
350 1.09273
355 1.35512
360 1.0791
365 1.95482
370 1.24427
375 1.38277
380 1.27343
385 1.82778
390 1.30753
395 1.37283
400 1.10745
405 1.37986
410 1.37082
415 1.51967
420 1.79969
425 1.0997
430 1.18834
435 1.14627
440 1.18801
445 1.52108
450 1.29274
455 1.53115
460 1.05671
465 1.56163
470 1.12428
475 1.39961
480 1.29598
485 0.997962
490 1.16519
495 1.3525
500 1.09293
505 1.18844
510 1.00189
515 0.911103
520 1.01075
525 1.34283
530 1.00191
535 0.963317
540 1.02765
545 0.930477
550 0.895735
555 1.80413
560 1.64585
565 1.24059
570 1.20954
575 0.854986
580 0.814492
585 1.39754
590 0.990581
595 1.27529
600 1.4385
Ex : 288
200 0.612959
205 0.857546
210 0.768393
215 0.970083
220 0.858446
225 0.77781
230 0.986044
235 0.793224
240 0.616179
245 0.922793
250 0.874948
255 1.11127
260 1.12694
265 0.654313
270 0.758131
275 0.97871
280 1.17982
285 0.994791
290 0.773251
295 0.625476
300 0.562476
305 0.510194
310 1.03207
315 1.00928
320 0.874456
325 0.717385
330 1.04629
335 1.03101
340 1.24451
345 0.815095
350 0.957306
355 1.09185
360 0.689267
365 1.02933
370 0.989989
375 1.30212
380 0.938824
385 1.04457
390 1.24129
395 1.3982
400 1.15795
405 1.1054
410 1.57641
415 1.28266
420 1.15613
425 1.50815
430 1.207
435 1.13298
440 0.786385
445 0.991015
450 1.36556
455 1.0769
460 1.19014
465 1.26177
470 1.30384
475 1.47169
480 1.11639
485 0.67165
490 1.12806
495 0.9572
500 1.1099
505 0.98372
510 0.839639
515 0.8834
520 0.937583
525 0.97024
530 1.26196
535 1.14065
540 1.2454
545 1.07067
550 1.04185
555 1.04369
560 1.05264
565 1.44756
570 1.23848
575 1.16328
580 0.781603
585 1.0786
590 0.616832
595 0.495428
600 0.0563778
Ex : 293
200 0.629739
205 0.791507
210 0.47729
215 0.581281
220 0.417964
225 0.715407
230 0.734567
235 0.874323
240 0.659202
245 0.797041
250 0.869887
255 0.626136
260 0.723712
265 0.853542
270 0.661802
275 0.672401
280 0.431174
285 0.735929
290 1.05677
295 0.551575
300 0.420513
305 0.901592
310 0.617013
315 0.588518
320 0.751584
325 0.845194
330 0.881255
335 0.784718
340 0.632754
345 0.812272
350 1.16518
355 1.00349
360 1.07748
365 0.949618
370 1.15828
375 1.10296
380 0.964328
385 1.28885
390 0.877596
395 1.01608
400 1.64016
405 1.7584
410 1.21725
415 1.27318
420 1.30697
425 1.29667
430 1.30435
435 1.47173
440 1.28365
445 1.32944
450 1.16643
455 1.14472
460 1.18123
465 1.32297
470 1.12153
475 0.868104
480 1.0945
485 0.949849
490 0.697264
495 1.02127
500 0.723974
505 0.702904
510 0.933141
515 0.671897
520 0.853212
525 0.797678
530 0.748638
535 0.618053
540 0.623822
545 0.808236
550 0.773939
555 0.76319
560 0.754686
565 0.621745
570 0.687395
575 0.828156
580 0.990611
585 0.928443
590 0.680094
595 0.865129
600 0.170792
Ex : 298
200 0.484448
205 0.42987
210 0.410743
215 0.337906
220 0.608209
225 0.684758
230 0.575394
235 0.611333
240 0.754431
245 1.08015
250 0.584003
255 0.594917
260 0.720107
265 0.618747
270 0.528296
275 0.492738
280 0.457858
285 0.428206
290 0.509214
295 0.634114
300 0.524204
305 0.915429
310 0.864323
315 0.752386
320 0.643372
325 0.82756
330 0.630964
335 0.733688
340 0.87254
345 0.989325
350 0.922858
355 0.754335
360 0.746255
365 0.617481
370 0.887165
375 0.807791
380 1.1205
385 1.03048
390 1.13131
395 1.08655
400 1.19451
405 1.11536
410 1.20951
415 1.2277
420 0.994412
425 0.964453
430 1.33431
435 1.08212
440 1.03547
445 1.08725
450 1.36018
455 0.953058
460 0.808109
465 0.927132
470 1.16016
475 1.0738
480 0.782736
485 0.72879
490 0.876856
495 0.710473
500 0.791042
505 0.968492
510 0.836294
515 0.59932
520 0.464148
525 0.689414
530 0.78933
535 0.661085
540 0.793699
545 0.370881
550 0.815844
555 0.618224
560 0.657715
565 0.849645
570 0.732258
575 0.613743
580 0.722732
585 0.741754
590 1.05315
595 0.916544
600 0.104299
Ex : 303
200 0.453195
205 0.468902
210 0.462376
215 0.521725
220 0.411447
225 0.446915
230 0.729795
235 0.501804
240 0.422541
245 0.384655
250 0.53633
255 0.57927
260 0.509188
265 0.715535
270 0.526022
275 0.790338
280 0.766251
285 0.578972
290 0.512994
295 0.852052
300 0.899392
305 0.449689
310 0.364168
315 0.724647
320 0.395807
325 0.470646
330 0.414841
335 0.6631
340 0.717698
345 0.56105
350 0.602604
355 0.623164
360 0.572752
365 0.882291
370 0.897285
375 1.2502
380 1.26576
385 0.828015
390 0.823037
395 0.983526
400 0.934303
405 1.03336
410 1.20833
415 0.936523
420 0.870128
425 1.12426
430 1.15872
435 0.815624
440 0.931034
445 0.724714
450 1.04142
455 1.02997
460 0.635387
465 0.871895
470 0.834217
475 0.99977
480 1.09477
485 0.702931
490 0.668892
495 0.890575
500 0.874161
505 0.856373
510 0.77061
515 0.711911
520 0.628305
525 0.620851
530 0.906547
535 0.57378
540 0.658441
545 0.563891
550 0.611471
555 0.658607
560 0.57755
565 0.31295
570 0.472567
575 0.529276
580 0.644448
585 0.537268
590 0.553916
595 0.687878
600 2.00792
Ex : 308
200 0.34918
205 0.315201
210 0.478824
215 0.479643
220 0.435391
225 0.905639
230 0.486617
235 0.387811
240 0.477562
245 0.681459
250 0.505816
255 0.400767
260 0.534
265 0.490397
270 0.644259
275 0.404035
280 0.54647
285 0.471339
290 0.444917
295 0.364323
300 0.470163
305 0.65012
310 0.456219
315 0.739664
320 0.368117
325 0.607227
330 0.464774
335 0.49159
340 0.562011
345 0.715439
350 0.723412
355 0.559012
360 0.707489
365 0.952944
370 0.554184
375 0.869823
380 0.766922
385 0.845252
390 0.691564
395 1.27192
400 1.13871
405 1.23683
410 1.00439
415 1.04081
420 0.882871
425 0.874906
430 0.94655
435 0.850557
440 0.901507
445 0.653661
450 0.931359
455 0.788749
460 0.717278
465 1.06276
470 0.711152
475 0.916232
480 0.923717
485 0.600035
490 0.706654
495 0.55586
500 0.529125
505 0.639676
510 0.665852
515 0.435352
520 0.6736
525 0.749127
530 0.616441
535 0.598457
540 0.425058
545 0.628329
550 0.606209
555 0.53001
560 0.520975
565 0.528434
570 0.531142
575 0.705645
580 0.372506
585 0.531279
590 0.492716
595 0.379729
600 0.213169
Ex : 313
200 0.340732
205 0.494426
210 0.441235
215 0.373147
220 0.451913
225 0.436643
230 0.325557
235 0.358389
240 0.505618
245 0.604656
250 0.427955
255 0.562115
260 0.431995
265 0.455625
270 0.424553
275 0.424733
280 0.412727
285 0.352599
290 0.429602
295 0.378188
300 0.448731
305 0.675676
310 0.616016
315 0.313569
320 0.340914
325 0.479842
330 0.529227
335 0.499218
340 0.464345
345 0.532652
350 0.647657
355 0.644741
360 0.581171
365 0.779515
370 1.19736
375 0.983579
380 0.854604
385 1.07831
390 1.19484
395 1.14368
400 1.28334
405 1.26547
410 1.13655
415 1.28195
420 1.40174
425 1.36299
430 1.21321
435 1.04741
440 1.2047
445 1.39164
450 1.12968
455 1.30697
460 1.0249
465 0.946718
470 0.817158
475 0.941345
480 0.970457
485 0.927872
490 0.650984
495 0.737441
500 0.72682
505 0.783225
510 0.578271
515 0.559172
520 0.637133
525 0.621867
530 0.682626
535 0.569643
540 0.460036
545 0.602778
550 0.490743
555 0.510078
560 0.458233
565 0.351678
570 0.401762
575 0.486246
580 0.542963
585 0.521709
590 0.529142
595 0.592246
600 0.153854
Ex : 318
200 0.595152
205 0.496195
210 0.366499
215 0.383835
220 0.391494
225 0.392727
230 0.4151
235 0.311878
240 0.330583
245 0.229423
250 0.367079
255 0.361854
260 0.340574
265 0.416723
270 0.253425
275 0.359908
280 0.392441
285 0.538887
290 0.502233
295 0.427859
300 0.380159
305 0.544059
310 0.628328
315 0.908817
320 0.538744
325 0.686083
330 0.720548
335 0.762913
340 1.09641
345 1.62336
350 1.78582
355 2.36707
360 3.17105
365 3.91369
370 4.72792
375 5.60943
380 6.20892
385 6.83981
390 7.12783
395 7.89937
400 8.52128
405 8.53182
410 8.7144
415 8.45815
420 8.47828
425 7.95217
430 8.03621
435 7.9572
440 7.93669
445 7.74351
450 6.78989
455 6.56825
460 6.04581
465 5.72953
470 4.86456
475 4.99513
480 4.71586
485 3.98806
490 3.35792
495 3.27465
500 2.83642
505 2.11531
510 2.16255
515 2.18364
520 1.79476
525 1.52917
530 1.46132
535 1.05181
540 1.14286
545 0.939776
550 0.832561
555 0.900214
560 0.757351
565 0.555148
570 0.645575
575 0.692426
580 0.612178
585 0.476851
590 0.425468
595 0.31859
600 0.875816
Ex : 323
200 0.371343
205 0.360282
210 0.330054
215 0.336167
220 0.289407
225 0.251497
230 0.390043
235 0.28856
240 0.389726
245 0.325004
250 0.267677
255 0.328469
260 0.352405
265 0.273389
270 0.286499
275 0.300282
280 0.283661
285 0.459237
290 0.361894
295 0.345175
300 0.332441
305 0.4021
310 0.410447
315 2.38342
320 9.578
325 4.93084
330 2.16431
335 3.10106
340 4.25002
345 5.75671
350 7.79309
355 11.0216
360 13.2355
365 15.7602
370 18.9849
375 21.8981
380 25.5896
385 28.657
390 30.9394
395 32.5121
400 33.4678
405 34.4838
410 34.5989
415 36.3501
420 36.0231
425 33.7665
430 32.9104
435 31.8454
440 32.0628
445 29.1603
450 27.5927
455 25.9903
460 24.6685
465 22.1841
470 20.9311
475 19.4017
480 17.4287
485 15.4364
490 14.1618
495 12.3007
500 10.8668
505 9.69178
510 8.35359
515 6.91771
520 6.44567
525 5.82354
530 4.99413
535 4.39194
540 3.68551
545 3.24056
550 2.6237
555 2.37894
560 2.06782
565 2.00464
570 1.45406
575 1.21755
580 0.893203
585 0.839602
590 0.746699
595 0.544037
600 0.505011
Ex : 328
200 0.349455
205 0.239209
210 0.2731
215 0.412645
220 0.338256
225 0.310927
230 0.237632
235 0.304049
240 0.293536
245 0.253885
250 0.257883
255 0.279277
260 0.190581
265 0.242028
270 0.427173
275 0.325549
280 0.374753
285 0.372404
290 0.31251
295 0.287068
300 0.281657
305 0.325786
310 0.294168
315 0.757208
320 24.4473
325 64.5982
330 23.3497
335 6.02113
340 6.06826
345 7.35758
350 9.53888
355 13.4686
360 18.1534
365 20.0989
370 23.1398
375 26.6413
380 29.8406
385 32.2574
390 35.044
395 37.949
400 39.3381
405 41.129
410 40.6108
415 40.1503
420 39.4383
425 39.7324
430 37.7929
435 36.509
440 35.0332
445 32.9281
450 32.5483
455 29.8958
460 28.4529
465 26.5755
470 24.3576
475 21.5079
480 20.4844
485 18.4405
490 16.9874
495 15.1579
500 13.1876
505 11.9937
510 10.5131
515 8.96362
520 8.1669
525 7.29203
530 6.44947
535 5.69615
540 5.16401
545 4.06366
550 3.79318
555 3.10482
560 2.66493
565 2.56699
570 2.16692
575 1.6557
580 1.33921
585 0.999659
590 0.871683
595 0.743876
600 0.527752
Ex : 333
200 0.462046
205 0.23234
210 0.241415
215 0.20569
220 0.242139
225 0.283347
230 0.359285
235 0.294521
240 0.251233
245 0.336702
250 0.301407
255 0.360203
260 0.239755
265 0.329659
270 0.247582
275 0.250736
280 0.258477
285 0.245008
290 0.281491
295 0.30063
300 0.239095
305 0.255608
310 0.36681
315 0.308073
320 5.0774
325 88.0494
330 161.442
335 46.1647
340 8.7528
345 6.22136
350 6.54651
355 7.28833
360 10.2799
365 14.9988
370 16.0514
375 16.5052
380 17.7649
385 18.6812
390 20.8172
395 21.7138
400 22.6526
405 23.2997
410 23.2581
415 23.5357
420 22.492
425 21.672
430 22.321
435 21.6037
440 20.1633
445 19.6207
450 19.5541
455 18.2
460 17.3701
465 16.9159
470 15.1622
475 14.392
480 14.1245
485 12.9414
490 11.7906
495 10.7967
500 10.1048
505 8.84277
510 8.08382
515 7.10462
520 6.57528
525 5.95041
530 4.94927
535 4.76219
540 4.29005
545 3.95645
550 3.36254
555 2.88986
560 2.44178
565 2.41353
570 1.94599
575 1.5248
580 1.24067
585 1.03164
590 0.873718
595 0.834891
600 1.59092
Ex : 338
200 0.176652
205 0.253923
210 0.212807
215 0.312372
220 0.221453
225 0.186412
230 0.24699
235 0.270356
240 0.304272
245 0.252516
250 0.281826
255 0.164372
260 0.396672
265 0.273179
270 0.249838
275 0.185814
280 0.189682
285 0.289931
290 0.290879
295 0.296872
300 0.308029
305 0.387165
310 0.245238
315 0.286358
320 0.524408
325 10.5528
330 149.753
335 229.324
340 60.4991
345 9.49469
350 4.88907
355 4.65549
360 4.53017
365 6.71066
370 11.3636
375 12.237
380 10.9079
385 9.8299
390 10.2543
395 11.324
400 11.7875
405 11.6155
410 11.8601
415 12.2967
420 11.9995
425 11.9527
430 11.9811
435 11.5945
440 11.9246
445 11.9217
450 11.1549
455 11.1888
460 11.1656
465 11.4075
470 10.4738
475 10.2048
480 10.3629
485 9.68901
490 9.40727
495 9.037
500 8.31593
505 7.90896
510 7.28354
515 6.6111
520 5.87902
525 5.36635
530 4.63846
535 4.46635
540 4.00565
545 3.62808
550 3.26076
555 2.9952
560 2.68686
565 2.17325
570 1.89569
575 1.62492
580 1.41528
585 0.992157
590 0.958554
595 0.82775
600 0.0941948
Ex : 343
200 0.314651
205 0.205236
210 0.190817
215 0.275339
220 0.254255
225 0.28983
230 0.228849
235 0.228065
240 0.271956
245 0.209917
250 0.284105
255 0.287233
260 0.217341
265 0.200647
270 0.252327
275 0.310115
280 0.204391
285 0.260966
290 0.187756
295 0.291166
300 0.312241
305 0.316828
310 0.294823
315 0.277844
320 0.23518
325 0.483909
330 13.1474
335 180.342
340 264.933
345 66.6703
350 9.76659
355 3.97679
360 3.2975
365 3.03975
370 4.01767
375 8.57281
380 9.42849
385 8.03267
390 7.2416
395 7.35011
400 7.24047
405 7.93526
410 8.64519
415 8.43086
420 8.60635
425 8.88739
430 8.70809
435 8.97985
440 9.38662
445 9.39389
450 9.76052
455 9.82153
460 10.106
465 10.4795
470 10.0561
475 10.5245
480 10.0832
485 10.109
490 9.90143
495 9.67342
500 8.9247
505 8.65014
510 7.6282
515 6.96283
520 6.62876
525 6.08411
530 5.52665
535 4.85197
540 4.61496
545 4.16524
550 3.53014
555 3.68615
560 2.71995
565 2.66019
570 2.18479
575 1.78472
580 1.48646
585 1.19124
590 1.10794
595 0.86897
600 0.87358
Ex : 348
200 0.293294
205 0.246593
210 0.23707
215 0.20255
220 0.253897
225 0.171407
230 0.165939
235 0.183261
240 0.207734
245 0.237385
250 0.253919
255 0.208198
260 0.212376
265 0.208038
270 0.160988
275 0.202946
280 0.213135
285 0.22178
290 0.326408
295 0.292515
300 0.186991
305 0.254579
310 0.308304
315 0.16758
320 0.301584
325 0.384977
330 0.409488
335 13.0218
340 178.565
345 273.342
350 73.4571
355 10.6739
360 3.43471
365 2.86449
370 2.41672
375 3.41412
380 6.80527
385 8.83299
390 7.73409
395 6.9107
400 6.92607
405 7.15138
410 7.30836
415 7.70068
420 8.31566
425 8.40316
430 8.43376
435 8.84286
440 8.75561
445 9.45702
450 9.77505
455 10.4169
460 10.7034
465 11.3605
470 11.648
475 11.7326
480 11.7303
485 11.1905
490 11.2081
495 11.1922
500 10.4451
505 10.1834
510 9.18513
515 8.72423
520 8.15183
525 7.33763
530 6.84904
535 5.81784
540 5.32681
545 5.03023
550 4.3818
555 4.18385
560 3.41407
565 3.02389
570 2.65753
575 1.9719
580 1.70579
585 1.23632
590 1.16612
595 0.90772
600 0.465342
Ex : 353
200 0.140356
205 0.186049
210 0.186755
215 0.195196
220 0.215038
225 0.278797
230 0.219027
235 0.231613
240 0.292785
245 0.264829
250 0.227084
255 0.314202
260 0.221636
265 0.235007
270 0.199245
275 0.256298
280 0.230592
285 0.314559
290 0.18023
295 0.203999
300 0.259101
305 0.204552
310 0.191582
315 0.238786
320 0.293227
325 0.340859
330 0.310527
335 0.471685
340 13.2463
345 182.377
350 264.741
355 67.8844
360 9.5361
365 3.05801
370 2.83698
375 2.65208
380 2.98948
385 5.70914
390 9.18938
395 9.0423
400 7.41677
405 7.17499
410 7.49356
415 7.98186
420 7.79635
425 7.92405
430 8.23204
435 8.1943
440 9.23864
445 10.0325
450 10.3926
455 11.1035
460 11.9073
465 12.4807
470 12.9814
475 13.0102
480 13.3292
485 13.1751
490 13.8601
495 13.171
500 12.248
505 11.9641
510 11.1019
515 10.3516
520 9.52211
525 8.34046
530 7.57132
535 7.12472
540 6.39659
545 5.7744
550 5.37366
555 4.56543
560 4.01057
565 3.68835
570 3.12894
575 2.26651
580 1.99427
585 1.64595
590 1.32729
595 1.03943
600 1.31667
Ex : 358
200 0.144067
205 0.151917
210 0.232248
215 0.199214
220 0.175122
225 0.161429
230 0.174865
235 0.123515
240 0.234345
245 0.155548
250 0.216166
255 0.188177
260 0.152338
265 0.143244
270 0.196479
275 0.139794
280 0.219975
285 0.257457
290 0.234438
295 0.211586
300 0.230061
305 0.196526
310 0.203474
315 0.186782
320 0.269401
325 0.2886
330 0.379543
335 0.288453
340 0.559237
345 12.4827
350 174.778
355 258.718
360 67.8307
365 9.4932
370 3.1908
375 3.38873
380 2.81229
385 3.04407
390 4.95746
395 9.68369
400 9.3416
405 7.68585
410 7.74881
415 7.65684
420 7.86601
425 7.66275
430 7.80784
435 8.54904
440 8.82977
445 9.69524
450 10.7346
455 11.8035
460 12.374
465 13.1636
470 13.2919
475 13.7994
480 14.4259
485 14.5323
490 14.0439
495 13.5744
500 13.3938
505 12.8876
510 12.2298
515 10.9647
520 10.53
525 9.25234
530 8.57243
535 8.12699
540 7.15465
545 6.24735
550 5.55947
555 5.15895
560 4.54172
565 3.82367
570 3.0614
575 2.57198
580 2.04032
585 1.73641
590 1.37172
595 0.971674
600 1.39064
Ex : 363
200 0.249325
205 0.166506
210 0.120676
215 0.19445
220 0.226403
225 0.208035
230 0.234881
235 0.146001
240 0.206508
245 0.189245
250 0.212386
255 0.225737
260 0.180292
265 0.175636
270 0.229775
275 0.253571
280 0.308997
285 0.228254
290 0.215688
295 0.206335
300 0.257474
305 0.166816
310 0.252998
315 0.192812
320 0.204534
325 0.185234
330 0.300191
335 0.244601
340 0.308136
345 0.486515
350 10.9215
355 162.995
360 258.366
365 70.6023
370 9.68
375 3.29669
380 3.17923
385 3.03901
390 3.62461
395 5.07772
400 8.48688
405 9.5973
410 8.41764
415 7.96845
420 7.69916
425 7.75231
430 8.18845
435 8.35402
440 9.59594
445 10.51
450 11.4558
455 12.144
460 13.1295
465 14.886
470 14.7284
475 15.4606
480 16.2815
485 16.0802
490 16.1545
495 15.5278
500 15.2708
505 14.8745
510 13.7992
515 12.5247
520 11.9617
525 10.8592
530 9.84712
535 8.95247
540 8.20215
545 7.2999
550 6.25303
555 5.78818
560 5.15372
565 4.28172
570 3.52344
575 2.92863
580 2.40571
585 1.77887
590 1.44556
595 1.15804
600 0.899531
Ex : 368
200 0.190178
205 0.159092
210 0.191783
215 0.201882
220 0.169518
225 0.189989
230 0.136294
235 0.157981
240 0.11195
245 0.143014
250 0.160358
255 0.142946
260 0.241878
265 0.218573
270 0.146264
275 0.196687
280 0.204914
285 0.150493
290 0.155045
295 0.148937
300 0.167877
305 0.131191
310 0.221305
315 0.252564
320 0.217117
325 0.164164
330 0.295583
335 0.21549
340 0.289128
345 0.279868
350 0.518527
355 9.08266
360 154.027
365 248.72
370 69.7988
375 9.75005
380 3.36074
385 3.39491
390 3.90161
395 3.999
400 4.96313
405 7.62451
410 10.7209
415 9.56586
420 8.68398
425 7.72515
430 8.23053
435 8.55515
440 9.54165
445 10.5806
450 11.8516
455 13.4186
460 14.6943
465 16.2359
470 17.1592
475 18.1824
480 18.4163
485 19.5664
490 19.2013
495 18.9329
500 18.2967
505 17.1855
510 15.7603
515 14.96
520 13.8302
525 12.6358
530 11.5963
535 10.6359
540 9.34953
545 8.84205
550 7.80249
555 7.09671
560 6.05953
565 5.56918
570 4.31631
575 3.58246
580 2.91706
585 2.19119
590 1.58412
595 1.38066
600 1.24343
Ex : 373
200 0.173764
205 0.20894
210 0.19808
215 0.199244
220 0.165421
225 0.147112
230 0.102566
235 0.162036
240 0.157442
245 0.200133
250 0.142873
255 0.196676
260 0.11945
265 0.143425
270 0.160733
275 0.154516
280 0.170498
285 0.218557
290 0.15134
295 0.117952
300 0.189034
305 0.178689
310 0.179707
315 0.232935
320 0.171573
325 0.239088
330 0.185785
335 0.138205
340 0.210108
345 0.270666
350 0.354817
355 0.436915
360 10.2218
365 155.102
370 247.431
375 70.0188
380 10.0158
385 3.49277
390 4.11237
395 4.70146
400 4.46055
405 5.018
410 7.40592
415 10.311
420 9.51612
425 8.38446
430 8.38772
435 8.22384
440 9.011
445 10.2342
450 11.8623
455 13.6106
460 14.8269
465 16.5414
470 18.0904
475 19.0325
480 19.9294
485 19.9476
490 20.241
495 20.1561
500 20.0008
505 18.8519
510 17.5018
515 15.95
520 15.5009
525 13.9153
530 12.6567
535 11.6465
540 10.4919
545 9.10127
550 8.12255
555 7.37098
560 6.57527
565 5.37709
570 4.58756
575 3.85655
580 3.03084
585 2.35583
590 2.0546
595 1.56325
600 1.54396
Ex : 378
200 0.189881
205 0.229382
210 0.153859
215 0.160739
220 0.216408
225 0.153324
230 0.138684
235 0.237003
240 0.132925
245 0.159478
250 0.175582
255 0.194589
260 0.177152
265 0.184658
270 0.193995
275 0.137245
280 0.187869
285 0.157602
290 0.181721
295 0.130559
300 0.0932768
305 0.133364
310 0.150843
315 0.12331
320 0.179562
325 0.189205
330 0.163128
335 0.175884
340 0.193101
345 0.191464
350 0.214861
355 0.282744
360 0.412923
365 10.1408
370 161.731
375 267.469
380 78.0832
385 11.2516
390 4.04389
395 4.52536
400 4.59445
405 4.49026
410 5.17118
415 6.82094
420 9.93781
425 9.249
430 8.26497
435 8.19899
440 8.58536
445 9.71338
450 11.028
455 12.3199
460 14.5033
465 15.5867
470 16.7655
475 18.1745
480 18.5935
485 18.7823
490 19.1397
495 19.1835
500 18.3138
505 17.6553
510 16.5771
515 15.5514
520 13.9831
525 13.0596
530 12.2859
535 11.2675
540 9.87157
545 9.12044
550 8.1234
555 7.36092
560 6.5867
565 5.51599
570 4.45956
575 3.57101
580 2.8782
585 2.16858
590 1.73122
595 1.30688
600 0.958337
Ex : 383
200 0.0930928
205 0.131489
210 0.157189
215 0.198411
220 0.182437
225 0.159661
230 0.18324
235 0.138073
240 0.130439
245 0.147401
250 0.163514
255 0.115499
260 0.118341
265 0.145433
270 0.136346
275 0.141669
280 0.184725
285 0.197641
290 0.192992
295 0.190863
300 0.16994
305 0.124769
310 0.116877
315 0.2816
320 0.221526
325 0.198481
330 0.196286
335 0.225725
340 0.243806
345 0.200143
350 0.219003
355 0.244928
360 0.311343
365 0.485642
370 9.28946
375 163.212
380 274.362
385 78.3569
390 11.7294
395 4.42444
400 4.0446
405 4.74337
410 4.81932
415 5.05862
420 6.33062
425 8.87222
430 9.69978
435 9.06108
440 9.14726
445 9.41443
450 10.8434
455 12.8136
460 14.4148
465 15.7191
470 17.1242
475 18.281
480 19.0078
485 19.0221
490 19.2594
495 18.9288
500 18.9207
505 18.1869
510 16.9468
515 15.6961
520 14.5193
525 13.2586
530 12.1044
535 10.9961
540 10.2464
545 9.32608
550 7.94216
555 7.33242
560 6.20466
565 5.74739
570 4.7976
575 3.90371
580 2.85804
585 2.10438
590 1.65704
595 1.34719
600 1.0325
Ex : 388
200 0.163983
205 0.106931
210 0.147154
215 0.141006
220 0.159656
225 0.113087
230 0.151798
235 0.16148
240 0.165266
245 0.157846
250 0.115342
255 0.204661
260 0.214327
265 0.158205
270 0.14487
275 0.112298
280 0.128206
285 0.103468
290 0.162713
295 0.119171
300 0.17043
305 0.186083
310 0.242342
315 0.178766
320 0.258182
325 0.176391
330 0.154435
335 0.192365
340 0.125977
345 0.191252
350 0.223343
355 0.221934
360 0.31847
365 0.234079
370 0.494454
375 10.1512
380 165.025
385 272.844
390 78.3653
395 12.2155
400 4.43853
405 4.55196
410 5.1452
415 5.20111
420 5.71172
425 6.14923
430 8.13517
435 10.6654
440 10.1944
445 10.6711
450 11.296
455 12.797
460 14.7914
465 16.1156
470 17.6943
475 19.0741
480 19.8202
485 20.3405
490 20.8189
495 20.895
500 19.9514
505 19.0256
510 18.1342
515 16.7434
520 15.1581
525 14.4064
530 12.9397
535 11.6364
540 11.0243
545 9.56963
550 8.60181
555 7.75979
560 6.70599
565 5.78621
570 4.69346
575 3.7894
580 3.20641
585 2.45939
590 1.86121
595 1.517
600 0.943829
Ex : 393
200 0.1748
205 0.155671
210 0.154726
215 0.138251
220 0.101534
225 0.102307
230 0.11131
235 0.140321
240 0.118656
245 0.13465
250 0.133247
255 0.13339
260 0.170045
265 0.185308
270 0.153818
275 0.155416
280 0.171979
285 0.168462
290 0.150698
295 0.149422
300 0.146132
305 0.175768
310 0.122677
315 0.144571
320 0.134847
325 0.166963
330 0.151702
335 0.155744
340 0.137997
345 0.161045
350 0.211242
355 0.197508
360 0.188989
365 0.22988
370 0.30609
375 0.424018
380 9.28345
385 166.865
390 289.876
395 82.8212
400 12.6808
405 4.64737
410 4.77147
415 5.68952
420 5.27834
425 4.99492
430 5.47145
435 7.75824
440 10.8949
445 11.551
450 11.4326
455 12.9179
460 14.9748
465 16.3211
470 17.6852
475 19.5551
480 19.6884
485 20.5006
490 20.9422
495 20.9875
500 20.179
505 19.6376
510 18.7172
515 17.4685
520 16.3668
525 14.8171
530 13.39
535 12.5532
540 11.5038
545 10.2822
550 9.01219
555 8.01479
560 6.88275
565 5.94527
570 4.91211
575 4.2017
580 3.33595
585 2.39729
590 1.92267
595 1.57502
600 1.51496
Ex : 398
200 0.17856
205 0.125599
210 0.132915
215 0.138572
220 0.106329
225 0.121431
230 0.115489
235 0.145084
240 0.185743
245 0.142521
250 0.154555
255 0.210014
260 0.140958
265 0.121579
270 0.157409
275 0.114485
280 0.21976
285 0.132299
290 0.155143
295 0.167836
300 0.16894
305 0.154565
310 0.106632
315 0.131078
320 0.164846
325 0.209181
330 0.189967
335 0.178105
340 0.169635
345 0.159112
350 0.127111
355 0.227473
360 0.217045
365 0.22341
370 0.234229
375 0.299108
380 0.483072
385 8.96806
390 167.397
395 282.711
400 80.9908
405 11.7621
410 4.2342
415 4.13661
420 4.45545
425 4.07655
430 4.17691
435 4.83685
440 6.9497
445 10.873
450 11.9659
455 13.2176
460 14.6267
465 15.8598
470 17.3962
475 19.1301
480 19.7405
485 21.3783
490 21.3118
495 21.4781
500 21.0209
505 20.5704
510 19.2431
515 17.9919
520 16.1383
525 15.312
530 13.901
535 12.8247
540 11.6839
545 10.9479
550 9.30179
555 8.61686
560 7.31276
565 6.28195
570 5.519
575 4.28191
580 3.25989
585 2.4082
590 2.02447
595 1.61914
600 1.58943
Ex : 403
200 0.144135
205 0.154712
210 0.155897
215 0.117224
220 0.143782
225 0.159373
230 0.202138
235 0.137545
240 0.113324
245 0.117589
250 0.133722
255 0.117119
260 0.118616
265 0.227722
270 0.134043
275 0.141204
280 0.154367
285 0.152746
290 0.140419
295 0.167546
300 0.134207
305 0.132528
310 0.139257
315 0.180685
320 0.147193
325 0.158096
330 0.174084
335 0.14278
340 0.15491
345 0.190093
350 0.126092
355 0.261244
360 0.19295
365 0.206204
370 0.211951
375 0.262252
380 0.377601
385 0.615091
390 10.5988
395 181.197
400 307.688
405 86.8077
410 12.5171
415 4.11806
420 3.46405
425 3.80689
430 3.73889
435 4.30151
440 5.31774
445 7.13818
450 11.2438
455 14.2119
460 15.0195
465 16.667
470 18.1686
475 19.3596
480 20.4463
485 21.0418
490 21.5746
495 21.9139
500 21.4531
505 20.2965
510 19.5907
515 17.9587
520 16.8655
525 15.3398
530 14.2083
535 12.8317
540 11.7424
545 10.7933
550 9.2538
555 8.28496
560 7.65894
565 6.09684
570 5.28642
575 4.24312
580 3.29228
585 2.61628
590 2.02262
595 1.55304
600 2.17754
Ex : 408
200 0.117714
205 0.24469
210 0.138265
215 0.143126
220 0.190306
225 0.131921
230 0.150469
235 0.113015
240 0.102128
245 0.166434
250 0.150803
255 0.128309
260 0.146141
265 0.154295
270 0.142855
275 0.108983
280 0.142088
285 0.147219
290 0.175401
295 0.155014
300 0.0927421
305 0.132478
310 0.135303
315 0.159216
320 0.143641
325 0.142635
330 0.14593
335 0.164779
340 0.179952
345 0.144371
350 0.14366
355 0.166741
360 0.156574
365 0.191014
370 0.17254
375 0.189615
380 0.243292
385 0.300498
390 0.527079
395 9.94789
400 177.08
405 294.431
410 80.6
415 11.5522
420 3.66547
425 3.15291
430 3.70404
435 4.03863
440 4.67877
445 5.87202
450 8.55961
455 12.3848
460 16.4858
465 17.2662
470 18.3724
475 19.3692
480 20.0435
485 21.0279
490 21.5523
495 21.5898
500 21.1006
505 20.3361
510 19.0682
515 18.0304
520 16.9371
525 15.5539
530 14.2099
535 12.8474
540 11.3952
545 10.4871
550 9.72578
555 8.22974
560 7.35242
565 6.50586
570 5.36327
575 4.14748
580 3.4162
585 2.45998
590 2.13605
595 1.66684
600 0.94096
Ex : 413
200 0.121659
205 0.150573
210 0.110168
215 0.167821
220 0.135485
225 0.131725
230 0.0925966
235 0.113964
240 0.13791
245 0.134552
250 0.115894
255 0.100193
260 0.161234
265 0.159154
270 0.118466
275 0.15574
280 0.142809
285 0.15348
290 0.104463
295 0.14294
300 0.149495
305 0.159946
310 0.186438
315 0.104031
320 0.106146
325 0.133529
330 0.137589
335 0.174774
340 0.172023
345 0.141601
350 0.145028
355 0.177321
360 0.156937
365 0.165856
370 0.208131
375 0.205242
380 0.194159
385 0.2127
390 0.368752
395 0.512921
400 11.6939
405 186.894
410 296.911
415 79.1401
420 10.995
425 3.35061
430 2.7581
435 3.45283
440 4.18152
445 5.55793
450 7.31909
455 9.77034
460 13.6009
465 17.5555
470 18.5784
475 19.0766
480 20.5178
485 20.371
490 20.7503
495 21.1944
500 20.5012
505 20.328
510 19.0534
515 18.1085
520 16.3534
525 15.0987
530 13.664
535 12.6166
540 11.9241
545 10.3538
550 9.31629
555 8.2249
560 7.52487
565 6.43469
570 5.37142
575 4.23419
580 3.37638
585 2.53436
590 1.98774
595 1.64521
600 0.805777
Ex : 418
200 0.13272
205 0.154621
210 0.122701
215 0.206455
220 0.120822
225 0.118406
230 0.10293
235 0.114629
240 0.149189
245 0.11485
250 0.129134
255 0.102568
260 0.0983795
265 0.145347
270 0.107845
275 0.131927
280 0.132932
285 0.121413
290 0.11327
295 0.168499
300 0.130073
305 0.146341
310 0.104463
315 0.120876
320 0.139699
325 0.115926
330 0.149777
335 0.130094
340 0.120286
345 0.143589
350 0.234713
355 0.12322
360 0.179403
365 0.17766
370 0.197331
375 0.207402
380 0.22872
385 0.230255
390 0.268435
395 0.301429
400 0.562283
405 10.8305
410 191.754
415 317.706
420 87.2323
425 11.6608
430 3.11918
435 2.66899
440 3.87728
445 4.90795
450 6.60265
455 8.48268
460 11.2098
465 13.6688
470 17.6632
475 19.2125
480 19.0016
485 19.9817
490 20.212
495 20.0371
500 19.5303
505 18.8083
510 18.135
515 17.1652
520 15.8054
525 14.9179
530 13.4325
535 12.0531
540 11.1094
545 10.0381
550 9.23955
555 8.21552
560 6.86285
565 5.99676
570 4.85104
575 3.90268
580 3.28594
585 2.47911
590 2.03897
595 1.52738
600 1.09791
Ex : 423
200 0.191699
205 0.109394
210 0.141521
215 0.136711
220 0.128053
225 0.134635
230 0.12796
235 0.143366
240 0.211723
245 0.192375
250 0.166143
255 0.13702
260 0.134551
265 0.129781
270 0.124726
275 0.137444
280 0.111194
285 0.144995
290 0.112234
295 0.146805
300 0.149953
305 0.157484
310 0.187141
315 0.168042
320 0.13757
325 0.117912
330 0.155884
335 0.115919
340 0.123687
345 0.169019
350 0.183667
355 0.201471
360 0.225318
365 0.173773
370 0.133344
375 0.179651
380 0.174182
385 0.197062
390 0.218389
395 0.220838
400 0.358403
405 0.592328
410 12.019
415 223.928
420 337.752
425 86.4051
430 11.6504
435 3.22237
440 3.10795
445 4.54631
450 6.19619
455 7.92474
460 10.111
465 11.8898
470 13.9474
475 17.0805
480 19.4109
485 19.3836
490 19.3929
495 19.0953
500 18.8879
505 17.8945
510 16.6886
515 15.7789
520 14.9186
525 13.7745
530 12.7292
535 11.5119
540 10.383
545 9.37806
550 8.64528
555 7.72524
560 6.35668
565 5.52852
570 4.45061
575 3.80566
580 2.99856
585 2.33518
590 1.75915
595 1.46264
600 0.867297
Ex : 428
200 0.14466
205 0.124374
210 0.108097
215 0.164492
220 0.126995
225 0.156071
230 0.144606
235 0.144594
240 0.131651
245 0.161266
250 0.112243
255 0.114316
260 0.180332
265 0.157553
270 0.179619
275 0.195569
280 0.131745
285 0.170072
290 0.11908
295 0.124513
300 0.103591
305 0.154935
310 0.146789
315 0.13437
320 0.138007
325 0.162063
330 0.154759
335 0.141191
340 0.134919
345 0.131245
350 0.144367
355 0.156837
360 0.137054
365 0.208258
370 0.175607
375 0.179
380 0.196261
385 0.190576
390 0.274425
395 0.258884
400 0.244562
405 0.434718
410 0.531728
415 13.0089
420 209.028
425 326.25
430 87.8992
435 11.9293
440 3.75053
445 3.88846
450 5.50824
455 7.22174
460 8.80472
465 10.3468
470 12.5196
475 13.6269
480 16.1676
485 18.1354
490 18.5347
495 17.6622
500 17.2978
505 16.3762
510 15.1904
515 14.067
520 13.1852
525 12.4219
530 11.6055
535 10.4203
540 9.51759
545 8.50536
550 7.64528
555 6.9849
560 5.85165
565 5.01241
570 4.24809
575 3.45694
580 2.76563
585 2.04572
590 1.68123
595 1.26479
600 1.05095
Ex : 433
200 0.10511
205 0.133124
210 0.150229
215 0.119344
220 0.100903
225 0.131914
230 0.174018
235 0.120813
240 0.114593
245 0.124973
250 0.131321
255 0.153866
260 0.116996
265 0.120173
270 0.12733
275 0.1406
280 0.159943
285 0.171164
290 0.15701
295 0.122769
300 0.133825
305 0.152356
310 0.156281
315 0.148087
320 0.185581
325 0.118719
330 0.134989
335 0.129771
340 0.140884
345 0.130602
350 0.14874
355 0.167365
360 0.15343
365 0.224009
370 0.156048
375 0.24069
380 0.265997
385 0.173719
390 0.201193
395 0.242984
400 0.315107
405 0.378003
410 0.420651
415 0.529678
420 14.7112
425 230.695
430 357.076
435 92.8617
440 12.9612
445 4.64001
450 4.63607
455 6.68531
460 8.24549
465 9.5243
470 10.2394
475 12.0319
480 12.968
485 14.5622
490 17.0943
495 16.6651
500 15.4687
505 14.9035
510 13.528
515 12.6487
520 11.5793
525 10.7731
530 10.1453
535 9.29126
540 8.43176
545 7.69293
550 6.57318
555 5.96085
560 5.04135
565 4.63143
570 3.5877
575 3.13508
580 2.43538
585 1.80611
590 1.45601
595 1.05103
600 1.21169
Ex : 438
200 0.192292
205 0.116863
210 0.180085
215 0.13071
220 0.16593
225 0.107346
230 0.121685
235 0.177715
240 0.146267
245 0.147277
250 0.118965
255 0.188307
260 0.200407
265 0.161504
270 0.1816
275 0.144133
280 0.149475
285 0.147706
290 0.128701
295 0.147371
300 0.109402
305 0.155784
310 0.181884
315 0.134944
320 0.121095
325 0.136074
330 0.170637
335 0.126405
340 0.130798
345 0.145271
350 0.144983
355 0.148761
360 0.167688
365 0.11578
370 0.194873
375 0.152508
380 0.184771
385 0.18093
390 0.233634
395 0.177784
400 0.203809
405 0.263353
410 0.354288
415 0.461317
420 0.583736
425 13.973
430 225.184
435 360.415
440 94.5141
445 13.6929
450 5.26161
455 5.41345
460 6.94586
465 8.30736
470 9.05413
475 9.6478
480 10.9043
485 11.7245
490 12.9904
495 14.5973
500 14.7925
505 12.9982
510 11.9355
515 11.0824
520 10.2463
525 9.11223
530 8.81813
535 7.92122
540 6.97712
545 6.60564
550 5.86496
555 5.08461
560 4.4236
565 3.81532
570 3.28883
575 2.67709
580 2.06581
585 1.68999
590 1.31318
595 1.03124
600 1.0658
Ex : 443
200 0.168627
205 0.104497
210 0.107936
215 0.0995055
220 0.133135
225 0.127761
230 0.184259
235 0.147783
240 0.149598
245 0.165011
250 0.167754
255 0.13445
260 0.202696
265 0.134807
270 0.166508
275 0.125889
280 0.0988287
285 0.131323
290 0.167177
295 0.15708
300 0.138653
305 0.162092
310 0.153978
315 0.170291
320 0.115871
325 0.116651
330 0.135224
335 0.150498
340 0.167476
345 0.15644
350 0.170673
355 0.130395
360 0.171535
365 0.167459
370 0.169034
375 0.177204
380 0.153218
385 0.267961
390 0.174922
395 0.244818
400 0.179238
405 0.16114
410 0.238635
415 0.252479
420 0.374811
425 0.646016
430 16.791
435 253.621
440 408.661
445 110.308
450 15.8765
455 5.81844
460 5.58173
465 6.53884
470 7.8028
475 8.39649
480 8.65707
485 9.20284
490 9.81941
495 10.3689
500 11.2789
505 11.7599
510 10.7427
515 9.66122
520 8.73402
525 7.79595
530 7.24018
535 6.53868
540 5.94338
545 5.39162
550 4.76084
555 4.3381
560 3.90976
565 3.16858
570 2.77858
575 2.12324
580 1.74151
585 1.481
590 1.07523
595 0.892708
600 0.318677
Ex : 448
200 0.13771
205 0.161362
210 0.132348
215 0.144982
220 0.124983
225 0.134378
230 0.127755
235 0.141702
240 0.158842
245 0.153071
250 0.172792
255 0.134862
260 0.173142
265 0.165198
270 0.190357
275 0.100897
280 0.126025
285 0.155258
290 0.149069
295 0.173137
300 0.145301
305 0.145136
310 0.185443
315 0.136293
320 0.185117
325 0.140854
330 0.12806
335 0.162405
340 0.138169
345 0.161341
350 0.19088
355 0.130433
360 0.192026
365 0.15753
370 0.17194
375 0.149999
380 0.137385
385 0.174054
390 0.199238
395 0.23267
400 0.268664
405 0.224654
410 0.227402
415 0.261793
420 0.237597
425 0.394033
430 0.734277
435 16.5085
440 263.217
445 402.821
450 106.22
455 15.3335
460 5.68095
465 4.81109
470 5.67481
475 6.37227
480 6.94186
485 6.98893
490 7.47122
495 7.44024
500 7.60354
505 8.32673
510 9.27312
515 8.37071
520 6.98601
525 6.60037
530 5.60321
535 5.10159
540 4.78027
545 4.03971
550 3.7665
555 3.3423
560 2.87853
565 2.68345
570 2.26388
575 1.83639
580 1.36204
585 1.24476
590 0.955436
595 0.794039
600 0.255783
Ex : 453
200 0.106166
205 0.150378
210 0.162436
215 0.165402
220 0.142259
225 0.122996
230 0.13877
235 0.110114
240 0.123736
245 0.18257
250 0.174021
255 0.116868
260 0.11838
265 0.138482
270 0.160232
275 0.198774
280 0.126173
285 0.167007
290 0.149341
295 0.144854
300 0.135271
305 0.135281
310 0.111003
315 0.141922
320 0.142625
325 0.12254
330 0.126439
335 0.144766
340 0.135785
345 0.184905
350 0.241218
355 0.142827
360 0.213735
365 0.165885
370 0.164361
375 0.187317
380 0.144546
385 0.140445
390 0.186325
395 0.207459
400 0.1731
405 0.224488
410 0.213902
415 0.232836
420 0.273591
425 0.292227
430 0.402796
435 0.775814
440 18.7955
445 311.498
450 450.914
455 109.533
460 15.5409
465 5.24017
470 4.29407
475 4.6153
480 5.43377
485 5.59068
490 5.23355
495 5.41102
500 5.40997
505 5.28708
510 5.6527
515 6.91805
520 6.73423
525 5.23005
530 4.73039
535 4.17955
540 3.69274
545 3.113
550 2.98451
555 2.78687
560 2.34501
565 2.04291
570 1.76135
575 1.43283
580 1.1222
585 0.991516
590 0.732843
595 0.621955
600 0.625715
Ex : 458
200 0.16094
205 0.161309
210 0.168636
215 0.211977
220 0.115699
225 0.184883
230 0.146925
235 0.144445
240 0.138788
245 0.143063
250 0.126248
255 0.134588
260 0.119579
265 0.187276
270 0.151128
275 0.120754
280 0.111425
285 0.146158
290 0.119898
295 0.194182
300 0.137998
305 0.12783
310 0.170192
315 0.138433
320 0.125253
325 0.154081
330 0.152703
335 0.186677
340 0.166262
345 0.176882
350 0.106708
355 0.11387
360 0.186969
365 0.14578
370 0.193858
375 0.14649
380 0.202166
385 0.134646
390 0.153386
395 0.172549
400 0.175803
405 0.173032
410 0.202146
415 0.184986
420 0.250869
425 0.257187
430 0.389481
435 0.467821
440 0.691105
445 20.7772
450 310.374
455 457.165
460 111.36
465 15.2483
470 4.50431
475 3.28638
480 3.40461
485 4.03327
490 4.0709
495 3.88395
500 3.64427
505 3.77193
510 3.70854
515 3.84892
520 4.86213
525 5.23743
530 4.11151
535 3.34175
540 3.07079
545 2.66393
550 2.34353
555 2.1642
560 1.82395
565 1.62519
570 1.42413
575 1.11649
580 0.935742
585 0.742225
590 0.57421
595 0.475529
600 0.147706
Ex : 463
200 0.139076
205 0.110986
210 0.142875
215 0.112181
220 0.13501
225 0.128471
230 0.127956
235 0.131011
240 0.126859
245 0.112984
250 0.199282
255 0.138346
260 0.167258
265 0.131744
270 0.113824
275 0.142588
280 0.110217
285 0.142818
290 0.172795
295 0.146226
300 0.104775
305 0.126981
310 0.130684
315 0.126564
320 0.140208
325 0.200644
330 0.193372
335 0.136126
340 0.178291
345 0.161425
350 0.141435
355 0.111581
360 0.162918
365 0.164325
370 0.14515
375 0.204672
380 0.193639
385 0.20525
390 0.202451
395 0.203918
400 0.175384
405 0.128013
410 0.210294
415 0.168499
420 0.179744
425 0.243433
430 0.250746
435 0.288454
440 0.414882
445 0.769993
450 20.7622
455 311.15
460 457.855
465 116.345
470 15.4369
475 4.09745
480 2.88699
485 2.86294
490 3.03402
495 3.10711
500 2.81476
505 2.69202
510 2.55567
515 2.54957
520 2.59667
525 3.26083
530 4.51491
535 3.71681
540 2.76661
545 2.56478
550 2.18233
555 1.82131
560 1.58516
565 1.36854
570 1.12309
575 0.984902
580 0.860239
585 0.710851
590 0.552281
595 0.464821
600 0.875798
Ex : 468
200 0.12142
205 0.14206
210 0.138802
215 0.159992
220 0.165028
225 0.123173
230 0.106317
235 0.142112
240 0.132801
245 0.143809
250 0.139228
255 0.159546
260 0.120038
265 0.126313
270 0.176645
275 0.150797
280 0.10581
285 0.102491
290 0.147556
295 0.147682
300 0.154064
305 0.100292
310 0.111235
315 0.141905
320 0.129361
325 0.158499
330 0.127524
335 0.108618
340 0.122777
345 0.128866
350 0.162814
355 0.141745
360 0.123141
365 0.166886
370 0.132482
375 0.139891
380 0.133413
385 0.192609
390 0.180293
395 0.209352
400 0.196373
405 0.15887
410 0.144102
415 0.195235
420 0.166946
425 0.194743
430 0.189381
435 0.237734
440 0.379601
445 0.447081
450 0.750465
455 20.505
460 325.982
465 539.916
470 126.378
475 16.1737
480 3.82501
485 2.26226
490 2.2183
495 2.4364
500 2.47998
505 2.15047
510 1.9671
515 2.11273
520 1.97227
525 2.12997
530 2.3583
535 3.61698
540 3.6546
545 2.36108
550 2.03427
555 1.7606
560 1.4727
565 1.30475
570 1.06226
575 0.87739
580 0.806314
585 0.627713
590 0.571089
595 0.470519
600 0.331855
Ex : 473
200 0.102066
205 0.0960299
210 0.224933
215 0.162757
220 0.107004
225 0.136099
230 0.157556
235 0.12925
240 0.176024
245 0.187844
250 0.177275
255 0.173416
260 0.114253
265 0.195922
270 0.136722
275 0.140057
280 0.133162
285 0.118215
290 0.176421
295 0.130782
300 0.146085
305 0.201408
310 0.134716
315 0.116842
320 0.190202
325 0.133855
330 0.116403
335 0.165019
340 0.124531
345 0.143086
350 0.129216
355 0.145412
360 0.138495
365 0.142706
370 0.154664
375 0.187686
380 0.136135
385 0.202273
390 0.134476
395 0.162817
400 0.191459
405 0.143696
410 0.171539
415 0.163239
420 0.198088
425 0.228588
430 0.196588
435 0.248677
440 0.256922
445 0.320729
450 0.411389
455 0.754406
460 23.1542
465 337.669
470 491.055
475 116.646
480 14.946
485 3.34532
490 2.00895
495 1.64643
500 1.99409
505 1.90157
510 1.91986
515 1.6164
520 1.73597
525 1.69545
530 1.8105
535 1.79627
540 2.70978
545 3.28876
550 2.4687
555 1.71966
560 1.54536
565 1.33203
570 1.19853
575 0.876814
580 0.68793
585 0.651218
590 0.556196
595 0.406498
600 0.247785
Ex : 478
200 0.132321
205 0.134354
210 0.113346
215 0.157103
220 0.160003
225 0.169956
230 0.135591
235 0.148086
240 0.177494
245 0.14242
250 0.1387
255 0.149516
260 0.155383
265 0.186688
270 0.140305
275 0.121451
280 0.096202
285 0.140396
290 0.148432
295 0.170557
300 0.148489
305 0.239276
310 0.168378
315 0.192938
320 0.141061
325 0.191593
330 0.173598
335 0.150755
340 0.221565
345 0.222164
350 0.252515
355 0.184908
360 0.175501
365 0.189914
370 0.156571
375 0.163812
380 0.154731
385 0.194156
390 0.137712
395 0.20655
400 0.192714
405 0.158177
410 0.15341
415 0.190026
420 0.153973
425 0.300404
430 0.254786
435 0.245356
440 0.234669
445 0.28337
450 0.362351
455 0.507351
460 0.807044
465 24.4554
470 331.487
475 468.474
480 112.638
485 14.3625
490 3.09216
495 1.67783
500 1.54817
505 1.70876
510 1.80173
515 1.76112
520 1.60652
525 1.55049
530 1.63292
535 1.4732
540 1.46205
545 2.04556
550 2.78116
555 2.51936
560 1.5664
565 1.41878
570 1.28148
575 1.00672
580 0.714145
585 0.619956
590 0.510121
595 0.434696
600 0.166155
Ex : 483
200 0.141467
205 0.133598
210 0.180182
215 0.200618
220 0.153646
225 0.171117
230 0.125739
235 0.10492
240 0.186354
245 0.208625
250 0.133735
255 0.126133
260 0.19213
265 0.15252
270 0.149002
275 0.108997
280 0.150491
285 0.205045
290 0.163744
295 0.140784
300 0.156238
305 0.139215
310 0.149689
315 0.135254
320 0.194378
325 0.190508
330 0.166885
335 0.2669
340 0.164765
345 0.175589
350 0.176405
355 0.160423
360 0.188876
365 0.191251
370 0.183677
375 0.148355
380 0.178241
385 0.177435
390 0.179943
395 0.181821
400 0.123671
405 0.216685
410 0.214138
415 0.170125
420 0.270638
425 0.22465
430 0.182715
435 0.250369
440 0.186377
445 0.335067
450 0.352372
455 0.357225
460 0.626252
465 0.903572
470 19.3764
475 321.718
480 486.61
485 116.95
490 14.63
495 2.92908
500 1.55698
505 1.24119
510 1.49497
515 1.69603
520 1.72814
525 1.48911
530 1.43148
535 1.43469
540 1.61607
545 1.44023
550 1.60247
555 2.54906
560 2.60511
565 1.67778
570 1.29318
575 1.11222
580 0.865728
585 0.662838
590 0.499613
595 0.416336
600 0.414297
Ex : 488
200 0.137855
205 0.174884
210 0.19729
215 0.21529
220 0.164911
225 0.156836
230 0.112996
235 0.18916
240 0.149109
245 0.1585
250 0.20049
255 0.140532
260 0.213035
265 0.158144
270 0.183004
275 0.160171
280 0.224395
285 0.154251
290 0.152719
295 0.193072
300 0.216113
305 0.160256
310 0.121859
315 0.186052
320 0.168528
325 0.182069
330 0.180342
335 0.166677
340 0.219719
345 0.197907
350 0.219702
355 0.169812
360 0.154657
365 0.171829
370 0.136321
375 0.170508
380 0.193649
385 0.208934
390 0.160797
395 0.19689
400 0.192572
405 0.20226
410 0.200635
415 0.192992
420 0.243492
425 0.224606
430 0.226013
435 0.209799
440 0.259702
445 0.213446
450 0.295124
455 0.321349
460 0.46698
465 0.591446
470 0.837339
475 23.1294
480 338.741
485 505.384
490 128.488
495 16.0666
500 3.08916
505 1.60048
510 1.31304
515 1.48258
520 1.55649
525 1.67595
530 1.58947
535 1.39844
540 1.38797
545 1.27224
550 1.23681
555 1.21301
560 1.96446
565 2.36734
570 1.71696
575 1.09671
580 0.879315
585 0.655235
590 0.557834
595 0.432373
600 0.0492024
Ex : 493
200 0.171677
205 0.170272
210 0.153941
215 0.19269
220 0.16359
225 0.156864
230 0.147662
235 0.206166
240 0.13668
245 0.162365
250 0.183952
255 0.192446
260 0.213102
265 0.122428
270 0.129866
275 0.143511
280 0.148705
285 0.175086
290 0.112291
295 0.196563
300 0.177405
305 0.15518
310 0.210576
315 0.203282
320 0.160828
325 0.160613
330 0.137973
335 0.198437
340 0.162466
345 0.163382
350 0.196502
355 0.189156
360 0.166914
365 0.140958
370 0.150429
375 0.179885
380 0.216072
385 0.190503
390 0.164484
395 0.190653
400 0.186382
405 0.26898
410 0.229665
415 0.195399
420 0.221926
425 0.231258
430 0.171203
435 0.246345
440 0.183503
445 0.231012
450 0.243601
455 0.290489
460 0.355401
465 0.429328
470 0.510511
475 0.703468
480 20.1401
485 328.391
490 509.189
495 118.136
500 14.6949
505 2.88952
510 1.47812
515 1.23929
520 1.44297
525 1.61382
530 1.52855
535 1.43823
540 1.272
545 1.23263
550 1.2068
555 1.06241
560 1.0797
565 1.36013
570 2.08803
575 1.8374
580 0.991721
585 0.747676
590 0.671224
595 0.543114
600 1.10499
Ex : 498
200 0.156624
205 0.119984
210 0.157551
215 0.170287
220 0.167318
225 0.149891
230 0.157379
235 0.121453
240 0.207222
245 0.114584
250 0.139371
255 0.163277
260 0.22413
265 0.172758
270 0.160708
275 0.262987
280 0.207024
285 0.248723
290 0.175183
295 0.155081
300 0.239064
305 0.163668
310 0.171181
315 0.188815
320 0.149896
325 0.19256
330 0.139486
335 0.203826
340 0.137411
345 0.211673
350 0.239806
355 0.183377
360 0.246274
365 0.182342
370 0.283844
375 0.231696
380 0.183639
385 0.1489
390 0.160776
395 0.266117
400 0.170838
405 0.190709
410 0.154006
415 0.189521
420 0.233315
425 0.188108
430 0.209635
435 0.209749
440 0.265103
445 0.32365
450 0.266195
455 0.335465
460 0.302519
465 0.354186
470 0.44474
475 0.547216
480 0.746946
485 23.5112
490 334.16
495 471.746
500 112.901
505 14.0604
510 2.77544
515 1.41246
520 1.31431
525 1.3029
530 1.47227
535 1.35456
540 1.16756
545 1.1179
550 1.18057
555 1.15196
560 1.04392
565 0.868879
570 0.985888
575 1.3792
580 1.49057
585 0.902262
590 0.629988
595 0.560242
600 0.645794
Ex : 503
200 0.297191
205 0.168814
210 0.164595
215 0.161015
220 0.163755
225 0.158606
230 0.186608
235 0.144532
240 0.238989
245 0.213246
250 0.217142
255 0.16121
260 0.233249
265 0.167054
270 0.18135
275 0.216515
280 0.208715
285 0.20938
290 0.19656
295 0.208192
300 0.258605
305 0.200231
310 0.158877
315 0.190947
320 0.178029
325 0.238478
330 0.185668
335 0.179315
340 0.180694
345 0.217318
350 0.203014
355 0.21948
360 0.201177
365 0.192236
370 0.206166
375 0.230318
380 0.199533
385 0.135434
390 0.200073
395 0.184266
400 0.171316
405 0.154902
410 0.198344
415 0.232503
420 0.220847
425 0.253692
430 0.307535
435 0.26689
440 0.286871
445 0.274019
450 0.220624
455 0.336268
460 0.403435
465 0.394563
470 0.32089
475 0.452897
480 0.743465
485 0.835572
490 24.5288
495 367.991
500 486.643
505 111.286
510 13.7986
515 2.65441
520 1.4511
525 1.3457
530 1.1264
535 1.34912
540 1.53579
545 1.37456
550 1.22325
555 1.17468
560 1.03551
565 0.903891
570 0.858973
575 0.828206
580 1.03573
585 1.29975
590 0.971831
595 0.539283
600 0.381826
Ex : 508
200 0.176516
205 0.168587
210 0.172026
215 0.197034
220 0.219671
225 0.172175
230 0.153601
235 0.195409
240 0.252675
245 0.2227
250 0.247678
255 0.1896
260 0.145353
265 0.171017
270 0.150536
275 0.158129
280 0.211692
285 0.271585
290 0.189705
295 0.238078
300 0.292102
305 0.204744
310 0.155677
315 0.244426
320 0.247824
325 0.173265
330 0.189096
335 0.229273
340 0.230849
345 0.207935
350 0.170385
355 0.172634
360 0.182006
365 0.203623
370 0.155695
375 0.287636
380 0.221998
385 0.181883
390 0.22921
395 0.273291
400 0.254022
405 0.226572
410 0.22921
415 0.257237
420 0.207909
425 0.207374
430 0.201575
435 0.204431
440 0.284022
445 0.290858
450 0.26811
455 0.295079
460 0.251762
465 0.251109
470 0.327169
475 0.327468
480 0.38877
485 0.594774
490 0.840504
495 25.7977
500 379.212
505 495.573
510 123.182
515 15.2864
520 2.94626
525 1.60907
530 1.27226
535 1.24762
540 1.32463
545 1.33729
550 1.22217
555 1.22729
560 0.886785
565 0.95022
570 0.824315
575 0.737613
580 0.637162
585 0.710243
590 0.883525
595 1.02022
600 1.09666
Ex : 513
200 0.16024
205 0.189092
210 0.161191
215 0.226244
220 0.172254
225 0.173852
230 0.164873
235 0.177381
240 0.175016
245 0.243874
250 0.27479
255 0.174203
260 0.129895
265 0.246194
270 0.19999
275 0.254874
280 0.199253
285 0.171699
290 0.271496
295 0.202189
300 0.226974
305 0.187333
310 0.246086
315 0.209901
320 0.239381
325 0.275212
330 0.221788
335 0.201325
340 0.260299
345 0.193527
350 0.156928
355 0.247753
360 0.280099
365 0.192892
370 0.199596
375 0.212636
380 0.280117
385 0.29378
390 0.214967
395 0.16698
400 0.205566
405 0.181817
410 0.21194
415 0.231409
420 0.251099
425 0.307671
430 0.260052
435 0.243588
440 0.272238
445 0.23951
450 0.301573
455 0.293999
460 0.238649
465 0.270894
470 0.253442
475 0.301932
480 0.421588
485 0.434476
490 0.517703
495 0.587679
500 21.5462
505 331.047
510 508.78
515 131.667
520 16.5754
525 3.06407
530 1.55355
535 1.39984
540 1.06468
545 1.22995
550 1.27987
555 1.08228
560 1.0488
565 0.773836
570 0.963572
575 0.753924
580 0.608133
585 0.573595
590 0.506356
595 0.633916
600 0.657286
Ex : 518
200 0.204001
205 0.20986
210 0.159753
215 0.189763
220 0.195618
225 0.290491
230 0.248008
235 0.186813
240 0.210771
245 0.182575
250 0.169381
255 0.194423
260 0.186676
265 0.176546
270 0.171712
275 0.164142
280 0.209358
285 0.218038
290 0.187098
295 0.26514
300 0.255983
305 0.28114
310 0.218997
315 0.179034
320 0.159527
325 0.270092
330 0.258832
335 0.210386
340 0.186873
345 0.192258
350 0.153411
355 0.238566
360 0.230593
365 0.207685
370 0.232391
375 0.235362
380 0.219725
385 0.242271
390 0.154378
395 0.24601
400 0.236428
405 0.20083
410 0.307957
415 0.272151
420 0.292033
425 0.240961
430 0.23231
435 0.286329
440 0.270672
445 0.240853
450 0.173508
455 0.241816
460 0.225216
465 0.307725
470 0.391813
475 0.310156
480 0.458137
485 0.416007
490 0.460611
495 0.525715
500 0.778214
505 28.6751
510 393.396
515 539.611
520 127.608
525 16.1208
530 2.8403
535 1.45976
540 1.12757
545 1.18091
550 1.1517
555 1.20604
560 1.17435
565 0.907471
570 0.825555
575 0.598582
580 0.525535
585 0.559119
590 0.470764
595 0.425272
600 0.121528
Ex : 523
200 0.20777
205 0.180442
210 0.249971
215 0.150052
220 0.189592
225 0.292578
230 0.225604
235 0.181916
240 0.18025
245 0.207724
250 0.238101
255 0.229514
260 0.226332
265 0.226654
270 0.18343
275 0.226165
280 0.203279
285 0.222633
290 0.172695
295 0.189882
300 0.2434
305 0.224668
310 0.185446
315 0.287501
320 0.270345
325 0.320185
330 0.178554
335 0.180743
340 0.272363
345 0.204582
350 0.288562
355 0.275028
360 0.226905
365 0.184397
370 0.25687
375 0.204305
380 0.225853
385 0.283931
390 0.220942
395 0.255523
400 0.183619
405 0.33841
410 0.307125
415 0.214381
420 0.254192
425 0.303914
430 0.288841
435 0.246585
440 0.211568
445 0.275163
450 0.168592
455 0.203682
460 0.220208
465 0.226112
470 0.415932
475 0.265837
480 0.370147
485 0.290362
490 0.359249
495 0.548741
500 0.557352
505 0.827719
510 28.723
515 352.387
520 489.884
525 129.182
530 15.9353
535 2.89101
540 1.44638
545 1.0523
550 1.01715
555 1.10592
560 1.12976
565 0.810432
570 0.879603
575 0.672795
580 0.525042
585 0.493813
590 0.403265
595 0.420764
600 0.371773
Ex : 528
200 0.316792
205 0.217581
210 0.2684
215 0.229566
220 0.278309
225 0.201979
230 0.203356
235 0.261051
240 0.209492
245 0.237285
250 0.179658
255 0.224278
260 0.212941
265 0.279339
270 0.215159
275 0.3177
280 0.224455
285 0.197033
290 0.262113
295 0.230925
300 0.251936
305 0.160164
310 0.3002
315 0.143324
320 0.175724
325 0.239012
330 0.16469
335 0.311068
340 0.187607
345 0.195203
350 0.183534
355 0.232611
360 0.236553
365 0.289613
370 0.207452
375 0.22536
380 0.254372
385 0.203955
390 0.310072
395 0.304631
400 0.244504
405 0.253103
410 0.277682
415 0.227578
420 0.239541
425 0.207507
430 0.271764
435 0.31615
440 0.267204
445 0.268579
450 0.325742
455 0.227493
460 0.227524
465 0.340076
470 0.321188
475 0.459576
480 0.315977
485 0.297177
490 0.302294
495 0.438826
500 0.341642
505 0.56477
510 0.812744
515 18.6551
520 328.259
525 453.944
530 114.323
535 14.2593
540 2.56541
545 1.2644
550 1.05146
555 0.782674
560 0.955033
565 1.02104
570 0.946985
575 0.744888
580 0.616707
585 0.553784
590 0.421633
595 0.374302
600 0.256192
Ex : 533
200 0.206668
205 0.193112
210 0.194191
215 0.201996
220 0.284822
225 0.218592
230 0.148443
235 0.29947
240 0.187852
245 0.196307
250 0.239022
255 0.222944
260 0.197789
265 0.316993
270 0.215473
275 0.168007
280 0.19613
285 0.172862
290 0.213085
295 0.24414
300 0.182256
305 0.262567
310 0.223054
315 0.157045
320 0.217671
325 0.307795
330 0.285477
335 0.373676
340 0.229501
345 0.250274
350 0.280783
355 0.193858
360 0.222568
365 0.256883
370 0.18354
375 0.194825
380 0.2376
385 0.206381
390 0.245692
395 0.22469
400 0.303418
405 0.227742
410 0.202152
415 0.278492
420 0.271447
425 0.35703
430 0.307523
435 0.224497
440 0.311226
445 0.308895
450 0.279315
455 0.264955
460 0.303058
465 0.325124
470 0.312307
475 0.303488
480 0.281014
485 0.34006
490 0.375849
495 0.333059
500 0.334479
505 0.36629
510 0.489348
515 0.878841
520 19.5515
525 328.624
530 511.323
535 141.97
540 17.3702
545 2.85738
550 1.26497
555 0.943063
560 0.912811
565 0.732025
570 0.857971
575 0.73534
580 0.645947
585 0.477709
590 0.522916
595 0.599442
600 0.327476
Ex : 538
200 0.217776
205 0.226128
210 0.244919
215 0.250396
220 0.244402
225 0.219622
230 0.233497
235 0.396609
240 0.238905
245 0.276409
250 0.2086
255 0.214358
260 0.172921
265 0.268945
270 0.249702
275 0.421613
280 0.299913
285 0.292094
290 0.161375
295 0.271548
300 0.286204
305 0.189201
310 0.346964
315 0.26071
320 0.242817
325 0.215839
330 0.145272
335 0.229912
340 0.275584
345 0.257529
350 0.219604
355 0.218238
360 0.305641
365 0.237507
370 0.279097
375 0.219231
380 0.249423
385 0.29274
390 0.326046
395 0.247285
400 0.301617
405 0.245189
410 0.228618
415 0.281016
420 0.295718
425 0.273505
430 0.20827
435 0.280071
440 0.289064
445 0.288173
450 0.320019
455 0.34412
460 0.362058
465 0.265176
470 0.244588
475 0.284789
480 0.280587
485 0.3514
490 0.312384
495 0.289322
500 0.32746
505 0.420023
510 0.443375
515 0.573139
520 0.776802
525 19.1013
530 284.142
535 454.086
540 134.116
545 16.6128
550 2.78232
555 1.15097
560 0.841872
565 0.723898
570 0.652586
575 0.716607
580 0.557901
585 0.514093
590 0.514541
595 0.438962
600 0.260487
Ex : 543
200 0.303198
205 0.205586
210 0.169054
215 0.220905
220 0.307041
225 0.233106
230 0.223366
235 0.18092
240 0.224198
245 0.159903
250 0.214165
255 0.165636
260 0.321579
265 0.16888
270 0.22355
275 0.320519
280 0.28477
285 0.180066
290 0.292937
295 0.319945
300 0.229668
305 0.215683
310 0.259376
315 0.21996
320 0.287686
325 0.263349
330 0.205503
335 0.294722
340 0.299303
345 0.284561
350 0.250025
355 0.299788
360 0.253944
365 0.267538
370 0.239211
375 0.233854
380 0.221721
385 0.259059
390 0.21133
395 0.311772
400 0.434204
405 0.311194
410 0.330049
415 0.241873
420 0.252226
425 0.231064
430 0.231471
435 0.25202
440 0.282934
445 0.288675
450 0.367952
455 0.308747
460 0.235834
465 0.364312
470 0.258292
475 0.247792
480 0.376702
485 0.344001
490 0.329238
495 0.286157
500 0.247503
505 0.416641
510 0.376488
515 0.434233
520 0.569262
525 0.908938
530 15.3454
535 309.026
540 596.937
545 210.048
550 25.3745
555 3.71703
560 1.2478
565 0.824639
570 0.646031
575 0.681595
580 0.534516
585 0.484463
590 0.603767
595 0.513848
600 0.152018
Ex : 548
200 0.280731
205 0.293728
210 0.195772
215 0.162087
220 0.221897
225 0.208642
230 0.212081
235 0.209417
240 0.215767
245 0.2573
250 0.334713
255 0.288327
260 0.190454
265 0.207721
270 0.262383
275 0.315166
280 0.262252
285 0.252917
290 0.225935
295 0.224055
300 0.244288
305 0.206154
310 0.203534
315 0.235885
320 0.231924
325 0.235246
330 0.338663
335 0.308767
340 0.256718
345 0.258878
350 0.240147
355 0.223156
360 0.215687
365 0.239845
370 0.2994
375 0.274443
380 0.256198
385 0.249838
390 0.210378
395 0.339863
400 0.321689
405 0.243871
410 0.209451
415 0.304648
420 0.2214
425 0.271494
430 0.283845
435 0.395824
440 0.296575
445 0.284228
450 0.284373
455 0.389605
460 0.294833
465 0.282589
470 0.267048
475 0.299883
480 0.285889
485 0.257238
490 0.257522
495 0.353474
500 0.245881
505 0.376695
510 0.423872
515 0.435455
520 0.429834
525 0.591741
530 0.826512
535 18.998
540 292.987
545 458.416
550 127.105
555 15.5686
560 2.51607
565 0.965552
570 0.712321
575 0.583986
580 0.45124
585 0.538984
590 0.475277
595 0.536059
600 0.755454
Ex : 553
200 0.326053
205 0.201785
210 0.26162
215 0.312724
220 0.236038
225 0.304589
230 0.232961
235 0.25999
240 0.18498
245 0.257904
250 0.282132
255 0.220309
260 0.410732
265 0.245018
270 0.177647
275 0.227166
280 0.22001
285 0.25587
290 0.255065
295 0.30311
300 0.275244
305 0.22704
310 0.226287
315 0.293939
320 0.321123
325 0.210467
330 0.20939
335 0.241429
340 0.22875
345 0.270329
350 0.263356
355 0.298523
360 0.29048
365 0.254126
370 0.285906
375 0.215364
380 0.237023
385 0.261679
390 0.371483
395 0.360493
400 0.30209
405 0.291345
410 0.320506
415 0.335105
420 0.303931
425 0.262972
430 0.288482
435 0.397291
440 0.346527
445 0.326982
450 0.362402
455 0.292872
460 0.328387
465 0.300351
470 0.281862
475 0.229675
480 0.297441
485 0.358934
490 0.413291
495 0.324233
500 0.279657
505 0.259687
510 0.246068
515 0.362249
520 0.436277
525 0.404357
530 0.513712
535 0.688332
540 14.5761
545 248.634
550 460.431
555 136.119
560 16.6743
565 2.56728
570 0.815917
575 0.717732
580 0.526564
585 0.42854
590 0.465178
595 0.43475
600 0.803011
Ex : 558
200 0.253109
205 0.230016
210 0.205221
215 0.166659
220 0.257437
225 0.234759
230 0.250185
235 0.305102
240 0.198235
245 0.251039
250 0.291944
255 0.256387
260 0.334609
265 0.286516
270 0.304938
275 0.330452
280 0.188769
285 0.272989
290 0.254627
295 0.33638
300 0.263115
305 0.315559
310 0.243667
315 0.214388
320 0.23386
325 0.224556
330 0.271869
335 0.273611
340 0.193032
345 0.257979
350 0.231292
355 0.300128
360 0.274453
365 0.312503
370 0.274317
375 0.306695
380 0.217464
385 0.329235
390 0.244317
395 0.340371
400 0.308819
405 0.263193
410 0.247443
415 0.239543
420 0.285801
425 0.249066
430 0.257768
435 0.261635
440 0.370194
445 0.342947
450 0.24445
455 0.261071
460 0.277697
465 0.340438
470 0.339968
475 0.429061
480 0.289183
485 0.231806
490 0.268814
495 0.327318
500 0.386851
505 0.35225
510 0.321189
515 0.329622
520 0.379688
525 0.494912
530 0.52421
535 0.529739
540 0.798698
545 15.3886
550 352.303
555 669.017
560 156.557
565 19.0503
570 2.81456
575 0.792081
580 0.747523
585 0.501823
590 0.427745
595 0.385491
600 0.182337
Ex : 563
200 0.317683
205 0.239843
210 0.412049
215 0.261946
220 0.369702
225 0.33164
230 0.250347
235 0.235014
240 0.229289
245 0.231191
250 0.196193
255 0.215126
260 0.218596
265 0.18189
270 0.299958
275 0.271159
280 0.237321
285 0.338456
290 0.25449
295 0.370647
300 0.283895
305 0.301303
310 0.255838
315 0.227456
320 0.209433
325 0.197291
330 0.263859
335 0.217254
340 0.256614
345 0.321049
350 0.253564
355 0.317112
360 0.242174
365 0.286404
370 0.20312
375 0.303909
380 0.275647
385 0.233661
390 0.271992
395 0.222824
400 0.301666
405 0.351257
410 0.256763
415 0.261433
420 0.207508
425 0.240507
430 0.297632
435 0.22016
440 0.327367
445 0.383079
450 0.267278
455 0.308817
460 0.236342
465 0.313684
470 0.282255
475 0.422348
480 0.385902
485 0.273459
490 0.369809
495 0.32882
500 0.266924
505 0.232229
510 0.282574
515 0.359157
520 0.44441
525 0.363941
530 0.413368
535 0.435398
540 0.443581
545 0.74442
550 12.0971
555 216.9
560 369.77
565 114.481
570 14.0195
575 2.27463
580 0.723486
585 0.567334
590 0.453539
595 0.628974
600 0.0715748
Ex : 568
200 0.208301
205 0.210391
210 0.248184
215 0.25676
220 0.282879
225 0.268894
230 0.358492
235 0.249741
240 0.266454
245 0.303922
250 0.20693
255 0.218063
260 0.324879
265 0.279743
270 0.260126
275 0.364451
280 0.306845
285 0.343419
290 0.24518
295 0.237714
300 0.174845
305 0.211157
310 0.299836
315 0.316469
320 0.265237
325 0.284003
330 0.378822
335 0.222078
340 0.336436
345 0.252987
350 0.339429
355 0.237082
360 0.234379
365 0.285037
370 0.343858
375 0.330345
380 0.426732
385 0.322752
390 0.335512
395 0.356301
400 0.2891
405 0.303185
410 0.23901
415 0.313246
420 0.259742
425 0.23466
430 0.278764
435 0.274736
440 0.384129
445 0.301677
450 0.301821
455 0.266159
460 0.252785
465 0.370912
470 0.292633
475 0.314805
480 0.373632
485 0.395934
490 0.312162
495 0.287589
500 0.318617
505 0.275704
510 0.315546
515 0.458445
520 0.401692
525 0.278768
530 0.361715
535 0.379178
540 0.464885
545 0.634596
550 0.737112
555 10.5274
560 254.862
565 476.348
570 127.586
575 15.7826
580 2.39907
585 0.705585
590 0.413878
595 0.402528
600 0.940784
Ex : 573
200 0.21691
205 0.299692
210 0.206217
215 0.240411
220 0.290272
225 0.198084
230 0.316638
235 0.337709
240 0.230577
245 0.228705
250 0.32608
255 0.225902
260 0.229187
265 0.266299
270 0.305064
275 0.265668
280 0.260691
285 0.23143
290 0.242317
295 0.232427
300 0.354726
305 0.237476
310 0.251208
315 0.263731
320 0.151198
325 0.259775
330 0.179099
335 0.290623
340 0.254045
345 0.251539
350 0.252148
355 0.214907
360 0.226674
365 0.32351
370 0.285307
375 0.40253
380 0.23471
385 0.312642
390 0.185295
395 0.21012
400 0.23539
405 0.340767
410 0.301063
415 0.301951
420 0.26604
425 0.326344
430 0.397452
435 0.304923
440 0.262104
445 0.236813
450 0.375002
455 0.347784
460 0.367576
465 0.399394
470 0.352511
475 0.341141
480 0.282454
485 0.231192
490 0.339432
495 0.236704
500 0.293634
505 0.356681
510 0.328634
515 0.390214
520 0.295087
525 0.406272
530 0.356629
535 0.521097
540 0.407615
545 0.504732
550 0.62345
555 0.62652
560 8.84546
565 183.003
570 350.771
575 114.54
580 14.1734
585 2.17623
590 0.832435
595 0.592071
600 0.887265
Ex : 578
200 0.152174
205 0.260574
210 0.216876
215 0.21671
220 0.222986
225 0.260782
230 0.278598
235 0.194053
240 0.26521
245 0.226489
250 0.212304
255 0.32276
260 0.262278
265 0.27847
270 0.200975
275 0.28925
280 0.273214
285 0.338251
290 0.275229
295 0.308713
300 0.237679
305 0.335041
310 0.274733
315 0.277111
320 0.311154
325 0.298289
330 0.320784
335 0.465865
340 0.27102
345 0.283703
350 0.197373
355 0.186665
360 0.239468
365 0.363955
370 0.240864
375 0.266054
380 0.229476
385 0.342025
390 0.200439
395 0.334358
400 0.282254
405 0.335715
410 0.206969
415 0.287002
420 0.229875
425 0.247932
430 0.317641
435 0.360994
440 0.396004
445 0.272352
450 0.365208
455 0.404963
460 0.268821
465 0.349352
470 0.299038
475 0.359228
480 0.403209
485 0.369392
490 0.286398
495 0.330563
500 0.515223
505 0.37251
510 0.379044
515 0.351321
520 0.416557
525 0.306667
530 0.323939
535 0.394716
540 0.374371
545 0.357975
550 0.506739
555 0.630724
560 0.817693
565 9.24382
570 197.787
575 336.044
580 102.993
585 12.784
590 1.88454
595 0.547406
600 0.392327
Ex : 583
200 0.29809
205 0.250099
210 0.321922
215 0.282039
220 0.345698
225 0.332048
230 0.261257
235 0.304184
240 0.239194
245 0.254537
250 0.188479
255 0.141457
260 0.222163
265 0.351262
270 0.271515
275 0.242644
280 0.329971
285 0.178916
290 0.3184
295 0.195731
300 0.313261
305 0.389733
310 0.32931
315 0.389978
320 0.270901
325 0.307223
330 0.303322
335 0.326225
340 0.274744
345 0.229703
350 0.233452
355 0.35396
360 0.319964
365 0.298838
370 0.386635
375 0.273918
380 0.346772
385 0.267031
390 0.287128
395 0.255516
400 0.241936
405 0.445667
410 0.37399
415 0.330244
420 0.226526
425 0.276889
430 0.326603
435 0.316364
440 0.435844
445 0.376294
450 0.298579
455 0.363399
460 0.328664
465 0.353208
470 0.351792
475 0.379317
480 0.293342
485 0.31827
490 0.423459
495 0.284752
500 0.305444
505 0.305774
510 0.239293
515 0.296945
520 0.322648
525 0.410444
530 0.24434
535 0.408971
540 0.431318
545 0.403077
550 0.391975
555 0.460956
560 0.677939
565 0.666583
570 7.0129
575 163.123
580 267.224
585 80.2185
590 9.87356
595 1.56249
600 2.10846
Ex : 588
200 0.261682
205 0.289658
210 0.285646
215 0.298335
220 0.314834
225 0.295444
230 0.29137
235 0.290148
240 0.262192
245 0.335657
250 0.342716
255 0.267622
260 0.455563
265 0.31698
270 0.234662
275 0.263642
280 0.324984
285 0.378698
290 0.306743
295 0.266056
300 0.31308
305 0.237144
310 0.309927
315 0.214428
320 0.241085
325 0.27505
330 0.420072
335 0.24336
340 0.300878
345 0.301589
350 0.293873
355 0.169358
360 0.251314
365 0.337273
370 0.38769
375 0.208306
380 0.250734
385 0.407643
390 0.340485
395 0.320949
400 0.369498
405 0.274688
410 0.266165
415 0.311715
420 0.330136
425 0.409432
430 0.309441
435 0.304422
440 0.27888
445 0.361076
450 0.295464
455 0.327026
460 0.235784
465 0.318216
470 0.232095
475 0.35795
480 0.343313
485 0.273739
490 0.278185
495 0.314896
500 0.315663
505 0.27918
510 0.286541
515 0.540328
520 0.385317
525 0.334365
530 0.415003
535 0.291366
540 0.372784
545 0.341439
550 0.363075
555 0.326537
560 0.472827
565 0.438586
570 0.536779
575 5.18709
580 128.525
585 305.313
590 97.927
595 12.0983
600 2.39423
Ex : 593
200 0.246335
205 0.35546
210 0.255863
215 0.229056
220 0.32651
225 0.272274
230 0.286034
235 0.336668
240 0.214079
245 0.155239
250 0.271147
255 0.286961
260 0.316962
265 0.270372
270 0.257978
275 0.256874
280 0.20326
285 0.220046
290 0.299259
295 0.442291
300 0.346059
305 0.251984
310 0.357239
315 0.33369
320 0.360184
325 0.323162
330 0.305594
335 0.27814
340 0.293469
345 0.22822
350 0.22128
355 0.317413
360 0.270829
365 0.341097
370 0.312605
375 0.356949
380 0.378908
385 0.449007
390 0.277875
395 0.359887
400 0.348879
405 0.393497
410 0.252153
415 0.280761
420 0.414692
425 0.366486
430 0.26889
435 0.31406
440 0.341416
445 0.422187
450 0.290891
455 0.391679
460 0.308694
465 0.323858
470 0.274371
475 0.314256
480 0.299573
485 0.252111
490 0.26477
495 0.30828
500 0.273048
505 0.310908
510 0.416098
515 0.304837
520 0.36362
525 0.303745
530 0.287672
535 0.360693
540 0.389244
545 0.36317
550 0.397056
555 0.352362
560 0.448282
565 0.521457
570 0.554947
575 0.654609
580 5.53034
585 138.052
590 326.646
595 95.7753
600 13.5778
Ex : 598
200 0.32393
205 0.284889
210 0.241049
215 0.255939
220 0.324869
225 0.232792
230 0.249129
235 0.331431
240 0.381388
245 0.240087
250 0.260063
255 0.25893
260 0.328542
265 0.273938
270 0.273209
275 0.330102
280 0.249524
285 0.214487
290 0.379679
295 0.207713
300 0.308905
305 0.319751
310 0.32264
315 0.270979
320 0.404804
325 0.224373
330 0.274292
335 0.315523
340 0.276832
345 0.376357
350 0.302188
355 0.397733
360 0.337005
365 0.399846
370 0.336787
375 0.260951
380 0.274278
385 0.224875
390 0.27677
395 0.281847
400 0.346062
405 0.26584
410 0.311063
415 0.295153
420 0.307128
425 0.318611
430 0.485009
435 0.42121
440 0.326817
445 0.368211
450 0.311214
455 0.444617
460 0.282041
465 0.303284
470 0.381288
475 0.212369
480 0.241424
485 0.274882
490 0.294412
495 0.33463
500 0.396961
505 0.312979
510 0.487712
515 0.295024
520 0.391621
525 0.398496
530 0.354353
535 0.282425
540 0.233541
545 0.303322
550 0.336456
555 0.371345
560 0.363811
565 0.42265
570 0.372757
575 0.371825
580 0.440444
585 4.85766
590 101.721
595 194.035
600 132.229
Ex : 603
200 0.201919
205 0.305608
210 0.358349
215 0.356758
220 0.289028
225 0.373752
230 0.316067
235 0.340293
240 0.296061
245 0.27655
250 0.271125
255 0.313535
260 0.322214
265 0.212443
270 0.35281
275 0.215384
280 0.235137
285 0.246749
290 0.285474
295 0.331427
300 0.319112
305 0.324472
310 0.231892
315 0.275711
320 0.34501
325 0.215749
330 0.231577
335 0.330952
340 0.234176
345 0.33561
350 0.298892
355 0.286497
360 0.261098
365 0.283556
370 0.407442
375 0.25545
380 0.265747
385 0.431109
390 0.374149
395 0.292816
400 0.260174
405 0.377371
410 0.380485
415 0.366613
420 0.38805
425 0.319758
430 0.360051
435 0.417627
440 0.338231
445 0.413842
450 0.320622
455 0.286664
460 0.31343
465 0.268973
470 0.384733
475 0.374327
480 0.443456
485 0.243681
490 0.355531
495 0.356729
500 0.481651
505 0.324073
510 0.34072
515 0.249324
520 0.488375
525 0.256929
530 0.337732
535 0.319958
540 0.360893
545 0.314995
550 0.270876
555 0.276166
560 0.340709
565 0.304633
570 0.421285
575 0.397002
580 0.452342
585 0.640785
590 7.10087
595 132.57
600 212.424
