File format V 1.0
jeu. 12. mai 16:02:02 2016
Operator : 
Comments : 

=============================================
SpectroFluorometer parameters
Mode : 3D measurement
Data : Fluorescence
Phospho. : Ordinary
Spectrum : Fluorescence

Scan speed : 2400 nm/mn
Response : 100 ms
PM Voltage : 700 V
Shutter : On

Lambda Ex. Start : 203
Lambda Ex. End : 603
Lambda Ex. Step : 5
Ex. Slit : 5 nm

Lambda Em. Start : 200
Lambda Em. End : 600
Lambda Em. Step : 5
Em. Slit : 5 nm

Repetition : 1
Decal lambda em : 10
=============================================
DATA
Ex : 203
200 10.1124
205 7.42275
210 8.48491
215 7.2576
220 10.6726
225 10.5987
230 9.37436
235 10.8357
240 7.80301
245 8.63957
250 7.27878
255 8.68565
260 9.33038
265 11.5468
270 11.8248
275 12.461
280 11.0235
285 14.2202
290 11.5487
295 9.28041
300 12.8537
305 14.2229
310 15.7444
315 16.511
320 13.963
325 22.1262
330 17.3592
335 17.1417
340 16.9133
345 21.0097
350 21.0633
355 21.4215
360 23.6774
365 25.797
370 24.3948
375 22.8258
380 21.9117
385 24.0578
390 19.687
395 25.8083
400 26.3801
405 25.1873
410 23.5993
415 25.7596
420 29.501
425 28.2535
430 25.9207
435 24.2473
440 25.5069
445 27.347
450 31.9192
455 31.4558
460 26.5407
465 33.2711
470 34.8289
475 26.9357
480 27.4084
485 24.0285
490 29.4178
495 27.9612
500 21.8673
505 24.9795
510 20.376
515 18.5328
520 19.8032
525 25.2849
530 21.1092
535 25.1092
540 28.096
545 25.7979
550 23.5019
555 26.3188
560 23.4398
565 29.5364
570 23.0642
575 29.9643
580 22.7373
585 20.2517
590 19.9921
595 18.4885
600 4.76254
Ex : 208
200 8.97872
205 7.16715
210 10.164
215 9.09194
220 10.6118
225 10.902
230 13.5165
235 13.9234
240 9.56026
245 8.8619
250 13.5838
255 11.6842
260 9.01669
265 16.7538
270 11.5346
275 14.8007
280 13.1208
285 11.5332
290 11.3014
295 12.5472
300 15.1841
305 17.7353
310 17.4586
315 18.0724
320 17.3947
325 18.8322
330 21.1561
335 18.2151
340 22.6418
345 16.6541
350 18.7591
355 25.9821
360 21.0267
365 21.3177
370 25.1485
375 19.6611
380 23.2092
385 27.0899
390 26.3281
395 24.3085
400 29.3104
405 22.0544
410 27.9448
415 23.0803
420 25.2943
425 29.7267
430 33.4914
435 27.3255
440 29.6369
445 29.9261
450 29.245
455 30.1021
460 29.4495
465 24.8479
470 28.3277
475 23.9214
480 30.0912
485 24.0565
490 25.8151
495 23.6937
500 27.7544
505 22.8636
510 26.4592
515 22.0068
520 23.5296
525 22.4171
530 20.4426
535 19.4233
540 19.7928
545 27.9108
550 28.782
555 29.5047
560 24.4358
565 24.6669
570 27.1405
575 23.5459
580 19.1733
585 20.3382
590 19.7415
595 20.7543
600 7.67899
Ex : 213
200 9.17059
205 8.44056
210 10.3332
215 9.71313
220 10.5147
225 8.35728
230 9.0927
235 6.27529
240 9.65955
245 11.4142
250 9.18913
255 10.2724
260 9.69742
265 12.8298
270 11.2391
275 10.4739
280 13.7102
285 13.5978
290 11.5259
295 13.1555
300 15.9735
305 14.3443
310 12.829
315 15.3132
320 18.9688
325 16.2321
330 18.3236
335 18.873
340 19.4666
345 19.883
350 16.949
355 21.5286
360 17.7989
365 23.954
370 19.3578
375 22.2967
380 21.5611
385 24.8508
390 21.9343
395 24.272
400 25.7282
405 26.9027
410 24.6516
415 23.4554
420 24.2318
425 21.8879
430 24.6204
435 28.4015
440 26.5634
445 30.3056
450 32.1264
455 27.9609
460 32.1043
465 33.0795
470 30.8505
475 24.4398
480 29.5334
485 21.7027
490 24.837
495 23.0093
500 21.9454
505 24.1561
510 22.5858
515 19.2409
520 18.6192
525 23.0939
530 29.4123
535 25.5798
540 20.6302
545 24.8583
550 20.628
555 25.5679
560 31.5476
565 28.9238
570 22.428
575 24.8792
580 23.5415
585 24.8555
590 21.0377
595 21.534
600 23.7194
Ex : 218
200 12.3834
205 9.89809
210 11.034
215 18.7208
220 8.83382
225 9.12879
230 7.75294
235 10.7741
240 9.21682
245 11.7548
250 8.86287
255 6.52382
260 11.0922
265 12.8181
270 13.0971
275 10.7079
280 13.0774
285 13.3772
290 8.8425
295 14.968
300 13.1054
305 12.0294
310 15.6122
315 15.5965
320 17.6556
325 17.1984
330 15.2194
335 21.9887
340 21.8776
345 17.2827
350 15.2397
355 20.1166
360 25.0817
365 20.882
370 28.5069
375 25.6375
380 22.4972
385 24.0647
390 27.2102
395 31.6524
400 29.4936
405 30.6565
410 24.1857
415 26.484
420 25.6409
425 25.2884
430 24.3049
435 22.2977
440 20.237
445 26.6214
450 29.6356
455 32.6486
460 30.3327
465 27.4256
470 29.0662
475 29.6765
480 25.1828
485 26.2667
490 30.3209
495 26.2959
500 20.2016
505 27.0359
510 22.5585
515 27.2557
520 22.0504
525 18.2484
530 23.416
535 28.3597
540 21.6846
545 28.1325
550 24.9767
555 31.4777
560 28.3607
565 24.5617
570 26.5628
575 26.4913
580 27.1098
585 18.9234
590 16.4559
595 20.6825
600 20.9639
Ex : 223
200 5.95918
205 8.10972
210 7.09293
215 8.17789
220 8.39235
225 8.66174
230 8.90612
235 7.02935
240 11.1613
245 10.0868
250 8.2181
255 9.70814
260 9.82076
265 11.2183
270 12.5035
275 11.545
280 11.5833
285 11.4162
290 17.0108
295 13.7858
300 12.4085
305 14.2807
310 14.4773
315 16.2994
320 17.8312
325 15.0298
330 13.4424
335 16.8119
340 22.2434
345 18.9608
350 19.108
355 18.7374
360 23.6965
365 18.7891
370 25.9549
375 25.1905
380 23.4145
385 25.7397
390 25.8268
395 20.0194
400 22.0132
405 25.4541
410 21.7684
415 22.0996
420 24.0807
425 22.3549
430 28.1847
435 25.1152
440 27.3565
445 23.3672
450 30.6527
455 27.6662
460 32.6134
465 27.056
470 30.0374
475 26.3458
480 29.723
485 24.5011
490 27.7084
495 32.0866
500 22.4559
505 28.723
510 28.7045
515 23.987
520 25.3965
525 24.1541
530 22.7759
535 23.6493
540 24.4759
545 28.2636
550 27.6234
555 29.8093
560 25.71
565 24.617
570 25.8903
575 22.7187
580 28.1032
585 21.536
590 19.356
595 21.4328
600 19.0996
Ex : 228
200 11.1232
205 10.059
210 12.7052
215 9.16645
220 8.62654
225 11.4522
230 12.9111
235 11.2354
240 7.94679
245 11.1291
250 7.24604
255 6.65125
260 8.61424
265 11.6328
270 9.29501
275 9.93327
280 14.1048
285 14.1726
290 15.7394
295 15.1837
300 12.9156
305 15.649
310 15.8661
315 16.7395
320 21.4014
325 21.6877
330 25.4184
335 23.5979
340 23.4675
345 20.0623
350 22.1658
355 23.5864
360 23.2245
365 20.7126
370 22.404
375 18.5796
380 21.48
385 24.7542
390 22.7543
395 27.1178
400 27.7155
405 25.3363
410 23.1075
415 26.6461
420 18.4576
425 20.4354
430 20.5169
435 22.2907
440 24.878
445 26.9121
450 46.1727
455 91.2757
460 91.4768
465 46.4321
470 26.9874
475 24.1217
480 24.1565
485 24.886
490 23.611
495 20.9141
500 23.317
505 18.9707
510 22.7293
515 24.3183
520 22.5432
525 25.7895
530 21.8376
535 21.2825
540 21.1606
545 26.6796
550 23.7804
555 24.9986
560 21.1967
565 23.5562
570 24.8235
575 22.6066
580 22.1568
585 18.7105
590 20.4277
595 22.1148
600 32.9429
Ex : 233
200 8.3319
205 6.78486
210 9.19506
215 7.21126
220 8.65673
225 21.2834
230 34.3213
235 14.5732
240 11.1769
245 9.38406
250 7.22137
255 7.62552
260 8.27508
265 7.77232
270 9.19829
275 10.7345
280 11.7423
285 11.5711
290 11.077
295 16.3136
300 14.3865
305 13.0649
310 13.5608
315 21.3323
320 15.0882
325 19.7044
330 21.537
335 22.2505
340 23.1152
345 21.5442
350 21.1528
355 23.9192
360 20.3188
365 20.8981
370 21.664
375 22.908
380 21.4289
385 24.1155
390 17.0041
395 20.2594
400 22.6327
405 22.7367
410 25.5896
415 21.2809
420 18.3925
425 23.6406
430 22.7309
435 18.1226
440 22.7039
445 24.7546
450 27.946
455 58.4334
460 210.87
465 300.289
470 208.403
475 62.4782
480 28.8727
485 23.5536
490 26.5993
495 22.2334
500 23.6862
505 24.6513
510 19.0838
515 22.4546
520 21.6203
525 21.7819
530 22.9352
535 22.3567
540 18.9109
545 24.0695
550 23.8648
555 21.8609
560 24.6467
565 23.6137
570 21.3207
575 21.0591
580 25.6403
585 19.9296
590 20.0802
595 16.253
600 4.65584
Ex : 238
200 6.72222
205 9.19918
210 5.75859
215 5.64366
220 6.49871
225 10.754
230 45.0118
235 72.0457
240 24.3691
245 13.4696
250 7.38742
255 7.07586
260 8.18115
265 8.3136
270 10.436
275 15.2044
280 10.0874
285 10.8743
290 13.7645
295 10.9783
300 11.0217
305 12.9406
310 13.9715
315 16.3057
320 16.0171
325 17.251
330 17.0286
335 18.2778
340 19.5807
345 22.0119
350 19.3703
355 19.3472
360 22.6254
365 17.6678
370 20.1225
375 19.406
380 23.1602
385 23.025
390 23.2137
395 20.6141
400 24.2608
405 20.9645
410 19.1411
415 18.1687
420 17.8522
425 18.6802
430 17.8283
435 19.072
440 21.6035
445 21.1187
450 21.8085
455 22.3271
460 33.9377
465 171.056
470 421.263
475 510.015
480 308.026
485 75.2955
490 26.7603
495 21.2825
500 20.5891
505 20.6249
510 25.779
515 27.7339
520 25.018
525 20.8805
530 23.3979
535 24.0675
540 22.4559
545 21.3943
550 25.7472
555 25.4056
560 24.1563
565 28.1614
570 20.1989
575 26.0481
580 22.8374
585 19.3869
590 21.4836
595 14.7039
600 24.7145
Ex : 243
200 6.14737
205 5.50506
210 4.31246
215 10.0232
220 7.24908
225 4.82019
230 7.71521
235 68.4725
240 95.8676
245 27.0863
250 10.845
255 6.66503
260 7.68566
265 10.9116
270 7.63259
275 10.5781
280 11.4806
285 10.7885
290 8.09502
295 8.53157
300 12.531
305 10.533
310 11.8007
315 13.0893
320 13.4386
325 11.8271
330 15.6315
335 15.2737
340 19.5896
345 16.3366
350 19.9382
355 19.281
360 20.1697
365 19.1922
370 17.4255
375 21.5399
380 20.1028
385 16.7709
390 17.1494
395 19.517
400 18.6012
405 16.7029
410 22.1185
415 19.1746
420 18.4798
425 15.919
430 19.0895
435 16.7518
440 14.0458
445 17.311
450 19.5608
455 19.4969
460 21.4091
465 21.6531
470 46.2975
475 267.557
480 555.044
485 581.34
490 325.987
495 74.8195
500 25.6348
505 18.8013
510 20.6401
515 23.6302
520 27.5844
525 26.8565
530 22.1168
535 20.0993
540 21.8499
545 23.9122
550 25.7185
555 24.4738
560 23.6811
565 20.9048
570 19.0661
575 22.6267
580 19.9592
585 20.3756
590 19.2931
595 15.3858
600 17.2594
Ex : 248
200 3.39362
205 3.79665
210 5.27369
215 5.56047
220 4.24593
225 5.74164
230 3.83622
235 10.3682
240 82.2985
245 104.45
250 25.5282
255 8.42559
260 7.80379
265 11.4314
270 9.70485
275 9.16953
280 7.27828
285 9.02199
290 9.4688
295 8.67634
300 11.0655
305 11.6065
310 13.5596
315 14.047
320 12.4347
325 11.2964
330 15.0531
335 15.6532
340 19.5327
345 16.6206
350 17.9895
355 16.6546
360 16.8764
365 16.5093
370 19.0531
375 15.8578
380 14.5252
385 14.4884
390 17.3129
395 17.1123
400 19.7564
405 15.9291
410 16.5742
415 16.8369
420 15.1759
425 11.2989
430 13.9372
435 13.4631
440 13.9272
445 14.8386
450 13.5711
455 16.8188
460 17.2402
465 19.3573
470 18.0653
475 17.8046
480 62.9698
485 321.896
490 623.657
495 592.953
500 300.346
505 58.8553
510 24.6534
515 22.112
520 17.0712
525 23.1581
530 25.1678
535 29.1272
540 25.053
545 22.8664
550 21.9312
555 21.1497
560 17.225
565 20.5989
570 20.1729
575 17.606
580 18.3868
585 13.6839
590 12.2224
595 17.3524
600 30.1116
Ex : 253
200 4.99786
205 3.88632
210 3.15613
215 4.71467
220 3.8825
225 4.54003
230 3.99063
235 3.17359
240 10.0285
245 83.3393
250 138.054
255 44.5361
260 10.8444
265 7.15772
270 7.37737
275 8.09319
280 9.22169
285 8.54064
290 7.51427
295 11.3858
300 9.97891
305 11.1452
310 11.3351
315 11.3105
320 12.2522
325 12.1783
330 13.6882
335 10.5207
340 11.7703
345 13.9384
350 14.3002
355 14.0957
360 16.1302
365 14.4677
370 15.1754
375 13.7746
380 13.0448
385 13.8363
390 13.5086
395 17.386
400 13.3364
405 14.3304
410 14.8395
415 14.1249
420 13.2997
425 10.63
430 14.6261
435 11.8026
440 11.8887
445 12.2441
450 10.5546
455 12.4244
460 11.9967
465 14.4132
470 13.4294
475 14.7742
480 13.9862
485 13.2621
490 58.3356
495 305.708
500 609.226
505 676.633
510 473.515
515 108.757
520 34.2993
525 22.0647
530 18.7922
535 20.9099
540 24.8937
545 25.1476
550 26.84
555 24.4095
560 20.239
565 18.9836
570 17.9162
575 19.2145
580 15.8397
585 16.7206
590 14.2866
595 14.6554
600 8.66874
Ex : 258
200 2.34138
205 3.48686
210 1.83578
215 2.8273
220 3.35909
225 2.93895
230 3.20104
235 3.14698
240 3.67666
245 9.89099
250 188.9
255 385.678
260 122.918
265 21.0534
270 9.79582
275 10.6545
280 10.0848
285 7.71646
290 8.67028
295 10.2736
300 9.23326
305 11.0071
310 10.0509
315 10.9471
320 11.0522
325 13.6922
330 11.5396
335 16.4098
340 14.6324
345 16.425
350 14.3572
355 13.2382
360 13.4203
365 12.9337
370 12.0448
375 11.3231
380 11.1479
385 12.352
390 14.1708
395 12.0663
400 11.1023
405 12.4748
410 10.0422
415 12.9146
420 11.02
425 10.265
430 11.2531
435 11.2297
440 12.4119
445 11.2244
450 10.4718
455 13.4823
460 13.3068
465 12.042
470 12.9906
475 13.3424
480 12.5959
485 12.0532
490 12.0366
495 13.986
500 65.1655
505 572.356
510 2109.19
515 2690.3
520 1301.64
525 232.972
530 53.299
535 29.0178
540 23.9832
545 24.8785
550 27.7423
555 31.1637
560 30.7607
565 28.2261
570 22.9609
575 20.5487
580 18.3909
585 16.3928
590 16.4021
595 17.2274
600 15.752
Ex : 263
200 2.61947
205 2.10194
210 2.06183
215 3.26193
220 3.11754
225 3.03235
230 2.5204
235 2.2455
240 4.19434
245 3.16266
250 26.7078
255 454.498
260 914.98
265 237.248
270 35.0524
275 12.4498
280 13.011
285 13.5887
290 10.8291
295 10.1145
300 11.3423
305 11.8846
310 11.2346
315 12.6
320 12.77
325 13.83
330 13.0729
335 13.3007
340 14.81
345 13.4182
350 13.453
355 12.4009
360 14.2231
365 12.7358
370 11.0913
375 10.2131
380 10.502
385 10.4352
390 10.6478
395 10.7161
400 11.2121
405 9.96574
410 11.2962
415 11.7959
420 11.0638
425 10.7029
430 8.76768
435 10.9189
440 10.6164
445 10.2326
450 10.5098
455 9.9228
460 11.0305
465 12.435
470 11.1474
475 10.9863
480 11.2616
485 13.0451
490 11.819
495 11.8793
500 12.72
505 16.1148
510 183.492
515 1535.45
520 3983.41
525 4468.68
530 2033.73
535 346.91
540 70.3511
545 34.754
550 27.2792
555 26.1721
560 30.3592
565 33.3686
570 35.4073
575 32.5564
580 25.8145
585 19.468
590 18.2116
595 18.244
600 32.7556
Ex : 268
200 1.86062
205 2.21126
210 2.36636
215 2.34869
220 2.41083
225 2.31916
230 3.12073
235 2.9077
240 2.67636
245 2.92591
250 4.19143
255 42.0885
260 774.494
265 1516.58
270 430.928
275 60.755
280 17.503
285 14.9341
290 15.7121
295 14.1462
300 12.5491
305 12.393
310 11.5272
315 13.5084
320 12.4182
325 13.6871
330 14.3182
335 12.9877
340 12.8706
345 13.666
350 12.5267
355 12.6748
360 12.0134
365 12.5585
370 10.7342
375 11.7055
380 10.7937
385 10.1623
390 9.382
395 9.27718
400 10.0712
405 10.1134
410 9.32353
415 10.2363
420 9.91547
425 9.93907
430 9.01138
435 9.1995
440 8.87573
445 8.6124
450 8.84137
455 10.0129
460 10.672
465 11.0591
470 11.0355
475 10.7136
480 8.94079
485 10.545
490 10.4293
495 11.3795
500 10.7275
505 11.8604
510 12.8458
515 18.9498
520 318.13
525 2516.94
530 6884.24
535 7263.57
540 3118.02
545 517.632
550 92.2643
555 39.9729
560 30.5482
565 27.246
570 26.4447
575 32.5549
580 34.0078
585 32.0082
590 27.8364
595 23.0424
600 17.9573
Ex : 273
200 2.16706
205 2.00158
210 1.92414
215 2.08937
220 2.23781
225 1.9971
230 2.22524
235 2.44008
240 2.42651
245 2.38473
250 2.88588
255 4.10954
260 67.5204
265 1312.16
270 2287.51
275 614.334
280 83.1233
285 20.181
290 16.5949
295 18.1411
300 15.7939
305 13.8949
310 13.4283
315 13.2233
320 14.1164
325 15.2773
330 14.0546
335 14.0607
340 14.6239
345 13.5125
350 13.5234
355 11.3973
360 11.134
365 10.2476
370 10.6155
375 10.4621
380 10.006
385 9.23092
390 8.8335
395 9.11957
400 8.80313
405 10.1081
410 7.83196
415 9.07855
420 8.69461
425 8.30983
430 9.09438
435 8.10518
440 9.49591
445 9.32636
450 7.96791
455 9.50095
460 8.37981
465 9.16834
470 8.42812
475 9.51945
480 9.68537
485 9.99597
490 8.86666
495 9.70376
500 11.0645
505 10.9843
510 13.1518
515 12.6017
520 16.0311
525 26.0301
530 561.985
535 4046.28
540 9597.67
545 9454.31
550 3983.95
555 632.813
560 110.465
565 44.2601
570 31.8434
575 28.3712
580 28.4407
585 29.7535
590 33.5838
595 30.6683
600 21.1872
Ex : 278
200 2.04723
205 2.36176
210 2.11693
215 1.98409
220 2.41919
225 2.22153
230 2.35343
235 2.15914
240 2.59744
245 3.27917
250 3.42665
255 3.78362
260 6.24278
265 99.9761
270 1880.41
275 3304.01
280 804.572
285 107.304
290 24.5454
295 15.8142
300 18.8682
305 17.8832
310 14.5416
315 13.9478
320 13.8026
325 14.4785
330 13.0314
335 14.581
340 14.7432
345 13.5473
350 11.5642
355 11.4293
360 10.7472
365 10.1734
370 9.44584
375 8.11214
380 8.72397
385 8.74074
390 8.50431
395 8.34659
400 8.54825
405 8.78783
410 8.44042
415 6.88768
420 7.22917
425 7.9822
430 8.9402
435 8.27259
440 8.26618
445 8.20517
450 7.9102
455 9.06419
460 8.63983
465 8.80829
470 8.26877
475 8.62252
480 8.80755
485 8.39717
490 8.30723
495 8.61611
500 8.93226
505 9.71858
510 9.98259
515 10.4503
520 11.6953
525 13.3643
530 17.7565
535 32.832
540 792.828
545 5557.3
550 9999.9
555 9999.9
560 4338.99
565 693.145
570 119.602
575 44.7204
580 31.4123
585 26.2561
590 25.6296
595 28.0676
600 29.0984
Ex : 283
200 1.92883
205 2.03847
210 2.36923
215 1.89923
220 1.96298
225 1.89789
230 2.49329
235 2.01624
240 2.35983
245 3.29069
250 3.11199
255 3.77738
260 4.92622
265 5.98121
270 129.325
275 2423.51
280 3885.08
285 953.911
290 124.897
295 26.4317
300 15.9384
305 16.9907
310 17.8856
315 13.7172
320 13.1072
325 13.5998
330 13.0725
335 12.9913
340 12.5215
345 11.4477
350 11.5777
355 10.7425
360 10.152
365 9.10082
370 9.71662
375 9.40266
380 8.94869
385 8.83273
390 8.41344
395 8.21565
400 7.77013
405 7.34768
410 8.30424
415 7.76464
420 6.53897
425 7.49436
430 7.26981
435 7.19068
440 7.36021
445 7.53636
450 7.68789
455 7.42307
460 7.65074
465 7.87089
470 7.46669
475 7.70526
480 6.76013
485 7.39182
490 7.95965
495 7.9525
500 7.78837
505 7.7954
510 8.67053
515 10.3586
520 9.69315
525 9.88761
530 12.4233
535 15.5026
540 21.7326
545 37.6474
550 981.784
555 6260.17
560 9999.9
565 9999.9
570 4329.37
575 673.866
580 111.912
585 39.6627
590 28.048
595 23.5072
600 21.673
Ex : 288
200 1.4945
205 1.7714
210 1.8684
215 1.86109
220 2.1691
225 1.91542
230 2.51195
235 2.32483
240 2.01133
245 2.47472
250 2.46559
255 2.67015
260 3.06202
265 4.14861
270 7.41521
275 145.522
280 2781.33
285 4483.49
290 1091.87
295 140.784
300 27.3929
305 15.0212
310 16.4508
315 17.8135
320 14.1474
325 12.0302
330 11.5684
335 11.7101
340 11.9623
345 11.5606
350 11.4834
355 10.1972
360 9.44904
365 9.17943
370 9.01608
375 8.18303
380 8.43225
385 8.02573
390 7.1981
395 7.55996
400 8.07308
405 7.84744
410 7.64517
415 7.15278
420 6.36653
425 6.73933
430 7.0526
435 6.61448
440 7.25894
445 7.34773
450 7.66963
455 7.13531
460 7.26804
465 7.12932
470 6.93735
475 6.9552
480 7.6528
485 7.15947
490 6.76797
495 7.2359
500 6.46021
505 6.566
510 7.37823
515 7.55329
520 7.19853
525 8.16921
530 9.20616
535 10.4714
540 12.8133
545 15.8597
550 22.2459
555 39.1126
560 1055.61
565 6437.38
570 9999.9
575 9999.9
580 4221.82
585 632.537
590 103.753
595 36.6689
600 31.9733
Ex : 293
200 1.52877
205 1.72711
210 1.34924
215 1.58647
220 2.10075
225 1.51917
230 1.66331
235 1.80623
240 2.10728
245 2.32825
250 2.24971
255 2.13083
260 2.8496
265 3.2459
270 4.67298
275 7.78722
280 188.134
285 3180.49
290 4784.43
295 1148.43
300 148.042
305 28.1945
310 14.2888
315 15.9257
320 17.5531
325 14.574
330 11.2597
335 10.3215
340 10.1254
345 10.7578
350 10.2797
355 9.19317
360 8.86912
365 9.07991
370 8.35697
375 7.49698
380 7.29907
385 7.77456
390 8.06249
395 7.19574
400 7.48614
405 7.18332
410 7.18973
415 7.00037
420 6.07383
425 6.05049
430 6.47615
435 6.24726
440 6.38113
445 6.44312
450 6.27685
455 5.65713
460 6.23208
465 6.10048
470 6.61902
475 5.81499
480 5.84692
485 5.93462
490 6.30921
495 6.20961
500 6.12631
505 6.12632
510 6.33011
515 6.87262
520 6.65678
525 7.03471
530 7.46133
535 8.47862
540 9.6339
545 10.6516
550 13.1988
555 16.5832
560 22.4857
565 43.2116
570 1221.52
575 7034.42
580 9999.9
585 9999.9
590 3651.73
595 527.772
600 92.5849
Ex : 298
200 1.38794
205 1.38183
210 1.55901
215 1.42726
220 1.48533
225 1.60505
230 1.51403
235 1.42311
240 1.65219
245 2.1187
250 1.71225
255 2.17185
260 2.21902
265 2.76003
270 3.54555
275 5.07199
280 8.59576
285 206.447
290 3499.63
295 5160.27
300 1247.49
305 159.202
310 29.7606
315 14.2017
320 15.2722
325 16.6843
330 13.4985
335 11.313
340 9.66218
345 9.02587
350 8.77636
355 8.36613
360 7.61781
365 8.22054
370 6.78565
375 6.47264
380 6.8929
385 6.82525
390 6.61614
395 6.49579
400 6.59959
405 6.76723
410 6.25952
415 6.14493
420 6.13399
425 6.37448
430 5.66917
435 5.50478
440 5.3278
445 5.81403
450 6.0119
455 5.8459
460 6.04778
465 6.11734
470 6.60522
475 5.64413
480 5.34996
485 5.63102
490 5.21897
495 5.37282
500 5.2161
505 5.24607
510 5.53954
515 6.0293
520 5.89531
525 6.05659
530 6.43271
535 7.28262
540 7.34427
545 8.07298
550 9.85314
555 11.1299
560 13.4495
565 16.1865
570 22.6708
575 46.8634
580 1350.74
585 7202.48
590 9999.9
595 9722.8
600 5982.96
Ex : 303
200 1.31225
205 1.5261
210 1.45171
215 1.27562
220 1.32719
225 1.58923
230 1.50719
235 1.48724
240 1.6421
245 1.63836
250 1.60539
255 1.73927
260 2.10012
265 2.00355
270 2.69567
275 3.83346
280 5.43867
285 8.90347
290 216.68
295 3744.98
300 5607.14
305 1345.82
310 171.547
315 32.4554
320 13.8966
325 13.5606
330 16.3913
335 14.2081
340 10.3304
345 8.30187
350 8.48344
355 7.27553
360 7.4066
365 6.9987
370 6.42284
375 6.19471
380 6.17379
385 6.34661
390 6.51008
395 6.56354
400 6.20904
405 6.50761
410 6.28692
415 6.03824
420 6.01251
425 5.52976
430 5.49622
435 5.38026
440 5.35694
445 5.71763
450 5.16395
455 5.22845
460 5.93337
465 5.36356
470 5.63166
475 5.19395
480 5.50596
485 4.55341
490 5.44434
495 4.96684
500 4.55236
505 5.02951
510 5.07125
515 5.23971
520 5.34137
525 5.30196
530 6.03353
535 5.61983
540 6.04401
545 6.21719
550 6.64404
555 7.62834
560 8.58604
565 10.5956
570 12.3141
575 15.9345
580 21.1006
585 48.6959
590 1463.54
595 7199.3
600 9999.9
Ex : 308
200 1.28363
205 1.57812
210 1.50912
215 1.44366
220 1.34259
225 1.25397
230 1.4379
235 1.36651
240 1.48057
245 1.46319
250 1.53191
255 1.75049
260 1.91759
265 1.96566
270 2.63664
275 3.04867
280 3.72143
285 5.2693
290 8.92216
295 262.134
300 4151.96
305 6107.57
310 1449.39
315 183.382
320 33.6089
325 14.1145
330 13.0331
335 15.1064
340 14.4848
345 10.1226
350 8.14183
355 7.22379
360 6.5022
365 6.3917
370 6.28383
375 6.30233
380 6.0326
385 6.11049
390 6.13991
395 6.09836
400 5.80532
405 5.48046
410 5.86418
415 5.69948
420 5.52952
425 5.65284
430 5.17316
435 5.50342
440 4.78435
445 4.59359
450 5.06208
455 4.99003
460 5.14142
465 4.75388
470 5.01103
475 4.58888
480 4.26265
485 4.43416
490 4.70967
495 4.36909
500 4.72575
505 4.14357
510 4.45819
515 4.10907
520 4.59883
525 4.41035
530 4.78138
535 4.86245
540 4.99173
545 5.29059
550 5.69046
555 6.52349
560 6.89135
565 7.78372
570 8.65404
575 9.51814
580 11.9447
585 14.8206
590 20.191
595 57.1985
600 211.268
Ex : 313
200 0.984403
205 1.21854
210 1.20996
215 1.43182
220 1.23301
225 1.22606
230 1.155
235 1.39599
240 1.52072
245 1.417
250 1.45011
255 1.48213
260 1.86865
265 1.88674
270 2.11127
275 2.75975
280 3.18119
285 4.11855
290 6.10346
295 10.2127
300 274.646
305 4657.17
310 6750.67
315 1590.22
320 199.89
325 35.712
330 14.1485
335 12.3345
340 14.9056
345 14.5717
350 10.7022
355 7.46576
360 6.477
365 6.56312
370 6.34796
375 5.66366
380 5.39916
385 5.52013
390 5.45866
395 5.64957
400 5.18437
405 5.34878
410 5.19442
415 4.89798
420 5.13503
425 4.71515
430 5.08697
435 4.97417
440 4.92035
445 4.83479
450 4.52436
455 4.48668
460 4.63815
465 4.70315
470 4.52777
475 4.18454
480 4.52486
485 4.31904
490 4.49311
495 4.23793
500 4.37755
505 4.12246
510 3.76225
515 3.96501
520 4.09238
525 3.69635
530 3.79054
535 4.21382
540 4.60851
545 4.67896
550 4.36435
555 4.86866
560 5.51988
565 5.56176
570 6.68318
575 7.2225
580 8.0448
585 9.73939
590 11.623
595 14.9737
600 18.9357
Ex : 318
200 1.12168
205 1.09701
210 1.12116
215 1.20825
220 1.28321
225 1.1791
230 1.27017
235 1.41988
240 1.3833
245 1.47063
250 1.57693
255 1.55789
260 1.82118
265 1.99007
270 1.98557
275 2.33084
280 2.75934
285 3.20283
290 4.40967
295 5.9561
300 10.4787
305 349.928
310 5352.11
315 7575.61
320 1747.34
325 218.887
330 37.8027
335 14.335
340 11.1933
345 13.7971
350 14.2928
355 11.0017
360 7.47483
365 6.23946
370 6.04792
375 6.16992
380 5.87184
385 5.851
390 5.45296
395 5.57869
400 5.21003
405 4.96945
410 5.17516
415 4.89081
420 4.84997
425 4.70389
430 4.72737
435 4.58594
440 4.68919
445 4.65991
450 4.607
455 4.68242
460 4.21836
465 4.74081
470 4.51432
475 4.40465
480 4.09327
485 4.04186
490 3.94228
495 4.05902
500 3.82193
505 3.99929
510 3.9196
515 3.82344
520 3.98311
525 3.84272
530 3.4107
535 4.09077
540 4.25454
545 4.2093
550 4.50267
555 4.24166
560 4.69521
565 5.02356
570 5.44329
575 5.86847
580 6.05084
585 7.06955
590 7.94776
595 9.25834
600 12.4289
Ex : 323
200 1.22804
205 0.965937
210 1.23222
215 1.34865
220 1.23435
225 1.13423
230 1.25064
235 1.16964
240 1.42099
245 1.48079
250 1.36427
255 1.56917
260 1.37578
265 1.50773
270 1.75893
275 1.91952
280 2.46571
285 2.86582
290 3.67208
295 4.69531
300 6.6669
305 11.2347
310 364.9
315 5778.85
320 8513.33
325 2037.64
330 252.697
335 42.4749
340 14.7998
345 11.2109
350 12.6203
355 13.5636
360 11.9885
365 7.96129
370 6.36742
375 5.64019
380 5.6705
385 5.69954
390 5.65354
395 5.47223
400 5.2153
405 4.869
410 4.85068
415 4.25071
420 4.98742
425 4.55218
430 4.45492
435 4.27807
440 4.40983
445 4.36385
450 4.44698
455 4.58252
460 4.62461
465 4.38771
470 4.53574
475 3.978
480 4.38879
485 3.99446
490 4.21379
495 3.93887
500 3.89147
505 4.04326
510 3.73311
515 3.66449
520 3.96827
525 3.48089
530 3.7218
535 3.79259
540 3.74798
545 3.87901
550 4.02154
555 3.93732
560 4.30886
565 4.29984
570 4.61411
575 4.53861
580 5.03693
585 5.26013
590 6.09625
595 6.56822
600 6.98393
Ex : 328
200 0.918294
205 1.05769
210 1.16673
215 1.19292
220 1.11394
225 1.18989
230 1.26162
235 1.19099
240 1.53916
245 1.221
250 1.26447
255 1.40252
260 1.49532
265 1.59853
270 1.61945
275 1.97044
280 2.10522
285 2.49253
290 2.94781
295 3.36216
300 4.86915
305 7.22616
310 11.6872
315 384.537
320 6299.33
325 9115.6
330 2126.97
335 263.528
340 43.9271
345 15.6898
350 10.4121
355 11.8782
360 13.141
365 11.9169
370 8.37601
375 6.46606
380 5.9454
385 5.501
390 5.5923
395 5.47987
400 5.13821
405 4.99385
410 4.53008
415 4.90134
420 4.54516
425 4.42166
430 4.32738
435 4.36485
440 4.38689
445 4.43213
450 4.4642
455 4.34026
460 4.1652
465 4.23795
470 4.2455
475 4.02309
480 3.92929
485 3.95591
490 3.80831
495 3.8465
500 3.94788
505 3.49065
510 3.52208
515 3.38258
520 3.75787
525 3.33289
530 3.83031
535 3.59206
540 3.57561
545 3.32778
550 3.27985
555 3.61092
560 3.61236
565 3.7844
570 3.74882
575 3.92224
580 4.35892
585 4.62734
590 4.49013
595 4.82354
600 4.42986
Ex : 333
200 0.976581
205 1.08889
210 1.10423
215 1.14521
220 1.15596
225 1.23331
230 1.23184
235 1.21969
240 1.19555
245 1.36933
250 1.36666
255 1.39347
260 1.41732
265 1.44986
270 1.6082
275 1.54836
280 2.01517
285 2.42
290 2.48347
295 3.09548
300 3.72055
305 4.77401
310 7.03913
315 12.7029
320 458.054
325 6823.91
330 9646.7
335 2262.06
340 278.859
345 45.7419
350 15.2645
355 9.87938
360 10.3407
365 12.8608
370 12.3392
375 9.29343
380 6.45642
385 6.01376
390 5.73279
395 5.50355
400 5.41345
405 5.37569
410 5.05454
415 4.93025
420 4.48231
425 4.42256
430 4.57288
435 4.35117
440 4.57241
445 4.4423
450 4.38816
455 4.22616
460 4.28235
465 4.30745
470 4.18098
475 4.11246
480 4.0339
485 3.75275
490 3.5469
495 3.70946
500 3.49674
505 3.75184
510 3.61431
515 3.213
520 3.57254
525 3.31816
530 3.20953
535 3.39085
540 3.47803
545 3.26157
550 3.12971
555 3.24932
560 3.32382
565 3.49032
570 3.63353
575 3.34831
580 3.59818
585 3.67968
590 3.86055
595 4.09881
600 3.59354
Ex : 338
200 0.953587
205 0.904525
210 1.00427
215 1.0279
220 1.05562
225 0.945334
230 1.16602
235 1.04894
240 0.948698
245 1.27534
250 1.04803
255 1.21627
260 1.36337
265 1.56781
270 1.53512
275 1.6607
280 1.78146
285 1.81446
290 2.22054
295 2.51579
300 2.9371
305 3.5142
310 4.98738
315 7.80884
320 13.1945
325 491.607
330 7233.27
335 9999.9
340 2337.45
345 287.261
350 46.3605
355 14.7827
360 9.34642
365 9.24489
370 11.6727
375 11.9794
380 9.77995
385 7.05312
390 5.90504
395 5.56995
400 5.22292
405 5.12556
410 4.55065
415 4.62796
420 4.72443
425 4.2983
430 4.47241
435 4.32971
440 4.25039
445 4.33883
450 4.0594
455 4.19381
460 4.36129
465 4.17364
470 4.08576
475 3.83269
480 4.12724
485 3.61105
490 3.65949
495 3.64794
500 3.68296
505 3.41695
510 3.24153
515 3.36047
520 3.17913
525 3.06033
530 3.06929
535 3.26088
540 3.02627
545 2.75059
550 3.17461
555 3.19738
560 3.10916
565 3.2373
570 3.04347
575 3.03028
580 3.08964
585 3.03109
590 3.19248
595 3.17668
600 3.31382
Ex : 343
200 0.94783
205 0.932049
210 1.09143
215 0.94082
220 0.907029
225 0.858081
230 0.908301
235 0.858313
240 1.01076
245 1.11791
250 1.21081
255 1.18074
260 1.28181
265 1.2104
270 1.33785
275 1.65215
280 1.59294
285 1.71703
290 1.87008
295 2.10414
300 2.62352
305 3.34967
310 4.02764
315 5.20804
320 7.74578
325 13.8473
330 483.77
335 7448.75
340 9999.9
345 2395.96
350 294.193
355 46.587
360 14.4165
365 9.50428
370 8.79979
375 10.2255
380 11.5962
385 10.2936
390 7.34485
395 5.57929
400 5.11379
405 4.88616
410 4.87487
415 4.76319
420 4.54677
425 4.45903
430 4.28033
435 4.24241
440 4.1634
445 4.24327
450 4.15733
455 3.93061
460 4.07783
465 4.05725
470 3.88962
475 3.74926
480 3.88796
485 3.66419
490 3.45958
495 3.36584
500 3.19955
505 2.98665
510 2.97509
515 3.14641
520 3.08289
525 3.09408
530 3.06207
535 2.88603
540 2.90046
545 2.87834
550 2.70896
555 2.82405
560 2.89557
565 2.70925
570 2.80659
575 2.61751
580 2.71385
585 2.69555
590 3.05581
595 2.89199
600 4.07031
Ex : 348
200 0.772965
205 0.717343
210 0.921574
215 0.855911
220 0.833184
225 0.871718
230 0.877321
235 0.967911
240 1.16619
245 0.94717
250 1.07943
255 1.07426
260 1.05092
265 1.19541
270 1.17431
275 1.23884
280 1.43303
285 1.64368
290 1.8102
295 2.09765
300 2.01764
305 2.65633
310 3.16675
315 3.96555
320 5.14053
325 7.69072
330 13.2388
335 461.972
340 7426.13
345 9999.9
350 2673.93
355 326.779
360 50.6256
365 15.0448
370 9.14681
375 7.97522
380 9.25996
385 11.3388
390 10.8307
395 8.16078
400 5.91726
405 5.37867
410 4.99402
415 4.66527
420 4.6593
425 4.2669
430 4.44484
435 4.22329
440 4.19929
445 3.96963
450 4.26065
455 3.9378
460 3.83302
465 3.87389
470 3.81372
475 3.82591
480 3.63515
485 3.65582
490 3.71016
495 3.38987
500 3.42182
505 3.03775
510 2.9438
515 2.86246
520 2.93644
525 2.81635
530 2.69956
535 2.74252
540 2.78689
545 2.68236
550 2.78433
555 2.63378
560 2.48142
565 2.39097
570 2.48137
575 2.51047
580 2.28647
585 2.24383
590 2.30921
595 2.46642
600 2.38757
Ex : 353
200 0.723487
205 0.789269
210 0.734882
215 0.847432
220 0.897402
225 0.801522
230 0.90941
235 0.921111
240 0.894126
245 0.914398
250 1.00344
255 0.972327
260 1.10177
265 1.06982
270 1.16697
275 1.20363
280 1.3262
285 1.22035
290 1.67392
295 1.69629
300 1.88621
305 2.21726
310 2.52892
315 3.18102
320 4.03124
325 5.53488
330 7.98096
335 14.2098
340 499.266
345 8021.24
350 9999.9
355 2602.47
360 318.161
365 49.8088
370 15.2421
375 9.64767
380 8.06981
385 8.47816
390 10.7293
395 10.8766
400 8.90886
405 6.36814
410 5.15868
415 4.87504
420 4.93329
425 4.82335
430 4.41774
435 4.27339
440 4.18948
445 4.1837
450 4.21106
455 3.97477
460 4.13439
465 3.88236
470 3.88053
475 3.54162
480 3.48834
485 3.54985
490 3.26002
495 3.25295
500 3.02395
505 2.9771
510 2.93478
515 2.73278
520 2.73875
525 2.72249
530 2.60894
535 2.60602
540 2.48523
545 2.68282
550 2.59512
555 2.44804
560 2.34931
565 2.44165
570 2.33018
575 2.23729
580 2.22095
585 2.17302
590 2.18011
595 2.18763
600 2.00938
Ex : 358
200 0.85986
205 0.712576
210 0.703645
215 0.759008
220 0.739592
225 0.763108
230 0.801324
235 0.842412
240 1.02137
245 0.925265
250 0.905835
255 0.899655
260 1.01639
265 1.0481
270 1.03322
275 1.2067
280 1.23184
285 1.28749
290 1.44132
295 1.40771
300 1.7072
305 1.84246
310 2.05952
315 2.57279
320 3.33526
325 4.36507
330 5.69543
335 8.44591
340 14.2582
345 477.815
350 7764.84
355 9999.9
360 2669.8
365 325.915
370 50.6007
375 15.2547
380 9.26956
385 7.79217
390 7.71248
395 9.91388
400 10.5273
405 9.36422
410 6.74366
415 5.17109
420 4.83645
425 4.76675
430 4.49444
435 4.27739
440 4.35783
445 4.25167
450 3.89679
455 4.00705
460 3.85653
465 4.03365
470 3.80782
475 3.72087
480 3.14642
485 3.29657
490 3.37293
495 3.14124
500 3.21466
505 2.96433
510 2.95161
515 2.75404
520 2.60759
525 2.50862
530 2.55728
535 2.35986
540 2.30848
545 2.47156
550 2.20972
555 2.39206
560 2.26691
565 2.25522
570 2.22383
575 1.98767
580 1.88535
585 1.94327
590 1.99899
595 1.8852
600 1.49709
Ex : 363
200 0.74385
205 0.775522
210 0.77753
215 0.839386
220 0.611398
225 0.732705
230 0.818439
235 0.865307
240 0.838199
245 0.909414
250 0.868511
255 0.794018
260 0.788856
265 0.869277
270 0.963459
275 0.954633
280 1.03425
285 1.18295
290 1.24398
295 1.38468
300 1.4003
305 1.61123
310 1.86149
315 2.08206
320 2.54856
325 3.33451
330 4.24337
335 5.42749
340 8.46205
345 14.2977
350 453.663
355 7677.2
360 9999.9
365 2780.71
370 338.809
375 51.824
380 14.9558
385 9.23406
390 7.43831
395 7.07069
400 9.10031
405 10.0853
410 9.17537
415 7.11474
420 5.31429
425 4.71544
430 4.74689
435 4.40745
440 4.34096
445 4.15856
450 4.25159
455 3.93216
460 3.91845
465 3.91916
470 3.84316
475 3.70181
480 3.65263
485 3.44161
490 3.25577
495 3.0006
500 3.03832
505 2.91519
510 2.894
515 2.55446
520 2.58699
525 2.44446
530 2.31488
535 2.50561
540 2.18869
545 2.15668
550 1.99272
555 2.0376
560 2.11928
565 2.00589
570 1.93797
575 1.77857
580 1.71035
585 1.73275
590 1.79067
595 1.77671
600 1.45187
Ex : 368
200 0.694763
205 0.767783
210 0.681243
215 0.697511
220 0.71084
225 0.782453
230 0.810179
235 0.744895
240 0.812702
245 0.775261
250 0.784766
255 0.830523
260 0.927748
265 0.929421
270 0.895279
275 1.0091
280 0.938773
285 0.979566
290 1.18795
295 1.26132
300 1.30908
305 1.57086
310 1.74037
315 1.9221
320 2.29612
325 2.65873
330 3.40746
335 4.14281
340 5.5722
345 8.64684
350 14.3206
355 386.885
360 7684.07
365 9999.9
370 3023.19
375 368.803
380 55.9417
385 16.0057
390 9.78475
395 7.71504
400 6.88825
405 8.19127
410 10.0006
415 9.54436
420 7.73077
425 5.49019
430 4.85266
435 4.39965
440 4.41026
445 4.27478
450 4.04033
455 4.00248
460 3.97383
465 3.97786
470 3.62957
475 3.42639
480 3.29764
485 3.24321
490 3.15711
495 3.14816
500 2.85343
505 2.63928
510 2.68622
515 2.51095
520 2.32424
525 2.37894
530 2.07797
535 2.096
540 2.04326
545 2.08696
550 1.90482
555 1.73009
560 1.90053
565 1.78725
570 1.88499
575 1.78865
580 1.75173
585 1.69684
590 1.63104
595 1.59365
600 0.821746
Ex : 373
200 0.65326
205 0.690169
210 0.672725
215 0.756757
220 0.739222
225 0.689133
230 0.766302
235 0.726657
240 0.729699
245 0.850757
250 0.710637
255 0.883149
260 0.766784
265 0.780468
270 0.855933
275 0.933398
280 1.04615
285 1.14234
290 1.16716
295 1.3161
300 1.31285
305 1.34207
310 1.48915
315 1.7077
320 1.97349
325 2.25334
330 2.7009
335 3.53826
340 4.30503
345 5.4427
350 8.5596
355 14.7432
360 467.137
365 8259.97
370 9999.9
375 3031.89
380 368.307
385 55.8436
390 16.665
395 9.97341
400 7.80779
405 6.52918
410 7.26705
415 9.28985
420 9.27918
425 8.31104
430 5.99341
435 4.82718
440 4.4838
445 4.25982
450 4.02284
455 4.03975
460 4.04449
465 4.10156
470 3.56986
475 3.59873
480 3.4132
485 2.98464
490 3.10188
495 3.04684
500 2.64964
505 2.78173
510 2.70829
515 2.58803
520 2.51957
525 2.38639
530 2.21109
535 2.16676
540 2.13003
545 1.9572
550 1.89388
555 1.86809
560 1.8875
565 1.86641
570 1.75405
575 1.66759
580 1.4938
585 1.6441
590 1.3974
595 1.486
600 2.07643
Ex : 378
200 0.597129
205 0.582232
210 0.742137
215 0.717058
220 0.625101
225 0.698174
230 0.6746
235 0.70649
240 0.678882
245 0.69185
250 0.81925
255 0.771923
260 0.809083
265 0.934445
270 0.81571
275 0.852488
280 1.00004
285 1.0137
290 1.16542
295 1.16256
300 1.30381
305 1.37931
310 1.31514
315 1.66526
320 1.81743
325 1.94077
330 2.28241
335 2.81326
340 3.35765
345 4.23748
350 6.07039
355 9.00793
360 15.0287
365 461.772
370 8583.16
375 9999.9
380 3083.71
385 374.85
390 57.2397
395 16.938
400 10.1226
405 7.46984
410 6.59864
415 6.84189
420 8.63356
425 9.10496
430 8.16791
435 6.49183
440 4.85819
445 4.31428
450 4.51192
455 4.19135
460 3.93977
465 3.94899
470 3.96232
475 3.68726
480 3.47837
485 3.38128
490 3.02505
495 2.77621
500 2.82045
505 2.64676
510 2.43985
515 2.4039
520 2.3956
525 2.33479
530 2.07446
535 2.04646
540 2.06242
545 1.97363
550 2.04415
555 2.00009
560 1.74995
565 1.72445
570 1.81745
575 1.51343
580 1.43747
585 1.59566
590 1.34386
595 1.37524
600 1.20758
Ex : 383
200 0.621945
205 0.694987
210 0.651079
215 0.66832
220 0.642617
225 0.680149
230 0.696681
235 0.697462
240 0.749555
245 0.737914
250 0.689298
255 0.706981
260 0.757256
265 0.771392
270 0.758162
275 0.884707
280 0.974177
285 0.929251
290 0.973328
295 1.14082
300 1.17524
305 1.23596
310 1.19281
315 1.31824
320 1.51513
325 1.78111
330 2.0687
335 2.42165
340 2.71591
345 3.53706
350 4.44019
355 5.97732
360 8.81739
365 15.3204
370 436.158
375 8481.64
380 9999.9
385 3231.81
390 393.425
395 59.3895
400 17.1277
405 10.2067
410 7.71551
415 6.44597
420 6.1015
425 7.73217
430 8.49718
435 8.28871
440 6.57435
445 5.10349
450 4.56681
455 4.12398
460 4.0955
465 3.95394
470 3.73859
475 3.5356
480 3.25954
485 3.25237
490 3.05008
495 2.88518
500 2.79464
505 2.78678
510 2.39834
515 2.33869
520 2.37897
525 2.271
530 2.2178
535 2.08063
540 1.91185
545 1.93654
550 1.84224
555 1.71987
560 1.74596
565 1.74479
570 1.49609
575 1.48188
580 1.3592
585 1.34325
590 1.18477
595 1.30853
600 0.786801
Ex : 388
200 0.665035
205 0.731073
210 0.698551
215 0.617749
220 0.668506
225 0.623525
230 0.632756
235 0.614799
240 0.696186
245 0.741407
250 0.704889
255 0.707574
260 0.775906
265 0.811253
270 0.855416
275 0.79516
280 0.880582
285 0.879014
290 0.948919
295 1.12302
300 1.05833
305 1.28051
310 1.36093
315 1.35302
320 1.55293
325 1.676
330 1.89728
335 2.1483
340 2.48128
345 2.98659
350 3.55274
355 4.68853
360 6.22806
365 9.22433
370 15.6224
375 468.723
380 8957.2
385 9999.9
390 3370.96
395 409.297
400 61.3504
405 17.2513
410 9.98669
415 7.65676
420 6.32477
425 5.90311
430 7.30279
435 8.53519
440 8.45471
445 7.32502
450 5.82561
455 4.57785
460 4.33221
465 4.19934
470 3.88396
475 3.81572
480 3.43205
485 3.34722
490 3.14481
495 2.95367
500 2.86295
505 2.63596
510 2.64916
515 2.48628
520 2.47472
525 2.21562
530 2.0547
535 2.0678
540 2.11248
545 1.91019
550 1.78057
555 1.79954
560 1.72141
565 1.57319
570 1.52962
575 1.36615
580 1.37694
585 1.30559
590 1.3043
595 1.24508
600 1.28614
Ex : 393
200 0.718761
205 0.700546
210 0.747052
215 0.555544
220 0.723166
225 0.687334
230 0.674362
235 0.693611
240 0.643722
245 0.813199
250 0.688323
255 0.769663
260 0.781437
265 0.812294
270 0.836924
275 0.89645
280 0.917919
285 0.945064
290 1.02816
295 0.983525
300 1.18498
305 1.13602
310 1.20202
315 1.32621
320 1.41165
325 1.55186
330 1.88764
335 1.88358
340 2.1764
345 2.641
350 3.07232
355 3.74442
360 4.84418
365 6.39925
370 9.51443
375 15.7181
380 444.427
385 9263.28
390 9999.9
395 3488.67
400 423.351
405 63.3146
410 17.3978
415 9.8893
420 7.63283
425 6.0174
430 5.58954
435 6.60285
440 8.20665
445 8.11791
450 7.66728
455 5.85688
460 4.54559
465 4.14932
470 3.91098
475 3.69144
480 3.48084
485 3.35289
490 3.17828
495 2.92879
500 2.7866
505 2.75782
510 2.70911
515 2.38163
520 2.23615
525 2.19996
530 2.08875
535 2.21643
540 1.96777
545 2.05789
550 1.88361
555 1.73419
560 1.75087
565 1.67517
570 1.56064
575 1.41485
580 1.31977
585 1.26278
590 1.30383
595 1.3078
600 1.71317
Ex : 398
200 0.606758
205 0.564191
210 0.629173
215 0.720035
220 0.650197
225 0.712927
230 0.728504
235 0.671821
240 0.710446
245 0.64962
250 0.707503
255 0.780453
260 0.73465
265 0.775251
270 0.870742
275 0.861133
280 0.930135
285 1.01385
290 0.969951
295 0.961609
300 0.933182
305 1.08602
310 1.13627
315 1.29598
320 1.39956
325 1.62925
330 1.68707
335 1.80166
340 2.07508
345 2.36935
350 2.70668
355 3.38474
360 3.76811
365 4.79324
370 6.75608
375 9.38057
380 15.7008
385 469.088
390 9346.86
395 9999.9
400 3570.73
405 432.572
410 63.7187
415 17.3804
420 9.92218
425 7.3219
430 5.67776
435 5.19651
440 5.78618
445 7.68545
450 7.83778
455 7.41296
460 6.50586
465 4.84236
470 4.306
475 3.93534
480 3.42211
485 3.33721
490 3.18966
495 2.90949
500 2.80074
505 2.57116
510 2.57529
515 2.60668
520 2.2412
525 2.28575
530 2.28217
535 1.99139
540 1.96239
545 1.81539
550 1.89872
555 1.83493
560 1.63334
565 1.64296
570 1.50255
575 1.37122
580 1.3472
585 1.14258
590 1.18642
595 1.02998
600 1.62301
Ex : 403
200 0.64144
205 0.615424
210 0.613224
215 0.614921
220 0.605543
225 0.645203
230 0.694668
235 0.661842
240 0.673423
245 0.669808
250 0.732344
255 0.733461
260 0.714858
265 0.871776
270 0.850222
275 0.806793
280 0.903522
285 0.982445
290 1.01354
295 0.936435
300 0.995969
305 1.11004
310 1.24267
315 1.27514
320 1.39252
325 1.62031
330 1.52476
335 1.69686
340 1.92357
345 2.07643
350 2.44147
355 2.67705
360 3.33977
365 4.00623
370 5.00688
375 6.86278
380 9.60682
385 16.7029
390 521.332
395 9677.09
400 9999.9
405 3639.05
410 440.268
415 64.4892
420 17.42
425 9.75964
430 7.83286
435 6.10671
440 5.5023
445 5.63022
450 7.16979
455 7.77563
460 7.53533
465 6.57839
470 5.07573
475 4.0212
480 3.60998
485 3.48073
490 3.25052
495 2.92571
500 2.8687
505 2.82145
510 2.66843
515 2.43323
520 2.47877
525 2.31403
530 2.21677
535 2.01189
540 1.92043
545 1.99829
550 1.76491
555 1.77555
560 1.83329
565 1.66867
570 1.43646
575 1.34889
580 1.34684
585 1.19612
590 1.19972
595 1.14798
600 1.27705
Ex : 408
200 0.57437
205 0.643909
210 0.630208
215 0.64457
220 0.641111
225 0.661561
230 0.657925
235 0.637406
240 0.639844
245 0.763858
250 0.75184
255 0.784093
260 0.719584
265 0.74393
270 0.736589
275 0.798019
280 0.855707
285 0.824188
290 0.912262
295 1.01173
300 0.933506
305 1.04809
310 1.02669
315 1.19606
320 1.24654
325 1.32156
330 1.4867
335 1.58359
340 1.71232
345 1.81339
350 2.19365
355 2.40149
360 2.81258
365 3.31646
370 3.92742
375 4.99207
380 6.9372
385 10.2233
390 17.7275
395 524.938
400 9939.1
405 9999.9
410 3597.73
415 435.865
420 64.1375
425 17.376
430 9.93803
435 7.57781
440 5.93295
445 5.63107
450 5.40422
455 6.59741
460 7.50969
465 7.31048
470 6.73952
475 5.18361
480 3.96974
485 3.53698
490 3.18409
495 3.10719
500 3.02291
505 2.76534
510 2.63836
515 2.5928
520 2.43456
525 2.38417
530 2.26389
535 2.08679
540 2.09813
545 2.03979
550 1.92923
555 1.93126
560 1.69137
565 1.57123
570 1.65645
575 1.50984
580 1.46123
585 1.21468
590 1.1252
595 1.09841
600 0.765302
Ex : 413
200 0.629469
205 0.628485
210 0.608853
215 0.584599
220 0.664013
225 0.671518
230 0.642805
235 0.656392
240 0.694418
245 0.692067
250 0.67944
255 0.716439
260 0.74644
265 0.811674
270 0.823484
275 0.89905
280 0.778984
285 0.872888
290 0.91225
295 0.907826
300 0.961011
305 0.95785
310 1.1166
315 1.16919
320 1.17123
325 1.24469
330 1.46693
335 1.59416
340 1.64299
345 1.82888
350 2.09591
355 2.28333
360 2.51719
365 2.95509
370 3.29541
375 4.20989
380 5.24828
385 7.17686
390 10.9905
395 18.1409
400 587.745
405 9999.9
410 9999.9
415 3545.92
420 428.186
425 63.0536
430 17.388
435 10.0432
440 7.90778
445 6.1263
450 5.39063
455 5.17731
460 6.25999
465 7.55532
470 7.0487
475 6.63207
480 5.54027
485 4.17079
490 3.35954
495 3.18709
500 3.02768
505 2.92245
510 2.86031
515 2.56975
520 2.52871
525 2.36314
530 2.1426
535 2.11554
540 2.15231
545 2.09302
550 1.89979
555 1.73529
560 1.71869
565 1.63286
570 1.44289
575 1.39964
580 1.38163
585 1.27754
590 1.11813
595 1.04328
600 0.95728
Ex : 418
200 0.479879
205 0.590211
210 0.596673
215 0.615237
220 0.557317
225 0.568708
230 0.665426
235 0.671552
240 0.548255
245 0.601141
250 0.725914
255 0.698252
260 0.714845
265 0.791401
270 0.702304
275 0.724306
280 0.773393
285 0.821309
290 0.906911
295 0.939436
300 0.946677
305 1.01374
310 1.04793
315 1.11685
320 1.11076
325 1.26913
330 1.33496
335 1.4717
340 1.47911
345 1.60595
350 1.77215
355 2.07239
360 2.23925
365 2.56482
370 3.09282
375 3.51157
380 4.35617
385 5.44559
390 7.53606
395 11.1626
400 18.3155
405 568.591
410 9999.9
415 9999.9
420 3661.72
425 441.952
430 64.7823
435 17.7647
440 10.3887
445 7.81426
450 6.2479
455 5.44646
460 5.25201
465 5.76291
470 6.87247
475 6.89556
480 6.4182
485 5.57079
490 4.21313
495 3.28209
500 3.15721
505 2.87196
510 2.61034
515 2.5878
520 2.3083
525 2.34048
530 2.2565
535 2.36855
540 2.05393
545 1.97344
550 1.91527
555 1.78554
560 1.65567
565 1.66823
570 1.61071
575 1.43386
580 1.31617
585 1.25969
590 1.11644
595 1.0948
600 1.09655
Ex : 423
200 0.539873
205 0.610182
210 0.617251
215 0.621991
220 0.613529
225 0.621173
230 0.608768
235 0.610765
240 0.643655
245 0.740247
250 0.759759
255 0.72568
260 0.707703
265 0.766668
270 0.776812
275 0.757986
280 0.864216
285 0.861671
290 0.807839
295 0.894202
300 0.841205
305 0.981129
310 1.05202
315 0.97654
320 1.09823
325 1.2153
330 1.3348
335 1.46063
340 1.50336
345 1.56558
350 1.7846
355 1.91547
360 1.93572
365 2.31322
370 2.69914
375 2.9676
380 3.57042
385 4.57565
390 5.73436
395 7.73415
400 11.4998
405 18.8396
410 589.256
415 9999.9
420 9999.9
425 3545.66
430 428.786
435 63.5621
440 17.6886
445 10.5388
450 8.26902
455 6.18522
460 5.56947
465 5.50146
470 5.33966
475 6.23082
480 6.74216
485 6.04627
490 5.73965
495 4.37201
500 3.39525
505 3.02567
510 2.85592
515 2.77261
520 2.42289
525 2.34697
530 2.33153
535 2.12374
540 2.13357
545 2.02467
550 1.88884
555 1.84025
560 1.64669
565 1.60913
570 1.50261
575 1.44533
580 1.32402
585 1.35605
590 1.12901
595 1.05
600 1.02719
Ex : 428
200 0.636101
205 0.601311
210 0.578581
215 0.586835
220 0.659699
225 0.62574
230 0.607792
235 0.661635
240 0.642366
245 0.655786
250 0.670463
255 0.697735
260 0.75477
265 0.737761
270 0.798388
275 0.791626
280 0.885813
285 0.893919
290 0.75463
295 0.917357
300 0.907298
305 0.963141
310 0.975187
315 1.01379
320 1.11413
325 1.21228
330 1.2193
335 1.30844
340 1.40403
345 1.50675
350 1.68231
355 1.78786
360 1.97251
365 2.07571
370 2.37203
375 2.76436
380 3.2677
385 3.57796
390 4.59804
395 6.10352
400 7.81388
405 11.5432
410 19.2281
415 649.487
420 9999.9
425 9999.9
430 3743.45
435 451.842
440 66.448
445 18.111
450 10.9853
455 8.0012
460 6.25529
465 5.70623
470 5.20125
475 5.09771
480 5.93977
485 6.45828
490 6.21433
495 5.71391
500 4.64685
505 3.45102
510 2.91439
515 2.96765
520 2.63998
525 2.48186
530 2.32718
535 2.14182
540 2.00113
545 2.07799
550 1.91353
555 1.80479
560 1.6705
565 1.64174
570 1.5881
575 1.44932
580 1.33451
585 1.28553
590 1.21795
595 1.12648
600 1.11232
Ex : 433
200 0.535181
205 0.678528
210 0.550516
215 0.56444
220 0.632282
225 0.636435
230 0.644446
235 0.586007
240 0.67582
245 0.710479
250 0.681695
255 0.695135
260 0.721252
265 0.731082
270 0.693
275 0.737137
280 0.817522
285 0.823621
290 0.936417
295 0.892688
300 0.910929
305 0.953973
310 1.05374
315 1.00068
320 1.03848
325 1.09713
330 1.17143
335 1.40368
340 1.34176
345 1.43184
350 1.58042
355 1.68256
360 1.89068
365 1.98654
370 2.21835
375 2.24839
380 2.76353
385 3.25149
390 4.13685
395 4.78517
400 6.2908
405 8.25051
410 12.2061
415 20.0773
420 710.214
425 9999.9
430 9999.9
435 3598.79
440 434.384
445 65.2443
450 18.7029
455 11.0475
460 8.42224
465 6.67222
470 5.92096
475 5.17296
480 4.91732
485 5.33963
490 6.19131
495 5.82681
500 5.48624
505 4.7405
510 3.54522
515 3.00898
520 2.60239
525 2.61024
530 2.41456
535 2.20773
540 2.10621
545 2.05149
550 2.11237
555 1.8366
560 1.68082
565 1.61405
570 1.63935
575 1.29626
580 1.35051
585 1.18434
590 1.25032
595 1.09733
600 1.27992
Ex : 438
200 0.589939
205 0.663061
210 0.647959
215 0.721583
220 0.654255
225 0.707053
230 0.737256
235 0.681956
240 0.635119
245 0.675144
250 0.749912
255 0.721397
260 0.716134
265 0.773935
270 0.800241
275 0.741139
280 0.800737
285 0.865655
290 0.8407
295 0.847857
300 0.858491
305 0.836256
310 1.01769
315 1.02509
320 1.15617
325 1.15481
330 1.29447
335 1.21636
340 1.18246
345 1.40094
350 1.57826
355 1.68793
360 1.83199
365 1.88975
370 2.00504
375 2.26971
380 2.45579
385 2.90609
390 3.2305
395 3.99977
400 4.91225
405 6.33149
410 8.50487
415 12.4396
420 19.9124
425 677.663
430 9999.9
435 9999.9
440 3740.22
445 452.852
450 67.4312
455 19.0012
460 11.2101
465 8.84818
470 6.55999
475 5.40411
480 4.94166
485 4.52861
490 4.78461
495 5.62107
500 5.6969
505 5.19404
510 4.80784
515 3.87654
520 2.91443
525 2.58086
530 2.4078
535 2.28387
540 2.1165
545 2.08792
550 1.86999
555 1.83804
560 1.80017
565 1.5768
570 1.56315
575 1.49721
580 1.38404
585 1.25809
590 1.13433
595 1.15487
600 1.36666
Ex : 443
200 0.596311
205 0.594716
210 0.596982
215 0.656596
220 0.645034
225 0.683635
230 0.623816
235 0.57647
240 0.600094
245 0.659372
250 0.711415
255 0.712518
260 0.705759
265 0.709189
270 0.691114
275 0.710714
280 0.832971
285 0.814425
290 0.895147
295 0.883231
300 0.881501
305 0.919864
310 0.910421
315 1.04176
320 1.09019
325 1.13516
330 1.165
335 1.36331
340 1.25787
345 1.40108
350 1.4888
355 1.58575
360 1.69581
365 1.80132
370 1.98977
375 2.2252
380 2.25206
385 2.72885
390 3.12776
395 3.53239
400 4.10333
405 5.05872
410 6.54361
415 8.81077
420 12.7845
425 20.8486
430 742.235
435 9999.9
440 9999.9
445 3666.8
450 443.737
455 66.6443
460 19.4578
465 11.6302
470 8.66546
475 6.27975
480 5.3444
485 4.97028
490 4.72761
495 4.42834
500 5.20053
505 5.75503
510 5.2316
515 4.72084
520 4.15725
525 3.14184
530 2.45027
535 2.28576
540 2.19098
545 2.23559
550 2.02438
555 2.09127
560 1.82836
565 1.66352
570 1.65633
575 1.47794
580 1.5193
585 1.31267
590 1.20931
595 1.10155
600 0.694785
Ex : 448
200 0.587036
205 0.57159
210 0.691353
215 0.713169
220 0.74315
225 0.751407
230 0.63927
235 0.61885
240 0.697025
245 0.708988
250 0.68749
255 0.726402
260 0.754507
265 0.708841
270 0.751523
275 0.740481
280 0.805238
285 0.900126
290 0.85004
295 0.845936
300 0.894293
305 0.955763
310 0.953102
315 1.04299
320 1.00567
325 1.09651
330 1.14115
335 1.27319
340 1.20432
345 1.32968
350 1.62826
355 1.69797
360 1.69812
365 1.68813
370 1.94132
375 2.11321
380 2.29249
385 2.6776
390 2.89511
395 3.27458
400 3.61105
405 4.39953
410 5.17361
415 6.84024
420 8.90719
425 12.915
430 21.086
435 777.134
440 9999.9
445 9999.9
450 3805.49
455 460.365
460 69.6695
465 20.233
470 11.9847
475 8.39995
480 6.22709
485 5.23038
490 4.86008
495 4.45352
500 4.37511
505 4.73375
510 5.44081
515 4.97106
520 4.4987
525 4.19157
530 3.27417
535 2.63775
540 2.14463
545 2.16945
550 2.07803
555 1.91235
560 1.78336
565 1.73051
570 1.63882
575 1.38131
580 1.31793
585 1.27632
590 1.22846
595 1.17257
600 1.20792
Ex : 453
200 0.737248
205 0.633535
210 0.599771
215 0.701827
220 0.613639
225 0.651652
230 0.692552
235 0.650808
240 0.728616
245 0.701421
250 0.690207
255 0.703762
260 0.772641
265 0.702099
270 0.658608
275 0.703701
280 0.749717
285 0.801202
290 0.795413
295 0.953946
300 0.914065
305 0.993894
310 0.993209
315 0.972667
320 1.04901
325 1.09336
330 1.14149
335 1.29584
340 1.27986
345 1.35557
350 1.35994
355 1.48982
360 1.6208
365 1.71791
370 1.63212
375 2.05341
380 2.16892
385 2.29208
390 2.49011
395 2.81126
400 3.31523
405 3.80211
410 4.32552
415 5.20151
420 6.62677
425 8.7733
430 13.1392
435 20.8369
440 816.519
445 9999.9
450 9999.9
455 3667.27
460 444.704
465 68.4767
470 19.4134
475 11.0745
480 8.21412
485 6.02735
490 4.93412
495 4.71571
500 4.38663
505 4.09646
510 4.40147
515 5.13845
520 4.82548
525 4.21964
530 4.1525
535 3.44238
540 2.61151
545 2.41118
550 2.03467
555 1.92907
560 1.86858
565 1.80864
570 1.67267
575 1.56858
580 1.3157
585 1.32508
590 1.27309
595 1.20474
600 1.04738
Ex : 458
200 0.660303
205 0.699587
210 0.615202
215 0.625408
220 0.673106
225 0.739932
230 0.787302
235 0.689039
240 0.743942
245 0.727242
250 0.667275
255 0.75087
260 0.780187
265 0.818594
270 0.77405
275 0.767885
280 0.859578
285 0.90079
290 0.921136
295 0.938262
300 1.01598
305 1.02502
310 1.03529
315 0.94092
320 0.953296
325 1.14359
330 1.22385
335 1.39218
340 1.28915
345 1.37301
350 1.38632
355 1.41718
360 1.62451
365 1.7553
370 1.83923
375 1.89923
380 1.97843
385 2.17789
390 2.54525
395 2.59749
400 2.98254
405 3.40866
410 3.64895
415 4.78972
420 5.31643
425 7.01331
430 8.97758
435 12.9833
440 21.9893
445 905.317
450 9999.9
455 9999.9
460 3926.3
465 477.186
470 72.2864
475 19.832
480 11.4166
485 8.16384
490 6.24528
495 5.04741
500 4.6085
505 4.42238
510 4.20795
515 4.23665
520 4.60202
525 4.78816
530 4.24666
535 3.97643
540 3.59246
545 2.8236
550 2.2517
555 2.11227
560 2.01943
565 1.97609
570 1.70261
575 1.62507
580 1.47354
585 1.33668
590 1.24365
595 1.18776
600 0.5307
Ex : 463
200 0.792424
205 0.674938
210 0.629578
215 0.614564
220 0.647449
225 0.788952
230 0.767981
235 0.710161
240 0.711041
245 0.724886
250 0.729701
255 0.777206
260 0.713524
265 0.74715
270 0.863618
275 0.744765
280 0.804677
285 0.797058
290 0.834427
295 0.905447
300 1.03224
305 0.981452
310 1.06821
315 1.01481
320 1.06451
325 1.13056
330 1.17301
335 1.17055
340 1.2284
345 1.35881
350 1.42061
355 1.40916
360 1.50977
365 1.59372
370 1.72791
375 1.85414
380 1.87618
385 2.10783
390 2.30135
395 2.61232
400 2.73696
405 3.04728
410 3.38797
415 3.84705
420 4.42912
425 5.11874
430 6.83665
435 9.16573
440 13.216
445 22.8122
450 883.397
455 9999.9
460 9999.9
465 4128.11
470 499.366
475 73.1159
480 19.6709
485 10.7904
490 7.95165
495 5.92136
500 5.0127
505 4.38764
510 4.2733
515 4.13103
520 3.79068
525 4.0769
530 4.47019
535 4.20403
540 3.94454
545 3.51163
550 2.99871
555 2.44038
560 2.03662
565 1.9557
570 1.6908
575 1.62141
580 1.41822
585 1.29223
590 1.27496
595 1.30292
600 1.15101
Ex : 468
200 0.70391
205 0.634107
210 0.715193
215 0.755506
220 0.691348
225 0.925072
230 0.892683
235 0.793573
240 0.744341
245 0.712213
250 0.724853
255 0.610306
260 0.726389
265 0.788977
270 0.771906
275 0.787934
280 0.803604
285 0.852979
290 0.88375
295 0.867741
300 0.998043
305 1.06443
310 1.10563
315 1.10534
320 1.04908
325 1.17543
330 1.12626
335 1.27978
340 1.27798
345 1.40692
350 1.3295
355 1.30021
360 1.54732
365 1.58838
370 1.68559
375 1.79926
380 1.95637
385 2.05371
390 2.25085
395 2.37023
400 2.63227
405 2.79671
410 3.09838
415 3.46004
420 3.77001
425 4.43013
430 5.10344
435 6.84665
440 9.13755
445 13.843
450 22.1225
455 970.582
460 9999.9
465 9999.9
470 4279.88
475 513.467
480 74.4483
485 19.2852
490 10.7844
495 7.82085
500 5.73483
505 4.72106
510 4.4484
515 4.23078
520 4.05488
525 3.78065
530 3.83476
535 4.29928
540 4.11388
545 3.64016
550 3.50366
555 3.23467
560 2.33362
565 1.96487
570 1.78384
575 1.64766
580 1.46889
585 1.49859
590 1.38213
595 1.20894
600 1.82942
Ex : 473
200 0.636078
205 0.667038
210 0.671778
215 0.731588
220 0.755427
225 0.753622
230 1.05054
235 0.972718
240 0.756697
245 0.751368
250 0.729172
255 0.838725
260 0.816021
265 0.810082
270 0.782536
275 0.859881
280 0.83902
285 0.891555
290 0.854465
295 0.89932
300 0.917902
305 0.993356
310 1.03639
315 1.05241
320 1.08067
325 1.19341
330 1.14379
335 1.15319
340 1.30928
345 1.19556
350 1.40659
355 1.39507
360 1.4995
365 1.68216
370 1.76091
375 1.68695
380 1.93205
385 1.92729
390 2.18761
395 2.34348
400 2.51209
405 2.79158
410 2.84009
415 3.11874
420 3.44227
425 3.82817
430 4.42191
435 5.40127
440 6.93081
445 9.72228
450 14.2875
455 23.4528
460 1043.88
465 9999.9
470 9999.9
475 4036.8
480 484.966
485 70.7507
490 18.9114
495 10.4265
500 7.53273
505 5.80574
510 5.00059
515 4.48176
520 4.28207
525 4.07968
530 3.56624
535 3.66713
540 3.91697
545 4.06519
550 3.39228
555 3.35096
560 3.13626
565 2.64645
570 1.94188
575 1.82907
580 1.57066
585 1.48533
590 1.39185
595 1.28153
600 1.20791
Ex : 478
200 0.747567
205 0.738736
210 0.68892
215 0.692359
220 0.65255
225 0.76141
230 0.980414
235 1.24684
240 0.811091
245 0.749683
250 0.888703
255 0.882167
260 0.782113
265 0.828553
270 0.896636
275 0.870812
280 0.889893
285 0.858158
290 0.875905
295 0.904814
300 0.911461
305 1.01189
310 1.03562
315 1.04705
320 1.20585
325 1.19521
330 1.1942
335 1.22545
340 1.21965
345 1.35117
350 1.37932
355 1.42254
360 1.50819
365 1.68759
370 1.57958
375 1.78452
380 1.89961
385 1.97916
390 2.15481
395 2.32278
400 2.50266
405 2.69926
410 2.848
415 3.1695
420 3.39523
425 3.85987
430 4.31752
435 5.03461
440 5.93748
445 8.12256
450 11.0757
455 16.13
460 27.2172
465 1170.45
470 9999.9
475 9999.9
480 4163.64
485 502.48
490 74.2166
495 19.9647
500 10.9428
505 7.76045
510 6.15129
515 5.08638
520 4.5974
525 4.27805
530 3.93763
535 3.65937
540 3.50976
545 3.72284
550 4.0508
555 3.6266
560 3.04968
565 3.08457
570 2.66492
575 1.93564
580 1.8316
585 1.63793
590 1.50428
595 1.44244
600 1.06656
Ex : 483
200 0.722576
205 0.664029
210 0.694203
215 0.706853
220 0.846641
225 0.662513
230 0.806684
235 1.52679
240 1.16619
245 0.92885
250 0.733617
255 0.826281
260 0.858068
265 0.811222
270 0.832423
275 0.863306
280 0.777964
285 0.806431
290 0.9643
295 0.919019
300 0.841061
305 0.94647
310 1.02776
315 1.15911
320 1.13837
325 1.1809
330 1.20087
335 1.2651
340 1.25982
345 1.33284
350 1.36355
355 1.43068
360 1.56592
365 1.5013
370 1.62367
375 1.76552
380 1.87119
385 2.0136
390 2.23522
395 2.14984
400 2.49554
405 2.56797
410 2.67732
415 2.92946
420 2.92989
425 3.53493
430 3.86847
435 4.19797
440 5.09324
445 6.3602
450 8.20493
455 11.2185
460 16.8398
465 28.5488
470 958.902
475 9999.9
480 9999.9
485 4338.31
490 521.864
495 76.0308
500 20.0225
505 11.3788
510 8.25471
515 6.05761
520 4.80387
525 4.41711
530 4.33912
535 4.04006
540 3.86268
545 3.53271
550 3.46602
555 3.91467
560 3.51479
565 3.13863
570 2.93782
575 2.52251
580 2.16443
585 1.59646
590 1.59126
595 1.44158
600 1.23139
Ex : 488
200 0.688251
205 0.784779
210 0.731994
215 0.757211
220 0.75826
225 0.762129
230 0.752709
235 1.07996
240 1.66368
245 0.931625
250 0.777464
255 0.834094
260 0.887855
265 0.732352
270 0.793831
275 0.821996
280 0.80766
285 0.908867
290 0.951111
295 1.01114
300 1.07858
305 0.954261
310 1.05519
315 0.996605
320 1.1411
325 1.28196
330 1.27259
335 1.30105
340 1.38555
345 1.23837
350 1.32918
355 1.39474
360 1.54079
365 1.6414
370 1.73094
375 1.7441
380 1.82432
385 2.01369
390 2.0928
395 2.46836
400 2.2551
405 2.48722
410 2.71618
415 2.93497
420 3.09001
425 3.17586
430 3.53503
435 4.21757
440 4.81184
445 5.63739
450 6.76673
455 8.8575
460 12.7227
465 19.2415
470 29.4436
475 1163.09
480 9999.9
485 9999.9
490 4219.91
495 508.834
500 75.0519
505 20.3759
510 11.3354
515 8.46571
520 6.40437
525 5.0345
530 4.79987
535 4.39985
540 4.21804
545 3.91886
550 3.59622
555 3.30375
560 3.50939
565 3.40228
570 3.09974
575 2.58089
580 2.41791
585 2.04484
590 1.75828
595 1.73796
600 1.02972
Ex : 493
200 0.690888
205 0.692083
210 0.815662
215 0.784037
220 0.793962
225 0.750269
230 0.788135
235 0.806724
240 1.76564
245 1.36825
250 0.880892
255 0.81625
260 0.922624
265 0.808378
270 0.950657
275 0.877249
280 0.860978
285 0.93308
290 0.922893
295 0.95946
300 0.963473
305 1.06056
310 1.06431
315 1.02009
320 0.977714
325 1.11581
330 1.26262
335 1.27316
340 1.31665
345 1.55721
350 1.49992
355 1.26923
360 1.44098
365 1.54776
370 1.61394
375 1.57477
380 1.706
385 1.92421
390 1.91442
395 2.25893
400 2.36932
405 2.3601
410 2.61548
415 2.72135
420 2.88136
425 2.93185
430 3.28441
435 3.64111
440 4.215
445 4.84027
450 5.71108
455 6.99459
460 9.34872
465 13.1044
470 18.3315
475 28.1253
480 1118.27
485 9999.9
490 9999.9
495 4262.9
500 513.447
505 74.8069
510 20.1014
515 11.6683
520 8.17775
525 6.3638
530 5.45786
535 4.65774
540 4.25364
545 4.16449
550 3.81364
555 3.43967
560 3.34766
565 3.19471
570 3.18965
575 2.80625
580 2.58878
585 2.33231
590 1.91119
595 1.631
600 1.62113
Ex : 498
200 0.779426
205 0.786184
210 0.792444
215 0.800539
220 0.734469
225 0.844809
230 0.693725
235 0.855819
240 1.27835
245 2.00993
250 0.9577
255 0.866778
260 0.858675
265 0.831652
270 0.832294
275 0.786387
280 0.854363
285 0.94145
290 0.917554
295 0.963909
300 0.843961
305 0.930995
310 1.0231
315 1.11976
320 0.94769
325 1.12166
330 1.1065
335 1.10347
340 1.22009
345 1.22607
350 1.34224
355 1.44275
360 1.46632
365 1.51012
370 1.49452
375 1.67692
380 1.70467
385 1.84907
390 1.92468
395 2.06651
400 2.26855
405 2.35749
410 2.53278
415 2.87449
420 2.8704
425 2.96435
430 3.10972
435 3.55343
440 3.96922
445 4.58612
450 5.06736
455 6.05555
460 7.6519
465 10.282
470 13.335
475 18.5677
480 29.812
485 1323.85
490 9999.9
495 9999.9
500 4160.97
505 502.389
510 74.3867
515 20.2676
520 11.443
525 8.24196
530 6.37983
535 5.40452
540 4.86458
545 4.56928
550 4.07819
555 3.64915
560 3.44785
565 3.21094
570 3.07504
575 3.01472
580 2.72057
585 2.49522
590 2.1376
595 2.02046
600 1.35144
Ex : 503
200 0.745664
205 0.76815
210 0.842048
215 0.725765
220 0.721786
225 0.828539
230 0.736156
235 0.78684
240 0.919434
245 2.13091
250 1.52671
255 0.852195
260 0.935221
265 0.945233
270 0.951486
275 0.999789
280 0.975929
285 0.946483
290 0.893752
295 0.967981
300 1.02683
305 1.03354
310 1.07109
315 0.919711
320 1.00292
325 1.02663
330 1.19353
335 1.12853
340 1.23323
345 1.41039
350 1.36972
355 1.31976
360 1.51148
365 1.4577
370 1.66681
375 1.63423
380 1.67699
385 1.92452
390 1.92807
395 2.13323
400 2.00394
405 2.25121
410 2.41012
415 2.58621
420 2.68064
425 2.79421
430 3.00311
435 3.39144
440 3.76149
445 4.15198
450 4.61655
455 5.46705
460 6.51189
465 8.31258
470 10.2827
475 13.3029
480 19.0329
485 30.6052
490 1223
495 9999.9
500 9999.9
505 4283.5
510 517.505
515 76.756
520 20.5216
525 11.3667
530 8.43683
535 6.19846
540 5.04724
545 4.77187
550 4.63089
555 4.1877
560 3.86756
565 3.46238
570 3.01176
575 2.73062
580 2.66877
585 2.62656
590 2.23936
595 2.08877
600 2.71123
Ex : 508
200 0.752251
205 0.841372
210 0.855718
215 0.798993
220 0.813243
225 0.732545
230 0.857695
235 0.750365
240 0.761495
245 1.32221
250 2.58575
255 1.12662
260 0.880274
265 0.85884
270 0.868196
275 0.993609
280 0.877533
285 0.910652
290 0.995218
295 1.01353
300 0.916578
305 1.00417
310 1.0096
315 1.02077
320 1.09688
325 1.11201
330 1.08277
335 1.12734
340 1.30116
345 1.34848
350 1.3773
355 1.56896
360 1.51716
365 1.57408
370 1.48807
375 1.59667
380 1.59477
385 1.84272
390 1.82194
395 1.9305
400 2.08896
405 2.22291
410 2.4203
415 2.39898
420 2.81061
425 2.83929
430 2.99398
435 3.37105
440 3.52656
445 3.93223
450 4.24371
455 4.83132
460 5.49805
465 6.73404
470 8.10995
475 10.2978
480 13.4937
485 19.5951
490 31.3998
495 1299.97
500 9999.9
505 9999.9
510 4659.75
515 561.071
520 81.7983
525 21.3907
530 11.8298
535 8.41974
540 6.40041
545 5.30284
550 4.71218
555 4.53348
560 4.13618
565 3.73117
570 3.42298
575 3.0194
580 2.53181
585 2.54142
590 2.31721
595 2.2624
600 2.07827
Ex : 513
200 0.805133
205 0.771917
210 0.684753
215 0.844565
220 0.848047
225 0.799773
230 0.747566
235 0.823511
240 0.789419
245 0.971138
250 4.32068
255 3.22993
260 1.0723
265 0.83896
270 0.950658
275 1.0207
280 0.939725
285 1.00904
290 0.885167
295 0.91027
300 0.938585
305 0.973229
310 0.996954
315 1.15987
320 1.06398
325 0.958469
330 1.09643
335 1.23736
340 1.144
345 1.20521
350 1.17491
355 1.32946
360 1.36713
365 1.56387
370 1.45924
375 1.57052
380 1.61085
385 1.74825
390 1.9328
395 1.96773
400 1.99122
405 2.09959
410 2.37009
415 2.45403
420 2.61486
425 2.83828
430 2.9673
435 2.90479
440 3.27423
445 3.75716
450 4.11126
455 4.43275
460 5.30048
465 6.09422
470 6.60414
475 7.91014
480 10.4738
485 13.5364
490 19.4737
495 30.1958
500 1199.39
505 9999.9
510 9999.9
515 4779.1
520 575.406
525 83.0942
530 21.2702
535 11.9903
540 8.62235
545 6.29777
550 5.26806
555 4.99635
560 4.51124
565 4.17486
570 3.70901
575 3.28693
580 3.07348
585 2.49212
590 2.39977
595 2.38011
600 1.86137
Ex : 518
200 0.785653
205 0.758612
210 0.822753
215 0.825123
220 0.808985
225 0.761949
230 0.93031
235 0.824736
240 0.789048
245 0.819571
250 3.22415
255 8.30446
260 2.34936
265 1.05806
270 0.959807
275 0.913404
280 0.998861
285 1.0177
290 0.953708
295 1.1069
300 1.154
305 1.02646
310 1.14385
315 1.15457
320 1.16421
325 1.16581
330 1.11502
335 1.23097
340 1.24798
345 1.29773
350 1.21128
355 1.38964
360 1.40094
365 1.6103
370 1.58333
375 1.43294
380 1.48996
385 1.56321
390 1.53267
395 1.92424
400 2.13407
405 2.14831
410 2.27647
415 2.29107
420 2.48045
425 2.60842
430 2.7978
435 2.99771
440 3.01669
445 3.33909
450 3.5501
455 4.21078
460 4.83176
465 5.42655
470 5.8504
475 6.42973
480 8.04425
485 9.82867
490 13.7871
495 18.8651
500 29.6725
505 1186.73
510 9999.9
515 9999.9
520 4852.24
525 583.203
530 83.8489
535 21.5571
540 11.8584
545 8.48467
550 6.27276
555 5.33091
560 4.51271
565 4.28831
570 4.02848
575 3.66213
580 3.21408
585 2.57727
590 2.40605
595 2.36675
600 2.87604
Ex : 523
200 0.841134
205 0.829193
210 0.819915
215 0.772393
220 0.712234
225 0.764452
230 0.841114
235 0.799112
240 0.778398
245 0.735707
250 1.25213
255 10.6226
260 7.87133
265 1.69386
270 0.98079
275 0.949989
280 1.08816
285 1.02096
290 0.937714
295 0.92194
300 0.989923
305 1.19471
310 1.16481
315 1.13372
320 1.0765
325 1.07916
330 1.21391
335 1.20488
340 1.21675
345 1.22996
350 1.30822
355 1.22117
360 1.4615
365 1.5523
370 1.55399
375 1.5571
380 1.61346
385 1.60862
390 1.73611
395 1.80858
400 1.8123
405 2.07671
410 2.14385
415 2.26666
420 2.39478
425 2.41064
430 2.65646
435 2.92962
440 3.0375
445 3.2405
450 3.38333
455 3.8154
460 4.33455
465 4.79389
470 5.17612
475 5.62861
480 6.90276
485 8.11008
490 10.8932
495 13.9889
500 18.6466
505 29.7587
510 1110.96
515 9999.9
520 9999.9
525 5115.31
530 613.328
535 87.5174
540 21.8839
545 11.5399
550 8.51777
555 6.11096
560 5.28994
565 4.90925
570 4.29688
575 3.8453
580 3.55837
585 3.07262
590 2.78081
595 2.52124
600 2.1262
Ex : 528
200 0.848327
205 0.76155
210 0.765211
215 0.911208
220 0.819885
225 0.789544
230 0.769502
235 0.840902
240 0.944746
245 0.956525
250 0.841316
255 5.87288
260 17.3222
265 4.49509
270 1.38625
275 1.07405
280 0.993733
285 0.992432
290 0.837152
295 0.871327
300 0.921791
305 1.02339
310 1.09149
315 1.16242
320 1.10815
325 1.12232
330 1.167
335 1.38541
340 1.26231
345 1.20965
350 1.26932
355 1.34415
360 1.24997
365 1.53537
370 1.49843
375 1.47374
380 1.56654
385 1.63781
390 1.78132
395 1.85908
400 1.89227
405 2.13968
410 2.09142
415 2.12977
420 2.46192
425 2.48679
430 2.52441
435 2.61474
440 3.02242
445 3.23205
450 3.56178
455 3.47272
460 4.09588
465 4.80518
470 4.91676
475 5.09895
480 5.7215
485 6.84287
490 7.87811
495 10.2937
500 13.4016
505 19.049
510 29.2321
515 1045.82
520 9999.9
525 9999.9
530 5011.34
535 602.037
540 86.1676
545 21.8545
550 11.5329
555 8.35797
560 6.25895
565 5.17923
570 4.73928
575 4.22437
580 3.85759
585 3.73468
590 3.15631
595 2.49881
600 2.89134
Ex : 533
200 0.843485
205 0.799899
210 0.774951
215 0.833674
220 0.84189
225 0.833002
230 0.852545
235 0.736808
240 0.780479
245 0.882852
250 0.94237
255 1.67541
260 20.4028
265 15.5552
270 2.71667
275 1.22294
280 0.957514
285 1.08642
290 1.09924
295 1.00027
300 1.04713
305 1.05354
310 1.03826
315 1.16785
320 1.15129
325 1.14743
330 1.20179
335 1.36526
340 1.39673
345 1.29059
350 1.4868
355 1.36067
360 1.31487
365 1.36218
370 1.47965
375 1.50101
380 1.57249
385 1.58423
390 1.59564
395 1.51223
400 1.64146
405 2.02135
410 2.04319
415 2.22601
420 2.13796
425 2.42202
430 2.66616
435 2.76417
440 2.69253
445 2.74803
450 3.09271
455 3.6799
460 3.91765
465 4.45537
470 4.84387
475 4.76569
480 5.11106
485 5.71711
490 7.03387
495 8.15909
500 10.2083
505 13.4238
510 19.0241
515 29.3205
520 1065.66
525 9999.9
530 9999.9
535 5210.23
540 625.209
545 89.3049
550 22.3633
555 11.7546
560 8.40891
565 6.10744
570 5.09555
575 4.41525
580 4.36244
585 3.53933
590 3.26937
595 2.93047
600 3.15522
Ex : 538
200 0.876368
205 0.773824
210 0.770902
215 0.831498
220 0.833199
225 0.800586
230 0.882401
235 0.903927
240 0.846981
245 0.927352
250 0.858758
255 0.997571
260 10.3232
265 34.8502
270 9.24943
275 1.92907
280 1.18428
285 1.01853
290 1.19687
295 1.08159
300 0.985852
305 0.963985
310 1.06785
315 1.12536
320 1.18447
325 1.20039
330 1.27652
335 1.20618
340 1.20396
345 1.18479
350 1.23694
355 1.17463
360 1.34826
365 1.341
370 1.38379
375 1.41301
380 1.61894
385 1.65218
390 1.51826
395 1.83987
400 1.82155
405 1.76565
410 1.86693
415 2.02421
420 2.00597
425 2.00202
430 2.16505
435 2.74759
440 2.58139
445 2.71936
450 3.07409
455 3.20947
460 3.56635
465 4.0671
470 4.13725
475 4.5636
480 4.81988
485 4.94628
490 5.72324
495 6.87785
500 7.93157
505 9.76618
510 12.767
515 18.1511
520 27.8165
525 919.018
530 9999.9
535 9999.9
540 5464.22
545 656.69
550 92.853
555 22.4578
560 11.6491
565 8.49384
570 5.943
575 4.63057
580 4.52517
585 4.17385
590 3.70078
595 3.32143
600 3.30428
Ex : 543
200 0.828163
205 0.98957
210 0.867596
215 0.733907
220 0.848518
225 0.832102
230 0.906308
235 0.898779
240 0.789798
245 0.760826
250 0.787008
255 0.878451
260 2.09133
265 36.3629
270 30.8279
275 4.68635
280 1.37468
285 1.12772
290 1.28623
295 1.18636
300 1.07567
305 1.11717
310 1.06748
315 1.08012
320 1.23785
325 1.24458
330 1.28005
335 1.38671
340 1.47389
345 1.29846
350 1.15765
355 1.35917
360 1.27347
365 1.38252
370 1.49362
375 1.48495
380 1.50239
385 1.7185
390 1.58152
395 1.72213
400 1.70964
405 1.88215
410 1.65594
415 2.02222
420 2.21504
425 2.10557
430 2.14774
435 2.41726
440 2.34695
445 2.70391
450 2.98034
455 3.3195
460 3.35468
465 3.93673
470 3.94406
475 3.94003
480 4.2031
485 4.7698
490 5.12743
495 5.56605
500 6.47126
505 7.92887
510 9.7064
515 13.0358
520 17.9953
525 28.0091
530 863.691
535 9999.9
540 9999.9
545 5756.36
550 692.709
555 96.3485
560 22.7682
565 11.4559
570 7.96543
575 5.6233
580 4.64577
585 4.08136
590 3.72203
595 3.42619
600 2.99609
Ex : 548
200 0.760491
205 0.878561
210 0.824292
215 0.866006
220 0.928024
225 0.768936
230 0.848952
235 0.911877
240 0.876102
245 0.894233
250 0.731991
255 0.846551
260 0.901813
265 17.1928
270 58.1501
275 14.6166
280 2.68207
285 1.27359
290 1.11045
295 1.13251
300 1.19607
305 1.19513
310 0.94907
315 1.24014
320 1.33139
325 1.25258
330 1.09436
335 1.12306
340 1.27331
345 1.26734
350 1.34236
355 1.50072
360 1.46855
365 1.40992
370 1.4109
375 1.4497
380 1.4671
385 1.70512
390 1.52399
395 1.72405
400 1.86104
405 1.80034
410 2.01433
415 2.02867
420 2.24083
425 2.34546
430 2.20545
435 2.26035
440 2.49721
445 2.70541
450 2.8125
455 3.1655
460 3.4737
465 3.6116
470 3.85428
475 3.91969
480 4.41264
485 4.57776
490 4.843
495 5.30886
500 5.50198
505 6.42318
510 8.08545
515 9.75541
520 12.8411
525 18.4892
530 27.813
535 947.532
540 9999.9
545 9999.9
550 5662.85
555 679.95
560 94.5548
565 22.1109
570 11.4115
575 7.63573
580 5.28027
585 4.13461
590 3.99497
595 3.76517
600 2.67806
Ex : 553
200 0.909622
205 0.823514
210 0.911279
215 0.782134
220 0.773369
225 0.905091
230 0.888664
235 0.852434
240 1.01827
245 0.904405
250 0.836386
255 0.839208
260 0.930886
265 2.86274
270 56.1966
275 48.5569
280 6.88152
285 1.69827
290 1.19037
295 1.18201
300 1.26067
305 1.13817
310 1.11093
315 1.14918
320 1.22731
325 1.33635
330 1.21865
335 1.3161
340 1.25215
345 1.32555
350 1.24903
355 1.41446
360 1.45361
365 1.2701
370 1.51107
375 1.49999
380 1.5037
385 1.5438
390 1.5807
395 1.70707
400 1.84299
405 1.93326
410 1.94491
415 1.82776
420 1.95495
425 2.17801
430 2.37356
435 2.23806
440 2.37795
445 2.52613
450 2.97314
455 3.14406
460 3.18711
465 3.47549
470 3.52369
475 3.5356
480 3.81821
485 4.07151
490 4.3951
495 4.60825
500 5.12014
505 5.4948
510 6.52204
515 7.5804
520 9.75733
525 13.5183
530 17.8814
535 27.5251
540 832.626
545 9999.9
550 9999.9
555 5836.95
560 702.466
565 97.2804
570 22.2429
575 10.6333
580 7.35842
585 5.12948
590 4.02631
595 3.75953
600 2.35215
Ex : 558
200 0.865164
205 0.923277
210 0.860493
215 1.05709
220 0.783757
225 0.890651
230 0.853372
235 0.850277
240 0.840557
245 0.969201
250 0.942279
255 1.00532
260 1.14458
265 1.08292
270 23.4367
275 89.7293
280 22.8112
285 3.644
290 1.4638
295 1.18228
300 1.21405
305 1.05452
310 1.20525
315 1.21875
320 1.33156
325 1.3243
330 1.39341
335 1.38173
340 1.21478
345 1.30089
350 1.41469
355 1.38277
360 1.35566
365 1.46099
370 1.40724
375 1.51838
380 1.42853
385 1.39108
390 1.64967
395 1.60354
400 1.67551
405 1.74112
410 2.0989
415 1.89162
420 1.76499
425 1.7984
430 2.18164
435 2.30722
440 2.39196
445 2.59889
450 2.74654
455 2.84938
460 3.1695
465 3.52217
470 3.54622
475 3.46831
480 3.52367
485 3.77435
490 4.06459
495 4.40257
500 4.78166
505 5.25776
510 5.77379
515 6.25978
520 8.00352
525 10.338
530 12.8429
535 17.6394
540 27.1054
545 780.023
550 9999.9
555 9999.9
560 6017.32
565 723.966
570 99.0356
575 21.8499
580 10.2841
585 6.76727
590 4.96906
595 3.92269
600 4.35187
Ex : 563
200 0.956591
205 0.868609
210 0.896792
215 0.797189
220 0.911592
225 0.867101
230 0.769804
235 1.00036
240 0.924481
245 0.882847
250 0.864304
255 0.905666
260 0.999411
265 0.986365
270 3.64324
275 79.5042
280 66.0517
285 9.581
290 2.13992
295 1.33516
300 1.17198
305 1.32124
310 1.24247
315 1.20413
320 1.26793
325 1.16162
330 1.32831
335 1.58138
340 1.35478
345 1.39325
350 1.33942
355 1.30916
360 1.38359
365 1.55436
370 1.32589
375 1.44053
380 1.54862
385 1.54701
390 1.46064
395 1.52332
400 1.72846
405 1.76605
410 1.92728
415 1.88499
420 1.94124
425 1.9356
430 1.92195
435 2.16121
440 2.20912
445 2.423
450 2.81868
455 2.90917
460 2.89612
465 3.13962
470 3.42074
475 3.31711
480 3.84147
485 3.5915
490 3.82328
495 4.13487
500 4.19135
505 4.58777
510 5.19496
515 5.45657
520 6.21896
525 8.2523
530 9.73439
535 12.3976
540 17.7858
545 27.2535
550 778.273
555 9999.9
560 9999.9
565 5792.23
570 696.604
575 94.3405
580 20.3195
585 8.96766
590 6.43114
595 4.40346
600 2.74078
Ex : 568
200 0.880185
205 0.811662
210 0.839616
215 0.924152
220 0.820904
225 0.9681
230 0.989478
235 0.87329
240 0.89942
245 0.792993
250 0.780372
255 1.00523
260 0.982446
265 0.941765
270 1.05689
275 28.791
280 115.808
285 31.7751
290 4.63428
295 1.46222
300 1.09987
305 1.3728
310 1.33147
315 1.20194
320 1.35357
325 1.27979
330 1.22993
335 1.4631
340 1.27357
345 1.3136
350 1.31642
355 1.32103
360 1.53298
365 1.45254
370 1.29283
375 1.41326
380 1.55129
385 1.3978
390 1.44815
395 1.42151
400 1.42022
405 1.71395
410 1.71227
415 1.85785
420 1.81648
425 1.86094
430 1.8279
435 1.85111
440 2.12888
445 2.48473
450 2.44416
455 2.87903
460 3.06358
465 3.18007
470 3.19867
475 3.33679
480 3.2372
485 3.39492
490 3.58183
495 3.53123
500 3.71416
505 4.30141
510 4.66377
515 4.60251
520 5.48418
525 6.21164
530 7.44214
535 9.21163
540 12.0969
545 16.9404
550 26.3771
555 596.08
560 9999.9
565 9999.9
570 6106.35
575 737.176
580 97.7468
585 20.1158
590 9.01103
595 5.88014
600 4.79728
Ex : 573
200 0.769099
205 0.911148
210 1.05667
215 0.877559
220 0.728139
225 0.719126
230 0.717415
235 0.765865
240 0.909473
245 0.904673
250 0.870027
255 0.90254
260 0.950379
265 0.949759
270 1.05354
275 3.4993
280 95.7026
285 89.7862
290 12.5872
295 2.59208
300 1.38926
305 1.20236
310 1.28544
315 1.26051
320 1.17266
325 1.24541
330 1.32851
335 1.40741
340 1.49766
345 1.347
350 1.34266
355 1.32244
360 1.20568
365 1.32942
370 1.31062
375 1.28365
380 1.35472
385 1.54709
390 1.42407
395 1.64803
400 1.56633
405 1.76594
410 1.69035
415 1.93673
420 1.91333
425 1.65645
430 2.07101
435 1.83617
440 2.00951
445 2.12432
450 2.37264
455 2.30145
460 2.6432
465 3.0778
470 3.11992
475 3.31177
480 3.02872
485 3.29686
490 3.35558
495 3.65253
500 3.59003
505 3.96369
510 4.07098
515 4.48869
520 5.0694
525 5.00568
530 5.99935
535 7.02829
540 8.8321
545 11.5368
550 16.142
555 24.0306
560 500.152
565 9999.9
570 9999.9
575 5934.05
580 714.035
585 93.7405
590 18.8365
595 8.52668
600 6.61402
Ex : 578
200 0.760333
205 0.813547
210 0.830748
215 1.02882
220 0.882929
225 0.9287
230 0.803049
235 0.864903
240 0.774959
245 0.916043
250 0.823906
255 0.774809
260 0.817758
265 0.962258
270 0.759346
275 1.16783
280 33.8061
285 139.51
290 37.7726
295 5.40994
300 1.54735
305 1.24082
310 1.12806
315 1.3812
320 1.2507
325 1.36793
330 1.08537
335 1.22145
340 1.36783
345 1.19883
350 1.07887
355 1.31175
360 1.28276
365 1.35792
370 1.23036
375 1.38641
380 1.44692
385 1.37226
390 1.62497
395 1.39657
400 1.59642
405 1.57054
410 1.54015
415 1.49784
420 1.7411
425 1.90976
430 1.80732
435 1.89367
440 1.80717
445 2.03087
450 2.07679
455 2.34031
460 2.62727
465 2.60199
470 2.65693
475 2.89676
480 2.80877
485 3.05846
490 3.21834
495 3.17019
500 3.30047
505 3.57704
510 3.49717
515 3.99713
520 3.9039
525 4.51092
530 4.9666
535 5.79168
540 6.59123
545 8.55251
550 11.1981
555 15.4347
560 23.1896
565 456.588
570 9999.9
575 9999.9
580 5265.02
585 630.624
590 83.1324
595 16.7562
600 6.59186
Ex : 583
200 0.864351
205 0.865318
210 0.657965
215 0.732881
220 0.901274
225 0.810991
230 0.86118
235 0.783925
240 0.912772
245 0.704575
250 0.649944
255 0.65637
260 0.842367
265 0.986379
270 0.677949
275 0.908232
280 4.31597
285 107.978
290 102.209
295 14.1595
300 2.63327
305 1.09272
310 1.035
315 1.15595
320 1.22561
325 1.25647
330 1.19879
335 1.20594
340 1.12426
345 1.13165
350 1.17191
355 1.37769
360 1.16254
365 1.41207
370 1.20236
375 1.34391
380 1.32513
385 1.24721
390 1.53951
395 1.49017
400 1.40497
405 1.45547
410 1.48707
415 1.316
420 1.41602
425 1.56324
430 1.70359
435 1.6386
440 1.63384
445 1.78163
450 1.81983
455 2.08415
460 2.38028
465 2.37759
470 2.46769
475 2.45005
480 2.92025
485 2.90684
490 3.01141
495 3.07001
500 3.36168
505 3.07665
510 3.52558
515 3.59936
520 3.67148
525 3.89864
530 4.44896
535 5.0135
540 5.52798
545 6.60106
550 8.30703
555 10.7452
560 14.6279
565 21.9595
570 402.102
575 9999.9
580 9999.9
585 4524.1
590 542.296
595 71.2679
600 14.2334
Ex : 588
200 0.637654
205 0.687593
210 0.798296
215 0.595897
220 0.620724
225 0.58558
230 0.659884
235 0.850213
240 0.823687
245 0.747049
250 0.816118
255 0.788377
260 0.805447
265 0.697609
270 0.75505
275 0.815003
280 0.958047
285 37.117
290 167.719
295 48.2297
300 6.46885
305 1.62126
310 1.05217
315 1.24622
320 1.23122
325 1.08273
330 1.05853
335 1.11344
340 1.17122
345 1.07912
350 1.12986
355 1.24585
360 1.14505
365 1.24196
370 1.24128
375 1.25208
380 1.19143
385 1.18981
390 1.33384
395 1.19731
400 1.27504
405 1.41313
410 1.29658
415 1.09543
420 1.50969
425 1.40077
430 1.42727
435 1.4547
440 1.58884
445 1.90635
450 2.08292
455 1.68001
460 1.93016
465 2.41062
470 2.49782
475 2.51627
480 2.32988
485 2.54491
490 2.51471
495 2.66495
500 2.71441
505 2.91437
510 2.80729
515 3.24331
520 3.22643
525 3.38754
530 3.51672
535 4.44955
540 4.56005
545 5.40538
550 6.64401
555 8.20592
560 10.0366
565 13.4591
570 19.7807
575 356.358
580 9143.76
585 9999.9
590 4297.5
595 513.831
600 70.3879
Ex : 593
200 0.612583
205 0.721263
210 0.759829
215 0.710616
220 0.642263
225 0.653987
230 0.810979
235 0.567441
240 0.662792
245 0.713935
250 0.73684
255 0.734509
260 0.645272
265 0.795378
270 0.752378
275 0.767226
280 0.911424
285 3.93656
290 127.415
295 128.799
300 18.0264
305 3.0457
310 1.30119
315 1.03928
320 1.16538
325 1.10435
330 0.999493
335 1.22776
340 1.0557
345 1.25357
350 1.02966
355 1.2106
360 1.29012
365 0.967674
370 1.0654
375 1.21984
380 1.14843
385 1.13026
390 1.05825
395 1.26495
400 1.41083
405 1.47006
410 1.369
415 1.41715
420 1.31435
425 1.43205
430 1.49381
435 1.45286
440 1.63086
445 1.71747
450 1.72832
455 1.95273
460 1.96223
465 1.98473
470 2.21297
475 2.29252
480 2.22716
485 2.57482
490 2.5159
495 2.39041
500 2.74078
505 2.58915
510 2.91957
515 2.72912
520 3.26522
525 3.24284
530 3.72483
535 3.88696
540 3.68878
545 4.49149
550 5.02312
555 6.34372
560 7.70861
565 9.47188
570 12.3723
575 17.4688
580 310.539
585 8238.76
590 9999.9
595 3877.14
600 563.58
Ex : 598
200 0.579376
205 0.792419
210 0.633211
215 0.732352
220 0.61012
225 0.671561
230 0.59484
235 0.717978
240 0.653948
245 0.631464
250 0.711678
255 0.679846
260 0.66433
265 0.652511
270 0.710093
275 0.824068
280 0.805874
285 0.893775
290 41.0626
295 194.34
300 57.9056
305 7.73266
310 2.1307
315 1.09303
320 1.1191
325 1.22486
330 1.21112
335 1.05414
340 1.03842
345 1.28057
350 1.01049
355 1.1741
360 1.01525
365 1.03966
370 1.0674
375 1.23062
380 1.18819
385 1.16672
390 1.34512
395 1.26999
400 1.24953
405 1.32414
410 1.4104
415 1.25762
420 1.3117
425 1.18486
430 1.27259
435 1.57135
440 1.53345
445 1.41181
450 1.67965
455 1.62237
460 1.98198
465 2.23958
470 2.04535
475 2.13735
480 2.1525
485 2.48111
490 2.24307
495 2.39389
500 2.20538
505 2.48674
510 2.90925
515 2.67398
520 3.04493
525 3.07262
530 3.07884
535 3.53141
540 3.55146
545 3.86558
550 4.18175
555 4.86789
560 5.74083
565 7.08651
570 9.1232
575 11.2992
580 15.7516
585 303.418
590 7415.07
595 9999.9
600 8141.39
Ex : 603
200 0.663201
205 0.595164
210 0.660071
215 0.676032
220 0.644594
225 0.522981
230 0.622882
235 0.571416
240 0.56387
245 0.671697
250 0.597774
255 0.620694
260 0.51134
265 0.848644
270 0.572226
275 0.793566
280 0.820537
285 0.992144
290 4.13838
295 145.854
300 156.9
305 21.9039
310 3.69018
315 1.29004
320 1.28906
325 1.08848
330 1.24177
335 1.13654
340 1.01235
345 0.947926
350 1.10261
355 0.990028
360 1.02584
365 1.08373
370 1.05646
375 1.16339
380 1.13372
385 1.22653
390 1.17404
395 1.10187
400 1.1666
405 1.24064
410 1.35081
415 1.23802
420 1.32639
425 1.42096
430 1.63435
435 1.45042
440 1.21722
445 1.37487
450 1.79919
455 1.62319
460 2.08702
465 2.19693
470 1.88675
475 1.766
480 2.15825
485 2.21202
490 2.32973
495 2.22338
500 2.17224
505 2.44274
510 2.40254
515 2.6023
520 2.48886
525 2.37355
530 2.65089
535 2.97011
540 3.53511
545 3.53632
550 3.65602
555 4.11843
560 4.76672
565 5.39616
570 6.31149
575 7.74068
580 9.9718
585 14.0757
590 264.649
595 6457.02
600 9999.9
