File format V 1.0
jeu. 12. mai 15:00:10 2016
Operator : 
Comments : 

=============================================
SpectroFluorometer parameters
Mode : 3D measurement
Data : Fluorescence
Phospho. : Ordinary
Spectrum : Fluorescence

Scan speed : 2400 nm/mn
Response : 100 ms
PM Voltage : 700 V
Shutter : On

Lambda Ex. Start : 203
Lambda Ex. End : 603
Lambda Ex. Step : 5
Ex. Slit : 5 nm

Lambda Em. Start : 200
Lambda Em. End : 600
Lambda Em. Step : 5
Em. Slit : 5 nm

Repetition : 1
Decal lambda em : 10
=============================================
DATA
Ex : 203
200 7.67052
205 8.35304
210 10.116
215 7.42631
220 10.4638
225 7.14828
230 6.65702
235 9.41839
240 9.23202
245 8.81267
250 8.01904
255 8.22241
260 8.54309
265 9.14385
270 8.27965
275 6.075
280 11.1017
285 6.39917
290 7.31284
295 10.6596
300 9.72784
305 11.1279
310 11.1182
315 8.94912
320 7.61959
325 8.28131
330 10.7431
335 12.6282
340 13.7773
345 11.4836
350 9.94988
355 8.00646
360 8.41166
365 10.7998
370 10.5157
375 10.396
380 9.56168
385 12.6481
390 12.535
395 9.75386
400 10.6184
405 15.2825
410 9.50321
415 11.3941
420 13.1345
425 10.8357
430 13.5316
435 16.2179
440 12.2683
445 11.5066
450 9.48864
455 10.4093
460 12.9112
465 13.5911
470 12.4052
475 9.8306
480 10.1872
485 11.3913
490 7.40617
495 8.4219
500 10.0686
505 11.5807
510 10.7895
515 8.11098
520 11.1618
525 9.29704
530 11.3223
535 14.4906
540 11.4884
545 13.2832
550 12.8262
555 14.0074
560 12.0635
565 11.9325
570 9.83312
575 10.557
580 11.4484
585 9.18015
590 7.60158
595 6.79767
600 11.7034
Ex : 208
200 9.29412
205 8.84321
210 10.4031
215 8.15156
220 8.88319
225 9.19458
230 10.0717
235 9.81551
240 10.4523
245 8.06694
250 9.89951
255 8.43771
260 8.81147
265 9.58301
270 7.66764
275 7.22117
280 13.4862
285 7.02816
290 7.8527
295 10.3236
300 12.3057
305 9.71991
310 9.37732
315 12.1016
320 15.1158
325 9.06446
330 9.14994
335 8.78694
340 11.4849
345 10.1311
350 13.6158
355 11.9586
360 9.85855
365 10.9916
370 9.95617
375 9.45748
380 12.5226
385 10.7229
390 10.9959
395 11.1387
400 12.3102
405 8.65604
410 9.65463
415 12.3308
420 8.99484
425 10.9297
430 9.38949
435 11.0459
440 14.6199
445 9.6344
450 10.8496
455 10.817
460 12.9601
465 17.5324
470 13.0597
475 12.5264
480 12.9461
485 10.0467
490 12.4147
495 12.1282
500 11.9505
505 11.4486
510 13.3216
515 10.9068
520 11.1568
525 8.19478
530 8.99033
535 13.827
540 9.32774
545 11.4731
550 13.9531
555 14.3896
560 14.3779
565 10.9064
570 9.81275
575 9.57152
580 7.72277
585 11.472
590 12.2883
595 8.84147
600 2.18773
Ex : 213
200 10.6126
205 6.82192
210 9.38801
215 10.0411
220 7.11555
225 10.8014
230 9.42778
235 7.6006
240 9.52669
245 10.7831
250 7.05953
255 6.45986
260 8.39759
265 8.90071
270 9.96002
275 14.7387
280 10.1683
285 8.61935
290 7.38172
295 7.75719
300 8.45955
305 8.39128
310 12.6801
315 8.47811
320 9.35554
325 6.99609
330 8.17632
335 10.1489
340 8.49774
345 9.79234
350 12.4148
355 11.2584
360 9.28161
365 10.2552
370 9.08188
375 9.45757
380 10.7855
385 9.57512
390 12.9344
395 9.51371
400 14.0582
405 14.819
410 10.303
415 12.5712
420 10.9518
425 10.1699
430 11.6772
435 8.21105
440 11.5199
445 11.5706
450 11.572
455 9.98042
460 9.1871
465 13.5502
470 10.3154
475 13.1351
480 9.28905
485 10.1382
490 16.3711
495 16.3715
500 13.8292
505 9.31998
510 13.0907
515 10.9798
520 7.43352
525 7.69674
530 10.3333
535 13.349
540 7.50328
545 13.0627
550 10.1184
555 13.1152
560 16.2116
565 14.584
570 9.35433
575 10.2706
580 10.6451
585 9.27161
590 17.1996
595 10.2925
600 4.42066
Ex : 218
200 7
205 12.8198
210 7.62288
215 10.6009
220 7.98921
225 6.42935
230 8.26437
235 8.28753
240 7.60472
245 10.2539
250 9.05676
255 11.5112
260 10.8683
265 6.80355
270 8.72162
275 14.3107
280 9.87303
285 8.85894
290 7.37619
295 8.03743
300 8.41533
305 9.88223
310 8.96654
315 9.31606
320 7.49434
325 9.9545
330 11.3119
335 11.2749
340 12.6465
345 9.97717
350 11.3979
355 10.7819
360 10.1667
365 10.2153
370 10.0436
375 10.1134
380 8.24531
385 13.007
390 12.4038
395 11.6358
400 11.8904
405 9.18121
410 12.6762
415 10.3514
420 8.77464
425 13.7515
430 15.87
435 15.537
440 10.1499
445 10.913
450 16.0617
455 12.8197
460 11.7162
465 13.7258
470 11.3153
475 10.1843
480 9.96994
485 12.7244
490 10.5827
495 11.3458
500 10.7711
505 11.0359
510 15.2171
515 11.5762
520 13.13
525 12.1752
530 9.92392
535 12.4162
540 10.5162
545 11.1479
550 14.1185
555 13.3427
560 11.661
565 13.3165
570 10.7132
575 9.39086
580 8.46183
585 8.4748
590 7.55852
595 8.17483
600 35.9353
Ex : 223
200 12.1017
205 9.87426
210 7.65997
215 8.08995
220 7.88151
225 9.18383
230 10.5729
235 9.24408
240 10.35
245 8.15292
250 5.98771
255 5.97985
260 9.36983
265 10.459
270 8.39605
275 10.1691
280 9.62243
285 9.40887
290 11.0306
295 8.64028
300 7.70552
305 14.772
310 9.94151
315 8.51634
320 10.2579
325 9.34542
330 10.074
335 12.4249
340 10.3985
345 8.86042
350 12.4787
355 11.7397
360 13.1974
365 11.0817
370 9.95173
375 10.0245
380 9.93883
385 7.57924
390 9.82512
395 8.79047
400 13.3706
405 12.3099
410 9.94955
415 10.5774
420 11.2921
425 10.5925
430 12.0541
435 10.1819
440 13.843
445 15.8329
450 15.1274
455 10.771
460 12.9667
465 14.4251
470 12.604
475 10.1641
480 10.4829
485 12.3666
490 11.2922
495 7.01518
500 8.20476
505 13.7297
510 11.3733
515 9.62001
520 10.5124
525 10.1748
530 11.6239
535 9.74636
540 11.6221
545 13.5454
550 12.7012
555 9.19844
560 10.2185
565 10.8784
570 9.46117
575 10.4476
580 10.0959
585 10.6911
590 10.5242
595 10.2737
600 25.8056
Ex : 228
200 13.19
205 7.4616
210 10.9572
215 6.74568
220 10.6123
225 10.3878
230 7.83544
235 6.90721
240 6.07298
245 5.55396
250 8.34527
255 9.38632
260 8.2226
265 8.44113
270 7.96158
275 8.11285
280 10.5833
285 8.43647
290 10.9138
295 10.9688
300 11.1205
305 8.70869
310 9.99867
315 10.4942
320 11.9997
325 13.755
330 11.2502
335 17.8077
340 11.4736
345 13.2436
350 12.083
355 11.0541
360 13.5893
365 12.1585
370 8.61058
375 12.3045
380 9.17081
385 13.7754
390 8.99265
395 9.70057
400 12.1235
405 11.9199
410 10.5001
415 9.11832
420 10.0495
425 13.1476
430 9.00373
435 9.54317
440 8.30788
445 10.7569
450 23.1828
455 35.2779
460 31.3165
465 20.9549
470 14.2287
475 10.806
480 11.3475
485 13.7575
490 12.0071
495 11.8131
500 12.7429
505 9.02106
510 11.5368
515 9.107
520 12.5764
525 10.7048
530 10.3976
535 11.6755
540 12.1184
545 9.96467
550 9.42628
555 10.5592
560 11.4134
565 10.8671
570 12.6509
575 12.1962
580 11.8682
585 11.7433
590 9.33369
595 9.44155
600 7.9868
Ex : 233
200 6.81818
205 8.49456
210 6.40753
215 7.3464
220 7.98326
225 9.41914
230 12.5763
235 10.2333
240 9.97923
245 8.33648
250 6.61788
255 6.32695
260 8.22527
265 6.60933
270 6.79658
275 6.78437
280 7.78981
285 8.71972
290 8.20059
295 8.79087
300 8.84633
305 7.5278
310 8.03639
315 9.82086
320 10.6392
325 9.87959
330 12.7972
335 16.0746
340 15.9846
345 15.9695
350 13.9541
355 14.2561
360 19.3464
365 11.6626
370 10.9183
375 8.84185
380 11.218
385 13.2188
390 13.0857
395 9.41969
400 9.94937
405 9.73526
410 12.0377
415 8.50716
420 8.53314
425 10.4968
430 8.72921
435 7.61284
440 11.1447
445 10.4995
450 9.46337
455 19.9306
460 60.5469
465 103.542
470 60.2462
475 18.2757
480 13.9368
485 12.4377
490 12.4722
495 10.1927
500 10.371
505 16.3432
510 8.77138
515 8.83406
520 10.1372
525 9.37332
530 12.3445
535 10.836
540 13.9814
545 10.0579
550 9.18734
555 9.2196
560 10.5342
565 10.3046
570 10.2789
575 10.5986
580 8.06147
585 10.8756
590 8.60939
595 9.5918
600 19.7018
Ex : 238
200 9.26923
205 6.20521
210 7.25195
215 5.51897
220 4.25759
225 6.63538
230 16.4058
235 25.5168
240 12.3977
245 8.8319
250 6.15865
255 8.13076
260 7.82448
265 6.5742
270 7.30332
275 7.66806
280 8.04021
285 6.6525
290 8.54738
295 9.01855
300 7.33098
305 7.92734
310 7.10915
315 7.07819
320 7.678
325 10.411
330 11.2782
335 10.7651
340 9.23779
345 10.8357
350 13.724
355 8.70249
360 10.336
365 12.7872
370 10.5756
375 10.9655
380 10.5279
385 11.0349
390 10.8281
395 12.1701
400 9.52124
405 12.3389
410 13.2878
415 8.84144
420 10.0182
425 8.93501
430 11.8812
435 8.91246
440 8.05952
445 10.798
450 8.99344
455 9.0933
460 11.57
465 53.692
470 152.843
475 183.599
480 102.378
485 26.9273
490 9.80357
495 9.81169
500 9.1166
505 12.2307
510 16.4845
515 16.0235
520 12.8314
525 14.1103
530 9.86244
535 7.64861
540 9.61266
545 8.07964
550 9.88911
555 10.9809
560 11.0609
565 9.55924
570 9.41671
575 9.33821
580 10.7389
585 8.05543
590 10.1507
595 9.00286
600 10.8993
Ex : 243
200 6.45171
205 5.71099
210 4.65795
215 5.55692
220 4.70254
225 5.05231
230 8.02313
235 22.9105
240 30.5168
245 12.4872
250 6.9051
255 6.76616
260 6.08719
265 5.17139
270 5.65081
275 7.74485
280 5.30124
285 7.61287
290 5.94741
295 7.55432
300 6.51312
305 8.6812
310 10.2961
315 7.2665
320 9.91344
325 9.16026
330 8.94439
335 8.8474
340 13.2616
345 11.5672
350 10.4492
355 10.1486
360 10.6507
365 11.9782
370 11.6454
375 10.1725
380 7.29751
385 8.88256
390 8.7897
395 10.4814
400 9.25241
405 8.31639
410 9.22247
415 8.51553
420 8.88479
425 9.26091
430 8.49554
435 6.94791
440 7.96345
445 8.88204
450 8.47588
455 6.75307
460 11.9021
465 8.92794
470 16.2056
475 86.8136
480 203.603
485 224.001
490 105.279
495 24.2036
500 9.75702
505 8.70549
510 11.2003
515 13.0763
520 13.6783
525 18.0522
530 14.7354
535 9.03
540 7.48176
545 7.91747
550 7.42091
555 6.83099
560 7.49399
565 6.30383
570 10.6762
575 7.67813
580 8.19159
585 8.48379
590 7.96839
595 8.00545
600 14.6964
Ex : 248
200 3.09524
205 4.33046
210 5.51303
215 4.48467
220 3.87312
225 4.14625
230 4.15407
235 6.28365
240 24.3111
245 32.5482
250 9.22685
255 5.06175
260 3.75157
265 7.61474
270 8.87445
275 6.46457
280 4.1376
285 5.11367
290 5.96244
295 7.30171
300 6.64583
305 7.15559
310 7.95783
315 6.18478
320 7.93747
325 7.79355
330 7.85427
335 7.33485
340 8.43139
345 11.4828
350 9.06633
355 8.23725
360 10.0763
365 8.83356
370 8.72377
375 8.44016
380 9.30916
385 7.56696
390 8.86349
395 8.52015
400 7.71536
405 6.6151
410 7.59201
415 8.66908
420 9.26975
425 7.57275
430 7.13822
435 8.18268
440 6.23637
445 6.98165
450 7.75071
455 6.89429
460 7.05407
465 7.5866
470 8.2459
475 6.94401
480 19.4992
485 93.0583
490 208.251
495 202.047
500 89.0016
505 18.9358
510 11.171
515 8.98358
520 8.30166
525 11.3487
530 14.6721
535 14.953
540 13.2197
545 11.2915
550 7.10126
555 7.23655
560 7.97139
565 8.05377
570 7.76074
575 7.47337
580 7.79359
585 9.50206
590 7.98295
595 7.52296
600 12.9306
Ex : 253
200 3.35654
205 3.22241
210 3.51272
215 3.78794
220 3.18919
225 2.94768
230 2.78066
235 3.00161
240 4.63347
245 23.5369
250 41.4809
255 14.585
260 4.93754
265 3.99043
270 6.95292
275 6.10651
280 5.93242
285 5.78174
290 5.4262
295 6.2757
300 6.23148
305 7.36138
310 8.44916
315 7.71211
320 7.30117
325 8.28924
330 7.7684
335 6.43604
340 8.14257
345 10.1191
350 8.55348
355 8.36982
360 8.67616
365 8.52573
370 8.99683
375 7.38939
380 7.23655
385 7.48322
390 8.52447
395 6.55848
400 6.80331
405 6.6835
410 6.22775
415 6.11714
420 5.98534
425 5.92714
430 8.25538
435 7.65674
440 5.34673
445 7.3995
450 5.23661
455 5.31358
460 6.85553
465 7.09673
470 6.40222
475 6.43302
480 5.27241
485 4.9723
490 18.3437
495 103.487
500 199.722
505 228.635
510 145.361
515 32.0323
520 11.9528
525 8.72161
530 7.94726
535 8.10248
540 12.8963
545 16.3866
550 13.2526
555 10.7175
560 7.77174
565 6.93917
570 6.27919
575 6.88042
580 6.93799
585 7.72354
590 6.65925
595 8.09132
600 7.56729
Ex : 258
200 2.84967
205 2.57727
210 3.17452
215 3.90019
220 2.12059
225 2.82583
230 3.62496
235 2.68881
240 2.38739
245 3.15403
250 53.563
255 106.401
260 31.1396
265 6.85796
270 4.71267
275 7.15337
280 8.12412
285 5.44779
290 6.44673
295 7.44995
300 8.64351
305 9.21222
310 7.18971
315 8.23862
320 8.62236
325 8.38838
330 8.7593
335 9.57523
340 7.91296
345 8.46035
350 8.77681
355 8.59522
360 8.51156
365 8.76282
370 9.18033
375 8.46151
380 7.99209
385 8.51209
390 7.02923
395 6.72755
400 5.42257
405 6.68662
410 6.51679
415 6.7231
420 5.62905
425 4.52985
430 5.99626
435 4.54106
440 5.10822
445 5.44159
450 7.05534
455 6.69042
460 5.88624
465 6.76193
470 5.37833
475 5.32921
480 4.75225
485 5.22776
490 5.4354
495 5.63987
500 21.0764
505 156.727
510 456.862
515 590.994
520 301.979
525 57.8687
530 15.8382
535 8.63558
540 6.90259
545 8.75549
550 14.6462
555 19.0485
560 23.3024
565 17.7172
570 13.7143
575 10.7234
580 11.8532
585 10.8956
590 11.5172
595 10.0324
600 7.66158
Ex : 263
200 2.0437
205 1.7778
210 2.87315
215 2.28408
220 3.09844
225 2.89472
230 1.88622
235 2.06541
240 2.43944
245 2.12207
250 7.71107
255 103.447
260 173.395
265 48.8528
270 8.75524
275 6.0594
280 8.48093
285 11.2657
290 8.74207
295 9.48478
300 9.96737
305 9.07914
310 9.72226
315 10.6228
320 11.6045
325 8.69814
330 9.47368
335 9.80368
340 9.62206
345 9.66861
350 8.43629
355 8.83788
360 8.79858
365 8.79062
370 8.49606
375 6.16678
380 5.73213
385 5.78184
390 4.89641
395 5.21871
400 5.60832
405 5.23392
410 4.76796
415 4.92683
420 5.7393
425 5.22904
430 4.8859
435 4.93163
440 4.61096
445 4.96897
450 5.1746
455 4.62056
460 4.46068
465 5.43307
470 4.89467
475 4.67384
480 5.16119
485 5.41405
490 4.67509
495 4.91638
500 4.38913
505 5.02504
510 49.4073
515 325.337
520 920.861
525 978.835
530 409.25
535 73.985
540 18.1519
545 9.23318
550 9.65422
555 10.0802
560 16.3252
565 23.8312
570 25.9536
575 25.1638
580 20.8882
585 16.1082
590 15.6644
595 14.4474
600 13.6964
Ex : 268
200 1.92241
205 1.88116
210 1.1601
215 1.62721
220 2.39243
225 2.26142
230 1.45949
235 1.50543
240 2.05935
245 2.06624
250 2.23579
255 8.73081
260 149.908
265 253.447
270 74.4494
275 11.9079
280 8.24988
285 11.1271
290 14.4201
295 12.8355
300 11.5851
305 10.972
310 10.9503
315 11.1566
320 10.2026
325 11.7316
330 10.9908
335 10.3418
340 9.19778
345 10.5316
350 9.23796
355 8.01975
360 7.54212
365 6.30505
370 6.07117
375 5.17382
380 5.65958
385 5.04922
390 4.7934
395 5.27973
400 4.81415
405 3.78628
410 4.71302
415 4.3637
420 4.23042
425 4.4988
430 4.12654
435 3.97096
440 4.37316
445 4.09535
450 4.23503
455 3.66934
460 4.43507
465 3.66222
470 4.15429
475 4.00378
480 4.61681
485 4.04225
490 4.17802
495 4.12241
500 3.78278
505 4.19336
510 4.87834
515 6.20839
520 64.3604
525 476.958
530 1201.69
535 1233.94
540 515.549
545 92.7244
550 21.567
555 13.2387
560 12.351
565 15.8773
570 19.2456
575 24.0456
580 29.6862
585 29.2345
590 23.6974
595 20.6859
600 22.4144
Ex : 273
200 1.26554
205 1.71073
210 1.26675
215 1.47587
220 0.952616
225 1.29644
230 1.06383
235 1.63038
240 1.61214
245 1.96903
250 1.49087
255 1.64689
260 11.7495
265 209.721
270 375.137
275 98.4502
280 18.111
285 10.3635
290 13.3796
295 17.8388
300 14.7542
305 13.1014
310 11.3282
315 11.1215
320 10.4402
325 11.1486
330 9.99719
335 10.1641
340 9.53322
345 10.3179
350 8.55544
355 8.27054
360 7.29778
365 7.05784
370 6.58256
375 5.30294
380 5.48036
385 4.61294
390 4.42673
395 4.19742
400 4.08912
405 3.76051
410 3.76977
415 3.52475
420 3.94522
425 3.97909
430 4.18185
435 3.65236
440 3.61373
445 3.9362
450 4.78397
455 3.82915
460 4.42366
465 3.92918
470 4.33989
475 3.26187
480 3.26837
485 4.09651
490 3.79495
495 3.97598
500 4.04746
505 3.91734
510 4.53472
515 3.98409
520 4.87006
525 5.90021
530 97.5385
535 700.174
540 1520.74
545 1501.55
550 626.441
555 105.894
560 26.2898
565 18.1859
570 17.0508
575 18.595
580 21.7023
585 28.1606
590 30.3548
595 30.2177
600 26.48
Ex : 278
200 1.27858
205 0.965517
210 1.1905
215 1.05012
220 1.55449
225 1.21885
230 1.14013
235 0.949887
240 1.27159
245 1.35823
250 1.2044
255 1.42838
260 1.53749
265 17.4793
270 287.999
275 514.991
280 128.478
285 21.7201
290 10.9553
295 12.635
300 15.7875
305 15.2805
310 12.3505
315 10.0447
320 10.4995
325 10.7493
330 10.3092
335 8.92701
340 9.75531
345 9.05744
350 8.44057
355 7.5523
360 7.49602
365 6.39825
370 5.22493
375 4.99306
380 4.91508
385 4.96046
390 4.02187
395 3.63395
400 3.75556
405 3.82505
410 3.81558
415 3.38935
420 3.16414
425 2.8161
430 3.63565
435 3.40662
440 2.92015
445 2.99318
450 3.565
455 3.74268
460 3.16886
465 3.15234
470 3.64962
475 3.15974
480 3.16353
485 3.45916
490 2.99489
495 3.10431
500 3.04382
505 2.97791
510 3.77165
515 4.07927
520 3.92046
525 4.93492
530 4.22048
535 7.65505
540 132.351
545 886.419
550 1804.09
555 1657.48
560 700.793
565 120.91
570 28.6979
575 18.4377
580 16.6985
585 16.2431
590 17.7631
595 22.1873
600 30.9792
Ex : 283
200 0.835913
205 1.01047
210 0.765895
215 0.784489
220 1.01625
225 0.861428
230 0.804652
235 0.766369
240 1.09044
245 0.924028
250 1.00203
255 1.03525
260 1.41149
265 1.71768
270 21.4941
275 372.01
280 619.458
285 157.383
290 23.2604
295 8.68529
300 9.26527
305 13.9594
310 13.2492
315 9.87731
320 9.24699
325 9.67198
330 8.98207
335 9.02628
340 8.38134
345 8.54423
350 7.93114
355 8.16931
360 6.48608
365 5.921
370 5.51465
375 4.84939
380 4.01462
385 4.30541
390 3.96475
395 3.82985
400 3.53918
405 3.29454
410 3.40069
415 3.22555
420 3.57233
425 3.52295
430 3.56464
435 3.25029
440 2.93094
445 3.37241
450 2.79511
455 3.09702
460 2.95615
465 2.91829
470 3.11448
475 3.40742
480 3.18122
485 2.91159
490 3.08259
495 2.36818
500 2.93697
505 2.74774
510 2.81871
515 2.78342
520 2.99972
525 2.78982
530 3.23751
535 3.73394
540 4.74292
545 8.19335
550 155.053
555 960.852
560 2023.79
565 1757.15
570 705.761
575 115.006
580 24.4441
585 14.3753
590 12.2726
595 11.7604
600 10.4893
Ex : 288
200 0.938766
205 0.870877
210 0.660913
215 1.10819
220 0.802193
225 0.616213
230 1.0001
235 0.798316
240 0.913019
245 1.05782
250 0.906935
255 0.756994
260 1.06898
265 1.14331
270 1.50083
275 22.3401
280 422.429
285 669.054
290 162.81
295 23.405
300 6.56426
305 6.60332
310 11.3268
315 11.8757
320 9.20317
325 6.72202
330 7.53533
335 6.90279
340 7.14124
345 7.34889
350 6.62793
355 6.48833
360 6.13285
365 5.35739
370 5.48123
375 4.62976
380 4.0094
385 3.91789
390 3.88419
395 3.50619
400 3.64026
405 3.26301
410 3.37818
415 3.28441
420 3.0265
425 3.4253
430 2.9108
435 3.07041
440 2.75019
445 3.28396
450 3.24929
455 2.83384
460 3.03827
465 3.0693
470 3.25194
475 3.11999
480 2.46076
485 2.87062
490 2.82735
495 2.98311
500 2.8676
505 2.56593
510 2.83472
515 2.96192
520 2.73283
525 2.58654
530 2.73031
535 2.7851
540 3.25288
545 4.50984
550 5.37265
555 7.82846
560 177.45
565 1054.88
570 2160.37
575 1799.72
580 685.126
585 105.235
590 20.4983
595 9.62439
600 7.69995
Ex : 293
200 0.964582
205 0.771537
210 0.879039
215 0.75423
220 0.654637
225 0.513529
230 0.764213
235 0.806294
240 0.984701
245 1.18884
250 0.996303
255 1.0832
260 0.97239
265 1.15679
270 1.35055
275 1.46519
280 28.3143
285 475.713
290 729.157
295 182.301
300 25.4395
305 6.99933
310 4.99787
315 9.79103
320 12.7817
325 8.94987
330 6.72535
335 6.41095
340 6.57735
345 6.62181
350 6.12184
355 5.5935
360 5.22146
365 5.44824
370 4.66669
375 4.0675
380 3.87706
385 3.7823
390 3.90296
395 3.49038
400 3.40819
405 2.89558
410 2.90125
415 3.19004
420 2.78183
425 2.50155
430 2.96892
435 3.00519
440 2.84583
445 2.96129
450 2.73282
455 2.79041
460 2.74479
465 2.67802
470 2.94764
475 2.46011
480 2.78292
485 2.59473
490 2.57164
495 2.14674
500 2.39886
505 2.46316
510 2.21687
515 2.14546
520 2.51552
525 2.14584
530 2.54798
535 2.37231
540 2.60128
545 2.79897
550 3.26592
555 3.71338
560 4.34911
565 8.76082
570 193.118
575 1120.96
580 2181.23
585 1707.98
590 591.456
595 87.6406
600 15.5812
Ex : 298
200 0.570084
205 0.706037
210 0.868114
215 0.604603
220 0.679382
225 0.727986
230 0.671988
235 0.74948
240 0.798117
245 0.744675
250 0.92276
255 0.979664
260 0.871459
265 0.872178
270 0.903268
275 1.06644
280 1.75963
285 32.0385
290 551.52
295 809.231
300 197.154
305 27.1166
310 7.10033
315 5.79704
320 9.29893
325 11.8903
330 9.75014
335 6.36059
340 4.9869
345 5.17992
350 5.09181
355 4.52254
360 4.38709
365 3.95064
370 4.0624
375 3.32277
380 3.60287
385 3.26878
390 3.12427
395 3.26813
400 3.37414
405 3.27859
410 2.86501
415 2.71295
420 2.7428
425 2.64326
430 2.48092
435 2.70032
440 2.93106
445 2.70462
450 2.92123
455 2.42997
460 2.78421
465 2.50199
470 2.27824
475 2.19334
480 2.20566
485 2.0678
490 2.08971
495 2.24119
500 2.19423
505 2.2488
510 2.1454
515 2.13698
520 1.90866
525 2.19326
530 1.87037
535 1.978
540 2.22514
545 2.49042
550 2.53815
555 2.77453
560 3.02059
565 3.34672
570 4.38026
575 8.97389
580 217.353
585 1189.1
590 2183.35
595 1607.85
600 929.647
Ex : 303
200 0.428286
205 0.469939
210 0.657579
215 0.844122
220 0.630409
225 0.610162
230 0.65187
235 0.527996
240 0.597246
245 0.620982
250 0.594146
255 0.445667
260 0.752124
265 0.877894
270 1.06127
275 0.805701
280 0.881918
285 1.49654
290 33.0257
295 582.683
300 877.014
305 212.837
310 28.9562
315 6.99785
320 4.66246
325 7.41246
330 10.9974
335 9.35478
340 5.96114
345 4.23729
350 3.77571
355 4.00396
360 3.6163
365 3.45262
370 3.11661
375 2.75662
380 2.72158
385 2.82966
390 2.87756
395 2.7023
400 2.75204
405 3.23589
410 2.80778
415 2.7347
420 2.65457
425 2.53835
430 2.69035
435 2.63812
440 2.64203
445 2.4901
450 2.65769
455 2.26272
460 2.41294
465 2.48007
470 2.19171
475 2.16696
480 2.08897
485 2.16109
490 2.21735
495 2.34369
500 2.31848
505 1.97199
510 1.88651
515 1.91678
520 2.02422
525 1.9517
530 1.848
535 1.64705
540 1.81745
545 1.62068
550 1.8961
555 1.75509
560 2.29905
565 2.26279
570 2.45091
575 3.30666
580 4.24776
585 9.13766
590 237.42
595 1162.9
600 1866.26
Ex : 308
200 0.638819
205 0.716413
210 0.624726
215 0.544377
220 0.639063
225 0.474622
230 0.560865
235 0.905852
240 0.539137
245 0.54342
250 0.657278
255 0.614988
260 0.562864
265 0.614048
270 0.677322
275 0.868131
280 0.828803
285 1.08504
290 1.73898
295 40.3747
300 656.668
305 956.781
310 225.471
315 30.1712
320 6.89282
325 4.09101
330 5.88982
335 9.91933
340 9.56813
345 5.65599
350 3.71848
355 3.04459
360 2.58984
365 2.77987
370 2.5477
375 2.82419
380 2.5593
385 2.32141
390 2.73029
395 2.51762
400 2.55377
405 2.48977
410 2.36611
415 2.44743
420 2.52929
425 2.82392
430 2.53584
435 2.39434
440 2.53589
445 2.61263
450 2.19584
455 2.4061
460 2.29422
465 2.21206
470 2.16848
475 1.98633
480 2.26869
485 1.86842
490 2.17562
495 2.08226
500 1.92163
505 1.92895
510 1.91342
515 1.47047
520 1.79385
525 1.99929
530 1.54959
535 1.86207
540 1.81554
545 1.73113
550 1.73276
555 1.56092
560 1.89918
565 1.65274
570 2.03902
575 2.12012
580 2.11129
585 2.96612
590 3.84948
595 9.8209
600 42.2628
Ex : 313
200 0.506846
205 0.483134
210 0.512775
215 0.362966
220 0.435283
225 0.39713
230 0.492273
235 0.398334
240 0.551533
245 0.664675
250 0.726552
255 0.717232
260 0.675963
265 0.560737
270 0.612006
275 0.829959
280 0.883413
285 0.923136
290 1.1872
295 1.67959
300 41.9729
305 754.445
310 1094.74
315 256.223
320 33.7726
325 7.45667
330 3.38389
335 4.8078
340 9.25129
345 9.64053
350 6.36331
355 3.54041
360 2.61247
365 2.6273
370 2.51688
375 2.14108
380 2.20281
385 2.32078
390 2.2932
395 2.35339
400 2.61543
405 2.36675
410 2.39184
415 2.15477
420 2.18964
425 2.12342
430 2.43673
435 2.20944
440 2.0723
445 2.40848
450 2.59649
455 2.27676
460 2.11627
465 2.26305
470 2.27524
475 2.01047
480 1.91067
485 1.94297
490 1.94321
495 1.67046
500 1.77887
505 2.02622
510 1.75289
515 1.54873
520 1.53929
525 1.63354
530 1.3309
535 1.41385
540 1.59046
545 1.3274
550 1.55065
555 1.57073
560 1.3511
565 1.45641
570 1.51708
575 1.86098
580 1.90079
585 1.9047
590 2.28058
595 2.8457
600 2.24394
Ex : 318
200 0.459809
205 0.462792
210 0.373026
215 0.415606
220 0.432407
225 0.518686
230 0.442677
235 0.609583
240 0.518936
245 0.384348
250 0.537826
255 0.52423
260 0.524809
265 0.468449
270 0.531851
275 0.656955
280 0.683237
285 0.810926
290 0.970034
295 1.35897
300 2.06606
305 53.84
310 839.479
315 1214.07
320 282.128
325 36.5574
330 7.52208
335 3.62479
340 4.19364
345 7.49547
350 9.75754
355 7.31987
360 3.7443
365 2.59278
370 2.53494
375 2.43677
380 2.42468
385 2.24162
390 2.03374
395 2.35327
400 2.25649
405 2.2327
410 2.18406
415 2.3887
420 2.34023
425 2.14324
430 2.14254
435 2.22694
440 2.31061
445 2.59754
450 2.25217
455 2.24333
460 2.17181
465 2.13589
470 1.96032
475 1.72672
480 2.0783
485 1.8345
490 2.09058
495 1.82365
500 1.84318
505 1.76452
510 1.6491
515 1.41508
520 1.36204
525 1.48787
530 1.51317
535 1.21019
540 1.30649
545 1.49993
550 1.63535
555 1.37783
560 1.34753
565 1.33161
570 1.22643
575 1.42977
580 1.44363
585 1.53733
590 1.5557
595 1.78214
600 1.71986
Ex : 323
200 0.367965
205 0.564309
210 0.388284
215 0.422208
220 0.385999
225 0.466134
230 0.3791
235 0.479102
240 0.364579
245 0.422272
250 0.481609
255 0.432328
260 0.375888
265 0.468511
270 0.571742
275 0.540122
280 0.603979
285 0.654594
290 0.78294
295 0.986317
300 1.27958
305 1.8071
310 58.3121
315 925.896
320 1354.69
325 327.607
330 42.0435
335 8.38974
340 3.87204
345 3.61702
350 6.84943
355 9.40584
360 7.44337
365 4.27168
370 2.68253
375 2.26531
380 2.21994
385 2.07209
390 2.28737
395 2.23322
400 2.27433
405 2.27008
410 2.45046
415 2.26649
420 2.0418
425 2.0424
430 2.35612
435 2.12998
440 2.16558
445 2.0682
450 2.25539
455 2.23078
460 2.18284
465 2.41571
470 2.20312
475 2.09921
480 2.09352
485 1.9971
490 2.05881
495 1.82132
500 1.74985
505 1.60588
510 1.78496
515 1.82863
520 1.55863
525 1.44745
530 1.20394
535 1.45302
540 1.35795
545 1.44682
550 1.28242
555 1.27783
560 1.33224
565 1.31947
570 1.30684
575 1.42263
580 1.2967
585 1.13444
590 1.23709
595 1.29618
600 2.80611
Ex : 328
200 0.3579
205 0.465237
210 0.385831
215 0.393853
220 0.390988
225 0.345971
230 0.431574
235 0.418557
240 0.407655
245 0.340581
250 0.512415
255 0.401739
260 0.389106
265 0.529047
270 0.502351
275 0.519312
280 0.517402
285 0.57159
290 0.545611
295 0.862441
300 1.03242
305 1.21543
310 2.09469
315 60.9577
320 1012.08
325 1460.6
330 341.92
335 44.1406
340 8.42083
345 3.84038
350 3.30608
355 5.45829
360 8.70648
365 7.7521
370 4.79273
375 2.46072
380 2.14592
385 2.13632
390 2.11578
395 2.12626
400 1.95957
405 2.21052
410 2.17197
415 2.22198
420 2.18254
425 2.2106
430 2.25035
435 2.09311
440 2.23985
445 2.23026
450 2.37262
455 2.26987
460 2.18368
465 2.2124
470 2.26593
475 1.90597
480 1.91414
485 1.80974
490 2.06208
495 1.87341
500 1.66643
505 1.79818
510 1.53852
515 1.62405
520 1.4565
525 1.5053
530 1.5342
535 1.41699
540 1.38723
545 1.26776
550 1.15672
555 1.11144
560 1.14018
565 1.13758
570 1.04706
575 1.0797
580 1.11127
585 1.0833
590 1.11043
595 1.29244
600 1.36105
Ex : 333
200 0.422255
205 0.284764
210 0.327142
215 0.375081
220 0.529856
225 0.36096
230 0.338083
235 0.380785
240 0.38937
245 0.270956
250 0.384471
255 0.403253
260 0.353583
265 0.407001
270 0.492606
275 0.478789
280 0.469388
285 0.436172
290 0.606107
295 0.582241
300 0.849972
305 0.913653
310 1.28558
315 2.3167
320 72.0277
325 1084.01
330 1529.47
335 360.2
340 45.7796
345 8.23361
350 3.30255
355 2.62887
360 4.38962
365 7.71564
370 8.32435
375 5.52467
380 2.90072
385 2.37705
390 2.17649
395 2.25047
400 2.21958
405 2.26154
410 2.22559
415 2.23342
420 2.04818
425 2.37047
430 2.31904
435 2.176
440 2.16598
445 2.40065
450 2.27387
455 2.27103
460 2.23182
465 2.22755
470 2.24045
475 2.13357
480 1.95958
485 1.88048
490 1.9104
495 1.90719
500 1.86995
505 1.57395
510 1.63759
515 1.62789
520 1.44424
525 1.35931
530 1.34358
535 1.38455
540 1.24563
545 1.15491
550 1.2687
555 1.14845
560 1.12915
565 1.04921
570 1.04683
575 0.853121
580 0.934406
585 0.863737
590 0.930408
595 0.928361
600 1.84461
Ex : 338
200 0.395771
205 0.364779
210 0.343742
215 0.320647
220 0.369909
225 0.303593
230 0.412232
235 0.366717
240 0.388242
245 0.383908
250 0.462872
255 0.350383
260 0.388748
265 0.39123
270 0.398102
275 0.454414
280 0.513988
285 0.466323
290 0.559555
295 0.566974
300 0.598751
305 0.74826
310 0.986125
315 1.32207
320 2.22679
325 78.4129
330 1163.42
335 1623.2
340 381.304
345 47.9128
350 8.53882
355 3.25334
360 2.27474
365 3.16928
370 6.60626
375 8.40574
380 6.2688
385 3.32902
390 2.08055
395 2.28954
400 2.19414
405 2.44126
410 2.42434
415 2.30248
420 2.29309
425 2.39398
430 2.4365
435 2.45402
440 2.29261
445 2.3539
450 2.23198
455 2.1425
460 2.02793
465 2.18256
470 2.09781
475 2.14531
480 1.88133
485 2.1597
490 2.02887
495 1.69835
500 1.81856
505 1.71053
510 1.52974
515 1.41736
520 1.62351
525 1.41845
530 1.40875
535 1.32448
540 1.21207
545 1.1095
550 1.05945
555 1.07813
560 1.02842
565 0.934345
570 0.882423
575 0.884676
580 0.747644
585 0.823135
590 0.765213
595 0.662402
600 0.176659
Ex : 343
200 0.29755
205 0.306692
210 0.216296
215 0.368468
220 0.331802
225 0.325172
230 0.378139
235 0.358019
240 0.280776
245 0.298431
250 0.358786
255 0.36466
260 0.340635
265 0.414165
270 0.38013
275 0.377869
280 0.459931
285 0.419927
290 0.38323
295 0.415665
300 0.648734
305 0.671756
310 0.777633
315 0.922968
320 1.38177
325 2.31048
330 79.4888
335 1210.65
340 1731.7
345 404.543
350 50.575
355 9.01787
360 3.09159
365 1.93371
370 2.69896
375 5.89044
380 7.52997
385 6.6132
390 3.93401
395 2.29172
400 2.16267
405 2.18457
410 2.19831
415 2.17211
420 2.19698
425 2.18269
430 2.2422
435 2.42772
440 2.28348
445 2.13011
450 2.23644
455 2.33427
460 2.47818
465 2.20668
470 2.13957
475 2.26562
480 2.16171
485 2.19976
490 2.06828
495 1.86129
500 1.89917
505 1.82848
510 1.62428
515 1.66393
520 1.668
525 1.53066
530 1.26697
535 1.27156
540 1.35927
545 1.12011
550 1.23368
555 1.12097
560 1.14468
565 1.04563
570 0.912817
575 0.817115
580 0.826618
585 0.639267
590 0.670701
595 0.700987
600 1.88969
Ex : 348
200 0.280314
205 0.290185
210 0.305349
215 0.323877
220 0.27114
225 0.306287
230 0.345952
235 0.30168
240 0.279687
245 0.322658
250 0.328394
255 0.369956
260 0.323139
265 0.324245
270 0.333365
275 0.329612
280 0.443772
285 0.372437
290 0.362587
295 0.573128
300 0.504659
305 0.556998
310 0.657447
315 0.71284
320 1.05441
325 1.34237
330 2.33823
335 76.6949
340 1229.08
345 1806.82
350 453.086
355 56.0323
360 9.74846
365 3.44945
370 2.17091
375 2.28623
380 4.55052
385 7.36104
390 7.41112
395 4.73259
400 2.78768
405 2.223
410 2.1988
415 2.17196
420 2.23784
425 2.15274
430 2.21151
435 2.29739
440 2.31833
445 2.30685
450 2.34849
455 2.30067
460 2.23289
465 2.09645
470 2.19005
475 1.9854
480 1.98409
485 1.95669
490 2.01218
495 1.85228
500 1.86537
505 1.81867
510 1.55483
515 1.64394
520 1.47406
525 1.28353
530 1.30275
535 1.1806
540 1.27926
545 1.19453
550 1.13569
555 1.13368
560 1.1864
565 0.935087
570 0.917214
575 0.716211
580 0.682189
585 0.703478
590 0.639815
595 0.699505
600 0.72372
Ex : 353
200 0.328727
205 0.26483
210 0.276379
215 0.245518
220 0.211215
225 0.267366
230 0.263194
235 0.274292
240 0.310839
245 0.356228
250 0.301044
255 0.33459
260 0.322875
265 0.312592
270 0.303072
275 0.347625
280 0.360359
285 0.359704
290 0.397853
295 0.383271
300 0.475536
305 0.430188
310 0.532755
315 0.633263
320 0.74154
325 1.00965
330 1.38345
335 2.47692
340 79.9109
345 1280.77
350 1839.29
355 444.793
360 54.9744
365 9.51992
370 3.31679
375 2.27617
380 1.92867
385 4.16063
390 6.83267
395 7.47155
400 5.56884
405 3.25128
410 2.31022
415 2.07048
420 2.16365
425 2.25667
430 2.34611
435 2.39714
440 2.30713
445 2.07808
450 2.14741
455 2.27161
460 2.36229
465 2.30271
470 2.14274
475 2.02427
480 2.06639
485 2.0429
490 1.79592
495 1.91772
500 1.67697
505 1.55625
510 1.77112
515 1.48716
520 1.50388
525 1.46485
530 1.29308
535 1.10781
540 1.27337
545 1.01914
550 1.00102
555 1.13158
560 0.942187
565 0.850739
570 0.881927
575 0.892143
580 0.684066
585 0.653795
590 0.641658
595 0.633977
600 0.327626
Ex : 358
200 0.21839
205 0.228511
210 0.318128
215 0.219337
220 0.243775
225 0.272124
230 0.260422
235 0.23701
240 0.195601
245 0.281322
250 0.303629
255 0.286535
260 0.349927
265 0.426707
270 0.339996
275 0.35647
280 0.377853
285 0.316388
290 0.35374
295 0.343161
300 0.397788
305 0.447069
310 0.482892
315 0.544484
320 0.586021
325 0.740138
330 1.09564
335 1.46544
340 2.51358
345 79.9502
350 1281.38
355 1909
360 471.735
365 58.1602
370 9.73863
375 3.51964
380 2.29715
385 1.90723
390 3.18461
395 6.30688
400 7.08905
405 6.20161
410 3.52931
415 2.31986
420 2.17896
425 2.14655
430 2.23316
435 2.28693
440 2.34311
445 2.2236
450 2.29599
455 2.17947
460 2.18105
465 2.07065
470 2.0785
475 1.97855
480 2.10432
485 2.02016
490 1.98981
495 1.80102
500 1.76924
505 1.70216
510 1.70956
515 1.4867
520 1.29954
525 1.33923
530 1.24495
535 1.12917
540 1.19527
545 1.13682
550 1.03998
555 0.919266
560 0.828434
565 0.819016
570 0.757431
575 0.698464
580 0.632358
585 0.612448
590 0.495468
595 0.513398
600 0.185023
Ex : 363
200 0.262768
205 0.196548
210 0.218077
215 0.310244
220 0.234132
225 0.217719
230 0.237799
235 0.205596
240 0.259684
245 0.272654
250 0.303136
255 0.255548
260 0.311656
265 0.232982
270 0.250269
275 0.305917
280 0.286431
285 0.311199
290 0.285586
295 0.300514
300 0.380756
305 0.417018
310 0.427364
315 0.390989
320 0.673283
325 0.671353
330 0.800935
335 1.11727
340 1.39146
345 2.64763
350 73.8452
355 1256.28
360 1964.45
365 510.348
370 62.6007
375 10.1929
380 3.45061
385 2.17434
390 1.98103
395 2.62286
400 5.41669
405 7.05331
410 6.47178
415 4.27911
420 2.5157
425 2.27462
430 2.11046
435 2.23893
440 2.10771
445 2.23113
450 2.16549
455 2.19873
460 2.05694
465 2.16304
470 2.03474
475 2.02528
480 1.9357
485 2.01403
490 1.83321
495 1.69868
500 1.63829
505 1.56067
510 1.62143
515 1.43406
520 1.40536
525 1.26782
530 1.26404
535 1.1432
540 1.06406
545 1.15881
550 1.00846
555 0.909807
560 0.902191
565 0.797059
570 0.686027
575 0.559028
580 0.623735
585 0.503451
590 0.469432
595 0.479883
600 0.280504
Ex : 368
200 0.210758
205 0.215975
210 0.227194
215 0.216553
220 0.23788
225 0.231095
230 0.256443
235 0.252682
240 0.222482
245 0.209687
250 0.261652
255 0.203733
260 0.247602
265 0.273679
270 0.277919
275 0.274501
280 0.298587
285 0.335019
290 0.305657
295 0.280343
300 0.251657
305 0.299472
310 0.433258
315 0.403505
320 0.383229
325 0.499189
330 0.688593
335 0.715836
340 1.09782
345 1.4395
350 2.48594
355 65.3349
360 1272.17
365 2131.94
370 568.374
375 69.7642
380 11.2442
385 3.7938
390 2.37221
395 2.03465
400 2.2046
405 4.43816
410 6.62258
415 6.53147
420 5.06294
425 2.91968
430 2.4154
435 2.38431
440 2.3313
445 2.20348
450 2.33204
455 2.10331
460 2.18973
465 2.15843
470 2.11918
475 2.07477
480 1.95901
485 2.00541
490 1.86919
495 1.72499
500 1.62735
505 1.55316
510 1.45902
515 1.42525
520 1.42852
525 1.32335
530 1.38641
535 1.02949
540 1.07598
545 1.00497
550 0.915892
555 0.83558
560 0.845287
565 0.804731
570 0.633953
575 0.671918
580 0.53922
585 0.527903
590 0.507842
595 0.469181
600 0.420208
Ex : 373
200 0.22144
205 0.218938
210 0.253715
215 0.23317
220 0.216123
225 0.222889
230 0.331327
235 0.262649
240 0.29653
245 0.398703
250 0.242412
255 0.250267
260 0.226823
265 0.27369
270 0.238943
275 0.311992
280 0.297182
285 0.264313
290 0.28656
295 0.310296
300 0.34585
305 0.370294
310 0.391368
315 0.374207
320 0.434818
325 0.532462
330 0.506828
335 0.620931
340 0.782712
345 1.12949
350 1.48174
355 2.46427
360 82.4033
365 1403.67
370 2234.3
375 581.423
380 70.8114
385 11.2965
390 3.89589
395 2.57639
400 2.11188
405 2.23351
410 3.91499
415 6.03093
420 6.26746
425 5.17366
430 3.33351
435 2.33597
440 2.21615
445 2.09168
450 2.03607
455 2.25092
460 2.11997
465 1.98108
470 1.97429
475 2.01077
480 1.90886
485 1.8962
490 1.80591
495 1.76004
500 1.65706
505 1.55098
510 1.51012
515 1.42702
520 1.33764
525 1.29948
530 1.18751
535 1.06493
540 1.0956
545 0.95472
550 0.93791
555 0.834768
560 0.81655
565 0.686288
570 0.610751
575 0.608532
580 0.520719
585 0.508509
590 0.543866
595 0.450481
600 0.273586
Ex : 378
200 0.165538
205 0.212686
210 0.233552
215 0.181081
220 0.187813
225 0.206467
230 0.214884
235 0.204984
240 0.195618
245 0.263144
250 0.291563
255 0.295297
260 0.220818
265 0.270509
270 0.237269
275 0.21249
280 0.276625
285 0.307556
290 0.251144
295 0.278028
300 0.318132
305 0.323399
310 0.366841
315 0.373478
320 0.367897
325 0.425804
330 0.462562
335 0.607666
340 0.676251
345 0.819526
350 1.02993
355 1.69888
360 2.61076
365 77.9892
370 1430.37
375 2307.01
380 596.358
385 72.841
390 11.5636
395 3.98578
400 2.5385
405 2.18126
410 2.05521
415 2.87025
420 5.53728
425 6.04673
430 5.26691
435 3.95131
440 2.46379
445 2.31893
450 2.21156
455 2.12328
460 2.05992
465 1.96806
470 2.0821
475 1.948
480 1.83948
485 1.89271
490 1.71981
495 1.52778
500 1.61114
505 1.48338
510 1.3673
515 1.33504
520 1.33402
525 1.23234
530 1.07547
535 1.20784
540 1.07995
545 0.84587
550 0.862407
555 0.840132
560 0.778759
565 0.677701
570 0.683688
575 0.64883
580 0.571791
585 0.520504
590 0.523196
595 0.41244
600 0.775979
Ex : 383
200 0.145847
205 0.178091
210 0.216669
215 0.250172
220 0.183049
225 0.194747
230 0.174175
235 0.222337
240 0.214615
245 0.218358
250 0.249477
255 0.237896
260 0.202432
265 0.228324
270 0.274806
275 0.224467
280 0.244415
285 0.244681
290 0.299055
295 0.246986
300 0.230927
305 0.358765
310 0.332315
315 0.303959
320 0.372162
325 0.384623
330 0.368341
335 0.47481
340 0.586941
345 0.68101
350 0.799389
355 1.0393
360 1.69405
365 2.69163
370 74.6886
375 1446.71
380 2417.05
385 639.981
390 78.1133
395 12.3503
400 4.09174
405 2.5439
410 2.10192
415 1.96208
420 2.61828
425 4.81438
430 6.07354
435 5.56808
440 4.25411
445 2.79918
450 2.30292
455 2.21852
460 1.98557
465 2.11758
470 2.00546
475 1.96981
480 1.98753
485 1.95988
490 1.69294
495 1.67278
500 1.59406
505 1.46635
510 1.46476
515 1.23809
520 1.17962
525 1.12249
530 1.11857
535 1.11468
540 1.08291
545 0.987835
550 0.961581
555 0.83956
560 0.783875
565 0.663057
570 0.679855
575 0.549795
580 0.611504
585 0.408134
590 0.446943
595 0.477648
600 0.267492
Ex : 388
200 0.209331
205 0.188842
210 0.217311
215 0.209174
220 0.194245
225 0.258139
230 0.228002
235 0.197431
240 0.253628
245 0.247514
250 0.262706
255 0.195997
260 0.249925
265 0.217389
270 0.191449
275 0.253114
280 0.219148
285 0.278869
290 0.212661
295 0.28309
300 0.255373
305 0.335076
310 0.332069
315 0.402452
320 0.39175
325 0.401618
330 0.362809
335 0.443426
340 0.481762
345 0.648844
350 0.692554
355 0.92234
360 1.1434
365 1.68478
370 2.95762
375 83.2641
380 1573.86
385 2632.81
390 697.377
395 84.5175
400 12.88
405 4.05131
410 2.64396
415 2.17751
420 1.83856
425 2.25608
430 3.97603
435 5.54998
440 5.61994
445 4.6999
450 3.10402
455 2.25567
460 2.13091
465 2.16567
470 2.08977
475 1.90211
480 1.72798
485 1.71645
490 1.86123
495 1.71875
500 1.62911
505 1.62589
510 1.32273
515 1.3747
520 1.26414
525 1.2145
530 1.208
535 1.0832
540 1.08396
545 1.01948
550 0.889655
555 0.828119
560 0.799052
565 0.763138
570 0.759594
575 0.599453
580 0.560077
585 0.513784
590 0.431757
595 0.386421
600 0.283706
Ex : 393
200 0.177877
205 0.227456
210 0.1826
215 0.21168
220 0.208443
225 0.248269
230 0.252711
235 0.277515
240 0.212492
245 0.222434
250 0.253352
255 0.231987
260 0.194459
265 0.251089
270 0.245286
275 0.260468
280 0.241261
285 0.223582
290 0.247458
295 0.268983
300 0.318711
305 0.344105
310 0.308462
315 0.38482
320 0.353358
325 0.308514
330 0.37444
335 0.448792
340 0.520754
345 0.602013
350 0.648502
355 0.669954
360 0.852419
365 1.15151
370 1.79002
375 2.96436
380 81.6492
385 1692.96
390 2906.37
395 763.836
400 92.3581
405 13.7847
410 4.23792
415 2.74432
420 2.10451
425 2.06362
430 1.99211
435 3.49647
440 5.23575
445 5.55322
450 4.92559
455 3.64727
460 2.48922
465 2.19257
470 1.95739
475 1.8872
480 1.95087
485 1.92249
490 1.86214
495 1.63442
500 1.57214
505 1.59648
510 1.54447
515 1.3758
520 1.34008
525 1.35512
530 1.29922
535 1.20887
540 1.0529
545 1.10143
550 1.0438
555 0.840213
560 0.834188
565 0.725607
570 0.699249
575 0.636838
580 0.576837
585 0.481471
590 0.450701
595 0.417013
600 0.273501
Ex : 398
200 0.181668
205 0.182319
210 0.197082
215 0.211857
220 0.247885
225 0.237213
230 0.225025
235 0.206821
240 0.229599
245 0.196961
250 0.249469
255 0.246661
260 0.301744
265 0.257087
270 0.241046
275 0.260916
280 0.223181
285 0.219186
290 0.241
295 0.265642
300 0.352802
305 0.273541
310 0.23714
315 0.240748
320 0.37338
325 0.35378
330 0.337993
335 0.373423
340 0.427769
345 0.385119
350 0.528493
355 0.637987
360 0.686099
365 0.886998
370 1.20271
375 1.62922
380 2.91126
385 84.6892
390 1687.96
395 2892.48
400 763.718
405 92.2858
410 13.8506
415 4.25441
420 2.66935
425 2.18619
430 2.04
435 1.92423
440 2.93389
445 4.97627
450 5.24889
455 4.88436
460 3.9575
465 2.65447
470 1.95294
475 1.85962
480 1.81802
485 1.83921
490 1.72923
495 1.6822
500 1.57944
505 1.51205
510 1.44738
515 1.4511
520 1.28328
525 1.22517
530 1.17248
535 1.18648
540 1.06759
545 0.928654
550 0.99111
555 0.882644
560 0.888867
565 0.821102
570 0.703707
575 0.616986
580 0.513048
585 0.533461
590 0.431444
595 0.417852
600 0.195251
Ex : 403
200 0.237976
205 0.172148
210 0.240063
215 0.202068
220 0.238481
225 0.205468
230 0.256105
235 0.239529
240 0.172989
245 0.223513
250 0.214319
255 0.230331
260 0.219923
265 0.207165
270 0.197512
275 0.253424
280 0.237067
285 0.256118
290 0.260956
295 0.214592
300 0.228147
305 0.28589
310 0.293205
315 0.295032
320 0.31969
325 0.335715
330 0.33614
335 0.492793
340 0.394778
345 0.510789
350 0.456726
355 0.464026
360 0.610178
365 0.780057
370 0.911298
375 1.30164
380 1.76578
385 3.03678
390 94.2655
395 1763.64
400 2943.4
405 779.287
410 93.9418
415 14.0718
420 4.24649
425 2.83952
430 2.13935
435 1.87641
440 1.96052
445 2.4831
450 4.21881
455 4.95886
460 4.94021
465 4.26046
470 2.69568
475 2.08284
480 1.82977
485 1.80631
490 1.78363
495 1.70732
500 1.67206
505 1.56343
510 1.5258
515 1.49706
520 1.33962
525 1.22107
530 1.18349
535 1.12117
540 1.08601
545 1.1056
550 0.97562
555 0.845377
560 0.825099
565 0.748147
570 0.726913
575 0.661541
580 0.629092
585 0.512176
590 0.480469
595 0.391664
600 0.287601
Ex : 408
200 0.220744
205 0.205953
210 0.207028
215 0.223264
220 0.225249
225 0.170563
230 0.177227
235 0.235443
240 0.21309
245 0.2701
250 0.247372
255 0.216533
260 0.24229
265 0.227891
270 0.193346
275 0.247527
280 0.21725
285 0.198077
290 0.233036
295 0.272108
300 0.28169
305 0.284998
310 0.337028
315 0.299751
320 0.346492
325 0.389494
330 0.363106
335 0.397109
340 0.411882
345 0.390367
350 0.442628
355 0.454548
360 0.588877
365 0.617272
370 0.859488
375 1.01861
380 1.30169
385 1.89911
390 3.34297
395 95.8779
400 1883.51
405 3073.98
410 779.946
415 93.8945
420 14.0096
425 4.2074
430 2.85066
435 2.20593
440 1.95019
445 2.08148
450 2.3451
455 3.83461
460 4.77857
465 4.65198
470 4.41187
475 2.94895
480 2.07854
485 1.9145
490 1.76025
495 1.67658
500 1.66522
505 1.53905
510 1.41502
515 1.44823
520 1.37628
525 1.22365
530 1.24521
535 1.12251
540 1.14303
545 1.03751
550 0.904037
555 0.874062
560 0.851917
565 0.810323
570 0.757829
575 0.708837
580 0.595564
585 0.454606
590 0.408152
595 0.438324
600 0.311102
Ex : 413
200 0.194423
205 0.219237
210 0.238751
215 0.209596
220 0.194672
225 0.209128
230 0.228871
235 0.21719
240 0.228277
245 0.202734
250 0.273487
255 0.246554
260 0.22164
265 0.217549
270 0.218588
275 0.169462
280 0.170762
285 0.255784
290 0.261053
295 0.228234
300 0.261762
305 0.28339
310 0.280627
315 0.258265
320 0.313881
325 0.340741
330 0.305243
335 0.311853
340 0.313463
345 0.371686
350 0.375776
355 0.477117
360 0.474165
365 0.581113
370 0.619631
375 0.786588
380 1.0235
385 1.37672
390 2.09223
395 3.27966
400 106.431
405 1916.23
410 3062.57
415 781.437
420 93.9931
425 13.8859
430 4.06984
435 2.80816
440 2.3259
445 1.96403
450 1.90515
455 1.96765
460 2.92297
465 4.29649
470 4.5396
475 4.36443
480 3.43466
485 2.30717
490 1.8064
495 1.72825
500 1.63476
505 1.45971
510 1.36472
515 1.45445
520 1.32979
525 1.26935
530 1.1805
535 1.13234
540 1.10275
545 1.13885
550 1.00585
555 0.898524
560 0.827335
565 0.824348
570 0.784824
575 0.647975
580 0.584572
585 0.500897
590 0.526952
595 0.430734
600 0.383432
Ex : 418
200 0.201572
205 0.186913
210 0.175518
215 0.184319
220 0.23311
225 0.214525
230 0.193958
235 0.183065
240 0.207566
245 0.189908
250 0.228694
255 0.245934
260 0.220037
265 0.222777
270 0.223024
275 0.248405
280 0.225891
285 0.212278
290 0.181124
295 0.231784
300 0.224133
305 0.255163
310 0.255795
315 0.295334
320 0.315533
325 0.279068
330 0.317099
335 0.344804
340 0.314972
345 0.323635
350 0.431683
355 0.457664
360 0.452915
365 0.464425
370 0.6087
375 0.649737
380 0.786259
385 0.997204
390 1.49035
395 2.18985
400 3.45954
405 100.949
410 1960.2
415 3193.53
420 836.367
425 100.49
430 14.6403
435 4.19124
440 2.86267
445 2.38274
450 1.95861
455 1.87163
460 1.97891
465 2.59237
470 4.02664
475 4.22729
480 4.0354
485 3.73953
490 2.44034
495 1.71348
500 1.51397
505 1.43554
510 1.37006
515 1.41666
520 1.37918
525 1.41636
530 1.17515
535 1.16833
540 1.11848
545 1.11945
550 0.999774
555 0.942579
560 0.83655
565 0.735879
570 0.718289
575 0.663294
580 0.493518
585 0.491056
590 0.448451
595 0.390273
600 0.282638
Ex : 423
200 0.192207
205 0.161161
210 0.182127
215 0.249745
220 0.204591
225 0.182985
230 0.185986
235 0.266247
240 0.200985
245 0.215035
250 0.202906
255 0.234661
260 0.238074
265 0.218461
270 0.218685
275 0.243598
280 0.240441
285 0.218357
290 0.214257
295 0.184484
300 0.248136
305 0.281479
310 0.235248
315 0.246485
320 0.259059
325 0.251601
330 0.285009
335 0.31223
340 0.349747
345 0.371826
350 0.32801
355 0.38354
360 0.431488
365 0.498267
370 0.514047
375 0.563412
380 0.771928
385 0.889477
390 1.12071
395 1.48197
400 2.21135
405 3.4707
410 106.326
415 2030.69
420 3145.73
425 794.117
430 95.5178
435 14.2196
440 4.34367
445 2.90925
450 2.28667
455 1.86793
460 1.70951
465 1.85315
470 2.10135
475 3.44208
480 4.11798
485 3.93457
490 3.59463
495 2.57667
500 1.77791
505 1.44868
510 1.39666
515 1.38739
520 1.2444
525 1.21134
530 1.16807
535 1.13859
540 1.12722
545 1.06234
550 0.977232
555 1.00355
560 0.803242
565 0.80567
570 0.751024
575 0.671594
580 0.620542
585 0.562781
590 0.471535
595 0.385777
600 0.320988
Ex : 428
200 0.184226
205 0.157719
210 0.1945
215 0.193154
220 0.194626
225 0.216659
230 0.186317
235 0.192803
240 0.228546
245 0.174888
250 0.20205
255 0.223014
260 0.177841
265 0.237827
270 0.191944
275 0.248254
280 0.329224
285 0.284567
290 0.264578
295 0.273901
300 0.224997
305 0.288862
310 0.275509
315 0.268756
320 0.296113
325 0.324697
330 0.31108
335 0.342201
340 0.340472
345 0.400046
350 0.41418
355 0.414471
360 0.453628
365 0.493031
370 0.544596
375 0.571069
380 0.589376
385 0.706239
390 0.887918
395 1.18168
400 1.72203
405 2.30984
410 3.44279
415 116.639
420 2018.47
425 3169.31
430 820.529
435 98.5629
440 14.5842
445 4.50871
450 2.90408
455 2.30151
460 1.85729
465 1.84493
470 1.60339
475 1.87258
480 2.91223
485 3.85904
490 3.80623
495 3.58138
500 2.78488
505 1.88946
510 1.40975
515 1.2615
520 1.23285
525 1.25189
530 1.1124
535 1.07377
540 0.99148
545 0.955563
550 1.00296
555 0.858656
560 0.77565
565 0.826554
570 0.728102
575 0.587406
580 0.530952
585 0.472975
590 0.452725
595 0.386047
600 0.861588
Ex : 433
200 0.174162
205 0.192342
210 0.220091
215 0.204642
220 0.20827
225 0.271369
230 0.215828
235 0.187484
240 0.259986
245 0.171474
250 0.228098
255 0.195963
260 0.216199
265 0.186876
270 0.250849
275 0.239135
280 0.224278
285 0.25525
290 0.22425
295 0.22527
300 0.229571
305 0.278844
310 0.230264
315 0.25219
320 0.237059
325 0.272932
330 0.262588
335 0.333039
340 0.347763
345 0.395762
350 0.352385
355 0.418838
360 0.422725
365 0.41491
370 0.441064
375 0.498587
380 0.538694
385 0.651926
390 0.764268
395 0.891984
400 1.15721
405 1.54082
410 2.44406
415 3.7052
420 124.679
425 2132.64
430 3234.88
435 794.401
440 95.5832
445 14.3397
450 4.52707
455 2.86537
460 2.39162
465 1.90552
470 1.76715
475 1.6175
480 1.75656
485 2.36607
490 3.55251
495 3.67769
500 3.30831
505 3.03776
510 2.03697
515 1.46081
520 1.32862
525 1.28558
530 1.0959
535 1.12532
540 1.05643
545 0.90431
550 0.86507
555 0.872704
560 0.781584
565 0.818326
570 0.687475
575 0.601616
580 0.560441
585 0.453772
590 0.482344
595 0.419535
600 0.384057
Ex : 438
200 0.204161
205 0.20968
210 0.180236
215 0.183245
220 0.241525
225 0.209795
230 0.251974
235 0.224256
240 0.224246
245 0.24701
250 0.30705
255 0.23031
260 0.188046
265 0.191091
270 0.267195
275 0.196279
280 0.195566
285 0.192642
290 0.256583
295 0.29353
300 0.267502
305 0.280385
310 0.265966
315 0.202692
320 0.32822
325 0.289115
330 0.297321
335 0.295152
340 0.353015
345 0.309592
350 0.349234
355 0.429002
360 0.40777
365 0.450406
370 0.425126
375 0.50621
380 0.557089
385 0.565751
390 0.699018
395 0.758487
400 1.03227
405 1.35214
410 1.54684
415 2.3153
420 3.80668
425 119.299
430 2199.75
435 3458.17
440 853.408
445 102.504
450 15.2229
455 4.30693
460 3.05726
465 2.49799
470 1.92143
475 1.69445
480 1.63037
485 1.61388
490 2.07519
495 3.33774
500 3.56959
505 3.1573
510 3.02977
515 2.24698
520 1.52065
525 1.23402
530 1.18731
535 1.15185
540 1.08222
545 0.987769
550 0.895762
555 0.782653
560 0.767432
565 0.732983
570 0.692194
575 0.637455
580 0.500459
585 0.440419
590 0.39151
595 0.316011
600 0.340014
Ex : 443
200 0.188776
205 0.253086
210 0.243179
215 0.242231
220 0.210178
225 0.228642
230 0.244641
235 0.221396
240 0.221854
245 0.225388
250 0.213889
255 0.278924
260 0.309557
265 0.261121
270 0.23383
275 0.27809
280 0.232253
285 0.314002
290 0.307693
295 0.267835
300 0.270216
305 0.222449
310 0.257978
315 0.280444
320 0.276696
325 0.269394
330 0.321818
335 0.290936
340 0.288728
345 0.292437
350 0.332253
355 0.403169
360 0.351074
365 0.352288
370 0.343083
375 0.460227
380 0.537358
385 0.555463
390 0.576105
395 0.750043
400 0.804303
405 1.0069
410 1.18275
415 1.69727
420 2.4487
425 4.01064
430 136.62
435 2365.72
440 3676
445 890.3
450 106.702
455 15.7826
460 4.5463
465 2.89849
470 2.42379
475 1.76319
480 1.56511
485 1.38499
490 1.4923
495 1.718
500 2.66257
505 3.14596
510 2.92674
515 2.75243
520 2.49735
525 1.5467
530 1.16235
535 1.04414
540 1.00677
545 0.950275
550 0.896882
555 0.828837
560 0.780151
565 0.655855
570 0.649103
575 0.644748
580 0.533131
585 0.490959
590 0.508576
595 0.460531
600 0.873888
Ex : 448
200 0.318745
205 0.192377
210 0.193712
215 0.176716
220 0.219886
225 0.194731
230 0.224525
235 0.20982
240 0.221478
245 0.196983
250 0.200317
255 0.253694
260 0.276783
265 0.200195
270 0.257448
275 0.222844
280 0.225939
285 0.260043
290 0.225959
295 0.210784
300 0.236192
305 0.274269
310 0.272201
315 0.256333
320 0.263319
325 0.294465
330 0.278556
335 0.310014
340 0.280388
345 0.294453
350 0.319778
355 0.312378
360 0.38409
365 0.412057
370 0.451927
375 0.475737
380 0.531666
385 0.509669
390 0.486554
395 0.686539
400 0.797224
405 0.788274
410 1.041
415 1.35391
420 1.71282
425 2.48433
430 3.9048
435 138.936
440 2439.42
445 3656.29
450 885.982
455 106.179
460 15.6359
465 4.48215
470 2.66562
475 2.27045
480 1.66832
485 1.51344
490 1.52515
495 1.5111
500 1.52397
505 2.15005
510 3.05691
515 2.86038
520 2.81628
525 2.47858
530 1.76131
535 1.28531
540 0.999078
545 0.96958
550 0.857282
555 0.9419
560 0.841801
565 0.760761
570 0.666738
575 0.614816
580 0.515157
585 0.479197
590 0.43015
595 0.416555
600 0.214658
Ex : 453
200 0.187185
205 0.280782
210 0.259169
215 0.185932
220 0.24086
225 0.197424
230 0.178105
235 0.218208
240 0.221473
245 0.250209
250 0.232193
255 0.227237
260 0.243196
265 0.251496
270 0.274896
275 0.298102
280 0.223669
285 0.258513
290 0.265785
295 0.209675
300 0.258469
305 0.255981
310 0.298206
315 0.337448
320 0.256049
325 0.312361
330 0.293406
335 0.32058
340 0.347259
345 0.328935
350 0.365814
355 0.302058
360 0.370458
365 0.412545
370 0.442781
375 0.491577
380 0.454674
385 0.48708
390 0.528016
395 0.618825
400 0.6674
405 0.77705
410 0.864879
415 1.0068
420 1.15306
425 1.69906
430 2.23188
435 3.84439
440 145.535
445 2597.16
450 3838.56
455 897.87
460 107.597
465 15.7648
470 4.48774
475 2.69208
480 2.2515
485 1.76967
490 1.39206
495 1.37867
500 1.38248
505 1.45653
510 1.78458
515 2.84263
520 2.80031
525 2.57793
530 2.4953
535 1.86429
540 1.29561
545 0.932035
550 0.860936
555 0.842332
560 0.748036
565 0.666532
570 0.662208
575 0.535689
580 0.518799
585 0.465285
590 0.376465
595 0.364623
600 0.645723
Ex : 458
200 0.19287
205 0.19989
210 0.233821
215 0.261424
220 0.217442
225 0.252194
230 0.252623
235 0.236034
240 0.206875
245 0.20737
250 0.207957
255 0.220599
260 0.233779
265 0.199686
270 0.231863
275 0.2387
280 0.269011
285 0.254266
290 0.272336
295 0.256018
300 0.273089
305 0.277895
310 0.310675
315 0.284584
320 0.298406
325 0.306139
330 0.299193
335 0.311328
340 0.335263
345 0.417218
350 0.394627
355 0.352414
360 0.395192
365 0.424039
370 0.358893
375 0.453165
380 0.463623
385 0.435681
390 0.460571
395 0.571131
400 0.534985
405 0.555249
410 0.728684
415 0.817926
420 1.10181
425 1.27665
430 1.69801
435 2.60835
440 4.28227
445 164.014
450 2756.32
455 4064.67
460 971.554
465 116.327
470 17.0205
475 4.52528
480 2.66852
485 2.33226
490 1.8234
495 1.50174
500 1.31493
505 1.38097
510 1.28126
515 1.54355
520 2.33092
525 2.78049
530 2.34713
535 2.45664
540 2.13406
545 1.40032
550 0.969433
555 0.964901
560 0.858798
565 0.702154
570 0.702852
575 0.632644
580 0.588323
585 0.518169
590 0.371146
595 0.374873
600 0.228836
Ex : 463
200 0.299085
205 0.220219
210 0.227231
215 0.207422
220 0.263478
225 0.313771
230 0.204258
235 0.224476
240 0.193234
245 0.197607
250 0.205612
255 0.30052
260 0.227332
265 0.198869
270 0.269117
275 0.243727
280 0.251692
285 0.22968
290 0.270094
295 0.276499
300 0.325177
305 0.32959
310 0.303442
315 0.277227
320 0.26141
325 0.304202
330 0.317428
335 0.348694
340 0.365221
345 0.312503
350 0.365385
355 0.398325
360 0.386008
365 0.379902
370 0.414935
375 0.459387
380 0.474749
385 0.433499
390 0.558735
395 0.50299
400 0.581376
405 0.637234
410 0.633285
415 0.773253
420 0.848109
425 1.06904
430 1.28947
435 1.68206
440 2.48582
445 4.09515
450 154.83
455 2709.73
460 4102.72
465 963.402
470 115.102
475 16.5783
480 4.29574
485 2.56277
490 2.03502
495 1.539
500 1.25337
505 1.37653
510 1.36316
515 1.24593
520 1.23841
525 1.73815
530 2.56727
535 2.27521
540 1.98108
545 1.94065
550 1.51866
555 1.0412
560 0.826818
565 0.688952
570 0.708403
575 0.580211
580 0.526267
585 0.48807
590 0.505934
595 0.427484
600 0.465401
Ex : 468
200 0.237851
205 0.201211
210 0.228677
215 0.178686
220 0.234061
225 0.26381
230 0.291307
235 0.241533
240 0.229475
245 0.249401
250 0.269455
255 0.228966
260 0.216091
265 0.243731
270 0.248314
275 0.264443
280 0.242747
285 0.209034
290 0.236886
295 0.230123
300 0.268967
305 0.26311
310 0.303223
315 0.257805
320 0.31082
325 0.322696
330 0.288752
335 0.283101
340 0.355135
345 0.390822
350 0.356973
355 0.427086
360 0.369234
365 0.415243
370 0.411951
375 0.456584
380 0.452969
385 0.394061
390 0.448318
395 0.537462
400 0.548948
405 0.592762
410 0.599593
415 0.647
420 0.77948
425 0.915065
430 1.07881
435 1.32473
440 1.69502
445 2.63481
450 4.28109
455 179.994
460 2866.84
465 4396.27
470 1046.2
475 124.092
480 17.3945
485 4.37072
490 2.35999
495 1.94184
500 1.58973
505 1.41719
510 1.23115
515 1.26313
520 1.20714
525 1.21485
530 1.48756
535 2.22856
540 2.17823
545 1.92888
550 1.78318
555 1.59715
560 1.02288
565 0.767873
570 0.617291
575 0.569661
580 0.526857
585 0.546997
590 0.487934
595 0.422388
600 0.462366
Ex : 473
200 0.222814
205 0.230947
210 0.203072
215 0.251557
220 0.259463
225 0.248673
230 0.292476
235 0.294495
240 0.250069
245 0.232644
250 0.255135
255 0.246626
260 0.243729
265 0.247198
270 0.243356
275 0.281936
280 0.246589
285 0.238571
290 0.244895
295 0.213511
300 0.233081
305 0.3487
310 0.278435
315 0.286261
320 0.278262
325 0.286624
330 0.259913
335 0.308389
340 0.33935
345 0.301451
350 0.30747
355 0.352491
360 0.350262
365 0.387575
370 0.36648
375 0.400046
380 0.345847
385 0.423105
390 0.46939
395 0.507436
400 0.552793
405 0.568119
410 0.664337
415 0.696258
420 0.803373
425 0.874533
430 0.881146
435 1.17524
440 1.37447
445 1.97353
450 2.76476
455 4.69732
460 219.04
465 3371.82
470 4573.28
475 1021.8
480 121.722
485 17.0468
490 4.49551
495 2.591
500 1.98464
505 1.56314
510 1.40662
515 1.19649
520 1.19157
525 1.22412
530 1.17339
535 1.21139
540 1.93059
545 2.22164
550 1.88345
555 1.68001
560 1.68272
565 1.26201
570 0.864648
575 0.61486
580 0.556424
585 0.539904
590 0.479394
595 0.479424
600 0.901832
Ex : 478
200 0.194386
205 0.27154
210 0.211633
215 0.254144
220 0.223618
225 0.256761
230 0.315576
235 0.42185
240 0.297392
245 0.311122
250 0.219248
255 0.204335
260 0.240452
265 0.303177
270 0.229147
275 0.295827
280 0.291337
285 0.295364
290 0.340866
295 0.247762
300 0.24132
305 0.274324
310 0.223497
315 0.359426
320 0.372701
325 0.342854
330 0.37847
335 0.310686
340 0.282054
345 0.359578
350 0.363816
355 0.330278
360 0.411633
365 0.362276
370 0.441847
375 0.428031
380 0.455907
385 0.533721
390 0.457294
395 0.516876
400 0.586767
405 0.581588
410 0.580715
415 0.654703
420 0.752834
425 0.759622
430 0.786386
435 0.950436
440 1.18308
445 1.46962
450 2.06717
455 3.1747
460 5.32604
465 212.007
470 3175.38
475 4360.1
480 1013.1
485 120.73
490 17.2681
495 4.36508
500 2.40143
505 1.92498
510 1.68101
515 1.47496
520 1.351
525 1.24218
530 1.19469
535 1.17602
540 1.07855
545 1.45677
550 2.01422
555 1.80687
560 1.69269
565 1.72626
570 1.3319
575 0.864242
580 0.619807
585 0.523172
590 0.456669
595 0.43766
600 0.954979
Ex : 483
200 0.248118
205 0.210429
210 0.2491
215 0.283382
220 0.24773
225 0.29812
230 0.2414
235 0.463861
240 0.333944
245 0.304846
250 0.335376
255 0.232456
260 0.281928
265 0.270306
270 0.306009
275 0.259133
280 0.304274
285 0.288632
290 0.249074
295 0.331623
300 0.360728
305 0.3301
310 0.354284
315 0.351735
320 0.296912
325 0.324197
330 0.300924
335 0.378322
340 0.371349
345 0.428701
350 0.396016
355 0.408416
360 0.467297
365 0.427805
370 0.449449
375 0.444226
380 0.4494
385 0.508812
390 0.436356
395 0.50974
400 0.599508
405 0.594718
410 0.504421
415 0.596332
420 0.63623
425 0.725705
430 0.759206
435 0.865418
440 0.938039
445 1.15772
450 1.52955
455 1.98153
460 3.08476
465 5.44863
470 168.192
475 3060.33
480 4784.84
485 1155.19
490 137.458
495 19.1548
500 4.68193
505 2.72711
510 2.1036
515 1.84791
520 1.57453
525 1.31414
530 1.27294
535 1.22979
540 1.07232
545 1.11506
550 1.27883
555 1.84845
560 1.85795
565 1.34782
570 1.40773
575 1.24544
580 0.926257
585 0.666949
590 0.513127
595 0.462025
600 0.149505
Ex : 488
200 0.217366
205 0.244812
210 0.293457
215 0.229604
220 0.261286
225 0.328473
230 0.275692
235 0.397612
240 0.492341
245 0.315644
250 0.340853
255 0.306998
260 0.336793
265 0.32601
270 0.298839
275 0.307449
280 0.251028
285 0.348972
290 0.33453
295 0.253439
300 0.29914
305 0.312834
310 0.35551
315 0.244846
320 0.337492
325 0.297288
330 0.373043
335 0.38102
340 0.361367
345 0.399644
350 0.43745
355 0.368513
360 0.422457
365 0.367879
370 0.421176
375 0.466022
380 0.422927
385 0.463814
390 0.49026
395 0.499544
400 0.602928
405 0.650753
410 0.609366
415 0.680994
420 0.712913
425 0.783823
430 0.686548
435 0.853683
440 0.952391
445 1.10606
450 1.31471
455 1.73167
460 2.25979
465 3.6135
470 5.6062
475 205.465
480 3436.14
485 4906.6
490 1140.37
495 135.639
500 18.8908
505 4.75969
510 2.62327
515 2.13276
520 1.72195
525 1.5476
530 1.22499
535 1.16536
540 1.23133
545 1.11589
550 1.07766
555 1.18979
560 1.64135
565 1.87722
570 1.44182
575 1.21361
580 1.16173
585 0.877724
590 0.6275
595 0.513027
600 0.429139
Ex : 493
200 0.291219
205 0.286236
210 0.251119
215 0.242065
220 0.249799
225 0.238491
230 0.243261
235 0.290854
240 0.486265
245 0.377176
250 0.326843
255 0.299277
260 0.330589
265 0.273057
270 0.279175
275 0.273308
280 0.352226
285 0.2865
290 0.297797
295 0.304757
300 0.281769
305 0.321601
310 0.299825
315 0.311642
320 0.332538
325 0.333561
330 0.304337
335 0.381953
340 0.402165
345 0.338037
350 0.418995
355 0.337896
360 0.392143
365 0.443276
370 0.4742
375 0.447297
380 0.49014
385 0.471859
390 0.47423
395 0.50335
400 0.507481
405 0.506223
410 0.565508
415 0.648094
420 0.64935
425 0.747544
430 0.688235
435 0.687978
440 0.768696
445 1.02868
450 1.26154
455 1.47894
460 1.87881
465 2.55939
470 3.49053
475 5.14115
480 200.439
485 3358.89
490 4910.18
495 1117.94
500 132.751
505 18.424
510 4.54631
515 2.54482
520 1.96176
525 1.73846
530 1.43169
535 1.3933
540 1.12725
545 1.08997
550 1.15617
555 1.05205
560 1.03977
565 1.16907
570 1.57686
575 1.32507
580 1.14472
585 1.04615
590 0.767427
595 0.704836
600 0.437745
Ex : 498
200 0.17943
205 0.289526
210 0.260043
215 0.291124
220 0.275726
225 0.278392
230 0.262109
235 0.31522
240 0.421506
245 0.657782
250 0.391246
255 0.247569
260 0.372861
265 0.307124
270 0.27694
275 0.330546
280 0.333043
285 0.285541
290 0.29124
295 0.364386
300 0.28436
305 0.330496
310 0.305002
315 0.373757
320 0.334325
325 0.368185
330 0.399808
335 0.392491
340 0.320025
345 0.368493
350 0.384213
355 0.412734
360 0.528882
365 0.391089
370 0.416817
375 0.38029
380 0.470824
385 0.412583
390 0.506244
395 0.489664
400 0.454806
405 0.504312
410 0.517167
415 0.537381
420 0.615229
425 0.595661
430 0.671677
435 0.69783
440 0.857397
445 0.797732
450 1.01208
455 1.18944
460 1.54984
465 1.95452
470 2.41456
475 3.63473
480 5.68058
485 235.506
490 3666.98
495 4928.2
500 1098.93
505 130.713
510 18.4312
515 4.60766
520 2.68771
525 2.00483
530 1.75367
535 1.55549
540 1.36608
545 1.22992
550 1.10573
555 0.986115
560 0.97213
565 0.967784
570 0.981843
575 1.25158
580 1.26327
585 0.973456
590 0.928044
595 0.781409
600 0.613342
Ex : 503
200 0.315699
205 0.233989
210 0.258573
215 0.292419
220 0.259037
225 0.327807
230 0.304804
235 0.328858
240 0.309351
245 0.589624
250 0.418054
255 0.286756
260 0.30422
265 0.326661
270 0.318727
275 0.334652
280 0.287801
285 0.367403
290 0.346176
295 0.289246
300 0.290601
305 0.315393
310 0.275433
315 0.376386
320 0.42703
325 0.484099
330 0.376906
335 0.354512
340 0.355778
345 0.405127
350 0.393802
355 0.460546
360 0.467123
365 0.418948
370 0.447486
375 0.454953
380 0.486597
385 0.506469
390 0.480537
395 0.572579
400 0.612272
405 0.500812
410 0.533067
415 0.561525
420 0.634422
425 0.643653
430 0.61706
435 0.758175
440 0.740629
445 0.835453
450 0.829575
455 0.995605
460 1.14573
465 1.55612
470 1.99851
475 2.59975
480 3.80058
485 5.68961
490 209.439
495 3452.87
500 4967.11
505 1149.63
510 136.698
515 19.0109
520 4.72882
525 2.56251
530 1.98701
535 1.90501
540 1.58277
545 1.26889
550 1.17311
555 1.10388
560 1.1465
565 0.900162
570 0.837812
575 0.945901
580 1.12481
585 1.28387
590 0.895314
595 0.756033
600 0.397977
Ex : 508
200 0.288063
205 0.241021
210 0.225775
215 0.317322
220 0.276841
225 0.346046
230 0.282061
235 0.276466
240 0.341382
245 0.383512
250 0.715999
255 0.348054
260 0.301618
265 0.246811
270 0.347693
275 0.334702
280 0.356444
285 0.354168
290 0.415208
295 0.379853
300 0.336342
305 0.314569
310 0.402227
315 0.379626
320 0.468322
325 0.360518
330 0.370694
335 0.363407
340 0.368851
345 0.459424
350 0.399114
355 0.481943
360 0.46995
365 0.481927
370 0.398847
375 0.503682
380 0.521485
385 0.445117
390 0.455026
395 0.463069
400 0.556497
405 0.582306
410 0.504992
415 0.564149
420 0.601375
425 0.686867
430 0.683562
435 0.668976
440 0.74927
445 0.770453
450 0.892763
455 0.897261
460 1.02165
465 1.38605
470 1.51513
475 1.9035
480 2.68952
485 3.55198
490 5.91136
495 228.441
500 3598.68
505 5076.52
510 1218.39
515 144.519
520 20.0009
525 4.76057
530 2.6347
535 1.95852
540 1.53293
545 1.42633
550 1.436
555 1.32217
560 1.14546
565 0.984099
570 0.919175
575 0.771089
580 0.780166
585 0.880477
590 0.926945
595 0.956799
600 0.487631
Ex : 513
200 0.343879
205 0.34682
210 0.246532
215 0.321608
220 0.303188
225 0.354388
230 0.298201
235 0.258371
240 0.394515
245 0.327007
250 1.11021
255 0.936499
260 0.426153
265 0.34448
270 0.365077
275 0.469157
280 0.361892
285 0.361825
290 0.349733
295 0.415719
300 0.504396
305 0.370116
310 0.339937
315 0.373697
320 0.288314
325 0.378023
330 0.356897
335 0.438433
340 0.416658
345 0.451209
350 0.45735
355 0.401695
360 0.520659
365 0.492102
370 0.44526
375 0.479862
380 0.515157
385 0.520534
390 0.477266
395 0.522779
400 0.481145
405 0.568983
410 0.504542
415 0.517344
420 0.609538
425 0.542066
430 0.717601
435 0.668869
440 0.64317
445 0.753589
450 0.93112
455 0.870371
460 0.965981
465 1.13068
470 1.2589
475 1.42874
480 1.93472
485 2.54175
490 3.46196
495 5.77112
500 214.357
505 3585.72
510 5051.47
515 1190.08
520 141.457
525 19.3595
530 4.64064
535 2.63498
540 1.87545
545 1.54411
550 1.58103
555 1.33306
560 1.28728
565 0.954713
570 0.991052
575 0.905023
580 0.76036
585 0.819013
590 0.690899
595 0.764565
600 0.667487
Ex : 518
200 0.278755
205 0.320492
210 0.287234
215 0.26135
220 0.428949
225 0.328919
230 0.307585
235 0.338944
240 0.310705
245 0.321793
250 0.889066
255 1.97178
260 0.706992
265 0.435068
270 0.352755
275 0.419339
280 0.397564
285 0.360035
290 0.464003
295 0.406096
300 0.379285
305 0.346207
310 0.415129
315 0.45386
320 0.436288
325 0.449953
330 0.495806
335 0.47127
340 0.40974
345 0.548134
350 0.413609
355 0.435606
360 0.460479
365 0.472664
370 0.502571
375 0.331651
380 0.473166
385 0.531841
390 0.523938
395 0.498512
400 0.464377
405 0.592106
410 0.477851
415 0.602174
420 0.658088
425 0.722984
430 0.756596
435 0.731792
440 0.654909
445 0.728107
450 0.790229
455 0.89972
460 1.02866
465 1.04254
470 1.19374
475 1.39476
480 1.55936
485 2.05719
490 2.65252
495 3.40461
500 5.32487
505 205.687
510 3396.74
515 5008.38
520 1214.05
525 144.126
530 19.9656
535 4.80766
540 2.39758
545 1.83287
550 1.70554
555 1.60887
560 1.4381
565 1.17696
570 1.1958
575 1.01006
580 0.755763
585 0.793932
590 0.661479
595 0.675299
600 0.663657
Ex : 523
200 0.279692
205 0.249283
210 0.268781
215 0.374109
220 0.338933
225 0.325595
230 0.281202
235 0.282317
240 0.282391
245 0.385311
250 0.407615
255 2.29833
260 1.96082
265 0.519465
270 0.355375
275 0.333762
280 0.416852
285 0.346871
290 0.436138
295 0.396285
300 0.476627
305 0.431736
310 0.363628
315 0.399988
320 0.439253
325 0.531067
330 0.524098
335 0.36578
340 0.36569
345 0.461935
350 0.443764
355 0.431845
360 0.463497
365 0.518771
370 0.483404
375 0.525734
380 0.502681
385 0.571917
390 0.527219
395 0.528237
400 0.540602
405 0.565308
410 0.518062
415 0.515952
420 0.639501
425 0.607604
430 0.611655
435 0.703545
440 0.620477
445 0.7444
450 0.862619
455 0.779482
460 0.921453
465 1.0057
470 1.10873
475 1.19746
480 1.38669
485 1.48651
490 2.0695
495 2.66749
500 3.79425
505 5.6098
510 201.392
515 3613.39
520 5386.09
525 1325.3
530 157.159
535 21.5749
540 4.91859
545 2.55702
550 1.8061
555 1.58379
560 1.46923
565 1.43862
570 1.24119
575 0.961302
580 0.90454
585 0.889385
590 0.789634
595 0.786957
600 0.670738
Ex : 528
200 0.368058
205 0.329676
210 0.314946
215 0.246007
220 0.364619
225 0.364327
230 0.325086
235 0.266081
240 0.292391
245 0.392345
250 0.455588
255 1.28849
260 4.03631
265 1.02466
270 0.430144
275 0.379835
280 0.406197
285 0.485674
290 0.463897
295 0.409536
300 0.420131
305 0.451762
310 0.359676
315 0.445741
320 0.462201
325 0.472118
330 0.476875
335 0.486779
340 0.354845
345 0.467627
350 0.562522
355 0.448144
360 0.41721
365 0.432707
370 0.497233
375 0.57462
380 0.495593
385 0.488243
390 0.514332
395 0.473112
400 0.441828
405 0.517809
410 0.594735
415 0.519781
420 0.500864
425 0.615498
430 0.699191
435 0.68473
440 0.655296
445 0.851014
450 0.873236
455 0.702393
460 0.896494
465 1.03053
470 1.05511
475 1.12947
480 1.17085
485 1.39941
490 1.48242
495 2.05462
500 2.67748
505 3.57715
510 5.40675
515 190.673
520 3409.54
525 5109.35
530 1256.92
535 149.103
540 20.5303
545 4.76556
550 2.57147
555 1.95172
560 1.48465
565 1.41262
570 1.48538
575 1.36625
580 1.16569
585 1.02516
590 0.97411
595 0.975206
600 1.01848
Ex : 533
200 0.289238
205 0.315691
210 0.387217
215 0.315528
220 0.351493
225 0.25559
230 0.224052
235 0.280838
240 0.322928
245 0.342048
250 0.267032
255 0.504504
260 3.88645
265 2.89838
270 0.675479
275 0.405548
280 0.321617
285 0.632465
290 0.533454
295 0.515809
300 0.438972
305 0.52469
310 0.518692
315 0.385465
320 0.525448
325 0.415622
330 0.414799
335 0.462871
340 0.481846
345 0.454232
350 0.488854
355 0.555206
360 0.566872
365 0.483431
370 0.448156
375 0.498044
380 0.434742
385 0.473918
390 0.535955
395 0.491489
400 0.546704
405 0.470722
410 0.517636
415 0.563163
420 0.626802
425 0.690392
430 0.679587
435 0.633872
440 0.729745
445 0.884474
450 0.798483
455 0.780442
460 0.98085
465 1.00728
470 0.987346
475 0.924523
480 1.04975
485 1.27165
490 1.21415
495 1.57027
500 1.95356
505 2.59927
510 3.47225
515 5.55802
520 192.496
525 3378.37
530 5195.08
535 1314.57
540 155.601
545 21.1452
550 4.96218
555 2.54977
560 1.88743
565 1.54889
570 1.56973
575 1.42414
580 1.15124
585 1.14458
590 1.09015
595 0.953872
600 0.883975
Ex : 538
200 0.354592
205 0.310272
210 0.291525
215 0.32983
220 0.337913
225 0.298252
230 0.33485
235 0.363935
240 0.36729
245 0.278771
250 0.338002
255 0.276026
260 1.95737
265 6.45764
270 1.82696
275 0.513686
280 0.400797
285 0.48838
290 0.491811
295 0.594399
300 0.540076
305 0.462708
310 0.512831
315 0.510155
320 0.421089
325 0.556667
330 0.473821
335 0.501794
340 0.553633
345 0.57139
350 0.555258
355 0.606825
360 0.48221
365 0.469591
370 0.519223
375 0.527888
380 0.492559
385 0.526781
390 0.431146
395 0.578418
400 0.522221
405 0.466464
410 0.547095
415 0.534885
420 0.556313
425 0.617349
430 0.73645
435 0.710921
440 0.637219
445 0.687309
450 0.710964
455 0.822761
460 0.785722
465 0.898839
470 0.979295
475 0.831314
480 1.03579
485 1.02655
490 1.24899
495 1.31175
500 1.49831
505 1.82503
510 2.4697
515 3.44506
520 5.3516
525 160.657
530 3232.62
535 5256.2
540 1339.04
545 158.878
550 21.4086
555 4.95176
560 2.65239
565 2.0337
570 1.57625
575 1.41696
580 1.44181
585 1.38013
590 1.2624
595 1.19615
600 0.544782
Ex : 543
200 0.333755
205 0.285958
210 0.307221
215 0.356245
220 0.359883
225 0.363271
230 0.312022
235 0.36107
240 0.412521
245 0.404104
250 0.358563
255 0.37636
260 0.586666
265 6.86828
270 5.32865
275 1.00995
280 0.549679
285 0.474673
290 0.593242
295 0.60774
300 0.480883
305 0.460592
310 0.622757
315 0.525137
320 0.521221
325 0.502642
330 0.580767
335 0.594228
340 0.626644
345 0.503147
350 0.45931
355 0.520893
360 0.558717
365 0.533686
370 0.485941
375 0.458398
380 0.477842
385 0.561785
390 0.55629
395 0.479226
400 0.517486
405 0.496192
410 0.511663
415 0.589603
420 0.628429
425 0.617306
430 0.583229
435 0.564951
440 0.554717
445 0.730005
450 0.731066
455 0.648949
460 0.767636
465 0.79761
470 0.740481
475 0.944715
480 0.969255
485 1.03275
490 0.964269
495 1.17413
500 1.39305
505 1.46403
510 2.05431
515 2.8249
520 3.56147
525 5.53921
530 168.705
535 3293.18
540 5513.03
545 1453.88
550 172.97
555 23.1015
560 5.13829
565 2.617
570 1.87999
575 1.51388
580 1.42864
585 1.39703
590 1.47085
595 1.20734
600 0.832174
Ex : 548
200 0.296922
205 0.349404
210 0.408681
215 0.285831
220 0.410511
225 0.35841
230 0.359258
235 0.484043
240 0.361566
245 0.358732
250 0.384754
255 0.299832
260 0.381134
265 2.88011
270 10.4253
275 2.68784
280 0.758164
285 0.530551
290 0.588188
295 0.597391
300 0.54929
305 0.533671
310 0.563372
315 0.577614
320 0.500782
325 0.543237
330 0.521244
335 0.563884
340 0.562059
345 0.60657
350 0.611993
355 0.558148
360 0.564418
365 0.468724
370 0.418757
375 0.492343
380 0.545409
385 0.682783
390 0.53805
395 0.484507
400 0.562058
405 0.565603
410 0.49385
415 0.55578
420 0.648138
425 0.656296
430 0.604274
435 0.706317
440 0.591994
445 0.670504
450 0.731131
455 0.744599
460 0.873402
465 0.918664
470 0.873864
475 0.970554
480 0.976291
485 0.903382
490 1.02573
495 1.088
500 1.21083
505 1.20891
510 1.52152
515 1.89256
520 2.45587
525 3.22533
530 5.22603
535 168.121
540 3148.31
545 5109.79
550 1375.56
555 162.973
560 21.9714
565 5.00349
570 2.47386
575 1.87703
580 1.45692
585 1.26962
590 1.42259
595 1.33187
600 0.916699
Ex : 553
200 0.285772
205 0.348207
210 0.421243
215 0.410017
220 0.376364
225 0.330002
230 0.358222
235 0.319171
240 0.33961
245 0.405593
250 0.459234
255 0.456484
260 0.433675
265 0.647393
270 9.18731
275 8.29729
280 1.41293
285 0.502444
290 0.531136
295 0.626255
300 0.720496
305 0.582977
310 0.563892
315 0.520214
320 0.562293
325 0.533097
330 0.498245
335 0.589702
340 0.586491
345 0.538835
350 0.575661
355 0.465019
360 0.506265
365 0.563444
370 0.471607
375 0.492637
380 0.56029
385 0.622678
390 0.544661
395 0.531959
400 0.612571
405 0.554823
410 0.527867
415 0.51562
420 0.421318
425 0.614844
430 0.567663
435 0.550331
440 0.655158
445 0.778571
450 0.756975
455 0.763184
460 0.840133
465 0.924918
470 0.695009
475 0.831384
480 0.944722
485 0.980398
490 0.880687
495 0.939482
500 1.16491
505 1.21561
510 1.31107
515 1.49226
520 1.86737
525 2.40209
530 3.41911
535 5.44014
540 149.484
545 3092.1
550 5253.34
555 1418.22
560 168.532
565 22.5883
570 4.99048
575 2.49714
580 1.72893
585 1.3777
590 1.13811
595 1.31016
600 2.03103
Ex : 558
200 0.392064
205 0.406785
210 0.494726
215 0.339983
220 0.430824
225 0.431855
230 0.435191
235 0.320495
240 0.302932
245 0.318352
250 0.440614
255 0.341597
260 0.34433
265 0.364091
270 3.99634
275 15.7426
280 3.9737
285 0.928505
290 0.528948
295 0.667506
300 0.633259
305 0.651651
310 0.527032
315 0.545279
320 0.627239
325 0.55904
330 0.585756
335 0.61437
340 0.5766
345 0.584027
350 0.528512
355 0.464551
360 0.474398
365 0.480008
370 0.479429
375 0.549235
380 0.584494
385 0.651676
390 0.551594
395 0.533202
400 0.457737
405 0.55488
410 0.547445
415 0.645716
420 0.543883
425 0.620034
430 0.640802
435 0.581642
440 0.658033
445 0.644424
450 0.876794
455 0.785162
460 0.744423
465 0.908346
470 0.780334
475 0.781845
480 0.89905
485 0.858144
490 0.878399
495 0.911397
500 1.05838
505 1.07363
510 1.22706
515 1.36377
520 1.48431
525 1.88656
530 2.58399
535 3.15852
540 5.14327
545 144.977
550 2970.14
555 5203.09
560 1434
565 170.532
570 23.1885
575 4.96819
580 2.54768
585 1.84115
590 1.30395
595 1.146
600 0.692017
Ex : 563
200 0.24018
205 0.33812
210 0.38792
215 0.370694
220 0.365401
225 0.379559
230 0.377058
235 0.450177
240 0.363254
245 0.380934
250 0.376371
255 0.4667
260 0.499698
265 0.407334
270 0.702428
275 13.5636
280 11.3298
285 1.83012
290 0.61059
295 0.489162
300 0.685455
305 0.630053
310 0.684767
315 0.529906
320 0.517363
325 0.587525
330 0.712021
335 0.684756
340 0.626617
345 0.543075
350 0.581116
355 0.519264
360 0.541804
365 0.520099
370 0.480482
375 0.462184
380 0.5838
385 0.494671
390 0.454208
395 0.526721
400 0.742342
405 0.599282
410 0.629984
415 0.616091
420 0.53035
425 0.580248
430 0.505737
435 0.605791
440 0.669755
445 0.660523
450 0.606216
455 0.691775
460 0.854069
465 0.950825
470 0.70333
475 0.785324
480 0.876817
485 0.857396
490 0.873627
495 0.970313
500 1.0366
505 1.07677
510 0.950144
515 1.15288
520 1.32945
525 1.53501
530 1.75793
535 2.64061
540 3.17834
545 5.20255
550 135.637
555 2849.04
560 4935.05
565 1376.74
570 163.743
575 21.6255
580 4.60944
585 2.2507
590 1.64478
595 1.09446
600 0.775852
Ex : 568
200 0.414444
205 0.41185
210 0.360014
215 0.340453
220 0.440796
225 0.431284
230 0.351524
235 0.389355
240 0.420474
245 0.37104
250 0.401379
255 0.397025
260 0.422761
265 0.348754
270 0.413403
275 4.79731
280 18.8821
285 5.088
290 0.908222
295 0.532156
300 0.530375
305 0.600387
310 0.697628
315 0.596362
320 0.588838
325 0.756632
330 0.637805
335 0.543384
340 0.580853
345 0.511666
350 0.589868
355 0.629917
360 0.628966
365 0.422817
370 0.535941
375 0.559894
380 0.391684
385 0.596943
390 0.61671
395 0.543923
400 0.598086
405 0.634898
410 0.475884
415 0.678805
420 0.543746
425 0.718625
430 0.629007
435 0.632765
440 0.592169
445 0.702048
450 0.653954
455 0.785565
460 0.745249
465 0.815029
470 0.814104
475 0.715871
480 0.724905
485 0.803543
490 0.879206
495 0.8353
500 1.01178
505 0.946561
510 0.994584
515 1.0241
520 1.15451
525 1.42714
530 1.45509
535 1.73398
540 2.35911
545 3.05891
550 4.65685
555 110.091
560 2590.74
565 4854.04
570 1413.05
575 168.38
580 21.9673
585 4.51828
590 2.06289
595 1.42525
600 0.863299
Ex : 573
200 0.329782
205 0.432852
210 0.382754
215 0.368474
220 0.432527
225 0.374894
230 0.318685
235 0.382322
240 0.44786
245 0.322695
250 0.390815
255 0.381681
260 0.501397
265 0.433027
270 0.345138
275 0.806241
280 15.2843
285 14.0636
290 2.11865
295 0.693074
300 0.52287
305 0.439894
310 0.693517
315 0.576206
320 0.575601
325 0.567789
330 0.747436
335 0.606522
340 0.653332
345 0.622239
350 0.601569
355 0.587461
360 0.530573
365 0.635107
370 0.540237
375 0.607023
380 0.568273
385 0.509425
390 0.444172
395 0.450121
400 0.453365
405 0.598553
410 0.559142
415 0.687895
420 0.556575
425 0.560931
430 0.724708
435 0.62719
440 0.579774
445 0.567899
450 0.599858
455 0.631399
460 0.782958
465 0.678241
470 0.632462
475 0.627398
480 0.773644
485 0.759517
490 0.84198
495 0.861355
500 0.880662
505 0.984216
510 0.844549
515 0.926466
520 0.929284
525 1.14216
530 1.1406
535 1.37803
540 1.94769
545 2.41892
550 3.07664
555 4.59462
560 90.1911
565 2231.2
570 4502.82
575 1416.19
580 169.352
585 21.9409
590 4.12583
595 1.76533
600 1.44621
Ex : 578
200 0.364116
205 0.509988
210 0.398093
215 0.441975
220 0.393194
225 0.337069
230 0.503279
235 0.318305
240 0.388595
245 0.446239
250 0.366956
255 0.367186
260 0.484316
265 0.401362
270 0.425982
275 0.442107
280 5.71851
285 22.8411
290 6.6472
295 1.17164
300 0.528553
305 0.506892
310 0.519176
315 0.653071
320 0.553911
325 0.553062
330 0.51679
335 0.468211
340 0.549189
345 0.600787
350 0.53494
355 0.57746
360 0.443929
365 0.474608
370 0.577876
375 0.567762
380 0.652326
385 0.602247
390 0.529696
395 0.439043
400 0.54789
405 0.560114
410 0.631269
415 0.520637
420 0.552798
425 0.596198
430 0.571945
435 0.611412
440 0.540145
445 0.544307
450 0.641798
455 0.694361
460 0.740181
465 0.795495
470 0.679237
475 0.696692
480 0.746535
485 0.838779
490 0.809527
495 0.726389
500 0.738348
505 0.78573
510 0.809063
515 0.89785
520 0.8924
525 0.884084
530 0.933427
535 1.19921
540 1.36352
545 1.56637
550 2.09988
555 3.06187
560 4.73139
565 81.9239
570 2162.96
575 4016.48
580 1191.2
585 141.716
590 18.5098
595 3.54158
600 1.53902
Ex : 583
200 0.50033
205 0.426469
210 0.42291
215 0.51173
220 0.371141
225 0.343999
230 0.361875
235 0.357512
240 0.291711
245 0.433707
250 0.460171
255 0.330021
260 0.248938
265 0.509177
270 0.429771
275 0.440485
280 0.791089
285 17.9552
290 17.1486
295 2.66003
300 0.683113
305 0.461062
310 0.500948
315 0.626984
320 0.679846
325 0.51686
330 0.604905
335 0.481417
340 0.548285
345 0.494666
350 0.518658
355 0.489182
360 0.541592
365 0.471275
370 0.535429
375 0.503515
380 0.548044
385 0.566195
390 0.634397
395 0.407624
400 0.552831
405 0.478931
410 0.540693
415 0.706121
420 0.475352
425 0.554284
430 0.56835
435 0.54382
440 0.606694
445 0.567112
450 0.679848
455 0.529683
460 0.706306
465 0.829535
470 0.784475
475 0.94784
480 0.919869
485 0.73422
490 0.808385
495 0.740335
500 0.847785
505 0.754047
510 0.820192
515 0.882596
520 0.881492
525 0.910186
530 1.01438
535 0.966988
540 1.31103
545 1.3894
550 1.6725
555 2.15715
560 2.86395
565 4.14026
570 76.3927
575 1998.51
580 3757.14
585 1077.6
590 128.247
595 16.3762
600 3.73443
Ex : 588
200 0.328938
205 0.332476
210 0.436443
215 0.403286
220 0.269954
225 0.371945
230 0.310714
235 0.418668
240 0.443957
245 0.324609
250 0.355339
255 0.286587
260 0.297261
265 0.36805
270 0.484062
275 0.474695
280 0.44226
285 6.15445
290 27.0728
295 7.86363
300 1.29268
305 0.489946
310 0.47675
315 0.598728
320 0.623872
325 0.611856
330 0.657761
335 0.614936
340 0.496583
345 0.620848
350 0.612253
355 0.644146
360 0.549936
365 0.451795
370 0.554983
375 0.50695
380 0.555658
385 0.539202
390 0.53918
395 0.51288
400 0.61607
405 0.560728
410 0.412482
415 0.431256
420 0.54767
425 0.5645
430 0.514011
435 0.490866
440 0.541306
445 0.631125
450 0.74906
455 0.625002
460 0.627484
465 0.684307
470 0.7764
475 0.759249
480 0.627137
485 0.732175
490 0.688479
495 0.794724
500 0.652581
505 0.827987
510 0.657458
515 0.789645
520 0.736068
525 0.832356
530 0.796997
535 0.952265
540 1.09158
545 1.2773
550 1.45445
555 1.62705
560 1.88769
565 2.65018
570 3.6119
575 67.5336
580 1674.26
585 3102.77
590 925.364
595 110.042
600 14.1201
Ex : 593
200 0.433731
205 0.354562
210 0.399788
215 0.315035
220 0.342933
225 0.411722
230 0.412569
235 0.339618
240 0.507795
245 0.352812
250 0.496453
255 0.50514
260 0.363331
265 0.403348
270 0.34702
275 0.340246
280 0.491464
285 0.841842
290 21.4746
295 21.6017
300 3.19033
305 0.757965
310 0.483119
315 0.421315
320 0.627422
325 0.661079
330 0.809757
335 0.522827
340 0.514444
345 0.404267
350 0.440357
355 0.613179
360 0.616023
365 0.472424
370 0.583438
375 0.455567
380 0.525302
385 0.471856
390 0.476019
395 0.590425
400 0.4482
405 0.512304
410 0.530521
415 0.525133
420 0.463884
425 0.484343
430 0.397986
435 0.490876
440 0.565741
445 0.679132
450 0.68075
455 0.513683
460 0.633693
465 0.599855
470 0.680562
475 0.722554
480 0.721327
485 0.679183
490 0.619849
495 0.720976
500 0.762382
505 0.723795
510 0.676784
515 0.748212
520 0.632847
525 0.734007
530 0.860107
535 0.69843
540 0.998801
545 1.06964
550 1.0513
555 1.33696
560 1.57852
565 2.02035
570 2.57233
575 3.51133
580 55.6203
585 1426.56
590 2660.78
595 776.753
600 111.096
Ex : 598
200 0.492383
205 0.385578
210 0.410582
215 0.392243
220 0.348095
225 0.402012
230 0.403211
235 0.387406
240 0.398298
245 0.464884
250 0.321047
255 0.378583
260 0.328298
265 0.414008
270 0.538495
275 0.420104
280 0.414279
285 0.494372
290 7.38612
295 30.8968
300 9.6301
305 1.62645
310 0.601853
315 0.612806
320 0.554861
325 0.825571
330 0.72707
335 0.648207
340 0.564015
345 0.461812
350 0.49005
355 0.429565
360 0.527889
365 0.566786
370 0.517046
375 0.58287
380 0.534911
385 0.519485
390 0.461446
395 0.464816
400 0.599512
405 0.52802
410 0.602067
415 0.722375
420 0.692986
425 0.476036
430 0.582974
435 0.700939
440 0.555567
445 0.502787
450 0.519422
455 0.577191
460 0.551962
465 0.674722
470 0.793655
475 0.634313
480 0.711085
485 0.644958
490 0.693
495 0.613749
500 0.728448
505 0.590715
510 0.740332
515 0.784574
520 0.804245
525 0.772067
530 0.849416
535 0.850876
540 0.760303
545 0.890387
550 0.964082
555 1.15033
560 1.13561
565 1.29447
570 1.92442
575 2.22396
580 2.90581
585 56.2843
590 1357.89
595 2403.04
600 1503.59
Ex : 603
200 0.346454
205 0.397275
210 0.591024
215 0.413023
220 0.493891
225 0.36894
230 0.365291
235 0.397209
240 0.447545
245 0.324891
250 0.521661
255 0.378607
260 0.417521
265 0.406323
270 0.308478
275 0.31505
280 0.409615
285 0.599877
290 0.888073
295 23.8439
300 25.5184
305 3.88168
310 0.759354
315 0.542811
320 0.574241
325 0.576766
330 0.621998
335 0.664458
340 0.452241
345 0.629867
350 0.570627
355 0.444487
360 0.524414
365 0.59235
370 0.474867
375 0.568022
380 0.453097
385 0.535185
390 0.439849
395 0.467307
400 0.480729
405 0.427972
410 0.564423
415 0.488654
420 0.520212
425 0.558584
430 0.611665
435 0.551322
440 0.496873
445 0.562114
450 0.622965
455 0.555964
460 0.637684
465 0.642407
470 0.570396
475 0.48211
480 0.702358
485 0.691736
490 0.787892
495 0.903875
500 0.753079
505 0.785828
510 0.684264
515 0.640279
520 0.779647
525 0.596522
530 0.764833
535 0.826848
540 0.662356
545 0.929172
550 0.891967
555 1.08397
560 1.10717
565 1.18908
570 1.28119
575 1.7197
580 1.8454
585 2.94422
590 50.4202
595 1149.5
600 2317.53
