File format V 1.0
jeu. 12. mai 15:15:38 2016
Operator : 
Comments : 

=============================================
SpectroFluorometer parameters
Mode : 3D measurement
Data : Fluorescence
Phospho. : Ordinary
Spectrum : Fluorescence

Scan speed : 2400 nm/mn
Response : 100 ms
PM Voltage : 700 V
Shutter : On

Lambda Ex. Start : 203
Lambda Ex. End : 603
Lambda Ex. Step : 5
Ex. Slit : 5 nm

Lambda Em. Start : 200
Lambda Em. End : 600
Lambda Em. Step : 5
Em. Slit : 5 nm

Repetition : 1
Decal lambda em : 10
=============================================
DATA
Ex : 203
200 9.16667
205 10.3658
210 8.97101
215 7.8717
220 10.0102
225 10.5515
230 10.053
235 9.82003
240 10.8552
245 8.57461
250 8.70943
255 8.57131
260 9.11234
265 9.01278
270 7.96419
275 8.44171
280 8.72091
285 10.6659
290 9.23388
295 11.0654
300 9.91186
305 11.7114
310 12.6793
315 9.90711
320 9.91813
325 10.7845
330 11.7396
335 12.1071
340 12.6012
345 13.6439
350 11.9589
355 11.8529
360 13.3175
365 12.6687
370 11.3671
375 10.9763
380 10.3537
385 16.5845
390 13.679
395 12.0615
400 11.4093
405 16.1262
410 13.2351
415 18.339
420 12.2012
425 10.9784
430 12.7123
435 11.1464
440 13.022
445 14.343
450 16.3556
455 12.917
460 13.9967
465 13.8
470 15.1502
475 13.2905
480 16.7968
485 11.8091
490 11.9736
495 15.0069
500 14.1782
505 10.4705
510 8.71064
515 12.2476
520 12.2343
525 11.5572
530 16.0652
535 12.2435
540 10.8496
545 10.9028
550 14.8292
555 12.4221
560 13.4461
565 14.0166
570 10.7001
575 8.71365
580 12.22
585 9.7826
590 10.3063
595 12.7774
600 1.45402
Ex : 208
200 7.64607
205 9.63859
210 10.0644
215 9.78218
220 8.77778
225 8.68584
230 6.77153
235 7.36204
240 7.5944
245 11.3165
250 9.29988
255 7.91907
260 9.07393
265 9.806
270 9.95216
275 11.5682
280 10.9577
285 9.28608
290 10.4185
295 12.8506
300 8.37474
305 8.53385
310 12.8154
315 10.3104
320 11.7014
325 10.477
330 9.81448
335 13.0373
340 10.3551
345 16.32
350 12.899
355 13.5553
360 15.7012
365 11.6318
370 10.2965
375 15.0573
380 10.3162
385 14.6898
390 13.5684
395 10.2787
400 13.4355
405 11.6003
410 12.7983
415 13.3761
420 11.1465
425 15.9834
430 15.4737
435 11.9765
440 16.6937
445 16.8335
450 16.337
455 14.0142
460 12.9276
465 14.029
470 13.8873
475 13.8246
480 14.4915
485 11.5267
490 16.5524
495 11.2691
500 11.2016
505 12.7024
510 9.8335
515 11.3055
520 11.7198
525 13.7163
530 11.3142
535 13.729
540 12.1774
545 17.1522
550 15.707
555 13.9439
560 14.4196
565 12.3549
570 12.2437
575 10.5657
580 13.4861
585 11.794
590 11.9566
595 9.32677
600 18.49
Ex : 213
200 8.51053
205 12.8426
210 6.71012
215 9.64932
220 13.2078
225 11.644
230 8.11595
235 6.72597
240 9.17627
245 10.4551
250 11.0271
255 9.18145
260 9.51588
265 6.83109
270 8.76675
275 10.8113
280 10.6072
285 12.0292
290 9.53128
295 10.5392
300 12.2039
305 11.7136
310 8.19622
315 9.74669
320 11.2981
325 10.9005
330 8.13203
335 8.96284
340 10.912
345 12.9084
350 8.82963
355 10.753
360 14.0039
365 13.9113
370 10.9328
375 10.9973
380 13.5632
385 13.2616
390 11.8188
395 11.4286
400 10.3437
405 12.672
410 11.4469
415 11.6257
420 13.72
425 10.3249
430 14.6907
435 9.28505
440 13.1204
445 18.1569
450 11.5943
455 13.0134
460 12.7728
465 14.4747
470 14.9848
475 12.9368
480 17.0396
485 12.3973
490 15.3099
495 15.8518
500 10.1352
505 14.0346
510 12.8582
515 12.7623
520 11.5058
525 11.2841
530 12.5469
535 11.6952
540 11.8001
545 10.4647
550 10.021
555 9.63807
560 14.4662
565 12.3304
570 12.7388
575 13
580 9.19651
585 10.2428
590 11.0711
595 10.6066
600 15.2386
Ex : 218
200 9.26804
205 9.12324
210 11.2196
215 7.94991
220 10.6917
225 11.4436
230 10.4168
235 9.15133
240 13.7131
245 6.03394
250 7.72811
255 7.80393
260 9.00717
265 10.2355
270 9.87596
275 8.79638
280 11.0314
285 11.254
290 9.96132
295 9.34471
300 9.41309
305 8.63945
310 12.7107
315 9.32646
320 9.50062
325 10.5211
330 11.1441
335 8.08477
340 12.9927
345 10.1734
350 11.0454
355 12.6552
360 15.7896
365 12.902
370 12.7709
375 11.9033
380 9.06549
385 9.58088
390 13.018
395 13.8144
400 12.0458
405 10.4778
410 15.2485
415 9.55928
420 13.0468
425 10.9592
430 14.1898
435 10.2564
440 11.2918
445 14.6491
450 13.7963
455 10.7855
460 12.7738
465 12.3096
470 15.3101
475 13.592
480 13.3498
485 11.9848
490 16.477
495 15.5987
500 13.8057
505 11.8616
510 12.3113
515 12.081
520 11.3493
525 14.3438
530 9.44742
535 11.295
540 13.605
545 10.8604
550 11.1271
555 9.41463
560 15.1284
565 10.186
570 12.4557
575 11.5333
580 8.62968
585 13.848
590 16.0329
595 13.4753
600 1.53344
Ex : 223
200 10.3957
205 7.27564
210 9.87103
215 9.1548
220 9.52588
225 8.76287
230 7.77316
235 7.06071
240 11.7847
245 11.2012
250 8.1631
255 7.60659
260 8.77916
265 9.29582
270 8.46162
275 8.85651
280 9.68892
285 7.40893
290 7.71231
295 11.2398
300 7.73913
305 8.74693
310 9.68974
315 15.6161
320 10.3906
325 12.267
330 10.2934
335 11.2868
340 13.0857
345 17.4797
350 12.2431
355 14.1536
360 10.2559
365 10.9573
370 12.2233
375 11.9382
380 11.8738
385 11.1395
390 9.40707
395 14.254
400 11.5592
405 15.7447
410 13.2897
415 12.6354
420 14.0133
425 14.9214
430 13.355
435 11.4223
440 14.9199
445 13.3164
450 14.0544
455 15.7003
460 15.9216
465 18.1721
470 15.6413
475 13.5503
480 13.7519
485 12.0993
490 13.3712
495 10.7087
500 11.5065
505 10.2132
510 15.1692
515 12.3895
520 12.2706
525 10.3816
530 11.4847
535 9.94968
540 12.123
545 12.0667
550 14.6857
555 19.0525
560 14.6724
565 10.8844
570 13.3944
575 14.7806
580 12.9921
585 9.55434
590 12.6261
595 12.8893
600 114.901
Ex : 228
200 9.16418
205 4.52886
210 7.1275
215 9.14404
220 9.52279
225 11.7017
230 9.13282
235 8.44448
240 8.71412
245 11.953
250 9.23662
255 7.65133
260 10.1851
265 7.14825
270 7.8299
275 7.24066
280 12.2501
285 7.13936
290 7.47962
295 9.1133
300 8.47208
305 8.32174
310 9.10334
315 7.96567
320 11.247
325 12.7844
330 13.531
335 10.7154
340 14.4475
345 13.4446
350 13.9927
355 13.6859
360 13.2882
365 13.1653
370 12.7134
375 10.7918
380 11.927
385 15.4735
390 11.4777
395 12.6206
400 10.6828
405 13.9779
410 13.6618
415 9.77948
420 12.4761
425 13.8178
430 16.2121
435 13.6913
440 13.4483
445 14.8192
450 24.0204
455 35.197
460 33.0852
465 17.0327
470 14.0963
475 12.82
480 12.759
485 10.747
490 12.7905
495 11.6578
500 9.28603
505 14.0953
510 14.8557
515 11.1583
520 11.4504
525 9.22594
530 10.1972
535 10.5171
540 10.0632
545 10.1425
550 12.7009
555 12.0674
560 10.5818
565 11.0466
570 12.7649
575 11.3089
580 12.9528
585 8.98726
590 10.4499
595 10.6435
600 10.7379
Ex : 233
200 10.0491
205 5.93562
210 8.42973
215 7.30911
220 6.93355
225 12.6155
230 16.1136
235 9.55746
240 8.44661
245 9.71245
250 8.23274
255 8.33626
260 6.72622
265 8.83475
270 6.86104
275 8.1287
280 6.9918
285 9.27788
290 8.98962
295 7.36366
300 9.52746
305 8.70634
310 8.94405
315 9.25079
320 12.9287
325 12.8998
330 10.8997
335 13.5471
340 14.6368
345 13.797
350 11.5121
355 14.8014
360 11.3088
365 14.5758
370 13.8117
375 14.218
380 11.5988
385 13.1526
390 11.9514
395 10.4169
400 12.5449
405 15.3368
410 14.8423
415 11.2079
420 15.1043
425 10.2281
430 12.3434
435 14.1254
440 10.7457
445 11.764
450 11.9854
455 26.6795
460 84.9882
465 121.754
470 80.6252
475 26.0167
480 14.9323
485 13.2159
490 10.8128
495 12.4005
500 13.1451
505 13.0751
510 10.0035
515 11.087
520 12.5818
525 13.1916
530 11.5551
535 8.76802
540 11.0071
545 9.46715
550 12.8372
555 12.6081
560 11.6299
565 9.63834
570 13.3871
575 10.4045
580 13.5076
585 11.7596
590 9.78123
595 9.25226
600 35.1717
Ex : 238
200 8.50775
205 5.77555
210 7.45833
215 6.16943
220 6.44265
225 6.0639
230 14.6934
235 25.4797
240 12.269
245 8.08924
250 7.36597
255 7.4971
260 6.95336
265 5.23646
270 5.23503
275 5.94423
280 6.78063
285 8.07292
290 7.73339
295 9.94228
300 7.90185
305 10.0783
310 7.57633
315 8.88446
320 11.6856
325 10.4088
330 10.6217
335 11.7155
340 12.1533
345 12.3498
350 13.5879
355 10.8998
360 12.5796
365 12.3541
370 13.7011
375 10.887
380 15.754
385 11.0599
390 10.8732
395 13.0388
400 13.0079
405 10.475
410 11.4644
415 11.2011
420 10.1367
425 11.3534
430 10.1332
435 11.6221
440 10.5419
445 11.0432
450 12.6359
455 8.94623
460 14.4722
465 58.6821
470 179.517
475 211.149
480 114.002
485 27.4337
490 10.9776
495 12.4688
500 12.8422
505 14.9917
510 13.8514
515 13.7896
520 11.1034
525 10.987
530 9.07725
535 13.2042
540 9.93035
545 11.5668
550 11.3668
555 9.45826
560 9.52411
565 11.5077
570 12.8062
575 10.3964
580 13.3768
585 11.2917
590 11.0733
595 12.738
600 1.44954
Ex : 243
200 5.34641
205 10.1659
210 6.11784
215 6.56297
220 6.2827
225 5.7094
230 6.52955
235 25.4243
240 31.8482
245 13.4844
250 6.06992
255 8.78129
260 6.25548
265 5.785
270 6.59842
275 6.2684
280 6.53653
285 4.63344
290 8.07129
295 7.83714
300 6.07908
305 6.18797
310 7.77009
315 9.03611
320 9.78658
325 9.28043
330 10.724
335 10.7054
340 10.9116
345 7.8537
350 11.3146
355 14.219
360 11.5764
365 11.1734
370 10.0762
375 9.06964
380 8.9704
385 11.2093
390 8.25699
395 8.19791
400 9.08121
405 10.7528
410 10.305
415 10.4706
420 9.80644
425 11.7357
430 9.0585
435 10.2456
440 9.93933
445 10.4065
450 9.98071
455 10.1627
460 13.1814
465 8.79551
470 18.0992
475 92.289
480 227.795
485 222.202
490 104.615
495 26.3101
500 12.5725
505 11.3612
510 12.0012
515 15.9996
520 17.0074
525 16.8301
530 14.5304
535 13.5903
540 8.83578
545 9.89886
550 8.31582
555 10.2373
560 11.6757
565 7.6619
570 12.2843
575 9.63198
580 8.15496
585 8.35428
590 7.19985
595 7.87166
600 4.26334
Ex : 248
200 3.25405
205 3.15219
210 4.8803
215 4.65313
220 5.74106
225 4.34861
230 4.54185
235 5.98017
240 26.3248
245 29.2536
250 9.91253
255 4.68267
260 5.8087
265 6.65688
270 4.7788
275 5.55062
280 6.07478
285 5.41183
290 4.71039
295 6.63776
300 7.33997
305 8.06232
310 6.92554
315 6.67555
320 6.85382
325 8.60081
330 7.57951
335 9.04305
340 10.2921
345 10.6985
350 10.5505
355 10.8814
360 9.38335
365 11.0238
370 10.6118
375 10.6331
380 9.7597
385 9.44662
390 11.6731
395 9.80921
400 9.76808
405 6.94044
410 9.24081
415 8.37832
420 8.7645
425 7.86963
430 10.11
435 7.63426
440 8.5573
445 7.19865
450 6.86148
455 8.65195
460 8.41598
465 9.81502
470 10.0726
475 8.47777
480 20.2757
485 104.815
490 235.609
495 213.588
500 85.2354
505 18.9975
510 8.67805
515 7.57553
520 9.00192
525 13.3498
530 14.6913
535 16.1074
540 11.0276
545 7.8282
550 7.95374
555 9.46765
560 8.15011
565 8.62968
570 10.897
575 7.7
580 7.36537
585 7.11482
590 7.37041
595 7.23153
600 10.5712
Ex : 253
200 2.83122
205 3.56219
210 2.87741
215 3.17803
220 4.72132
225 3.92061
230 2.94638
235 4.17802
240 4.14741
245 18.3992
250 37.4813
255 13.0337
260 5.40969
265 4.16598
270 5.44532
275 6.53695
280 6.87807
285 4.46634
290 5.40767
295 4.99263
300 4.67216
305 7.0813
310 5.82017
315 6.49871
320 6.42851
325 7.48061
330 8.35636
335 7.24674
340 9.19735
345 8.42912
350 9.22357
355 8.61058
360 10.4064
365 8.75976
370 9.47414
375 6.98742
380 8.00458
385 6.2465
390 7.49384
395 8.18727
400 6.77266
405 9.10814
410 7.39769
415 7.05667
420 6.1093
425 7.32289
430 7.01213
435 8.31342
440 8.08977
445 6.87242
450 5.24563
455 6.97534
460 5.00787
465 7.42865
470 5.4078
475 7.37078
480 7.47002
485 8.21452
490 20.0362
495 96.9904
500 182.716
505 213.262
510 154.29
515 35.5643
520 12.0134
525 9.10921
530 7.46296
535 10.2794
540 10.7634
545 12.655
550 13.4163
555 11.6732
560 10.4016
565 8.48559
570 7.6131
575 6.56552
580 6.45883
585 7.88645
590 6.93316
595 6.06547
600 3.34884
Ex : 258
200 2.43974
205 3.01132
210 2.10053
215 3.68687
220 2.79907
225 2.46285
230 3.09407
235 2.3754
240 1.93374
245 4.24262
250 54.4439
255 135.352
260 38.4613
265 9.28822
270 5.65252
275 6.08706
280 7.7838
285 5.27219
290 5.20526
295 5.27865
300 5.40659
305 6.66106
310 6.79939
315 7.86626
320 7.8489
325 7.20442
330 9.64404
335 8.5989
340 8.15228
345 9.24809
350 9.31112
355 9.129
360 8.99722
365 8.74917
370 8.42007
375 8.29207
380 7.11697
385 8.20014
390 7.08522
395 5.87466
400 6.02648
405 6.3087
410 7.67198
415 5.89919
420 5.79924
425 6.61983
430 8.02522
435 5.76206
440 6.61225
445 6.40686
450 7.74
455 6.48302
460 7.32514
465 7.17101
470 6.86496
475 6.25293
480 7.64361
485 6.6688
490 5.90034
495 7.70199
500 19.9658
505 163.072
510 519.101
515 722.693
520 346.666
525 65.6556
530 17.5004
535 10.3447
540 9.98934
545 10.0121
550 14.7988
555 17.4997
560 18.5767
565 15.2571
570 10.153
575 7.83056
580 8.34799
585 7.7461
590 7.89628
595 8.21345
600 12.0463
Ex : 263
200 2.59497
205 1.84389
210 2.41258
215 2.38553
220 2.52253
225 1.96287
230 2.4489
235 1.71777
240 3.11284
245 2.14107
250 7.61849
255 128.888
260 216.482
265 61.5954
270 10.8151
275 5.18813
280 8.94233
285 9.36287
290 6.17993
295 5.58885
300 5.90674
305 6.88877
310 9.01921
315 7.6333
320 7.3981
325 8.28309
330 8.52178
335 9.35631
340 10.1933
345 10.7174
350 10.2318
355 9.6477
360 9.13051
365 8.97071
370 7.74489
375 7.23283
380 7.98174
385 6.30577
390 6.04721
395 5.22035
400 6.14842
405 6.75723
410 6.67585
415 6.45005
420 6.17349
425 5.19724
430 6.08454
435 5.97817
440 6.04132
445 5.40896
450 6.9079
455 6.53753
460 6.75986
465 6.53472
470 6.63238
475 5.3513
480 6.74251
485 5.38772
490 7.48653
495 6.90387
500 5.6929
505 6.73552
510 62.338
515 413.189
520 1253.89
525 1276.72
530 521.358
535 95.1399
540 21.302
545 13.6023
550 11.2195
555 10.535
560 17.0078
565 21.3582
570 22.834
575 18.6096
580 13.333
585 9.39781
590 7.7332
595 9.58376
600 7.48059
Ex : 268
200 1.22233
205 2.36152
210 1.96026
215 2.07208
220 1.41219
225 1.32948
230 1.671
235 1.9426
240 1.85234
245 1.89917
250 2.0083
255 10.2594
260 183.322
265 342.498
270 103.69
275 16.6137
280 6.70958
285 8.76956
290 10.6108
295 7.86663
300 8.08008
305 8.18928
310 8.32701
315 7.86365
320 8.91798
325 7.93645
330 10.503
335 8.509
340 9.76485
345 9.81266
350 8.98766
355 7.67784
360 8.14567
365 8.24381
370 6.40931
375 6.64346
380 7.55554
385 6.25955
390 6.54128
395 5.75476
400 6.50071
405 4.88571
410 4.55525
415 4.8513
420 4.30031
425 5.23903
430 5.43777
435 4.37903
440 5.08516
445 4.92475
450 5.9786
455 5.19004
460 5.93534
465 5.47684
470 5.73009
475 6.51225
480 5.29621
485 5.01269
490 4.83685
495 5.24495
500 5.06353
505 5.10367
510 5.25333
515 5.79265
520 86.1791
525 619.914
530 1495.8
535 1573.54
540 722.635
545 125.764
550 27.2648
555 13.7284
560 11.8222
565 10.6648
570 13.7286
575 19.7196
580 22.5011
585 20.7692
590 16.1073
595 12.8663
600 16.6837
Ex : 273
200 1.49418
205 1.54872
210 1.31791
215 1.2141
220 1.77046
225 1.32316
230 1.93834
235 1.18114
240 1.50312
245 1.4864
250 1.47775
255 1.66167
260 16.6619
265 297.633
270 552.302
275 146.121
280 21.6175
285 7.39393
290 9.52828
295 12.2575
300 11.519
305 7.59487
310 8.44462
315 8.10094
320 9.37564
325 9.43677
330 9.4153
335 9.49652
340 9.64102
345 9.81296
350 9.20303
355 8.52809
360 8.37973
365 7.06901
370 6.76559
375 5.3003
380 6.5228
385 4.84723
390 4.79764
395 4.33132
400 4.70585
405 4.90946
410 5.05734
415 4.80928
420 4.27475
425 5.51573
430 4.25368
435 4.2596
440 4.76424
445 4.24905
450 4.67405
455 4.26764
460 5.25004
465 4.89445
470 4.32195
475 5.10189
480 4.53266
485 4.0072
490 4.39114
495 4.633
500 5.23993
505 5.09537
510 5.38033
515 4.9373
520 5.25866
525 7.06095
530 127.682
535 942.452
540 1976.71
545 1949.52
550 887.029
555 149.873
560 29.8816
565 14.7206
570 12.0595
575 11.5322
580 12.7865
585 17.6923
590 21.5948
595 22.0202
600 16.0562
Ex : 278
200 1.3376
205 1.00595
210 1.13779
215 0.882213
220 1.2979
225 0.933027
230 1.33903
235 1.25901
240 1.56751
245 1.26083
250 2.03461
255 1.57335
260 2.31933
265 22.562
270 416.323
275 758.168
280 185.861
285 26.6537
290 8.13729
295 8.96961
300 13.5956
305 12.656
310 9.247
315 8.16721
320 8.50297
325 9.45163
330 9.50908
335 9.13624
340 9.33996
345 8.82736
350 9.32983
355 7.61202
360 7.34424
365 6.43061
370 6.83178
375 5.66415
380 5.20817
385 5.4864
390 4.78497
395 4.42066
400 4.35587
405 4.08203
410 3.76856
415 4.42297
420 4.65305
425 3.9254
430 4.40122
435 4.58669
440 4.90411
445 4.47486
450 4.27601
455 3.88456
460 4.24632
465 4.58404
470 5.11858
475 4.0324
480 4.64407
485 4.76452
490 3.59347
495 4.07055
500 3.74808
505 3.76195
510 3.9916
515 4.18369
520 4.75829
525 5.68
530 5.57281
535 9.64927
540 186.42
545 1205.13
550 2774.95
555 2536.47
560 1013.74
565 166.576
570 32.4766
575 14.835
580 11.5269
585 10.8321
590 11.272
595 15.1276
600 16.9735
Ex : 283
200 0.985901
205 1.11378
210 1.2593
215 1.23334
220 0.845857
225 0.88373
230 0.974136
235 1.41404
240 1.3159
245 1.29095
250 1.43384
255 1.6046
260 1.62752
265 1.69189
270 27.8061
275 556.785
280 906.496
285 225.466
290 31.1292
295 8.89595
300 8.1255
305 12.5822
310 11.5297
315 8.65142
320 8.0153
325 8.78656
330 8.7473
335 8.93725
340 9.1078
345 8.88567
350 7.72358
355 7.0385
360 6.75018
365 5.97032
370 5.71527
375 5.57778
380 5.32634
385 5.339
390 4.15422
395 4.18697
400 4.17708
405 3.99291
410 4.30941
415 4.00082
420 4.05516
425 3.74898
430 3.62373
435 3.83729
440 4.02271
445 3.93882
450 3.8703
455 4.1017
460 3.87142
465 3.79834
470 3.8423
475 3.87686
480 4.25236
485 3.41501
490 4.1315
495 3.64848
500 4.01112
505 3.70367
510 3.54692
515 3.26276
520 4.83093
525 4.11086
530 4.39741
535 4.96413
540 5.92504
545 10.7223
550 231.968
555 1473.23
560 3171.41
565 2846.35
570 1085.49
575 170.603
580 31.4661
585 13.4932
590 10.4008
595 9.01426
600 5.94705
Ex : 288
200 0.961825
205 0.74702
210 0.903342
215 1.1173
220 0.973496
225 0.968625
230 0.96106
235 0.931548
240 0.868417
245 0.92274
250 0.889737
255 0.949285
260 1.37532
265 2.05384
270 2.07384
275 32.7422
280 632.813
285 978.39
290 247.534
295 33.453
300 8.71713
305 6.49732
310 11.239
315 12.2388
320 10.0208
325 7.82429
330 8.02891
335 7.53834
340 7.07023
345 7.80546
350 6.99008
355 6.58081
360 5.9232
365 5.8518
370 5.11105
375 4.5141
380 4.93566
385 4.14765
390 4.33129
395 4.05411
400 4.0685
405 4.24042
410 4.10563
415 3.92758
420 3.19363
425 3.9772
430 3.19731
435 3.44391
440 3.74317
445 3.46254
450 4.03717
455 3.80336
460 3.65504
465 4.14472
470 3.4388
475 3.5555
480 3.80763
485 3.38901
490 3.65822
495 3.2034
500 3.40023
505 3.38847
510 3.0881
515 3.62672
520 3.14163
525 3.10372
530 3.77508
535 3.64178
540 4.13569
545 4.76959
550 5.7275
555 10.1799
560 251.352
565 1497.93
570 3157.12
575 2711.93
580 1006.5
585 153.186
590 26.827
595 11.701
600 9.08179
Ex : 293
200 0.684624
205 0.761589
210 0.785183
215 0.779111
220 0.783188
225 0.65995
230 0.850528
235 0.890438
240 0.744825
245 0.717086
250 0.861179
255 0.83482
260 1.37111
265 1.22596
270 1.74847
275 2.18949
280 40.4842
285 694.342
290 1073.59
295 263.348
300 35.7915
305 8.3392
310 5.91225
315 9.97912
320 12.0129
325 8.95789
330 6.96792
335 6.70854
340 6.59721
345 6.52218
350 6.34515
355 6.23398
360 5.74827
365 5.69813
370 4.72787
375 4.72497
380 4.79515
385 4.14426
390 3.95774
395 3.70831
400 3.98737
405 4.02952
410 3.65256
415 3.36786
420 3.24038
425 3.34989
430 3.38603
435 3.66067
440 3.47861
445 3.53769
450 3.52634
455 3.25839
460 2.87065
465 3.29888
470 3.07756
475 3.20278
480 3.26556
485 3.04131
490 2.72501
495 2.95926
500 3.02582
505 2.71257
510 2.93397
515 2.99114
520 2.8485
525 2.7314
530 2.71788
535 3.17331
540 3.5972
545 3.26583
550 4.33726
555 4.87968
560 6.02105
565 12.2042
570 280.505
575 1660.79
580 3211.63
585 2603.64
590 881.617
595 129.204
600 25.0743
Ex : 298
200 0.721819
205 0.760168
210 0.712439
215 0.398432
220 0.737678
225 0.8865
230 0.703652
235 0.969781
240 0.879158
245 0.824748
250 0.880552
255 1.00046
260 1.13551
265 1.0322
270 1.09456
275 1.38902
280 2.43014
285 44.3678
290 797.247
295 1203.78
300 288.854
305 38.9184
310 8.26568
315 6.26101
320 8.94032
325 12.2205
330 9.66305
335 6.22623
340 5.915
345 6.16389
350 5.28861
355 5.07657
360 4.49717
365 4.80731
370 4.00205
375 3.74475
380 3.82126
385 3.88149
390 3.97893
395 3.9295
400 3.74169
405 3.31697
410 3.56621
415 3.35993
420 3.57442
425 3.66304
430 3.56723
435 3.26434
440 3.20912
445 3.20063
450 3.55979
455 3.42186
460 3.53021
465 3.15499
470 2.85603
475 3.1508
480 2.79502
485 2.85024
490 3.21914
495 2.45482
500 2.64246
505 2.1885
510 2.68721
515 2.35292
520 2.60241
525 2.17845
530 2.58984
535 2.71511
540 2.76958
545 3.16459
550 2.95897
555 2.94806
560 3.78228
565 4.59068
570 5.47569
575 11.4432
580 311.351
585 1705.75
590 3021.98
595 2325.48
600 1260.52
Ex : 303
200 0.645606
205 0.760973
210 0.625055
215 0.590961
220 0.82914
225 0.805051
230 0.630015
235 0.533258
240 0.708692
245 0.651254
250 0.560398
255 0.819763
260 1.03163
265 1.139
270 0.917407
275 0.837772
280 1.42208
285 2.38323
290 45.4317
295 849.034
300 1299.12
305 306.468
310 40.1449
315 8.82734
320 5.28754
325 7.52063
330 11.0924
335 9.79843
340 6.41756
345 4.67924
350 4.50479
355 3.9827
360 3.53133
365 3.3758
370 3.41385
375 3.54666
380 3.34128
385 2.9153
390 3.19073
395 3.19198
400 3.18138
405 3.14959
410 3.66718
415 3.10828
420 3.42653
425 3.10245
430 3.0683
435 3.0737
440 3.3121
445 3.09863
450 2.91078
455 3.18667
460 2.83043
465 2.79271
470 3.01573
475 2.79859
480 2.61804
485 2.68165
490 2.49204
495 2.54215
500 2.25003
505 2.04335
510 2.46173
515 2.35116
520 2.2716
525 2.18367
530 2.05195
535 2.16995
540 2.05357
545 2.26718
550 2.1935
555 2.35397
560 2.93941
565 2.83709
570 3.22679
575 4.019
580 5.04656
585 12.0336
590 335.36
595 1690.48
600 2532.62
Ex : 308
200 0.451278
205 0.562306
210 0.736987
215 0.58419
220 0.671713
225 0.552618
230 0.546125
235 0.664417
240 0.842833
245 0.800289
250 0.557019
255 0.564001
260 0.708426
265 0.661025
270 0.895301
275 0.78041
280 1.04567
285 1.6346
290 2.21974
295 55.4851
300 918.794
305 1388.25
310 334.117
315 43.7479
320 9.20062
325 5.03569
330 5.8209
335 10.2969
340 9.47767
345 6.30402
350 3.72553
355 3.5613
360 3.28003
365 3.00333
370 2.88935
375 3.01574
380 2.88433
385 2.91177
390 2.95405
395 2.71665
400 3.20092
405 2.94452
410 3.78368
415 2.99725
420 3.29398
425 3.27616
430 3.08245
435 3.11771
440 2.89658
445 2.77058
450 3.34735
455 2.8248
460 3.01
465 2.89168
470 2.81545
475 2.88881
480 2.33557
485 2.37948
490 2.41169
495 2.38319
500 2.05768
505 2.12888
510 1.96494
515 1.92938
520 1.97325
525 1.99718
530 1.76203
535 1.99772
540 2.05573
545 1.85412
550 1.97756
555 2.12226
560 2.16535
565 2.34234
570 2.56106
575 2.70163
580 3.21158
585 4.08516
590 5.25941
595 12.8491
600 54.9623
Ex : 313
200 0.621772
205 0.658919
210 0.477658
215 0.699592
220 0.537718
225 0.591803
230 0.451586
235 0.651676
240 0.480716
245 0.581916
250 0.512298
255 0.611681
260 0.614734
265 0.601637
270 0.604553
275 0.794536
280 0.906702
285 1.10653
290 1.28686
295 2.20144
300 56.5235
305 1036.17
310 1519.07
315 361.289
320 46.6277
325 9.44463
330 4.99432
335 5.45946
340 9.55165
345 10.3575
350 6.83437
355 4.00413
360 3.03105
365 2.77903
370 2.78501
375 2.5902
380 2.62612
385 2.96418
390 2.67949
395 2.58327
400 2.60019
405 2.92679
410 3.11793
415 2.98633
420 3.31135
425 3.39432
430 2.91166
435 2.8171
440 2.96168
445 3.36169
450 2.69857
455 2.94107
460 3.05873
465 2.67037
470 2.70758
475 2.69668
480 2.76222
485 2.41139
490 2.25462
495 2.04091
500 2.18265
505 1.96045
510 1.86246
515 2.03673
520 1.67983
525 1.92832
530 1.90529
535 1.65036
540 1.7104
545 1.90893
550 1.70194
555 1.78773
560 1.83813
565 1.81894
570 1.80827
575 2.19519
580 2.28217
585 2.57888
590 2.9347
595 3.56002
600 3.51504
Ex : 318
200 0.501486
205 0.489235
210 0.477253
215 0.527927
220 0.561422
225 0.560702
230 0.553901
235 0.504417
240 0.599218
245 0.497066
250 0.574792
255 0.385318
260 0.450935
265 0.674707
270 0.7364
275 0.630322
280 0.814686
285 0.855571
290 1.09018
295 1.57048
300 2.56865
305 73.2522
310 1172.84
315 1691.62
320 394.426
325 50.6803
330 9.91422
335 4.44551
340 4.66775
345 8.02361
350 9.67975
355 7.25626
360 3.78603
365 3.02232
370 2.78553
375 2.76347
380 2.74961
385 2.74938
390 2.97789
395 2.90603
400 2.85542
405 2.99425
410 2.84645
415 2.88634
420 3.01104
425 3.09336
430 3.32751
435 2.95127
440 2.95818
445 2.81938
450 2.82378
455 2.61312
460 2.60067
465 2.89824
470 2.71183
475 2.87777
480 2.58473
485 2.41556
490 2.36041
495 2.08215
500 2.10552
505 2.18907
510 1.99528
515 1.77654
520 1.84387
525 1.58043
530 1.62309
535 1.79164
540 1.93436
545 1.78908
550 1.63284
555 1.69298
560 1.57667
565 1.61577
570 1.56696
575 1.43532
580 1.73255
585 1.73021
590 2.10429
595 2.15745
600 2.48355
Ex : 323
200 0.49591
205 0.367395
210 0.514655
215 0.416582
220 0.484352
225 0.559923
230 0.486467
235 0.455808
240 0.58343
245 0.615829
250 0.607158
255 0.541767
260 0.667525
265 0.50254
270 0.601544
275 0.5182
280 0.758301
285 0.759376
290 0.945548
295 1.11128
300 1.53109
305 2.56415
310 79.5618
315 1280.67
320 1914.12
325 464.218
330 59.4874
335 11.328
340 4.90366
345 4.29859
350 7.16817
355 9.54992
360 7.53956
365 4.36211
370 2.94355
375 2.97111
380 2.69545
385 2.63806
390 2.68841
395 2.527
400 2.81884
405 3.05161
410 2.96758
415 2.76578
420 2.78773
425 2.6528
430 2.78878
435 2.40626
440 2.98666
445 2.88926
450 2.71934
455 2.80858
460 2.62638
465 2.89649
470 2.72647
475 2.4619
480 2.4971
485 2.50886
490 2.53683
495 2.29953
500 2.14498
505 2.12838
510 2.04339
515 1.92318
520 1.83591
525 1.67781
530 1.74408
535 1.82225
540 1.6484
545 1.6014
550 1.69115
555 1.71232
560 1.67867
565 1.54443
570 1.61595
575 1.3809
580 1.47848
585 1.62365
590 1.87351
595 1.80526
600 2.02413
Ex : 328
200 0.423489
205 0.371544
210 0.428017
215 0.454329
220 0.362083
225 0.385619
230 0.470632
235 0.451414
240 0.486271
245 0.46615
250 0.420578
255 0.511442
260 0.575856
265 0.526304
270 0.599282
275 0.536996
280 0.613275
285 0.651263
290 0.783162
295 0.925642
300 1.18158
305 1.62451
310 2.68044
315 84.6848
320 1426.49
325 2106.28
330 506.98
335 64.3809
340 12.32
345 5.20899
350 3.77509
355 6.13736
360 8.71131
365 8.17268
370 5.31225
375 3.10872
380 2.71378
385 2.54398
390 2.8252
395 2.34591
400 2.62411
405 2.82243
410 2.70913
415 2.89408
420 2.8306
425 2.47931
430 2.8239
435 2.72963
440 2.98023
445 2.7885
450 2.90616
455 2.87401
460 2.70687
465 2.51497
470 2.59096
475 2.48258
480 2.40453
485 2.50978
490 2.16054
495 2.28436
500 2.16084
505 1.9914
510 2.2646
515 2.00531
520 1.97233
525 1.82067
530 1.75698
535 1.74719
540 1.53227
545 1.55254
550 1.50881
555 1.44541
560 1.43498
565 1.35131
570 1.3178
575 1.30073
580 1.30941
585 1.36693
590 1.29076
595 1.42243
600 1.27113
Ex : 333
200 0.404125
205 0.350442
210 0.400259
215 0.386967
220 0.440411
225 0.398254
230 0.403967
235 0.39397
240 0.528626
245 0.505575
250 0.417875
255 0.546343
260 0.533867
265 0.538871
270 0.48629
275 0.57088
280 0.608173
285 0.685587
290 0.756234
295 0.74399
300 0.987384
305 1.23117
310 1.84549
315 3.01771
320 100.624
325 1544.63
330 2238.79
335 533.712
340 67.3757
345 11.9652
350 4.4895
355 3.39655
360 4.58345
365 8.22019
370 8.47343
375 5.38197
380 3.20575
385 2.81394
390 2.82013
395 2.7918
400 2.78431
405 2.78474
410 2.73284
415 2.85596
420 2.77916
425 2.788
430 2.78658
435 2.90748
440 3.02786
445 2.78381
450 2.75339
455 2.64501
460 2.67149
465 2.76987
470 2.67392
475 2.54775
480 2.57189
485 2.43385
490 2.27186
495 2.20826
500 2.32898
505 1.99645
510 1.79914
515 1.94343
520 2.01144
525 1.78251
530 1.64321
535 1.54205
540 1.62994
545 1.55212
550 1.25172
555 1.39053
560 1.34891
565 1.34457
570 1.26804
575 1.23503
580 1.12087
585 1.13668
590 0.943516
595 1.08205
600 0.897864
Ex : 338
200 0.422862
205 0.421336
210 0.429312
215 0.426257
220 0.337824
225 0.412858
230 0.433604
235 0.386344
240 0.406635
245 0.361798
250 0.504491
255 0.35504
260 0.486494
265 0.46847
270 0.536882
275 0.475671
280 0.452024
285 0.538656
290 0.614293
295 0.836042
300 0.816385
305 1.08039
310 1.33103
315 2.03255
320 3.12535
325 114.378
330 1707.42
335 2389.22
340 574.098
345 71.6301
350 12.5273
355 4.45438
360 3.07627
365 3.91687
370 6.99032
375 8.52982
380 6.64014
385 3.66348
390 2.80285
395 2.65807
400 2.52686
405 2.58059
410 2.71466
415 2.78915
420 2.86081
425 2.61872
430 2.63005
435 2.66217
440 2.8599
445 2.72451
450 2.61368
455 2.61337
460 2.48346
465 2.64654
470 2.61888
475 2.57477
480 2.49717
485 2.34132
490 2.43222
495 2.48839
500 2.17474
505 2.01109
510 1.88207
515 1.86987
520 1.65535
525 1.67134
530 1.61963
535 1.62402
540 1.25909
545 1.41512
550 1.38466
555 1.35105
560 1.22956
565 1.20789
570 1.08868
575 1.20439
580 1.06192
585 1.03292
590 0.941853
595 0.818006
600 0.824079
Ex : 343
200 0.301256
205 0.37221
210 0.391008
215 0.371528
220 0.358764
225 0.44538
230 0.380073
235 0.398996
240 0.327117
245 0.408293
250 0.427624
255 0.449353
260 0.35746
265 0.462926
270 0.433632
275 0.448684
280 0.411086
285 0.415489
290 0.533137
295 0.543624
300 0.771791
305 0.81578
310 0.945571
315 1.36109
320 2.07391
325 3.32286
330 112.752
335 1777.38
340 2499.04
345 595.745
350 74.1438
355 12.9364
360 4.3475
365 2.745
370 3.34363
375 5.9901
380 8.03451
385 6.73135
390 4.29818
395 2.9181
400 2.404
405 2.2173
410 2.54353
415 2.76816
420 2.64231
425 2.69646
430 2.58088
435 2.71082
440 2.65853
445 2.60251
450 2.54497
455 2.42379
460 2.6504
465 2.56169
470 2.50803
475 2.39413
480 2.48234
485 2.20435
490 2.21394
495 2.28653
500 1.99874
505 1.98727
510 1.95043
515 1.75123
520 1.73285
525 1.69794
530 1.53823
535 1.43114
540 1.43755
545 1.42256
550 1.23574
555 1.24813
560 1.20865
565 1.24313
570 1.14572
575 1.12507
580 0.98876
585 0.978169
590 0.894056
595 0.934139
600 0.673659
Ex : 348
200 0.296571
205 0.338542
210 0.349432
215 0.299478
220 0.329273
225 0.31026
230 0.288818
235 0.397108
240 0.403107
245 0.317456
250 0.323484
255 0.369691
260 0.387993
265 0.426025
270 0.368417
275 0.592082
280 0.523121
285 0.508444
290 0.564968
295 0.660231
300 0.61681
305 0.659411
310 0.690327
315 0.983231
320 1.32648
325 2.02108
330 3.56911
335 116.653
340 1797.81
345 2668.38
350 676.455
355 83.3381
360 13.7733
365 4.69896
370 2.91111
375 3.01225
380 4.88777
385 7.62483
390 7.52136
395 4.82624
400 3.01087
405 2.52483
410 2.30849
415 2.57057
420 2.48503
425 2.38197
430 2.55512
435 2.57752
440 2.57951
445 2.63563
450 2.68373
455 2.56041
460 2.65713
465 2.68287
470 2.59732
475 2.47613
480 2.10669
485 2.23123
490 2.45509
495 2.03852
500 2.02404
505 2.01603
510 1.87562
515 1.74929
520 1.56691
525 1.57296
530 1.56445
535 1.39683
540 1.39219
545 1.2461
550 1.27073
555 1.11231
560 1.30997
565 1.22323
570 1.07377
575 0.924422
580 0.921436
585 0.951553
590 0.761341
595 0.738727
600 0.43084
Ex : 353
200 0.299155
205 0.283699
210 0.297107
215 0.27718
220 0.289025
225 0.325068
230 0.353624
235 0.381066
240 0.306624
245 0.379852
250 0.371598
255 0.374142
260 0.347993
265 0.418235
270 0.478684
275 0.453653
280 0.415195
285 0.461954
290 0.530993
295 0.512016
300 0.724364
305 0.667382
310 0.79289
315 0.888199
320 1.12592
325 1.34397
330 2.22152
335 3.84205
340 121.876
345 1967.58
350 2885.88
355 707.446
360 86.9849
365 14.263
370 4.70335
375 3.00528
380 2.85525
385 4.41493
390 7.34931
395 7.74496
400 5.5681
405 3.23849
410 2.82905
415 2.53071
420 2.52773
425 2.51407
430 2.52919
435 2.43074
440 2.5263
445 2.41722
450 2.56718
455 2.45354
460 2.5202
465 2.52097
470 2.57243
475 2.49909
480 2.25322
485 2.28014
490 2.07227
495 1.98084
500 1.89818
505 1.83327
510 1.72099
515 1.79558
520 1.65404
525 1.51118
530 1.36004
535 1.3193
540 1.43572
545 1.20799
550 1.32019
555 1.09168
560 1.11375
565 1.03225
570 0.935781
575 0.840938
580 0.947037
585 0.732241
590 0.626823
595 0.687649
600 0.970443
Ex : 358
200 0.295763
205 0.298207
210 0.305567
215 0.259634
220 0.264047
225 0.334152
230 0.290127
235 0.241097
240 0.249234
245 0.397345
250 0.315308
255 0.336592
260 0.309542
265 0.397038
270 0.377218
275 0.337555
280 0.405151
285 0.366723
290 0.425819
295 0.492714
300 0.448453
305 0.568313
310 0.532126
315 0.673384
320 0.97505
325 1.19626
330 1.35524
335 2.03105
340 3.47077
345 119.137
350 1933.03
355 2914.32
360 715.532
365 87.5548
370 14.0816
375 4.69143
380 3.05167
385 2.56478
390 3.61957
395 6.51819
400 7.49422
405 6.22197
410 3.78806
415 2.55469
420 2.51836
425 2.37261
430 2.34397
435 2.45323
440 2.2947
445 2.51487
450 2.51186
455 2.53241
460 2.34419
465 2.27578
470 2.27165
475 2.24951
480 2.31681
485 2.28509
490 2.10069
495 1.96803
500 1.86074
505 1.93562
510 1.68421
515 1.61159
520 1.4347
525 1.39891
530 1.44642
535 1.27309
540 1.08145
545 1.17708
550 1.11288
555 1.11966
560 1.21892
565 0.913136
570 0.855423
575 0.829775
580 0.783405
585 0.70158
590 0.699628
595 0.660182
600 0.674617
Ex : 363
200 0.262215
205 0.287674
210 0.276551
215 0.293345
220 0.269025
225 0.29479
230 0.27671
235 0.281829
240 0.341089
245 0.290608
250 0.330808
255 0.296715
260 0.277575
265 0.348153
270 0.373905
275 0.332002
280 0.286418
285 0.424947
290 0.374516
295 0.458763
300 0.462231
305 0.446506
310 0.562764
315 0.564768
320 0.638451
325 0.937161
330 1.16469
335 1.36473
340 2.11565
345 3.72468
350 107.321
355 1862.59
360 2962.8
365 755.295
370 92.3724
375 14.6988
380 4.9259
385 3.05015
390 2.70323
395 3.08851
400 5.64984
405 7.1745
410 6.53175
415 4.34792
420 2.76006
425 2.40854
430 2.60257
435 2.43468
440 2.41405
445 2.44121
450 2.23483
455 2.33647
460 2.27727
465 2.42569
470 2.27594
475 2.34191
480 2.15108
485 2.16023
490 2.14188
495 1.86273
500 1.84287
505 1.6571
510 1.66605
515 1.62327
520 1.50881
525 1.45617
530 1.38499
535 1.32486
540 1.19165
545 1.21577
550 1.05753
555 1.0374
560 1.04361
565 0.966472
570 0.880498
575 0.749696
580 0.647698
585 0.583175
590 0.631044
595 0.580453
600 0.928119
Ex : 368
200 0.275801
205 0.246341
210 0.337192
215 0.245913
220 0.242423
225 0.251291
230 0.282627
235 0.255414
240 0.316521
245 0.286442
250 0.290748
255 0.295815
260 0.304641
265 0.316906
270 0.301251
275 0.357105
280 0.320347
285 0.358774
290 0.395418
295 0.394726
300 0.459433
305 0.46853
310 0.496225
315 0.522649
320 0.578607
325 0.744837
330 0.836342
335 1.08511
340 1.30731
345 2.17964
350 3.78901
355 93.8622
360 1902.68
365 3160.88
370 828.687
375 101.103
380 15.7876
385 5.02497
390 3.19281
395 2.59467
400 2.61302
405 4.76725
410 7.01811
415 6.67337
420 5.11903
425 3.13393
430 2.48792
435 2.26627
440 2.25647
445 2.19432
450 2.3425
455 2.26715
460 2.33743
465 2.36755
470 2.31983
475 2.09325
480 2.03359
485 1.95198
490 1.96199
495 1.84165
500 1.82414
505 1.77324
510 1.62079
515 1.51087
520 1.47365
525 1.38072
530 1.29959
535 1.23162
540 1.18175
545 1.05245
550 0.974472
555 1.031
560 0.92624
565 0.884958
570 0.797805
575 0.818862
580 0.671444
585 0.600993
590 0.637387
595 0.62583
600 0.659815
Ex : 373
200 0.294342
205 0.264371
210 0.280414
215 0.25385
220 0.324338
225 0.299154
230 0.293029
235 0.221346
240 0.215147
245 0.3059
250 0.356267
255 0.300511
260 0.295775
265 0.306491
270 0.314657
275 0.316717
280 0.366508
285 0.393778
290 0.404942
295 0.388699
300 0.368099
305 0.343877
310 0.440663
315 0.487599
320 0.54461
325 0.538423
330 0.764264
335 0.875332
340 1.09914
345 1.48055
350 2.18242
355 3.70972
360 115.298
365 2018.01
370 3232.58
375 839.38
380 102.274
385 16.1112
390 5.26805
395 3.35149
400 2.59302
405 2.43013
410 3.99071
415 6.28881
420 6.37906
425 5.37998
430 3.44557
435 2.58283
440 2.32852
445 2.46803
450 2.27911
455 2.21485
460 2.37484
465 2.32664
470 2.37013
475 2.12564
480 1.99717
485 2.0048
490 1.98733
495 1.83754
500 1.71743
505 1.68155
510 1.69009
515 1.56504
520 1.4684
525 1.48633
530 1.32281
535 1.23962
540 1.01055
545 1.19508
550 0.937372
555 1.05832
560 0.95931
565 0.819346
570 0.832259
575 0.700287
580 0.657985
585 0.502076
590 0.538959
595 0.514224
600 0.594577
Ex : 378
200 0.264234
205 0.229239
210 0.303498
215 0.355942
220 0.256198
225 0.243928
230 0.220538
235 0.218536
240 0.32868
245 0.294015
250 0.270987
255 0.239745
260 0.264168
265 0.338462
270 0.294728
275 0.309821
280 0.315663
285 0.320082
290 0.388098
295 0.370508
300 0.388727
305 0.443073
310 0.427784
315 0.442682
320 0.533312
325 0.584563
330 0.681065
335 0.749319
340 0.938811
345 1.08512
350 1.5711
355 2.3046
360 3.82566
365 116.075
370 2074.29
375 3350.48
380 870.987
385 105.798
390 16.5047
395 5.23382
400 3.2953
405 2.53602
410 2.23354
415 3.34815
420 5.78234
425 6.20774
430 5.59342
435 3.86392
440 2.47636
445 2.42186
450 2.35508
455 2.38006
460 2.28814
465 2.28818
470 2.12623
475 2.11606
480 2.00829
485 1.85066
490 1.946
495 1.9306
500 1.77648
505 1.72813
510 1.44337
515 1.51355
520 1.3553
525 1.334
530 1.19148
535 1.23782
540 1.19741
545 0.983243
550 1.07097
555 0.936193
560 0.763825
565 0.868597
570 0.838087
575 0.685491
580 0.591683
585 0.573985
590 0.579311
595 0.485649
600 0.663444
Ex : 383
200 0.265294
205 0.196715
210 0.249833
215 0.196335
220 0.264522
225 0.245041
230 0.214532
235 0.278745
240 0.212189
245 0.215561
250 0.28504
255 0.280681
260 0.257833
265 0.239431
270 0.29503
275 0.320046
280 0.275973
285 0.301609
290 0.308405
295 0.365317
300 0.305165
305 0.418196
310 0.390295
315 0.445284
320 0.504852
325 0.50213
330 0.550579
335 0.710023
340 0.792873
345 0.923516
350 1.20227
355 1.54834
360 2.33231
365 3.78269
370 109.587
375 2074.1
380 3485.06
385 931.253
390 113.414
395 17.5507
400 5.37532
405 3.35977
410 2.64434
415 2.32107
420 2.79361
425 4.81064
430 5.94255
435 5.69185
440 4.52007
445 2.94886
450 2.50343
455 2.24641
460 2.32689
465 2.13373
470 2.13156
475 2.01128
480 2.12831
485 1.99128
490 1.87014
495 1.82753
500 1.76391
505 1.6184
510 1.59776
515 1.54648
520 1.42825
525 1.40776
530 1.27569
535 1.2551
540 1.14229
545 1.08773
550 1.00951
555 1.02184
560 0.954627
565 0.805463
570 0.781221
575 0.658631
580 0.647803
585 0.526357
590 0.554394
595 0.518466
600 0.578304
Ex : 388
200 0.281496
205 0.210807
210 0.299067
215 0.353327
220 0.271315
225 0.229986
230 0.254717
235 0.277528
240 0.291943
245 0.260846
250 0.261389
255 0.276778
260 0.27839
265 0.319122
270 0.281344
275 0.288111
280 0.274271
285 0.307235
290 0.347123
295 0.33871
300 0.294207
305 0.359773
310 0.366168
315 0.386877
320 0.447591
325 0.545622
330 0.537854
335 0.597076
340 0.69322
345 0.734448
350 1.00438
355 1.18158
360 1.61043
365 2.41815
370 4.14752
375 119.251
380 2192.3
385 3638.6
390 947.263
395 114.734
400 17.4125
405 5.45477
410 3.4155
415 2.70129
420 2.34509
425 2.71989
430 4.23245
435 5.82646
440 5.71035
445 4.92795
450 3.19195
455 2.52384
460 2.41404
465 2.27077
470 2.30154
475 2.12345
480 2.13939
485 1.97277
490 1.92456
495 1.81266
500 1.71895
505 1.713
510 1.60601
515 1.40283
520 1.36816
525 1.3964
530 1.24019
535 1.31612
540 1.20411
545 1.13824
550 1.15723
555 0.916408
560 0.885478
565 0.855286
570 0.819711
575 0.606694
580 0.637965
585 0.597445
590 0.502901
595 0.484616
600 0.605668
Ex : 393
200 0.221111
205 0.230313
210 0.219738
215 0.251015
220 0.260664
225 0.261404
230 0.288815
235 0.23565
240 0.216827
245 0.262326
250 0.288953
255 0.265623
260 0.302781
265 0.323677
270 0.304327
275 0.338653
280 0.285216
285 0.313183
290 0.30997
295 0.302539
300 0.36502
305 0.352461
310 0.478507
315 0.434953
320 0.470139
325 0.543003
330 0.576647
335 0.555822
340 0.642242
345 0.6622
350 0.831361
355 1.11524
360 1.34643
365 1.80968
370 2.62446
375 4.23123
380 113.243
385 2478.05
390 4463.22
395 1192.23
400 143.642
405 21.1124
410 6.11972
415 3.78547
420 2.90414
425 2.39512
430 2.47541
435 3.70638
440 5.39034
445 5.48459
450 5.19552
455 4.00703
460 2.80615
465 2.37176
470 2.30295
475 2.16652
480 2.11302
485 2.03065
490 1.93718
495 1.73289
500 1.85016
505 1.72914
510 1.63101
515 1.58333
520 1.50493
525 1.51397
530 1.33869
535 1.20427
540 1.18779
545 1.0977
550 1.13936
555 1.13848
560 1.05112
565 0.842124
570 0.758812
575 0.668648
580 0.615351
585 0.597065
590 0.573162
595 0.443663
600 0.565057
Ex : 398
200 0.285138
205 0.19296
210 0.212125
215 0.222923
220 0.280853
225 0.295252
230 0.248287
235 0.275024
240 0.264595
245 0.278011
250 0.277476
255 0.321163
260 0.307197
265 0.299398
270 0.289661
275 0.269531
280 0.339292
285 0.286326
290 0.400381
295 0.312306
300 0.373688
305 0.336145
310 0.384789
315 0.384585
320 0.502944
325 0.439537
330 0.461444
335 0.54565
340 0.518552
345 0.64728
350 0.698953
355 0.935765
360 1.07109
365 1.30775
370 1.74367
375 2.63519
380 4.47138
385 130.708
390 2475.75
395 4128.7
400 1099.83
405 132.583
410 19.5444
415 5.61819
420 3.42648
425 2.75142
430 2.32242
435 2.29923
440 3.03895
445 4.97674
450 5.55858
455 5.19553
460 4.14411
465 2.77896
470 2.38156
475 2.21501
480 1.99687
485 2.05119
490 1.9912
495 1.78525
500 1.74184
505 1.71315
510 1.50911
515 1.53988
520 1.50083
525 1.39312
530 1.39831
535 1.26344
540 1.28422
545 1.15522
550 1.11977
555 1.01039
560 0.866464
565 0.891938
570 0.807649
575 0.731643
580 0.556486
585 0.54753
590 0.513109
595 0.478105
600 0.623755
Ex : 403
200 0.244902
205 0.239159
210 0.247754
215 0.230721
220 0.214339
225 0.216596
230 0.253741
235 0.244836
240 0.265645
245 0.253397
250 0.253801
255 0.271609
260 0.254028
265 0.27478
270 0.331033
275 0.33397
280 0.272421
285 0.248591
290 0.286991
295 0.310082
300 0.291322
305 0.297981
310 0.343721
315 0.329247
320 0.381362
325 0.439527
330 0.487999
335 0.536601
340 0.550518
345 0.595049
350 0.689122
355 0.793868
360 0.868508
365 1.11052
370 1.25697
375 1.75462
380 2.53215
385 4.55559
390 136.735
395 2622.42
400 4300.19
405 1128.05
410 135.662
415 20.0465
420 5.74104
425 3.53277
430 2.8358
435 2.43785
440 2.34803
445 2.7727
450 4.41661
455 5.27761
460 5.15
465 4.42249
470 3.04766
475 2.37255
480 2.06184
485 1.96164
490 1.93539
495 1.86821
500 1.63195
505 1.70459
510 1.76216
515 1.62894
520 1.42195
525 1.3836
530 1.33892
535 1.29514
540 1.21592
545 1.16925
550 1.04592
555 1.00125
560 0.989719
565 0.805071
570 0.775645
575 0.744086
580 0.626165
585 0.535168
590 0.530617
595 0.412179
600 0.194605
Ex : 408
200 0.231426
205 0.243695
210 0.236535
215 0.222915
220 0.266781
225 0.240073
230 0.216611
235 0.273423
240 0.245094
245 0.246392
250 0.235163
255 0.271179
260 0.304648
265 0.26574
270 0.240578
275 0.271863
280 0.356416
285 0.328735
290 0.322895
295 0.32603
300 0.305813
305 0.344687
310 0.362563
315 0.358785
320 0.381288
325 0.345521
330 0.390038
335 0.445975
340 0.478641
345 0.524055
350 0.558714
355 0.697666
360 0.759385
365 0.929282
370 1.11509
375 1.36027
380 1.7712
385 2.6921
390 4.67632
395 134.198
400 2575.51
405 4164.81
410 1080.41
415 130.188
420 19.2507
425 5.45485
430 3.39302
435 2.75653
440 2.32541
445 2.37523
450 2.43759
455 3.87723
460 5.14416
465 5.15108
470 4.81783
475 3.32472
480 2.29248
485 2.07188
490 2.06204
495 1.83144
500 1.7892
505 1.69621
510 1.50258
515 1.54953
520 1.43995
525 1.41157
530 1.36129
535 1.28073
540 1.19208
545 1.16678
550 1.04661
555 1.0723
560 0.929931
565 0.937189
570 0.784679
575 0.731203
580 0.65439
585 0.589123
590 0.510845
595 0.511815
600 0.220916
Ex : 413
200 0.26534
205 0.220141
210 0.208469
215 0.220766
220 0.191827
225 0.207213
230 0.218688
235 0.234557
240 0.231925
245 0.305844
250 0.233108
255 0.239615
260 0.273912
265 0.264093
270 0.259644
275 0.240358
280 0.268627
285 0.293572
290 0.297462
295 0.315824
300 0.323204
305 0.288675
310 0.330163
315 0.345067
320 0.349884
325 0.419445
330 0.446714
335 0.422047
340 0.444582
345 0.528243
350 0.489273
355 0.6024
360 0.668936
365 0.725951
370 0.910976
375 1.11081
380 1.45989
385 1.98513
390 3.0822
395 4.75137
400 155.244
405 2752.48
410 4394
415 1103.52
420 132.772
425 19.6509
430 5.7544
435 3.71373
440 2.86103
445 2.34166
450 2.32597
455 2.3312
460 3.35154
465 4.64909
470 4.64153
475 4.45661
480 3.53812
485 2.46811
490 2.02474
495 1.89872
500 1.68363
505 1.50943
510 1.57733
515 1.41738
520 1.53082
525 1.35008
530 1.38129
535 1.30579
540 1.27976
545 1.15491
550 1.08115
555 1.06103
560 0.912416
565 0.899993
570 0.773684
575 0.679249
580 0.583295
585 0.568702
590 0.595649
595 0.490286
600 0.5073
Ex : 418
200 0.254942
205 0.26809
210 0.277859
215 0.231149
220 0.191787
225 0.195448
230 0.241504
235 0.235223
240 0.203746
245 0.255295
250 0.256151
255 0.251002
260 0.257727
265 0.272352
270 0.27174
275 0.329882
280 0.23631
285 0.246459
290 0.252029
295 0.29397
300 0.29619
305 0.265687
310 0.294471
315 0.345524
320 0.334417
325 0.309109
330 0.381546
335 0.423571
340 0.382981
345 0.489366
350 0.543442
355 0.563448
360 0.64855
365 0.721763
370 0.82578
375 0.977427
380 1.02698
385 1.42364
390 2.04925
395 3.10545
400 5.25189
405 143.755
410 2806.93
415 4560.66
420 1167.14
425 140.108
430 20.5211
435 5.87304
440 3.73938
445 2.91548
450 2.39225
455 2.34036
460 2.27314
465 2.98151
470 4.15061
475 4.48362
480 4.36034
485 3.90501
490 2.59043
495 1.9687
500 1.85484
505 1.57098
510 1.55161
515 1.49276
520 1.40444
525 1.3745
530 1.28046
535 1.2688
540 1.08166
545 1.09571
550 1.11649
555 1.05579
560 1.03198
565 0.829642
570 0.832789
575 0.693985
580 0.636938
585 0.553498
590 0.473283
595 0.409377
600 0.191127
Ex : 423
200 0.168821
205 0.187735
210 0.19399
215 0.18899
220 0.233633
225 0.278372
230 0.229502
235 0.240496
240 0.235697
245 0.291968
250 0.267689
255 0.21193
260 0.265259
265 0.242842
270 0.269311
275 0.258676
280 0.26974
285 0.292073
290 0.263813
295 0.290164
300 0.248114
305 0.28397
310 0.298176
315 0.33673
320 0.35746
325 0.302568
330 0.375638
335 0.419001
340 0.43637
345 0.438412
350 0.479835
355 0.527112
360 0.560715
365 0.626254
370 0.683754
375 0.811593
380 1.0278
385 1.19688
390 1.52606
395 1.93367
400 3.16619
405 5.17435
410 152.01
415 2829.23
420 4439.72
425 1099.55
430 132.242
435 19.384
440 5.75718
445 3.69003
450 2.87377
455 2.22858
460 2.2535
465 2.21666
470 2.5299
475 3.69007
480 4.28819
485 4.10685
490 3.78591
495 2.85148
500 1.90228
505 1.57431
510 1.48897
515 1.52289
520 1.46803
525 1.35077
530 1.23902
535 1.29259
540 1.19628
545 1.13417
550 1.11637
555 0.997167
560 0.888412
565 0.749651
570 0.805045
575 0.68763
580 0.604839
585 0.601413
590 0.498622
595 0.427741
600 0.837206
Ex : 428
200 0.208391
205 0.244414
210 0.205814
215 0.245978
220 0.235776
225 0.274793
230 0.273022
235 0.291101
240 0.27242
245 0.218157
250 0.30032
255 0.249164
260 0.265629
265 0.28489
270 0.295635
275 0.28173
280 0.292557
285 0.233774
290 0.268092
295 0.268513
300 0.31935
305 0.287665
310 0.365857
315 0.29398
320 0.350237
325 0.363428
330 0.36741
335 0.353556
340 0.446391
345 0.408385
350 0.43986
355 0.517947
360 0.57985
365 0.588287
370 0.745264
375 0.766707
380 0.837081
385 1.00456
390 1.24379
395 1.71304
400 2.12406
405 3.15387
410 5.48904
415 172.204
420 2952.31
425 4532.26
430 1143.79
435 137.453
440 20.2745
445 6.00504
450 3.85196
455 2.91137
460 2.46157
465 2.08904
470 2.17796
475 2.24961
480 2.99106
485 4.23118
490 3.96593
495 3.66834
500 2.97506
505 2.02713
510 1.60917
515 1.51377
520 1.44346
525 1.38943
530 1.28878
535 1.15194
540 1.09996
545 1.11143
550 0.999908
555 0.937197
560 0.887389
565 0.804942
570 0.773957
575 0.702796
580 0.648472
585 0.627759
590 0.519791
595 0.552157
600 0.385979
Ex : 433
200 0.206333
205 0.266049
210 0.215163
215 0.214518
220 0.189084
225 0.285373
230 0.279851
235 0.227754
240 0.238482
245 0.276037
250 0.229185
255 0.247779
260 0.247059
265 0.291554
270 0.276235
275 0.24916
280 0.270542
285 0.217522
290 0.276586
295 0.301633
300 0.308508
305 0.328285
310 0.332739
315 0.310533
320 0.330977
325 0.309687
330 0.345008
335 0.358777
340 0.423024
345 0.387494
350 0.404983
355 0.466937
360 0.539034
365 0.619461
370 0.627001
375 0.700012
380 0.746289
385 0.862248
390 1.14257
395 1.34348
400 1.70808
405 2.30323
410 3.29852
415 5.70844
420 187.839
425 3152.71
430 4683.29
435 1138.93
440 136.629
445 20.2341
450 5.76315
455 3.77448
460 3.12636
465 2.39756
470 2.11856
475 1.99096
480 2.0717
485 2.81595
490 3.97656
495 3.81848
500 3.59627
505 3.11458
510 2.10022
515 1.53783
520 1.41311
525 1.27089
530 1.22267
535 1.24814
540 1.16383
545 1.07098
550 1.04426
555 0.97031
560 0.956578
565 0.85621
570 0.703247
575 0.765254
580 0.4894
585 0.459685
590 0.503508
595 0.432404
600 0.418666
Ex : 438
200 0.210799
205 0.231125
210 0.289402
215 0.229636
220 0.211732
225 0.208388
230 0.238147
235 0.232145
240 0.226193
245 0.202826
250 0.263973
255 0.251665
260 0.232478
265 0.232664
270 0.281652
275 0.263431
280 0.286129
285 0.274555
290 0.28555
295 0.27835
300 0.315432
305 0.365148
310 0.296795
315 0.302942
320 0.333953
325 0.38969
330 0.380983
335 0.323324
340 0.419858
345 0.407847
350 0.481728
355 0.466292
360 0.482185
365 0.573439
370 0.560949
375 0.685752
380 0.738949
385 0.731196
390 0.811979
395 1.10607
400 1.36066
405 1.69537
410 2.44879
415 3.49741
420 5.67581
425 179.318
430 3139.21
435 4964.6
440 1198.63
445 144.04
450 21.3558
455 6.00483
460 3.92711
465 2.99679
470 2.33893
475 1.82538
480 1.94096
485 1.84241
490 2.24144
495 3.47834
500 3.59239
505 3.38731
510 3.13525
515 2.35324
520 1.5931
525 1.3107
530 1.31875
535 1.20371
540 1.08764
545 1.14755
550 1.02268
555 1.05819
560 0.84062
565 0.793329
570 0.734152
575 0.586578
580 0.513061
585 0.470638
590 0.468441
595 0.411857
600 0.352116
Ex : 443
200 0.252863
205 0.172475
210 0.221949
215 0.234289
220 0.264455
225 0.213738
230 0.204618
235 0.216406
240 0.214856
245 0.226571
250 0.308925
255 0.251159
260 0.243039
265 0.26286
270 0.310987
275 0.256324
280 0.271215
285 0.272315
290 0.232453
295 0.22137
300 0.258656
305 0.313317
310 0.334586
315 0.285243
320 0.30045
325 0.302091
330 0.347766
335 0.385511
340 0.339351
345 0.346585
350 0.486349
355 0.476411
360 0.529704
365 0.499201
370 0.572695
375 0.584387
380 0.647845
385 0.673478
390 0.82888
395 0.92911
400 1.07289
405 1.42186
410 1.84187
415 2.42091
420 3.28966
425 5.66291
430 190.473
435 3255.24
440 4953.07
445 1194.74
450 143.313
455 20.7205
460 5.84896
465 3.72258
470 3.02346
475 2.21391
480 1.89087
485 1.81678
490 1.86907
495 1.90441
500 2.87353
505 3.5025
510 3.07737
515 3.17174
520 2.46919
525 1.71223
530 1.32985
535 1.10588
540 1.14331
545 1.09627
550 0.98625
555 0.895271
560 0.825708
565 0.745606
570 0.752697
575 0.639899
580 0.632136
585 0.535547
590 0.444465
595 0.439894
600 0.378004
Ex : 448
200 0.216175
205 0.213574
210 0.21943
215 0.257493
220 0.244957
225 0.251101
230 0.215096
235 0.205861
240 0.228534
245 0.231685
250 0.208594
255 0.25241
260 0.31381
265 0.298667
270 0.279264
275 0.273607
280 0.27064
285 0.346973
290 0.330216
295 0.262029
300 0.311399
305 0.272601
310 0.239582
315 0.322405
320 0.316071
325 0.348265
330 0.329032
335 0.388153
340 0.391657
345 0.369019
350 0.463718
355 0.393557
360 0.448602
365 0.506888
370 0.56244
375 0.594052
380 0.578555
385 0.626983
390 0.757095
395 0.89288
400 1.09431
405 1.13818
410 1.38487
415 1.91457
420 2.41598
425 3.58181
430 5.89505
435 202.513
440 3530.96
445 5228.31
450 1244.23
455 149.207
460 21.9214
465 6.2021
470 3.81096
475 2.93541
480 2.12078
485 1.76053
490 1.70679
495 1.70779
500 1.69566
505 2.35369
510 3.37923
515 2.99675
520 2.879
525 2.61544
530 1.9311
535 1.28275
540 1.15667
545 0.990099
550 0.912988
555 0.857771
560 0.884583
565 0.738616
570 0.726674
575 0.641415
580 0.564438
585 0.475335
590 0.517178
595 0.511834
600 0.275427
Ex : 453
200 0.287488
205 0.265836
210 0.224654
215 0.2095
220 0.293065
225 0.263366
230 0.236801
235 0.224626
240 0.292433
245 0.249755
250 0.261542
255 0.232061
260 0.204978
265 0.269468
270 0.25783
275 0.23565
280 0.252522
285 0.272957
290 0.239008
295 0.282277
300 0.320505
305 0.360999
310 0.389104
315 0.309752
320 0.315172
325 0.323168
330 0.372945
335 0.363604
340 0.358931
345 0.409192
350 0.4639
355 0.407812
360 0.489051
365 0.490893
370 0.494607
375 0.532293
380 0.567742
385 0.656401
390 0.697066
395 0.747621
400 0.955715
405 1.07599
410 1.16145
415 1.4813
420 1.7919
425 2.50397
430 3.44871
435 5.72634
440 215.482
445 3733.12
450 5449.57
455 1252.11
460 150.339
465 22.3414
470 6.1909
475 3.50421
480 2.63706
485 2.06177
490 1.7445
495 1.66642
500 1.66981
505 1.74931
510 1.99553
515 2.92743
520 3.01278
525 2.53573
530 2.51775
535 2.03811
540 1.40544
545 1.10891
550 0.953432
555 0.91485
560 0.879413
565 0.77187
570 0.758334
575 0.575653
580 0.591664
585 0.497492
590 0.426447
595 0.420394
600 0.518411
Ex : 458
200 0.208008
205 0.297024
210 0.242277
215 0.23775
220 0.212526
225 0.288718
230 0.250374
235 0.235602
240 0.294818
245 0.251349
250 0.245156
255 0.209205
260 0.289317
265 0.226394
270 0.282292
275 0.242763
280 0.269983
285 0.270571
290 0.239545
295 0.264619
300 0.345991
305 0.319041
310 0.28347
315 0.287356
320 0.317553
325 0.379935
330 0.37486
335 0.365576
340 0.42783
345 0.487899
350 0.479342
355 0.449762
360 0.475416
365 0.445845
370 0.486479
375 0.520022
380 0.579026
385 0.580564
390 0.683505
395 0.694424
400 0.816168
405 0.944221
410 0.967152
415 1.23373
420 1.52761
425 1.81435
430 2.36972
435 3.57048
440 6.29394
445 236.226
450 3858.45
455 5624.68
460 1324.85
465 159.127
470 23.1835
475 6.03147
480 3.44391
485 2.53029
490 2.21646
495 1.69491
500 1.71655
505 1.70202
510 1.56439
515 1.76959
520 2.5835
525 2.88414
530 2.3798
535 2.42527
540 2.0655
545 1.55931
550 1.0939
555 1.0055
560 0.937563
565 0.84352
570 0.766326
575 0.715785
580 0.567962
585 0.496845
590 0.546637
595 0.436495
600 0.307837
Ex : 463
200 0.234821
205 0.235119
210 0.214238
215 0.239456
220 0.254258
225 0.328194
230 0.306824
235 0.241353
240 0.25181
245 0.309566
250 0.257822
255 0.270641
260 0.255509
265 0.263105
270 0.264363
275 0.263827
280 0.236876
285 0.244431
290 0.240931
295 0.288865
300 0.328984
305 0.364169
310 0.329487
315 0.275418
320 0.32544
325 0.341028
330 0.380912
335 0.338289
340 0.408393
345 0.424871
350 0.415189
355 0.44125
360 0.492167
365 0.414965
370 0.542922
375 0.563067
380 0.555281
385 0.620455
390 0.655114
395 0.733326
400 0.716091
405 0.793206
410 0.934992
415 1.16127
420 1.25264
425 1.36261
430 1.91821
435 2.40108
440 3.67926
445 6.11898
450 234.824
455 4057.37
460 6018.63
465 1422.07
470 169.824
475 23.9427
480 6.09746
485 3.31247
490 2.708
495 2.13813
500 1.59527
505 1.59863
510 1.58225
515 1.66611
520 1.57449
525 2.11274
530 2.71552
535 2.51478
540 2.21073
545 2.17441
550 1.63931
555 1.0564
560 0.950725
565 0.772196
570 0.749544
575 0.685989
580 0.562311
585 0.511919
590 0.392049
595 0.478409
600 0.484334
Ex : 468
200 0.212727
205 0.230899
210 0.233448
215 0.246683
220 0.233909
225 0.282544
230 0.308503
235 0.2496
240 0.2165
245 0.282434
250 0.282872
255 0.258447
260 0.245259
265 0.252967
270 0.270926
275 0.236413
280 0.292924
285 0.27277
290 0.33248
295 0.306203
300 0.357367
305 0.290299
310 0.256473
315 0.271642
320 0.320825
325 0.388559
330 0.326241
335 0.393269
340 0.406268
345 0.347585
350 0.466644
355 0.449976
360 0.437884
365 0.469441
370 0.51624
375 0.549005
380 0.510339
385 0.554407
390 0.563083
395 0.68361
400 0.68544
405 0.844782
410 0.890224
415 0.934229
420 1.15988
425 1.23314
430 1.47681
435 1.88319
440 2.48308
445 3.83919
450 6.1733
455 256.287
460 4212.18
465 6308.96
470 1467.45
475 174.098
480 24.1653
485 5.97076
490 3.32965
495 2.51512
500 1.98176
505 1.54444
510 1.48364
515 1.45926
520 1.36031
525 1.44267
530 1.64462
535 2.52107
540 2.44358
545 2.00941
550 2.0576
555 1.74986
560 1.20142
565 0.9213
570 0.760647
575 0.682313
580 0.625964
585 0.599413
590 0.490803
595 0.412474
600 0.926479
Ex : 473
200 0.218486
205 0.257083
210 0.235147
215 0.228219
220 0.297648
225 0.182725
230 0.28225
235 0.282492
240 0.272472
245 0.28491
250 0.273304
255 0.275861
260 0.276262
265 0.284207
270 0.270844
275 0.225301
280 0.259236
285 0.257372
290 0.27103
295 0.253521
300 0.285046
305 0.321369
310 0.347118
315 0.322482
320 0.406932
325 0.356043
330 0.305358
335 0.403002
340 0.415555
345 0.403436
350 0.371415
355 0.395358
360 0.419264
365 0.453117
370 0.491873
375 0.502895
380 0.518089
385 0.5754
390 0.627518
395 0.621463
400 0.664659
405 0.71555
410 0.771484
415 0.846886
420 0.902837
425 0.981303
430 1.2343
435 1.42229
440 1.9913
445 2.80104
450 3.94087
455 6.56628
460 275.45
465 4447.44
470 6226.49
475 1400.78
480 166.738
485 23.3349
490 5.93591
495 3.07164
500 2.56771
505 2.01738
510 1.74597
515 1.49052
520 1.45714
525 1.43953
530 1.27829
535 1.42215
540 2.05073
545 2.43809
550 2.00287
555 1.89376
560 1.73907
565 1.40876
570 0.921489
575 0.665974
580 0.637148
585 0.565485
590 0.431748
595 0.449916
600 0.18561
Ex : 478
200 0.241995
205 0.293347
210 0.246117
215 0.239679
220 0.291172
225 0.226635
230 0.366179
235 0.385718
240 0.316771
245 0.286913
250 0.245977
255 0.291235
260 0.308025
265 0.369508
270 0.250698
275 0.290862
280 0.286291
285 0.254356
290 0.278123
295 0.344776
300 0.305571
305 0.24763
310 0.375095
315 0.320362
320 0.406888
325 0.361781
330 0.39342
335 0.355035
340 0.403746
345 0.422165
350 0.464951
355 0.395473
360 0.430222
365 0.492254
370 0.510764
375 0.556332
380 0.629361
385 0.629235
390 0.6595
395 0.651593
400 0.73507
405 0.733999
410 0.74564
415 0.859439
420 0.937407
425 0.965657
430 1.18484
435 1.38989
440 1.67008
445 2.19846
450 2.9778
455 4.35787
460 7.29592
465 304.861
470 4516.95
475 6187.11
480 1413.15
485 168.648
490 23.8895
495 6.03255
500 3.58592
505 2.48879
510 1.97248
515 1.69667
520 1.54275
525 1.432
530 1.44047
535 1.44537
540 1.35696
545 1.90973
550 2.2616
555 2.01221
560 1.74904
565 1.74074
570 1.27019
575 0.993057
580 0.71387
585 0.52653
590 0.565883
595 0.525573
600 0.315703
Ex : 483
200 0.251525
205 0.244682
210 0.269457
215 0.313598
220 0.267913
225 0.249161
230 0.240352
235 0.450734
240 0.414146
245 0.281404
250 0.288093
255 0.265035
260 0.304506
265 0.258559
270 0.240061
275 0.297041
280 0.296811
285 0.241191
290 0.252767
295 0.290952
300 0.339539
305 0.351286
310 0.304775
315 0.326086
320 0.365725
325 0.404541
330 0.432622
335 0.444666
340 0.367278
345 0.441781
350 0.45175
355 0.517774
360 0.528095
365 0.437095
370 0.480778
375 0.530045
380 0.610266
385 0.657282
390 0.648689
395 0.647709
400 0.618266
405 0.668962
410 0.727844
415 0.835355
420 0.798122
425 0.97178
430 1.01112
435 1.17175
440 1.43514
445 1.71575
450 2.04048
455 3.00112
460 4.71231
465 7.69185
470 240.805
475 4379.61
480 6573.05
485 1514.81
490 179.834
495 25.0083
500 6.08338
505 3.51588
510 2.61577
515 2.23317
520 1.83599
525 1.54331
530 1.29808
535 1.30235
540 1.32843
545 1.29841
550 1.46316
555 1.856
560 1.86394
565 1.5439
570 1.45199
575 1.37936
580 0.89387
585 0.713947
590 0.519876
595 0.465137
600 0.230172
Ex : 488
200 0.295026
205 0.299573
210 0.292575
215 0.258901
220 0.260535
225 0.197241
230 0.30761
235 0.356669
240 0.509184
245 0.334704
250 0.372933
255 0.282091
260 0.300273
265 0.352559
270 0.250265
275 0.362156
280 0.302492
285 0.349139
290 0.291571
295 0.286402
300 0.360371
305 0.336216
310 0.380115
315 0.408296
320 0.462661
325 0.312185
330 0.382533
335 0.443121
340 0.451714
345 0.495742
350 0.449371
355 0.479919
360 0.478039
365 0.469185
370 0.475732
375 0.521739
380 0.495647
385 0.63652
390 0.636028
395 0.704494
400 0.629988
405 0.662057
410 0.764487
415 0.75685
420 0.849169
425 0.852138
430 1.00211
435 1.18402
440 1.36637
445 1.46842
450 1.77239
455 2.34991
460 3.29697
465 5.08079
470 7.93557
475 287.844
480 4734.83
485 6459.78
490 1443.44
495 171.663
500 24.2571
505 5.88421
510 3.38384
515 2.34645
520 2.07264
525 1.66225
530 1.61255
535 1.39514
540 1.35985
545 1.2602
550 1.227
555 1.38684
560 1.76444
565 1.85527
570 1.52992
575 1.33255
580 1.17601
585 0.937368
590 0.617585
595 0.515063
600 0.694629
Ex : 493
200 0.34339
205 0.317698
210 0.278786
215 0.299264
220 0.288342
225 0.309562
230 0.322007
235 0.222547
240 0.51695
245 0.422537
250 0.28175
255 0.314632
260 0.252162
265 0.312401
270 0.336524
275 0.29638
280 0.282104
285 0.296764
290 0.279799
295 0.387613
300 0.332035
305 0.357015
310 0.352919
315 0.358607
320 0.442832
325 0.385395
330 0.41635
335 0.460064
340 0.431608
345 0.378897
350 0.46018
355 0.375903
360 0.421838
365 0.465067
370 0.453047
375 0.524467
380 0.537895
385 0.543828
390 0.595406
395 0.678601
400 0.672599
405 0.770773
410 0.700188
415 0.760055
420 0.87112
425 0.811447
430 0.9118
435 0.957747
440 1.19598
445 1.44982
450 1.48587
455 1.95199
460 2.59464
465 3.71096
470 4.86701
475 7.43209
480 276.434
485 4742.27
490 6774.98
495 1504.49
500 178.78
505 24.9365
510 6.13526
515 3.33327
520 2.43723
525 2.01744
530 1.74345
535 1.62974
540 1.37533
545 1.36864
550 1.26623
555 1.29057
560 1.07971
565 1.33525
570 1.66567
575 1.4707
580 1.09748
585 1.05183
590 0.912287
595 0.748815
600 0.911724
Ex : 498
200 0.283365
205 0.344986
210 0.276052
215 0.277053
220 0.301371
225 0.296389
230 0.322716
235 0.308725
240 0.37032
245 0.514003
250 0.37364
255 0.313372
260 0.315536
265 0.348144
270 0.327037
275 0.336658
280 0.337176
285 0.397222
290 0.264582
295 0.327894
300 0.313391
305 0.359639
310 0.279745
315 0.362172
320 0.36872
325 0.513831
330 0.419647
335 0.370003
340 0.403927
345 0.447597
350 0.522947
355 0.437519
360 0.446647
365 0.509701
370 0.479767
375 0.495404
380 0.55961
385 0.556882
390 0.612008
395 0.595239
400 0.592352
405 0.67753
410 0.668116
415 0.745105
420 0.866513
425 0.82023
430 0.845813
435 1.04867
440 1.12213
445 1.16334
450 1.36074
455 1.59164
460 2.07971
465 2.80157
470 3.45437
475 4.81373
480 7.91753
485 315.98
490 4882.12
495 6554.35
500 1444.31
505 171.795
510 24.2971
515 6.20988
520 3.4859
525 2.42832
530 2.00872
535 1.77811
540 1.52349
545 1.32253
550 1.32778
555 1.18223
560 1.12802
565 1.08276
570 1.20449
575 1.44509
580 1.48837
585 0.944799
590 0.875938
595 0.824988
600 1.3747
Ex : 503
200 0.303534
205 0.334328
210 0.293551
215 0.25647
220 0.288022
225 0.31185
230 0.327989
235 0.364534
240 0.325986
245 0.514316
250 0.477022
255 0.367858
260 0.340853
265 0.407349
270 0.343864
275 0.428047
280 0.341177
285 0.349437
290 0.322804
295 0.466406
300 0.432463
305 0.344814
310 0.392112
315 0.377971
320 0.351765
325 0.360761
330 0.340396
335 0.356512
340 0.413176
345 0.383182
350 0.4067
355 0.461242
360 0.542976
365 0.481632
370 0.532376
375 0.567058
380 0.490498
385 0.513914
390 0.572966
395 0.736902
400 0.672093
405 0.68637
410 0.638513
415 0.786384
420 0.7246
425 0.719669
430 0.869211
435 1.04713
440 0.98493
445 1.17994
450 1.23934
455 1.4007
460 1.77677
465 2.32192
470 2.85509
475 3.3716
480 4.93558
485 7.71586
490 294.124
495 4716.7
500 6514.22
505 1468.06
510 174.606
515 24.5747
520 6.05023
525 3.30021
530 2.59347
535 2.09119
540 1.77695
545 1.5819
550 1.38278
555 1.32819
560 1.19097
565 1.08752
570 0.957865
575 0.939218
580 1.03194
585 1.11007
590 0.880901
595 0.816301
600 0.936041
Ex : 508
200 0.335203
205 0.280655
210 0.308798
215 0.266102
220 0.323603
225 0.293602
230 0.296541
235 0.320212
240 0.339663
245 0.376538
250 0.737231
255 0.453161
260 0.285854
265 0.251329
270 0.365263
275 0.374938
280 0.367664
285 0.348574
290 0.317856
295 0.380483
300 0.352038
305 0.304361
310 0.328604
315 0.425589
320 0.338123
325 0.321694
330 0.413471
335 0.401408
340 0.423609
345 0.424062
350 0.521328
355 0.425772
360 0.414058
365 0.485089
370 0.434749
375 0.517594
380 0.515389
385 0.538792
390 0.555547
395 0.545303
400 0.66423
405 0.63814
410 0.754347
415 0.735133
420 0.72684
425 0.762337
430 0.905407
435 0.875206
440 0.923389
445 1.01376
450 1.02743
455 1.27112
460 1.57506
465 1.90094
470 2.23545
475 2.56713
480 3.44888
485 4.70741
490 7.83609
495 306.532
500 4787.36
505 6702.22
510 1558.51
515 184.961
520 25.5598
525 6.48413
530 3.33633
535 2.31647
540 2.06987
545 1.66093
550 1.55216
555 1.45137
560 1.2595
565 1.20227
570 1.06317
575 0.963033
580 0.857321
585 0.856997
590 1.03492
595 0.84435
600 0.749659
Ex : 513
200 0.321853
205 0.263938
210 0.379258
215 0.282172
220 0.310231
225 0.280168
230 0.382623
235 0.413603
240 0.328413
245 0.377384
250 1.14897
255 0.863537
260 0.400302
265 0.358222
270 0.315378
275 0.372833
280 0.320059
285 0.35914
290 0.389845
295 0.351247
300 0.351274
305 0.352538
310 0.336852
315 0.306622
320 0.408551
325 0.436451
330 0.410833
335 0.478903
340 0.324827
345 0.462131
350 0.444688
355 0.451808
360 0.501727
365 0.50252
370 0.529747
375 0.478673
380 0.486396
385 0.558742
390 0.615048
395 0.501039
400 0.620106
405 0.585869
410 0.755857
415 0.571808
420 0.735325
425 0.77387
430 0.894995
435 0.785185
440 0.911435
445 1.0676
450 1.04089
455 1.17118
460 1.49746
465 1.66446
470 1.77068
475 2.15012
480 2.86677
485 3.44781
490 5.09773
495 7.55388
500 295.56
505 4824.11
510 6923.27
515 1635.13
520 194.165
525 26.5889
530 6.10324
535 3.61111
540 2.38694
545 1.81729
550 1.65087
555 1.4686
560 1.33139
565 1.28735
570 1.23897
575 1.08777
580 0.957667
585 0.747681
590 0.799216
595 0.922233
600 0.789916
Ex : 518
200 0.37461
205 0.332405
210 0.326082
215 0.27082
220 0.252967
225 0.293437
230 0.351399
235 0.307859
240 0.335004
245 0.288667
250 0.986083
255 2.33137
260 0.768243
265 0.378005
270 0.450989
275 0.414462
280 0.396196
285 0.325836
290 0.367145
295 0.39453
300 0.37079
305 0.36066
310 0.358405
315 0.445154
320 0.414171
325 0.471244
330 0.447912
335 0.428858
340 0.521528
345 0.476868
350 0.514825
355 0.510116
360 0.454796
365 0.541705
370 0.464857
375 0.551725
380 0.488508
385 0.524352
390 0.608454
395 0.58276
400 0.597461
405 0.663813
410 0.743717
415 0.689491
420 0.699053
425 0.780928
430 0.924756
435 1.00929
440 0.838175
445 0.998297
450 1.1288
455 0.997406
460 1.31257
465 1.46336
470 1.62422
475 1.7531
480 2.12496
485 2.74064
490 3.58066
495 4.77657
500 7.90187
505 278.808
510 4659.33
515 6902.34
520 1625
525 192.885
530 26.4757
535 6.1961
540 3.3938
545 2.39059
550 1.82644
555 2.00662
560 1.62816
565 1.43573
570 1.29054
575 1.05992
580 0.942318
585 0.800207
590 0.833423
595 0.866002
600 1.02886
Ex : 523
200 0.314868
205 0.237733
210 0.330144
215 0.359644
220 0.323288
225 0.32994
230 0.363683
235 0.297108
240 0.277424
245 0.331048
250 0.302706
255 2.83173
260 2.1862
265 0.5565
270 0.320493
275 0.33476
280 0.381041
285 0.330443
290 0.351174
295 0.365523
300 0.466786
305 0.415048
310 0.464543
315 0.522083
320 0.466329
325 0.48792
330 0.401008
335 0.444251
340 0.472774
345 0.426823
350 0.512432
355 0.430049
360 0.616319
365 0.459239
370 0.57768
375 0.551026
380 0.517766
385 0.436171
390 0.649603
395 0.580778
400 0.62115
405 0.601188
410 0.577509
415 0.753426
420 0.740731
425 0.728949
430 0.800288
435 0.815956
440 0.957235
445 0.931334
450 0.966177
455 1.07728
460 1.19674
465 1.22657
470 1.32782
475 1.55785
480 1.8558
485 2.16466
490 2.75729
495 3.49395
500 4.67108
505 7.34761
510 256.375
515 4500.89
520 6817.09
525 1675.23
530 198.729
535 27.1306
540 6.09426
545 3.18645
550 2.28989
555 1.77088
560 1.81787
565 1.71843
570 1.45146
575 1.17448
580 1.13441
585 0.936132
590 0.86401
595 0.760585
600 0.710639
Ex : 528
200 0.328596
205 0.301112
210 0.321798
215 0.350151
220 0.306831
225 0.349097
230 0.292141
235 0.330165
240 0.411314
245 0.37221
250 0.345215
255 1.653
260 4.52506
265 1.23315
270 0.327172
275 0.391322
280 0.428669
285 0.540725
290 0.340328
295 0.354774
300 0.343111
305 0.475346
310 0.409361
315 0.484057
320 0.464473
325 0.444015
330 0.536413
335 0.5556
340 0.40767
345 0.570972
350 0.415907
355 0.516344
360 0.554056
365 0.56715
370 0.408526
375 0.572363
380 0.531822
385 0.535382
390 0.480645
395 0.512464
400 0.523561
405 0.644484
410 0.591621
415 0.691413
420 0.632776
425 0.741083
430 0.786279
435 0.899784
440 0.824109
445 0.871263
450 1.00029
455 0.985371
460 1.16202
465 1.28735
470 1.37367
475 1.33813
480 1.5075
485 1.75692
490 2.34705
495 2.76641
500 3.31783
505 4.78408
510 7.53036
515 244.845
520 4475.8
525 6807.75
530 1651.13
535 195.685
540 26.8404
545 6.23318
550 3.20961
555 2.28181
560 1.7168
565 1.66829
570 1.9318
575 1.27325
580 1.22846
585 1.05398
590 0.917429
595 0.866945
600 1.08761
Ex : 533
200 0.288286
205 0.273634
210 0.340391
215 0.254292
220 0.308684
225 0.304596
230 0.331781
235 0.307919
240 0.298778
245 0.329508
250 0.307811
255 0.558791
260 4.99391
265 3.76822
270 0.746419
275 0.410619
280 0.479081
285 0.417877
290 0.487825
295 0.434508
300 0.39389
305 0.478584
310 0.476504
315 0.534817
320 0.623419
325 0.518422
330 0.425591
335 0.487358
340 0.529727
345 0.40195
350 0.393248
355 0.481984
360 0.493892
365 0.545239
370 0.521654
375 0.49969
380 0.513178
385 0.477146
390 0.471811
395 0.570348
400 0.510096
405 0.580923
410 0.561655
415 0.547181
420 0.605324
425 0.673761
430 0.753576
435 0.719046
440 0.783709
445 0.832114
450 0.891068
455 1.10005
460 1.12765
465 1.17722
470 1.30367
475 1.2603
480 1.59298
485 1.49835
490 1.8861
495 2.07357
500 2.69912
505 3.46689
510 4.9799
515 7.41794
520 249.286
525 4425.36
530 6742.37
535 1689.2
540 200.266
545 27.4251
550 6.35112
555 3.36846
560 2.49642
565 1.81384
570 1.5363
575 1.51954
580 1.3253
585 1.24311
590 1.07944
595 0.980703
600 0.85158
Ex : 538
200 0.409565
205 0.371872
210 0.327338
215 0.325043
220 0.30782
225 0.40176
230 0.306898
235 0.330251
240 0.346686
245 0.410648
250 0.3449
255 0.410718
260 2.46912
265 8.34146
270 2.0886
275 0.526286
280 0.397951
285 0.510379
290 0.523203
295 0.570534
300 0.397016
305 0.583013
310 0.535987
315 0.489323
320 0.486182
325 0.602043
330 0.519046
335 0.485682
340 0.473333
345 0.530726
350 0.565957
355 0.502876
360 0.570967
365 0.57642
370 0.497619
375 0.594238
380 0.516201
385 0.609114
390 0.542628
395 0.643907
400 0.541128
405 0.601874
410 0.590565
415 0.563185
420 0.58212
425 0.796363
430 0.657339
435 0.822252
440 0.830281
445 0.815083
450 0.902915
455 0.962047
460 1.09728
465 1.09794
470 1.32437
475 1.16846
480 1.30711
485 1.32141
490 1.5287
495 1.45932
500 2.1219
505 2.52767
510 3.26342
515 4.62563
520 6.87756
525 213.216
530 4157.52
535 6719.4
540 1738.76
545 206.3
550 27.8625
555 6.10876
560 3.01645
565 2.31808
570 1.8058
575 1.65604
580 1.42464
585 1.25534
590 1.32834
595 1.09652
600 1.0017
Ex : 543
200 0.362097
205 0.325479
210 0.381559
215 0.323447
220 0.338904
225 0.312997
230 0.369894
235 0.340727
240 0.407426
245 0.323024
250 0.349825
255 0.331423
260 0.636896
265 8.73021
270 6.94687
275 1.12377
280 0.430309
285 0.37538
290 0.395385
295 0.547688
300 0.460551
305 0.410664
310 0.454581
315 0.48117
320 0.442291
325 0.478621
330 0.546315
335 0.535553
340 0.48569
345 0.49963
350 0.461133
355 0.621097
360 0.681049
365 0.522585
370 0.526142
375 0.500861
380 0.526699
385 0.48402
390 0.482215
395 0.56403
400 0.534812
405 0.68692
410 0.745721
415 0.610026
420 0.697591
425 0.685183
430 0.626771
435 0.755994
440 0.920197
445 0.82863
450 0.897606
455 0.927679
460 0.979884
465 1.13572
470 1.12814
475 1.12905
480 1.35654
485 1.27443
490 1.43733
495 1.50161
500 1.72932
505 1.99376
510 2.40524
515 3.09888
520 4.28837
525 6.49779
530 193.832
535 3901.93
540 6416.34
545 1701.1
550 202.673
555 27.4457
560 6.03208
565 3.25206
570 2.17461
575 1.61655
580 1.30697
585 1.26537
590 1.40439
595 1.08472
600 1.83958
Ex : 548
200 0.300157
205 0.334731
210 0.342756
215 0.318393
220 0.349673
225 0.316584
230 0.357842
235 0.380238
240 0.392519
245 0.370288
250 0.476344
255 0.432501
260 0.473456
265 3.97846
270 13.5038
275 3.43915
280 0.821218
285 0.496208
290 0.520813
295 0.476455
300 0.496852
305 0.448975
310 0.479104
315 0.540359
320 0.515061
325 0.401235
330 0.518695
335 0.590724
340 0.513423
345 0.438849
350 0.38518
355 0.58464
360 0.578855
365 0.555347
370 0.596188
375 0.551388
380 0.478044
385 0.571948
390 0.57628
395 0.686762
400 0.61137
405 0.573744
410 0.587369
415 0.513124
420 0.727837
425 0.63285
430 0.70783
435 0.805635
440 0.744509
445 0.756767
450 0.90304
455 0.902952
460 1.14596
465 1.03348
470 1.00416
475 1.02787
480 1.17347
485 1.18832
490 1.17245
495 1.58603
500 1.48245
505 1.64437
510 1.97316
515 2.35982
520 2.91891
525 4.38874
530 6.68455
535 215.275
540 4076.47
545 6533.36
550 1732.78
555 205.678
560 27.8352
565 6.04741
570 2.9386
575 2.02916
580 1.58618
585 1.32329
590 1.40649
595 1.36298
600 1.16171
Ex : 553
200 0.284022
205 0.328086
210 0.392669
215 0.352913
220 0.279851
225 0.339744
230 0.343054
235 0.347015
240 0.479989
245 0.462086
250 0.404361
255 0.383928
260 0.345623
265 0.68275
270 13.4699
275 11.0452
280 1.78239
285 0.575751
290 0.391659
295 0.608561
300 0.525503
305 0.478396
310 0.490406
315 0.546612
320 0.541189
325 0.492961
330 0.455206
335 0.559376
340 0.598146
345 0.619084
350 0.504214
355 0.528328
360 0.673768
365 0.618268
370 0.751437
375 0.620804
380 0.462771
385 0.541225
390 0.588299
395 0.510595
400 0.678228
405 0.684443
410 0.636817
415 0.559361
420 0.628206
425 0.717754
430 0.713271
435 0.642502
440 0.717153
445 0.911409
450 0.917835
455 0.904849
460 0.868244
465 1.01069
470 1.10308
475 1.23024
480 1.26521
485 1.14972
490 1.22389
495 1.2348
500 1.37069
505 1.48565
510 1.70256
515 2.15352
520 2.45466
525 3.20407
530 4.52216
535 6.73199
540 184.482
545 3822.11
550 6470.89
555 1765.19
560 210.192
565 28.2553
570 6.20866
575 2.83763
580 1.99664
585 1.38669
590 1.19255
595 1.29563
600 2.21525
Ex : 558
200 0.333658
205 0.377787
210 0.397472
215 0.331361
220 0.357719
225 0.487062
230 0.385491
235 0.40699
240 0.415461
245 0.425667
250 0.363545
255 0.468663
260 0.399896
265 0.348214
270 5.54736
275 20.9792
280 5.50346
285 1.04049
290 0.557941
295 0.545589
300 0.575132
305 0.573438
310 0.515168
315 0.467141
320 0.550157
325 0.435455
330 0.64385
335 0.567246
340 0.501082
345 0.539407
350 0.610336
355 0.610032
360 0.541945
365 0.600842
370 0.608751
375 0.537169
380 0.546406
385 0.560567
390 0.603817
395 0.668502
400 0.555511
405 0.572602
410 0.722042
415 0.715849
420 0.61652
425 0.675691
430 0.638647
435 0.681129
440 0.753046
445 0.788372
450 0.902234
455 0.919652
460 1.04888
465 1.06465
470 1.06669
475 1.09109
480 0.998268
485 1.01452
490 1.27474
495 1.16747
500 1.17884
505 1.42206
510 1.45515
515 1.54186
520 1.82025
525 2.34699
530 3.10854
535 4.18558
540 6.50432
545 175.038
550 3689.46
555 6376.21
560 1754.36
565 208.691
570 27.7281
575 6.03848
580 2.80679
585 1.88274
590 1.39016
595 1.10683
600 0.799675
Ex : 563
200 0.519497
205 0.412381
210 0.420706
215 0.397747
220 0.349247
225 0.440789
230 0.394519
235 0.369616
240 0.423138
245 0.327768
250 0.312803
255 0.409708
260 0.509244
265 0.401343
270 0.98719
275 18.4878
280 15.7042
285 2.32071
290 0.807948
295 0.53666
300 0.553448
305 0.674209
310 0.551488
315 0.535089
320 0.479255
325 0.481981
330 0.505769
335 0.568513
340 0.616262
345 0.673051
350 0.698171
355 0.534971
360 0.434492
365 0.499979
370 0.557483
375 0.65575
380 0.590308
385 0.491952
390 0.574909
395 0.488149
400 0.558356
405 0.569941
410 0.511381
415 0.495935
420 0.519658
425 0.699322
430 0.599236
435 0.770783
440 0.869604
445 0.719095
450 0.739891
455 0.789008
460 1.03856
465 0.922176
470 0.987793
475 1.0536
480 0.963998
485 0.960538
490 0.965342
495 1.08431
500 1.19624
505 1.18384
510 1.40822
515 1.30058
520 1.73697
525 1.92135
530 2.34485
535 2.97561
540 4.04937
545 6.71563
550 170.665
555 3698.57
560 6355.45
565 1783.08
570 211.89
575 27.9314
580 5.66738
585 2.59243
590 1.79665
595 1.2274
600 0.896189
Ex : 568
200 0.474182
205 0.333337
210 0.495611
215 0.439651
220 0.383474
225 0.318389
230 0.360094
235 0.368091
240 0.433146
245 0.354015
250 0.296741
255 0.405794
260 0.423081
265 0.439872
270 0.538638
275 7.34279
280 26.9862
285 7.58966
290 1.34899
295 0.680438
300 0.565004
305 0.565432
310 0.631376
315 0.654747
320 0.508685
325 0.558323
330 0.51164
335 0.639432
340 0.493609
345 0.601455
350 0.627154
355 0.58221
360 0.520977
365 0.648583
370 0.522003
375 0.622874
380 0.638406
385 0.562786
390 0.609491
395 0.597893
400 0.607507
405 0.641715
410 0.528001
415 0.593298
420 0.566595
425 0.713153
430 0.686023
435 0.647331
440 0.816245
445 0.847434
450 0.88521
455 0.894627
460 0.837898
465 0.746664
470 0.899256
475 0.987203
480 0.874413
485 0.969635
490 1.0063
495 1.07045
500 1.02761
505 1.19846
510 1.27242
515 1.29439
520 1.39074
525 1.82179
530 1.94371
535 2.19888
540 3.13573
545 4.01462
550 6.14241
555 130.146
560 3258.76
565 6117.74
570 1766.81
575 210.973
580 27.4429
585 5.39141
590 2.20006
595 1.53836
600 0.723399
Ex : 573
200 0.488243
205 0.389472
210 0.419381
215 0.363662
220 0.326855
225 0.290238
230 0.328429
235 0.405988
240 0.387058
245 0.383183
250 0.402273
255 0.325696
260 0.291409
265 0.367304
270 0.467004
275 0.884493
280 22.5998
285 21.5079
290 3.10514
295 0.795627
300 0.473181
305 0.532646
310 0.626451
315 0.651024
320 0.540493
325 0.504054
330 0.565971
335 0.670755
340 0.580998
345 0.57228
350 0.601681
355 0.531023
360 0.551934
365 0.591689
370 0.649403
375 0.618843
380 0.60184
385 0.529341
390 0.595025
395 0.505762
400 0.60684
405 0.571197
410 0.616539
415 0.702195
420 0.665086
425 0.606076
430 0.634652
435 0.58705
440 0.612032
445 0.735415
450 0.746066
455 0.622612
460 1.0152
465 0.909733
470 0.981002
475 0.951413
480 0.981418
485 0.929642
490 0.936267
495 0.987356
500 1.13012
505 0.992024
510 1.12774
515 1.20724
520 1.15189
525 1.32601
530 1.35411
535 1.86744
540 2.44093
545 2.8612
550 4.0315
555 6.08756
560 114.77
565 2880.46
570 5738.8
575 1702.57
580 202.469
585 26.2274
590 5.16594
595 2.12884
600 1.64396
Ex : 578
200 0.381247
205 0.368573
210 0.296323
215 0.400638
220 0.438884
225 0.321653
230 0.438307
235 0.561462
240 0.395185
245 0.447777
250 0.585573
255 0.398408
260 0.31772
265 0.391745
270 0.376995
275 0.376458
280 8.22255
285 33.4514
290 9.08072
295 1.40431
300 0.511567
305 0.439383
310 0.581865
315 0.721072
320 0.669961
325 0.584543
330 0.527459
335 0.493977
340 0.508794
345 0.531042
350 0.511183
355 0.533071
360 0.489816
365 0.509119
370 0.717397
375 0.627675
380 0.650263
385 0.485879
390 0.545249
395 0.598821
400 0.5562
405 0.76614
410 0.600601
415 0.561032
420 0.665175
425 0.573614
430 0.695356
435 0.710844
440 0.650208
445 0.686324
450 0.673957
455 0.807207
460 0.760725
465 0.848414
470 0.896496
475 0.902612
480 0.769586
485 0.946626
490 1.00517
495 0.849766
500 0.964664
505 1.08489
510 0.940917
515 1.04717
520 1.2652
525 1.19988
530 1.2568
535 1.5238
540 1.75007
545 2.29294
550 2.93295
555 3.72891
560 5.92065
565 107.841
570 2771.93
575 5144.3
580 1471.06
585 174.738
590 22.6605
595 4.34215
600 4.26501
Ex : 583
200 0.339663
205 0.508738
210 0.407179
215 0.323228
220 0.451071
225 0.401924
230 0.359452
235 0.47689
240 0.377685
245 0.338035
250 0.350384
255 0.367068
260 0.475065
265 0.444103
270 0.315153
275 0.38732
280 1.11017
285 25.9335
290 25.2212
295 3.69274
300 0.830513
305 0.543387
310 0.504715
315 0.611739
320 0.560916
325 0.609903
330 0.567904
335 0.650651
340 0.760092
345 0.568686
350 0.483421
355 0.450014
360 0.515553
365 0.573161
370 0.525658
375 0.458085
380 0.583526
385 0.574351
390 0.589153
395 0.46841
400 0.484146
405 0.563843
410 0.499434
415 0.675828
420 0.573464
425 0.600694
430 0.614116
435 0.646093
440 0.683525
445 0.656573
450 0.612916
455 0.763202
460 0.797942
465 0.701177
470 0.931716
475 0.969693
480 0.852686
485 0.819723
490 1.04355
495 0.952888
500 0.985426
505 0.790781
510 0.893142
515 0.99507
520 1.01701
525 1.28683
530 1.10757
535 1.34372
540 1.59238
545 1.66009
550 2.2548
555 2.72726
560 3.85635
565 5.47199
570 92.9265
575 2470.74
580 4584.05
585 1295.41
590 154.486
595 20.0296
600 4.68827
Ex : 588
200 0.337528
205 0.343854
210 0.434073
215 0.347309
220 0.382773
225 0.382667
230 0.53693
235 0.399912
240 0.372646
245 0.399017
250 0.411417
255 0.459553
260 0.428543
265 0.3398
270 0.406852
275 0.41751
280 0.418612
285 8.78251
290 38.7125
295 11.717
300 1.87617
305 0.579489
310 0.541157
315 0.677296
320 0.635447
325 0.5501
330 0.552388
335 0.510738
340 0.628605
345 0.602391
350 0.561448
355 0.603718
360 0.639929
365 0.630523
370 0.594911
375 0.474471
380 0.53232
385 0.471338
390 0.608704
395 0.557559
400 0.417838
405 0.573041
410 0.559683
415 0.494127
420 0.532028
425 0.552485
430 0.576952
435 0.584509
440 0.519603
445 0.634039
450 0.657629
455 0.723521
460 0.755402
465 0.829185
470 0.817114
475 0.788281
480 0.886615
485 0.916581
490 0.974707
495 0.859343
500 0.798219
505 0.971061
510 0.790094
515 0.867007
520 1.07342
525 0.956798
530 1.11931
535 1.22735
540 1.25985
545 1.33939
550 1.46633
555 2.08543
560 2.59329
565 3.47884
570 4.65767
575 79.3662
580 2070.17
585 3967.43
590 1182.3
595 140.91
600 18.5917
Ex : 593
200 0.339148
205 0.44248
210 0.400824
215 0.415758
220 0.340733
225 0.385872
230 0.422368
235 0.417049
240 0.395358
245 0.582842
250 0.395125
255 0.318981
260 0.327546
265 0.33929
270 0.497819
275 0.378539
280 0.402122
285 1.17048
290 29.9704
295 30.2194
300 4.44161
305 0.925611
310 0.562167
315 0.512272
320 0.466903
325 0.728242
330 0.492463
335 0.566357
340 0.577963
345 0.553094
350 0.419229
355 0.571629
360 0.617016
365 0.477233
370 0.451416
375 0.429385
380 0.449956
385 0.477464
390 0.514079
395 0.549765
400 0.566902
405 0.583057
410 0.594737
415 0.567403
420 0.597386
425 0.561336
430 0.664257
435 0.558988
440 0.577438
445 0.726816
450 0.72124
455 0.78985
460 0.831053
465 0.714176
470 0.88387
475 0.756843
480 0.728551
485 0.705886
490 0.814036
495 0.851088
500 0.927173
505 0.921783
510 0.897013
515 0.904968
520 1.03976
525 0.992945
530 0.978116
535 0.906736
540 0.91734
545 1.06446
550 1.51658
555 1.70798
560 1.70878
565 2.45707
570 3.07603
575 4.34283
580 68.3356
585 1836.37
590 3386.56
595 993.023
600 136.202
Ex : 598
200 0.376413
205 0.453223
210 0.324188
215 0.314239
220 0.34363
225 0.271785
230 0.321192
235 0.300505
240 0.370812
245 0.326495
250 0.344059
255 0.378887
260 0.418714
265 0.44314
270 0.33785
275 0.396197
280 0.40508
285 0.581901
290 10.401
295 44.4952
300 14.3376
305 2.20471
310 0.692314
315 0.538265
320 0.506119
325 0.614839
330 0.768707
335 0.588125
340 0.580062
345 0.566172
350 0.567482
355 0.559978
360 0.508168
365 0.574262
370 0.473423
375 0.400175
380 0.577833
385 0.51855
390 0.664062
395 0.516566
400 0.539146
405 0.546691
410 0.508352
415 0.641475
420 0.629373
425 0.541998
430 0.620426
435 0.59982
440 0.683934
445 0.676075
450 0.617991
455 0.681698
460 0.846812
465 0.737558
470 0.838183
475 0.869226
480 0.849585
485 0.816794
490 0.746683
495 0.765235
500 0.930861
505 0.64215
510 0.717003
515 0.874246
520 0.827953
525 0.966798
530 0.961532
535 0.917433
540 1.02761
545 1.03846
550 1.13731
555 1.39125
560 1.5473
565 1.66886
570 2.37219
575 2.873
580 4.0259
585 65.1142
590 1661.57
595 2973.12
600 1865.11
Ex : 603
200 0.338398
205 0.440607
210 0.403042
215 0.553119
220 0.318427
225 0.421939
230 0.409941
235 0.391803
240 0.332246
245 0.455706
250 0.38878
255 0.373768
260 0.414942
265 0.413579
270 0.356319
275 0.402925
280 0.427778
285 0.389514
290 1.02426
295 31.9294
300 36.0605
305 5.30455
310 0.924843
315 0.568522
320 0.429376
325 0.594123
330 0.706072
335 0.829243
340 0.624825
345 0.434885
350 0.519471
355 0.608648
360 0.686012
365 0.412087
370 0.492537
375 0.692244
380 0.572032
385 0.511984
390 0.529515
395 0.591487
400 0.590159
405 0.616322
410 0.573087
415 0.715098
420 0.539174
425 0.553262
430 0.518645
435 0.537062
440 0.594971
445 0.764083
450 0.78451
455 0.643679
460 0.863713
465 0.79076
470 0.786288
475 0.779642
480 0.89572
485 0.957038
490 0.630307
495 0.650849
500 0.671598
505 0.900071
510 0.781309
515 0.806321
520 0.852141
525 0.705589
530 1.06786
535 0.899122
540 0.866407
545 0.95974
550 1.06829
555 0.917364
560 1.37968
565 1.45894
570 1.68965
575 2.05359
580 2.32981
585 3.45162
590 59.5307
595 1426.59
600 2945.16
