File format V 1.0
mar. 14. juin 09:04:48 2016
Operator : 
Comments : 

=============================================
SpectroFluorometer parameters
Mode : 3D measurement
Data : Fluorescence
Phospho. : Ordinary
Spectrum : Fluorescence

Scan speed : 2400 nm/mn
Response : 100 ms
PM Voltage : 700 V
Shutter : On

Lambda Ex. Start : 203
Lambda Ex. End : 603
Lambda Ex. Step : 5
Ex. Slit : 5 nm

Lambda Em. Start : 200
Lambda Em. End : 600
Lambda Em. Step : 5
Em. Slit : 5 nm

Repetition : 1
Decal lambda em : 10
=============================================
DATA
Ex : 203
200 14.0574
205 15.4756
210 11.9883
215 14.7988
220 12.9831
225 16.8167
230 17.8337
235 17.951
240 13.1735
245 23.5751
250 16.5015
255 17.3403
260 15.0491
265 20.6034
270 20.4911
275 21.2474
280 35.9472
285 17.5568
290 23.5925
295 20.4088
300 19.6699
305 21.7788
310 26.0856
315 12.9416
320 25.0292
325 27.609
330 33.6599
335 26.7742
340 29.8545
345 31.4657
350 35.1832
355 27.7525
360 34.1674
365 36.6476
370 36.1381
375 38.4622
380 38.0955
385 38.4869
390 33.2446
395 38.1062
400 36.0792
405 32.2463
410 41.9535
415 40.5933
420 43.8448
425 45.5374
430 41.6319
435 40.5941
440 42.2367
445 37.1317
450 56.838
455 41.7318
460 51.6322
465 46.7863
470 49.1675
475 46.9776
480 44.6444
485 32.9683
490 39.6222
495 53.9167
500 34.7008
505 38.3593
510 40.852
515 42.5117
520 35.9814
525 37.3681
530 33.5547
535 25.3679
540 34.4055
545 35.4963
550 26.9611
555 39.1148
560 28.5453
565 33.8114
570 31.1748
575 37.0157
580 20.5104
585 24.2834
590 38.443
595 27.8749
600 16.022
Ex : 208
200 21.8034
205 16.7613
210 24.6557
215 13.1714
220 12.2858
225 13.748
230 12.0794
235 15.4213
240 11.5824
245 20.2185
250 21.067
255 18.8186
260 15.3988
265 17.0448
270 16.194
275 11.5911
280 18.2518
285 25.9353
290 17.3979
295 21.8818
300 32.9513
305 19.722
310 20.5337
315 22.7517
320 23.4397
325 37.9244
330 32.1596
335 30.2302
340 23.4087
345 27.6252
350 35.2068
355 22.8029
360 31.7083
365 36.0132
370 39.6167
375 36.4044
380 29.0483
385 37.7637
390 38.7861
395 41.9699
400 41.143
405 36.2636
410 42.585
415 37.4583
420 35.1654
425 43.7479
430 42.0853
435 45.6162
440 40.692
445 45.3354
450 44.3644
455 45.1789
460 36.9949
465 40.8439
470 44.4099
475 36.7028
480 39.4462
485 40.83
490 36.2903
495 32.3553
500 29.6051
505 47.1748
510 37.6049
515 36.468
520 33.6721
525 35.3109
530 37.0847
535 33.8206
540 36.8097
545 37.4524
550 28.9126
555 31.1324
560 30.6044
565 42.1495
570 42.7021
575 46.3992
580 35.8333
585 36.5023
590 26.9361
595 28.7185
600 52.8955
Ex : 213
200 19.188
205 13.6113
210 15.3155
215 25.722
220 14.3697
225 13.8662
230 19.5614
235 12.8953
240 16.1479
245 15.5594
250 13.4084
255 25.0822
260 13.6976
265 13.0987
270 14.5371
275 19.8324
280 21.4037
285 18.288
290 21.0875
295 22.3156
300 27.2191
305 22.3812
310 25.8185
315 24.2623
320 26.4669
325 29.8143
330 27.1991
335 32.2894
340 29.8733
345 36.1748
350 25.7754
355 42.0349
360 39.1912
365 35.4769
370 38.6068
375 33.5892
380 33.3575
385 39.0445
390 31.0735
395 45.2037
400 34.0206
405 33.7684
410 36.6936
415 39.7355
420 39.3017
425 34.0007
430 41.277
435 40.1949
440 44.5861
445 36.7324
450 38.9329
455 37.8015
460 43.8554
465 59.3418
470 46.8079
475 42.297
480 35.3521
485 34.0312
490 40.035
495 33.6194
500 36.1936
505 40.3155
510 36.856
515 34.7976
520 40.6191
525 38.7787
530 29.4563
535 37.9677
540 36.0607
545 43.7204
550 32.0044
555 40.5619
560 37.8591
565 34.1572
570 33.0914
575 33.5069
580 29.1007
585 25.9866
590 24.5091
595 28.882
600 47.5969
Ex : 218
200 14.773
205 21.1128
210 9.50571
215 11.2066
220 11.2713
225 22.053
230 14.2033
235 14.2842
240 14.6026
245 14.117
250 14.2277
255 12.6575
260 18.0458
265 19.8624
270 13.89
275 20.9553
280 23.6968
285 22.2208
290 17.8635
295 25.2066
300 24.9663
305 15.4713
310 24.9835
315 27.9808
320 27.7091
325 26.5586
330 25.8458
335 21.13
340 21.0008
345 33.3577
350 32.4522
355 35.2835
360 33.2956
365 31.7043
370 31.3205
375 47.8073
380 38.2168
385 37.7433
390 38.442
395 39.4848
400 35.6962
405 34.8712
410 36.9141
415 38.1653
420 42.1137
425 51.1731
430 45.4601
435 42.3873
440 30.2373
445 43.6241
450 41.7682
455 41.3124
460 42.9238
465 52.312
470 44.1295
475 46.8309
480 44.246
485 32.3432
490 35.9596
495 38.9919
500 35.2825
505 32.791
510 33.906
515 42.6755
520 39.918
525 31.1882
530 39.1402
535 44.4172
540 45.1035
545 36.9451
550 35.8602
555 37.0627
560 40.6419
565 34.5682
570 37.0556
575 31.8734
580 33.6506
585 26.8643
590 28.3554
595 21.7027
600 47.223
Ex : 223
200 11.694
205 10.6428
210 17.7374
215 18.9052
220 16.3434
225 16.4122
230 14.0514
235 19.1721
240 21.5339
245 19.7692
250 15.6823
255 18.7923
260 17.2397
265 18.2846
270 18.9258
275 19.578
280 17.3787
285 15.8246
290 19.0786
295 18.0739
300 19.4899
305 19.8077
310 23.9728
315 21.2724
320 27.2276
325 28.5566
330 23.9843
335 31.2933
340 30.4573
345 35.0911
350 31.5357
355 30.0709
360 28.3473
365 30.4559
370 31.0365
375 40.0894
380 36.1364
385 40.8584
390 35.1658
395 42.0635
400 37.6043
405 49.8633
410 33.954
415 39.252
420 38.1704
425 41.1688
430 37.4538
435 36.8964
440 34.449
445 37.2944
450 34.236
455 38.6302
460 43.8519
465 54.7146
470 45.4803
475 44.4118
480 48.7417
485 40.0572
490 45.477
495 36.661
500 34.8046
505 36.0105
510 45.971
515 43.3245
520 36.3996
525 31.6992
530 32.4444
535 24.1008
540 32.5711
545 29.8776
550 31.0427
555 35.5466
560 49.0338
565 39.1767
570 35.964
575 39.027
580 28.681
585 30.1733
590 35.3499
595 29.2274
600 18.096
Ex : 228
200 13.9747
205 14.9326
210 13.7551
215 12.8394
220 17.3211
225 17.1667
230 16.1794
235 14.0684
240 17.8664
245 16.8411
250 12.7346
255 16.8972
260 15.1194
265 18.2
270 16.2696
275 15.8736
280 15.5939
285 17.6968
290 24.5504
295 28.8171
300 25.1787
305 25.1908
310 24.0449
315 25.0519
320 21.7203
325 29.0928
330 26.8181
335 27.4616
340 31.4711
345 28.46
350 29.7596
355 31.2439
360 28.6776
365 31.5112
370 33.268
375 32.2737
380 35.3167
385 29.4125
390 34.4827
395 38.456
400 31.4022
405 36.6901
410 43.449
415 33.4206
420 43.6823
425 35.0446
430 38.7359
435 33.9821
440 33.54
445 40.3499
450 53.0355
455 80.2315
460 75.9171
465 48.7191
470 38.9545
475 40.8708
480 34.8327
485 37.1015
490 43.9609
495 40.4378
500 32.2142
505 36.2187
510 30.6358
515 32.1106
520 38.3217
525 33.6361
530 33.0158
535 37.7413
540 32.4655
545 33.8069
550 27.9329
555 33.4674
560 25.7764
565 35.5843
570 37.8092
575 36.7428
580 28.361
585 31.6264
590 33.4973
595 25.0048
600 22.6373
Ex : 233
200 16.4321
205 11.765
210 14.2344
215 12.932
220 12.1697
225 17.1966
230 25.2118
235 15.0294
240 17.5393
245 13.2868
250 14.3721
255 16.2264
260 11.2559
265 15.144
270 10.0377
275 13.736
280 13.5767
285 10.5951
290 17.8244
295 20.9269
300 20.8658
305 20.6042
310 23.2668
315 22.8808
320 18.4132
325 22.6478
330 23.6855
335 31.3158
340 27.5555
345 27.6847
350 25.9253
355 34.7493
360 36.1692
365 31.5548
370 30.3395
375 30.3105
380 34.1932
385 32.4441
390 40.0941
395 32.9913
400 37.3811
405 36.2502
410 35.3381
415 31.8735
420 32.6129
425 36.1909
430 35.3726
435 32.6179
440 36.5013
445 33.2516
450 40.077
455 59.8587
460 153.372
465 275.718
470 201.299
475 58.5946
480 34.3558
485 30.0818
490 47.8811
495 35.1149
500 25.6919
505 30.6134
510 30.8243
515 35.647
520 31.6083
525 28.0284
530 23.0416
535 27.3444
540 29.9126
545 28.2077
550 26.767
555 25.8118
560 27.8812
565 36.9639
570 30.5214
575 34.6842
580 31.8923
585 29.0956
590 25.4189
595 25.3308
600 23.2652
Ex : 238
200 10.5784
205 10.5975
210 11.7751
215 14.1758
220 14.257
225 8.99654
230 31.6827
235 60.6193
240 22.1916
245 14.8568
250 10.9822
255 12.9546
260 16.2079
265 12.8722
270 14.598
275 13.0499
280 14.8116
285 14.4532
290 12.8062
295 19.9691
300 18.1122
305 17.9374
310 16.1239
315 18.6819
320 25.719
325 19.4228
330 22.7974
335 26.6643
340 26.7086
345 26.0666
350 26.2224
355 26.6583
360 27.8645
365 26.1637
370 25.1641
375 26.654
380 28.1127
385 27.8347
390 31.6235
395 26.9773
400 32.4385
405 32.5691
410 40.0496
415 28.8481
420 24.2758
425 31.8132
430 28.7212
435 28.3909
440 26.128
445 25.7206
450 28.2018
455 31.3006
460 41.8099
465 145.221
470 366.943
475 438.07
480 284.572
485 74.8957
490 39.9473
495 27.0282
500 33.2199
505 28.8793
510 34.8425
515 34.9737
520 31.6091
525 23.5211
530 26.5418
535 22.9442
540 25.275
545 24.4083
550 29.141
555 36.4791
560 33.4841
565 30.328
570 27.3787
575 29.1033
580 23.8295
585 32.6824
590 25.6504
595 24.6076
600 22.7398
Ex : 243
200 9.58159
205 7.80945
210 7.38013
215 8.57781
220 8.75977
225 7.14511
230 12.7483
235 57.9765
240 79.081
245 25.9318
250 11.0121
255 9.61082
260 9.95571
265 13.4478
270 11.5623
275 11.3226
280 11.9527
285 15.4972
290 13.3422
295 12.1927
300 16.3872
305 13.1361
310 16.3561
315 14.0544
320 18.5247
325 21.2173
330 22.704
335 19.4869
340 20.5888
345 26.5843
350 25.962
355 28.9509
360 25.7828
365 20.7947
370 23.9234
375 26.3767
380 27.6876
385 34.1536
390 30.5403
395 27.893
400 27.3894
405 24.7908
410 28.6077
415 25.9111
420 24.9992
425 25.0501
430 21.6681
435 22.299
440 25.8695
445 23.9617
450 23.8473
455 24.6894
460 28.5707
465 27.0594
470 49.8772
475 235.586
480 506.065
485 550.763
490 309.631
495 77.1769
500 25.9363
505 24.3403
510 23.5085
515 33.9927
520 32.7004
525 36.1092
530 30.7821
535 24.4983
540 27.39
545 24.1533
550 25.6095
555 25.7709
560 28.792
565 27.0898
570 23.4506
575 24.0478
580 24.4835
585 21.4836
590 22.2683
595 23.257
600 21.9215
Ex : 248
200 8.61639
205 7.47435
210 6.67288
215 8.23766
220 7.61368
225 5.7155
230 6.60833
235 10.3623
240 68.3946
245 99.1931
250 31.8534
255 10.3502
260 10.2557
265 10.9296
270 10.3669
275 10.6815
280 10.6423
285 9.4655
290 10.8312
295 13.5962
300 12.1016
305 18.9115
310 14.1353
315 16.7737
320 19.7668
325 15.0528
330 15.2854
335 16.0041
340 24.6447
345 22.3301
350 19.749
355 18.6773
360 22.8637
365 20.7633
370 22.2271
375 19.8517
380 23.6163
385 21.8373
390 22.506
395 24.442
400 21.9419
405 23.0157
410 26.2553
415 22.7028
420 22.6708
425 21.3254
430 22.2688
435 18.6914
440 21.885
445 21.9449
450 20.1235
455 19.6511
460 17.5902
465 24.0141
470 26.286
475 23.3388
480 59.9567
485 283.958
490 552.581
495 512.977
500 266.322
505 58.5228
510 26.0804
515 22.4937
520 21.9425
525 24.4276
530 26.1184
535 27.8901
540 32.055
545 26.1709
550 23.0495
555 21.872
560 24.766
565 22.477
570 24.5469
575 22.2304
580 21.6029
585 22.2836
590 16.9438
595 20.4795
600 39.6777
Ex : 253
200 5.89948
205 4.43253
210 4.46125
215 4.948
220 3.502
225 5.526
230 6.61365
235 5.44016
240 10.726
245 64.4758
250 132.947
255 45.8911
260 10.8446
265 7.96309
270 11.5291
275 9.28095
280 10.3217
285 9.78575
290 10.9418
295 10.8425
300 12.2065
305 13.941
310 13.0645
315 12.4031
320 15.6918
325 15.9274
330 16.4896
335 15.6103
340 16.2886
345 17.4886
350 17.8843
355 18.8019
360 18.5404
365 17.755
370 19.4537
375 16.1077
380 17.7047
385 17.8766
390 16.9304
395 18.0134
400 18.0333
405 18.3151
410 17.8573
415 15.1919
420 21.5139
425 17.3671
430 15.2599
435 17.0625
440 16.0909
445 19.7161
450 16.9551
455 17.568
460 21.0618
465 23.1885
470 22.7795
475 18.843
480 17.6221
485 18.0429
490 58.4472
495 268.204
500 531.891
505 610.141
510 433.538
515 108.582
520 36.2926
525 24.57
530 23.0465
535 21.268
540 23.6962
545 29.3059
550 30.2195
555 26.1701
560 23.8183
565 21.6367
570 21.7058
575 17.4092
580 20.7969
585 18.5279
590 15.9713
595 18.2961
600 13.1103
Ex : 258
200 4.53191
205 3.88714
210 5.55331
215 4.94007
220 3.92133
225 5.31252
230 4.6067
235 5.23327
240 4.8844
245 10.6642
250 158.036
255 329.866
260 106.516
265 18.8134
270 8.84673
275 11.0376
280 13.9353
285 11.8695
290 11.3524
295 11.5622
300 11.8376
305 12.4478
310 10.908
315 11.7966
320 11.6454
325 12.9263
330 13.1681
335 13.8424
340 15.551
345 16.6482
350 18.1399
355 15.9157
360 16.126
365 16.7645
370 16.5774
375 15.3298
380 13.1416
385 14.8984
390 17.4974
395 15.7552
400 14.7357
405 18.663
410 19.5145
415 15.9446
420 13.6397
425 14.9762
430 14.1217
435 14.4464
440 13.9754
445 14.5874
450 15.0955
455 13.7637
460 14.5031
465 18.1426
470 13.3954
475 15.8353
480 15.9446
485 16.1606
490 16.6572
495 15.9758
500 63.3371
505 438.767
510 1767.59
515 2248.13
520 1073.51
525 193.139
530 47.1185
535 26.4092
540 22.0569
545 25.8827
550 26.3051
555 32.0862
560 33.4681
565 30.3348
570 23.4486
575 19.0434
580 17.0214
585 19.4664
590 17.403
595 15.3785
600 16.6544
Ex : 263
200 3.89021
205 3.25581
210 3.67112
215 2.66492
220 2.82085
225 3.8499
230 4.07167
235 3.18488
240 3.24164
245 2.92027
250 18.9514
255 333.211
260 663.582
265 180.773
270 28.6454
275 12.6013
280 13.0868
285 14.0201
290 11.1231
295 10.0902
300 11.3344
305 11.8877
310 11.3909
315 14.0742
320 14.9869
325 15.0396
330 13.0759
335 15.0373
340 16.0943
345 17.6873
350 15.5142
355 16.0543
360 15.2028
365 13.8727
370 14.7592
375 13.9836
380 15.0647
385 11.7899
390 11.4525
395 11.427
400 11.7222
405 14.0966
410 12.4127
415 12.2281
420 12.9945
425 11.3147
430 12.5397
435 11.7831
440 12.1953
445 12.6492
450 12.4135
455 12.932
460 13.0966
465 16.1306
470 13.1557
475 12.0128
480 15.0677
485 12.9284
490 11.9465
495 10.5221
500 12.1389
505 14.5355
510 168.218
515 1296.08
520 3027.31
525 3131.25
530 1539.03
535 273.782
540 55.3961
545 30.9656
550 22.9954
555 24.4252
560 28.137
565 31.4851
570 33.491
575 30.1105
580 25.2793
585 18.1701
590 16.1979
595 18.7069
600 22.4072
Ex : 268
200 2.20717
205 1.91687
210 1.73211
215 2.88876
220 2.30819
225 2.26464
230 2.60254
235 2.92202
240 3.37796
245 2.94993
250 3.82537
255 32.6383
260 570.858
265 1138.7
270 313.924
275 46.8813
280 14.6624
285 13.4694
290 14.724
295 14.0337
300 11.4796
305 13.352
310 12.7327
315 13.2448
320 15.6983
325 15.3712
330 15.3708
335 14.0413
340 13.8804
345 13.9658
350 15.0442
355 15.009
360 12.7017
365 12.3052
370 12.7477
375 12.2004
380 11.4221
385 12.8471
390 12.0445
395 11.5733
400 11.4377
405 11.0868
410 10.4944
415 11.7316
420 9.96719
425 9.44841
430 9.34576
435 10.0314
440 10.5163
445 9.84359
450 10.1304
455 9.85712
460 9.78859
465 11.1245
470 11.0222
475 10.934
480 10.9635
485 10.3048
490 10.4807
495 12.725
500 11.7558
505 10.8402
510 12.8001
515 17.8068
520 234.052
525 1840.73
530 4755.38
535 5013.76
540 2199.47
545 381.101
550 75.1542
555 35.8665
560 26.6461
565 26.3266
570 28.5887
575 29.7777
580 31.9628
585 29.729
590 24.4083
595 20.8742
600 21.9141
Ex : 273
200 2.16095
205 2.14162
210 2.6668
215 1.95903
220 2.45894
225 2.37154
230 2.2073
235 3.0128
240 3.007
245 3.35369
250 2.87115
255 3.68805
260 45.5644
265 918.808
270 1636.57
275 441.828
280 62.4091
285 17.0542
290 15.291
295 17.8367
300 16.8652
305 13.944
310 13.4121
315 13.8104
320 15.0422
325 15.657
330 14.7329
335 15.2603
340 14.3683
345 15.2686
350 14.4861
355 13.6434
360 13.992
365 11.6838
370 11.4905
375 12.0845
380 11.1992
385 10.4621
390 10.0093
395 9.68394
400 10.2833
405 9.6242
410 8.98028
415 9.04891
420 9.38728
425 9.37922
430 9.20118
435 10.1519
440 8.72133
445 9.39554
450 8.75538
455 8.93793
460 10.1259
465 9.24623
470 10.0438
475 9.29058
480 9.51458
485 10.2655
490 10.3038
495 9.95798
500 10.0782
505 9.74257
510 10.3326
515 12.4219
520 13.3511
525 20.7098
530 405.529
535 2760.59
540 6866.13
545 7060.02
550 2958.62
555 483.673
560 90.2196
565 39.2665
570 28.9869
575 25.9661
580 26.5538
585 27.7245
590 30.749
595 33.0094
600 39.5984
Ex : 278
200 1.70113
205 2.06856
210 2.30194
215 2.34482
220 2.32697
225 2.17501
230 2.15731
235 1.63237
240 1.96326
245 2.62379
250 2.52358
255 3.35065
260 4.06313
265 67.4663
270 1378.91
275 2464.35
280 646.469
285 88.0125
290 21.2936
295 15.6354
300 18.5102
305 17.4503
310 14.4377
315 14.4059
320 15.7849
325 15.0165
330 15.7927
335 14.8143
340 15.2405
345 15.064
350 13.7712
355 13.9708
360 11.9469
365 12.006
370 10.094
375 9.86714
380 9.3063
385 9.75389
390 8.88723
395 8.44524
400 8.688
405 8.91396
410 8.09199
415 8.46977
420 8.79967
425 8.01175
430 8.15596
435 8.69085
440 9.67302
445 8.86623
450 9.09208
455 8.95169
460 8.33484
465 9.58545
470 9.69659
475 8.93705
480 8.80257
485 9.06514
490 8.38018
495 8.52774
500 8.3149
505 10.0867
510 9.04412
515 9.79959
520 11.1816
525 12.844
530 16.2092
535 28.4244
540 555.896
545 3894.03
550 8805.89
555 8796.37
560 3755.49
565 616.413
570 106.109
575 40.3859
580 28.3112
585 25.1655
590 23.3511
595 26.7368
600 35.415
Ex : 283
200 1.77214
205 1.84408
210 1.89147
215 2.2404
220 2.07076
225 1.95046
230 2.35487
235 2.16979
240 2.16124
245 2.41735
250 2.05948
255 2.67001
260 3.61452
265 4.9818
270 102.921
275 1961.82
280 3319.95
285 852.181
290 113.52
295 24.8868
300 15.5245
305 18.953
310 19.1292
315 16.0067
320 14.7604
325 15.1235
330 14.2631
335 14.5074
340 14.8946
345 14.1368
350 12.8991
355 12.0951
360 11.6022
365 10.7594
370 10.5654
375 8.86815
380 8.32769
385 8.51079
390 8.21747
395 8.13858
400 8.40429
405 7.5346
410 8.0559
415 7.97708
420 7.17445
425 7.91849
430 7.46397
435 8.31366
440 7.45038
445 9.21069
450 7.57891
455 8.46635
460 8.4328
465 8.74497
470 8.20256
475 7.96314
480 8.67894
485 7.67453
490 7.35515
495 8.02696
500 8.51304
505 8.68449
510 8.22755
515 9.37895
520 9.47419
525 10.634
530 11.3649
535 13.3785
540 15.9558
545 34.4001
550 751.774
555 5083.84
560 9999.9
565 9753.89
570 3986.95
575 631.435
580 108.778
585 40.1507
590 28.5376
595 22.4649
600 17.4401
Ex : 288
200 1.74225
205 1.7018
210 1.45468
215 1.64859
220 1.91895
225 1.7164
230 1.75173
235 1.87247
240 2.14357
245 2.40653
250 2.09847
255 2.77106
260 2.89292
265 3.82835
270 6.08541
275 121.059
280 2400.98
285 3988.49
290 987.862
295 127.789
300 26.92
305 15.1591
310 17.8932
315 18.1391
320 14.7248
325 13.7878
330 13.0635
335 13.9886
340 12.9238
345 13.2791
350 12.1563
355 11.7394
360 10.2044
365 9.72886
370 9.40866
375 8.85129
380 7.85018
385 7.61959
390 8.78334
395 8.34118
400 6.44417
405 7.95153
410 7.73242
415 7.18801
420 7.29274
425 6.66149
430 7.25789
435 7.56297
440 7.60078
445 7.12676
450 7.17465
455 7.81085
460 8.00629
465 8.25959
470 7.51882
475 6.92131
480 7.61569
485 7.86795
490 7.09488
495 7.53493
500 7.61965
505 6.79041
510 7.49375
515 7.92119
520 7.66909
525 8.40956
530 9.09703
535 10.9436
540 12.257
545 14.5587
550 18.9257
555 38.0415
560 889.185
565 5560.53
570 9999.9
575 9731.29
580 3946.61
585 602.347
590 100.618
595 36.5876
600 27.5593
Ex : 293
200 1.75677
205 1.62656
210 1.69186
215 2.20305
220 1.6663
225 1.86069
230 1.87505
235 1.96208
240 2.1175
245 1.74366
250 1.79484
255 2.27082
260 2.33615
265 2.51819
270 4.30873
275 6.08505
280 157.472
285 2810.39
290 4475.31
295 1103.37
300 142.41
305 29.1426
310 14.7868
315 16.3872
320 18.2391
325 15.0509
330 11.9902
335 12.3711
340 11.8046
345 11.6658
350 10.9275
355 10.8389
360 10.559
365 8.9795
370 8.77648
375 7.99284
380 8.38408
385 7.60976
390 8.37428
395 7.07915
400 7.09524
405 7.56296
410 7.58642
415 7.21656
420 6.61501
425 6.98836
430 6.90054
435 7.00264
440 6.46622
445 6.71943
450 6.95826
455 6.58542
460 6.6491
465 7.75312
470 6.96747
475 6.90954
480 7.04192
485 6.61119
490 5.94612
495 6.13255
500 6.75505
505 6.422
510 6.65856
515 6.24189
520 6.98066
525 6.99634
530 7.55397
535 7.92179
540 9.06216
545 10.6237
550 12.0871
555 16.4268
560 21.1648
565 46.1007
570 1137.01
575 6482.21
580 9999.9
585 9565.43
590 3487.64
595 513.675
600 89.216
Ex : 298
200 1.41582
205 1.60005
210 1.76387
215 1.60021
220 1.84079
225 1.33297
230 1.65618
235 1.97603
240 1.68013
245 1.7912
250 1.83559
255 2.47779
260 2.15015
265 2.78086
270 3.09229
275 4.88411
280 8.13825
285 188.169
290 3287.02
295 4963.98
300 1218.1
305 156.508
310 30.407
315 15.244
320 16.0406
325 18.5625
330 15.5138
335 11.68
340 10.4689
345 9.57096
350 9.80963
355 8.93782
360 8.86861
365 8.13112
370 8.24379
375 7.21942
380 7.15067
385 7.44273
390 6.70648
395 7.16123
400 6.05262
405 6.67064
410 6.29581
415 6.29173
420 6.42396
425 6.68247
430 5.96808
435 5.72767
440 5.86298
445 6.00689
450 5.83008
455 6.19632
460 6.09977
465 6.69619
470 6.96069
475 6.71835
480 6.02911
485 6.3115
490 5.74162
495 5.68893
500 5.60076
505 5.52374
510 5.35971
515 5.64638
520 5.93575
525 5.55165
530 6.26343
535 6.51496
540 7.70463
545 7.91478
550 8.7072
555 10.2257
560 11.3269
565 14.8019
570 21.2335
575 50.2512
580 1272.08
585 6604.71
590 9999.9
595 9112.56
600 5557.44
Ex : 303
200 1.09094
205 1.21812
210 1.3509
215 1.76754
220 1.49857
225 1.66867
230 1.50949
235 1.46807
240 1.74339
245 2.06601
250 1.85449
255 1.86433
260 2.22775
265 2.20574
270 2.73172
275 3.53249
280 5.16323
285 7.85722
290 203.75
295 3631.9
300 5537.71
305 1320.97
310 169.411
315 32.2623
320 14.8307
325 14.309
330 16.9694
335 14.3024
340 11.339
345 9.37208
350 8.6667
355 7.91887
360 7.64054
365 6.83355
370 7.12913
375 6.70382
380 7.00583
385 5.98542
390 6.40121
395 6.41702
400 6.19817
405 5.90476
410 6.15698
415 6.37739
420 5.52046
425 5.9205
430 6.146
435 6.07917
440 6.30331
445 5.61001
450 5.68661
455 5.6693
460 5.89844
465 5.80727
470 6.1177
475 5.61838
480 5.61818
485 5.35225
490 5.03789
495 4.92224
500 4.82323
505 4.69439
510 4.92113
515 5.03401
520 5.2324
525 4.82844
530 4.97468
535 5.21464
540 5.29323
545 6.0377
550 7.0565
555 7.5751
560 8.62655
565 10.2184
570 12.3008
575 14.3768
580 20.7037
585 53.4328
590 1416.77
595 6790.23
600 9999.9
Ex : 308
200 1.37557
205 1.21401
210 1.41054
215 1.365
220 1.34063
225 1.5417
230 1.58226
235 1.38059
240 1.3604
245 1.53573
250 1.71277
255 1.90473
260 1.70552
265 1.94537
270 2.46687
275 2.61306
280 3.66819
285 4.86558
290 8.84225
295 251.902
300 3851.92
305 5594.79
310 1373.52
315 174.507
320 33.1578
325 14.0007
330 13.538
335 16.1738
340 14.6967
345 10.7414
350 8.23464
355 6.74511
360 7.10054
365 6.85616
370 6.37738
375 6.66759
380 6.27845
385 5.89588
390 6.46686
395 5.96559
400 6.15329
405 6.24988
410 6.06236
415 5.95274
420 5.92653
425 5.91839
430 5.59815
435 5.43764
440 5.58018
445 5.70787
450 5.74946
455 5.37127
460 5.97568
465 5.66798
470 5.35692
475 5.55312
480 5.18528
485 4.90748
490 5.30929
495 4.77621
500 4.73962
505 4.72982
510 4.62087
515 4.64008
520 4.71189
525 4.51145
530 4.76712
535 4.41513
540 5.23985
545 5.1157
550 5.45929
555 6.10502
560 6.61298
565 7.14382
570 7.95896
575 9.3941
580 11.4083
585 14.261
590 20.4558
595 60.7077
600 256.496
Ex : 313
200 1.5225
205 1.21318
210 1.29725
215 1.08498
220 1.26245
225 1.417
230 1.19813
235 1.42753
240 1.37691
245 1.4303
250 1.65175
255 1.53583
260 1.66656
265 1.7664
270 2.10187
275 2.03719
280 2.90547
285 3.7132
290 5.66039
295 9.46889
300 256.754
305 4490.94
310 6633.93
315 1597.38
320 201.422
325 36.2094
330 14.1264
335 12.498
340 15.5437
345 15.2805
350 11.2979
355 8.12205
360 6.87082
365 6.39351
370 6.34919
375 6.09158
380 6.07285
385 5.71182
390 5.50493
395 5.64636
400 5.34405
405 5.33189
410 5.84275
415 5.47348
420 5.36007
425 5.2665
430 4.79188
435 5.17255
440 4.99076
445 5.10311
450 5.57718
455 5.65662
460 5.31241
465 5.11997
470 5.39503
475 4.8873
480 4.41447
485 4.88685
490 4.92564
495 4.48253
500 4.14142
505 4.29496
510 4.47413
515 4.44869
520 4.47736
525 4.10489
530 3.92994
535 4.18592
540 4.11269
545 4.32019
550 4.68625
555 5.33348
560 5.61867
565 5.81426
570 6.63128
575 6.8028
580 7.7012
585 9.1895
590 10.9719
595 13.8702
600 16.4577
Ex : 318
200 1.09981
205 1.19532
210 1.2373
215 1.31558
220 1.34093
225 1.18697
230 1.45766
235 1.33761
240 1.23499
245 1.58249
250 1.49682
255 1.54056
260 1.64643
265 1.90404
270 1.85747
275 2.13929
280 2.77477
285 3.033
290 4.18005
295 6.0341
300 10.5002
305 331.786
310 5155.67
315 7501.2
320 1766.3
325 221.958
330 38.7832
335 15.4013
340 11.8455
345 14.1741
350 14.9405
355 11.6412
360 8.36821
365 7.1061
370 6.88065
375 6.65046
380 6.27559
385 5.81257
390 5.87335
395 5.76252
400 5.49114
405 5.87732
410 5.40773
415 5.26795
420 5.27391
425 4.89986
430 5.19715
435 5.2801
440 5.24176
445 5.24402
450 5.06612
455 4.77015
460 5.17316
465 5.26918
470 5.05926
475 4.62098
480 4.79461
485 4.62719
490 4.26326
495 4.35446
500 4.27677
505 4.5383
510 4.50522
515 4.02749
520 3.8171
525 3.60217
530 4.18602
535 3.75659
540 4.14721
545 4.32827
550 4.22873
555 4.81278
560 4.89829
565 5.04802
570 5.39597
575 5.3837
580 5.90432
585 6.98193
590 7.72015
595 8.77225
600 12.1516
Ex : 323
200 0.925108
205 1.10469
210 1.18602
215 1.2192
220 1.11609
225 1.197
230 1.25095
235 1.38747
240 1.40738
245 1.68569
250 1.43552
255 1.46432
260 1.48366
265 1.67083
270 1.96634
275 1.85307
280 2.24167
285 2.7999
290 3.71887
295 4.23912
300 6.33441
305 11.4292
310 367.235
315 5643.19
320 8421.91
325 2057.94
330 256.239
335 43.9015
340 15.8058
345 11.6711
350 12.9437
355 14.2155
360 12.1925
365 8.99752
370 7.11435
375 6.48246
380 6.53196
385 6.02162
390 6.07076
395 5.62186
400 5.58095
405 5.37654
410 5.47568
415 5.74372
420 5.16158
425 5.16068
430 5.30449
435 5.17101
440 4.95902
445 5.42339
450 4.78896
455 5.05317
460 4.75746
465 5.36491
470 5.04975
475 4.32531
480 4.36399
485 4.4165
490 4.33851
495 4.32642
500 4.17031
505 4.24063
510 3.81277
515 3.70252
520 3.69974
525 3.6212
530 3.97962
535 3.92887
540 3.48042
545 3.891
550 3.7867
555 4.0856
560 4.25386
565 4.48451
570 4.35638
575 4.88591
580 5.28031
585 5.44198
590 5.79859
595 6.7137
600 4.92808
Ex : 328
200 1.02028
205 1.04859
210 1.20466
215 1.42286
220 1.33595
225 1.26465
230 1.33337
235 1.37472
240 1.02362
245 1.52409
250 1.27929
255 1.35113
260 1.48252
265 1.66935
270 1.84874
275 1.83613
280 1.8741
285 2.53276
290 2.84309
295 3.67542
300 4.77964
305 6.73626
310 12.1593
315 389.053
320 6365.14
325 9118.54
330 2153.84
335 268.253
340 45.4587
345 15.7574
350 10.9577
355 11.8379
360 13.6921
365 13.1904
370 9.55399
375 7.3468
380 6.82699
385 6.42294
390 5.77674
395 5.43563
400 5.52727
405 5.3859
410 5.40321
415 5.46764
420 5.20605
425 4.88718
430 4.94192
435 5.08609
440 4.87786
445 4.68725
450 4.81957
455 4.64701
460 4.87913
465 4.79485
470 4.9782
475 4.94623
480 4.95378
485 4.42044
490 4.21663
495 4.17191
500 4.03272
505 4.1896
510 3.57801
515 3.61341
520 3.70219
525 3.76719
530 3.88307
535 3.84672
540 3.351
545 3.61253
550 3.57715
555 3.68418
560 4.11744
565 3.97574
570 3.93017
575 3.91293
580 4.31173
585 4.64482
590 4.65032
595 5.24807
600 4.06496
Ex : 333
200 0.9877
205 0.920074
210 0.995727
215 1.09848
220 1.10587
225 1.35979
230 1.11643
235 1.36487
240 1.3519
245 1.19986
250 1.42511
255 1.49739
260 1.54579
265 1.55795
270 1.49477
275 1.80159
280 1.66235
285 2.06568
290 2.36592
295 2.97031
300 3.63939
305 5.152
310 7.16347
315 12.1493
320 462.492
325 6822.36
330 9752.84
335 2306.74
340 285.38
345 46.6984
350 15.8501
355 10.8493
360 10.8065
365 13.604
370 13.1918
375 10.261
380 7.51754
385 6.6754
390 6.47408
395 5.82262
400 5.51759
405 5.41085
410 5.80384
415 5.48274
420 5.34713
425 5.05096
430 5.09653
435 5.30087
440 5.10482
445 4.99096
450 4.76639
455 4.75169
460 4.77616
465 4.74352
470 4.78097
475 4.72561
480 4.38809
485 4.38489
490 4.42016
495 4.04187
500 4.02718
505 3.99486
510 3.38164
515 3.37663
520 3.53357
525 3.36745
530 3.26737
535 3.20413
540 3.64171
545 3.41089
550 3.23598
555 3.53407
560 3.48172
565 3.59174
570 3.4131
575 3.52527
580 3.56103
585 3.75976
590 3.80292
595 4.26006
600 4.6972
Ex : 338
200 0.899245
205 0.932426
210 1.07137
215 0.895893
220 1.05386
225 1.13273
230 1.10456
235 1.1148
240 1.19833
245 1.18294
250 1.24412
255 1.26226
260 1.29913
265 1.47014
270 1.57035
275 1.5211
280 1.74655
285 2.01549
290 2.3154
295 2.53211
300 2.69175
305 3.62252
310 4.71778
315 7.61102
320 13.1424
325 505.484
330 7314.21
335 9999.9
340 2374.55
345 294.047
350 47.5313
355 15.4524
360 10.3229
365 10.0561
370 12.3768
375 13.2068
380 11.1175
385 8.01882
390 6.2689
395 6.11014
400 6.19546
405 5.72749
410 5.85794
415 5.83308
420 5.25134
425 5.22824
430 5.08968
435 5.24311
440 4.86927
445 4.69604
450 4.84356
455 4.63129
460 4.89844
465 4.84457
470 4.8574
475 4.5835
480 4.34454
485 4.12929
490 4.19405
495 4.10351
500 3.75774
505 3.62667
510 3.66484
515 3.73944
520 3.42527
525 3.52836
530 3.37944
535 3.27932
540 2.98648
545 3.15287
550 3.25693
555 3.05025
560 3.0409
565 3.1551
570 2.97517
575 3.04267
580 3.38898
585 3.31862
590 3.17472
595 3.33932
600 3.99087
Ex : 343
200 1.02082
205 0.927816
210 0.947181
215 1.10023
220 0.96113
225 0.889484
230 1.12473
235 1.28045
240 1.12268
245 1.23859
250 1.21409
255 1.24029
260 1.33748
265 1.29895
270 1.31252
275 1.52231
280 1.71466
285 1.72333
290 1.88445
295 2.29841
300 2.57412
305 3.16068
310 4.05229
315 5.29109
320 8.00015
325 14.0505
330 511.852
335 7699.1
340 9999.9
345 2465.24
350 304.203
355 48.9866
360 15.7513
365 10.2244
370 9.3917
375 10.9689
380 12.8209
385 11.4869
390 8.61816
395 6.72025
400 6.25932
405 5.74974
410 5.6797
415 5.67176
420 5.7778
425 5.46515
430 5.33093
435 5.11587
440 5.16551
445 5.0409
450 4.92945
455 5.13647
460 4.8237
465 4.85396
470 4.5853
475 4.71889
480 4.51645
485 4.40779
490 4.0234
495 4.014
500 3.76244
505 3.68307
510 3.72391
515 3.49934
520 3.18621
525 3.02975
530 3.26484
535 3.14596
540 3.21071
545 2.98851
550 3.06621
555 3.05932
560 2.97593
565 2.88567
570 2.96645
575 2.81371
580 3.03155
585 2.71581
590 2.90725
595 2.89506
600 3.19104
Ex : 348
200 0.930352
205 0.949276
210 0.986594
215 1.01827
220 0.888335
225 0.933624
230 0.908243
235 0.956769
240 1.12481
245 0.934348
250 1.17971
255 1.34483
260 1.24091
265 1.16506
270 1.25133
275 1.36396
280 1.53398
285 1.63037
290 1.90748
295 1.87643
300 2.26333
305 2.794
310 3.29809
315 4.2457
320 5.75369
325 8.32016
330 14.7287
335 504.859
340 7737.73
345 9999.9
350 2788.68
355 342.801
360 53.934
365 16.7015
370 10.8597
375 9.16451
380 10.2055
385 12.0609
390 12.1791
395 9.45905
400 7.10637
405 6.11107
410 5.93315
415 5.42682
420 5.48868
425 5.46304
430 5.14865
435 5.15432
440 5.09105
445 4.97989
450 4.80701
455 4.80228
460 4.73798
465 4.5668
470 4.66303
475 4.19469
480 4.00316
485 3.97255
490 4.00917
495 3.83865
500 3.77824
505 3.49169
510 3.36106
515 3.1104
520 3.19819
525 3.06298
530 2.98735
535 3.09141
540 2.78077
545 2.84362
550 2.7931
555 2.85778
560 2.50644
565 2.7859
570 2.62418
575 2.47772
580 2.27914
585 2.60443
590 2.66816
595 2.44451
600 2.07857
Ex : 353
200 0.914133
205 0.947541
210 0.85575
215 0.917739
220 0.795528
225 0.850295
230 0.926962
235 0.960957
240 0.985327
245 0.993876
250 0.884064
255 0.804606
260 0.95181
265 1.17196
270 1.33033
275 1.2989
280 1.47268
285 1.47203
290 1.6678
295 1.83748
300 2.02556
305 2.48779
310 2.76828
315 3.54122
320 4.30477
325 5.84869
330 8.65219
335 15.1336
340 535.988
345 8396.81
350 9999.9
355 2710.03
360 332.913
365 52.8863
370 16.4037
375 10.6344
380 8.68901
385 9.47782
390 11.6089
395 11.7638
400 9.57743
405 7.29279
410 6.132
415 5.79415
420 5.83063
425 5.66292
430 5.30698
435 5.16881
440 5.04599
445 5.24205
450 4.92745
455 4.83848
460 4.64511
465 4.79368
470 4.39933
475 4.25309
480 3.9209
485 3.99722
490 4.04233
495 3.88247
500 3.81277
505 3.37339
510 3.27741
515 3.23701
520 3.1169
525 2.84774
530 2.97634
535 2.73833
540 2.71533
545 2.50515
550 2.66189
555 2.76775
560 2.49356
565 2.63141
570 2.28752
575 2.32456
580 2.22573
585 2.10659
590 2.08987
595 2.28379
600 2.97063
Ex : 358
200 0.809809
205 0.704097
210 0.747821
215 0.860829
220 0.952638
225 0.840771
230 0.843706
235 0.782431
240 1.0256
245 0.978227
250 1.00451
255 0.932351
260 1.00089
265 1.27772
270 1.11038
275 1.22485
280 1.29661
285 1.3079
290 1.59424
295 1.80839
300 1.79581
305 1.92655
310 2.45297
315 2.73678
320 3.38936
325 4.33805
330 5.85046
335 8.59947
340 15.4658
345 526.226
350 8268.34
355 9999.9
360 2808.89
365 344.524
370 54.5453
375 16.9632
380 11.013
385 8.79495
390 8.64189
395 11.0008
400 12.2035
405 10.7822
410 7.89533
415 6.47743
420 5.95886
425 5.79658
430 5.34917
435 5.22241
440 5.17283
445 5.04683
450 4.84603
455 4.83377
460 4.75686
465 4.96028
470 4.48974
475 4.31465
480 4.14331
485 3.8667
490 3.97271
495 3.8595
500 3.52203
505 3.48956
510 3.29969
515 2.94464
520 2.94359
525 2.7736
530 2.85462
535 2.65178
540 2.60311
545 2.83278
550 2.60254
555 2.64402
560 2.46585
565 2.506
570 2.40054
575 2.26241
580 1.9724
585 2.03458
590 1.99307
595 1.88939
600 1.95132
Ex : 363
200 0.724826
205 0.788484
210 0.900865
215 0.862131
220 0.707884
225 0.742442
230 0.869247
235 0.763638
240 0.943196
245 0.856733
250 0.874403
255 0.793607
260 0.990772
265 1.02267
270 1.04013
275 1.02776
280 1.16186
285 1.23372
290 1.37158
295 1.38995
300 1.61913
305 1.69449
310 2.21245
315 2.25753
320 2.66337
325 3.2526
330 4.4576
335 6.17564
340 8.86035
345 15.232
350 484.693
355 8147
360 9999.9
365 2946.5
370 362.129
375 56.2097
380 17.1271
385 10.7105
390 8.82975
395 7.92618
400 9.95719
405 11.2823
410 10.6642
415 8.61569
420 6.53646
425 5.60839
430 5.53865
435 5.30489
440 5.30235
445 5.20792
450 5.01743
455 5.05367
460 4.59105
465 4.42805
470 4.62482
475 4.283
480 3.96888
485 3.8917
490 3.72955
495 3.79207
500 3.37293
505 3.33859
510 3.07846
515 2.92446
520 3.08424
525 2.98082
530 2.6754
535 2.52543
540 2.45346
545 2.44406
550 2.30326
555 2.28246
560 2.16966
565 2.06873
570 2.0925
575 1.9296
580 2.02824
585 1.87169
590 1.83594
595 1.84012
600 1.55748
Ex : 368
200 0.807488
205 0.84899
210 0.808177
215 0.751915
220 0.67425
225 0.77219
230 0.848069
235 0.787253
240 0.897951
245 0.908909
250 0.887429
255 0.918415
260 0.856315
265 0.951035
270 0.86877
275 0.983369
280 1.0903
285 1.18057
290 1.25706
295 1.44247
300 1.48008
305 1.74554
310 1.79269
315 1.90013
320 2.38431
325 2.74081
330 3.48391
335 4.50205
340 6.01909
345 8.9716
350 15.1663
355 411.714
360 8261.68
365 9999.9
370 3274.16
375 401.225
380 61.7285
385 18.3916
390 11.3037
395 9.1841
400 7.90149
405 9.1081
410 11.3427
415 10.5106
420 8.93654
425 7.00886
430 5.88034
435 5.57479
440 5.36165
445 5.08366
450 5.17955
455 5.10094
460 5.01983
465 4.85527
470 4.43845
475 4.24918
480 3.86111
485 3.92843
490 3.53026
495 3.61789
500 3.33781
505 3.20515
510 3.21221
515 2.83051
520 2.82016
525 2.4734
530 2.40461
535 2.50693
540 2.20457
545 2.20333
550 2.32502
555 2.2865
560 2.14517
565 2.06199
570 2.10792
575 1.87032
580 1.7754
585 1.77233
590 1.64959
595 1.7152
600 3.19491
Ex : 373
200 0.628298
205 0.802017
210 0.675976
215 0.725533
220 0.804351
225 0.710145
230 0.814959
235 0.832301
240 0.77014
245 0.919226
250 0.872514
255 0.99577
260 0.911332
265 1.00709
270 0.93159
275 0.935085
280 1.07595
285 1.19164
290 1.19303
295 1.44252
300 1.46278
305 1.46895
310 1.73497
315 1.96984
320 2.2396
325 2.5121
330 2.84175
335 3.502
340 4.52719
345 6.34729
350 9.80606
355 16.2782
360 523.687
365 9009.15
370 9999.9
375 3279.81
380 400.728
385 61.9231
390 18.6866
395 11.1821
400 9.0528
405 7.51898
410 8.46814
415 10.5988
420 10.8315
425 9.39896
430 7.08383
435 5.86579
440 5.56094
445 5.33994
450 4.9227
455 4.78291
460 4.69784
465 4.5097
470 4.33805
475 4.13457
480 4.11636
485 3.84416
490 3.37437
495 3.40036
500 3.24211
505 2.96488
510 3.0752
515 2.77107
520 2.73107
525 2.52286
530 2.59904
535 2.36178
540 2.23051
545 2.23545
550 2.08229
555 2.04036
560 1.91339
565 1.75316
570 1.91268
575 1.73395
580 1.6789
585 1.69597
590 1.60771
595 1.55754
600 0.976168
Ex : 378
200 0.742268
205 0.676339
210 0.706092
215 0.844635
220 0.779154
225 0.711005
230 0.78006
235 0.801367
240 0.772472
245 0.773704
250 0.928779
255 0.871203
260 0.884842
265 0.866306
270 1.09695
275 0.945774
280 1.0988
285 1.06009
290 1.13766
295 1.28455
300 1.36976
305 1.43551
310 1.43864
315 1.7394
320 1.93729
325 2.37721
330 2.80039
335 3.11301
340 3.87242
345 4.60376
350 6.45428
355 9.52658
360 16.6247
365 521.174
370 9382.16
375 9999.9
380 3269.46
385 400.349
390 61.8866
395 18.6758
400 11.4064
405 8.74513
410 7.35494
415 7.58995
420 9.48584
425 10.1912
430 9.3558
435 7.45585
440 5.81481
445 5.30247
450 5.23947
455 5.16679
460 4.80805
465 4.57185
470 4.37025
475 4.33181
480 4.04263
485 3.72323
490 3.56441
495 3.36396
500 3.39123
505 3.14958
510 2.82476
515 2.66563
520 2.60616
525 2.63638
530 2.31728
535 2.46084
540 2.1754
545 2.01181
550 1.94618
555 1.85664
560 1.85956
565 1.93999
570 1.69379
575 1.69224
580 1.50433
585 1.6183
590 1.49141
595 1.36141
600 0.480077
Ex : 383
200 0.670154
205 0.638386
210 0.707583
215 0.753744
220 0.745827
225 0.810565
230 0.778843
235 0.741714
240 0.781897
245 0.722386
250 0.847496
255 0.834969
260 0.831502
265 1.04305
270 0.944371
275 1.02152
280 0.99448
285 0.992175
290 1.16797
295 1.23872
300 1.23252
305 1.36999
310 1.30734
315 1.5301
320 1.70538
325 1.91944
330 2.13407
335 2.58198
340 3.22254
345 3.8641
350 5.02963
355 6.72339
360 9.73346
365 16.7697
370 489.976
375 9406.6
380 9999.9
385 3547.65
390 434.248
395 65.8917
400 19.2878
405 11.7783
410 9.12207
415 7.56976
420 7.16271
425 8.90162
430 9.69739
435 9.70932
440 8.21655
445 6.29115
450 5.20794
455 5.0633
460 5.125
465 4.66648
470 4.13438
475 4.26186
480 3.91829
485 3.78916
490 3.62346
495 3.42211
500 3.24592
505 3.30841
510 3.06349
515 2.81035
520 2.64488
525 2.34703
530 2.41213
535 2.37315
540 2.1888
545 2.21889
550 2.02754
555 1.99056
560 1.77986
565 1.73961
570 1.6095
575 1.64246
580 1.57773
585 1.3996
590 1.38911
595 1.37705
600 2.41333
Ex : 388
200 0.747425
205 0.734047
210 0.703206
215 0.723094
220 0.659581
225 0.695869
230 0.723408
235 0.752912
240 0.758813
245 0.791933
250 0.818352
255 0.896915
260 0.929316
265 0.874738
270 0.841968
275 1.07349
280 1.02147
285 1.11102
290 1.175
295 1.17338
300 1.18373
305 1.29295
310 1.40615
315 1.49515
320 1.70409
325 1.84286
330 2.05716
335 2.38776
340 2.75771
345 3.36848
350 4.188
355 5.21676
360 6.99161
365 10.2117
370 17.1166
375 542.815
380 9925.53
385 9999.9
390 3546.99
395 433.692
400 66.0795
405 19.267
410 11.8239
415 9.06528
420 7.40559
425 6.8077
430 8.00035
435 9.41886
440 9.3973
445 8.56499
450 6.4666
455 5.35898
460 5.03222
465 5.0519
470 4.72812
475 4.38255
480 3.94058
485 3.76198
490 3.58134
495 3.41153
500 3.23119
505 3.07714
510 2.9587
515 2.87672
520 2.55579
525 2.34335
530 2.31809
535 2.21621
540 2.28435
545 2.18456
550 2.11995
555 1.88117
560 1.78157
565 1.80757
570 1.68955
575 1.48663
580 1.63109
585 1.49107
590 1.43285
595 1.41947
600 0.926215
Ex : 393
200 0.711287
205 0.689457
210 0.725983
215 0.646982
220 0.853625
225 0.788467
230 0.824343
235 0.801158
240 0.813607
245 0.884735
250 0.838073
255 0.768625
260 0.903173
265 0.90094
270 0.836344
275 0.826962
280 0.919191
285 1.04499
290 1.10478
295 1.12833
300 1.23311
305 1.30726
310 1.46684
315 1.56904
320 1.72971
325 1.75578
330 2.01594
335 2.05303
340 2.56741
345 2.71812
350 3.30296
355 4.17233
360 5.16781
365 7.19409
370 10.2545
375 17.746
380 504.249
385 9999.9
390 9999.9
395 3804.51
400 464.553
405 70.0539
410 19.8769
415 11.9784
420 9.47452
425 7.06784
430 6.72073
435 7.39799
440 9.09451
445 8.99844
450 8.62278
455 6.9643
460 5.6902
465 4.97706
470 4.6464
475 4.40367
480 4.09897
485 3.78208
490 3.76745
495 3.62292
500 3.35436
505 3.00484
510 2.99253
515 2.71402
520 2.5647
525 2.54216
530 2.3275
535 2.1555
540 2.18273
545 2.08897
550 2.04603
555 1.9183
560 1.75507
565 1.71444
570 1.70421
575 1.6131
580 1.51528
585 1.41787
590 1.33686
595 1.35978
600 0.676365
Ex : 398
200 0.674742
205 0.691464
210 0.77488
215 0.748454
220 0.804927
225 0.757969
230 0.716495
235 0.812174
240 0.850486
245 0.825775
250 0.886527
255 0.77783
260 0.928019
265 0.95542
270 0.9222
275 1.03684
280 0.997474
285 0.934518
290 1.06378
295 1.11213
300 1.24576
305 1.29317
310 1.42584
315 1.50354
320 1.55831
325 1.72933
330 1.81177
335 2.08602
340 2.2465
345 2.48348
350 3.07219
355 3.46918
360 4.4178
365 5.25362
370 7.45552
375 10.6138
380 18.282
385 548.482
390 9999.9
395 9999.9
400 3901.2
405 475.423
410 71.3654
415 19.9374
420 11.8329
425 8.72397
430 6.98212
435 6.41519
440 6.89158
445 8.77355
450 8.71099
455 8.94005
460 7.36861
465 5.82645
470 4.85174
475 4.42252
480 4.14196
485 3.9489
490 3.66472
495 3.42497
500 3.32864
505 2.99368
510 2.8729
515 2.71954
520 2.54538
525 2.54017
530 2.425
535 2.2889
540 2.14721
545 2.10028
550 2.00824
555 1.95134
560 1.93488
565 1.80735
570 1.60483
575 1.62895
580 1.54496
585 1.23878
590 1.39195
595 1.28561
600 1.34824
Ex : 403
200 0.577786
205 0.65573
210 0.646515
215 0.732692
220 0.77979
225 0.783417
230 0.736303
235 0.723041
240 0.838138
245 0.781724
250 0.857607
255 0.786996
260 0.829317
265 0.886197
270 0.874036
275 1.0002
280 0.962135
285 1.00924
290 1.03195
295 1.08736
300 1.17235
305 1.20978
310 1.22524
315 1.31998
320 1.40221
325 1.68195
330 1.69517
335 1.86516
340 2.03402
345 2.31382
350 2.70231
355 2.98178
360 3.5497
365 4.39791
370 5.8962
375 7.37825
380 10.9758
385 18.6623
390 601.675
395 9999.9
400 9999.9
405 4028.93
410 489.888
415 73.2232
420 20.4555
425 11.4524
430 8.82475
435 7.19031
440 6.68261
445 6.76227
450 7.86244
455 8.7022
460 8.38795
465 7.87979
470 5.80287
475 4.58575
480 4.32191
485 4.02159
490 3.64848
495 3.47049
500 3.38264
505 3.21661
510 2.82321
515 2.60068
520 2.52048
525 2.50201
530 2.3972
535 2.42531
540 2.26296
545 2.15453
550 2.09082
555 1.99664
560 1.81962
565 1.80071
570 1.63466
575 1.64455
580 1.35166
585 1.41092
590 1.38241
595 1.25735
600 0.767392
Ex : 408
200 0.679109
205 0.692853
210 0.682382
215 0.718449
220 0.817592
225 0.739424
230 0.78327
235 0.758169
240 0.770508
245 0.922105
250 0.84891
255 0.910494
260 0.872858
265 0.906392
270 0.805525
275 0.846627
280 0.857075
285 1.03513
290 1.00027
295 1.22254
300 1.1537
305 1.13584
310 1.2389
315 1.34467
320 1.34191
325 1.40033
330 1.52917
335 1.78453
340 1.89394
345 2.24038
350 2.40972
355 2.67545
360 3.04837
365 3.6128
370 4.59062
375 5.63929
380 7.79161
385 11.7966
390 20.2364
395 600.082
400 9999.9
405 9999.9
410 3978.97
415 484.55
420 72.1535
425 19.7768
430 11.3692
435 8.98979
440 6.98803
445 6.31536
450 6.39387
455 7.48001
460 8.6373
465 8.38194
470 7.50281
475 5.77892
480 4.68965
485 4.15728
490 3.94063
495 3.74983
500 3.4028
505 3.05735
510 2.92941
515 2.85885
520 2.74574
525 2.44011
530 2.35234
535 2.34596
540 2.31472
545 2.03681
550 2.05351
555 1.88829
560 2.01827
565 1.74487
570 1.69945
575 1.49873
580 1.40626
585 1.32591
590 1.30538
595 1.20025
600 1.04855
Ex : 413
200 0.70167
205 0.748012
210 0.720273
215 0.731586
220 0.684673
225 0.730718
230 0.751768
235 0.678015
240 0.754757
245 0.763133
250 0.754906
255 0.865476
260 0.775393
265 0.898366
270 0.875497
275 0.924951
280 0.914691
285 0.96187
290 1.13848
295 1.01699
300 1.03609
305 1.14185
310 1.23612
315 1.37697
320 1.50029
325 1.48598
330 1.52627
335 1.766
340 1.77941
345 2.05311
350 2.31132
355 2.51961
360 2.95958
365 3.1937
370 3.75609
375 4.82338
380 5.93973
385 8.27935
390 12.531
395 21.4776
400 705.039
405 9999.9
410 9999.9
415 3963.26
420 481.754
425 72.0861
430 20.0778
435 12.293
440 9.30736
445 7.5705
450 6.64955
455 6.31965
460 7.02648
465 8.44809
470 8.12418
475 7.46814
480 6.16952
485 4.94704
490 4.17142
495 3.70548
500 3.38534
505 3.31806
510 3.09855
515 2.97913
520 2.89872
525 2.62244
530 2.38736
535 2.34982
540 2.146
545 2.16293
550 2.14719
555 2.09365
560 1.91685
565 1.85469
570 1.67658
575 1.54483
580 1.49542
585 1.34275
590 1.42685
595 1.22488
600 0.787391
Ex : 418
200 0.717357
205 0.733482
210 0.685356
215 0.682452
220 0.807119
225 0.75262
230 0.755705
235 0.793405
240 0.773598
245 0.76606
250 0.813537
255 0.824712
260 0.848481
265 1.03196
270 0.866947
275 0.876328
280 0.983863
285 0.952359
290 0.962996
295 1.01705
300 1.05834
305 1.11144
310 1.26149
315 1.34773
320 1.33804
325 1.43385
330 1.61639
335 1.55945
340 1.90129
345 1.92346
350 1.92547
355 2.2466
360 2.36971
365 2.90334
370 3.20035
375 4.08422
380 4.75289
385 6.47524
390 8.82579
395 12.7921
400 21.0594
405 664.81
410 9999.9
415 9999.9
420 4131.98
425 501.435
430 74.5115
435 20.5283
440 11.8368
445 9.17828
450 7.24022
455 6.2954
460 6.00806
465 6.48465
470 7.7898
475 7.6609
480 7.21244
485 6.42948
490 4.84694
495 3.96137
500 3.62877
505 3.28404
510 3.23517
515 2.9961
520 2.64632
525 2.4955
530 2.40156
535 2.35553
540 2.41695
545 2.14337
550 1.96725
555 2.06001
560 1.91409
565 1.68559
570 1.65922
575 1.50696
580 1.4548
585 1.31648
590 1.28795
595 1.18575
600 1.51347
Ex : 423
200 0.683281
205 0.652922
210 0.802974
215 0.6971
220 0.648895
225 0.700976
230 0.677154
235 0.801907
240 0.709244
245 0.784517
250 0.772729
255 0.766405
260 0.887856
265 0.869281
270 0.890578
275 0.995717
280 0.927619
285 0.914239
290 0.986649
295 1.0682
300 1.07388
305 1.10321
310 1.21779
315 1.14585
320 1.24201
325 1.35316
330 1.53907
335 1.57771
340 1.6141
345 1.80995
350 1.85125
355 2.12258
360 2.33785
365 2.80265
370 3.15351
375 3.25113
380 4.02362
385 5.1878
390 6.86313
395 9.15164
400 13.3183
405 22.136
410 705.999
415 9999.9
420 9999.9
425 3865.45
430 471.343
435 71.2674
440 20.2504
445 12.558
450 9.76365
455 7.49677
460 6.72203
465 6.25225
470 5.99543
475 7.01282
480 7.21613
485 6.7263
490 6.38622
495 5.00095
500 4.02786
505 3.37348
510 3.19358
515 2.84548
520 2.92129
525 2.65169
530 2.51363
535 2.33128
540 2.40286
545 2.2012
550 2.10161
555 2.01603
560 1.76505
565 1.76034
570 1.61937
575 1.58181
580 1.39316
585 1.39429
590 1.29964
595 1.34343
600 1.02646
Ex : 428
200 0.738423
205 0.638373
210 0.739329
215 0.778858
220 0.749691
225 0.748383
230 0.740459
235 0.751326
240 0.687018
245 0.709717
250 0.776347
255 0.758588
260 0.830904
265 0.900976
270 0.852097
275 0.891189
280 0.933942
285 0.908821
290 0.913247
295 0.965279
300 0.925469
305 1.074
310 1.18493
315 1.15562
320 1.25508
325 1.25791
330 1.2996
335 1.43015
340 1.514
345 1.76361
350 1.85178
355 2.01117
360 2.20198
365 2.51438
370 2.85494
375 3.08423
380 3.56796
385 4.04634
390 5.42601
395 7.0094
400 9.13629
405 13.8061
410 22.9746
415 766.126
420 9999.9
425 9999.9
430 4242.42
435 515.442
440 76.3002
445 21.5753
450 13.0255
455 10.022
460 7.63539
465 6.76907
470 6.20555
475 5.85552
480 6.55467
485 7.01005
490 6.6711
495 6.39403
500 5.14596
505 3.83339
510 3.38074
515 3.15765
520 2.89776
525 2.74219
530 2.43711
535 2.47196
540 2.3359
545 2.29987
550 2.11795
555 2.00613
560 1.94314
565 1.86214
570 1.62127
575 1.64287
580 1.57333
585 1.43411
590 1.34304
595 1.30489
600 0.931348
Ex : 433
200 0.759131
205 0.72102
210 0.703113
215 0.694103
220 0.698461
225 0.769152
230 0.882056
235 0.821795
240 0.742168
245 0.820511
250 0.837944
255 0.772851
260 0.763814
265 0.877115
270 0.838316
275 0.91123
280 0.964535
285 0.879741
290 0.986818
295 0.941319
300 0.98309
305 1.0497
310 1.08241
315 1.14209
320 1.17761
325 1.28935
330 1.40676
335 1.46853
340 1.50908
345 1.76199
350 1.79707
355 1.82548
360 2.10167
365 2.33136
370 2.59425
375 2.70481
380 3.23614
385 3.80644
390 4.38261
395 5.53962
400 7.12181
405 9.80555
410 14.4182
415 23.8132
420 832.955
425 9999.9
430 9999.9
435 4046.66
440 491.69
445 74.5727
450 21.5739
455 12.7181
460 9.9964
465 7.75856
470 6.62191
475 5.90151
480 5.71468
485 6.0083
490 6.62337
495 6.45132
500 5.98257
505 5.21181
510 4.11532
515 3.23988
520 3.03238
525 2.68833
530 2.59746
535 2.47301
540 2.3124
545 2.20778
550 2.06013
555 1.95759
560 1.92354
565 1.77904
570 1.73419
575 1.65414
580 1.52222
585 1.36715
590 1.33777
595 1.29088
600 1.90357
Ex : 438
200 0.772524
205 0.674203
210 0.763504
215 0.750209
220 0.73056
225 0.765904
230 0.723769
235 0.802037
240 0.731939
245 0.710731
250 0.721478
255 0.789711
260 0.648896
265 0.75186
270 0.768171
275 0.834987
280 1.01704
285 1.05664
290 1.08815
295 1.09089
300 1.0389
305 0.961109
310 1.09221
315 1.07128
320 1.22806
325 1.27535
330 1.31462
335 1.39103
340 1.6199
345 1.45992
350 1.62083
355 1.88854
360 1.97363
365 2.1375
370 2.51202
375 2.62785
380 3.04819
385 3.3622
390 3.8715
395 4.53429
400 5.67905
405 7.63642
410 9.99041
415 14.3909
420 23.6061
425 795.554
430 9999.9
435 9999.9
440 4185.94
445 509.06
450 77.0098
455 21.8417
460 12.9744
465 10.2784
470 7.58344
475 6.38076
480 5.91427
485 5.32561
490 5.43416
495 6.45709
500 6.31508
505 5.91054
510 5.30894
515 4.32474
520 3.35916
525 2.93192
530 2.67596
535 2.49769
540 2.35425
545 2.32805
550 2.35213
555 2.09956
560 2.02096
565 1.79047
570 1.70756
575 1.5772
580 1.54906
585 1.40133
590 1.32593
595 1.25415
600 1.40686
Ex : 443
200 0.753452
205 0.783289
210 0.767222
215 0.708803
220 0.77295
225 0.645314
230 0.800836
235 0.772159
240 0.77723
245 0.828865
250 0.72601
255 0.770726
260 0.797461
265 0.770327
270 0.872165
275 0.839615
280 0.914709
285 0.98583
290 1.09139
295 1.04159
300 0.989522
305 1.03613
310 1.18579
315 1.08731
320 1.26896
325 1.32523
330 1.36469
335 1.43955
340 1.60344
345 1.53107
350 1.65328
355 1.81593
360 1.86833
365 2.00104
370 2.29816
375 2.39005
380 2.67495
385 3.01897
390 3.52329
395 4.24164
400 4.92373
405 5.67338
410 7.6148
415 10.1976
420 15.0973
425 24.7317
430 901.09
435 9999.9
440 9999.9
445 4207.87
450 512.038
455 77.778
460 22.8
465 14.074
470 10.3857
475 7.70526
480 6.19077
485 5.63747
490 5.489
495 5.01285
500 5.81575
505 6.24242
510 5.38363
515 5.21833
520 4.33449
525 3.62154
530 2.97727
535 2.67868
540 2.53469
545 2.37235
550 2.29994
555 2.006
560 1.84455
565 1.79457
570 1.825
575 1.79772
580 1.46986
585 1.52139
590 1.33826
595 1.16948
600 1.54043
Ex : 448
200 0.745358
205 0.75192
210 0.786192
215 0.716922
220 0.69593
225 0.705806
230 0.697301
235 0.761299
240 0.740835
245 0.775323
250 0.765814
255 0.83947
260 0.831575
265 0.731774
270 0.821556
275 0.874108
280 0.954903
285 0.953009
290 1.01461
295 1.13013
300 0.98467
305 1.03293
310 0.979199
315 1.08695
320 1.23327
325 1.18025
330 1.35826
335 1.45969
340 1.50318
345 1.51993
350 1.54192
355 1.81901
360 1.79991
365 1.95669
370 2.16321
375 2.34453
380 2.54482
385 2.96259
390 3.19172
395 3.76517
400 4.20336
405 4.97182
410 6.16176
415 7.75809
420 10.4203
425 15.3556
430 25.1814
435 922.076
440 9999.9
445 9999.9
450 4129.58
455 502.335
460 76.9967
465 23.2102
470 13.6894
475 9.25401
480 7.23402
485 6.1542
490 5.57873
495 4.96003
500 4.93205
505 5.29241
510 5.90071
515 5.3159
520 4.96085
525 4.61135
530 3.69266
535 2.80279
540 2.68565
545 2.36941
550 2.29853
555 2.21747
560 2.0255
565 1.82368
570 1.79891
575 1.65475
580 1.54757
585 1.34992
590 1.37485
595 1.3794
600 1.10277
Ex : 453
200 0.624229
205 0.725001
210 0.743047
215 0.758198
220 0.73421
225 0.765352
230 0.750521
235 0.714624
240 0.716261
245 0.835427
250 0.767384
255 0.77325
260 0.743899
265 0.778011
270 0.899395
275 0.902056
280 0.822755
285 0.974131
290 0.944174
295 0.985906
300 0.975377
305 1.10683
310 1.05668
315 1.13669
320 1.14582
325 1.09919
330 1.23532
335 1.3155
340 1.32068
345 1.58226
350 1.57336
355 1.83476
360 1.69781
365 1.82765
370 2.02256
375 2.3198
380 2.39186
385 2.54407
390 2.85841
395 3.30286
400 3.76677
405 4.20897
410 4.99799
415 5.78999
420 7.40328
425 10.0721
430 14.8135
435 24.4274
440 954.508
445 9999.9
450 9999.9
455 4006.65
460 489.4
465 76.3676
470 22.6292
475 12.5008
480 9.16981
485 7.01775
490 5.77783
495 5.23159
500 5.10255
505 4.68852
510 4.91014
515 5.51651
520 5.44555
525 4.74503
530 4.46668
535 3.86921
540 2.93524
545 2.76822
550 2.47435
555 2.20256
560 2.02622
565 1.91235
570 1.75009
575 1.60088
580 1.60831
585 1.40038
590 1.3744
595 1.2684
600 1.73451
Ex : 458
200 0.683041
205 0.706806
210 0.776944
215 0.735345
220 0.833745
225 0.831437
230 0.826285
235 0.821838
240 0.803502
245 0.902294
250 0.885711
255 0.726793
260 0.915413
265 0.946676
270 0.866968
275 0.851246
280 0.865423
285 0.927976
290 0.878247
295 1.02609
300 1.12503
305 1.08898
310 1.13941
315 1.18179
320 1.16117
325 1.18187
330 1.27671
335 1.47192
340 1.43883
345 1.56999
350 1.53469
355 1.7224
360 1.85047
365 1.9079
370 1.84354
375 2.1096
380 2.47425
385 2.57809
390 2.73546
395 3.0178
400 3.38949
405 3.81129
410 4.43173
415 5.14168
420 6.07289
425 7.85143
430 10.1791
435 15.196
440 25.6233
445 1055.71
450 9999.9
455 9999.9
460 4270.85
465 522.517
470 79.9452
475 22.2958
480 12.7929
485 9.30172
490 6.83201
495 5.6768
500 5.33859
505 5.16798
510 4.63583
515 4.67635
520 5.14025
525 5.25701
530 4.6496
535 4.44888
540 3.91822
545 3.08622
550 2.68968
555 2.32046
560 2.22347
565 2.10076
570 1.98306
575 1.75893
580 1.72436
585 1.61054
590 1.51423
595 1.41242
600 1.50558
Ex : 463
200 0.747943
205 0.774633
210 0.737878
215 0.660393
220 0.700524
225 0.773046
230 0.778241
235 0.741802
240 0.806793
245 0.777675
250 0.728844
255 0.812384
260 0.78831
265 0.832094
270 0.912971
275 0.835711
280 0.903676
285 0.982545
290 0.954526
295 0.924186
300 1.01623
305 1.13366
310 1.12001
315 1.312
320 1.16243
325 1.16052
330 1.22247
335 1.38518
340 1.35181
345 1.42203
350 1.44729
355 1.57251
360 1.6309
365 1.89912
370 1.98299
375 2.1366
380 2.30854
385 2.45139
390 2.68176
395 3.04087
400 3.1729
405 3.40176
410 3.84484
415 4.37425
420 5.14106
425 6.29516
430 7.72499
435 10.4884
440 15.5898
445 26.7065
450 1050.98
455 9999.9
460 9999.9
465 4533.4
470 552.424
475 81.9449
480 22.4209
485 12.69
490 9.31346
495 6.99606
500 5.93952
505 5.21512
510 5.17167
515 4.85142
520 4.53966
525 4.69723
530 5.23419
535 4.49866
540 4.25194
545 3.75164
550 3.55789
555 2.77483
560 2.3833
565 2.10581
570 1.94681
575 1.95856
580 1.66966
585 1.51199
590 1.57198
595 1.33156
600 1.69556
Ex : 468
200 0.841042
205 0.816732
210 0.816835
215 0.695384
220 0.836491
225 0.89932
230 0.986082
235 0.899791
240 0.841751
245 0.78732
250 0.712691
255 0.810611
260 0.943566
265 0.836125
270 0.798986
275 0.871177
280 0.935967
285 0.959656
290 0.903836
295 1.04058
300 1.11283
305 1.20285
310 1.02827
315 1.1156
320 1.3046
325 1.23483
330 1.20801
335 1.25076
340 1.41537
345 1.46094
350 1.41527
355 1.53324
360 1.64975
365 1.70452
370 1.79408
375 1.94279
380 2.1325
385 2.20801
390 2.49051
395 2.77273
400 2.8228
405 3.19041
410 3.44375
415 3.63774
420 4.29643
425 4.97708
430 5.78247
435 7.77519
440 10.1294
445 15.2782
450 24.96
455 1104.58
460 9999.9
465 9999.9
470 4628.79
475 557.259
480 81.1812
485 21.3405
490 12.1722
495 8.6288
500 6.57043
505 5.32358
510 4.96706
515 4.74352
520 4.59829
525 4.31642
530 4.37427
535 4.83545
540 4.70828
545 3.9407
550 3.72044
555 3.59875
560 2.77691
565 2.30721
570 2.17639
575 1.80094
580 1.7748
585 1.67766
590 1.57489
595 1.48736
600 1.5531
Ex : 473
200 0.836943
205 0.761113
210 0.83896
215 0.760676
220 0.815125
225 0.826991
230 1.13984
235 0.994416
240 0.84176
245 0.817124
250 0.84334
255 0.910622
260 0.888936
265 0.850359
270 0.888472
275 0.949651
280 0.932367
285 1.07396
290 0.950915
295 0.928357
300 0.949202
305 1.14409
310 1.07006
315 1.20795
320 1.21092
325 1.27659
330 1.31271
335 1.25367
340 1.40771
345 1.46669
350 1.48584
355 1.48521
360 1.73661
365 1.78045
370 1.7676
375 1.87828
380 2.07751
385 2.24039
390 2.41249
395 2.69457
400 2.72126
405 3.04556
410 3.22047
415 3.66067
420 3.74905
425 4.52736
430 5.10546
435 6.27696
440 7.74523
445 11.0551
450 15.7751
455 27.1388
460 1211.35
465 9999.9
470 9999.9
475 4616.3
480 557.957
485 81.6638
490 22.065
495 12.3353
500 9.03826
505 6.86845
510 5.61009
515 5.0935
520 5.02861
525 4.83499
530 4.17419
535 4.00541
540 4.12582
545 4.54023
550 3.7008
555 3.64678
560 3.42566
565 2.83971
570 2.18405
575 2.0167
580 1.82478
585 1.82199
590 1.57416
595 1.51395
600 1.02998
Ex : 478
200 0.819604
205 0.913794
210 0.852468
215 0.846934
220 0.898072
225 0.850229
230 1.01241
235 1.31247
240 0.965534
245 0.934269
250 0.982089
255 0.876154
260 0.984626
265 1.01877
270 0.989039
275 0.934408
280 0.89099
285 0.998634
290 0.973956
295 1.0281
300 1.01098
305 1.13803
310 1.10867
315 1.40043
320 1.27144
325 1.26799
330 1.44701
335 1.50142
340 1.53209
345 1.54351
350 1.57319
355 1.60923
360 1.71461
365 1.76684
370 1.72739
375 1.86497
380 2.04869
385 2.21725
390 2.67004
395 2.80964
400 2.81428
405 3.00062
410 3.32037
415 3.37179
420 3.87773
425 4.47012
430 4.88823
435 5.86271
440 6.739
445 9.05356
450 12.4029
455 18.2986
460 32.2149
465 1345.48
470 9999.9
475 9999.9
480 4594.29
485 556.812
490 82.6686
495 22.256
500 12.7526
505 9.19864
510 7.02583
515 5.81885
520 5.15184
525 5.26069
530 4.91446
535 4.4591
540 4.2116
545 4.24725
550 4.4409
555 3.89225
560 3.67559
565 3.40366
570 3.02757
575 2.2501
580 2.06432
585 1.88243
590 1.68608
595 1.59036
600 1.47206
Ex : 483
200 0.900843
205 0.78725
210 0.904392
215 0.869054
220 0.937489
225 0.858279
230 0.909907
235 1.28008
240 1.07713
245 0.940236
250 0.848994
255 0.971678
260 0.815826
265 1.00524
270 1.00285
275 0.968194
280 0.99549
285 0.867311
290 1.06375
295 1.14796
300 1.06826
305 1.21371
310 1.11748
315 1.05621
320 1.3211
325 1.23352
330 1.38802
335 1.5267
340 1.47082
345 1.46334
350 1.60546
355 1.59752
360 1.71812
365 1.87139
370 1.94974
375 2.0583
380 2.08892
385 2.13634
390 2.4915
395 2.68315
400 2.47658
405 2.83038
410 3.13304
415 3.40309
420 3.54617
425 3.90476
430 4.26373
435 4.85955
440 5.66235
445 7.30742
450 9.14343
455 12.5116
460 19.1245
465 32.7782
470 1075.81
475 9999.9
480 9999.9
485 4697.97
490 567.916
495 83.0069
500 22.0063
505 12.6376
510 9.06142
515 6.66077
520 5.49427
525 4.996
530 4.92655
535 4.54066
540 4.09142
545 3.99475
550 3.84823
555 4.17248
560 3.92206
565 3.33194
570 3.17469
575 2.85099
580 2.5464
585 1.98246
590 1.77044
595 1.58695
600 1.60024
Ex : 488
200 0.749288
205 0.820384
210 0.825315
215 0.803403
220 0.805573
225 0.786382
230 0.950686
235 1.2044
240 1.62361
245 1.07314
250 0.911005
255 0.792185
260 0.957859
265 0.909952
270 0.960754
275 0.856017
280 0.858357
285 0.953096
290 0.996526
295 1.077
300 1.06014
305 1.0475
310 1.15906
315 1.07074
320 1.17709
325 1.15637
330 1.25078
335 1.41292
340 1.47371
345 1.46291
350 1.41027
355 1.52844
360 1.6431
365 1.67646
370 1.97932
375 1.89335
380 2.1788
385 2.0924
390 2.3839
395 2.57853
400 2.70252
405 2.65818
410 3.00459
415 3.181
420 3.2787
425 3.63544
430 3.98993
435 4.661
440 5.2141
445 6.00955
450 7.53019
455 10.1543
460 14.4102
465 21.0041
470 33.2075
475 1266.23
480 9999.9
485 9999.9
490 4549.04
495 550.968
500 81.8564
505 22.2744
510 12.707
515 9.09935
520 6.92864
525 6.01738
530 5.2869
535 5.22325
540 4.62697
545 4.25257
550 3.74651
555 3.56723
560 3.94941
565 3.89701
570 3.21091
575 2.73405
580 2.63958
585 2.23333
590 1.77036
595 1.75806
600 1.34474
Ex : 493
200 0.856535
205 0.857235
210 0.867409
215 0.857412
220 0.950609
225 0.810194
230 0.858962
235 0.934061
240 1.80984
245 1.39516
250 0.918505
255 0.842228
260 0.861142
265 0.945752
270 0.915978
275 0.916489
280 0.982608
285 1.11803
290 1.09182
295 0.951403
300 1.02037
305 1.09233
310 1.10592
315 1.19343
320 1.25707
325 1.22699
330 1.39588
335 1.38645
340 1.51195
345 1.57969
350 1.42618
355 1.55904
360 1.67967
365 1.68189
370 1.7605
375 1.75236
380 1.91537
385 2.07817
390 2.28632
395 2.48456
400 2.59668
405 2.77824
410 2.9026
415 2.89008
420 3.15303
425 3.38595
430 3.89749
435 4.28478
440 4.48591
445 5.54443
450 6.27601
455 7.82619
460 10.4623
465 14.8549
470 20.9238
475 32.0304
480 1244.41
485 9999.9
490 9999.9
495 4604.24
500 556.692
505 82.3829
510 22.4444
515 12.7662
520 9.20971
525 6.59599
530 5.94838
535 5.26577
540 4.99236
545 4.52994
550 4.08439
555 3.96798
560 3.69716
565 3.65954
570 3.5856
575 3.31141
580 2.85667
585 2.48518
590 2.3038
595 1.87958
600 1.18376
Ex : 498
200 0.893333
205 0.837359
210 0.83962
215 0.868673
220 0.855083
225 0.92978
230 0.863347
235 0.987314
240 1.35488
245 1.8448
250 1.08523
255 0.858035
260 0.957117
265 0.878635
270 0.930617
275 1.01445
280 1.07382
285 1.00734
290 0.936124
295 1.04916
300 1.00174
305 1.03407
310 1.20103
315 1.1069
320 1.15229
325 1.30341
330 1.30984
335 1.45226
340 1.46745
345 1.61684
350 1.64269
355 1.46986
360 1.46981
365 1.66732
370 1.73389
375 1.94362
380 1.98624
385 2.08698
390 2.35206
395 2.37414
400 2.62657
405 2.63987
410 2.74591
415 2.85493
420 3.13246
425 3.43865
430 3.86846
435 4.135
440 4.37868
445 4.96016
450 5.6529
455 6.72722
460 8.84919
465 11.3433
470 14.912
475 21.2201
480 33.9401
485 1469.3
490 9999.9
495 9999.9
500 4546.17
505 550.738
510 82.46
515 22.3339
520 13.0669
525 9.52743
530 7.17748
535 5.94581
540 5.2643
545 5.21378
550 4.94505
555 4.57005
560 4.11806
565 3.88187
570 3.31139
575 3.2824
580 3.16958
585 2.65001
590 2.35665
595 2.20208
600 1.92719
Ex : 503
200 0.834963
205 0.873919
210 0.828678
215 0.984379
220 0.945589
225 0.981717
230 0.913959
235 0.879378
240 1.01135
245 1.94455
250 1.51021
255 0.954444
260 1.03439
265 1.00435
270 0.931706
275 0.859175
280 1.07646
285 1.03825
290 0.937754
295 1.10348
300 1.13198
305 1.11918
310 1.09135
315 1.31191
320 1.26561
325 1.33768
330 1.47395
335 1.35128
340 1.38044
345 1.66673
350 1.47246
355 1.70614
360 1.72298
365 1.64216
370 1.77972
375 1.92391
380 2.0946
385 1.96203
390 2.23611
395 2.38896
400 2.48915
405 2.68788
410 2.77733
415 2.81212
420 2.93927
425 3.44635
430 3.52662
435 3.69182
440 4.20661
445 4.78924
450 5.50308
455 6.16046
460 7.27364
465 9.60418
470 11.8577
475 14.71
480 21.6936
485 34.8914
490 1401.91
495 9999.9
500 9999.9
505 4522.07
510 549.297
515 81.5847
520 22.1794
525 12.6123
530 8.89192
535 6.42411
540 5.53293
545 5.33962
550 4.66056
555 4.67668
560 4.16498
565 3.81974
570 3.44441
575 3.08119
580 2.91033
585 2.84868
590 2.52211
595 2.16119
600 1.00085
Ex : 508
200 0.955192
205 0.900003
210 0.76089
215 0.75429
220 0.819339
225 0.81957
230 0.942025
235 0.912218
240 1.03117
245 1.49818
250 2.47724
255 1.4393
260 1.07769
265 0.85762
270 1.06022
275 1.21793
280 1.0579
285 1.06921
290 1.05424
295 0.983661
300 1.09463
305 1.06919
310 1.0782
315 1.17313
320 1.23822
325 1.23535
330 1.23394
335 1.2858
340 1.42133
345 1.45491
350 1.76733
355 1.58391
360 1.67128
365 1.82947
370 1.75297
375 1.80766
380 1.97866
385 1.8455
390 1.9725
395 2.20334
400 2.2846
405 2.35794
410 2.78709
415 2.64247
420 3.09876
425 3.15877
430 3.12511
435 3.5927
440 3.91321
445 4.42103
450 4.93402
455 5.12069
460 6.41777
465 7.52573
470 9.40353
475 11.4075
480 15.422
485 21.6228
490 35.0782
495 1484.63
500 9999.9
505 9999.9
510 5013.81
515 606.327
520 89.0276
525 23.6526
530 13.2839
535 9.59904
540 6.7361
545 5.87138
550 5.34929
555 4.99687
560 4.7537
565 4.40174
570 3.96243
575 3.52203
580 2.88413
585 2.86741
590 2.73313
595 2.54253
600 2.27761
Ex : 513
200 0.811998
205 0.829758
210 0.964452
215 1.03164
220 0.999276
225 0.896106
230 0.966891
235 0.692013
240 0.892736
245 1.07411
250 3.84083
255 3.08887
260 1.13517
265 1.15109
270 1.0202
275 1.07516
280 1.14388
285 1.14018
290 1.28646
295 1.22794
300 1.21446
305 1.18011
310 1.26604
315 1.22375
320 1.26278
325 1.36138
330 1.30067
335 1.28317
340 1.35702
345 1.58324
350 1.57784
355 1.63756
360 1.587
365 1.64974
370 1.6735
375 1.57542
380 1.82083
385 1.95262
390 2.2281
395 2.14874
400 2.29612
405 2.52471
410 2.68582
415 2.97193
420 3.06706
425 2.98048
430 3.26106
435 3.42905
440 3.73149
445 4.22558
450 4.37512
455 4.65776
460 5.75272
465 6.86231
470 7.8819
475 8.99605
480 11.4454
485 15.0266
490 22.5247
495 35.0712
500 1354.95
505 9999.9
510 9999.9
515 5048.12
520 610.383
525 88.9886
530 22.6568
535 13.1597
540 9.24976
545 7.08917
550 5.73616
555 5.27659
560 5.16728
565 4.72068
570 4.17347
575 3.72831
580 3.53306
585 2.94685
590 2.53585
595 2.54606
600 2.45426
Ex : 518
200 0.930569
205 0.902473
210 0.919323
215 0.878753
220 0.92206
225 0.940524
230 0.935911
235 0.87229
240 0.953284
245 1.00505
250 2.92018
255 7.76634
260 2.46277
265 1.0999
270 1.07218
275 1.09527
280 1.12131
285 1.1383
290 1.02677
295 1.18837
300 1.01948
305 1.21527
310 1.14544
315 1.14478
320 1.17767
325 1.29963
330 1.34948
335 1.31856
340 1.39163
345 1.54679
350 1.63273
355 1.53301
360 1.6356
365 1.57213
370 1.70015
375 1.9644
380 1.88608
385 1.75268
390 2.00069
395 2.09417
400 2.37103
405 2.26203
410 2.45545
415 2.54118
420 2.82318
425 2.90273
430 3.145
435 3.15244
440 3.57351
445 3.75931
450 4.07649
455 4.64105
460 5.28634
465 6.35706
470 6.91476
475 7.59715
480 8.917
485 11.2314
490 15.506
495 20.9371
500 33.5114
505 1337.98
510 9999.9
515 9999.9
520 5283.24
525 637.366
530 91.7593
535 23.5472
540 12.802
545 9.44373
550 6.88971
555 5.67404
560 5.24994
565 4.60428
570 4.6109
575 4.1695
580 3.66551
585 3.0449
590 2.84223
595 2.51911
600 1.85988
Ex : 523
200 0.884358
205 0.946725
210 1.05714
215 1.04329
220 1.02459
225 0.869649
230 0.774127
235 0.920385
240 0.865296
245 0.916408
250 1.21939
255 9.34046
260 7.25213
265 1.66623
270 1.15115
275 0.966904
280 1.1039
285 1.11237
290 1.02617
295 1.165
300 1.16083
305 1.39757
310 1.13967
315 1.15064
320 1.33979
325 1.35463
330 1.2771
335 1.34355
340 1.3472
345 1.40464
350 1.43146
355 1.42871
360 1.34859
365 1.59851
370 1.7211
375 1.7961
380 1.88223
385 1.85127
390 2.04476
395 2.0584
400 1.8365
405 2.1677
410 2.34799
415 2.32295
420 2.62509
425 2.77291
430 3.0007
435 3.13373
440 3.44047
445 3.62354
450 3.99562
455 4.42691
460 4.62601
465 5.42131
470 5.9404
475 6.48595
480 7.46188
485 9.23319
490 11.3033
495 14.6644
500 20.6839
505 32.5648
510 1209.18
515 9999.9
520 9999.9
525 5292
530 638.181
535 91.5772
540 22.9867
545 13.0795
550 9.17457
555 6.54159
560 5.66464
565 4.99777
570 4.99123
575 4.25308
580 3.80533
585 3.41618
590 2.89498
595 2.70552
600 2.01309
Ex : 528
200 0.986122
205 1.0318
210 0.887809
215 0.978215
220 0.81088
225 0.877351
230 1.02395
235 0.935468
240 1.03231
245 0.93099
250 0.85396
255 5.22257
260 15.2587
265 3.96088
270 1.52326
275 1.02132
280 0.981179
285 1.07785
290 1.07509
295 1.05299
300 1.1664
305 1.1783
310 1.1156
315 1.27284
320 1.44421
325 1.22272
330 1.29705
335 1.35116
340 1.27609
345 1.43294
350 1.44984
355 1.50542
360 1.56558
365 1.58825
370 1.72948
375 1.7498
380 1.81071
385 1.82589
390 1.74988
395 1.82429
400 2.17682
405 2.298
410 2.22685
415 2.6616
420 2.8024
425 2.60526
430 2.72103
435 3.03674
440 3.51082
445 3.81468
450 3.60853
455 4.00597
460 4.70738
465 4.95642
470 5.6247
475 5.53972
480 6.40806
485 7.39276
490 8.86047
495 10.5144
500 14.2731
505 20.6213
510 32.4598
515 1134.86
520 9999.9
525 9999.9
530 5173.19
535 625.075
540 90.0402
545 22.8586
550 12.8504
555 9.02602
560 6.60727
565 5.59763
570 4.77489
575 4.75223
580 4.43889
585 3.84635
590 3.56872
595 3.16674
600 1.65018
Ex : 533
200 0.881694
205 0.938123
210 0.953581
215 0.969731
220 0.839245
225 0.868699
230 0.892155
235 0.921842
240 0.963968
245 1.00495
250 1.02238
255 1.90359
260 16.825
265 13.0315
270 2.42714
275 1.37406
280 1.01152
285 1.33547
290 1.24076
295 1.14837
300 1.244
305 1.30734
310 1.26777
315 1.32127
320 1.32323
325 1.25219
330 1.30901
335 1.34567
340 1.33282
345 1.52953
350 1.57569
355 1.38973
360 1.50176
365 1.60639
370 1.651
375 1.71509
380 1.75574
385 1.9273
390 1.81066
395 1.92733
400 2.03538
405 2.15728
410 2.26007
415 2.35445
420 2.31134
425 2.47946
430 2.60003
435 2.92485
440 3.11769
445 3.3701
450 3.62547
455 3.93677
460 4.06385
465 4.56372
470 5.09793
475 5.11151
480 5.81548
485 6.61437
490 7.18618
495 8.6435
500 11.1124
505 14.7149
510 20.2285
515 31.921
520 1142.87
525 9999.9
530 9999.9
535 5426.62
540 653.941
545 93.7966
550 23.6149
555 12.9196
560 8.92697
565 6.53382
570 5.54235
575 5.02693
580 4.40358
585 4.48397
590 3.86111
595 3.34218
600 2.87249
Ex : 538
200 1.06707
205 0.977647
210 0.934067
215 0.963717
220 1.03644
225 0.890111
230 0.934885
235 0.953697
240 1.03527
245 0.896903
250 0.983513
255 1.09924
260 9.04732
265 28.2852
270 7.32854
275 1.89849
280 1.10755
285 1.24702
290 1.21952
295 1.2202
300 1.20133
305 1.19502
310 1.19997
315 1.50532
320 1.42293
325 1.27994
330 1.35853
335 1.62267
340 1.49669
345 1.32688
350 1.48767
355 1.33386
360 1.50011
365 1.32348
370 1.44085
375 1.71659
380 1.74659
385 1.74984
390 1.9776
395 1.79573
400 2.04873
405 2.02251
410 2.19585
415 2.25396
420 2.69383
425 2.6417
430 2.70482
435 2.91564
440 3.05913
445 3.44714
450 3.506
455 3.7997
460 4.28652
465 4.39741
470 4.26322
475 4.65823
480 5.17397
485 5.50886
490 6.49691
495 7.29293
500 8.62837
505 10.9214
510 14.7612
515 20.2759
520 31.6084
525 976.623
530 9999.9
535 9999.9
540 5909.58
545 712.214
550 100.939
555 24.1603
560 12.6946
565 8.96739
570 6.46588
575 5.24527
580 4.77274
585 4.29427
590 4.31888
595 3.79352
600 3.8059
Ex : 543
200 0.932397
205 0.845935
210 1.16396
215 0.997728
220 0.890579
225 0.94958
230 0.963255
235 0.98088
240 1.13977
245 0.980076
250 0.958528
255 1.12559
260 1.98863
265 29.0192
270 24.6931
275 4.06778
280 1.4091
285 1.13287
290 1.17868
295 1.20916
300 1.36714
305 1.26168
310 1.33493
315 1.32195
320 1.38783
325 1.45045
330 1.33417
335 1.45919
340 1.52805
345 1.32594
350 1.58598
355 1.51881
360 1.50013
365 1.68729
370 1.76259
375 1.57408
380 1.69416
385 1.54403
390 1.87304
395 1.85864
400 2.16752
405 1.95304
410 1.91927
415 2.29026
420 2.25741
425 2.47707
430 2.68013
435 2.81737
440 2.96558
445 3.12629
450 3.51769
455 3.51412
460 3.87631
465 4.35298
470 4.5556
475 4.70096
480 4.75578
485 4.99704
490 5.38616
495 6.23927
500 7.17677
505 8.47948
510 10.5732
515 13.8728
520 19.3764
525 29.3818
530 892.757
535 9999.9
540 9999.9
545 5902.3
550 714.23
555 100.166
560 23.5507
565 12.4475
570 8.69379
575 5.99873
580 4.89976
585 4.35291
590 4.17685
595 4.05668
600 4.7729
Ex : 548
200 0.891386
205 0.87115
210 0.906669
215 1.01617
220 0.99849
225 1.01234
230 1.03239
235 1.02514
240 1.0567
245 1.01539
250 0.932694
255 1.01319
260 0.952749
265 13.5507
270 47.7486
275 11.9882
280 2.54231
285 1.42864
290 1.17836
295 1.44774
300 1.25246
305 1.22729
310 1.15378
315 1.28042
320 1.2801
325 1.33441
330 1.4316
335 1.4123
340 1.47228
345 1.58125
350 1.49582
355 1.46506
360 1.64994
365 1.53859
370 1.63859
375 1.49493
380 1.46295
385 1.65966
390 1.77572
395 1.8634
400 1.9693
405 2.05539
410 1.93686
415 2.07423
420 2.35841
425 2.55415
430 2.58441
435 2.60562
440 2.77553
445 2.90816
450 3.10077
455 3.73673
460 4.07547
465 4.12513
470 4.19692
475 4.40879
480 4.71465
485 4.85847
490 5.26692
495 5.5371
500 6.34924
505 6.88457
510 8.2802
515 10.8848
520 14.0673
525 19.5008
530 30.0181
535 985.441
540 9999.9
545 9999.9
550 5951.38
555 716.184
560 100.597
565 23.8293
570 11.8557
575 8.43269
580 5.7459
585 4.51726
590 4.64824
595 4.55942
600 5.13304
Ex : 553
200 0.910962
205 0.944406
210 0.969573
215 0.987939
220 0.972949
225 0.827558
230 0.942466
235 0.864317
240 1.01441
245 0.920664
250 0.889512
255 0.940397
260 0.947241
265 2.58653
270 50.4854
275 41.9261
280 6.29066
285 2.20374
290 1.32314
295 1.22572
300 1.60862
305 1.36441
310 1.34651
315 1.45765
320 1.44546
325 1.50472
330 1.44038
335 1.62122
340 1.47662
345 1.47355
350 1.59734
355 1.37082
360 1.53361
365 1.54808
370 1.54846
375 1.54389
380 1.59918
385 1.68712
390 1.73696
395 1.89175
400 1.88496
405 1.94966
410 2.10684
415 2.00406
420 2.32099
425 2.38033
430 2.49397
435 2.51916
440 2.65743
445 2.89972
450 3.07246
455 3.32815
460 3.83063
465 4.13869
470 3.96695
475 3.82816
480 4.50578
485 4.61442
490 4.78703
495 5.25107
500 5.50045
505 5.7216
510 6.863
515 8.45562
520 10.478
525 13.4177
530 18.7223
535 28.6048
540 867.91
545 9999.9
550 9999.9
555 5964.82
560 720.462
565 99.4864
570 22.2482
575 10.8965
580 7.44709
585 5.09221
590 4.28672
595 4.15363
600 3.06981
Ex : 558
200 1.1585
205 1.08406
210 1.11684
215 1.01821
220 0.980612
225 0.923838
230 1.17716
235 1.08
240 1.00796
245 1.06621
250 1.06736
255 0.940686
260 1.03194
265 1.17284
270 21.3922
275 79.9917
280 20.4344
285 3.53557
290 1.41599
295 1.54035
300 1.36151
305 1.63976
310 1.46044
315 1.45468
320 1.39688
325 1.57349
330 1.59532
335 1.60336
340 1.52909
345 1.62362
350 1.79743
355 1.52059
360 1.72222
365 1.52063
370 1.64904
375 1.4562
380 1.82043
385 1.71156
390 1.56792
395 1.91186
400 2.17808
405 1.88388
410 2.04955
415 2.01031
420 1.9692
425 2.2457
430 2.23873
435 2.67937
440 2.69049
445 2.86557
450 2.89759
455 3.11889
460 3.54574
465 3.76985
470 3.73917
475 3.6527
480 3.97027
485 4.27512
490 4.27682
495 4.54857
500 4.80927
505 4.8605
510 5.82601
515 6.54714
520 8.20886
525 10.2419
530 13.1141
535 18.3699
540 28.3385
545 780.682
550 9999.9
555 9999.9
560 5946.93
565 719.262
570 98.9217
575 22.1326
580 10.6813
585 7.09039
590 4.93932
595 3.73954
600 3.96512
Ex : 563
200 1.16134
205 1.08862
210 1.10119
215 0.997613
220 1.09609
225 1.00636
230 0.858261
235 1.0929
240 1.05089
245 1.00501
250 1.05626
255 1.0605
260 1.00401
265 1.08101
270 3.42038
275 77.1172
280 63.9963
285 9.2635
290 2.16858
295 1.35495
300 1.33278
305 1.60353
310 1.36478
315 1.48631
320 1.50464
325 1.47112
330 1.69867
335 1.52515
340 1.56127
345 1.57014
350 1.52148
355 1.4845
360 1.4921
365 1.54771
370 1.62462
375 1.66848
380 1.7071
385 1.84194
390 1.64015
395 1.87499
400 1.96597
405 2.01733
410 2.04628
415 1.9297
420 2.22776
425 1.8386
430 2.05343
435 2.36223
440 2.83151
445 2.75548
450 2.99501
455 3.1992
460 3.55499
465 3.732
470 3.84223
475 3.67216
480 3.92853
485 3.80959
490 4.09168
495 4.376
500 4.60172
505 4.73418
510 5.20645
515 6.11299
520 6.63656
525 7.98647
530 9.93442
535 13.3142
540 18.2173
545 28.5181
550 795.444
555 9999.9
560 9999.9
565 5966.41
570 719.315
575 97.5171
580 20.9938
585 10.1545
590 6.92281
595 4.92562
600 2.72739
Ex : 568
200 0.975208
205 0.921746
210 1.01027
215 1.03322
220 1.15571
225 1.13018
230 1.03461
235 1.11205
240 1.10913
245 1.04846
250 1.12963
255 1.15284
260 0.921463
265 1.00807
270 1.16856
275 28.5112
280 116.48
285 30.8429
290 4.85536
295 1.68105
300 1.50603
305 1.47343
310 1.60425
315 1.37068
320 1.56432
325 1.6028
330 1.56956
335 1.44375
340 1.64166
345 1.68686
350 1.42913
355 1.50928
360 1.64489
365 1.60325
370 1.84867
375 1.47313
380 1.65157
385 1.74513
390 1.63668
395 1.86381
400 1.7604
405 1.77781
410 1.98443
415 1.72584
420 1.86638
425 1.86074
430 1.98886
435 2.11394
440 2.43866
445 2.55975
450 2.65647
455 2.99264
460 3.39092
465 3.49657
470 3.38421
475 3.67701
480 3.93195
485 3.96532
490 3.8414
495 4.16124
500 4.32031
505 4.37054
510 4.76207
515 5.54037
520 5.60423
525 6.25608
530 7.82605
535 9.32023
540 12.4746
545 17.6512
550 27.2639
555 600.169
560 9999.9
565 9999.9
570 6318.38
575 765.007
580 101.715
585 20.5835
590 9.35176
595 6.35676
600 4.0864
Ex : 573
200 0.949589
205 0.943523
210 1.04665
215 1.02481
220 0.956342
225 1.02211
230 1.05882
235 1.05281
240 0.938938
245 1.03617
250 0.864364
255 0.966181
260 1.20221
265 1.01399
270 1.05215
275 3.5546
280 95.1395
285 91.5602
290 12.8158
295 2.4967
300 1.45253
305 1.52552
310 1.56467
315 1.66754
320 1.35599
325 1.44668
330 1.50337
335 1.53202
340 1.37545
345 1.23365
350 1.53622
355 1.445
360 1.25087
365 1.47776
370 1.71069
375 1.61067
380 1.62992
385 1.9298
390 1.65689
395 1.75106
400 1.59871
405 1.71304
410 1.81299
415 1.93164
420 1.99057
425 1.88829
430 2.20396
435 2.28685
440 2.4503
445 2.53634
450 2.71987
455 2.70628
460 2.97062
465 3.40556
470 3.17394
475 3.25769
480 3.48286
485 3.53567
490 3.43454
495 3.68346
500 4.16453
505 4.15972
510 4.44933
515 4.71168
520 5.30763
525 5.32597
530 6.008
535 7.65255
540 9.44294
545 12.5607
550 16.4011
555 25.8449
560 539.75
565 9999.9
570 9999.9
575 6063.76
580 732.582
585 96.3439
590 19.2409
595 8.75548
600 8.56779
Ex : 578
200 1.12115
205 0.79858
210 0.913758
215 0.942287
220 0.963145
225 0.875862
230 1.04164
235 0.938495
240 0.859563
245 0.815028
250 0.909992
255 1.03922
260 0.987761
265 0.910775
270 1.0586
275 1.35482
280 34.8241
285 149.406
290 40.1427
295 6.03426
300 1.87106
305 1.21087
310 1.33202
315 1.42498
320 1.38914
325 1.37752
330 1.46213
335 1.4067
340 1.49161
345 1.46313
350 1.38721
355 1.4346
360 1.5623
365 1.66044
370 1.48452
375 1.55588
380 1.59115
385 1.53639
390 1.66483
395 1.58216
400 1.63774
405 1.63653
410 1.69578
415 1.61857
420 1.77034
425 1.88798
430 1.94734
435 2.17571
440 1.9302
445 2.05244
450 2.29292
455 2.53244
460 3.02619
465 3.29025
470 3.16798
475 3.47825
480 3.57683
485 3.41907
490 3.68497
495 3.64704
500 3.5396
505 3.95677
510 3.93372
515 4.32206
520 4.26485
525 4.65546
530 5.28285
535 5.76961
540 7.09112
545 9.2916
550 11.5802
555 15.9913
560 24.1205
565 461.172
570 9999.9
575 9999.9
580 5447.31
585 654.687
590 86.1192
595 16.8867
600 9.21349
Ex : 583
200 0.952982
205 0.817438
210 0.754153
215 0.934591
220 0.823643
225 0.891711
230 0.686323
235 0.911224
240 0.833719
245 0.922304
250 0.803803
255 0.833096
260 0.805128
265 0.81004
270 0.874587
275 0.965305
280 4.29337
285 117.061
290 111.668
295 15.9091
300 2.89336
305 1.36871
310 1.23072
315 1.3455
320 1.3809
325 1.23357
330 1.21006
335 1.42725
340 1.3059
345 1.22238
350 1.32209
355 1.58268
360 1.38125
365 1.30879
370 1.32036
375 1.39354
380 1.68852
385 1.37296
390 1.42424
395 1.62463
400 1.61201
405 1.55909
410 1.65882
415 1.54135
420 1.63835
425 1.72444
430 1.71728
435 1.77372
440 1.91983
445 2.17793
450 2.43395
455 2.31394
460 2.93548
465 3.07681
470 3.19969
475 3.34749
480 3.03821
485 3.25906
490 3.58564
495 3.27056
500 3.37603
505 3.32479
510 3.64933
515 3.62347
520 3.93679
525 4.12579
530 4.70603
535 5.14358
540 5.8228
545 7.17792
550 9.06402
555 11.4535
560 15.3601
565 23.2759
570 426.959
575 9999.9
580 9999.9
585 4537.02
590 547.398
595 72.3579
600 16.1977
Ex : 588
200 0.801474
205 0.696076
210 0.874269
215 0.688558
220 0.877174
225 0.792295
230 0.832923
235 0.831386
240 0.799711
245 0.996697
250 0.846708
255 0.791601
260 0.73416
265 1.03183
270 0.739323
275 1.07068
280 1.21774
285 37.9765
290 173.821
295 50.3639
300 6.86144
305 1.76267
310 1.16172
315 1.14546
320 1.53366
325 1.40052
330 1.37113
335 1.26405
340 1.3668
345 1.31337
350 1.2891
355 1.2834
360 1.32304
365 1.2585
370 1.09653
375 1.2886
380 1.34241
385 1.36649
390 1.63926
395 1.54407
400 1.43189
405 1.59241
410 1.4957
415 1.60836
420 1.57779
425 1.71322
430 1.59243
435 1.4633
440 1.7335
445 1.79807
450 1.87916
455 2.1818
460 2.46124
465 2.80647
470 2.79634
475 2.78697
480 2.76831
485 2.87076
490 3.17292
495 3.02396
500 2.98059
505 2.93059
510 3.31563
515 3.32458
520 3.43487
525 3.74084
530 3.78912
535 4.34392
540 5.03587
545 5.93501
550 6.76187
555 8.95094
560 10.6438
565 14.2626
570 21.2412
575 374.303
580 9274.15
585 9999.9
590 4180.04
595 502.984
600 69.4483
Ex : 593
200 0.714594
205 0.859942
210 0.844677
215 0.882295
220 0.882102
225 1.00123
230 0.752797
235 0.845635
240 0.891193
245 0.789655
250 0.869629
255 0.703402
260 0.775937
265 0.984762
270 0.925965
275 0.987576
280 1.15212
285 4.39975
290 136.928
295 135.96
300 19.218
305 3.29424
310 1.40803
315 1.24197
320 1.20164
325 1.5108
330 1.40832
335 1.25222
340 1.29168
345 1.37587
350 1.21889
355 1.1661
360 1.2772
365 0.996116
370 1.31222
375 1.30889
380 1.52553
385 1.30678
390 1.48752
395 1.39134
400 1.41302
405 1.49846
410 1.5063
415 1.65307
420 1.70651
425 1.45354
430 1.38073
435 1.49281
440 1.44437
445 1.7806
450 1.87322
455 1.96626
460 2.26207
465 2.51192
470 2.73163
475 2.33283
480 2.67637
485 2.87583
490 2.89021
495 2.91379
500 2.94886
505 2.8084
510 2.93643
515 3.08797
520 3.38963
525 3.50228
530 3.58991
535 4.25314
540 4.31567
545 4.41829
550 5.10268
555 6.20455
560 7.89057
565 9.48437
570 13.1835
575 18.7105
580 323.731
585 8079.61
590 9999.9
595 3767.21
600 558.919
Ex : 598
200 1
205 0.705101
210 0.806868
215 0.735012
220 0.845679
225 0.721672
230 0.664891
235 0.866604
240 0.773338
245 0.716644
250 0.878334
255 0.826125
260 0.850648
265 0.603634
270 0.865144
275 0.767201
280 1.07259
285 1.12458
290 43.9006
295 208.658
300 63.3289
305 8.44185
310 1.99475
315 1.38244
320 1.26796
325 1.47494
330 1.20332
335 1.25866
340 1.12792
345 1.173
350 1.21645
355 1.32031
360 1.10379
365 1.51118
370 1.28903
375 1.25771
380 1.31183
385 1.40935
390 1.17811
395 1.40953
400 1.8192
405 1.42572
410 1.52329
415 1.67792
420 1.49395
425 1.64482
430 1.45243
435 1.75821
440 1.67569
445 1.82064
450 1.75749
455 1.64676
460 2.07141
465 2.20158
470 2.40898
475 2.64766
480 2.74264
485 2.7001
490 2.89201
495 2.73609
500 2.67097
505 2.90412
510 2.87087
515 3.02872
520 2.93236
525 3.3026
530 3.03868
535 3.34679
540 3.58772
545 4.09003
550 4.50965
555 5.07869
560 6.27828
565 7.4895
570 9.50646
575 11.8961
580 16.5894
585 315.66
590 7324.72
595 9999.9
600 8138.71
Ex : 603
200 0.744222
205 0.863512
210 0.939553
215 0.955817
220 0.791175
225 0.870025
230 0.98893
235 0.881992
240 0.679741
245 0.85905
250 0.880476
255 0.807194
260 0.80131
265 0.650801
270 0.768234
275 0.836084
280 0.778651
285 1.12467
290 4.50411
295 153.04
300 167.643
305 23.5
310 3.62409
315 1.47774
320 1.2703
325 1.27784
330 1.35513
335 0.906675
340 1.0787
345 1.20219
350 1.23385
355 1.31705
360 1.36148
365 1.16139
370 1.35554
375 1.30739
380 1.42204
385 1.21796
390 1.22854
395 1.24336
400 1.33962
405 1.50518
410 1.50103
415 1.49758
420 1.408
425 1.28365
430 1.38309
435 1.57282
440 1.56609
445 1.34926
450 1.63049
455 1.92506
460 1.87529
465 2.30859
470 2.30278
475 2.50248
480 2.62703
485 2.4819
490 2.39476
495 2.78689
500 2.55941
505 2.56373
510 2.92363
515 2.94833
520 2.74875
525 2.75956
530 3.10924
535 3.17535
540 3.51356
545 3.46047
550 4.02227
555 4.47501
560 5.06412
565 6.08339
570 7.00479
575 8.49675
580 10.9696
585 14.0156
590 271.702
595 6238.36
600 9999.9
