File format V 1.0
jeu. 12. mai 18:21:12 2016
Operator : 
Comments : 

=============================================
SpectroFluorometer parameters
Mode : 3D measurement
Data : Fluorescence
Phospho. : Ordinary
Spectrum : Fluorescence

Scan speed : 2400 nm/mn
Response : 100 ms
PM Voltage : 700 V
Shutter : On

Lambda Ex. Start : 203
Lambda Ex. End : 603
Lambda Ex. Step : 5
Ex. Slit : 5 nm

Lambda Em. Start : 200
Lambda Em. End : 600
Lambda Em. Step : 5
Em. Slit : 5 nm

Repetition : 1
Decal lambda em : 10
=============================================
DATA
Ex : 203
200 11.4518
205 10.0727
210 8.97354
215 8.70317
220 14.7741
225 13.5958
230 11.4125
235 9.68683
240 11.0184
245 10.5024
250 11.9038
255 10.1958
260 12.0901
265 12.5978
270 13.5685
275 12.9717
280 17.5038
285 13.1709
290 16.5504
295 13.2803
300 15.2213
305 20.4525
310 16.9427
315 15.7897
320 16.0507
325 16.4072
330 17.3513
335 17.2141
340 17.047
345 18.9029
350 17.6526
355 18.767
360 18.842
365 17.6162
370 16.6768
375 16.0581
380 25.0307
385 20.1642
390 20.3009
395 22.9831
400 23.463
405 18.9171
410 24.8177
415 25.961
420 22.3797
425 24.2009
430 18.5831
435 20.2442
440 25.4407
445 25.124
450 27.2469
455 21.4591
460 21.8356
465 31.2217
470 29.3629
475 27.5295
480 23.608
485 23.7095
490 21.6088
495 23.7185
500 23.9082
505 25.786
510 21.257
515 20.6609
520 22.7985
525 26.7256
530 23.035
535 25.7605
540 29.9358
545 24.1967
550 22.342
555 21.2258
560 30.2461
565 25.6628
570 25.3626
575 26.2342
580 24.2137
585 22.0677
590 20.3855
595 19.3497
600 16.972
Ex : 208
200 8.13265
205 9.91127
210 8.5129
215 10.3466
220 9.53303
225 10.3825
230 11.4698
235 14.5837
240 13.4634
245 13.3703
250 9.38463
255 11.3091
260 15.7889
265 9.48653
270 11.3335
275 16.6671
280 12.5586
285 14.8801
290 15.4222
295 15.7998
300 14.2815
305 14.173
310 15.9743
315 18.7815
320 16.6069
325 16.8362
330 14.3086
335 17.8324
340 13.927
345 19.625
350 18.5258
355 21.9482
360 19.654
365 21.7487
370 21.7979
375 14.801
380 18.6856
385 25.5316
390 23.317
395 24.1264
400 27.1161
405 25.8039
410 24.5407
415 23.0043
420 21.9998
425 22.7116
430 20.629
435 23.2317
440 24.2367
445 23.3456
450 26.5278
455 25.3232
460 27.6268
465 26.8871
470 26.7939
475 20.1915
480 23.7797
485 26.3737
490 28.0695
495 23.7854
500 27.9277
505 23.4878
510 23.0065
515 24.2652
520 21.6533
525 24.0083
530 26.0382
535 21.0676
540 28.1755
545 29.4729
550 27.3115
555 26.0778
560 28.8475
565 28.3345
570 29.1044
575 22.7353
580 21.4408
585 21.655
590 20.805
595 18.7152
600 10.6373
Ex : 213
200 9.72487
205 9.78287
210 10.5798
215 10.827
220 8.94393
225 11.8196
230 9.18887
235 12.0535
240 10.9668
245 10.4984
250 12.7677
255 10.7844
260 12.2681
265 10.4582
270 12.2934
275 15.5681
280 18.8032
285 14.3276
290 13.3704
295 10.5497
300 13.7271
305 12.6023
310 13.8359
315 19.8209
320 17.2404
325 17.14
330 16.2782
335 17.7528
340 21.3299
345 21.9036
350 19.7589
355 19.279
360 19.3852
365 21.2733
370 16.1783
375 17.9148
380 20.7549
385 23.0756
390 19.5613
395 26.7291
400 23.3649
405 24.2181
410 23.1071
415 22.9929
420 18.4436
425 20.1691
430 18.2839
435 21.4228
440 19.5008
445 23.6936
450 22.4356
455 28.3838
460 30.6585
465 28.8371
470 27.4665
475 24.9195
480 21.3181
485 23.8062
490 26.3292
495 22.2225
500 19.7768
505 25.407
510 18.4256
515 23.3091
520 22.3539
525 19.7615
530 21.6492
535 28.7012
540 23.4431
545 26.8258
550 28.353
555 27.8629
560 27.7986
565 22.4039
570 26.2902
575 25.627
580 24.3303
585 22.1932
590 23.1541
595 16.0756
600 8.91897
Ex : 218
200 11.7812
205 13.0224
210 10.6159
215 11.1756
220 12.2184
225 10.911
230 13.1929
235 11.5181
240 12.9538
245 11.0565
250 15.975
255 8.76459
260 8.56724
265 11.4704
270 10.9994
275 15.2387
280 12.8692
285 17.4366
290 16.711
295 15.8257
300 14.7007
305 13.3733
310 16.7112
315 17.0785
320 18.9357
325 19.357
330 19.237
335 19.7638
340 19.6373
345 21.5133
350 20.1874
355 19.443
360 22.0027
365 16.117
370 20.9328
375 18.5982
380 17.8625
385 19.8092
390 27.6422
395 23.8043
400 23.407
405 21.868
410 26.0703
415 19.8559
420 22.8457
425 23.5142
430 21.9285
435 22.4968
440 28.3579
445 26.562
450 24.0528
455 24.2939
460 25.9711
465 27.1368
470 24.3032
475 27.309
480 21.4718
485 24.5593
490 25.7428
495 19.3242
500 22.8142
505 21.6037
510 25.2157
515 22.7652
520 23.8289
525 27.1434
530 23.828
535 24.6245
540 28.0614
545 24.4714
550 23.8952
555 23.2608
560 26.2161
565 26.1978
570 22.9208
575 23.0412
580 21.666
585 22.5227
590 18.7624
595 16.6467
600 10.2246
Ex : 223
200 9.41753
205 9.10378
210 9.5373
215 10.1564
220 6.48217
225 7.95592
230 10.4038
235 12.0764
240 12.4945
245 9.12775
250 11.3808
255 10.1102
260 14.0853
265 15.1141
270 9.76922
275 15.4476
280 11.3492
285 15.6032
290 13.0299
295 14.6908
300 11.8362
305 17.0593
310 15.4728
315 16.5137
320 16.3319
325 19.8186
330 19.7242
335 20.5259
340 17.3966
345 17.9224
350 17.3897
355 18.4441
360 20.0535
365 20.906
370 21.2213
375 21.8066
380 22.6157
385 18.9412
390 17.7601
395 21.5712
400 27.3431
405 22.5334
410 23.0986
415 19.3858
420 23.8019
425 21.4566
430 20.1703
435 21.2026
440 26.6766
445 22.8056
450 23.5276
455 21.5714
460 24.2477
465 26.9308
470 24.7951
475 23.0048
480 24.473
485 23.2369
490 22.8054
495 17.7709
500 23.5773
505 21.8535
510 24.8389
515 21.583
520 21.7561
525 19.0167
530 20.5779
535 26.7194
540 25.0159
545 23.3756
550 29.965
555 29.3057
560 23.5505
565 27.6073
570 25.2085
575 24.2114
580 24.5087
585 26.0666
590 21.6038
595 16.9986
600 31.1791
Ex : 228
200 10.4776
205 9.14519
210 9.19461
215 7.33148
220 9.89914
225 8.93
230 7.72666
235 10.4195
240 10.1166
245 6.42136
250 7.74722
255 11.012
260 10.6658
265 9.97449
270 10.1954
275 10.9215
280 9.30347
285 10.7806
290 11.9602
295 11.2881
300 17.0516
305 12.9745
310 14.3325
315 19.5658
320 15.771
325 17.665
330 19.1127
335 16.0861
340 18.7544
345 19.2043
350 18.513
355 17.8346
360 23.6699
365 21.4776
370 17.2112
375 18.7098
380 18.4688
385 20.9883
390 22.4157
395 19.5314
400 21.6489
405 20.5751
410 19.1069
415 19.079
420 19.4155
425 23.1129
430 20.9565
435 18.7774
440 18.4534
445 21.872
450 24.6484
455 24.2117
460 30.3609
465 23.34
470 24.1882
475 20.8068
480 24.117
485 22.0881
490 21.8667
495 21.8067
500 17.716
505 20.7603
510 20.4902
515 18.9596
520 21.6281
525 22.8608
530 18.3476
535 23.6405
540 21.2006
545 25.2312
550 24.0656
555 25.2455
560 22.3076
565 19.8417
570 23.7806
575 24.5289
580 21.6835
585 22.5577
590 19.0277
595 17.4874
600 9.52273
Ex : 233
200 8.60619
205 8.94326
210 11.9533
215 9.79706
220 7.76342
225 11.9511
230 16.9596
235 12.341
240 10.1679
245 7.10386
250 8.92477
255 8.76225
260 7.52211
265 8.87052
270 10.8544
275 10.0462
280 12.7781
285 11.3906
290 15.0225
295 15.3951
300 11.5232
305 13.1992
310 12.5396
315 12.0499
320 13.6586
325 13.4991
330 16.8559
335 18.8138
340 21.3225
345 18.0666
350 19.5478
355 20.2029
360 18.7703
365 18.7339
370 20.2194
375 22.6711
380 20.7589
385 20.6524
390 17.9388
395 17.8479
400 20.6981
405 18.1845
410 22.7159
415 21.6545
420 24.1977
425 18.6032
430 21.5627
435 21.1625
440 18.4542
445 25.7617
450 19.562
455 30.0105
460 66.7077
465 102.624
470 82.9451
475 36.0937
480 21.9693
485 22.3502
490 21.0248
495 17.3809
500 20.7909
505 23.5915
510 19.5769
515 23.8409
520 19.9344
525 23.6208
530 18.6037
535 24.7555
540 22.0073
545 21.396
550 24.755
555 24.7184
560 21.4193
565 18.1656
570 21.0415
575 20.35
580 19.391
585 22.7871
590 21.5673
595 15.8467
600 24.4901
Ex : 238
200 6.31496
205 7.60012
210 6.70711
215 6.73592
220 9.22224
225 9.01826
230 22.0565
235 31.6415
240 12.3423
245 7.71609
250 9.95127
255 8.08797
260 9.884
265 9.62743
270 11.8617
275 10.5649
280 13.171
285 15.4514
290 13.7425
295 13.4863
300 12.461
305 15.0465
310 12.1969
315 14.1236
320 10.6866
325 13.5122
330 14.5583
335 17.1804
340 18.2055
345 16.3475
350 17.1196
355 13.0335
360 16.18
365 17.6078
370 16.5068
375 17.7827
380 14.0358
385 19.3249
390 21.7815
395 18.0284
400 17.4454
405 23.5203
410 19.5318
415 20.189
420 19.3783
425 18.5933
430 20.0931
435 16.493
440 15.7311
445 21.4462
450 18.642
455 20.532
460 22.5338
465 63.983
470 189.977
475 248.646
480 151.535
485 47.8181
490 22.0004
495 19.4197
500 17.2128
505 20.1205
510 23.225
515 23.4104
520 24.6185
525 20.4156
530 18.2578
535 25.1462
540 20.8955
545 20.8648
550 20.174
555 25.247
560 20.4139
565 22.8318
570 20.8142
575 23.1358
580 20.6477
585 17.4356
590 18.4596
595 17.9581
600 12.2349
Ex : 243
200 7.80386
205 7.75835
210 5.48335
215 7.41345
220 6.50234
225 7.15451
230 9.76656
235 34.6698
240 49.346
245 15.8623
250 7.26513
255 7.78445
260 7.45971
265 10.3828
270 8.84252
275 10.3838
280 9.79529
285 11.4778
290 10.8771
295 8.79758
300 10.3048
305 12.112
310 12.6291
315 10.8746
320 13.1968
325 12.1628
330 13.0284
335 12.4602
340 16.6566
345 17.3924
350 18.4757
355 16.7804
360 18.0379
365 13.3316
370 14.9191
375 15.5589
380 14.8398
385 14.3687
390 17.764
395 17.411
400 17.2631
405 15.7952
410 16.8571
415 18.8591
420 15.7996
425 14.7975
430 12.6099
435 13.6566
440 14.3419
445 15.0255
450 14.1792
455 16.6907
460 16.8529
465 17.1241
470 30.3505
475 132.542
480 330.654
485 350.014
490 196.079
495 45.0628
500 19.9059
505 14.731
510 14.6963
515 19.2123
520 25.1098
525 24.9335
530 23.5932
535 21.7651
540 19.9772
545 17.2801
550 21.2956
555 20.5862
560 24.1179
565 18.5138
570 17.8454
575 17.6071
580 20.3538
585 15.5411
590 15.1479
595 16.6829
600 21.1417
Ex : 248
200 4.57333
205 6.61396
210 6.14008
215 8.33695
220 6.59484
225 6.75749
230 6.30961
235 7.98631
240 52.6586
245 67.6121
250 19.6043
255 9.15332
260 5.40203
265 6.84185
270 8.38416
275 9.94616
280 8.95755
285 10.7581
290 10.4526
295 11.6584
300 10.1552
305 11.4044
310 10.3484
315 11.2375
320 14.1576
325 13.1514
330 11.5394
335 14.6975
340 14.0351
345 14.0806
350 15.3695
355 15.1854
360 11.8894
365 14.1083
370 13.3477
375 15.3947
380 18.8885
385 12.0744
390 11.9628
395 14.0636
400 13.8208
405 13.5541
410 13.7654
415 12.7745
420 13.2539
425 12.8235
430 15.088
435 14.3072
440 11.8782
445 13.6554
450 14.8815
455 12.9792
460 13.0235
465 15.7474
470 13.7875
475 14.4932
480 35.8241
485 188.513
490 395.997
495 406.273
500 189.606
505 43.3135
510 20.3609
515 15.6929
520 17.5588
525 21.9908
530 23.79
535 23.1363
540 26.7539
545 21.9946
550 18.5594
555 21.7043
560 19.4105
565 19.9183
570 18.56
575 17.6466
580 18.2356
585 15.8015
590 14.8977
595 15.0277
600 6.90072
Ex : 253
200 3.81723
205 4.11119
210 5.69218
215 4.19446
220 3.46331
225 3.33872
230 3.6443
235 5.2167
240 9.13863
245 55.2449
250 98.5266
255 36.1746
260 9.63826
265 7.30988
270 9.25917
275 9.24387
280 7.64024
285 8.86818
290 9.09842
295 8.22204
300 8.5026
305 8.38118
310 10.3893
315 11.0355
320 10.4738
325 9.58078
330 10.3041
335 11.3488
340 11.3382
345 14.0531
350 12.7812
355 12.0393
360 12.2961
365 11.7675
370 12.0623
375 11.7898
380 9.42449
385 12.7788
390 12.0751
395 11.8177
400 10.5452
405 10.9614
410 13.0904
415 9.10575
420 11.7507
425 12.0769
430 13.3361
435 9.63425
440 8.91306
445 10.1729
450 10.6955
455 11.239
460 12.6101
465 11.809
470 13.2867
475 11.8262
480 11.5648
485 11.1965
490 41.0169
495 221.59
500 419.958
505 504.978
510 349.514
515 84.3897
520 28.2948
525 19.1927
530 19.7694
535 19.6306
540 22.4375
545 24.8819
550 25.0681
555 23.2427
560 19.1035
565 17.4151
570 16.9837
575 17.5056
580 16.6962
585 15.7711
590 15.9702
595 15.2738
600 20.5901
Ex : 258
200 3.15033
205 3.26803
210 3.94825
215 3.25271
220 2.80501
225 4.09928
230 3.96359
235 4.11353
240 2.92915
245 8.31962
250 153.248
255 308.868
260 103.249
265 19.4601
270 8.67577
275 10.8514
280 10.2788
285 9.04593
290 9.94487
295 9.47347
300 10.7166
305 9.68068
310 11.9591
315 10.5656
320 11.8715
325 11.7873
330 10.6869
335 10.2495
340 10.4592
345 11.3945
350 11.4917
355 13.0866
360 12.5567
365 12.5901
370 11.7604
375 10.3095
380 9.04824
385 10.3069
390 11.511
395 10.2307
400 10.8038
405 10.2053
410 11.3692
415 10.1223
420 9.03281
425 9.22308
430 8.95699
435 10.2466
440 9.37173
445 9.70659
450 9.68368
455 9.56066
460 11.0172
465 12.2142
470 9.60199
475 9.5537
480 10.1697
485 10.0222
490 11.0357
495 10.9658
500 51.5283
505 390.887
510 1631.71
515 2149.03
520 1063.88
525 198.102
530 43.8417
535 25.4754
540 19.9677
545 21.7066
550 23.9499
555 29.5831
560 31.0755
565 27.0075
570 22.6035
575 20.7293
580 19.743
585 18.0323
590 15.7503
595 14.4445
600 21.6174
Ex : 263
200 2.77903
205 2.75246
210 3.51264
215 3.49805
220 3.72729
225 2.4837
230 3.38547
235 4.07907
240 4.18804
245 3.53219
250 23.112
255 365.955
260 735.88
265 200.747
270 31.796
275 11.1454
280 14.654
285 15.9171
290 12.5219
295 11.7797
300 12.8611
305 11.9024
310 12.7019
315 12.586
320 11.111
325 12.7129
330 10.7625
335 11.5257
340 9.41245
345 10.8741
350 10.7796
355 10.2318
360 11.5453
365 10.3531
370 10.0662
375 9.21955
380 8.5992
385 8.56709
390 9.21285
395 8.37336
400 8.97322
405 9.77916
410 8.28485
415 7.57353
420 7.26908
425 8.30835
430 8.2726
435 8.09233
440 6.43119
445 8.4074
450 7.64707
455 9.44053
460 9.21622
465 10.1176
470 9.00887
475 9.54645
480 8.57279
485 8.30135
490 8.96078
495 10.4703
500 9.7198
505 13.2827
510 149.963
515 1303.27
520 3126.14
525 3385.74
530 1690.62
535 295.252
540 60.7925
545 29.5711
550 22.7002
555 22.7858
560 25.2618
565 32.939
570 38.1584
575 33.4032
580 29.0167
585 24.1862
590 20.3686
595 19.2046
600 20.3083
Ex : 268
200 2.96307
205 3.21061
210 2.83543
215 2.79303
220 2.4299
225 2.37149
230 2.30638
235 2.81479
240 2.8442
245 2.92677
250 3.10168
255 39.4465
260 671.878
265 1310.71
270 364.484
275 52.8021
280 17.0811
285 17.1146
290 19.5173
295 16.0923
300 14.5445
305 15.1497
310 15.4348
315 13.1342
320 11.9755
325 10.3507
330 11.25
335 10.6573
340 13.1856
345 10.6944
350 10.861
355 10.8904
360 10.2072
365 9.29056
370 8.91345
375 8.14735
380 9.77812
385 7.88199
390 7.44394
395 7.59561
400 7.68412
405 7.38529
410 7.33953
415 7.72829
420 8.99981
425 7.27801
430 6.31465
435 6.71724
440 7.2324
445 7.08559
450 8.01257
455 8.95226
460 7.4648
465 8.6186
470 8.33918
475 8.53953
480 7.45366
485 8.94692
490 8.47578
495 8.66423
500 9.8653
505 9.83215
510 11.7594
515 16.1464
520 280.767
525 2098.09
530 6032.19
535 6275.99
540 2665.24
545 451.992
550 83.171
555 36.3768
560 28.3267
565 28.3679
570 30.8196
575 32.0508
580 37.9377
585 36.333
590 31.4687
595 28.5336
600 29.266
Ex : 273
200 2.70579
205 2.14578
210 2.12555
215 2.02908
220 2.05014
225 2.88292
230 2.38887
235 3.30265
240 2.66119
245 3.05599
250 3.79933
255 3.85469
260 65.0029
265 1147.62
270 1958.41
275 520.675
280 74.2408
285 21.7842
290 20.0422
295 20.6098
300 19.7079
305 16.8358
310 13.9796
315 13.6944
320 12.5595
325 11.9756
330 12.9672
335 11.7331
340 11.6234
345 11.9468
350 11.8747
355 9.72418
360 9.24621
365 9.12445
370 9.62403
375 9.45782
380 8.02134
385 7.99273
390 8.45221
395 7.26211
400 7.24246
405 8.42288
410 7.23224
415 6.57565
420 7.45085
425 7.51349
430 6.51983
435 7.3958
440 6.62409
445 7.49224
450 7.25881
455 7.53883
460 6.96293
465 8.01186
470 8.06871
475 7.46193
480 8.00608
485 6.99115
490 7.86281
495 8.46979
500 9.11998
505 9.52334
510 9.98629
515 11.452
520 12.897
525 22.6128
530 478.541
535 3486.17
540 8453.72
545 8333.98
550 3492.78
555 560.576
560 101.799
565 45.2874
570 35.0385
575 32.2902
580 32.8872
585 34.713
590 37.557
595 37.3154
600 34.333
Ex : 278
200 2.36766
205 2.11483
210 2.11479
215 1.74596
220 2.21139
225 2.11831
230 2.02941
235 2.82873
240 2.64468
245 2.83661
250 2.96449
255 3.79474
260 5.26988
265 95.956
270 1652.07
275 2804.33
280 691.9
285 94.8352
290 25.4106
295 19.1227
300 19.9808
305 19.3583
310 14.8107
315 13.041
320 12.8249
325 12.9021
330 12.1898
335 11.514
340 12.0975
345 10.801
350 10.9552
355 9.1181
360 9.57146
365 9.46836
370 7.92121
375 8.61256
380 7.62437
385 7.82728
390 7.51223
395 8.03581
400 8.24775
405 7.47474
410 7.42778
415 6.89065
420 7.06513
425 6.33559
430 6.33584
435 7.55018
440 7.00276
445 7.09297
450 6.83004
455 6.88858
460 6.84292
465 8.28303
470 7.03594
475 7.21687
480 7.36635
485 7.6912
490 7.71456
495 7.93295
500 7.73933
505 8.19473
510 8.74678
515 10.101
520 11.7521
525 13.0563
530 15.8987
535 28.5424
540 685.4
545 4867.77
550 9999.9
555 9398.56
560 3909.14
565 630.53
570 109.537
575 45.9544
580 34.7212
585 29.3549
590 29.0936
595 28.7915
600 26.5332
Ex : 283
200 1.52008
205 1.86164
210 2.13383
215 1.91807
220 1.89164
225 2.14082
230 2.41953
235 2.07339
240 2.36577
245 3.0216
250 2.84758
255 3.27712
260 4.58544
265 6.25579
270 125.707
275 2133.22
280 3426.97
285 848.519
290 111.972
295 24.2098
300 14.8611
305 17.7385
310 16.6534
315 13.1641
320 11.0518
325 11.0904
330 10.3221
335 11.39
340 11.1178
345 10.3568
350 9.62058
355 8.44421
360 8.87612
365 8.75725
370 7.98521
375 7.27701
380 8.02034
385 8.26593
390 8.361
395 8.50181
400 7.46942
405 7.77293
410 7.8982
415 8.07057
420 8.14502
425 6.92137
430 7.1126
435 7.06442
440 6.96069
445 7.04724
450 6.8996
455 7.2549
460 6.25943
465 7.57485
470 7.58787
475 6.76358
480 6.21931
485 6.46196
490 6.40856
495 7.1239
500 6.6546
505 7.3041
510 7.03084
515 7.51286
520 9.24769
525 9.44657
530 11.1271
535 14.4045
540 18.6463
545 35.3926
550 866.491
555 5591.5
560 9999.9
565 9696.78
570 3943.57
575 608.219
580 102.173
585 39.0857
590 25.9611
595 21.7339
600 19.8313
Ex : 288
200 1.74168
205 1.6532
210 1.93059
215 1.8147
220 1.7725
225 2.01781
230 1.96991
235 2.22107
240 2.26153
245 1.99597
250 2.30414
255 2.69162
260 2.84599
265 3.92836
270 6.32388
275 137.571
280 2463.98
285 3862.54
290 924.256
295 119.403
300 23.1701
305 11.5175
310 14.3056
315 15.8013
320 12.7868
325 10.2167
330 9.20974
335 9.30046
340 9.77693
345 8.99239
350 8.43771
355 8.36553
360 7.73988
365 7.20864
370 8.07258
375 6.87764
380 7.36408
385 7.76783
390 7.78922
395 9.09155
400 8.58543
405 8.05054
410 8.10597
415 8.93795
420 7.72604
425 7.20513
430 6.6188
435 6.96642
440 7.1427
445 6.8828
450 6.66237
455 6.30006
460 6.3569
465 5.73995
470 6.04406
475 5.96825
480 6.19647
485 5.94975
490 6.01356
495 6.51355
500 6.31153
505 6.06026
510 6.86622
515 6.49742
520 6.64988
525 8.09323
530 8.91515
535 9.38417
540 10.8662
545 14.3924
550 20.058
555 35.1642
560 937.589
565 5752.51
570 9999.9
575 9302.7
580 3654.71
585 546.81
590 90.7585
595 32.7359
600 21.6749
Ex : 293
200 1.72748
205 1.69894
210 1.77637
215 1.85945
220 1.63296
225 1.8903
230 1.56955
235 1.64627
240 1.91254
245 1.82734
250 2.00314
255 2.56728
260 2.83004
265 3.31446
270 4.51582
275 6.59076
280 172.354
285 2740.49
290 4128.63
295 978.595
300 126.324
305 24.7204
310 11.3484
315 13.3702
320 15.3407
325 12.5186
330 9.83081
335 8.82784
340 8.27084
345 8.44137
350 8.13801
355 7.44343
360 7.5975
365 7.57796
370 7.42269
375 7.28741
380 7.9293
385 8.54617
390 8.50542
395 7.93314
400 9.21908
405 8.23965
410 8.15387
415 7.90129
420 7.52575
425 7.12877
430 7.03388
435 6.93465
440 6.54727
445 6.25483
450 6.44249
455 5.74075
460 5.69722
465 5.74256
470 6.13992
475 5.67132
480 5.33556
485 5.30432
490 5.07852
495 5.34708
500 5.54315
505 6.08629
510 5.36454
515 5.74673
520 5.7972
525 6.38294
530 6.50237
535 7.17146
540 8.26882
545 8.91815
550 11.8079
555 15.7359
560 20.4087
565 39.5309
570 1053.14
575 6076.31
580 9999.9
585 8792.48
590 3123.76
595 449.626
600 79.7633
Ex : 298
200 1.50489
205 1.5426
210 1.62082
215 1.52383
220 1.63747
225 1.70148
230 1.68777
235 1.65144
240 1.6259
245 1.76396
250 2.05455
255 2.16939
260 2.28839
265 2.80828
270 3.43616
275 4.77679
280 7.39743
285 185.451
290 2970.77
295 4297.79
300 1033.78
305 131.899
310 24.5839
315 11.4383
320 13.3248
325 15.1278
330 12.3871
335 9.02709
340 7.63435
345 7.15594
350 7.44624
355 7.04058
360 6.47723
365 6.55448
370 6.57765
375 6.41452
380 6.93308
385 7.64482
390 7.84415
395 8.00522
400 8.09705
405 8.37115
410 8.29728
415 7.70143
420 7.69751
425 7.17189
430 6.81248
435 6.75475
440 6.44149
445 5.82971
450 6.20625
455 5.87929
460 5.99127
465 5.44436
470 4.71969
475 5.2815
480 4.82274
485 4.87015
490 4.75749
495 4.70917
500 4.61027
505 4.54519
510 4.74781
515 5.30278
520 4.79085
525 4.73906
530 5.37474
535 5.81712
540 6.56194
545 7.25489
550 8.18081
555 9.65092
560 12.0251
565 14.2662
570 19.8501
575 41.8967
580 1150.2
585 6045.88
590 9999.9
595 8113.46
600 4965.13
Ex : 303
200 1.13635
205 1.23951
210 1.38483
215 1.21843
220 1.41515
225 1.36571
230 1.49283
235 1.32515
240 1.67059
245 1.55027
250 1.84592
255 1.86254
260 2.07388
265 2.19849
270 2.89169
275 3.42644
280 4.88289
285 7.81863
290 190.996
295 3144.73
300 4636.18
305 1105.23
310 140.351
315 25.8555
320 11.9721
325 11.7802
330 14.8228
335 12.7682
340 8.62335
345 6.91413
350 6.53354
355 5.76574
360 6.19013
365 5.79005
370 5.91858
375 5.77967
380 6.58333
385 7.2415
390 6.74479
395 7.13573
400 7.63904
405 7.24852
410 7.48003
415 7.52094
420 7.31582
425 6.44685
430 5.8544
435 5.82534
440 5.54965
445 5.52041
450 5.58667
455 5.54982
460 5.36213
465 5.12708
470 4.96636
475 4.59396
480 4.92573
485 4.27746
490 4.01239
495 4.25355
500 3.78516
505 4.1105
510 3.96988
515 4.18103
520 4.43672
525 4.27988
530 4.8385
535 4.90796
540 5.21362
545 6.31146
550 6.16546
555 6.72221
560 7.87213
565 9.24437
570 10.8094
575 13.9853
580 19.0608
585 41.643
590 1223.4
595 5954.5
600 9770.31
Ex : 308
200 1.29638
205 1.29721
210 1.28483
215 1.22616
220 1.39328
225 1.33857
230 1.10113
235 1.25437
240 1.32038
245 1.59363
250 1.44155
255 1.39919
260 1.82684
265 2.00096
270 2.1921
275 2.73968
280 3.47095
285 4.98154
290 7.52279
295 221.352
300 3321.05
305 4734.98
310 1130.47
315 142.858
320 25.9579
325 10.9408
330 9.97142
335 13.3544
340 13.1468
345 8.75834
350 6.44672
355 5.66272
360 5.11693
365 5.26715
370 5.2146
375 5.86185
380 5.74466
385 5.84989
390 6.37317
395 7.12337
400 6.52028
405 6.35589
410 6.27478
415 6.30935
420 6.21307
425 5.61457
430 5.52312
435 5.38234
440 4.8495
445 4.8149
450 4.76282
455 4.53982
460 4.52791
465 4.56152
470 4.61189
475 4.02888
480 4.30111
485 3.90053
490 4.17606
495 4.22343
500 3.91219
505 3.97389
510 3.75439
515 3.57376
520 3.92304
525 3.74382
530 3.98274
535 4.32187
540 4.54819
545 4.46916
550 5.01128
555 5.36927
560 5.92619
565 6.78863
570 7.85274
575 8.14621
580 10.1046
585 12.47
590 18.0285
595 47.8085
600 199.659
Ex : 313
200 1.07694
205 1.22517
210 1.20174
215 1.20363
220 1.35116
225 1.23897
230 1.04679
235 1.31768
240 1.36823
245 1.59991
250 1.54758
255 1.42479
260 1.89745
265 1.81781
270 1.92964
275 2.24442
280 2.50883
285 3.53194
290 4.65187
295 7.85872
300 231.589
305 3700.95
310 5273.67
315 1253.18
320 157.923
325 28.3771
330 10.7976
335 9.2571
340 11.9358
345 12.8795
350 8.99767
355 6.28025
360 5.69097
365 5.03419
370 5.05267
375 4.84957
380 5.17765
385 5.13346
390 5.25901
395 5.68159
400 5.72786
405 5.67946
410 5.61975
415 5.06297
420 4.81885
425 5.17495
430 4.65332
435 4.81734
440 4.26259
445 4.39494
450 4.54397
455 4.14463
460 3.72583
465 4.05512
470 3.97181
475 3.86269
480 4.22375
485 3.85155
490 3.10485
495 3.58075
500 3.56491
505 3.35922
510 3.32341
515 3.43413
520 3.4545
525 3.31648
530 3.6518
535 3.51678
540 3.94263
545 4.1682
550 4.28725
555 3.99581
560 4.59985
565 4.83609
570 5.50784
575 6.01071
580 6.92081
585 8.31382
590 9.77658
595 12.5669
600 14.9882
Ex : 318
200 0.967409
205 1.16916
210 1.12091
215 1.27892
220 0.917455
225 1.01553
230 1.16357
235 1.12116
240 1.03686
245 1.17438
250 1.2741
255 1.21479
260 1.43485
265 1.55063
270 1.96292
275 1.91346
280 2.3013
285 3.07588
290 3.30374
295 5.0613
300 8.70311
305 282.318
310 4096.84
315 5755.5
320 1340.08
325 167.015
330 29.1557
335 11.1612
340 8.75845
345 10.8225
350 13.077
355 10.0464
360 6.16052
365 5.09366
370 4.70954
375 4.95634
380 4.2515
385 4.68879
390 4.61523
395 5.10916
400 4.82885
405 4.78716
410 4.72804
415 4.50569
420 4.13165
425 4.30601
430 4.04897
435 3.9862
440 3.85643
445 3.68248
450 3.86713
455 3.55683
460 3.91727
465 3.81249
470 3.56435
475 3.44872
480 3.64798
485 3.29157
490 3.26626
495 3.44944
500 3.25656
505 3.55876
510 3.40147
515 3.19243
520 3.23292
525 3.24586
530 3.25775
535 3.09533
540 3.2746
545 3.41092
550 3.57219
555 3.8583
560 4.17594
565 4.07434
570 4.26228
575 4.79317
580 5.37153
585 5.45595
590 6.91374
595 8.03342
600 8.50276
Ex : 323
200 1.16788
205 1.06804
210 1.19817
215 1.05882
220 1.14762
225 1.19556
230 1.24798
235 1.21437
240 1.07196
245 1.28025
250 1.13443
255 1.24823
260 1.57704
265 1.524
270 1.77619
275 1.58947
280 1.87762
285 2.25703
290 2.83805
295 3.58891
300 5.58048
305 9.07957
310 289.377
315 4401.11
320 6433.47
325 1555.91
330 193.036
335 32.7226
340 11.2646
345 8.28296
350 9.69741
355 11.6338
360 10.1906
365 6.86453
370 4.88428
375 4.82063
380 4.43444
385 4.48036
390 4.50802
395 4.23421
400 4.22758
405 4.15151
410 4.20032
415 3.90737
420 4.12139
425 4.16364
430 3.56544
435 3.6687
440 3.47738
445 3.88178
450 3.51873
455 3.35502
460 3.61262
465 3.77133
470 3.40415
475 3.18444
480 3.11323
485 3.43665
490 2.90623
495 3.15161
500 3.10688
505 3.06174
510 3.13363
515 3.07163
520 2.85253
525 2.72063
530 2.7281
535 2.84705
540 3.02438
545 3.32242
550 3.1611
555 3.50297
560 3.36034
565 3.3906
570 3.75441
575 3.7449
580 4.12746
585 4.51256
590 4.71399
595 5.34742
600 6.05816
Ex : 328
200 0.97359
205 1.02118
210 0.8911
215 1.05907
220 0.979014
225 1.07397
230 1.0667
235 1.04663
240 1.1472
245 1.24987
250 1.26717
255 1.28098
260 1.38488
265 1.28695
270 1.51103
275 1.75358
280 1.79442
285 1.98818
290 2.37823
295 3.22923
300 3.88609
305 5.50452
310 9.43539
315 301.575
320 4721.93
325 6724.27
330 1576.6
335 195.964
340 32.5644
345 11.5872
350 7.99872
355 8.67513
360 10.6624
365 11.1188
370 7.62633
375 5.23133
380 4.40736
385 4.32919
390 4.30058
395 4.20821
400 4.17626
405 3.9866
410 3.859
415 3.68587
420 3.42686
425 3.48655
430 3.66971
435 3.59404
440 3.41877
445 3.22948
450 3.17527
455 3.19036
460 3.43357
465 3.30894
470 3.24876
475 3.40415
480 3.10534
485 3.13304
490 2.92626
495 2.70038
500 2.88269
505 2.82903
510 2.75426
515 2.58986
520 2.71257
525 2.57042
530 2.82308
535 2.79461
540 2.64853
545 2.77126
550 2.60161
555 2.85731
560 2.97516
565 3.26361
570 3.13817
575 3.54984
580 3.22225
585 3.3002
590 3.67191
595 4.24642
600 5.24202
Ex : 333
200 0.741597
205 0.961583
210 1.04091
215 1.01319
220 0.791516
225 0.893456
230 0.879634
235 1.05472
240 0.967057
245 1.02282
250 1.23589
255 1.07594
260 0.983787
265 1.4118
270 1.46089
275 1.52563
280 1.58702
285 1.77289
290 2.14625
295 2.403
300 2.94804
305 3.88229
310 5.31152
315 9.77833
320 349.459
325 4924.75
330 6917.1
335 1638.52
340 202.78
345 33.1596
350 10.9629
355 7.34906
360 7.35067
365 10.1444
370 10.8135
375 8.1451
380 5.17029
385 4.55073
390 4.2247
395 4.14798
400 4.0044
405 4.0292
410 3.80713
415 3.70133
420 3.60454
425 3.3826
430 3.2977
435 3.23725
440 3.12883
445 3.42258
450 3.41666
455 3.57957
460 3.19255
465 3.06236
470 3.27731
475 3.1401
480 3.11024
485 3.07952
490 2.89946
495 2.93243
500 2.80342
505 2.82053
510 2.77855
515 2.5596
520 2.81569
525 2.52034
530 2.52236
535 2.70376
540 2.49176
545 2.73658
550 2.48466
555 2.68488
560 2.80303
565 2.71413
570 2.48661
575 2.73152
580 2.72387
585 2.78813
590 2.97736
595 3.16668
600 0.940012
Ex : 338
200 0.846249
205 0.821387
210 0.862456
215 0.954991
220 0.881008
225 1.02634
230 0.991376
235 1.02451
240 1.00486
245 1.04196
250 0.973665
255 1.11845
260 1.1378
265 1.08622
270 1.35021
275 1.39585
280 1.54023
285 1.52273
290 1.66183
295 1.83389
300 2.33217
305 2.88367
310 3.74027
315 5.69601
320 9.64668
325 374.572
330 5255.65
335 7278.14
340 1701.26
345 210.224
350 33.9639
355 10.8067
360 6.89375
365 7.20514
370 9.03539
375 11.0009
380 9.13961
385 5.72431
390 4.44958
395 4.26352
400 4.33325
405 3.99658
410 3.80567
415 3.77308
420 3.50629
425 3.53622
430 3.36976
435 3.28704
440 3.11845
445 3.16171
450 3.18981
455 2.99037
460 3.20276
465 3.29719
470 3.08496
475 2.91189
480 3.01482
485 2.75347
490 2.77481
495 2.79959
500 2.63135
505 2.56005
510 2.41132
515 2.58207
520 2.5303
525 2.40107
530 2.45233
535 2.43578
540 2.37315
545 2.31588
550 2.49191
555 2.38702
560 2.47345
565 2.29217
570 2.34743
575 2.43503
580 2.43002
585 2.49087
590 2.65247
595 2.78178
600 2.95468
Ex : 343
200 0.92168
205 0.832877
210 1.00073
215 0.889138
220 0.808192
225 0.809092
230 0.743102
235 0.852072
240 0.759838
245 0.862022
250 0.88372
255 1.0882
260 1.03273
265 1.02447
270 1.0864
275 1.27061
280 1.39625
285 1.40144
290 1.58083
295 1.72885
300 2.04603
305 2.54362
310 3.04345
315 3.91187
320 5.80559
325 10.0574
330 364.994
335 5450.25
340 7733.58
345 1802.76
350 221.357
355 35.1241
360 11.0627
365 6.88048
370 6.53127
375 8.07479
380 10.0591
385 9.50737
390 6.33718
395 4.48544
400 4.15624
405 4.01057
410 3.97694
415 3.45931
420 3.44193
425 3.5691
430 3.32506
435 3.15435
440 3.21946
445 3.20038
450 3.07884
455 2.97642
460 2.9165
465 3.13133
470 2.99637
475 2.87841
480 3.17523
485 2.75436
490 2.64815
495 2.68425
500 2.51565
505 2.5594
510 2.18669
515 2.3331
520 2.31443
525 2.23343
530 2.50112
535 2.40026
540 2.23642
545 2.39389
550 2.33699
555 2.37703
560 2.40139
565 2.07705
570 2.21348
575 2.14579
580 2.23144
585 2.17704
590 2.33461
595 2.31173
600 2.9545
Ex : 348
200 0.831666
205 0.705233
210 0.733589
215 0.807079
220 0.678445
225 0.945526
230 0.784656
235 0.800174
240 0.84822
245 0.846669
250 0.935041
255 0.918525
260 0.977015
265 1.0287
270 1.04946
275 1.18281
280 1.30898
285 1.39504
290 1.5448
295 1.48411
300 1.86531
305 2.18519
310 2.51816
315 3.18867
320 4.33701
325 6.12752
330 10.4686
335 358.728
340 5545.68
345 8310.26
350 2055.46
355 251.071
360 38.8472
365 11.5317
370 7.07222
375 6.11993
380 7.59803
385 9.417
390 10.0122
395 7.25564
400 5.02907
405 3.98262
410 3.8988
415 3.76578
420 3.59525
425 3.41412
430 3.28054
435 3.11882
440 3.03178
445 2.96704
450 3.23728
455 3.00167
460 3.03978
465 2.94847
470 2.83496
475 2.81311
480 2.71772
485 2.76634
490 2.58432
495 2.59628
500 2.32918
505 2.3331
510 2.34431
515 2.3489
520 2.30303
525 2.15077
530 2.26316
535 2.17032
540 2.0755
545 2.09819
550 2.08784
555 2.00446
560 1.93034
565 1.91079
570 2.02905
575 1.77338
580 2.11417
585 2.01404
590 1.97057
595 1.95566
600 2.12528
Ex : 353
200 0.683529
205 0.695319
210 0.687594
215 0.699842
220 0.663119
225 0.780558
230 0.768826
235 0.860946
240 0.825514
245 0.786335
250 0.937231
255 0.940847
260 0.898501
265 0.934787
270 0.95544
275 1.11459
280 1.12736
285 1.31535
290 1.30051
295 1.45567
300 1.64794
305 1.80051
310 2.18605
315 2.46432
320 3.21755
325 4.12485
330 6.14327
335 10.8383
340 370.936
345 5760.7
350 8320.64
355 1999.52
360 243.587
365 37.9774
370 11.3975
375 7.08172
380 6.00992
385 6.46324
390 9.0122
395 10.1782
400 7.79789
405 4.89124
410 3.94157
415 3.73161
420 3.57668
425 3.47865
430 3.45669
435 3.22627
440 3.0752
445 3.19172
450 3.13823
455 3.05756
460 2.90229
465 3.07329
470 2.90012
475 2.77171
480 2.75101
485 2.52492
490 2.61984
495 2.63008
500 2.5241
505 2.33634
510 2.34864
515 2.1314
520 2.12348
525 2.02782
530 2.02125
535 2.12798
540 1.83742
545 1.74531
550 1.9428
555 1.97197
560 1.81529
565 1.82153
570 1.77265
575 1.91729
580 1.63651
585 1.81308
590 1.69426
595 1.84568
600 2.35473
Ex : 358
200 0.701659
205 0.560755
210 0.602108
215 0.653741
220 0.667298
225 0.780927
230 0.647402
235 0.714851
240 0.735708
245 0.657268
250 0.846422
255 0.883073
260 0.78968
265 0.803279
270 0.964398
275 1.04018
280 1.02057
285 1.20283
290 1.27883
295 1.22725
300 1.3762
305 1.54719
310 1.81677
315 2.11914
320 2.48167
325 3.2229
330 4.40809
335 6.40902
340 10.8629
345 362.908
350 5654.11
355 8542.71
360 2084.13
365 253.628
370 38.8357
375 11.3764
380 6.89178
385 5.81315
390 5.74491
395 7.98181
400 9.53918
405 8.63116
410 5.63066
415 4.2876
420 3.63917
425 3.35518
430 3.36459
435 3.04095
440 3.25177
445 2.99272
450 3.14539
455 3.02248
460 3.09888
465 2.92663
470 2.96109
475 2.97207
480 2.73042
485 2.69283
490 2.58875
495 2.28808
500 2.21879
505 2.21967
510 2.27701
515 2.01302
520 2.08061
525 1.99634
530 1.89666
535 1.96142
540 1.8284
545 1.84263
550 1.75922
555 1.80573
560 1.75612
565 1.79178
570 1.68037
575 1.62428
580 1.71836
585 1.48394
590 1.59772
595 1.57538
600 1.73944
Ex : 363
200 0.645512
205 0.634987
210 0.606412
215 0.621571
220 0.675731
225 0.717566
230 0.670271
235 0.639766
240 0.652115
245 0.757666
250 0.69123
255 0.745889
260 0.72592
265 0.772213
270 0.79294
275 0.904101
280 0.900651
285 1.16244
290 1.07362
295 1.1569
300 1.24504
305 1.48329
310 1.47312
315 1.76519
320 1.93178
325 2.56782
330 3.27392
335 4.20318
340 6.43844
345 10.204
350 326.613
355 5484.96
360 8570.7
365 2168.16
370 263.183
375 39.9877
380 11.4561
385 6.81391
390 5.72442
395 5.47875
400 7.24518
405 8.68948
410 8.69276
415 5.94942
420 4.1312
425 3.66807
430 3.28017
435 3.06218
440 2.94941
445 3.05427
450 2.94718
455 2.85974
460 2.99194
465 2.93532
470 2.74518
475 2.61038
480 2.72417
485 2.42956
490 2.23723
495 2.37142
500 2.22301
505 2.19362
510 2.05478
515 1.99866
520 1.94471
525 1.79212
530 1.81024
535 1.71131
540 1.71747
545 1.65393
550 1.55549
555 1.64793
560 1.66529
565 1.61579
570 1.50049
575 1.48073
580 1.36958
585 1.50987
590 1.34696
595 1.27492
600 1.17547
Ex : 368
200 0.71743
205 0.655016
210 0.596856
215 0.682075
220 0.641263
225 0.648002
230 0.725963
235 0.594886
240 0.800308
245 0.709228
250 0.721262
255 0.735231
260 0.785885
265 0.810114
270 0.79641
275 1.00041
280 0.882552
285 0.825764
290 0.941529
295 1.00036
300 1.1059
305 1.35882
310 1.34641
315 1.77063
320 1.70549
325 2.00805
330 2.43486
335 2.99355
340 4.38589
345 6.29524
350 10.736
355 287.307
360 5577.91
365 9290.42
370 2450.08
375 297.306
380 44.2924
385 12.3423
390 7.23066
395 5.70109
400 5.11426
405 6.13635
410 8.18404
415 8.36909
420 6.59361
425 4.43519
430 3.63306
435 3.34722
440 3.09147
445 3.10411
450 3.10174
455 2.93658
460 2.81568
465 2.96648
470 2.79559
475 2.59208
480 2.54158
485 2.53095
490 2.32247
495 2.15102
500 2.19201
505 2.20591
510 1.96684
515 1.91469
520 1.92422
525 1.89742
530 1.70524
535 1.73387
540 1.66432
545 1.61231
550 1.50492
555 1.55278
560 1.57509
565 1.53476
570 1.44218
575 1.31187
580 1.34209
585 1.28998
590 1.16137
595 1.15884
600 0.648012
Ex : 373
200 0.567552
205 0.686843
210 0.579991
215 0.643809
220 0.649561
225 0.625583
230 0.632332
235 0.803887
240 0.653663
245 0.62272
250 0.746177
255 0.707747
260 0.71827
265 0.732825
270 0.692129
275 0.800487
280 0.769365
285 0.778796
290 0.872328
295 1.03856
300 1.07299
305 1.11192
310 1.14032
315 1.38564
320 1.62225
325 1.88049
330 2.07564
335 2.64093
340 3.11852
345 4.12892
350 6.34667
355 11.062
360 351.006
365 5963.97
370 9515.99
375 2462.09
380 297.583
385 44.1297
390 12.3151
395 7.18461
400 5.91142
405 4.80437
410 5.86832
415 7.35464
420 8.00901
425 7.05661
430 4.88544
435 3.78479
440 3.24709
445 3.08865
450 3.06412
455 3.05837
460 2.97737
465 3.02414
470 2.89557
475 2.71208
480 2.50822
485 2.44405
490 2.35239
495 2.23024
500 2.19092
505 2.09265
510 2.20299
515 1.88331
520 1.85278
525 1.72751
530 1.81486
535 1.73931
540 1.62205
545 1.50319
550 1.47104
555 1.50249
560 1.34028
565 1.5071
570 1.4122
575 1.2851
580 1.30821
585 1.18324
590 1.2042
595 1.19786
600 1.68137
Ex : 378
200 0.548226
205 0.570658
210 0.663558
215 0.648623
220 0.594611
225 0.646218
230 0.622241
235 0.623472
240 0.661394
245 0.764486
250 0.639285
255 0.699584
260 0.675811
265 0.717654
270 0.746035
275 0.827178
280 0.793925
285 0.804309
290 0.814223
295 0.886765
300 1.01112
305 1.14003
310 1.13724
315 1.34263
320 1.50007
325 1.5951
330 1.68844
335 2.16695
340 2.75245
345 3.2381
350 4.2853
355 6.37105
360 10.9482
365 338.856
370 6144.02
375 9831.73
380 2527.15
385 305.378
390 45.4163
395 12.8262
400 7.37771
405 5.89597
410 4.82685
415 5.12718
420 6.8014
425 7.92032
430 7.30328
435 5.30736
440 3.80171
445 3.32897
450 3.11319
455 2.89225
460 2.93556
465 2.72625
470 2.81175
475 2.74699
480 2.56786
485 2.34613
490 2.35704
495 2.15517
500 2.17469
505 1.84468
510 1.77254
515 1.84137
520 1.81588
525 1.66704
530 1.6152
535 1.56962
540 1.53801
545 1.57566
550 1.43788
555 1.34755
560 1.47124
565 1.33406
570 1.2486
575 1.29316
580 1.19127
585 1.12896
590 0.976872
595 1.07382
600 1.27515
Ex : 383
200 0.548877
205 0.49398
210 0.608084
215 0.510392
220 0.576774
225 0.567225
230 0.673011
235 0.593504
240 0.570863
245 0.628953
250 0.717713
255 0.723978
260 0.687439
265 0.582344
270 0.626515
275 0.704648
280 0.741951
285 0.796492
290 0.781841
295 0.862403
300 0.974137
305 1.11302
310 1.08307
315 1.13673
320 1.30049
325 1.4492
330 1.69196
335 1.80254
340 2.17016
345 2.66666
350 3.24431
355 4.46106
360 6.70104
365 10.5853
370 321.374
375 6070.17
380 9999.9
385 2658.73
390 321.374
395 47.2594
400 12.7584
405 7.22291
410 5.64227
415 4.35274
420 4.62869
425 6.08553
430 7.09799
435 7.18057
440 5.8257
445 4.07949
450 3.42632
455 3.07739
460 3.15708
465 3.13857
470 2.88516
475 2.72981
480 2.60132
485 2.37987
490 2.4204
495 2.13534
500 2.08638
505 1.9212
510 1.93317
515 1.80873
520 1.68004
525 1.82565
530 1.62321
535 1.47723
540 1.61489
545 1.55642
550 1.4103
555 1.34885
560 1.34073
565 1.23393
570 1.24954
575 1.12082
580 1.16979
585 1.06755
590 1.03162
595 1.10201
600 1.66921
Ex : 388
200 0.56584
205 0.536798
210 0.552042
215 0.552368
220 0.542672
225 0.572173
230 0.592723
235 0.664658
240 0.711328
245 0.599559
250 0.668635
255 0.5676
260 0.66951
265 0.640219
270 0.660445
275 0.715626
280 0.753746
285 0.888662
290 0.902746
295 0.867058
300 0.869766
305 1.09587
310 1.20741
315 1.1671
320 1.29024
325 1.28385
330 1.5083
335 1.61039
340 1.96352
345 2.36558
350 2.89211
355 3.33635
360 4.83056
365 6.86297
370 11.697
375 355.8
380 6533.42
385 9999.9
390 2762.28
395 333.246
400 48.615
405 12.9985
410 7.46785
415 5.67789
420 4.81318
425 4.57542
430 5.74124
435 6.68713
440 7.31513
445 6.594
450 4.35902
455 3.42627
460 3.18819
465 3.11073
470 2.97277
475 2.72254
480 2.60833
485 2.37663
490 2.2937
495 2.23579
500 2.10201
505 2.10087
510 2.01879
515 1.8602
520 1.76506
525 1.74032
530 1.61131
535 1.53993
540 1.50011
545 1.37541
550 1.35336
555 1.40075
560 1.32334
565 1.19987
570 1.22985
575 1.23617
580 1.17012
585 1.00004
590 0.939995
595 1.019
600 1.51091
Ex : 393
200 0.505923
205 0.522169
210 0.585815
215 0.556101
220 0.658843
225 0.604071
230 0.619303
235 0.605404
240 0.659343
245 0.649904
250 0.726688
255 0.689202
260 0.687098
265 0.682891
270 0.825544
275 0.817959
280 0.785899
285 0.864721
290 0.898553
295 0.82709
300 0.901047
305 0.914967
310 1.00459
315 1.11017
320 1.26923
325 1.16664
330 1.36078
335 1.48785
340 1.63709
345 2.0435
350 2.28962
355 2.90892
360 3.55777
365 4.9214
370 6.89473
375 11.4622
380 329.607
385 6752.55
390 9999.9
395 2837.26
400 342.053
405 49.6293
410 13.0098
415 7.01972
420 5.61972
425 4.52423
430 4.09775
435 4.79434
440 6.50802
445 6.63061
450 6.46768
455 4.7681
460 3.59216
465 3.18213
470 2.89062
475 2.81116
480 2.63794
485 2.50503
490 2.32306
495 2.19762
500 2.22024
505 2.01501
510 1.95818
515 1.80765
520 1.80077
525 1.86711
530 1.7537
535 1.6408
540 1.46055
545 1.6257
550 1.44491
555 1.45267
560 1.36455
565 1.36062
570 1.28787
575 1.24283
580 1.17227
585 1.09267
590 1.00961
595 1.05361
600 0.783896
Ex : 398
200 0.53859
205 0.586623
210 0.563747
215 0.548076
220 0.57957
225 0.581009
230 0.618743
235 0.660365
240 0.576533
245 0.552509
250 0.649793
255 0.700972
260 0.625895
265 0.760223
270 0.711517
275 0.695698
280 0.753702
285 0.793084
290 0.768383
295 0.883413
300 0.92073
305 0.923984
310 0.996217
315 1.16535
320 1.12641
325 1.19289
330 1.35496
335 1.51933
340 1.68464
345 1.9347
350 2.00998
355 2.34768
360 2.75503
365 3.70421
370 4.85842
375 6.98148
380 11.5322
385 350.507
390 6934.94
395 9999.9
400 2926.9
405 352.209
410 50.4449
415 12.9494
420 7.32944
425 5.43779
430 4.38786
435 4.01434
440 4.40266
445 5.8619
450 6.59465
455 6.62267
460 5.32766
465 3.86535
470 3.1613
475 2.84524
480 2.63927
485 2.57821
490 2.35515
495 2.17816
500 2.16611
505 2.06952
510 2.01595
515 1.95051
520 1.78357
525 1.78752
530 1.68797
535 1.60035
540 1.58568
545 1.4654
550 1.44603
555 1.37281
560 1.33058
565 1.25874
570 1.17091
575 1.23235
580 1.11101
585 1.08226
590 0.994514
595 1.07787
600 0.5953
Ex : 403
200 0.57762
205 0.628592
210 0.65867
215 0.620752
220 0.61479
225 0.625433
230 0.629112
235 0.647599
240 0.636912
245 0.629255
250 0.598862
255 0.647925
260 0.661253
265 0.672591
270 0.619823
275 0.688796
280 0.769022
285 0.79186
290 0.799807
295 0.890021
300 0.858548
305 0.967011
310 0.931528
315 0.975272
320 1.10603
325 1.13586
330 1.23786
335 1.29449
340 1.44803
345 1.6734
350 1.85471
355 2.11926
360 2.37112
365 2.97042
370 3.83438
375 5.17355
380 7.07806
385 12.5561
390 388.104
395 7418.2
400 9999.9
405 3001.06
410 361.144
415 51.8999
420 13.3887
425 7.70608
430 5.64236
435 4.5927
440 3.97551
445 4.24444
450 5.60838
455 6.32902
460 6.49184
465 5.82426
470 4.2172
475 3.23264
480 2.74698
485 2.5022
490 2.58707
495 2.3678
500 2.38766
505 2.0899
510 2.0715
515 1.8814
520 1.78009
525 1.70099
530 1.72396
535 1.5783
540 1.60605
545 1.57043
550 1.53092
555 1.43543
560 1.40702
565 1.48482
570 1.23673
575 1.18203
580 1.05724
585 0.973085
590 0.954639
595 0.955279
600 0.527055
Ex : 408
200 0.60154
205 0.556396
210 0.568684
215 0.538146
220 0.603883
225 0.57123
230 0.633507
235 0.635756
240 0.570862
245 0.617451
250 0.560373
255 0.650197
260 0.67229
265 0.695655
270 0.669069
275 0.727384
280 0.763555
285 0.736309
290 0.825564
295 0.832204
300 0.833489
305 0.817096
310 0.868976
315 1.02225
320 1.05823
325 1.08616
330 1.25545
335 1.34772
340 1.4584
345 1.60761
350 1.72729
355 2.01738
360 2.07789
365 2.60274
370 3.15877
375 3.8072
380 5.14993
385 7.52102
390 12.7943
395 384.352
400 7524.61
405 9999.9
410 2936.72
415 353.449
420 50.8839
425 13.1367
430 7.33436
435 5.70795
440 4.49361
445 4.00471
450 3.88669
455 4.96876
460 5.91205
465 5.97326
470 5.8989
475 4.50799
480 3.27026
485 2.738
490 2.48093
495 2.39144
500 2.09177
505 2.12132
510 1.96391
515 1.99213
520 1.88044
525 1.81698
530 1.7114
535 1.63452
540 1.58598
545 1.55006
550 1.43102
555 1.39935
560 1.3952
565 1.37121
570 1.30807
575 1.07182
580 1.07904
585 1.05835
590 1.0123
595 0.999872
600 0.683309
Ex : 413
200 0.618376
205 0.522563
210 0.506828
215 0.613193
220 0.596734
225 0.545248
230 0.5514
235 0.568868
240 0.628247
245 0.567346
250 0.696271
255 0.692084
260 0.712325
265 0.675659
270 0.603017
275 0.71689
280 0.694904
285 0.80437
290 0.790894
295 0.790388
300 0.811034
305 0.849602
310 0.885055
315 0.973495
320 1.03597
325 1.13913
330 1.18593
335 1.27775
340 1.2983
345 1.40811
350 1.60612
355 1.69586
360 2.01827
365 2.23786
370 2.62918
375 3.24854
380 3.83853
385 5.42126
390 8.00546
395 13.447
400 441.253
405 8064.19
410 9999.9
415 2905.99
420 349.247
425 50.3583
430 13.2705
435 7.56265
440 5.8389
445 4.47505
450 4.25096
455 3.98489
460 4.70773
465 5.70817
470 5.83316
475 5.74885
480 4.63459
485 3.2822
490 2.77246
495 2.47684
500 2.25893
505 2.10932
510 2.08841
515 2.11037
520 1.87528
525 1.85217
530 1.75398
535 1.6312
540 1.56702
545 1.57094
550 1.57409
555 1.41036
560 1.28551
565 1.33099
570 1.25075
575 1.13348
580 1.01911
585 1.10671
590 1.04619
595 0.893749
600 0.620871
Ex : 418
200 0.593286
205 0.589255
210 0.643397
215 0.540606
220 0.607332
225 0.592277
230 0.566963
235 0.608181
240 0.593454
245 0.58495
250 0.678777
255 0.617248
260 0.639529
265 0.661241
270 0.790633
275 0.760363
280 0.681578
285 0.697155
290 0.721668
295 0.707346
300 0.832565
305 0.84363
310 0.942728
315 1.03878
320 0.984183
325 1.01644
330 1.08989
335 1.09534
340 1.17171
345 1.31332
350 1.43776
355 1.60804
360 1.87532
365 1.95642
370 2.33937
375 2.56657
380 3.17783
385 4.01733
390 5.33494
395 8.19649
400 13.3904
405 410.937
410 7952.73
415 9999.9
420 3029.14
425 363.739
430 52.3825
435 13.5097
440 7.60211
445 6.1383
450 4.71014
455 4.05361
460 4.04001
465 4.11005
470 5.15408
475 5.50244
480 5.39593
485 4.87997
490 3.46997
495 2.70393
500 2.27825
505 2.20886
510 2.07166
515 1.98795
520 2.0338
525 1.75944
530 1.70668
535 1.68865
540 1.66127
545 1.56114
550 1.55888
555 1.4271
560 1.40682
565 1.31064
570 1.24505
575 1.20356
580 1.04596
585 0.983923
590 1.02268
595 0.954047
600 0.630709
Ex : 423
200 0.564999
205 0.624853
210 0.551272
215 0.592095
220 0.557007
225 0.609117
230 0.577822
235 0.565699
240 0.55181
245 0.590428
250 0.686845
255 0.671458
260 0.634844
265 0.676488
270 0.708786
275 0.748672
280 0.761593
285 0.788817
290 0.779911
295 0.861315
300 0.856121
305 0.831793
310 0.924879
315 0.944442
320 0.960958
325 1.07159
330 1.1876
335 1.14501
340 1.31948
345 1.28587
350 1.36144
355 1.49336
360 1.64448
365 1.88867
370 2.07026
375 2.32441
380 2.78831
385 3.41442
390 4.39579
395 6.09497
400 8.58274
405 14.0131
410 444.421
415 8666.6
420 9999.9
425 2977.87
430 358.507
435 52.3605
440 13.5659
445 7.96387
450 6.12582
455 4.74173
460 4.2487
465 4.04808
470 4.00645
475 4.73527
480 5.35341
485 5.14856
490 5.07776
495 3.91121
500 2.95811
505 2.36857
510 2.11993
515 2.11759
520 1.93792
525 1.88501
530 1.75968
535 1.69209
540 1.66967
545 1.46479
550 1.46213
555 1.44548
560 1.46671
565 1.43972
570 1.2385
575 1.21867
580 1.00754
585 1.04541
590 0.882928
595 1.04478
600 1.25006
Ex : 428
200 0.588204
205 0.573439
210 0.543171
215 0.527762
220 0.609007
225 0.579084
230 0.551517
235 0.622136
240 0.61833
245 0.617024
250 0.631237
255 0.668504
260 0.604126
265 0.696944
270 0.70424
275 0.732182
280 0.69621
285 0.752296
290 0.82668
295 0.842899
300 0.804988
305 0.831111
310 0.89164
315 0.934638
320 0.979595
325 1.04519
330 1.038
335 1.16949
340 1.20066
345 1.19799
350 1.35181
355 1.40268
360 1.61003
365 1.77919
370 1.84886
375 2.10283
380 2.38098
385 2.83809
390 3.51693
395 4.59296
400 5.99232
405 8.60218
410 14.6188
415 476.445
420 8659.29
425 9999.9
430 3165.33
435 380.283
440 54.7235
445 14.5591
450 8.36846
455 6.39211
460 4.78953
465 4.40552
470 4.05008
475 3.84449
480 4.497
485 5.22132
490 5.03641
495 4.84564
500 4.06208
505 2.92418
510 2.45485
515 2.20155
520 1.9456
525 1.89236
530 1.84046
535 1.69382
540 1.64451
545 1.69018
550 1.53017
555 1.38454
560 1.4827
565 1.35078
570 1.2845
575 1.17137
580 1.0519
585 1.03838
590 1.04361
595 1.05089
600 0.722647
Ex : 433
200 0.545054
205 0.67835
210 0.587029
215 0.614757
220 0.54983
225 0.674399
230 0.621039
235 0.693833
240 0.587592
245 0.563866
250 0.680502
255 0.671584
260 0.74257
265 0.683861
270 0.77055
275 0.770189
280 0.849687
285 0.776216
290 0.747212
295 0.782884
300 0.892264
305 0.81763
310 0.925864
315 0.868228
320 0.91584
325 0.952664
330 1.127
335 1.1878
340 1.19189
345 1.17687
350 1.22874
355 1.42926
360 1.45997
365 1.72281
370 1.76232
375 1.85861
380 2.14561
385 2.57411
390 3.07877
395 3.67775
400 4.56596
405 6.2379
410 9.5534
415 15.4043
420 545.231
425 9401.42
430 9999.9
435 3037.09
440 365.449
445 53.8027
450 14.6762
455 8.71955
460 6.60609
465 5.05344
470 4.30274
475 3.94783
480 3.77501
485 4.0686
490 5.02183
495 4.87983
500 4.72792
505 4.31266
510 3.21528
515 2.45765
520 2.15216
525 2.01684
530 1.86278
535 1.89563
540 1.73845
545 1.74238
550 1.53881
555 1.54079
560 1.50272
565 1.35096
570 1.39885
575 1.32521
580 1.12824
585 1.11586
590 1.08867
595 1.05906
600 0.591156
Ex : 438
200 0.639595
205 0.570977
210 0.575935
215 0.631526
220 0.575534
225 0.615822
230 0.565916
235 0.621507
240 0.680415
245 0.749267
250 0.697095
255 0.67223
260 0.684452
265 0.677497
270 0.714276
275 0.721401
280 0.751449
285 0.785386
290 0.73991
295 0.74601
300 0.777441
305 0.795041
310 0.878415
315 0.909891
320 0.914796
325 0.999131
330 1.00093
335 0.983295
340 1.19838
345 1.31949
350 1.33081
355 1.37412
360 1.48245
365 1.54019
370 1.65914
375 1.64082
380 2.06396
385 2.26088
390 2.64294
395 3.07332
400 3.8871
405 4.82642
410 6.58277
415 9.71694
420 15.5425
425 523.004
430 9346.91
435 9999.9
440 3110.05
445 374.719
450 55.0964
455 14.9271
460 8.5834
465 7.09111
470 4.95015
475 4.33257
480 4.00029
485 3.59304
490 3.73197
495 4.41299
500 4.60962
505 4.52744
510 4.39206
515 3.3908
520 2.47223
525 2.20497
530 1.94961
535 1.67497
540 1.75824
545 1.64426
550 1.6749
555 1.62198
560 1.4132
565 1.29262
570 1.29465
575 1.21413
580 1.15218
585 1.08649
590 1.09232
595 0.954904
600 0.763247
Ex : 443
200 0.631251
205 0.590201
210 0.622909
215 0.631109
220 0.625999
225 0.586049
230 0.641087
235 0.643419
240 0.593327
245 0.567106
250 0.723874
255 0.721766
260 0.725803
265 0.727665
270 0.6641
275 0.754904
280 0.742805
285 0.837723
290 0.765264
295 0.887981
300 0.827287
305 0.903264
310 0.906756
315 0.953897
320 0.954785
325 0.99292
330 0.989322
335 1.01791
340 1.16173
345 1.21385
350 1.22405
355 1.28381
360 1.40871
365 1.41563
370 1.62451
375 1.7957
380 1.88527
385 2.10907
390 2.59007
395 2.85471
400 3.24264
405 3.90604
410 5.03998
415 6.78384
420 9.96454
425 15.9767
430 586.165
435 9994.67
440 9999.9
445 3205.9
450 386.176
455 57.0131
460 15.6825
465 9.45649
470 6.84199
475 5.11766
480 4.41298
485 3.89478
490 3.72241
495 3.59935
500 4.23159
505 4.74484
510 4.41558
515 4.28662
520 3.55166
525 2.61796
530 2.13763
535 1.95794
540 1.75197
545 1.80241
550 1.7171
555 1.57782
560 1.37386
565 1.37517
570 1.35451
575 1.2862
580 1.18697
585 1.06971
590 1.02381
595 1.06286
600 1.20718
Ex : 448
200 0.599823
205 0.550987
210 0.652396
215 0.624435
220 0.678879
225 0.669025
230 0.749838
235 0.614706
240 0.660895
245 0.61979
250 0.688441
255 0.704755
260 0.736206
265 0.692548
270 0.661321
275 0.689907
280 0.779784
285 0.715188
290 0.878618
295 0.80703
300 0.8508
305 0.940283
310 0.954342
315 1.00826
320 0.93346
325 1.06309
330 1.02518
335 1.18503
340 1.19566
345 1.16692
350 1.17772
355 1.3094
360 1.45478
365 1.48141
370 1.66773
375 1.71185
380 1.85964
385 2.02624
390 2.21597
395 2.45531
400 2.78722
405 3.54221
410 4.0726
415 5.39848
420 7.00831
425 10.1947
430 16.643
435 629.849
440 9999.9
445 9999.9
450 3167.87
455 381.855
460 56.9376
465 16.1581
470 8.97808
475 6.64099
480 4.88406
485 4.15878
490 3.79867
495 3.51558
500 3.30521
505 3.92991
510 4.19504
515 4.01538
520 4.08321
525 3.67665
530 2.79139
535 2.11602
540 1.90869
545 1.73662
550 1.72717
555 1.55514
560 1.49423
565 1.50149
570 1.35815
575 1.26007
580 1.14844
585 1.13522
590 1.047
595 1.02844
600 1.01582
Ex : 453
200 0.636077
205 0.579759
210 0.64927
215 0.633066
220 0.692308
225 0.645435
230 0.661047
235 0.592889
240 0.639388
245 0.630303
250 0.698338
255 0.74738
260 0.75755
265 0.679326
270 0.695732
275 0.786289
280 0.831482
285 0.800887
290 0.805177
295 0.778768
300 0.808142
305 0.8117
310 0.821348
315 0.939067
320 0.918294
325 0.972433
330 0.951186
335 0.994156
340 1.06802
345 1.10662
350 1.15706
355 1.20809
360 1.37585
365 1.46655
370 1.51528
375 1.58899
380 1.70118
385 1.98532
390 2.25306
395 2.31472
400 2.53793
405 3.01414
410 3.41993
415 4.18572
420 5.31165
425 6.75105
430 10.1709
435 16.6594
440 648.645
445 9999.9
450 9999.9
455 3147.08
460 380.423
465 57.4294
470 16.0947
475 8.70191
480 6.68221
485 4.97815
490 4.0999
495 3.87298
500 3.67665
505 3.44651
510 3.30711
515 4.11994
520 4.16928
525 3.89919
530 3.89882
535 3.03463
540 2.29036
545 1.96163
550 1.79075
555 1.69209
560 1.66767
565 1.5708
570 1.4924
575 1.33308
580 1.24123
585 1.16485
590 1.12586
595 1.0414
600 0.926803
Ex : 458
200 0.624393
205 0.635269
210 0.70934
215 0.687383
220 0.733377
225 0.672495
230 0.731394
235 0.686386
240 0.683074
245 0.677694
250 0.676723
255 0.721858
260 0.749494
265 0.732432
270 0.801418
275 0.757687
280 0.760669
285 0.779147
290 0.835412
295 0.859011
300 0.835136
305 0.878346
310 0.961569
315 1.03941
320 1.01432
325 0.973693
330 1.0574
335 1.06841
340 1.13023
345 1.12118
350 1.23778
355 1.18851
360 1.36303
365 1.50477
370 1.55781
375 1.59936
380 1.63223
385 1.87628
390 2.17987
395 2.18767
400 2.40564
405 2.6621
410 3.16815
415 3.63223
420 4.32868
425 5.41355
430 7.27461
435 10.6673
440 17.608
445 716.019
450 9999.9
455 9999.9
460 3338.48
465 403.882
470 59.8627
475 16.2465
480 9.21136
485 6.55754
490 5.19585
495 4.12779
500 3.89894
505 3.65497
510 3.35663
515 3.39446
520 3.85587
525 4.05263
530 3.76764
535 3.58216
540 3.28647
545 2.47726
550 1.91657
555 1.80931
560 1.60574
565 1.58319
570 1.53908
575 1.41418
580 1.34962
585 1.179
590 1.18599
595 1.07798
600 0.975221
Ex : 463
200 0.70523
205 0.800688
210 0.751294
215 0.659398
220 0.64893
225 0.750774
230 0.653308
235 0.654312
240 0.750853
245 0.772889
250 0.818063
255 0.772541
260 0.673418
265 0.772047
270 0.762467
275 0.754476
280 0.831474
285 0.848454
290 0.80489
295 0.86861
300 0.944345
305 1.06959
310 0.985342
315 1.04783
320 1.01999
325 1.06152
330 1.07489
335 1.12771
340 1.19262
345 1.17556
350 1.26431
355 1.28674
360 1.37846
365 1.42275
370 1.52533
375 1.61903
380 1.71602
385 1.82703
390 2.10194
395 2.2327
400 2.34436
405 2.4562
410 2.8385
415 3.13657
420 3.64568
425 4.32516
430 5.44883
435 7.52854
440 10.7051
445 18.0737
450 732.589
455 9999.9
460 9999.9
465 3527.42
470 425.29
475 61.766
480 16.4838
485 9.06551
490 6.75876
495 4.97512
500 4.16629
505 3.93001
510 3.51831
515 3.50963
520 3.20808
525 3.54612
530 3.8524
535 3.62158
540 3.36407
545 3.61318
550 2.7209
555 2.12247
560 1.84831
565 1.55004
570 1.57287
575 1.41041
580 1.43969
585 1.25213
590 1.20766
595 1.27258
600 1.19477
Ex : 468
200 0.628697
205 0.633444
210 0.69022
215 0.645331
220 0.775307
225 0.700131
230 0.748065
235 0.69599
240 0.609716
245 0.74773
250 0.695799
255 0.766873
260 0.750279
265 0.725343
270 0.777481
275 0.748991
280 0.864422
285 0.824448
290 0.873837
295 0.829963
300 0.897942
305 0.974214
310 0.964043
315 0.945274
320 0.946166
325 1.03589
330 1.0952
335 1.04878
340 1.24455
345 1.24225
350 1.18524
355 1.2375
360 1.34628
365 1.43731
370 1.47885
375 1.52918
380 1.66512
385 1.78358
390 1.81908
395 1.91605
400 2.10744
405 2.25376
410 2.5593
415 2.73128
420 3.10967
425 3.62727
430 4.29859
435 5.22249
440 7.16772
445 10.5576
450 17.8879
455 779.687
460 9999.9
465 9999.9
470 3632.3
475 434.61
480 62.5528
485 16.0277
490 8.49062
495 6.30889
500 4.57367
505 4.14163
510 3.70745
515 3.41619
520 3.28927
525 3.01037
530 3.18632
535 3.51824
540 3.49913
545 3.29721
550 3.17921
555 2.67213
560 2.19232
565 1.75283
570 1.69592
575 1.48274
580 1.4006
585 1.31357
590 1.21782
595 1.13781
600 1.00441
Ex : 473
200 0.674295
205 0.630824
210 0.691717
215 0.752885
220 0.774835
225 0.747788
230 0.83831
235 0.828761
240 0.687649
245 0.737028
250 0.787956
255 0.766023
260 0.76206
265 0.800514
270 0.843697
275 0.794453
280 0.815112
285 0.856815
290 0.96567
295 0.937234
300 0.825193
305 0.890464
310 1.00061
315 1.00619
320 0.960309
325 1.11091
330 1.07704
335 1.07588
340 1.0796
345 1.34482
350 1.29303
355 1.18777
360 1.24284
365 1.332
370 1.53244
375 1.59554
380 1.67831
385 1.80913
390 1.81578
395 2.07246
400 2.14598
405 2.18959
410 2.43452
415 2.57836
420 2.99796
425 3.32373
430 3.78117
435 4.477
440 5.79085
445 7.81888
450 11.344
455 19.5449
460 881.73
465 9999.9
470 9999.9
475 3552.06
480 426.838
485 61.7957
490 16.19
495 9.04417
500 6.37542
505 4.94129
510 4.2112
515 3.73917
520 3.55355
525 3.57643
530 3.23006
535 3.1127
540 3.44089
545 3.606
550 3.21845
555 2.96117
560 2.93774
565 2.37091
570 1.93433
575 1.67758
580 1.45881
585 1.45152
590 1.39264
595 1.21214
600 0.959013
Ex : 478
200 0.832401
205 0.732471
210 0.799622
215 0.737927
220 0.771621
225 0.765949
230 0.855567
235 0.975246
240 0.808814
245 0.770173
250 0.847971
255 0.810791
260 0.833865
265 0.888381
270 0.932642
275 0.862505
280 0.874919
285 0.878839
290 0.922987
295 0.826189
300 0.997062
305 1.04805
310 0.963512
315 1.0623
320 1.08779
325 1.19539
330 1.13037
335 1.1421
340 1.12067
345 1.30684
350 1.38907
355 1.3393
360 1.35153
365 1.30178
370 1.49297
375 1.60449
380 1.61034
385 1.8281
390 1.86039
395 1.96722
400 2.23378
405 2.41411
410 2.46624
415 2.62915
420 2.9465
425 3.22937
430 3.75037
435 4.25063
440 4.89042
445 6.4985
450 8.94313
455 13.3992
460 22.6477
465 1000.98
470 9999.9
475 9999.9
480 3695.6
485 444.731
490 65.527
495 17.4213
500 9.84028
505 6.82039
510 5.15434
515 4.58618
520 4.03288
525 3.82163
530 3.50078
535 3.16353
540 3.07506
545 3.28102
550 3.41518
555 3.26973
560 3.06513
565 2.91046
570 2.42288
575 1.79155
580 1.60256
585 1.50639
590 1.44421
595 1.38794
600 1.76554
Ex : 483
200 0.712157
205 0.706876
210 0.734834
215 0.820663
220 0.780277
225 0.81954
230 0.82975
235 1.13627
240 0.92286
245 0.833083
250 0.770732
255 0.876733
260 0.877191
265 0.943357
270 0.941643
275 0.917738
280 1.01509
285 0.899937
290 0.889559
295 0.987163
300 0.90218
305 0.993844
310 0.974043
315 1.02958
320 1.14383
325 1.15364
330 1.10278
335 1.20563
340 1.23467
345 1.15447
350 1.28054
355 1.32701
360 1.49619
365 1.45623
370 1.52355
375 1.54732
380 1.7946
385 1.89967
390 1.85575
395 2.02958
400 2.13581
405 2.3235
410 2.32971
415 2.47063
420 2.79068
425 2.95861
430 3.43251
435 3.6663
440 4.35288
445 5.11075
450 6.98482
455 9.42887
460 14.0977
465 24.1743
470 818.328
475 9999.9
480 9999.9
485 3873.45
490 465.441
495 67.4001
500 17.5937
505 10.0853
510 7.225
515 5.43402
520 4.60298
525 4.0238
530 4.03545
535 3.61745
540 3.24934
545 3.07038
550 2.98011
555 3.26524
560 3.23826
565 2.88766
570 2.83479
575 2.54864
580 2.0446
585 1.66076
590 1.5156
595 1.37169
600 1.77195
Ex : 488
200 0.754501
205 0.770983
210 0.880892
215 0.860163
220 0.814157
225 0.870507
230 0.803032
235 0.998751
240 1.29651
245 0.944376
250 0.858594
255 0.858767
260 0.887658
265 0.860478
270 0.839671
275 0.915129
280 0.918298
285 0.914664
290 0.91406
295 0.93113
300 0.989374
305 1.04599
310 1.07135
315 0.954826
320 1.12674
325 1.10987
330 1.0323
335 1.20668
340 1.19604
345 1.23912
350 1.36525
355 1.3467
360 1.45009
365 1.57356
370 1.47548
375 1.5483
380 1.67078
385 1.78904
390 1.97938
395 1.79691
400 2.14357
405 2.18973
410 2.3985
415 2.51232
420 2.76492
425 2.91142
430 3.21934
435 3.51615
440 4.09673
445 4.79571
450 5.77713
455 7.66584
460 10.6734
465 16.3624
470 24.8115
475 979.789
480 9999.9
485 9999.9
490 3630.65
495 437.994
500 64.134
505 17.2626
510 9.99247
515 7.10649
520 5.3727
525 4.54287
530 4.1693
535 3.88859
540 3.66254
545 3.33985
550 3.07673
555 2.77628
560 3.02537
565 3.09798
570 2.81482
575 2.46335
580 2.41198
585 1.96813
590 1.731
595 1.5154
600 2.2098
Ex : 493
200 0.876386
205 0.716508
210 0.787261
215 0.707175
220 0.784562
225 0.833178
230 0.76818
235 0.904397
240 1.41864
245 1.21329
250 0.978854
255 0.970492
260 0.817721
265 0.8234
270 0.922591
275 0.93361
280 0.958395
285 0.998612
290 1.01084
295 0.951712
300 0.983098
305 1.04165
310 1.06767
315 1.04266
320 1.08848
325 1.06612
330 1.10993
335 1.27325
340 1.17576
345 1.38538
350 1.36302
355 1.38626
360 1.26326
365 1.45146
370 1.66351
375 1.45486
380 1.65165
385 1.69725
390 1.78915
395 2.06215
400 2.01736
405 2.05539
410 2.34929
415 2.39743
420 2.5118
425 2.81402
430 3.0513
435 3.19014
440 3.55151
445 4.21095
450 5.0794
455 5.89192
460 7.94981
465 11.0395
470 15.3621
475 23.5084
480 939.857
485 9999.9
490 9999.9
495 3742.83
500 449.874
505 65.6362
510 17.5447
515 9.91163
520 7.29493
525 5.61888
530 5.03606
535 4.1011
540 3.89528
545 3.56899
550 3.67976
555 2.96066
560 2.92096
565 2.92824
570 3.1559
575 2.73631
580 2.37257
585 2.20433
590 1.97948
595 1.92358
600 1.58848
Ex : 498
200 0.861785
205 0.956165
210 0.86789
215 0.865258
220 0.857487
225 1.00079
230 0.828617
235 0.952664
240 1.1701
245 1.7749
250 0.971788
255 0.824461
260 0.862122
265 1.02329
270 0.969284
275 0.890341
280 1.02841
285 0.990709
290 0.988425
295 1.03078
300 0.946821
305 1.12812
310 1.14049
315 1.09189
320 1.1749
325 1.1421
330 1.30724
335 1.32172
340 1.35461
345 1.44368
350 1.35684
355 1.36441
360 1.22452
365 1.4572
370 1.5806
375 1.53896
380 1.47339
385 1.55366
390 1.6291
395 1.94248
400 1.91105
405 2.09475
410 2.33033
415 2.33984
420 2.37053
425 2.7523
430 2.884
435 3.03829
440 3.44553
445 3.80082
450 4.38833
455 5.54351
460 6.46034
465 8.63904
470 11.286
475 15.6577
480 25.1783
485 1124.89
490 9999.9
495 9999.9
500 3671.1
505 442.706
510 65.747
515 17.9095
520 9.73266
525 7.32122
530 5.65822
535 4.74234
540 4.3533
545 3.85644
550 3.55354
555 3.57358
560 2.98537
565 3.03329
570 2.82319
575 2.73827
580 2.55874
585 2.21813
590 2.17382
595 2.03305
600 1.67904
Ex : 503
200 0.887707
205 0.849679
210 0.80945
215 0.97736
220 0.957879
225 0.818363
230 0.915634
235 0.805532
240 1.01907
245 1.76781
250 1.42915
255 0.964091
260 0.844446
265 1.03203
270 0.961069
275 0.976516
280 0.931108
285 0.961187
290 1.0045
295 0.951976
300 1.09232
305 1.09214
310 0.975344
315 1.08267
320 1.04858
325 1.15039
330 1.10677
335 1.26332
340 1.26178
345 1.32112
350 1.51328
355 1.44041
360 1.59695
365 1.45435
370 1.42234
375 1.61457
380 1.67269
385 1.66689
390 1.90383
395 1.94877
400 1.89898
405 2.13235
410 2.21051
415 2.408
420 2.46756
425 2.53312
430 2.90393
435 2.87321
440 3.1785
445 3.66778
450 3.89257
455 4.7398
460 5.6386
465 6.83208
470 8.74985
475 11.1803
480 16.1637
485 25.475
490 1057.88
495 9999.9
500 9999.9
505 3788.18
510 457.303
515 67.343
520 18.1297
525 9.99352
530 7.39952
535 5.66428
540 4.60914
545 4.36007
550 4.0136
555 3.71685
560 3.63265
565 3.33999
570 2.91483
575 2.67979
580 2.54009
585 2.62794
590 2.24302
595 2.11579
600 1.98075
Ex : 508
200 0.790733
205 0.780555
210 0.85685
215 0.864656
220 0.886161
225 0.855086
230 0.983509
235 0.945187
240 0.876314
245 1.28945
250 1.94288
255 1.15392
260 0.994073
265 0.972916
270 1.01859
275 1.0115
280 0.984531
285 0.926456
290 0.927615
295 0.882494
300 0.961572
305 1.15144
310 1.07296
315 1.22311
320 1.13596
325 1.05406
330 1.13139
335 1.22473
340 1.1702
345 1.32068
350 1.33556
355 1.46381
360 1.3841
365 1.5948
370 1.41427
375 1.54983
380 1.76291
385 1.65989
390 1.6619
395 1.86878
400 1.95722
405 2.08736
410 2.18924
415 2.22538
420 2.39199
425 2.69087
430 2.73614
435 2.88047
440 3.13227
445 3.2344
450 3.61097
455 4.14544
460 5.19044
465 6.07221
470 6.7685
475 8.64215
480 11.6146
485 16.1075
490 26.7397
495 1142.31
500 9999.9
505 9999.9
510 4059.53
515 488.893
520 71.1581
525 18.6522
530 10.4411
535 7.42069
540 5.7489
545 4.74471
550 4.23813
555 3.89459
560 3.81782
565 3.49191
570 3.10104
575 2.96356
580 2.51729
585 2.30782
590 2.28915
595 2.11092
600 2.74044
Ex : 513
200 0.810073
205 0.861725
210 0.799935
215 0.95537
220 0.935648
225 0.97244
230 0.956826
235 0.923709
240 0.761984
245 1.00678
250 3.28435
255 2.7589
260 1.04054
265 0.900174
270 1.04649
275 1.09088
280 1.01212
285 1.00967
290 1.08661
295 1.04108
300 1.17332
305 1.08936
310 1.08761
315 1.27496
320 1.36826
325 1.23219
330 1.1302
335 1.24311
340 1.18546
345 1.16347
350 1.36145
355 1.46293
360 1.4535
365 1.49452
370 1.56544
375 1.41836
380 1.66931
385 1.83151
390 1.80167
395 1.80617
400 1.86666
405 1.86005
410 2.04894
415 2.30069
420 2.10012
425 2.26243
430 2.57903
435 2.79432
440 2.92423
445 3.11253
450 3.4257
455 3.83127
460 4.48293
465 5.07475
470 5.65357
475 6.69352
480 8.72799
485 11.7639
490 16.8568
495 26.2835
500 1051.01
505 9999.9
510 9999.9
515 4215.06
520 507.348
525 73.6312
530 18.9269
535 10.3444
540 7.6645
545 5.76953
550 4.74727
555 4.54321
560 4.068
565 3.7916
570 3.47926
575 3.05866
580 2.82583
585 2.5418
590 2.34223
595 2.30083
600 2.21069
Ex : 518
200 0.88811
205 0.861718
210 0.948858
215 0.985571
220 1.0028
225 1.08786
230 1.09879
235 0.953266
240 0.960102
245 0.886677
250 2.76757
255 6.98919
260 2.14538
265 1.10786
270 0.869807
275 1.0809
280 0.948617
285 1.00576
290 0.956181
295 1.06158
300 1.25542
305 1.0442
310 1.16092
315 1.14854
320 1.22912
325 1.27586
330 1.15598
335 1.39678
340 1.22017
345 1.34807
350 1.3052
355 1.37728
360 1.54932
365 1.5415
370 1.46744
375 1.54248
380 1.54788
385 1.62034
390 1.72035
395 1.7442
400 1.88742
405 1.91532
410 2.04488
415 2.1507
420 2.14473
425 2.57761
430 2.44358
435 2.61538
440 2.73755
445 3.0868
450 3.31503
455 3.47384
460 4.07514
465 4.6567
470 4.92727
475 5.72176
480 6.89668
485 8.77302
490 11.8537
495 15.8542
500 25.9191
505 1041.66
510 9999.9
515 9999.9
520 4293.01
525 515.855
530 74.3016
535 18.9852
540 10.2475
545 7.49909
550 5.77442
555 4.88384
560 4.42769
565 4.30235
570 3.89054
575 3.29352
580 3.00497
585 2.62604
590 2.43802
595 2.28152
600 2.03204
Ex : 523
200 0.800945
205 0.834571
210 0.894532
215 0.867672
220 0.940546
225 0.90208
230 0.87879
235 0.88821
240 1.01489
245 0.994874
250 1.34391
255 9.48864
260 6.99043
265 1.70341
270 1.11214
275 1.16415
280 1.16092
285 1.18633
290 1.15368
295 1.19922
300 1.13804
305 1.10652
310 1.20407
315 1.20531
320 1.30531
325 1.15164
330 1.29716
335 1.32049
340 1.22186
345 1.23894
350 1.32515
355 1.38842
360 1.35906
365 1.54763
370 1.51083
375 1.47187
380 1.48481
385 1.60925
390 1.83788
395 1.84278
400 1.80849
405 1.84207
410 1.95961
415 1.90404
420 2.28351
425 2.34981
430 2.24077
435 2.42608
440 2.70894
445 2.926
450 3.13552
455 3.47603
460 3.83788
465 4.45447
470 4.56603
475 5.08267
480 6.00403
485 7.12925
490 8.89336
495 11.2729
500 16.0068
505 24.7725
510 960.62
515 9999.9
520 9999.9
525 4412.64
530 529.435
535 75.9857
540 19.0175
545 10.5464
550 7.50957
555 5.57348
560 4.96382
565 4.14237
570 4.13886
575 3.75537
580 3.11831
585 3.0647
590 2.57464
595 2.36083
600 1.50346
Ex : 528
200 0.876017
205 0.868837
210 0.974744
215 0.88195
220 0.899356
225 0.861665
230 0.919414
235 0.874943
240 0.94783
245 0.922863
250 0.990909
255 5.51691
260 15.707
265 4.19665
270 1.42798
275 1.11263
280 1.1213
285 1.11315
290 0.973654
295 1.0449
300 1.23953
305 1.10689
310 1.02148
315 1.22931
320 1.17737
325 1.32071
330 1.18967
335 1.29253
340 1.2937
345 1.19917
350 1.37064
355 1.35318
360 1.33385
365 1.57983
370 1.69097
375 1.57131
380 1.5696
385 1.75061
390 1.60597
395 1.71452
400 1.7783
405 1.70878
410 1.77843
415 2.05646
420 1.81797
425 2.18014
430 2.24514
435 2.43526
440 2.60245
445 2.80426
450 2.982
455 3.01299
460 3.60659
465 3.79806
470 4.35503
475 4.44709
480 5.4184
485 5.85834
490 6.80591
495 8.81086
500 11.7121
505 16.015
510 24.4618
515 900.233
520 9999.9
525 9999.9
530 4341.09
535 522.474
540 74.6629
545 18.8254
550 10.1852
555 7.48387
560 5.43587
565 4.6478
570 4.1775
575 3.99003
580 3.69023
585 3.2632
590 2.98758
595 2.65122
600 1.564
Ex : 533
200 0.900399
205 0.894679
210 0.950812
215 0.914211
220 0.889115
225 1.00753
230 0.9947
235 0.943868
240 0.823326
245 0.905559
250 1.00184
255 1.72276
260 18.2502
265 14.0702
270 2.53544
275 1.23879
280 1.18104
285 1.33693
290 1.2667
295 1.26659
300 1.14189
305 1.18583
310 1.12138
315 1.36349
320 1.23241
325 1.09442
330 1.24902
335 1.22737
340 1.36175
345 1.33491
350 1.32681
355 1.51491
360 1.35439
365 1.474
370 1.38958
375 1.53431
380 1.37168
385 1.48545
390 1.68129
395 1.70733
400 1.58547
405 1.91484
410 1.89863
415 1.92498
420 2.0362
425 2.19001
430 2.04254
435 2.39879
440 2.47644
445 2.62749
450 2.86615
455 3.12347
460 3.25495
465 3.74431
470 3.92825
475 4.30277
480 4.8181
485 4.87939
490 5.77157
495 7.03404
500 8.79706
505 11.0759
510 15.7082
515 25.2541
520 912.283
525 9999.9
530 9999.9
535 4530.96
540 543.939
545 77.3821
550 19.5166
555 10.4583
560 7.28632
565 5.60559
570 4.45092
575 4.21255
580 3.69369
585 3.48386
590 3.22512
595 2.81484
600 1.95845
Ex : 538
200 0.747224
205 0.890115
210 0.912288
215 0.935711
220 0.906605
225 0.900147
230 0.930704
235 0.918787
240 0.972741
245 0.929063
250 0.92435
255 1.05916
260 9.29561
265 31.2084
270 8.05589
275 1.95795
280 1.28986
285 1.29683
290 1.28349
295 1.14265
300 1.13282
305 1.26453
310 1.12582
315 1.10286
320 1.23555
325 1.1766
330 1.24691
335 1.20631
340 1.24489
345 1.30256
350 1.21816
355 1.23132
360 1.42508
365 1.37633
370 1.45705
375 1.4202
380 1.52927
385 1.7516
390 1.63516
395 1.72916
400 1.65048
405 1.60028
410 1.97506
415 1.99895
420 2.08176
425 2.0046
430 2.08153
435 2.39924
440 2.348
445 2.53871
450 2.76251
455 2.79716
460 3.08039
465 3.36868
470 3.63205
475 3.70513
480 4.07736
485 4.63721
490 4.91939
495 5.48565
500 6.82801
505 8.55692
510 11.2153
515 15.3277
520 24.3194
525 794.05
530 9999.9
535 9999.9
540 4888.15
545 586.348
550 82.6327
555 20.0889
560 10.4818
565 7.59953
570 5.38664
575 4.43368
580 4.24507
585 3.96757
590 3.71972
595 3.22265
600 3.30836
Ex : 543
200 0.805126
205 0.901072
210 0.977869
215 0.962098
220 0.93902
225 0.829251
230 0.979993
235 0.95182
240 0.925598
245 0.959339
250 0.902714
255 1.00645
260 2.28412
265 32.7926
270 27.3719
275 4.31312
280 1.52249
285 1.12777
290 1.43726
295 1.35471
300 1.33181
305 1.12649
310 1.351
315 1.35248
320 1.20628
325 1.20396
330 1.09017
335 1.23021
340 1.2968
345 1.25415
350 1.17685
355 1.21337
360 1.35119
365 1.44653
370 1.51147
375 1.45025
380 1.3829
385 1.523
390 1.42951
395 1.72109
400 1.69928
405 1.78218
410 1.79493
415 1.85513
420 1.92339
425 1.92712
430 2.06034
435 2.12803
440 2.29005
445 2.48334
450 2.50447
455 2.97009
460 3.0366
465 3.38451
470 3.47994
475 3.49048
480 3.87869
485 4.1014
490 4.32398
495 4.78151
500 5.50367
505 7.03252
510 8.27167
515 10.7066
520 15.0922
525 23.2286
530 721.305
535 9999.9
540 9999.9
545 4984.39
550 599.449
555 83.7814
560 19.9231
565 10.1072
570 7.37058
575 5.21871
580 4.34912
585 4.0334
590 3.90425
595 3.50789
600 2.27111
Ex : 548
200 0.872139
205 0.92826
210 0.92688
215 0.899946
220 0.907576
225 0.925356
230 0.933843
235 0.919939
240 1.04774
245 1.07285
250 1.02976
255 0.856518
260 1.11015
265 14.8325
270 51.1076
275 12.6685
280 2.52873
285 1.37448
290 1.31149
295 1.41543
300 1.39344
305 1.45904
310 1.27892
315 1.27629
320 1.2843
325 1.21517
330 1.236
335 1.33149
340 1.35777
345 1.36141
350 1.3277
355 1.34605
360 1.46588
365 1.46924
370 1.52437
375 1.48837
380 1.29721
385 1.57467
390 1.54829
395 1.61676
400 1.6572
405 1.85749
410 1.79413
415 1.65978
420 2.0416
425 1.99231
430 1.95236
435 2.03302
440 2.32418
445 2.35739
450 2.64488
455 2.73718
460 2.89228
465 3.33687
470 3.30887
475 3.28156
480 3.63567
485 3.81522
490 3.98063
495 4.61316
500 5.10514
505 5.41295
510 6.48994
515 8.22316
520 10.9527
525 14.7097
530 23.3814
535 804.028
540 9999.9
545 9999.9
550 4920.77
555 590.308
560 82.8417
565 19.8946
570 10.0227
575 7.19987
580 4.94084
585 3.8774
590 3.67577
595 3.50827
600 2.83629
Ex : 553
200 1.01487
205 0.972287
210 1.0187
215 1.10705
220 0.908103
225 0.850717
230 0.952047
235 0.980247
240 0.916611
245 0.937938
250 0.904708
255 0.940168
260 1.16376
265 2.81629
270 48.4577
275 42.4969
280 6.34434
285 1.88158
290 1.35125
295 1.28712
300 1.42031
305 1.37439
310 1.3769
315 1.36403
320 1.34119
325 1.51913
330 1.28505
335 1.3522
340 1.32219
345 1.32959
350 1.42328
355 1.32962
360 1.40297
365 1.43298
370 1.35499
375 1.32537
380 1.42526
385 1.44863
390 1.61151
395 1.72983
400 1.86423
405 1.7744
410 2.20213
415 1.76122
420 1.81381
425 2.05112
430 2.20527
435 2.13365
440 2.27592
445 2.27283
450 2.46719
455 2.45033
460 2.88263
465 3.06688
470 3.37459
475 3.20116
480 3.51132
485 3.51788
490 4.09056
495 4.00482
500 4.52458
505 4.94382
510 5.63961
515 7.03893
520 8.51498
525 11.0931
530 15.2006
535 23.9261
540 718.88
545 9999.9
550 9999.9
555 5250.15
560 631.694
565 87.4942
570 19.9075
575 9.61623
580 6.70147
585 4.78692
590 4.11875
595 3.81325
600 4.70797
Ex : 558
200 0.964255
205 0.941706
210 1.18208
215 1.07765
220 0.909651
225 1.04509
230 1.11524
235 0.986393
240 1.02869
245 0.96239
250 0.969994
255 0.949472
260 1.17366
265 1.19022
270 20.637
275 76.9785
280 19.5742
285 3.52066
290 1.43065
295 1.32144
300 1.53581
305 1.4837
310 1.49821
315 1.32886
320 1.34018
325 1.35282
330 1.40779
335 1.57391
340 1.42589
345 1.38432
350 1.29265
355 1.30636
360 1.42744
365 1.45211
370 1.32182
375 1.37653
380 1.58416
385 1.36901
390 1.64568
395 1.52717
400 1.75176
405 1.77006
410 1.59154
415 1.81155
420 1.9912
425 1.93491
430 1.98292
435 2.13862
440 2.10014
445 2.21207
450 2.22227
455 2.451
460 2.61463
465 3.16312
470 3.27473
475 3.09323
480 3.29429
485 3.19637
490 3.55276
495 3.96276
500 4.18148
505 4.25284
510 4.62557
515 5.60114
520 6.7462
525 8.60155
530 10.9334
535 15.2629
540 23.2272
545 696.51
550 9999.9
555 9999.9
560 5297.97
565 638.024
570 87.7598
575 19.6018
580 9.51188
585 6.57388
590 4.80672
595 3.92936
600 5.50218
Ex : 563
200 0.93993
205 0.951163
210 0.940081
215 1.06038
220 1.09336
225 0.877393
230 0.854778
235 0.920844
240 1.09786
245 0.919171
250 1.06867
255 1.10267
260 0.986404
265 0.931194
270 3.33302
275 68.3009
280 55.3548
285 8.08978
290 2.08274
295 1.09751
300 1.3445
305 1.24377
310 1.39256
315 1.28001
320 1.23315
325 1.32514
330 1.53582
335 1.41483
340 1.26052
345 1.45042
350 1.47845
355 1.44344
360 1.59701
365 1.33443
370 1.43015
375 1.66731
380 1.39105
385 1.71105
390 1.53991
395 1.57418
400 1.82183
405 1.79781
410 1.68814
415 1.64067
420 1.84181
425 1.84494
430 2.00034
435 2.00642
440 2.42217
445 2.29317
450 2.28732
455 2.38963
460 2.47948
465 2.90146
470 2.7964
475 2.80421
480 2.97029
485 3.28453
490 3.62074
495 3.36935
500 3.89758
505 4.25027
510 4.6463
515 4.69056
520 5.55
525 6.61155
530 8.04898
535 11.1486
540 15.6267
545 23.9147
550 698.438
555 9999.9
560 9999.9
565 5371.67
570 644.516
575 87.5515
580 18.8568
585 8.75196
590 6.23204
595 4.50563
600 3.92461
Ex : 568
200 0.98411
205 1.08797
210 0.966452
215 0.942029
220 0.943802
225 0.967628
230 0.813156
235 0.961499
240 0.986583
245 0.855224
250 0.825134
255 0.759395
260 0.847118
265 0.954228
270 1.28623
275 24.6156
280 97.0388
285 26.348
290 4.14459
295 1.55329
300 1.24887
305 1.36191
310 1.40531
315 1.20953
320 1.09863
325 1.21098
330 1.18014
335 1.25499
340 1.28976
345 1.30988
350 1.282
355 1.44911
360 1.35253
365 1.41398
370 1.41878
375 1.37676
380 1.25798
385 1.4736
390 1.59288
395 1.61087
400 1.34459
405 1.46304
410 1.73639
415 1.59143
420 1.77187
425 1.96189
430 1.84476
435 1.88702
440 2.25877
445 2.17496
450 2.35433
455 2.37569
460 2.72966
465 2.84937
470 2.8774
475 2.77004
480 2.86861
485 3.00586
490 3.19459
495 3.56727
500 3.58988
505 3.59367
510 3.94328
515 4.18252
520 4.80906
525 5.49842
530 6.54615
535 8.17993
540 10.6209
545 14.5261
550 21.8523
555 529.86
560 9999.9
565 9999.9
570 5492.29
575 662.582
580 87.8231
585 18.0328
590 8.37744
595 5.53424
600 4.4326
Ex : 573
200 1.13705
205 1.01044
210 1.08662
215 1.03035
220 1.05009
225 0.967363
230 1.23425
235 0.916735
240 1.05108
245 0.926545
250 0.974425
255 0.92437
260 1.06435
265 1.0076
270 1.13262
275 3.31672
280 80.0357
285 74.3645
290 10.7058
295 2.43806
300 1.32604
305 1.27394
310 1.41193
315 1.43338
320 1.43337
325 1.34686
330 1.37059
335 1.3586
340 1.21662
345 1.24808
350 1.52261
355 1.3397
360 1.25175
365 1.34976
370 1.34256
375 1.49203
380 1.39984
385 1.43554
390 1.25928
395 1.49903
400 1.58898
405 1.57247
410 1.64475
415 1.68847
420 1.80094
425 1.84965
430 1.86684
435 2.04311
440 1.93607
445 2.01823
450 2.15642
455 2.01542
460 2.53406
465 2.5401
470 2.70613
475 2.7527
480 2.60251
485 2.75598
490 3.0545
495 3.22949
500 3.20776
505 3.51347
510 3.58708
515 3.84075
520 4.47466
525 4.83984
530 5.51574
535 6.20714
540 7.85446
545 10.6083
550 14.5404
555 21.6243
560 461.902
565 9999.9
570 9999.9
575 5524.56
580 663.819
585 87.4656
590 17.2503
595 7.66066
600 6.50344
Ex : 578
200 0.918958
205 1.10889
210 0.977978
215 1.07875
220 1.08979
225 0.968099
230 0.901741
235 0.918779
240 1.05957
245 0.813591
250 0.986115
255 1.05495
260 1.13869
265 1.13962
270 1.15864
275 1.03231
280 28.1578
285 118.279
290 32.5621
295 4.83419
300 1.62548
305 1.26153
310 1.24419
315 1.20255
320 1.30302
325 1.08983
330 1.14262
335 1.30106
340 1.22659
345 1.21397
350 1.28231
355 1.37251
360 1.25918
365 1.40422
370 1.28718
375 1.39698
380 1.41888
385 1.4484
390 1.72352
395 1.49366
400 1.28065
405 1.39358
410 1.68643
415 1.58865
420 1.63428
425 1.6542
430 1.61714
435 1.73651
440 1.97435
445 1.84602
450 2.04531
455 2.16622
460 2.21064
465 2.41549
470 2.58784
475 2.59482
480 2.54485
485 2.83273
490 2.82703
495 2.80983
500 3.13767
505 3.15843
510 3.4363
515 3.27254
520 3.87355
525 4.44504
530 4.57864
535 5.20189
540 6.28598
545 8.10783
550 10.2878
555 13.4356
560 20.8877
565 423.168
570 9999.9
575 9999.9
580 4837.15
585 579.327
590 76.2438
595 15.4445
600 6.3272
Ex : 583
200 0.897212
205 0.911989
210 0.990432
215 1.0177
220 0.893448
225 0.867076
230 0.820723
235 0.921829
240 0.817228
245 0.896306
250 0.868536
255 0.830678
260 0.849167
265 1.06318
270 0.95732
275 1.03509
280 3.74389
285 90.7328
290 85.035
295 12.18
300 2.56003
305 1.30918
310 1.10409
315 1.36915
320 1.22949
325 1.0661
330 1.10278
335 1.02814
340 1.18378
345 1.12866
350 1.31327
355 1.4026
360 1.22129
365 1.1829
370 1.31085
375 1.20455
380 1.1747
385 1.31378
390 1.53394
395 1.45047
400 1.40458
405 1.44913
410 1.41243
415 1.66997
420 1.72383
425 1.60885
430 1.4446
435 1.73813
440 1.96304
445 1.62713
450 1.72587
455 1.88674
460 2.1534
465 2.27191
470 2.30458
475 2.36364
480 2.29847
485 2.49485
490 2.55639
495 2.70451
500 2.99135
505 2.78944
510 2.84255
515 3.01334
520 3.25615
525 3.79505
530 3.92473
535 4.51215
540 4.86775
545 5.69481
550 7.40911
555 9.66689
560 12.6554
565 19.0391
570 364.32
575 9869.14
580 9999.9
585 4200.42
590 503.941
595 66.3969
600 14.046
Ex : 588
200 0.837355
205 0.944222
210 0.856919
215 0.985575
220 0.942739
225 0.902504
230 0.85288
235 0.644215
240 0.750255
245 1.02145
250 0.94008
255 0.90394
260 0.763192
265 0.808458
270 0.846754
275 1.03851
280 1.12048
285 29.5004
290 137.612
295 39.0295
300 5.55479
305 1.85283
310 1.21542
315 1.19442
320 1.31426
325 1.22265
330 1.28063
335 1.22457
340 1.17607
345 1.17223
350 1.31196
355 1.13278
360 1.1204
365 1.10844
370 1.27439
375 1.17053
380 1.06987
385 1.28491
390 1.2682
395 1.54164
400 1.46833
405 1.33012
410 1.31568
415 1.428
420 1.52337
425 1.51937
430 1.33694
435 1.39591
440 1.42171
445 1.46544
450 1.66672
455 1.89316
460 2.1183
465 2.39608
470 2.23121
475 2.34092
480 2.26683
485 2.16726
490 2.34804
495 2.34893
500 2.69932
505 2.69277
510 2.81276
515 3.06629
520 3.42827
525 3.283
530 3.40248
535 3.88109
540 4.05622
545 4.92256
550 5.62541
555 7.23429
560 9.71142
565 12.0298
570 18.1075
575 332.131
580 8523.55
585 9999.9
590 3958.22
595 473.048
600 65.7279
Ex : 593
200 0.737792
205 0.808754
210 0.712424
215 0.87652
220 0.743365
225 0.789749
230 0.988367
235 0.774612
240 0.897283
245 0.86291
250 0.742767
255 0.820466
260 0.826347
265 0.846935
270 0.958969
275 0.908486
280 1.08388
285 3.67944
290 101.647
295 101.738
300 14.3767
305 2.72531
310 1.34174
315 1.09084
320 1.24216
325 1.29732
330 1.08487
335 1.1262
340 1.05237
345 1.08014
350 1.16263
355 1.2092
360 1.18312
365 1.15157
370 0.965061
375 1.12053
380 1.27728
385 1.48252
390 1.22152
395 1.46693
400 1.33117
405 1.38545
410 1.47436
415 1.1929
420 1.30609
425 1.50251
430 1.57048
435 1.41438
440 1.58825
445 1.68446
450 1.71377
455 1.61547
460 1.81948
465 2.11325
470 2.31741
475 2.21583
480 2.24506
485 2.28747
490 2.332
495 2.17025
500 2.34352
505 2.54394
510 2.88595
515 2.80838
520 2.89006
525 2.79736
530 3.27666
535 3.56278
540 3.71306
545 4.10629
550 4.4966
555 5.61332
560 6.90044
565 8.94998
570 11.3638
575 16.8371
580 299.905
585 7612.09
590 9999.9
595 3601.75
600 498.537
Ex : 598
200 0.811663
205 0.936948
210 0.814941
215 0.767012
220 0.748143
225 0.67922
230 0.647212
235 0.655248
240 0.80222
245 0.895923
250 0.704158
255 1.09734
260 0.853087
265 0.858944
270 0.701665
275 0.949057
280 1.02219
285 1.15127
290 33.4029
295 154.821
300 46.6252
305 6.33623
310 1.62894
315 0.974706
320 0.998487
325 1.21082
330 1.30647
335 1.19348
340 1.17235
345 1.06129
350 1.18632
355 0.913158
360 0.803008
365 0.983703
370 1.07956
375 1.28199
380 1.17668
385 1.12261
390 1.15729
395 1.29064
400 1.41402
405 1.18302
410 1.24538
415 1.31034
420 1.37731
425 1.57582
430 1.43508
435 1.47922
440 1.47779
445 1.60772
450 1.6798
455 1.70985
460 1.70457
465 1.9153
470 2.0039
475 2.17948
480 2.13171
485 1.91648
490 2.1946
495 2.34138
500 2.15084
505 2.1758
510 2.51146
515 2.46273
520 2.58455
525 2.77746
530 2.95612
535 3.00519
540 3.35172
545 4.20276
550 4.42067
555 4.85118
560 5.62305
565 6.76919
570 8.12891
575 10.8627
580 14.1421
585 298.373
590 7014.56
595 9999.9
600 7484.79
Ex : 603
200 0.821882
205 0.695319
210 0.663347
215 0.709527
220 0.595306
225 0.675492
230 0.86369
235 0.772226
240 0.717809
245 0.820634
250 0.804508
255 0.920882
260 0.800562
265 0.61972
270 0.861414
275 0.834758
280 1.03055
285 1.09502
290 3.63033
295 112.236
300 122.457
305 17.2207
310 3.0805
315 1.28481
320 1.01428
325 1.08641
330 1.31453
335 1.26586
340 1.08413
345 1.12391
350 1.08903
355 1.08281
360 1.27098
365 1.1857
370 1.13689
375 1.04804
380 1.25885
385 1.30849
390 1.19404
395 1.31772
400 1.4843
405 1.40498
410 1.41553
415 1.18722
420 1.23054
425 1.40986
430 1.37498
435 1.41811
440 1.3242
445 1.60169
450 1.41321
455 1.54216
460 1.64663
465 1.91968
470 2.0594
475 2.00853
480 2.11784
485 1.94824
490 1.89377
495 1.93445
500 2.197
505 2.38834
510 2.05345
515 2.23443
520 2.42315
525 2.50058
530 2.49944
535 2.91718
540 3.23983
545 3.35995
550 3.3453
555 3.86798
560 4.6631
565 5.16828
570 6.14013
575 7.57061
580 9.45862
585 13.1353
590 259.214
595 6158.23
600 9999.9
