File format V 1.0
jeu. 12. mai 14:44:43 2016
Operator : 
Comments : 

=============================================
SpectroFluorometer parameters
Mode : 3D measurement
Data : Fluorescence
Phospho. : Ordinary
Spectrum : Fluorescence

Scan speed : 2400 nm/mn
Response : 100 ms
PM Voltage : 700 V
Shutter : On

Lambda Ex. Start : 203
Lambda Ex. End : 603
Lambda Ex. Step : 5
Ex. Slit : 5 nm

Lambda Em. Start : 200
Lambda Em. End : 600
Lambda Em. Step : 5
Em. Slit : 5 nm

Repetition : 1
Decal lambda em : 10
=============================================
DATA
Ex : 203
200 10.6543
205 6.2633
210 8.87594
215 7.37416
220 6.03047
225 10.1407
230 9.94746
235 9.66673
240 10.9378
245 7.40894
250 11.5548
255 10.5567
260 8.4487
265 6.36206
270 7.66675
275 7.35478
280 9.06891
285 9.28692
290 9.08447
295 7.83338
300 9.73397
305 10.7322
310 10.0833
315 8.16618
320 8.42866
325 6.60008
330 9.05004
335 8.42267
340 9.94274
345 13.9765
350 16.2974
355 8.18056
360 11.3192
365 10.1947
370 10.9621
375 7.36596
380 8.16682
385 12.5381
390 7.84291
395 9.95093
400 11.5415
405 8.26007
410 7.21807
415 8.2098
420 8.54337
425 10.2009
430 10.8829
435 10.382
440 8.18962
445 10.5256
450 5.43353
455 8.79866
460 9.37897
465 9.50549
470 7.66898
475 7.80737
480 7.199
485 10.204
490 9.6138
495 9.2715
500 8.75636
505 9.1375
510 10.8274
515 11.0124
520 9.71239
525 13.4
530 11.1978
535 8.19441
540 7.88245
545 10.9195
550 9.84399
555 8.57088
560 9.14067
565 9.812
570 9.14843
575 12.8239
580 8.37496
585 10.6764
590 8.77617
595 8.82347
600 4.99199
Ex : 208
200 10.2701
205 10.5605
210 9.50674
215 9.84806
220 10.2197
225 6.90381
230 6.55793
235 8.93174
240 9.38769
245 7.59491
250 8.01233
255 6.35091
260 8.62784
265 12.9086
270 11.0062
275 12.4827
280 9.47061
285 8.74287
290 10.4384
295 8.22047
300 9.90232
305 6.97487
310 10.0914
315 8.64625
320 8.38396
325 6.94206
330 14.5918
335 11.9545
340 11.5051
345 6.67052
350 7.91435
355 12.3204
360 10.4794
365 8.1535
370 10.6606
375 11.3233
380 9.55153
385 9.54218
390 9.82063
395 8.78698
400 11.2338
405 8.29575
410 7.3626
415 9.8703
420 8.12421
425 7.36333
430 9.37815
435 9.86107
440 8.47214
445 8.6766
450 7.60955
455 8.26425
460 7.26269
465 7.37712
470 10.4869
475 8.70004
480 9.25524
485 7.65569
490 6.31081
495 9.34067
500 9.0846
505 11.6202
510 11.2394
515 8.39297
520 9.11125
525 10.4785
530 9.49755
535 7.17034
540 8.57825
545 9.08467
550 9.20022
555 12.3669
560 9.35981
565 8.40032
570 6.4935
575 9.31576
580 10.8944
585 8.23679
590 8.28149
595 5.87914
600 7.75865
Ex : 213
200 7.9196
205 6.59609
210 7.17675
215 7.08376
220 6.3987
225 8.04918
230 5.94763
235 8.06677
240 5.88272
245 10.7861
250 6.54464
255 10.547
260 6.4448
265 14.3908
270 10.4903
275 9.8394
280 8.24417
285 7.33512
290 6.91894
295 7.67624
300 7.51295
305 8.65652
310 7.75646
315 7.44249
320 9.16361
325 12.3431
330 7.72318
335 7.46279
340 12.4053
345 7.57413
350 7.65938
355 7.7605
360 8.51044
365 12.0964
370 7.6146
375 10.8426
380 8.55379
385 8.88179
390 10.5182
395 9.23217
400 6.41139
405 7.30776
410 6.9371
415 9.94685
420 12.9819
425 7.92023
430 10.8977
435 9.82612
440 10.3551
445 8.63382
450 8.9882
455 8.0679
460 9.65502
465 7.93442
470 8.58487
475 7.29234
480 10.8422
485 12.1919
490 9.83158
495 9.15526
500 11.371
505 7.83455
510 9.89715
515 7.95003
520 8.91161
525 8.34501
530 8.75148
535 7.6218
540 10.6903
545 8.97427
550 7.86691
555 8.18449
560 10.434
565 8.51436
570 13.1945
575 7.07659
580 9.50944
585 12.2047
590 9.11935
595 6.61304
600 7.25137
Ex : 218
200 6.76842
205 8.01966
210 8.72322
215 11.1535
220 8.28052
225 9.99741
230 5.83407
235 6.86223
240 7.87981
245 7.47371
250 10.7083
255 9.89036
260 8.76047
265 10.9243
270 9.08113
275 9.48946
280 10.1916
285 8.3245
290 9.99112
295 10.3208
300 5.4609
305 7.58376
310 7.31613
315 9.05536
320 9.04741
325 10.6618
330 10.6777
335 7.97178
340 8.97467
345 12.3761
350 11.2588
355 9.80846
360 5.82353
365 9.64134
370 8.68186
375 7.51406
380 8.40291
385 13.1799
390 7.11245
395 11.6133
400 6.46343
405 11.9161
410 7.18432
415 8.66993
420 7.37305
425 6.386
430 9.19066
435 7.39617
440 7.04021
445 15.6996
450 11.1951
455 9.10361
460 9.00256
465 11.1614
470 9.0531
475 10.5412
480 8.58768
485 9.98781
490 7.58533
495 8.56299
500 8.16253
505 10.4051
510 6.77763
515 8.6838
520 10.3754
525 9.21659
530 9.74294
535 7.40673
540 7.65555
545 7.84394
550 8.19753
555 8.44355
560 9.02672
565 7.75781
570 9.87007
575 8.57221
580 8.34392
585 8.96151
590 9.47565
595 7.48942
600 4.69248
Ex : 223
200 10.8966
205 10.2653
210 7.28739
215 6.28455
220 8.48753
225 9.27591
230 8.6495
235 7.59781
240 7.90346
245 6.69551
250 7.08726
255 6.87208
260 10.4115
265 7.67749
270 9.68386
275 9.99774
280 8.50074
285 9.87703
290 6.72604
295 10.9901
300 10.3839
305 9.91641
310 8.83399
315 8.30544
320 10.2087
325 7.38741
330 6.6243
335 8.63923
340 8.06351
345 10.4241
350 11.8747
355 10.8878
360 7.11009
365 6.92344
370 10.7959
375 9.06873
380 8.96843
385 9.67098
390 6.93081
395 11.4479
400 10.9974
405 10.3556
410 9.48713
415 7.79008
420 7.36767
425 8.4847
430 10.295
435 9.72107
440 7.28727
445 9.30477
450 9.09831
455 10.8331
460 9.86008
465 11.1735
470 8.79094
475 7.82547
480 8.61859
485 8.63086
490 9.86704
495 9.67041
500 9.81319
505 8.91984
510 9.7527
515 8.20419
520 8.398
525 6.5068
530 8.69659
535 8.61373
540 13.8183
545 11.0224
550 8.197
555 5.93666
560 8.40647
565 12.1899
570 7.90609
575 7.47951
580 7.86106
585 8.68672
590 8.58795
595 7.68584
600 7.78701
Ex : 228
200 9.44608
205 8.53308
210 7.54087
215 8.8002
220 6.76175
225 8.87057
230 7.33882
235 6.94624
240 7.30547
245 6.63992
250 7.37286
255 8.73888
260 5.80023
265 5.48204
270 7.78917
275 8.19545
280 6.14807
285 7.62066
290 9.10497
295 7.78489
300 12.2799
305 9.08075
310 6.22333
315 7.57627
320 10.7542
325 8.59843
330 12.5764
335 12.7737
340 11.3091
345 12.8159
350 13.6437
355 9.12722
360 8.76316
365 10.5239
370 8.56415
375 7.44733
380 14.5033
385 10.6249
390 7.1284
395 9.5213
400 5.64288
405 7.63282
410 6.62891
415 6.87456
420 8.47898
425 8.01941
430 8.08529
435 8.38241
440 6.46996
445 8.68983
450 12.1297
455 22.4378
460 14.21
465 9.43137
470 6.32626
475 8.17595
480 6.49957
485 10.6687
490 8.68616
495 10.9673
500 8.9978
505 11.0923
510 6.02728
515 7.35068
520 10.8988
525 7.44782
530 6.9056
535 8.02173
540 8.17971
545 11.5262
550 9.34572
555 7.81758
560 11.0876
565 8.11172
570 7.55491
575 10.7154
580 10.0594
585 8.50352
590 8.1543
595 11.796
600 1.34235
Ex : 233
200 6.69683
205 7.76152
210 6.07213
215 7.58747
220 5.90159
225 8.22946
230 9.2417
235 6.8952
240 5.92848
245 6.72614
250 8.14787
255 7.44795
260 6.88947
265 8.41928
270 5.71903
275 6.01023
280 8.50041
285 9.57334
290 9.38316
295 7.39329
300 7.17027
305 9.13175
310 10.134
315 6.06141
320 11.3595
325 12.7769
330 10.9605
335 13.4451
340 11.3163
345 12.6674
350 10.7147
355 11.453
360 10.453
365 9.60644
370 9.48231
375 11.368
380 10.7689
385 10.0674
390 7.59367
395 9.27331
400 6.55287
405 7.25541
410 9.97018
415 8.63536
420 10.2293
425 8.26163
430 9.11898
435 8.5628
440 8.25586
445 9.43496
450 7.39449
455 15.8747
460 32.2904
465 40.2002
470 27.3853
475 13.8808
480 10.9641
485 5.23367
490 7.03035
495 8.15323
500 9.84355
505 10.7207
510 9.09556
515 8.78544
520 6.37553
525 6.98724
530 5.6915
535 6.81627
540 7.24298
545 5.5124
550 8.1901
555 8.6383
560 7.15534
565 11.7019
570 8.11089
575 9.76941
580 6.54317
585 7.40655
590 7.41335
595 8.08291
600 0.919805
Ex : 238
200 5.78148
205 5.97857
210 5.73351
215 3.60646
220 6.11511
225 4.75764
230 10.2486
235 10.8262
240 7.97408
245 6.20395
250 8.36209
255 9.36526
260 8.12217
265 5.57598
270 6.98111
275 6.88799
280 6.0546
285 6.81185
290 6.62056
295 8.73276
300 8.00408
305 8.85451
310 6.44228
315 10.7412
320 8.121
325 12.5394
330 8.63661
335 9.14284
340 11.1353
345 11.6844
350 12.5257
355 12.354
360 9.01127
365 10.1633
370 9.51218
375 8.04653
380 6.8282
385 10.0457
390 10.4466
395 7.43089
400 8.90169
405 7.57784
410 6.78231
415 9.53378
420 8.09584
425 7.6458
430 11.3883
435 7.83915
440 5.70722
445 6.83966
450 8.72954
455 9.38463
460 9.85441
465 31.0834
470 79.5308
475 81.7355
480 38.5604
485 14.0202
490 9.23146
495 8.55842
500 8.87531
505 10.5305
510 13.1262
515 14.7425
520 9.77804
525 8.12454
530 7.83346
535 7.17509
540 6.93781
545 6.65596
550 6.55453
555 8.7997
560 8.14807
565 5.5592
570 6.50547
575 8.0626
580 9.13989
585 10.8803
590 9.88214
595 10.0452
600 10.1528
Ex : 243
200 5.07744
205 7.38174
210 5.6165
215 6.03533
220 7.07796
225 6.06205
230 5.53671
235 11.7484
240 14.5302
245 6.45024
250 6.16761
255 6.14141
260 8.39886
265 6.20864
270 4.08321
275 6.1262
280 5.46121
285 4.86607
290 6.39569
295 7.56136
300 6.41303
305 6.04109
310 7.50871
315 7.66787
320 7.99888
325 7.60151
330 7.66878
335 6.40104
340 7.90695
345 9.09363
350 9.48739
355 8.43512
360 10.5193
365 8.27816
370 6.34351
375 6.75321
380 8.33193
385 6.13916
390 8.93256
395 7.28469
400 9.808
405 8.57475
410 7.05848
415 7.39221
420 6.44506
425 7.89442
430 6.65289
435 7.22517
440 5.47254
445 4.69528
450 9.18918
455 8.22136
460 5.52472
465 7.58682
470 9.69006
475 35.7363
480 80.9584
485 76.8587
490 35.0416
495 11.0409
500 8.10836
505 6.49068
510 10.7755
515 13.7862
520 14.178
525 14.6082
530 12.1467
535 8.94996
540 5.65444
545 5.96355
550 5.46471
555 5.23185
560 6.13051
565 7.79019
570 6.44414
575 6.47463
580 4.85956
585 5.89125
590 6.73591
595 5.69894
600 14.237
Ex : 248
200 6.78877
205 4.47374
210 3.14329
215 3.94334
220 4.54169
225 4.44599
230 4.80023
235 4.51447
240 11.1934
245 13.5206
250 6.30627
255 4.60816
260 5.18659
265 6.58526
270 5.31783
275 3.42804
280 5.55193
285 4.4938
290 6.85929
295 6.05915
300 5.83287
305 6.13625
310 5.7002
315 6.00452
320 6.87454
325 6.71018
330 6.26764
335 5.3741
340 5.85817
345 9.48051
350 8.78089
355 7.76548
360 8.26073
365 8.18359
370 7.95559
375 7.15564
380 6.25342
385 7.51383
390 6.8135
395 5.99385
400 8.1924
405 5.80881
410 6.90803
415 6.70968
420 6.48554
425 7.15424
430 5.13103
435 3.50743
440 5.36906
445 6.11706
450 7.31555
455 6.71957
460 5.13307
465 6.42349
470 5.11014
475 4.88865
480 7.62852
485 36.3278
490 72.3444
495 71.1194
500 29.418
505 10.7731
510 7.75956
515 5.58707
520 7.73013
525 11.651
530 10.5786
535 12.2968
540 11.4848
545 6.05128
550 6.40704
555 5.83345
560 7.42721
565 5.61743
570 5.33434
575 5.51002
580 4.91276
585 6.26189
590 5.91421
595 6.12135
600 12.4142
Ex : 253
200 1.79622
205 3.48802
210 3.52018
215 3.52976
220 3.75228
225 4.53506
230 2.77453
235 3.26283
240 3.17284
245 8.35768
250 11.8205
255 6.4992
260 4.38715
265 3.60477
270 5.88568
275 6.06339
280 5.03744
285 4.32624
290 4.24149
295 4.60626
300 5.76201
305 5.99727
310 6.18148
315 5.3169
320 6.80475
325 6.75251
330 6.26712
335 5.573
340 7.06967
345 8.16192
350 6.4308
355 5.78392
360 6.48502
365 9.04684
370 7.71231
375 6.42343
380 5.55937
385 6.02324
390 5.3856
395 6.70411
400 6.62285
405 5.28693
410 4.58016
415 5.40581
420 4.69515
425 5.24635
430 4.26113
435 5.60258
440 4.11826
445 3.65234
450 5.27643
455 5.20832
460 4.56667
465 4.11234
470 5.32713
475 6.60952
480 5.43879
485 4.13458
490 7.14807
495 36.6056
500 66.1553
505 75.4185
510 44.988
515 14.0985
520 7.26185
525 5.57363
530 5.11597
535 7.77731
540 9.71657
545 12.6648
550 11.2192
555 8.00142
560 5.68311
565 5.79648
570 5.86367
575 5.97691
580 5.72499
585 5.58388
590 6.16919
595 5.75434
600 1.71827
Ex : 258
200 3.30308
205 2.95951
210 2.39492
215 2.42205
220 2.19077
225 2.26967
230 2.42439
235 3.39009
240 3.45033
245 2.91457
250 15.9655
255 32.9036
260 12.3105
265 4.33652
270 4.59071
275 6.16452
280 6.33554
285 6.50537
290 5.47758
295 5.75635
300 6.78475
305 6.18042
310 6.87899
315 7.49778
320 7.76908
325 7.5673
330 7.77322
335 6.17239
340 9.0784
345 8.4147
350 9.7831
355 7.87758
360 7.02386
365 7.60035
370 6.26134
375 6.84221
380 6.12306
385 6.23447
390 6.84438
395 4.94446
400 6.05122
405 3.74767
410 4.72529
415 5.52683
420 3.93591
425 3.8786
430 5.06523
435 4.6218
440 4.45581
445 5.33388
450 5.51362
455 4.70809
460 3.8754
465 4.68568
470 4.27512
475 5.15244
480 4.33577
485 4.69562
490 4.11363
495 3.61841
500 7.17333
505 51.6387
510 173.958
515 198.903
520 99.6881
525 20.9001
530 7.84944
535 5.41746
540 5.24204
545 7.21292
550 10.2736
555 14.8102
560 17.1154
565 16.0335
570 11.172
575 8.38719
580 7.19874
585 8.51882
590 8.21964
595 9.57327
600 6.99743
Ex : 263
200 1.50123
205 1.77092
210 1.90074
215 2.60026
220 2.08499
225 1.93847
230 1.96043
235 1.27123
240 2.42555
245 2.54749
250 3.15887
255 28.8349
260 48.276
265 13.9983
270 4.37442
275 3.3365
280 7.69254
285 10.4169
290 8.13016
295 7.69086
300 7.89153
305 10.1403
310 9.00568
315 9.70016
320 8.98651
325 9.86602
330 8.93843
335 8.16698
340 8.03303
345 8.97165
350 8.76219
355 7.44429
360 7.92145
365 6.23412
370 6.37061
375 6.22052
380 5.53538
385 6.41792
390 4.80977
395 4.39564
400 3.84043
405 4.48075
410 3.57598
415 4.57976
420 4.70759
425 4.16149
430 5.54034
435 3.55383
440 4.50646
445 4.00238
450 3.3889
455 3.94365
460 3.82693
465 3.30706
470 4.53778
475 4.61039
480 3.20023
485 3.41196
490 2.57079
495 4.13055
500 4.38794
505 3.31643
510 17.7337
515 106.064
520 222.805
525 208.546
530 93.9987
535 20.0857
540 7.49585
545 5.46391
550 5.53381
555 7.33352
560 14.0657
565 19.341
570 24.0319
575 21.4619
580 16.4281
585 13.7913
590 13.2763
595 12.6168
600 27.5295
Ex : 268
200 1.67353
205 1.60889
210 1.50227
215 1.50932
220 1.40646
225 1.18246
230 1.45594
235 2.42407
240 1.88133
245 1.30748
250 1.49571
255 3.99857
260 38.4889
265 63.1343
270 17.7115
275 5.78274
280 5.05999
285 11.2189
290 12.9047
295 11.255
300 10.7642
305 9.88107
310 10.183
315 9.92008
320 10.2895
325 9.53451
330 9.55888
335 9.04901
340 8.64591
345 7.97667
350 8.19246
355 6.5049
360 5.94451
365 6.3331
370 6.32214
375 5.1175
380 3.94294
385 4.91544
390 4.53417
395 3.48607
400 3.46051
405 4.15332
410 3.21804
415 3.20451
420 3.73925
425 3.59028
430 3.16378
435 3.99389
440 3.40155
445 3.35035
450 3.90589
455 3.05676
460 4.3774
465 4.14553
470 3.31132
475 3.44045
480 3.30531
485 3.51484
490 3.43105
495 3.52922
500 3.45701
505 3.23364
510 3.14771
515 2.9858
520 20.8683
525 133.389
530 267.412
535 231.328
540 100.537
545 20.8364
550 8.65439
555 8.2945
560 9.73582
565 11.2727
570 16.8707
575 22.1821
580 28.2878
585 28.0763
590 22.3815
595 18.0452
600 18.1756
Ex : 273
200 1.29257
205 1.67438
210 1.62993
215 1.04408
220 1.19367
225 1.68494
230 1.29566
235 1.42283
240 1.35448
245 1.56791
250 1.66534
255 1.53757
260 3.53498
265 47.0164
270 67.8115
275 18.7608
280 6.65538
285 6.51942
290 12.0424
295 15.6466
300 14.3534
305 11.7634
310 9.96186
315 10.3211
320 10.3461
325 9.73047
330 8.71042
335 9.34645
340 9.05182
345 8.66323
350 8.57689
355 6.89203
360 7.01457
365 6.5843
370 5.81093
375 4.62316
380 4.69724
385 4.74554
390 4.13803
395 4.13627
400 3.76754
405 3.43756
410 2.8234
415 3.00771
420 3.01274
425 3.37771
430 2.75286
435 2.94227
440 3.41948
445 2.53339
450 2.98114
455 3.49948
460 2.76097
465 3.50535
470 3.21845
475 3.9403
480 3.3213
485 2.80149
490 2.78055
495 3.36711
500 3.55682
505 2.91509
510 3.08359
515 3.51062
520 2.79211
525 3.55485
530 23.9482
535 130.445
540 272.9
545 283.124
550 125.569
555 26.4499
560 12.0163
565 11.5653
570 12.9884
575 15.8359
580 18.891
585 23.3239
590 27.2305
595 29.2788
600 38.294
Ex : 278
200 1.13245
205 0.917103
210 0.975355
215 1.16314
220 0.821568
225 1.13763
230 1.01849
235 1.2043
240 0.534037
245 0.775068
250 1.05399
255 0.758297
260 0.898692
265 4.59233
270 55.1614
275 90.09
280 24.8801
285 7.79345
290 7.28007
295 10.7263
300 14.6554
305 13.5233
310 10.9123
315 9.95219
320 10.4427
325 9.81912
330 9.77361
335 8.78131
340 8.7946
345 8.36036
350 7.87952
355 6.7411
360 6.28146
365 5.99694
370 6.10611
375 4.72986
380 4.35009
385 4.13392
390 3.72457
395 3.75558
400 3.01378
405 3.11646
410 3.1715
415 2.45624
420 2.86686
425 2.91274
430 2.99007
435 2.88739
440 2.54238
445 2.57228
450 3.18424
455 2.4823
460 2.37246
465 2.61491
470 2.56099
475 2.58948
480 2.53758
485 3.38262
490 3.16878
495 2.29526
500 2.20498
505 2.30698
510 2.69547
515 2.43001
520 2.48808
525 2.44095
530 2.23785
535 2.64534
540 27.421
545 138.922
550 260.572
555 216.698
560 94.7027
565 23.9144
570 12.6129
575 13.5644
580 13.9045
585 12.9296
590 14.7835
595 18.7469
600 22.1394
Ex : 283
200 1.24149
205 0.76449
210 0.940585
215 1.00211
220 0.724148
225 0.657465
230 0.68035
235 0.868941
240 0.756793
245 0.909955
250 0.923784
255 0.734868
260 0.782616
265 0.679551
270 4.19792
275 57.0625
280 86.3324
285 23.8441
290 6.36378
295 5.17613
300 8.08236
305 12.7304
310 11.0911
315 8.8301
320 7.86517
325 8.25805
330 9.11376
335 8.42526
340 8.18391
345 8.10352
350 7.80204
355 6.30261
360 6.26032
365 5.00953
370 4.86806
375 3.72639
380 3.88922
385 3.80829
390 3.3298
395 2.91367
400 3.03936
405 2.92312
410 2.99032
415 2.95674
420 2.74814
425 2.47203
430 2.65452
435 2.19388
440 1.89313
445 2.70578
450 2.66972
455 2.65848
460 2.10798
465 2.5126
470 2.41365
475 2.56019
480 2.6019
485 2.44227
490 2.57749
495 2.19753
500 2.26049
505 2.13716
510 1.81702
515 2.33534
520 1.99851
525 2.45133
530 2.45222
535 2.04683
540 1.9938
545 2.29562
550 29.6191
555 157.075
560 293.023
565 228.536
570 90.4066
575 19.6897
580 9.74905
585 8.02836
590 8.3724
595 7.74228
600 10.8367
Ex : 288
200 0.668712
205 0.650263
210 0.748712
215 0.717255
220 0.489859
225 0.47352
230 0.892239
235 0.78347
240 0.719222
245 0.767774
250 0.730356
255 0.536319
260 0.771413
265 0.882985
270 0.885784
275 3.66404
280 55.2956
285 83.4726
290 23.4931
295 5.26267
300 3.44697
305 5.32369
310 9.232
315 11.0997
320 8.02356
325 6.54526
330 6.21909
335 6.81401
340 7.06942
345 6.51621
350 6.79179
355 5.58696
360 4.91038
365 4.70192
370 4.27577
375 3.29359
380 3.77629
385 3.40635
390 3.05209
395 2.82065
400 2.81113
405 3.00243
410 3.56177
415 2.68017
420 2.4989
425 2.84957
430 2.42448
435 2.61104
440 2.72823
445 2.33478
450 2.08251
455 2.22294
460 2.032
465 2.19633
470 2.6965
475 1.87873
480 2.54564
485 2.12407
490 2.43687
495 1.81536
500 2.3168
505 1.8888
510 1.49109
515 1.79432
520 1.74193
525 1.87815
530 1.77168
535 1.99322
540 1.76393
545 1.40059
550 1.61956
555 2.26499
560 23.6995
565 128.376
570 268.436
575 226.371
580 89.9085
585 16.6578
590 6.33372
595 5.08768
600 4.59196
Ex : 293
200 0.490517
205 0.533651
210 0.579847
215 0.553685
220 0.585078
225 0.594758
230 0.576784
235 0.707021
240 0.695428
245 1.05936
250 0.757616
255 0.667342
260 0.496281
265 0.775318
270 0.58747
275 0.799545
280 4.74992
285 63.7024
290 90.5643
295 23.023
300 4.82009
305 2.98379
310 3.86453
315 8.46469
320 10.8024
325 8.56014
330 6.65469
335 5.5398
340 5.96769
345 5.79259
350 5.28384
355 5.21763
360 5.13047
365 4.40206
370 4.0585
375 3.54916
380 3.08987
385 3.23556
390 2.92971
395 2.86823
400 2.68376
405 2.81709
410 2.93167
415 2.65939
420 2.40967
425 2.619
430 2.49033
435 2.59796
440 2.16503
445 2.4464
450 2.09891
455 2.19767
460 1.71619
465 2.04077
470 1.82854
475 1.86363
480 1.94274
485 2.18014
490 1.98213
495 2.02274
500 1.72794
505 1.71086
510 1.66291
515 1.61947
520 1.33582
525 1.26027
530 1.53947
535 1.84094
540 1.52312
545 1.88097
550 1.59935
555 1.70487
560 1.43844
565 1.79758
570 24.9393
575 146.018
580 274.632
585 211.273
590 69.4368
595 12.2239
600 6.15965
Ex : 298
200 0.583961
205 0.534099
210 0.525558
215 0.696318
220 0.573714
225 0.459026
230 0.470127
235 0.474307
240 0.561913
245 0.419359
250 0.700729
255 0.565723
260 0.449256
265 0.453467
270 0.769943
275 0.54699
280 0.639834
285 4.99581
290 69.503
295 102.39
300 28.4463
305 5.79218
310 3.49025
315 3.87331
320 7.80879
325 10.5809
330 8.2747
335 5.55233
340 4.73669
345 4.5702
350 4.03584
355 4.45185
360 3.77419
365 3.56384
370 3.31947
375 3.36351
380 3.33291
385 3.08156
390 3.18646
395 2.67269
400 2.71373
405 2.8603
410 2.49669
415 2.76676
420 2.87753
425 2.71084
430 2.74913
435 2.34915
440 2.28869
445 2.19666
450 2.31545
455 1.96159
460 1.89156
465 2.29106
470 1.91682
475 1.97183
480 2.07457
485 1.82844
490 1.55217
495 1.801
500 1.65621
505 1.69238
510 1.46708
515 1.28386
520 1.40346
525 1.44791
530 1.34944
535 1.22443
540 1.36078
545 0.967767
550 1.41405
555 1.19934
560 1.60297
565 1.18852
570 1.29856
575 1.59576
580 30.4993
585 151.977
590 270.725
595 208.264
600 106.98
Ex : 303
200 0.537631
205 0.881589
210 0.458558
215 0.446022
220 0.472429
225 0.404263
230 0.439617
235 0.418683
240 0.447932
245 0.44137
250 0.470352
255 0.602394
260 0.495514
265 0.466244
270 0.52294
275 0.559112
280 0.655021
285 0.558269
290 4.52952
295 78.9568
300 122.317
305 30.5618
310 5.96198
315 3.08646
320 3.23393
325 6.70496
330 9.77804
335 8.41948
340 4.99283
345 3.7502
350 3.64707
355 3.11272
360 2.89755
365 2.78244
370 2.67993
375 2.73569
380 2.19354
385 2.52784
390 2.69935
395 2.94953
400 2.68668
405 2.56363
410 2.55582
415 2.56015
420 2.58266
425 2.17794
430 2.34998
435 2.11159
440 2.12857
445 2.28715
450 1.97244
455 2.01068
460 2.16727
465 1.68219
470 1.66835
475 1.7662
480 1.69593
485 1.76689
490 1.5334
495 1.59462
500 1.67561
505 1.47627
510 1.29944
515 1.4672
520 1.08308
525 1.56298
530 1.16324
535 1.20832
540 1.20864
545 1.06427
550 1.13308
555 1.00548
560 1.13861
565 1.11624
570 1.05535
575 0.836535
580 0.881859
585 1.64363
590 36.4179
595 159.568
600 240.595
Ex : 308
200 0.391085
205 0.463989
210 0.532575
215 0.451816
220 0.317633
225 0.422267
230 0.408592
235 0.400798
240 0.276744
245 0.553274
250 0.438236
255 0.488732
260 0.45507
265 0.50552
270 0.51316
275 0.436623
280 0.353694
285 0.414913
290 0.600729
295 5.67012
300 79.6872
305 118.608
310 30.7279
315 5.83321
320 2.81152
325 2.29593
330 4.99334
335 8.82682
340 8.62456
345 5.25443
350 3.23909
355 2.98963
360 2.72767
365 2.18688
370 2.15074
375 2.23458
380 2.41593
385 2.22888
390 2.21714
395 2.18824
400 2.37288
405 2.20023
410 2.25863
415 2.2991
420 2.29204
425 2.13066
430 2.00724
435 2.04044
440 2.15091
445 2.23728
450 1.98041
455 2.08999
460 1.73433
465 1.65738
470 1.8508
475 1.73574
480 1.75394
485 1.58714
490 1.8809
495 1.43341
500 1.30699
505 1.41181
510 1.19583
515 1.30986
520 1.17466
525 1.19784
530 1.18263
535 1.08928
540 0.918292
545 1.05211
550 0.959135
555 1.03422
560 1.00991
565 0.865667
570 0.918648
575 0.872196
580 0.890658
585 0.682063
590 0.78278
595 1.42586
600 4.12685
Ex : 313
200 0.378587
205 0.301013
210 0.392205
215 0.516653
220 0.400595
225 0.349557
230 0.376544
235 0.367857
240 0.341451
245 0.446819
250 0.37475
255 0.43741
260 0.320032
265 0.331288
270 0.485239
275 0.50687
280 0.561464
285 0.424467
290 0.557691
295 0.632601
300 5.92281
305 103.737
310 156.237
315 37.2475
320 6.22661
325 2.61472
330 2.13993
335 3.49891
340 8.00887
345 8.7258
350 5.62288
355 3.02584
360 2.20986
365 1.89055
370 1.94902
375 1.70724
380 1.61914
385 2.04293
390 2.17815
395 2.20963
400 2.16247
405 2.01454
410 1.95248
415 1.87859
420 2.19175
425 2.05184
430 2.08807
435 2.04951
440 1.99717
445 2.24908
450 2.06743
455 2.10329
460 1.87277
465 1.6527
470 1.70524
475 1.59876
480 1.7717
485 1.52865
490 1.56318
495 1.31695
500 1.49768
505 1.57191
510 1.32314
515 1.42878
520 1.37268
525 1.32567
530 0.990271
535 0.916414
540 0.955587
545 1.15844
550 0.945488
555 0.921121
560 1.03862
565 0.792743
570 0.880962
575 0.798291
580 0.769889
585 0.742743
590 0.634298
595 0.668131
600 0.728143
Ex : 318
200 0.291968
205 0.295425
210 0.310468
215 0.2708
220 0.323891
225 0.464965
230 0.379274
235 0.407889
240 0.43301
245 0.353491
250 0.28044
255 0.353434
260 0.355675
265 0.304031
270 0.289201
275 0.383677
280 0.373449
285 0.360828
290 0.460776
295 0.422948
300 0.394565
305 6.85311
310 94.7039
315 132.984
320 31.2746
325 5.48028
330 2.72723
335 1.99062
340 2.86943
345 7.35475
350 8.92207
355 5.88702
360 2.85004
365 2.09368
370 2.13217
375 1.69606
380 1.61243
385 1.83032
390 1.76925
395 1.79782
400 1.79883
405 2.13801
410 2.20127
415 1.95799
420 1.74981
425 2.00287
430 2.00266
435 2.22021
440 1.86478
445 1.78524
450 1.97485
455 1.79515
460 1.71706
465 1.83833
470 1.79511
475 1.59619
480 1.5716
485 1.74848
490 1.56126
495 1.35694
500 1.43749
505 1.42903
510 1.46807
515 1.29801
520 1.30278
525 1.10126
530 0.938107
535 1.04239
540 1.02708
545 0.933033
550 1.07051
555 0.876906
560 0.781552
565 1.00502
570 0.680646
575 0.736377
580 0.70931
585 0.603532
590 0.645146
595 0.581954
600 1.79469
Ex : 323
200 0.421336
205 0.350349
210 0.243786
215 0.211574
220 0.246986
225 0.31082
230 0.331693
235 0.361563
240 0.378365
245 0.291207
250 0.248449
255 0.323032
260 0.333548
265 0.363217
270 0.366644
275 0.451921
280 0.442964
285 0.352649
290 0.352908
295 0.375597
300 0.457567
305 0.506767
310 6.93247
315 101.577
320 153.67
325 40.0278
330 6.77461
335 2.771
340 1.90538
345 2.44378
350 5.39469
355 7.9841
360 6.79593
365 3.2816
370 2.00648
375 1.64626
380 1.65762
385 1.90491
390 1.57855
395 1.8764
400 1.77414
405 1.86312
410 1.90315
415 1.73412
420 1.75719
425 1.93372
430 2.04118
435 2.08011
440 2.04587
445 1.76947
450 1.9773
455 1.86077
460 1.85252
465 1.7578
470 1.71338
475 1.61386
480 1.88324
485 1.61796
490 1.5401
495 1.46167
500 1.63897
505 1.27067
510 1.20933
515 1.3891
520 1.28582
525 1.16045
530 1.05161
535 1.04619
540 0.958648
545 0.874586
550 0.816408
555 0.701071
560 0.789382
565 0.944588
570 0.862227
575 0.809267
580 0.565301
585 0.620269
590 0.448258
595 0.529372
600 0.159442
Ex : 328
200 0.319539
205 0.292082
210 0.260477
215 0.344406
220 0.190629
225 0.208735
230 0.382573
235 0.271754
240 0.306938
245 0.25017
250 0.250672
255 0.291451
260 0.247339
265 0.319664
270 0.324143
275 0.198712
280 0.287425
285 0.322188
290 0.341719
295 0.252286
300 0.397049
305 0.394025
310 0.47832
315 7.06575
320 112.904
325 168.695
330 41.4296
335 6.64518
340 2.60775
345 1.78673
350 1.91935
355 4.47954
360 7.6978
365 7.14502
370 3.93436
375 1.91783
380 1.60022
385 1.68443
390 1.7149
395 1.5797
400 1.98533
405 1.92894
410 2.01376
415 1.79456
420 1.79607
425 2.05696
430 2.00985
435 2.04261
440 2.1221
445 1.9109
450 1.97336
455 1.93421
460 1.7816
465 2.0691
470 1.67543
475 1.51037
480 1.55595
485 1.58531
490 1.70351
495 1.48289
500 1.55151
505 1.41956
510 1.35101
515 1.29122
520 1.37492
525 1.1886
530 1.04566
535 0.942375
540 1.07377
545 0.923191
550 0.718222
555 0.75502
560 0.695873
565 0.797203
570 0.612135
575 0.774249
580 0.612004
585 0.472648
590 0.460511
595 0.351716
600 0.040024
Ex : 333
200 0.217501
205 0.228218
210 0.346069
215 0.216994
220 0.378432
225 0.350113
230 0.275564
235 0.287384
240 0.339691
245 0.230753
250 0.296341
255 0.252251
260 0.305115
265 0.291757
270 0.261032
275 0.243047
280 0.348698
285 0.314914
290 0.299524
295 0.356656
300 0.305834
305 0.291762
310 0.311564
315 0.498835
320 9.42696
325 148.094
330 206.103
335 49.5085
340 7.41622
345 2.60272
350 1.46114
355 1.43717
360 3.29787
365 6.90124
370 7.63211
375 4.98431
380 2.39628
385 1.82921
390 1.82903
395 1.77152
400 1.77472
405 1.88761
410 1.9316
415 2.11927
420 2.15482
425 1.98149
430 1.96857
435 2.0313
440 2.02162
445 1.96837
450 1.69114
455 1.89801
460 1.92926
465 1.61406
470 1.74217
475 1.70757
480 1.6755
485 1.56154
490 1.5903
495 1.44289
500 1.34492
505 1.53845
510 1.45183
515 1.2674
520 1.22084
525 1.1111
530 1.23022
535 0.995786
540 0.998325
545 0.890508
550 0.865595
555 0.765156
560 0.826873
565 0.655785
570 0.712884
575 0.560149
580 0.498514
585 0.436929
590 0.390843
595 0.421919
600 0.0920477
Ex : 338
200 0.160692
205 0.290213
210 0.233447
215 0.255185
220 0.24082
225 0.2192
230 0.327081
235 0.25981
240 0.216071
245 0.349873
250 0.2685
255 0.324899
260 0.235951
265 0.288761
270 0.225148
275 0.23729
280 0.235278
285 0.194668
290 0.27377
295 0.227466
300 0.285028
305 0.296349
310 0.287047
315 0.36933
320 0.562091
325 10.966
330 148.402
335 196.346
340 43.2155
345 6.39562
350 2.06445
355 1.2901
360 1.02271
365 2.52517
370 6.18949
375 7.7118
380 5.8775
385 2.85112
390 1.88646
395 1.66343
400 1.77788
405 1.78168
410 2.00429
415 2.30083
420 1.92666
425 1.79309
430 2.02767
435 2.06592
440 2.06846
445 2.03027
450 1.93317
455 1.86105
460 1.84253
465 2.00785
470 1.92302
475 1.98419
480 1.85655
485 1.82201
490 1.62054
495 1.62567
500 1.67356
505 1.49129
510 1.50492
515 1.18193
520 1.12209
525 1.17082
530 1.0967
535 0.941079
540 1.01312
545 0.96841
550 0.827232
555 0.748991
560 0.781301
565 0.803316
570 0.564121
575 0.511438
580 0.488424
585 0.338699
590 0.425606
595 0.414363
600 0.0471529
Ex : 343
200 0.180852
205 0.200533
210 0.25689
215 0.211264
220 0.191424
225 0.235137
230 0.220941
235 0.228823
240 0.262532
245 0.218929
250 0.200985
255 0.237548
260 0.250012
265 0.323292
270 0.215261
275 0.192099
280 0.261039
285 0.250217
290 0.236152
295 0.303735
300 0.320266
305 0.255383
310 0.238866
315 0.294711
320 0.314534
325 0.341073
330 8.21933
335 134.005
340 203.735
345 49.8336
350 7.10107
355 2.08326
360 1.0201
365 0.839216
370 1.65465
375 4.69087
380 6.87898
385 5.86443
390 3.11989
395 1.63145
400 1.64693
405 1.8301
410 1.81138
415 1.70959
420 1.65463
425 1.92212
430 1.95874
435 1.96926
440 1.9501
445 1.8227
450 1.82083
455 1.81984
460 1.80215
465 1.97392
470 1.84885
475 1.75366
480 1.68604
485 1.73664
490 1.65878
495 1.89216
500 1.64363
505 1.35056
510 1.42224
515 1.30228
520 1.27061
525 1.11523
530 1.06287
535 1.00614
540 0.886289
545 0.943784
550 0.724241
555 0.748646
560 0.613743
565 0.806117
570 0.605902
575 0.495302
580 0.445652
585 0.367215
590 0.45375
595 0.362467
600 0.531488
Ex : 348
200 0.210385
205 0.207808
210 0.187592
215 0.219149
220 0.166089
225 0.116576
230 0.109044
235 0.187114
240 0.192819
245 0.209048
250 0.230056
255 0.172429
260 0.23686
265 0.233766
270 0.212628
275 0.239395
280 0.188125
285 0.32458
290 0.190244
295 0.205317
300 0.27066
305 0.206567
310 0.214102
315 0.272898
320 0.241572
325 0.367332
330 0.3645
335 9.14327
340 131.038
345 182.257
350 46.0844
355 6.4736
360 1.92895
365 1.18209
370 0.77288
375 1.2657
380 4.00395
385 6.89441
390 6.6667
395 4.06752
400 2.15154
405 1.68479
410 1.78022
415 1.684
420 1.77743
425 1.78084
430 1.87812
435 1.89674
440 1.81966
445 2.07157
450 2.06643
455 2.09335
460 1.87384
465 1.85865
470 1.86711
475 1.97829
480 1.81258
485 1.66366
490 1.61696
495 1.48032
500 1.56401
505 1.35897
510 1.39995
515 1.25051
520 1.18755
525 1.15312
530 1.03551
535 0.842838
540 0.889447
545 0.842012
550 0.72124
555 0.769659
560 0.552209
565 0.596032
570 0.41084
575 0.471589
580 0.443368
585 0.335066
590 0.385431
595 0.352781
600 0.112925
Ex : 353
200 0.203455
205 0.238511
210 0.277195
215 0.184055
220 0.170655
225 0.17398
230 0.146796
235 0.196927
240 0.20138
245 0.238864
250 0.320306
255 0.183557
260 0.107377
265 0.20865
270 0.261044
275 0.178999
280 0.214076
285 0.32104
290 0.223892
295 0.22725
300 0.253851
305 0.193771
310 0.211581
315 0.159295
320 0.402721
325 0.284362
330 0.282933
335 0.400649
340 8.08224
345 123.27
350 186.331
355 46.5213
360 6.56193
365 1.81163
370 1.08522
375 0.849602
380 1.03358
385 3.09153
390 6.15577
395 6.57231
400 4.95855
405 2.36134
410 1.91533
415 1.83501
420 1.72421
425 1.80487
430 1.75694
435 1.76161
440 1.81767
445 2.02766
450 2.00536
455 1.89211
460 1.8208
465 1.89798
470 1.8354
475 1.89709
480 1.75651
485 1.4977
490 1.55798
495 1.55594
500 1.67264
505 1.53198
510 1.4903
515 1.20985
520 1.17349
525 1.03931
530 1.10825
535 0.981414
540 1.0021
545 0.878381
550 0.769926
555 0.694436
560 0.571105
565 0.573464
570 0.525002
575 0.512862
580 0.461322
585 0.337176
590 0.291158
595 0.292807
600 0.171978
Ex : 358
200 0.170666
205 0.172009
210 0.195847
215 0.162499
220 0.198712
225 0.204534
230 0.135385
235 0.156587
240 0.166739
245 0.200386
250 0.183485
255 0.236523
260 0.216765
265 0.247241
270 0.132436
275 0.204612
280 0.257176
285 0.231602
290 0.245503
295 0.231237
300 0.187523
305 0.260599
310 0.247464
315 0.247909
320 0.280472
325 0.27533
330 0.302794
335 0.305273
340 0.361226
345 10.0132
350 163.916
355 261.361
360 67.4201
365 8.99611
370 2.2262
375 1.18765
380 0.912323
385 0.953411
390 2.22402
395 5.35037
400 6.57315
405 5.63081
410 3.16738
415 1.97614
420 1.69161
425 1.68969
430 1.78926
435 1.86364
440 1.77567
445 1.85773
450 1.90381
455 1.79959
460 1.89935
465 1.78175
470 1.78122
475 1.71569
480 1.72395
485 1.67769
490 1.64993
495 1.57015
500 1.61675
505 1.51155
510 1.47973
515 1.2558
520 1.27372
525 1.07785
530 1.02717
535 0.965545
540 0.865307
545 0.842646
550 0.663139
555 0.673356
560 0.751574
565 0.622839
570 0.552486
575 0.403732
580 0.365823
585 0.366559
590 0.353154
595 0.262698
600 0.192365
Ex : 363
200 0.160996
205 0.191079
210 0.197393
215 0.184069
220 0.188539
225 0.186986
230 0.155866
235 0.216713
240 0.164995
245 0.18294
250 0.214589
255 0.16063
260 0.133896
265 0.183316
270 0.188231
275 0.180454
280 0.161092
285 0.167466
290 0.178836
295 0.155789
300 0.153397
305 0.17632
310 0.144165
315 0.199033
320 0.160398
325 0.201834
330 0.256627
335 0.222019
340 0.324603
345 0.482818
350 8.79389
355 141.02
360 204.336
365 50.976
370 6.8958
375 1.9633
380 1.19396
385 0.884666
390 0.903874
395 1.69971
400 4.61822
405 5.90885
410 5.85287
415 3.65578
420 1.99617
425 1.70289
430 1.7023
435 1.6654
440 1.85797
445 1.77746
450 1.74647
455 1.75903
460 1.704
465 1.79719
470 1.72342
475 1.74909
480 1.76107
485 1.71544
490 1.64461
495 1.57518
500 1.44621
505 1.41927
510 1.2808
515 1.23539
520 1.10457
525 1.10757
530 0.949084
535 0.965571
540 0.847202
545 0.746531
550 0.769198
555 0.663598
560 0.639864
565 0.507288
570 0.48108
575 0.423878
580 0.380604
585 0.313062
590 0.309626
595 0.270225
600 0.317979
Ex : 368
200 0.107893
205 0.16307
210 0.207023
215 0.171376
220 0.175574
225 0.17103
230 0.165877
235 0.137327
240 0.165148
245 0.187519
250 0.188919
255 0.151957
260 0.166098
265 0.187534
270 0.188711
275 0.164551
280 0.175114
285 0.164927
290 0.150714
295 0.157522
300 0.210803
305 0.232793
310 0.184831
315 0.238919
320 0.226576
325 0.202194
330 0.173216
335 0.236554
340 0.262678
345 0.275864
350 0.34058
355 8.50768
360 145.652
365 215.269
370 53.3359
375 7.16174
380 2.01553
385 1.30334
390 0.860123
395 0.814655
400 1.33084
405 3.7834
410 5.8076
415 5.88271
420 4.1316
425 2.38677
430 1.76107
435 1.54573
440 1.73935
445 1.87656
450 1.71639
455 1.88766
460 1.85829
465 1.79244
470 1.71178
475 1.50341
480 1.71231
485 1.61839
490 1.56285
495 1.53698
500 1.32406
505 1.30194
510 1.29446
515 1.34102
520 1.14415
525 1.10467
530 0.955268
535 0.918413
540 0.917529
545 0.758361
550 0.762244
555 0.76959
560 0.559582
565 0.445109
570 0.478646
575 0.367931
580 0.438682
585 0.371302
590 0.277607
595 0.206025
600 0.437438
Ex : 373
200 0.143858
205 0.147086
210 0.200969
215 0.146944
220 0.148521
225 0.134582
230 0.166851
235 0.139782
240 0.183749
245 0.141907
250 0.165809
255 0.12946
260 0.113985
265 0.149225
270 0.170167
275 0.148596
280 0.170089
285 0.173301
290 0.230662
295 0.169827
300 0.176966
305 0.161393
310 0.213239
315 0.159773
320 0.17601
325 0.187173
330 0.194004
335 0.209071
340 0.207898
345 0.283577
350 0.252676
355 0.437754
360 8.87344
365 144.995
370 226.427
375 61.313
380 8.1954
385 2.03968
390 1.2479
395 1.06184
400 0.985025
405 1.34997
410 2.89569
415 5.37355
420 5.68157
425 4.92241
430 2.83055
435 1.78685
440 1.78195
445 1.62609
450 1.86856
455 1.81609
460 1.89901
465 1.7014
470 1.6599
475 1.68333
480 1.55238
485 1.53831
490 1.5024
495 1.57321
500 1.44959
505 1.29737
510 1.2752
515 1.08595
520 1.06847
525 1.19272
530 0.953176
535 0.802762
540 0.804508
545 0.679146
550 0.759168
555 0.685013
560 0.646092
565 0.554433
570 0.473581
575 0.455371
580 0.343838
585 0.340938
590 0.28754
595 0.252381
600 0.47492
Ex : 378
200 0.132068
205 0.162056
210 0.150211
215 0.163597
220 0.185222
225 0.149068
230 0.141481
235 0.0926855
240 0.161558
245 0.125119
250 0.129933
255 0.12542
260 0.144052
265 0.127537
270 0.145207
275 0.111627
280 0.136719
285 0.16651
290 0.161882
295 0.174536
300 0.140426
305 0.160309
310 0.173429
315 0.18214
320 0.169565
325 0.172235
330 0.162774
335 0.226971
340 0.197649
345 0.186282
350 0.230767
355 0.2894
360 0.478293
365 9.24841
370 163.937
375 262.842
380 69.1186
385 9.06831
390 2.09455
395 1.48125
400 1.11152
405 1.00769
410 1.17669
415 2.19221
420 4.73878
425 5.50403
430 5.08116
435 3.2045
440 2.07566
445 1.71218
450 1.74675
455 1.65353
460 1.75235
465 1.89392
470 1.63024
475 1.62959
480 1.65844
485 1.51097
490 1.50512
495 1.33371
500 1.3455
505 1.32955
510 1.37006
515 1.13972
520 1.11345
525 1.01922
530 0.977902
535 0.821823
540 0.805321
545 0.833425
550 0.728416
555 0.625469
560 0.580722
565 0.548057
570 0.402059
575 0.424388
580 0.342732
585 0.407796
590 0.270678
595 0.284508
600 0.0323759
Ex : 383
200 0.161776
205 0.149098
210 0.113008
215 0.13281
220 0.148833
225 0.131825
230 0.158832
235 0.144694
240 0.189961
245 0.11283
250 0.119387
255 0.179231
260 0.189475
265 0.173278
270 0.110443
275 0.125473
280 0.205494
285 0.148659
290 0.154243
295 0.154271
300 0.140837
305 0.14459
310 0.170378
315 0.135395
320 0.218018
325 0.245852
330 0.167407
335 0.186121
340 0.164174
345 0.168489
350 0.194817
355 0.208984
360 0.300557
365 0.37782
370 8.78417
375 160.756
380 275.521
385 75.5413
390 9.722
395 2.27335
400 1.3998
405 1.05709
410 0.95107
415 1.03308
420 1.83714
425 4.13076
430 5.15349
435 4.92331
440 3.74482
445 2.11102
450 1.66543
455 1.60499
460 1.67289
465 1.59943
470 1.63344
475 1.63315
480 1.56187
485 1.52332
490 1.52242
495 1.55596
500 1.43566
505 1.3143
510 1.30344
515 1.0747
520 1.10957
525 1.05624
530 0.918232
535 0.925672
540 0.85249
545 0.773416
550 0.682304
555 0.619127
560 0.637007
565 0.517171
570 0.573734
575 0.469872
580 0.399053
585 0.293371
590 0.267148
595 0.287247
600 0.126121
Ex : 388
200 0.125327
205 0.11441
210 0.147199
215 0.145515
220 0.15711
225 0.134294
230 0.135276
235 0.121257
240 0.127632
245 0.0899443
250 0.133341
255 0.161221
260 0.137125
265 0.182988
270 0.204954
275 0.132971
280 0.130522
285 0.130273
290 0.118153
295 0.144809
300 0.160986
305 0.168785
310 0.121637
315 0.164645
320 0.167471
325 0.149833
330 0.133363
335 0.165009
340 0.202359
345 0.176595
350 0.195787
355 0.210166
360 0.217031
365 0.278482
370 0.378401
375 7.84239
380 147.818
385 279.348
390 82.9363
395 10.6529
400 2.32757
405 1.482
410 1.12423
415 1.0442
420 0.9955
425 1.4593
430 3.24948
435 4.74496
440 4.76286
445 4.25331
450 2.64479
455 1.98591
460 1.8352
465 1.6814
470 1.60764
475 1.6759
480 1.54196
485 1.47174
490 1.40013
495 1.54208
500 1.39787
505 1.30495
510 1.25964
515 1.22524
520 1.15633
525 1.06089
530 0.968125
535 0.967796
540 0.827932
545 0.796379
550 0.842526
555 0.712104
560 0.592169
565 0.582581
570 0.502077
575 0.382204
580 0.424474
585 0.297455
590 0.31619
595 0.262447
600 0.0298655
Ex : 393
200 0.161833
205 0.135601
210 0.131418
215 0.132948
220 0.153826
225 0.120308
230 0.187023
235 0.169384
240 0.132267
245 0.130507
250 0.136686
255 0.141386
260 0.128936
265 0.140807
270 0.16154
275 0.121268
280 0.151778
285 0.123518
290 0.142897
295 0.129528
300 0.143762
305 0.151166
310 0.146355
315 0.146746
320 0.128229
325 0.143282
330 0.181897
335 0.182608
340 0.219813
345 0.170268
350 0.202397
355 0.17686
360 0.180558
365 0.232693
370 0.306173
375 0.433676
380 8.8301
385 172.914
390 309.934
395 86.1054
400 10.9447
405 2.31535
410 1.36234
415 1.2041
420 1.01146
425 1.01082
430 1.32469
435 2.60638
440 4.52498
445 4.83413
450 4.48217
455 2.93323
460 1.97241
465 1.78102
470 1.68483
475 1.56341
480 1.55575
485 1.59424
490 1.53927
495 1.39094
500 1.35325
505 1.31108
510 1.25882
515 1.22447
520 1.17664
525 0.93789
530 0.9688
535 0.922322
540 0.965361
545 0.853364
550 0.828587
555 0.82271
560 0.706758
565 0.64061
570 0.579186
575 0.428295
580 0.423969
585 0.378578
590 0.300042
595 0.307704
600 0.417401
Ex : 398
200 0.132487
205 0.189673
210 0.108915
215 0.0890798
220 0.124954
225 0.131463
230 0.1521
235 0.166919
240 0.116145
245 0.16241
250 0.153984
255 0.159967
260 0.146578
265 0.134359
270 0.12357
275 0.185249
280 0.166265
285 0.186579
290 0.14282
295 0.118591
300 0.150936
305 0.16131
310 0.179345
315 0.152948
320 0.140646
325 0.115627
330 0.129528
335 0.161695
340 0.186772
345 0.147048
350 0.178489
355 0.172455
360 0.174898
365 0.210352
370 0.270062
375 0.342965
380 0.413218
385 8.91463
390 177.238
395 301.449
400 82.3766
405 10.5482
410 2.2967
415 1.3671
420 1.22813
425 0.991235
430 1.01576
435 1.23211
440 2.14443
445 4.25411
450 4.58386
455 4.31065
460 3.59419
465 2.13357
470 1.61677
475 1.57328
480 1.59388
485 1.55065
490 1.58945
495 1.37573
500 1.31892
505 1.38684
510 1.15105
515 1.20528
520 1.15863
525 1.18643
530 1.02768
535 0.976656
540 0.935193
545 0.851454
550 0.82577
555 0.816055
560 0.727737
565 0.675826
570 0.557076
575 0.488449
580 0.460088
585 0.287714
590 0.239927
595 0.268962
600 0.139222
Ex : 403
200 0.147003
205 0.162089
210 0.0947602
215 0.130456
220 0.151561
225 0.133748
230 0.161101
235 0.120137
240 0.125939
245 0.141429
250 0.118527
255 0.122978
260 0.171035
265 0.151636
270 0.124457
275 0.118581
280 0.165923
285 0.121638
290 0.128885
295 0.148661
300 0.144058
305 0.098759
310 0.140918
315 0.126745
320 0.122475
325 0.117238
330 0.13545
335 0.147504
340 0.141511
345 0.206635
350 0.169629
355 0.172594
360 0.17454
365 0.154298
370 0.225383
375 0.247625
380 0.331987
385 0.510038
390 14.9531
395 261.136
400 381.453
405 89.7995
410 11.3293
415 2.40775
420 1.53357
425 1.18622
430 1.07644
435 1.07561
440 1.27747
445 1.82187
450 3.51313
455 4.45147
460 4.32204
465 3.84126
470 2.43816
475 1.63437
480 1.57951
485 1.51951
490 1.5066
495 1.36985
500 1.40171
505 1.36325
510 1.23662
515 1.24189
520 1.14088
525 1.00826
530 0.940636
535 0.985664
540 0.809524
545 0.922235
550 0.895025
555 0.706719
560 0.679488
565 0.638864
570 0.573867
575 0.502522
580 0.350076
585 0.294741
590 0.31365
595 0.311829
600 0.126567
Ex : 408
200 0.0799583
205 0.13153
210 0.171563
215 0.119901
220 0.142983
225 0.173879
230 0.113906
235 0.095943
240 0.107239
245 0.138063
250 0.126189
255 0.13025
260 0.163167
265 0.114363
270 0.13939
275 0.153345
280 0.136572
285 0.0931193
290 0.117102
295 0.137788
300 0.173804
305 0.144556
310 0.14254
315 0.131163
320 0.133253
325 0.127744
330 0.219225
335 0.141151
340 0.188326
345 0.145838
350 0.176706
355 0.140552
360 0.224186
365 0.22525
370 0.179938
375 0.184869
380 0.240874
385 0.288909
390 0.583631
395 13.0059
400 230.767
405 331.394
410 81.4772
415 10.3089
420 2.29735
425 1.40881
430 1.34812
435 1.15217
440 1.09271
445 1.11786
450 1.58531
455 2.90329
460 4.25004
465 3.99358
470 3.74595
475 2.77935
480 1.66074
485 1.50575
490 1.35177
495 1.3142
500 1.2875
505 1.21327
510 1.29531
515 1.20373
520 1.03812
525 1.06506
530 1.0664
535 1.02598
540 0.9948
545 0.848308
550 0.778069
555 0.859335
560 0.679688
565 0.6135
570 0.559347
575 0.491723
580 0.403797
585 0.410981
590 0.33624
595 0.318135
600 0.50738
Ex : 413
200 0.136999
205 0.132794
210 0.12107
215 0.161955
220 0.121964
225 0.116481
230 0.127306
235 0.124582
240 0.132426
245 0.125665
250 0.142383
255 0.112194
260 0.120318
265 0.16619
270 0.131774
275 0.131862
280 0.127364
285 0.136123
290 0.142337
295 0.151657
300 0.102009
305 0.124714
310 0.139826
315 0.143592
320 0.135513
325 0.161058
330 0.151553
335 0.184958
340 0.135594
345 0.151541
350 0.158868
355 0.141138
360 0.175725
365 0.186641
370 0.173609
375 0.18859
380 0.217871
385 0.220509
390 0.330637
395 0.517688
400 10.8381
405 196.535
410 317.123
415 81.294
420 10.2173
425 2.24586
430 1.40259
435 1.32128
440 1.13317
445 1.09804
450 1.15174
455 1.3868
460 2.45998
465 4.05119
470 3.92533
475 3.70664
480 3.07113
485 1.84278
490 1.44405
495 1.34396
500 1.34786
505 1.24741
510 1.26275
515 1.11059
520 1.14607
525 1.08106
530 1.03891
535 1.00276
540 0.950543
545 0.855386
550 0.822051
555 0.735895
560 0.678127
565 0.637218
570 0.568401
575 0.487692
580 0.440182
585 0.393491
590 0.354473
595 0.271
600 0.334267
Ex : 418
200 0.175099
205 0.128627
210 0.104987
215 0.139951
220 0.11298
225 0.137234
230 0.159484
235 0.135521
240 0.117707
245 0.110957
250 0.10911
255 0.129269
260 0.110829
265 0.141752
270 0.133737
275 0.123244
280 0.137089
285 0.148727
290 0.102802
295 0.141418
300 0.118218
305 0.132603
310 0.124845
315 0.137185
320 0.11191
325 0.155922
330 0.150815
335 0.182525
340 0.162579
345 0.154129
350 0.120659
355 0.146661
360 0.141091
365 0.182974
370 0.137733
375 0.149703
380 0.225722
385 0.20975
390 0.257676
395 0.340085
400 0.445525
405 11.1185
410 200.072
415 329.822
420 84.0836
425 10.631
430 2.23162
435 1.43231
440 1.4432
445 1.20117
450 1.10316
455 1.11467
460 1.17674
465 1.88832
470 3.39941
475 3.66037
480 3.57726
485 3.14622
490 2.03622
495 1.39454
500 1.29668
505 1.21535
510 1.2435
515 1.13001
520 1.10485
525 1.06331
530 0.974194
535 0.938472
540 0.885057
545 0.8796
550 0.757776
555 0.737494
560 0.712391
565 0.631178
570 0.552574
575 0.457475
580 0.37959
585 0.364385
590 0.31613
595 0.276605
600 0.142844
Ex : 423
200 0.111712
205 0.11028
210 0.123632
215 0.124702
220 0.134552
225 0.134078
230 0.159305
235 0.13593
240 0.126471
245 0.112197
250 0.136743
255 0.154066
260 0.116705
265 0.130724
270 0.167605
275 0.155573
280 0.172308
285 0.130033
290 0.159638
295 0.168836
300 0.124567
305 0.131881
310 0.129154
315 0.146095
320 0.1531
325 0.15167
330 0.144
335 0.123248
340 0.148338
345 0.133011
350 0.162704
355 0.165837
360 0.171288
365 0.151499
370 0.108134
375 0.136303
380 0.187707
385 0.214514
390 0.218048
395 0.217459
400 0.297651
405 0.481876
410 10.1476
415 201.559
420 330.745
425 86.449
430 11.0221
435 2.41556
440 1.48697
445 1.27704
450 1.22856
455 1.06363
460 1.01215
465 1.07371
470 1.51292
475 2.86274
480 3.77844
485 3.53382
490 3.18028
495 2.27523
500 1.47914
505 1.23817
510 1.24144
515 1.08766
520 1.08674
525 0.973679
530 0.946587
535 0.914871
540 0.919316
545 0.871802
550 0.826817
555 0.753732
560 0.671267
565 0.610127
570 0.483527
575 0.402166
580 0.401865
585 0.39839
590 0.314076
595 0.256006
600 0.557033
Ex : 428
200 0.131047
205 0.1112
210 0.129027
215 0.146942
220 0.117148
225 0.121113
230 0.143693
235 0.141082
240 0.101596
245 0.126231
250 0.122062
255 0.176644
260 0.145151
265 0.120386
270 0.114703
275 0.136115
280 0.137859
285 0.129091
290 0.125779
295 0.106598
300 0.131343
305 0.131426
310 0.135091
315 0.115988
320 0.128753
325 0.115628
330 0.150298
335 0.145521
340 0.171352
345 0.151252
350 0.177345
355 0.154023
360 0.146912
365 0.180541
370 0.156072
375 0.131784
380 0.189924
385 0.163241
390 0.184943
395 0.228213
400 0.253094
405 0.347478
410 0.544191
415 12.2833
420 230.811
425 368.132
430 93.9148
435 11.9302
440 2.57072
445 1.53314
450 1.34836
455 1.13316
460 0.942886
465 1.0207
470 1.03986
475 1.21114
480 2.41076
485 3.38013
490 3.24248
495 3.25662
500 2.56036
505 1.65338
510 1.13927
515 1.00512
520 1.03266
525 1.01799
530 0.935253
535 0.921996
540 0.876754
545 0.803984
550 0.720373
555 0.715163
560 0.659402
565 0.580335
570 0.508704
575 0.462937
580 0.384154
585 0.341345
590 0.268927
595 0.247734
600 0.183156
Ex : 433
200 0.159417
205 0.108088
210 0.128793
215 0.161711
220 0.144414
225 0.0915689
230 0.10824
235 0.167425
240 0.110304
245 0.144949
250 0.151814
255 0.110517
260 0.181769
265 0.169438
270 0.139451
275 0.127982
280 0.139945
285 0.148971
290 0.152998
295 0.156029
300 0.152707
305 0.129812
310 0.149002
315 0.191881
320 0.167416
325 0.144629
330 0.117909
335 0.162687
340 0.161048
345 0.155198
350 0.144049
355 0.184068
360 0.128453
365 0.176492
370 0.175788
375 0.162549
380 0.170666
385 0.17056
390 0.278392
395 0.254021
400 0.218242
405 0.398176
410 0.364823
415 0.562324
420 16.5044
425 261.144
430 373.182
435 94.3722
440 11.9463
445 2.56649
450 1.52722
455 1.23157
460 1.22344
465 1.02739
470 1.05974
475 1.00508
480 1.08052
485 1.89992
490 3.24068
495 3.12497
500 2.92157
505 2.46031
510 1.64986
515 1.18014
520 1.03883
525 0.902236
530 0.949772
535 0.891743
540 0.818815
545 0.7203
550 0.709812
555 0.661704
560 0.594632
565 0.562722
570 0.554292
575 0.402861
580 0.392565
585 0.336583
590 0.302775
595 0.248407
600 0.251056
Ex : 438
200 0.134236
205 0.120375
210 0.114011
215 0.118142
220 0.157414
225 0.174246
230 0.127957
235 0.162093
240 0.145988
245 0.161348
250 0.124888
255 0.19088
260 0.147443
265 0.138174
270 0.122393
275 0.151172
280 0.116505
285 0.168797
290 0.150408
295 0.123229
300 0.141867
305 0.100869
310 0.114757
315 0.15217
320 0.175014
325 0.175352
330 0.182551
335 0.222175
340 0.171584
345 0.15628
350 0.151909
355 0.147966
360 0.151516
365 0.178203
370 0.163505
375 0.171216
380 0.181202
385 0.159957
390 0.227672
395 0.189123
400 0.24358
405 0.198053
410 0.261717
415 0.366873
420 0.535766
425 13.0931
430 263.296
435 435.44
440 107.127
445 13.4565
450 2.65988
455 1.44968
460 1.26567
465 1.18409
470 0.955289
475 0.887629
480 0.95777
485 0.906699
490 1.29761
495 2.86646
500 3.11466
505 2.82091
510 2.65711
515 1.98045
520 1.18543
525 0.955315
530 0.93965
535 0.861917
540 0.760021
545 0.779827
550 0.618247
555 0.673254
560 0.624711
565 0.589823
570 0.549177
575 0.425729
580 0.322
585 0.273359
590 0.313331
595 0.305642
600 0.173793
Ex : 443
200 0.110266
205 0.0942088
210 0.173041
215 0.168524
220 0.13467
225 0.10685
230 0.159779
235 0.167081
240 0.134115
245 0.103521
250 0.126007
255 0.162508
260 0.243509
265 0.151039
270 0.148201
275 0.120152
280 0.146711
285 0.150983
290 0.15198
295 0.122348
300 0.143025
305 0.137519
310 0.115151
315 0.123064
320 0.151412
325 0.128465
330 0.165582
335 0.193094
340 0.141907
345 0.197988
350 0.163827
355 0.146032
360 0.163533
365 0.13233
370 0.137956
375 0.129118
380 0.164215
385 0.218524
390 0.203175
395 0.217818
400 0.233129
405 0.224343
410 0.220257
415 0.28066
420 0.372868
425 0.491438
430 15.2629
435 251.347
440 398.03
445 102.218
450 12.7439
455 2.4447
460 1.30563
465 1.19867
470 1.11729
475 0.925966
480 0.791536
485 0.952325
490 0.891394
495 1.16581
500 2.1575
505 2.966
510 2.56931
515 2.59945
520 1.99194
525 1.38829
530 0.928542
535 0.765873
540 0.711686
545 0.757532
550 0.675719
555 0.587209
560 0.530212
565 0.551088
570 0.461772
575 0.383759
580 0.307806
585 0.362646
590 0.344303
595 0.274262
600 0.276964
Ex : 448
200 0.108979
205 0.158296
210 0.166848
215 0.111198
220 0.1348
225 0.129928
230 0.143018
235 0.122887
240 0.0940135
245 0.11298
250 0.139062
255 0.109312
260 0.133217
265 0.142827
270 0.129079
275 0.156587
280 0.173912
285 0.141947
290 0.144515
295 0.147417
300 0.122583
305 0.136367
310 0.131037
315 0.1288
320 0.157643
325 0.152223
330 0.191335
335 0.177326
340 0.197324
345 0.172378
350 0.163824
355 0.167315
360 0.170147
365 0.137241
370 0.18398
375 0.175378
380 0.174758
385 0.154071
390 0.212455
395 0.190905
400 0.135274
405 0.238483
410 0.23437
415 0.269791
420 0.328774
425 0.434818
430 0.586063
435 17.8613
440 287.547
445 388.958
450 91.483
455 11.5895
460 2.32562
465 1.23045
470 1.03883
475 1.01768
480 0.841817
485 0.64364
490 0.714032
495 0.804321
500 0.920034
505 1.68809
510 2.60018
515 2.38146
520 2.28532
525 2.2008
530 1.43213
535 0.89647
540 0.770156
545 0.710273
550 0.705677
555 0.608125
560 0.523463
565 0.497175
570 0.452262
575 0.405111
580 0.356965
585 0.267019
590 0.240013
595 0.210451
600 0.14627
Ex : 453
200 0.15536
205 0.14348
210 0.118135
215 0.12364
220 0.115884
225 0.124545
230 0.172461
235 0.124558
240 0.174208
245 0.154416
250 0.136638
255 0.0865163
260 0.13722
265 0.128205
270 0.130695
275 0.141277
280 0.150546
285 0.12384
290 0.134734
295 0.12667
300 0.13369
305 0.171891
310 0.149085
315 0.124222
320 0.124919
325 0.147628
330 0.18419
335 0.161652
340 0.129385
345 0.18733
350 0.183222
355 0.147572
360 0.157841
365 0.141229
370 0.14073
375 0.153563
380 0.202311
385 0.214096
390 0.146438
395 0.15427
400 0.17386
405 0.208061
410 0.251641
415 0.248269
420 0.264854
425 0.288542
430 0.390777
435 0.687513
440 20.8908
445 337.52
450 451.286
455 105.177
460 12.9918
465 2.37923
470 1.15695
475 0.990589
480 0.953061
485 0.773992
490 0.703035
495 0.676655
500 0.789249
505 0.796387
510 1.29685
515 2.26357
520 2.39619
525 2.09148
530 2.14041
535 1.62639
540 1.01798
545 0.748991
550 0.711749
555 0.634485
560 0.578376
565 0.520978
570 0.500421
575 0.41485
580 0.380493
585 0.344864
590 0.327794
595 0.275078
600 0.527577
Ex : 458
200 0.110986
205 0.111327
210 0.121825
215 0.166608
220 0.153747
225 0.14164
230 0.155852
235 0.123776
240 0.145901
245 0.156881
250 0.143303
255 0.0994741
260 0.130555
265 0.15862
270 0.128105
275 0.109899
280 0.152704
285 0.144479
290 0.156387
295 0.160138
300 0.139332
305 0.155538
310 0.138787
315 0.131976
320 0.173504
325 0.129986
330 0.176862
335 0.171887
340 0.172627
345 0.14549
350 0.178105
355 0.138211
360 0.18077
365 0.169241
370 0.202827
375 0.153609
380 0.179847
385 0.182412
390 0.184291
395 0.174594
400 0.235215
405 0.189191
410 0.273883
415 0.191012
420 0.253497
425 0.260465
430 0.324903
435 0.424635
440 0.651448
445 22.6863
450 345.726
455 465.616
460 104.168
465 12.9467
470 2.35014
475 1.16979
480 0.992235
485 0.900676
490 0.757897
495 0.671747
500 0.682995
505 0.716775
510 0.843921
515 0.965628
520 1.78429
525 2.32253
530 1.87939
535 1.97279
540 1.80166
545 1.11752
550 0.728083
555 0.594404
560 0.570749
565 0.586427
570 0.444813
575 0.419835
580 0.355059
585 0.344376
590 0.257118
595 0.247238
600 0.179559
Ex : 463
200 0.151614
205 0.143485
210 0.134005
215 0.146153
220 0.188769
225 0.148442
230 0.18507
235 0.147137
240 0.14066
245 0.125285
250 0.127819
255 0.152094
260 0.144516
265 0.14016
270 0.177218
275 0.145725
280 0.168592
285 0.120484
290 0.151012
295 0.156919
300 0.216672
305 0.142216
310 0.113411
315 0.120694
320 0.17351
325 0.192397
330 0.171489
335 0.126152
340 0.194069
345 0.166059
350 0.132077
355 0.144811
360 0.159702
365 0.195724
370 0.165234
375 0.141482
380 0.176891
385 0.170975
390 0.185997
395 0.196673
400 0.177868
405 0.166145
410 0.223812
415 0.212184
420 0.22152
425 0.230778
430 0.342694
435 0.322349
440 0.431183
445 0.793545
450 21.6576
455 381.304
460 632.576
465 166.525
470 20.2258
475 3.2717
480 1.28445
485 0.978822
490 0.957848
495 0.823721
500 0.693374
505 0.743642
510 0.697552
515 0.738354
520 0.833278
525 1.28585
530 2.2366
535 1.99451
540 1.79724
545 1.76747
550 1.36234
555 0.847583
560 0.647332
565 0.482588
570 0.484811
575 0.456588
580 0.343334
585 0.339251
590 0.254031
595 0.209964
600 0.0238931
Ex : 468
200 0.145993
205 0.154066
210 0.11803
215 0.12651
220 0.117609
225 0.15676
230 0.126757
235 0.123208
240 0.131636
245 0.154737
250 0.15068
255 0.152101
260 0.131361
265 0.123578
270 0.141599
275 0.108578
280 0.159107
285 0.149146
290 0.160256
295 0.178321
300 0.167975
305 0.151847
310 0.13292
315 0.117166
320 0.149915
325 0.187134
330 0.158603
335 0.178832
340 0.127037
345 0.217632
350 0.191701
355 0.182418
360 0.17741
365 0.247785
370 0.15782
375 0.205574
380 0.198932
385 0.199514
390 0.205134
395 0.172587
400 0.145577
405 0.228703
410 0.20476
415 0.181003
420 0.21656
425 0.188779
430 0.199639
435 0.264881
440 0.3358
445 0.437852
450 0.666086
455 26.5109
460 374.435
465 513.635
470 115.84
475 14.1304
480 2.4295
485 1.10712
490 1.0043
495 0.90901
500 0.831954
505 0.658718
510 0.597998
515 0.606276
520 0.724944
525 0.739609
530 1.0922
535 1.91245
540 1.99009
545 1.55697
550 1.67011
555 1.39512
560 0.911321
565 0.636559
570 0.511136
575 0.449584
580 0.350446
585 0.293141
590 0.235624
595 0.270314
600 0.268414
Ex : 473
200 0.157218
205 0.140006
210 0.140948
215 0.138029
220 0.157211
225 0.215183
230 0.205511
235 0.159292
240 0.103876
245 0.146079
250 0.13147
255 0.133637
260 0.15091
265 0.157705
270 0.155116
275 0.113488
280 0.110836
285 0.127746
290 0.120034
295 0.161589
300 0.14968
305 0.189176
310 0.163364
315 0.131451
320 0.14336
325 0.132075
330 0.116145
335 0.215523
340 0.218407
345 0.208479
350 0.161941
355 0.19133
360 0.157381
365 0.148492
370 0.159514
375 0.176383
380 0.198
385 0.167736
390 0.137011
395 0.151766
400 0.161901
405 0.195817
410 0.183619
415 0.227526
420 0.195406
425 0.199895
430 0.228128
435 0.187376
440 0.252418
445 0.330202
450 0.478728
455 0.69679
460 21.8136
465 379.132
470 704.943
475 187.54
480 22.4361
485 3.29623
490 1.17332
495 0.986709
500 0.872544
505 0.799405
510 0.6097
515 0.636464
520 0.637889
525 0.681038
530 0.64326
535 0.910724
540 1.50719
545 1.91411
550 1.52009
555 1.58521
560 1.41612
565 0.947571
570 0.575152
575 0.419801
580 0.368786
585 0.313201
590 0.283534
595 0.225144
600 0.298299
Ex : 478
200 0.233174
205 0.197691
210 0.176608
215 0.151717
220 0.13131
225 0.185344
230 0.154361
235 0.209812
240 0.148607
245 0.169168
250 0.162222
255 0.201362
260 0.196076
265 0.177802
270 0.145589
275 0.191702
280 0.19648
285 0.192495
290 0.158564
295 0.17234
300 0.220134
305 0.204139
310 0.185772
315 0.189379
320 0.181018
325 0.19565
330 0.166985
335 0.21292
340 0.217637
345 0.193042
350 0.231909
355 0.210989
360 0.185788
365 0.198383
370 0.172951
375 0.165691
380 0.16045
385 0.177122
390 0.177299
395 0.149213
400 0.195698
405 0.197162
410 0.196112
415 0.199154
420 0.206608
425 0.171147
430 0.206261
435 0.256591
440 0.243636
445 0.224645
450 0.357111
455 0.496063
460 0.68421
465 24.5695
470 356.694
475 475.06
480 113.734
485 13.942
490 2.45891
495 1.01437
500 0.899086
505 0.899211
510 0.881174
515 0.772224
520 0.642487
525 0.657977
530 0.590906
535 0.572981
540 0.682429
545 1.19382
550 1.78387
555 1.56337
560 1.38214
565 1.27987
570 0.9483
575 0.669256
580 0.338891
585 0.327162
590 0.268684
595 0.275813
600 0.156051
Ex : 483
200 0.150198
205 0.148591
210 0.143207
215 0.21264
220 0.179388
225 0.151161
230 0.154164
235 0.293844
240 0.207251
245 0.216967
250 0.144012
255 0.166162
260 0.163972
265 0.176813
270 0.140685
275 0.177799
280 0.205011
285 0.159341
290 0.217934
295 0.153883
300 0.213554
305 0.216479
310 0.210076
315 0.175055
320 0.179715
325 0.205446
330 0.182544
335 0.192886
340 0.198337
345 0.224536
350 0.204816
355 0.216693
360 0.24994
365 0.185133
370 0.235834
375 0.254077
380 0.224541
385 0.178101
390 0.187375
395 0.208184
400 0.268062
405 0.239699
410 0.205947
415 0.227434
420 0.219093
425 0.271048
430 0.288526
435 0.236357
440 0.283559
445 0.25634
450 0.335329
455 0.421645
460 0.539225
465 0.763902
470 27.6363
475 409.439
480 536.481
485 122.232
490 14.8964
495 2.50596
500 1.0969
505 0.90326
510 0.932016
515 0.805687
520 0.70948
525 0.69059
530 0.625169
535 0.622544
540 0.637557
545 0.634154
550 0.768999
555 1.42867
560 1.55015
565 1.16471
570 1.10914
575 0.968468
580 0.677907
585 0.396273
590 0.318401
595 0.273449
600 0.191241
Ex : 488
200 0.273296
205 0.176341
210 0.15883
215 0.178932
220 0.170401
225 0.205769
230 0.158711
235 0.181326
240 0.25305
245 0.209745
250 0.179043
255 0.156909
260 0.177608
265 0.173593
270 0.212639
275 0.21157
280 0.203773
285 0.157051
290 0.198934
295 0.180787
300 0.165652
305 0.183105
310 0.245541
315 0.230453
320 0.206658
325 0.155999
330 0.16836
335 0.205426
340 0.151003
345 0.227055
350 0.224064
355 0.212228
360 0.195026
365 0.209886
370 0.198981
375 0.286799
380 0.256876
385 0.271082
390 0.242251
395 0.229172
400 0.200142
405 0.192876
410 0.270179
415 0.229352
420 0.22062
425 0.261349
430 0.236394
435 0.286409
440 0.304322
445 0.343809
450 0.376954
455 0.413369
460 0.452682
465 0.670554
470 0.895754
475 31.1858
480 447.961
485 544.333
490 118.265
495 14.4383
500 2.5063
505 1.10485
510 0.834676
515 0.878717
520 0.911044
525 0.770571
530 0.658843
535 0.55522
540 0.545071
545 0.503717
550 0.548413
555 0.625871
560 1.08706
565 1.49295
570 1.11661
575 1.0076
580 0.900752
585 0.598033
590 0.382084
595 0.253544
600 0.226802
Ex : 493
200 0.131607
205 0.13615
210 0.205153
215 0.175229
220 0.161974
225 0.179842
230 0.227578
235 0.200604
240 0.210848
245 0.229662
250 0.179236
255 0.191903
260 0.211629
265 0.225682
270 0.19933
275 0.142186
280 0.179442
285 0.205539
290 0.170955
295 0.177479
300 0.21299
305 0.175257
310 0.180458
315 0.205403
320 0.19589
325 0.178119
330 0.247729
335 0.221198
340 0.195276
345 0.18802
350 0.229024
355 0.236128
360 0.176013
365 0.176518
370 0.220198
375 0.220124
380 0.177638
385 0.149781
390 0.237118
395 0.196871
400 0.204926
405 0.200121
410 0.208681
415 0.21401
420 0.167344
425 0.237502
430 0.22154
435 0.248939
440 0.281508
445 0.271186
450 0.267206
455 0.323413
460 0.360935
465 0.438858
470 0.509246
475 0.702522
480 23.6808
485 381.811
490 543.86
495 117.266
500 14.2535
505 2.29866
510 0.973639
515 0.909648
520 0.789221
525 0.936111
530 0.768029
535 0.641983
540 0.641148
545 0.53165
550 0.530415
555 0.460113
560 0.480227
565 0.766575
570 1.13459
575 1.13055
580 0.826817
585 0.684646
590 0.606628
595 0.4972
600 0.0626912
Ex : 498
200 0.215817
205 0.170671
210 0.202043
215 0.179819
220 0.149769
225 0.156068
230 0.203637
235 0.22279
240 0.254316
245 0.26485
250 0.181001
255 0.20348
260 0.1969
265 0.212603
270 0.250269
275 0.175885
280 0.174455
285 0.174508
290 0.16543
295 0.153851
300 0.187687
305 0.200508
310 0.210388
315 0.30831
320 0.256716
325 0.246302
330 0.207717
335 0.186831
340 0.284908
345 0.23881
350 0.242555
355 0.240907
360 0.234617
365 0.182743
370 0.201619
375 0.314362
380 0.239007
385 0.269514
390 0.241873
395 0.276547
400 0.222963
405 0.196244
410 0.185851
415 0.217339
420 0.196116
425 0.17837
430 0.229576
435 0.227154
440 0.228511
445 0.270526
450 0.295694
455 0.337038
460 0.340042
465 0.485923
470 0.435396
475 0.528072
480 0.816508
485 28.4619
490 393.371
495 529.1
500 119.537
505 14.5114
510 2.35762
515 1.10021
520 0.807563
525 0.725704
530 0.80779
535 0.725222
540 0.570004
545 0.603303
550 0.514408
555 0.52309
560 0.478438
565 0.471961
570 0.59463
575 0.893325
580 0.989146
585 0.698787
590 0.571358
595 0.606525
600 0.156298
Ex : 503
200 0.196207
205 0.17314
210 0.160977
215 0.261397
220 0.17806
225 0.246883
230 0.254021
235 0.241643
240 0.206177
245 0.313303
250 0.26376
255 0.191158
260 0.18166
265 0.192501
270 0.214998
275 0.228935
280 0.156725
285 0.207056
290 0.205518
295 0.228803
300 0.204317
305 0.262652
310 0.258183
315 0.204776
320 0.199346
325 0.191587
330 0.219194
335 0.304265
340 0.304364
345 0.296374
350 0.299168
355 0.287772
360 0.298813
365 0.241282
370 0.204287
375 0.210491
380 0.217235
385 0.199669
390 0.259134
395 0.27968
400 0.247126
405 0.237563
410 0.221
415 0.267407
420 0.239661
425 0.253791
430 0.235999
435 0.332514
440 0.259454
445 0.366436
450 0.283796
455 0.275885
460 0.378488
465 0.390117
470 0.407445
475 0.607431
480 0.681114
485 0.958607
490 31.3161
495 542.272
500 705.322
505 147.875
510 17.9403
515 2.94307
520 1.01863
525 0.818779
530 0.757548
535 0.73664
540 0.746239
545 0.623271
550 0.550275
555 0.514573
560 0.474289
565 0.460781
570 0.417302
575 0.514685
580 0.643469
585 0.875965
590 0.588604
595 0.562568
600 0.210528
Ex : 508
200 0.198459
205 0.242601
210 0.210218
215 0.22123
220 0.188866
225 0.205394
230 0.242573
235 0.162714
240 0.213534
245 0.220759
250 0.337303
255 0.226491
260 0.248837
265 0.260534
270 0.206269
275 0.178321
280 0.197694
285 0.231381
290 0.193698
295 0.210621
300 0.220277
305 0.188708
310 0.216991
315 0.229345
320 0.218744
325 0.214538
330 0.236236
335 0.205475
340 0.258485
345 0.21091
350 0.228119
355 0.24118
360 0.213484
365 0.229514
370 0.24018
375 0.27539
380 0.222861
385 0.249801
390 0.225677
395 0.208865
400 0.255553
405 0.269391
410 0.264205
415 0.227712
420 0.279942
425 0.216452
430 0.277628
435 0.208172
440 0.304093
445 0.291953
450 0.277124
455 0.285863
460 0.296576
465 0.320192
470 0.421189
475 0.438703
480 0.44073
485 0.63105
490 0.869421
495 30.7723
500 386.131
505 475.819
510 113.151
515 13.8682
520 2.35005
525 1.04602
530 0.718833
535 0.72767
540 0.820076
545 0.619989
550 0.594895
555 0.602304
560 0.510265
565 0.479229
570 0.427485
575 0.436065
580 0.406207
585 0.439322
590 0.777794
595 0.565607
600 0.553815
Ex : 513
200 0.221924
205 0.227786
210 0.200326
215 0.178356
220 0.178183
225 0.193373
230 0.240604
235 0.177101
240 0.19488
245 0.148935
250 0.487727
255 0.329503
260 0.182947
265 0.241492
270 0.275429
275 0.211984
280 0.246343
285 0.261619
290 0.203955
295 0.244276
300 0.20935
305 0.287976
310 0.21119
315 0.215796
320 0.19024
325 0.251226
330 0.217603
335 0.240515
340 0.262538
345 0.296263
350 0.345473
355 0.312155
360 0.298183
365 0.254238
370 0.29623
375 0.272769
380 0.236264
385 0.313235
390 0.218753
395 0.277145
400 0.303296
405 0.251668
410 0.314251
415 0.297786
420 0.312023
425 0.337765
430 0.302493
435 0.250696
440 0.385516
445 0.310629
450 0.258958
455 0.269497
460 0.317948
465 0.340009
470 0.388456
475 0.396597
480 0.374258
485 0.577788
490 0.589303
495 0.766928
500 29.7211
505 470.056
510 569.134
515 126.274
520 15.4321
525 2.4176
530 0.93417
535 0.74481
540 0.703208
545 0.705502
550 0.743833
555 0.65446
560 0.60807
565 0.502293
570 0.467126
575 0.49778
580 0.440676
585 0.449429
590 0.484976
595 0.604664
600 0.0688085
Ex : 518
200 0.186819
205 0.223537
210 0.238772
215 0.198373
220 0.1997
225 0.184044
230 0.191338
235 0.18548
240 0.248042
245 0.193916
250 0.462299
255 0.735632
260 0.283511
265 0.173119
270 0.259277
275 0.312132
280 0.279474
285 0.287934
290 0.23874
295 0.213903
300 0.231256
305 0.351529
310 0.220488
315 0.239125
320 0.230435
325 0.284874
330 0.206748
335 0.332058
340 0.279296
345 0.306369
350 0.223255
355 0.228831
360 0.247424
365 0.230358
370 0.267871
375 0.222986
380 0.210848
385 0.29743
390 0.218841
395 0.337855
400 0.261054
405 0.248387
410 0.269332
415 0.275569
420 0.209801
425 0.212232
430 0.225164
435 0.262884
440 0.267289
445 0.286082
450 0.255351
455 0.280051
460 0.32102
465 0.41225
470 0.294455
475 0.278234
480 0.342547
485 0.406007
490 0.587543
495 0.580763
500 0.752339
505 20.432
510 380.769
515 731.972
520 206.785
525 24.755
530 3.63039
535 1.10413
540 0.82776
545 0.704747
550 0.556787
555 0.718723
560 0.682966
565 0.681684
570 0.544884
575 0.444451
580 0.412945
585 0.376653
590 0.331402
595 0.420198
600 0.580737
Ex : 523
200 0.215359
205 0.215776
210 0.232775
215 0.271519
220 0.214363
225 0.206166
230 0.247512
235 0.25163
240 0.240641
245 0.290136
250 0.276566
255 1.01064
260 0.769086
265 0.278871
270 0.30119
275 0.209077
280 0.341914
285 0.251724
290 0.260749
295 0.300151
300 0.332376
305 0.387604
310 0.375299
315 0.376737
320 0.287551
325 0.263754
330 0.2976
335 0.263192
340 0.26349
345 0.349017
350 0.309574
355 0.325385
360 0.327024
365 0.447075
370 0.339405
375 0.271918
380 0.231336
385 0.215915
390 0.281534
395 0.273235
400 0.251401
405 0.295268
410 0.272358
415 0.284138
420 0.263655
425 0.237493
430 0.328335
435 0.317484
440 0.306369
445 0.300516
450 0.324393
455 0.306279
460 0.26806
465 0.277967
470 0.337593
475 0.349518
480 0.361449
485 0.486963
490 0.408253
495 0.44935
500 0.597975
505 0.966654
510 26.1358
515 361.646
520 475.88
525 117.784
530 14.2899
535 2.38632
540 0.87108
545 0.746519
550 0.646673
555 0.64746
560 0.843099
565 0.803754
570 0.689979
575 0.489707
580 0.486976
585 0.421653
590 0.440017
595 0.438917
600 0.385379
Ex : 528
200 0.249914
205 0.214273
210 0.200821
215 0.266376
220 0.256676
225 0.212448
230 0.292816
235 0.245459
240 0.190824
245 0.304829
250 0.287611
255 0.559858
260 1.22558
265 0.441602
270 0.276982
275 0.267011
280 0.295538
285 0.32852
290 0.326339
295 0.240548
300 0.274574
305 0.267983
310 0.310689
315 0.266463
320 0.263919
325 0.360569
330 0.343527
335 0.28364
340 0.359103
345 0.314075
350 0.324624
355 0.353648
360 0.353154
365 0.340587
370 0.25987
375 0.29085
380 0.308425
385 0.384734
390 0.256815
395 0.221605
400 0.243679
405 0.261071
410 0.329669
415 0.27296
420 0.309246
425 0.275327
430 0.31934
435 0.253847
440 0.291153
445 0.316271
450 0.30961
455 0.313639
460 0.294505
465 0.234877
470 0.339664
475 0.337074
480 0.320606
485 0.346195
490 0.424357
495 0.394426
500 0.583543
505 0.665477
510 0.932952
515 19.472
520 338.046
525 492.226
530 119.46
535 14.4559
540 2.3856
545 0.979794
550 0.87892
555 0.743577
560 0.652211
565 0.795529
570 0.877783
575 0.866327
580 0.530779
585 0.502425
590 0.447701
595 0.559473
600 1.27952
Ex : 533
200 0.265248
205 0.196461
210 0.210385
215 0.243716
220 0.231653
225 0.296405
230 0.283247
235 0.246604
240 0.225695
245 0.231328
250 0.225085
255 0.250177
260 1.15539
265 0.823543
270 0.427104
275 0.307836
280 0.315585
285 0.396303
290 0.403393
295 0.299699
300 0.29576
305 0.358605
310 0.330796
315 0.354069
320 0.356694
325 0.370893
330 0.376026
335 0.500158
340 0.47781
345 0.398753
350 0.372931
355 0.335883
360 0.332702
365 0.34129
370 0.373224
375 0.302164
380 0.279471
385 0.271352
390 0.285814
395 0.251013
400 0.284384
405 0.322091
410 0.282348
415 0.304718
420 0.332603
425 0.233032
430 0.231985
435 0.32226
440 0.366686
445 0.314028
450 0.287461
455 0.297713
460 0.31593
465 0.345425
470 0.391475
475 0.344065
480 0.41451
485 0.345513
490 0.316784
495 0.454465
500 0.419265
505 0.590837
510 0.58509
515 0.996685
520 28.3983
525 394.268
530 628.693
535 167.576
540 20.2304
545 2.99983
550 1.06425
555 0.850006
560 0.690466
565 0.62721
570 0.679486
575 0.774672
580 0.806262
585 0.759961
590 0.682271
595 0.555123
600 0.48178
Ex : 538
200 0.217676
205 0.300594
210 0.224861
215 0.231456
220 0.324921
225 0.297363
230 0.184056
235 0.200261
240 0.275626
245 0.232533
250 0.24757
255 0.240561
260 0.559141
265 1.57499
270 0.485675
275 0.274233
280 0.320136
285 0.27463
290 0.467041
295 0.450651
300 0.402009
305 0.277104
310 0.327155
315 0.387319
320 0.437355
325 0.4357
330 0.448322
335 0.409672
340 0.357955
345 0.398083
350 0.316778
355 0.295683
360 0.289271
365 0.356498
370 0.370411
375 0.241922
380 0.300828
385 0.277388
390 0.262883
395 0.340688
400 0.257238
405 0.382671
410 0.25264
415 0.247958
420 0.319476
425 0.276817
430 0.345186
435 0.318446
440 0.406822
445 0.348974
450 0.334227
455 0.273655
460 0.333101
465 0.376927
470 0.359885
475 0.282515
480 0.307774
485 0.376109
490 0.368625
495 0.362368
500 0.450866
505 0.485197
510 0.470646
515 0.65312
520 0.905395
525 25.3906
530 499.013
535 752.443
540 170.05
545 20.5382
550 3.13347
555 1.05572
560 0.836958
565 0.682517
570 0.783706
575 0.760365
580 0.907465
585 0.972512
590 0.857773
595 0.562039
600 0.243035
Ex : 543
200 0.206949
205 0.239082
210 0.296292
215 0.329686
220 0.252261
225 0.215466
230 0.259082
235 0.189804
240 0.291219
245 0.323448
250 0.224228
255 0.262367
260 0.316064
265 1.64181
270 1.35807
275 0.401689
280 0.324944
285 0.280131
290 0.366535
295 0.45838
300 0.437793
305 0.369445
310 0.486449
315 0.424806
320 0.362184
325 0.415951
330 0.463569
335 0.404701
340 0.380967
345 0.302358
350 0.417879
355 0.334179
360 0.289396
365 0.303518
370 0.313294
375 0.377041
380 0.30879
385 0.327853
390 0.39718
395 0.341809
400 0.309643
405 0.359932
410 0.264012
415 0.305582
420 0.322668
425 0.278359
430 0.406228
435 0.330828
440 0.32205
445 0.355117
450 0.304583
455 0.351924
460 0.372317
465 0.443213
470 0.394001
475 0.406981
480 0.355757
485 0.336489
490 0.345234
495 0.303769
500 0.4298
505 0.454487
510 0.422717
515 0.480107
520 0.538298
525 0.678048
530 17.2927
535 310.951
540 469.658
545 124.642
550 15.1804
555 2.39295
560 0.788987
565 0.764906
570 0.722351
575 0.606135
580 0.744628
585 0.755087
590 0.795983
595 0.757616
600 0.456638
Ex : 548
200 0.276515
205 0.259257
210 0.271963
215 0.200931
220 0.351275
225 0.346831
230 0.239575
235 0.349839
240 0.299505
245 0.31994
250 0.218014
255 0.439411
260 0.329531
265 0.759817
270 1.97831
275 0.687771
280 0.475164
285 0.329971
290 0.405105
295 0.445214
300 0.454402
305 0.383657
310 0.402682
315 0.440566
320 0.429283
325 0.374206
330 0.385999
335 0.44927
340 0.393968
345 0.400321
350 0.313974
355 0.404504
360 0.309112
365 0.359351
370 0.347597
375 0.262305
380 0.362511
385 0.287829
390 0.313668
395 0.39903
400 0.348194
405 0.304472
410 0.303997
415 0.322669
420 0.399438
425 0.223256
430 0.255005
435 0.421522
440 0.272611
445 0.344606
450 0.228435
455 0.370026
460 0.285986
465 0.308542
470 0.373981
475 0.290938
480 0.379491
485 0.385351
490 0.335635
495 0.359983
500 0.34798
505 0.428898
510 0.33283
515 0.512514
520 0.477071
525 0.648886
530 0.779254
535 19.9232
540 342.932
545 544.438
550 144.996
555 17.5612
560 2.70914
565 1.04914
570 0.812431
575 0.745518
580 0.668801
585 0.714843
590 0.877749
595 0.863342
600 0.575432
Ex : 553
200 0.260359
205 0.280606
210 0.251519
215 0.244312
220 0.173628
225 0.277907
230 0.184665
235 0.211919
240 0.251651
245 0.276446
250 0.319993
255 0.208912
260 0.237626
265 0.290138
270 1.76201
275 1.40365
280 0.471015
285 0.402432
290 0.410888
295 0.489016
300 0.443023
305 0.45808
310 0.431688
315 0.492045
320 0.413181
325 0.38913
330 0.44442
335 0.482598
340 0.414598
345 0.414316
350 0.38993
355 0.366045
360 0.475645
365 0.313868
370 0.331963
375 0.307139
380 0.394994
385 0.312115
390 0.376244
395 0.32088
400 0.30846
405 0.363997
410 0.281601
415 0.31944
420 0.395391
425 0.37919
430 0.348439
435 0.269694
440 0.377139
445 0.293956
450 0.336363
455 0.43629
460 0.426176
465 0.415765
470 0.399884
475 0.44815
480 0.325141
485 0.387646
490 0.379871
495 0.323279
500 0.34036
505 0.455762
510 0.531046
515 0.498045
520 0.533927
525 0.541398
530 0.535418
535 0.709418
540 19.0692
545 374.66
550 548.037
555 135.16
560 16.5365
565 2.71596
570 1.1276
575 0.931409
580 0.797789
585 0.743568
590 0.743127
595 0.81948
600 0.148641
Ex : 558
200 0.254916
205 0.312789
210 0.406708
215 0.228549
220 0.260844
225 0.318614
230 0.260524
235 0.233273
240 0.258469
245 0.339023
250 0.310558
255 0.267849
260 0.328014
265 0.327766
270 0.880252
275 2.40559
280 0.890648
285 0.375785
290 0.322511
295 0.419944
300 0.447183
305 0.560018
310 0.468749
315 0.443792
320 0.448545
325 0.416557
330 0.348614
335 0.417342
340 0.381117
345 0.382454
350 0.374467
355 0.372395
360 0.377135
365 0.387968
370 0.407576
375 0.385891
380 0.338817
385 0.334458
390 0.312397
395 0.327249
400 0.239747
405 0.287857
410 0.404407
415 0.312444
420 0.394894
425 0.36303
430 0.347266
435 0.323332
440 0.314694
445 0.336001
450 0.382773
455 0.367397
460 0.379043
465 0.289552
470 0.291755
475 0.322069
480 0.441413
485 0.374216
490 0.376003
495 0.350761
500 0.338654
505 0.39785
510 0.285567
515 0.383819
520 0.350157
525 0.473168
530 0.561326
535 0.604879
540 0.745094
545 19.0673
550 349.715
555 504.319
560 122.234
565 15.0817
570 2.53347
575 1.02237
580 0.704528
585 0.712267
590 0.735602
595 0.706661
600 1.49313
Ex : 563
200 0.26922
205 0.2285
210 0.264124
215 0.224995
220 0.377606
225 0.37754
230 0.345468
235 0.312486
240 0.291435
245 0.331586
250 0.304084
255 0.288283
260 0.256062
265 0.218365
270 0.427411
275 1.86706
280 1.67567
285 0.447421
290 0.309051
295 0.328846
300 0.292466
305 0.470213
310 0.452275
315 0.469941
320 0.318859
325 0.41963
330 0.393193
335 0.46704
340 0.487998
345 0.525042
350 0.402615
355 0.400659
360 0.433702
365 0.373543
370 0.368373
375 0.378961
380 0.336458
385 0.360039
390 0.396638
395 0.471089
400 0.338261
405 0.338542
410 0.307885
415 0.250128
420 0.335132
425 0.417237
430 0.327545
435 0.231223
440 0.269262
445 0.325395
450 0.345885
455 0.339622
460 0.399107
465 0.319583
470 0.475117
475 0.308431
480 0.446798
485 0.491689
490 0.358339
495 0.332441
500 0.336457
505 0.346762
510 0.340141
515 0.354904
520 0.350863
525 0.506853
530 0.405991
535 0.56077
540 0.860683
545 0.867656
550 15.3307
555 378.196
560 821.129
565 296.88
570 35.9054
575 4.97301
580 1.31669
585 0.812906
590 0.708097
595 0.542603
600 0.847124
Ex : 568
200 0.297036
205 0.335485
210 0.348037
215 0.261623
220 0.328912
225 0.335555
230 0.362839
235 0.307456
240 0.299724
245 0.359067
250 0.430822
255 0.337325
260 0.252801
265 0.38047
270 0.274532
275 1.07386
280 2.99677
285 0.959244
290 0.389961
295 0.399071
300 0.336623
305 0.426313
310 0.451211
315 0.445481
320 0.485066
325 0.452108
330 0.419421
335 0.398509
340 0.429813
345 0.586041
350 0.445461
355 0.378622
360 0.516137
365 0.406933
370 0.354147
375 0.368192
380 0.379832
385 0.319477
390 0.416614
395 0.363539
400 0.327996
405 0.322744
410 0.334797
415 0.40644
420 0.30778
425 0.337595
430 0.321609
435 0.405617
440 0.3397
445 0.409793
450 0.330619
455 0.417653
460 0.431584
465 0.363129
470 0.388191
475 0.338598
480 0.489738
485 0.375419
490 0.32899
495 0.342841
500 0.358705
505 0.428617
510 0.327433
515 0.370613
520 0.424159
525 0.379172
530 0.34286
535 0.507408
540 0.649207
545 0.690476
550 0.760351
555 13.9711
560 294.225
565 608.532
570 220.959
575 26.5741
580 3.93014
585 1.05361
590 0.710167
595 0.693461
600 0.313005
Ex : 573
200 0.27228
205 0.218659
210 0.356676
215 0.285526
220 0.394447
225 0.349317
230 0.298433
235 0.245673
240 0.295202
245 0.367191
250 0.302911
255 0.312956
260 0.226545
265 0.229814
270 0.310512
275 0.393443
280 2.55732
285 2.68578
290 0.64254
295 0.31122
300 0.54987
305 0.376471
310 0.45338
315 0.406705
320 0.360555
325 0.426042
330 0.437224
335 0.44462
340 0.565805
345 0.489129
350 0.421654
355 0.395052
360 0.370012
365 0.40681
370 0.317074
375 0.385528
380 0.357526
385 0.413284
390 0.408137
395 0.331732
400 0.342614
405 0.395723
410 0.371906
415 0.303878
420 0.31127
425 0.372107
430 0.303937
435 0.281343
440 0.320242
445 0.309227
450 0.328444
455 0.298829
460 0.349119
465 0.287269
470 0.409423
475 0.373637
480 0.339243
485 0.465555
490 0.323245
495 0.423103
500 0.409975
505 0.325273
510 0.320004
515 0.42058
520 0.351376
525 0.450108
530 0.576266
535 0.50331
540 0.484416
545 0.559963
550 0.701849
555 0.864166
560 10.3941
565 319.273
570 699.186
575 202.951
580 24.4233
585 3.52594
590 1.01596
595 0.441971
600 0.579715
Ex : 578
200 0.256305
205 0.26817
210 0.300763
215 0.375789
220 0.302713
225 0.386879
230 0.334975
235 0.34434
240 0.31312
245 0.220085
250 0.307394
255 0.299508
260 0.341042
265 0.244959
270 0.457121
275 0.30174
280 1.02881
285 3.38113
290 1.10699
295 0.499603
300 0.394748
305 0.439233
310 0.403611
315 0.55354
320 0.483042
325 0.4287
330 0.464473
335 0.458634
340 0.500912
345 0.454974
350 0.498505
355 0.400785
360 0.379746
365 0.362287
370 0.380044
375 0.308395
380 0.309076
385 0.376195
390 0.302169
395 0.38357
400 0.354917
405 0.435734
410 0.389962
415 0.357683
420 0.388916
425 0.359237
430 0.439998
435 0.411505
440 0.405065
445 0.371188
450 0.422736
455 0.441673
460 0.462032
465 0.45492
470 0.29106
475 0.298329
480 0.339822
485 0.423939
490 0.356618
495 0.32831
500 0.342629
505 0.383212
510 0.339961
515 0.360303
520 0.371158
525 0.419278
530 0.427963
535 0.464581
540 0.56541
545 0.474145
550 0.554705
555 0.59206
560 0.750427
565 7.00406
570 180.243
575 384.384
580 122.517
585 14.9439
590 2.22112
595 0.684546
600 0.0778987
Ex : 583
200 0.286611
205 0.292035
210 0.367741
215 0.330843
220 0.240151
225 0.322434
230 0.354416
235 0.288462
240 0.305027
245 0.381435
250 0.299302
255 0.36277
260 0.232766
265 0.293555
270 0.257211
275 0.313215
280 0.444218
285 2.55087
290 2.39887
295 0.676366
300 0.352643
305 0.387238
310 0.351684
315 0.534454
320 0.559364
325 0.455166
330 0.356368
335 0.399178
340 0.473237
345 0.451918
350 0.42723
355 0.47205
360 0.404988
365 0.430196
370 0.418749
375 0.331965
380 0.307266
385 0.348273
390 0.324873
395 0.496799
400 0.338401
405 0.31865
410 0.378601
415 0.480726
420 0.373219
425 0.34959
430 0.438321
435 0.407224
440 0.37501
445 0.280199
450 0.327042
455 0.278639
460 0.367584
465 0.371092
470 0.329885
475 0.434829
480 0.435354
485 0.470966
490 0.373926
495 0.433567
500 0.331211
505 0.355423
510 0.425989
515 0.331814
520 0.334048
525 0.378861
530 0.352934
535 0.395118
540 0.301876
545 0.475098
550 0.429308
555 0.586816
560 0.639256
565 0.704735
570 8.95851
575 223.293
580 368.931
585 97.1525
590 11.9935
595 1.81122
600 0.916287
Ex : 588
200 0.269204
205 0.350708
210 0.298283
215 0.246779
220 0.303756
225 0.309331
230 0.32901
235 0.404335
240 0.362948
245 0.283134
250 0.289072
255 0.329875
260 0.270549
265 0.345217
270 0.307135
275 0.292736
280 0.318054
285 0.867993
290 3.84894
295 1.12079
300 0.540704
305 0.348311
310 0.335857
315 0.379901
320 0.502139
325 0.48459
330 0.480689
335 0.415769
340 0.438439
345 0.47876
350 0.433584
355 0.334525
360 0.354415
365 0.476058
370 0.39398
375 0.379247
380 0.32665
385 0.490942
390 0.385832
395 0.371087
400 0.461784
405 0.409818
410 0.353916
415 0.358387
420 0.359191
425 0.388016
430 0.382658
435 0.49692
440 0.352509
445 0.313643
450 0.387199
455 0.435335
460 0.461731
465 0.404072
470 0.303426
475 0.37868
480 0.411961
485 0.347376
490 0.38925
495 0.385629
500 0.439078
505 0.377766
510 0.330381
515 0.328788
520 0.306372
525 0.370587
530 0.427302
535 0.378202
540 0.300077
545 0.489808
550 0.478179
555 0.415625
560 0.488638
565 0.719453
570 0.770408
575 8.24044
580 195.22
585 347.623
590 100.355
595 12.087
600 3.09686
Ex : 593
200 0.360777
205 0.224112
210 0.315519
215 0.352805
220 0.21195
225 0.310574
230 0.303874
235 0.259317
240 0.261686
245 0.320201
250 0.284368
255 0.340855
260 0.443377
265 0.311489
270 0.288371
275 0.23561
280 0.297502
285 0.30589
290 3.26423
295 3.4361
300 0.828149
305 0.474753
310 0.414917
315 0.364984
320 0.490228
325 0.601749
330 0.393071
335 0.359075
340 0.395663
345 0.34692
350 0.362526
355 0.368181
360 0.431821
365 0.505893
370 0.391296
375 0.445299
380 0.307193
385 0.410903
390 0.377203
395 0.33623
400 0.350398
405 0.312319
410 0.350535
415 0.345887
420 0.367786
425 0.369286
430 0.359486
435 0.316645
440 0.496081
445 0.379908
450 0.349103
455 0.416777
460 0.400912
465 0.404446
470 0.32576
475 0.419954
480 0.394669
485 0.450509
490 0.420425
495 0.449821
500 0.295575
505 0.325505
510 0.390044
515 0.317039
520 0.344614
525 0.329724
530 0.464688
535 0.409546
540 0.501327
545 0.425954
550 0.404685
555 0.444392
560 0.369507
565 0.421713
570 0.538196
575 0.654616
580 4.31537
585 98.5168
590 207.797
595 71.1723
600 11.315
Ex : 598
200 0.326193
205 0.329405
210 0.315963
215 0.292191
220 0.376221
225 0.356624
230 0.522086
235 0.349116
240 0.397207
245 0.37614
250 0.313079
255 0.277456
260 0.325185
265 0.343384
270 0.297587
275 0.314009
280 0.254054
285 0.346777
290 1.16638
295 3.64886
300 1.29049
305 0.551369
310 0.410373
315 0.365739
320 0.470493
325 0.570996
330 0.630989
335 0.372915
340 0.487715
345 0.441061
350 0.444584
355 0.392295
360 0.378206
365 0.369393
370 0.375391
375 0.383992
380 0.347316
385 0.397238
390 0.328621
395 0.342002
400 0.491699
405 0.374194
410 0.434596
415 0.384994
420 0.370404
425 0.379887
430 0.382486
435 0.343021
440 0.437793
445 0.429765
450 0.37823
455 0.421435
460 0.645782
465 0.310224
470 0.300241
475 0.316408
480 0.51564
485 0.358865
490 0.408553
495 0.408679
500 0.224489
505 0.404697
510 0.273723
515 0.265604
520 0.448194
525 0.43898
530 0.387854
535 0.413961
540 0.349497
545 0.359738
550 0.404365
555 0.424687
560 0.481055
565 0.45831
570 0.425769
575 0.447117
580 0.54359
585 4.55403
590 133.652
595 344.099
600 267.757
Ex : 603
200 0.442029
205 0.314165
210 0.379115
215 0.313873
220 0.34058
225 0.293752
230 0.330667
235 0.422645
240 0.432024
245 0.380326
250 0.300034
255 0.375919
260 0.3871
265 0.318285
270 0.386111
275 0.391103
280 0.290021
285 0.277552
290 0.432498
295 3.78023
300 4.04538
305 0.920658
310 0.539105
315 0.432756
320 0.397291
325 0.47972
330 0.583667
335 0.499787
340 0.380425
345 0.4017
350 0.434094
355 0.444176
360 0.355031
365 0.437659
370 0.342505
375 0.58035
380 0.43176
385 0.47074
390 0.346392
395 0.366413
400 0.388396
405 0.284557
410 0.326556
415 0.394529
420 0.482996
425 0.37205
430 0.373554
435 0.303479
440 0.363285
445 0.477027
450 0.385103
455 0.382393
460 0.326009
465 0.367253
470 0.395293
475 0.472962
480 0.388489
485 0.37064
490 0.325518
495 0.387901
500 0.357437
505 0.325307
510 0.465565
515 0.40704
520 0.346333
525 0.447318
530 0.397917
535 0.401733
540 0.492764
545 0.421291
550 0.342349
555 0.46111
560 0.476899
565 0.486568
570 0.436444
575 0.540811
580 0.537509
585 0.633543
590 5.7283
595 144.251
600 272.614
