File format V 1.0
jeu. 12. mai 15:31:06 2016
Operator : 
Comments : 

=============================================
SpectroFluorometer parameters
Mode : 3D measurement
Data : Fluorescence
Phospho. : Ordinary
Spectrum : Fluorescence

Scan speed : 2400 nm/mn
Response : 100 ms
PM Voltage : 700 V
Shutter : On

Lambda Ex. Start : 203
Lambda Ex. End : 603
Lambda Ex. Step : 5
Ex. Slit : 5 nm

Lambda Em. Start : 200
Lambda Em. End : 600
Lambda Em. Step : 5
Em. Slit : 5 nm

Repetition : 1
Decal lambda em : 10
=============================================
DATA
Ex : 203
200 8.5814
205 9.25871
210 9.30284
215 12.3233
220 10.1371
225 10.0936
230 7.87999
235 9.20551
240 13.0753
245 9.19688
250 10.1351
255 10.5014
260 8.23342
265 10.195
270 11.1374
275 15.1927
280 9.91387
285 10.8613
290 10.7403
295 10.6622
300 13.9672
305 19.5389
310 12.7804
315 10.3164
320 14.6612
325 13.5542
330 16.4677
335 18.9865
340 12.0949
345 13.6796
350 16.9142
355 16.3644
360 16.5186
365 17.847
370 19.2711
375 17.9322
380 16.9726
385 15.4095
390 15.4872
395 22.2746
400 19.1662
405 14.7702
410 17.8904
415 16.0399
420 13.9709
425 20.7263
430 19.1768
435 17.5465
440 17.1977
445 19.604
450 22.6399
455 18.1004
460 17.5982
465 22.4091
470 19.7019
475 15.0582
480 20.3239
485 16.8778
490 18.1594
495 17.5315
500 17.4002
505 17.9836
510 18.4083
515 14.0307
520 20.7653
525 16.3362
530 12.4683
535 15.5777
540 18.953
545 20.8085
550 17.1611
555 21.2687
560 17.7588
565 13.4499
570 21.5905
575 15.5903
580 15.5444
585 15.5772
590 13.8502
595 15.5532
600 2.6561
Ex : 208
200 10.5862
205 7.6824
210 8.01125
215 8.84293
220 11.1254
225 13.6883
230 9.49943
235 10.9529
240 8.10842
245 7.69247
250 10.7641
255 9.42893
260 8.30484
265 8.55355
270 10.6428
275 14.3768
280 13.1723
285 11.0115
290 11.492
295 11.5704
300 11.4184
305 7.7982
310 15.3301
315 11.9846
320 13.2072
325 15.3919
330 15.7965
335 16.0593
340 14.8019
345 15.4659
350 14.2111
355 16.2495
360 17.2618
365 13.1471
370 14.7645
375 17.0427
380 16.3049
385 15.776
390 14.7584
395 14.6975
400 16.0246
405 17.8306
410 17.789
415 20.5946
420 15.5529
425 21.7283
430 19.0008
435 19.4675
440 18.5307
445 17.2336
450 15.717
455 17.836
460 19.9023
465 18.57
470 20.05
475 17.5456
480 18.1987
485 18.7421
490 16.1418
495 16.677
500 16.2885
505 16.7866
510 17.7795
515 15.7467
520 16.9745
525 18.3006
530 16.0643
535 19.8597
540 15.4852
545 19.0349
550 15.8272
555 16.4508
560 16.9324
565 14.95
570 16.2398
575 17.1338
580 17.01
585 12.185
590 12.0109
595 14.7583
600 13.5799
Ex : 213
200 8.57778
205 7.87471
210 8.37403
215 10.3159
220 6.90438
225 7.45774
230 8.20013
235 8.1688
240 10.7991
245 9.80054
250 9.35293
255 7.64326
260 8.21542
265 10.9335
270 10.8791
275 9.17095
280 7.83441
285 15.6896
290 13.2918
295 11.5223
300 9.82706
305 12.1958
310 12.0663
315 12.1395
320 13.9282
325 14.9371
330 17.7598
335 16.0581
340 12.1033
345 15.3123
350 14.553
355 19.9334
360 15.5566
365 16.7199
370 15.7264
375 15.2883
380 18.946
385 17.1006
390 15.5098
395 16.2495
400 15.576
405 17.3103
410 14.9248
415 14.8405
420 14.6801
425 14.6101
430 23.6998
435 20.5751
440 18.1713
445 19.4507
450 21.1929
455 24.2677
460 23.6077
465 21.3207
470 18.5524
475 18.9037
480 17.5681
485 15.9399
490 17.6464
495 18.7673
500 19.8905
505 18.0863
510 17.8869
515 15.7954
520 20.6264
525 13.2577
530 14.5814
535 20.2696
540 18.3709
545 15.5885
550 18.6322
555 18.7329
560 16.2309
565 17.1407
570 18.5508
575 14.7131
580 18.2814
585 21.8775
590 14.1246
595 12.7648
600 1.45258
Ex : 218
200 8.27322
205 13.339
210 10.1521
215 7.18688
220 12.7486
225 13.006
230 9.27764
235 9.0271
240 9.60866
245 8.52878
250 7.98452
255 8.58759
260 14.2561
265 15.4401
270 9.39281
275 8.44604
280 12.4622
285 11.293
290 10.25
295 13.4914
300 14.2004
305 13.0234
310 11.9537
315 12.4037
320 13.5293
325 13.1901
330 13.0835
335 12.801
340 16.0617
345 13.6108
350 13.2849
355 17.168
360 16.6068
365 15.7601
370 13.7064
375 18.4638
380 15.3942
385 16.1931
390 16.2844
395 20.7539
400 17.8703
405 17.2442
410 21.5534
415 16.1053
420 17.9157
425 16.7953
430 19.3382
435 16.4396
440 17.3594
445 15.9294
450 19.3177
455 15.5328
460 18.5513
465 16.8635
470 19.7153
475 21.4826
480 21.4505
485 18.1931
490 15.7572
495 19.6509
500 17.9559
505 17.0358
510 17.4996
515 13.1585
520 20.4785
525 18.8328
530 15.0464
535 20.5968
540 16.4142
545 18.1868
550 12.3372
555 20.0853
560 22.2098
565 20.6946
570 14.0946
575 14.6694
580 20.7404
585 14.3102
590 14.9512
595 13.0544
600 5.15695
Ex : 223
200 9.51269
205 10.0014
210 10.1672
215 6.54205
220 9.49922
225 7.16399
230 10.687
235 11.0757
240 8.35958
245 6.06473
250 7.8181
255 9.68137
260 8.49756
265 10.661
270 9.91828
275 11.6982
280 8.63875
285 10.7172
290 10.3596
295 9.38207
300 10.2075
305 10.949
310 12.4501
315 11.0398
320 11.8188
325 10.8634
330 13.4386
335 14.5062
340 14.6422
345 13.4977
350 15.8243
355 15.5017
360 16.3321
365 15.8257
370 16.571
375 16.2903
380 14.4361
385 17.0826
390 17.8251
395 17.0986
400 17.5393
405 16.3437
410 18.1022
415 17.7557
420 17.5427
425 14.9534
430 13.9548
435 15.282
440 14.6372
445 20.3328
450 19.1517
455 19.308
460 19.7678
465 21.8279
470 19.0531
475 17.6559
480 20.2537
485 21.3069
490 17.2382
495 18.8628
500 16.5232
505 19.7943
510 15.2937
515 11.009
520 15.9717
525 17.7261
530 14.3244
535 18.9661
540 15.0797
545 14.2806
550 19.8244
555 16.4985
560 21.0801
565 18.6243
570 21.5781
575 16.4999
580 18.0603
585 13.924
590 14.3486
595 11.3342
600 8.91114
Ex : 228
200 6.52041
205 14.546
210 9.2519
215 8.0656
220 6.71326
225 10.5664
230 8.464
235 7.26302
240 9.12949
245 7.3945
250 8.65009
255 8.93319
260 9.26231
265 7.60627
270 10.0029
275 10.8131
280 10.0329
285 11.3214
290 7.67948
295 10.3226
300 12.7598
305 12.2674
310 12.7682
315 11.6513
320 13.9482
325 14.6691
330 14.6182
335 15.6888
340 16.6642
345 16.9073
350 16.9757
355 17.817
360 14.7888
365 20.1719
370 14.6632
375 14.854
380 14.4751
385 15.9151
390 15.814
395 17.3516
400 17.0213
405 16.3035
410 13.0468
415 14.5884
420 11.3554
425 15.2924
430 16.7622
435 16.9909
440 15.326
445 19.4497
450 33.5348
455 68.9434
460 59.3992
465 27.7795
470 20.123
475 18.6296
480 15.9906
485 15.0557
490 19.7526
495 14.3731
500 15.2314
505 14.2426
510 13.2674
515 14.4015
520 17.4695
525 14.7475
530 16.1887
535 13.2806
540 12.4191
545 13.7701
550 15.5247
555 20.5343
560 25.7614
565 16.5982
570 16.7274
575 18.3153
580 14.3921
585 17.5327
590 15.8732
595 15.602
600 10.0467
Ex : 233
200 6.07438
205 5.45509
210 11.4891
215 7.39957
220 7.09316
225 17.012
230 28.6944
235 14.6575
240 7.41862
245 7.47708
250 8.5232
255 6.39186
260 6.92274
265 9.67986
270 7.50098
275 7.36679
280 10.6485
285 10.6743
290 8.58629
295 10.4716
300 9.40324
305 10.7614
310 10.1124
315 10.9117
320 14.5427
325 17.8142
330 16.0151
335 19.1984
340 19.7101
345 15.9112
350 18.1388
355 14.3546
360 17.2796
365 14.2201
370 15.5465
375 16.3293
380 16.2519
385 18.3003
390 17.1758
395 17.4874
400 17.0672
405 16.6987
410 15.6785
415 15.2873
420 18.3023
425 15.5782
430 15.2926
435 15.0493
440 15.2025
445 18.1776
450 15.6075
455 44.9204
460 150.311
465 226.562
470 160.892
475 46.5296
480 19.0118
485 18.0009
490 14.7635
495 18.2841
500 24.2078
505 17.8128
510 17.4422
515 15.5362
520 12.4375
525 12.6636
530 17.6241
535 16.6767
540 15.5803
545 20.3915
550 16.8306
555 18.4203
560 19.7331
565 18.4237
570 18.2796
575 18.6279
580 20.6122
585 14.0166
590 17.5709
595 18.5914
600 11.2731
Ex : 238
200 8.1748
205 6.57612
210 5.15329
215 5.97778
220 7.74574
225 8.7732
230 41.2046
235 56.9546
240 17.903
245 10.9414
250 10.4848
255 7.45961
260 6.58534
265 8.17986
270 9.32516
275 10.1421
280 7.71062
285 9.00869
290 10.1953
295 12.2583
300 10.5646
305 10.9099
310 10.3977
315 11.8698
320 9.81415
325 11.1478
330 14.3241
335 14.0097
340 13.8449
345 15.7094
350 16.524
355 18.5994
360 17.5575
365 14.8047
370 14.9423
375 12.4686
380 12.1142
385 15.299
390 16.0367
395 16.2437
400 17.62
405 16.8437
410 13.2891
415 16.7231
420 16.3431
425 11.6921
430 14.071
435 13.6515
440 13.7765
445 18.994
450 14.4887
455 14.5023
460 20.8955
465 123.801
470 361.985
475 400.613
480 235.155
485 59.4242
490 21.1675
495 14.9922
500 17.2128
505 17.4991
510 19.9629
515 19.9889
520 18.2329
525 15.4627
530 16.6643
535 19.3771
540 17.4894
545 13.6777
550 15.2699
555 15.5562
560 15.0769
565 13.7498
570 15.8701
575 14.792
580 15.9805
585 12.6736
590 16.061
595 11.1854
600 18.7754
Ex : 243
200 7.28037
205 5.70705
210 4.88614
215 3.63747
220 7.2487
225 5.01606
230 8.66262
235 51.5897
240 72.336
245 22.9737
250 8.38951
255 7.59034
260 9.317
265 6.14193
270 6.42357
275 7.88625
280 8.16846
285 7.88216
290 7.1841
295 8.81343
300 9.53336
305 8.06803
310 8.50322
315 12.7779
320 11.1876
325 11.0275
330 12.261
335 12.5603
340 13.4704
345 16.8672
350 13.4572
355 15.107
360 14.4003
365 13.1858
370 15.1196
375 16.3165
380 15.5548
385 15.238
390 13.8799
395 13.0853
400 11.9624
405 16.2836
410 12.9815
415 13.3608
420 12.2089
425 12.148
430 9.16749
435 11.0605
440 12.1726
445 12.6265
450 14.4276
455 14.0396
460 14.217
465 16.1132
470 32.0454
475 214.8
480 453.45
485 468.321
490 266.055
495 59.3251
500 19.0082
505 14.502
510 14.2779
515 16.9015
520 20.3367
525 21.2709
530 18.5923
535 15.5288
540 14.5088
545 13.3052
550 14.8614
555 14.6743
560 13.2514
565 11.0346
570 12.4724
575 16.2252
580 13.4603
585 14.2541
590 16.9123
595 12.6118
600 1.43518
Ex : 248
200 7.25405
205 3.94272
210 4.30365
215 5.12899
220 4.04835
225 5.47207
230 3.84778
235 9.18093
240 64.1828
245 87.0882
250 25.5172
255 9.37931
260 8.05256
265 9.73371
270 8.54742
275 6.94917
280 9.72906
285 7.543
290 7.52622
295 7.97962
300 8.56982
305 9.08627
310 9.70337
315 10.7265
320 9.18905
325 8.37476
330 10.6468
335 10.8263
340 11.2208
345 13.3436
350 13.2588
355 11.9357
360 14.7334
365 13.0985
370 11.3101
375 11.8446
380 11.8093
385 13.0118
390 12.405
395 10.8652
400 11.7534
405 14.6732
410 11.5514
415 9.83124
420 11.372
425 11.0307
430 9.21145
435 10.4465
440 8.88658
445 9.71018
450 11.2039
455 11.6684
460 13.1189
465 12.414
470 12.6778
475 11.1629
480 44.2155
485 274.676
490 529.226
495 497.688
500 232.304
505 44.3673
510 16.7419
515 11.9582
520 15.0078
525 17.8644
530 23.034
535 24.6154
540 20.4645
545 14.2759
550 15.6066
555 14.7551
560 15.2816
565 13.7951
570 13.4172
575 15.5443
580 13.0969
585 13.3709
590 10.4157
595 9.64163
600 8.18681
Ex : 253
200 3.40336
205 4.84459
210 2.96272
215 4.37846
220 5.17114
225 3.05309
230 4.26782
235 3.04374
240 8.30894
245 64.9032
250 116.661
255 35.9821
260 8.97343
265 5.97087
270 8.438
275 7.93458
280 6.58483
285 6.65609
290 6.44375
295 7.85489
300 7.58101
305 5.91993
310 10.0295
315 11.0308
320 9.7397
325 9.47699
330 9.35482
335 10.3001
340 10.6549
345 10.4444
350 11.6052
355 10.1551
360 11.2826
365 10.2742
370 10.0795
375 11.772
380 10.3986
385 10.6064
390 10.9174
395 11.8538
400 10.6588
405 9.13629
410 10.7263
415 9.05751
420 10.1526
425 7.51647
430 9.55473
435 8.94778
440 9.75855
445 8.88063
450 8.73962
455 9.93136
460 10.0775
465 9.83929
470 9.58612
475 10.4425
480 8.48274
485 10.8274
490 47.2253
495 262.811
500 483.395
505 554.035
510 361.001
515 81.1287
520 22.9537
525 15.0245
530 14.0468
535 14.8352
540 18.8481
545 21.5758
550 22.5707
555 17.7272
560 15.6398
565 15.5197
570 14.0262
575 14.3677
580 12.981
585 10.3931
590 11.0201
595 11.5851
600 15.2317
Ex : 258
200 2.92409
205 3.10418
210 2.68007
215 2.76416
220 3.30752
225 3.46789
230 3.53596
235 3.5217
240 3.65406
245 8.13824
250 142.087
255 275.05
260 82.8684
265 14.4688
270 7.57499
275 9.42912
280 10.6026
285 7.83886
290 8.17534
295 10.4247
300 10.1716
305 11.394
310 9.65348
315 8.67855
320 9.4153
325 11.0664
330 11.7941
335 10.8418
340 11.3742
345 10.5995
350 11.3961
355 10.8721
360 12.8853
365 11.6704
370 10.9312
375 9.57278
380 8.36856
385 8.71616
390 10.3919
395 9.756
400 8.56098
405 9.61945
410 8.92497
415 8.48382
420 7.74585
425 8.42007
430 7.05803
435 7.79165
440 7.23408
445 8.50707
450 8.23115
455 8.62921
460 7.73373
465 7.05678
470 8.66608
475 9.93324
480 8.00801
485 9.59012
490 9.58337
495 11.0596
500 55.897
505 414.909
510 1611.58
515 1922.03
520 864.06
525 155.014
530 34.7984
535 17.7064
540 16.1927
545 16.5554
550 20.2795
555 25.9345
560 25.9199
565 24.1368
570 17.3807
575 14.3282
580 13.3621
585 12.4413
590 14.2998
595 11.9314
600 33.0949
Ex : 263
200 2.59703
205 1.55868
210 2.85057
215 2.81533
220 2.17163
225 2.68335
230 2.72675
235 2.41447
240 2.71659
245 3.46766
250 17.9185
255 287.148
260 504.998
265 139.181
270 22.8836
275 8.37956
280 11.2178
285 12.3365
290 10.1651
295 10.2588
300 11.5113
305 12.0332
310 10.7797
315 10.3908
320 12.243
325 12.9284
330 11.204
335 10.9553
340 10.6496
345 11.6212
350 11.8403
355 10.9153
360 9.94251
365 10.331
370 9.91138
375 10.8965
380 9.52397
385 9.42672
390 8.70242
395 8.59773
400 8.95422
405 8.65189
410 7.78763
415 7.14432
420 7.51175
425 6.94169
430 6.8637
435 6.73975
440 6.15812
445 6.59175
450 8.46109
455 6.60008
460 8.16883
465 8.94545
470 7.47821
475 7.66403
480 7.86431
485 8.13727
490 8.07411
495 8.16004
500 9.68378
505 11.0948
510 134.449
515 1086.27
520 2411.39
525 2545.71
530 1208.76
535 210.436
540 44.7423
545 21.7443
550 16.8269
555 17.2108
560 21.9026
565 28.1116
570 30.0128
575 29.503
580 23.814
585 17.3411
590 16.3555
595 14.5
600 16.5678
Ex : 268
200 1.84031
205 1.40986
210 1.82067
215 2.4383
220 1.77578
225 2.16859
230 2.42368
235 2.25199
240 1.71717
245 3.34762
250 2.81363
255 31.4496
260 476.526
265 907.695
270 249.749
275 37.81
280 13.374
285 13.8595
290 16.416
295 13.7441
300 13.9129
305 11.7217
310 12.7388
315 13.8374
320 11.8004
325 11.6675
330 11.0619
335 11.1328
340 11.883
345 10.4356
350 10.8095
355 10.9608
360 9.29171
365 8.41617
370 7.0649
375 7.52843
380 8.03478
385 8.06385
390 7.28297
395 7.16126
400 7.42101
405 7.42906
410 6.39342
415 6.82216
420 6.25853
425 6.20528
430 6.41325
435 5.73096
440 6.28237
445 5.96025
450 6.12394
455 6.31417
460 6.71549
465 7.37807
470 6.41113
475 6.78886
480 7.84666
485 7.11161
490 7.31892
495 7.73385
500 7.24605
505 7.15472
510 8.81399
515 11.3126
520 188.248
525 1478.66
530 3877.82
535 3988.43
540 1739.53
545 294.788
550 54.9036
555 27.8107
560 23.1758
565 21.535
570 24.7246
575 29.0235
580 33.9806
585 32.2776
590 27.8588
595 23.6074
600 22.8919
Ex : 273
200 1.61781
205 2.20009
210 1.73667
215 1.62013
220 1.55478
225 1.83247
230 1.89225
235 1.5863
240 1.91286
245 2.11807
250 2.14623
255 3.04497
260 43.6099
265 778.346
270 1324.51
275 331.969
280 48.1589
285 15.317
290 15.634
295 18.9352
300 18.2575
305 14.5165
310 12.9818
315 12.3553
320 12.7793
325 11.8702
330 11.572
335 11.523
340 11.1633
345 12.4708
350 9.91972
355 10.4029
360 9.47923
365 9.51759
370 8.06607
375 7.62072
380 6.51476
385 6.52551
390 6.32945
395 5.36725
400 5.73246
405 5.96676
410 5.17743
415 5.82399
420 5.66135
425 6.02926
430 5.87145
435 6.02556
440 6.64019
445 6.54778
450 6.52383
455 5.6172
460 6.48429
465 5.91709
470 6.13183
475 7.02011
480 6.32493
485 6.21754
490 6.85365
495 6.14638
500 6.78488
505 7.66947
510 8.16209
515 8.9367
520 10.7888
525 16.166
530 328.564
535 2366.27
540 5584.82
545 5386.49
550 2178.28
555 349.816
560 66.4117
565 31.4973
570 26.237
575 24.4886
580 25.4781
585 29.3252
590 34.4328
595 32.7887
600 28.0723
Ex : 278
200 1.39103
205 1.46917
210 1.91099
215 1.30085
220 1.59257
225 1.5406
230 1.97432
235 2.10434
240 1.69408
245 1.52266
250 2.30612
255 2.21163
260 3.55095
265 60.6233
270 1051.17
275 1726.47
280 438.132
285 62.3813
290 17.8253
295 15.5254
300 18.4405
305 16.5767
310 13.6481
315 13.3279
320 11.9008
325 12.8023
330 11.7535
335 12.3519
340 10.5187
345 10.8636
350 10.9917
355 8.8486
360 8.22076
365 7.51848
370 7.76897
375 6.62482
380 7.24437
385 6.52213
390 5.86343
395 5.63312
400 5.40459
405 5.55478
410 5.80729
415 5.54194
420 4.89937
425 5.12506
430 5.21288
435 5.30502
440 6.14106
445 5.09238
450 5.44596
455 5.64628
460 6.14744
465 6.54133
470 6.00146
475 5.21641
480 5.9097
485 6.27488
490 5.62764
495 6.41223
500 6.35003
505 5.93231
510 6.6781
515 6.16871
520 7.31878
525 8.50972
530 12.1746
535 20.0573
540 452.257
545 3072.8
550 6730.05
555 6267.04
560 2463.82
565 391.754
570 72.0452
575 32.112
580 24.8712
585 23.6892
590 22.6728
595 25.8704
600 24.7959
Ex : 283
200 1.35089
205 1.8627
210 1.53371
215 1.99874
220 1.62773
225 1.46577
230 1.5727
235 1.6327
240 1.49042
245 1.87255
250 2.05602
255 2.49142
260 2.37979
265 3.98132
270 77.8465
275 1355.17
280 2139.79
285 532.347
290 72.3458
295 17.0128
300 12.782
305 14.7775
310 14.6478
315 11.6785
320 11.2802
325 10.4553
330 11.0702
335 9.65169
340 10.4313
345 10.6121
350 9.13959
355 8.91212
360 8.3535
365 8.38481
370 7.04385
375 6.85621
380 6.56611
385 5.473
390 6.37796
395 5.88483
400 5.54006
405 5.0485
410 5.25623
415 5.25094
420 5.01307
425 5.08116
430 5.35177
435 5.18271
440 5.26771
445 5.41526
450 5.04772
455 5.3979
460 5.55693
465 5.13201
470 5.21768
475 5.02337
480 5.56067
485 5.48636
490 5.2043
495 5.45345
500 5.21531
505 5.6381
510 5.47908
515 6.12556
520 6.10086
525 6.55498
530 7.69092
535 9.06658
540 12.6639
545 22.5722
550 563.15
555 3706.73
560 7347.97
565 6502.5
570 2491.66
575 391.501
580 69.0489
585 27.648
590 20.7791
595 17.4465
600 16.2224
Ex : 288
200 1.13207
205 1.20272
210 1.04543
215 1.25103
220 1.32722
225 1.78471
230 1.39663
235 1.36426
240 1.1936
245 1.34801
250 1.60561
255 2.09176
260 2.19442
265 2.54437
270 4.2165
275 85.7233
280 1572.07
285 2468.7
290 595.009
295 78.317
300 17.0848
305 10.6576
310 13.5642
315 14.2165
320 11.572
325 9.34743
330 9.20747
335 9.84094
340 9.13478
345 8.76124
350 8.6652
355 8.42548
360 7.48804
365 6.70811
370 6.43577
375 6.16933
380 5.6706
385 5.09515
390 5.51443
395 5.32741
400 5.01135
405 4.96198
410 4.97726
415 4.52766
420 4.80707
425 4.69441
430 4.28961
435 4.46815
440 4.73561
445 4.57412
450 4.5709
455 4.58541
460 4.79374
465 4.8917
470 5.2365
475 5.03277
480 4.17702
485 4.38576
490 4.72514
495 4.8951
500 4.49841
505 4.64635
510 4.65249
515 4.65076
520 4.8787
525 5.77741
530 5.61419
535 6.82075
540 8.56469
545 10.0669
550 12.7978
555 22.6689
560 590.122
565 3757.51
570 7241.86
575 6256.13
580 2379.87
585 356.731
590 60.5853
595 23.7588
600 20.7287
Ex : 293
200 1.22961
205 1.22343
210 1.20637
215 1.14766
220 1.06024
225 1.03358
230 1.0884
235 1.57198
240 1.45769
245 1.64389
250 1.83263
255 1.45744
260 1.90634
265 2.51992
270 3.04971
275 4.31433
280 109.469
285 1768.53
290 2668.92
295 628.51
300 82.4528
305 17.1698
310 9.26112
315 12.8372
320 14.2454
325 11.3937
330 8.27474
335 7.85876
340 8.4402
345 8.17906
350 7.00704
355 6.90631
360 6.66328
365 6.19698
370 6.78049
375 6.04447
380 5.41156
385 5.22136
390 5.34174
395 4.47573
400 4.7793
405 5.54857
410 4.88532
415 4.80474
420 4.4221
425 4.67269
430 4.18351
435 4.18721
440 4.30684
445 4.45097
450 4.07005
455 3.98136
460 4.29317
465 4.78206
470 5.104
475 4.13166
480 4.2707
485 4.01445
490 3.88991
495 4.14104
500 4.05763
505 3.82038
510 4.03989
515 4.87492
520 4.64257
525 4.43008
530 4.49491
535 5.42255
540 5.40742
545 6.4188
550 7.66001
555 9.35095
560 13.3365
565 25.8989
570 679.976
575 4103.74
580 7323.65
585 5810.02
590 2015.4
595 291.048
600 56.6973
Ex : 298
200 1.00066
205 1.21164
210 1.04306
215 1.08749
220 0.883979
225 1.0732
230 0.909928
235 1.14325
240 0.974101
245 1.1616
250 1.45657
255 1.59404
260 1.72053
265 1.78264
270 2.27086
275 3.08992
280 5.05142
285 120.381
290 1978.67
295 2894.68
300 692.199
305 89.418
310 18.3913
315 9.44118
320 12.0108
325 14.3898
330 11.2732
335 8.02267
340 7.21752
345 6.73544
350 6.58972
355 6.14459
360 6.01733
365 5.90931
370 5.14811
375 5.03582
380 4.85521
385 4.93864
390 4.78417
395 4.83591
400 4.99714
405 4.65301
410 4.56923
415 4.4768
420 4.26774
425 4.43944
430 4.07507
435 4.26271
440 3.78099
445 4.21215
450 3.93953
455 4.16348
460 3.92323
465 4.22641
470 4.23288
475 3.58252
480 3.86925
485 3.6368
490 3.58457
495 3.6183
500 3.87265
505 3.5971
510 3.72588
515 4.08187
520 3.84452
525 3.99412
530 3.86396
535 4.50115
540 4.68974
545 5.43441
550 5.59677
555 6.70603
560 7.90614
565 9.48428
570 12.5558
575 28.2278
580 775.922
585 4156.08
590 6991.19
595 5445.39
600 3341.33
Ex : 303
200 1.01626
205 0.872464
210 1.00713
215 0.930907
220 0.792882
225 0.954641
230 1.20336
235 1.02923
240 1.22875
245 1.30967
250 1.4105
255 1.49158
260 1.71627
265 1.52678
270 1.78456
275 2.24236
280 2.89422
285 5.24442
290 127.195
295 2133.43
300 3197.76
305 742.176
310 94.8163
315 19.0245
320 9.16133
325 10.5746
330 13.2977
335 12.3307
340 8.02919
345 6.23167
350 5.52781
355 5.64789
360 4.68919
365 4.71917
370 4.73553
375 4.75633
380 4.60338
385 4.13573
390 4.39151
395 4.79639
400 4.75719
405 4.14437
410 3.9672
415 4.1391
420 3.70055
425 4.13161
430 3.75195
435 3.86536
440 3.6547
445 4.04905
450 3.47865
455 3.87776
460 3.87722
465 3.46448
470 3.32098
475 3.47925
480 3.15964
485 3.68992
490 3.52174
495 3.53266
500 3.56502
505 3.07242
510 3.16888
515 3.04739
520 3.49101
525 3.27272
530 3.66825
535 3.39869
540 3.55199
545 4.34498
550 3.93887
555 4.60481
560 5.50681
565 6.18791
570 6.82783
575 9.47427
580 12.2681
585 29.1044
590 847.951
595 4101.64
600 6247.54
Ex : 308
200 0.845707
205 0.82323
210 0.978102
215 0.975624
220 1.17933
225 0.86942
230 0.958734
235 1.05918
240 1.04799
245 0.989059
250 1.14185
255 1.08616
260 1.35364
265 1.29698
270 1.59848
275 1.85482
280 2.50903
285 3.42344
290 5.02924
295 152.848
300 2323.13
305 3321.61
310 777.092
315 99.3707
320 19.3094
325 8.94303
330 9.165
335 12.5808
340 11.3377
345 7.95115
350 5.72253
355 4.97058
360 5.11673
365 4.35682
370 4.22749
375 4.20281
380 4.11997
385 3.98108
390 4.54216
395 3.65263
400 4.05238
405 3.76828
410 3.46668
415 3.7067
420 3.73506
425 3.78172
430 3.51512
435 3.60569
440 3.74599
445 3.46156
450 3.6388
455 3.72235
460 3.33741
465 3.57696
470 3.44603
475 3.05608
480 3.59533
485 3.04239
490 2.9243
495 3.20714
500 3.11119
505 3.03509
510 3.18731
515 2.87949
520 2.85717
525 2.76972
530 3.29294
535 3.47867
540 3.20543
545 3.47185
550 3.55013
555 3.74376
560 3.94743
565 4.48692
570 4.90133
575 5.51083
580 7.02259
585 9.26598
590 12.2608
595 32.2051
600 140.234
Ex : 313
200 1.02862
205 0.961974
210 0.959392
215 0.855161
220 0.865741
225 0.851921
230 0.880496
235 0.916318
240 0.861177
245 0.966764
250 0.797784
255 1.07002
260 1.11315
265 1.06902
270 1.24226
275 1.549
280 1.96592
285 2.55622
290 3.40271
295 5.41951
300 158.389
305 2597.7
310 3670.78
315 857.636
320 108.881
325 20.3958
330 8.60635
335 8.1486
340 11.8165
345 12.1065
350 8.38408
355 5.32898
360 4.49902
365 3.72263
370 3.96112
375 3.7089
380 3.82326
385 3.54568
390 3.5428
395 3.48874
400 3.60541
405 3.46988
410 3.72312
415 3.80796
420 3.41931
425 3.46414
430 3.54765
435 3.13202
440 3.20748
445 3.21252
450 3.36346
455 3.34429
460 3.25861
465 3.62517
470 3.3946
475 3.05269
480 2.97967
485 2.96381
490 2.95254
495 2.84914
500 2.92727
505 2.88551
510 2.8288
515 2.44596
520 2.60568
525 2.8902
530 2.76294
535 2.73507
540 3.02096
545 3.09853
550 3.12373
555 3.18857
560 3.42186
565 3.44636
570 3.84863
575 4.42895
580 4.99836
585 5.77467
590 7.03358
595 8.58906
600 9.05356
Ex : 318
200 0.735868
205 0.798044
210 1.00141
215 0.887703
220 0.639585
225 0.688103
230 0.884814
235 0.810984
240 0.782555
245 0.873022
250 0.951171
255 0.891545
260 1.08061
265 1.0969
270 1.35122
275 1.30756
280 1.8385
285 1.96677
290 2.30153
295 3.62098
300 5.97627
305 196.932
310 2919.51
315 4006.31
320 933.516
325 118.431
330 21.3716
335 8.88889
340 7.33562
345 10.735
350 11.6065
355 8.73131
360 5.08992
365 4.57009
370 3.86244
375 3.57662
380 4.07272
385 3.80765
390 3.72105
395 3.35459
400 3.54301
405 3.35337
410 3.41902
415 3.29838
420 3.32781
425 3.31972
430 3.23372
435 3.06438
440 3.21609
445 3.21979
450 3.38192
455 3.13717
460 3.10637
465 3.27727
470 3.39262
475 3.01112
480 2.9881
485 3.07279
490 2.84561
495 2.82134
500 2.66347
505 2.66874
510 2.73373
515 3.0157
520 2.54193
525 2.40923
530 2.61372
535 2.63785
540 2.49478
545 2.68148
550 2.69086
555 2.91832
560 2.92096
565 3.17694
570 3.03992
575 3.48814
580 3.31136
585 3.93859
590 4.47218
595 5.29403
600 5.83774
Ex : 323
200 0.897556
205 0.98142
210 0.734048
215 0.849646
220 0.683967
225 0.897727
230 0.898978
235 0.710794
240 0.872905
245 0.880491
250 0.925415
255 0.861155
260 0.947382
265 1.17035
270 1.1632
275 1.34696
280 1.59681
285 1.73882
290 2.00725
295 2.60369
300 3.54495
305 5.99714
310 205.188
315 3129.05
320 4543.88
325 1089.42
330 136.005
335 24.4344
340 9.10116
345 6.94312
350 9.442
355 11.32
360 9.63592
365 6.13221
370 4.35033
375 3.64394
380 3.80743
385 3.72353
390 3.70976
395 3.33958
400 3.48046
405 3.48278
410 3.18216
415 3.25031
420 3.5075
425 3.38543
430 3.08545
435 3.21576
440 3.06743
445 3.29674
450 3.04991
455 3.0445
460 3.3444
465 3.27627
470 3.07854
475 2.93555
480 2.86997
485 3.00136
490 3.01997
495 2.67855
500 2.73746
505 2.7436
510 2.53344
515 2.61121
520 2.53073
525 2.25566
530 2.32589
535 2.47681
540 2.77239
545 2.42221
550 2.36799
555 2.496
560 2.57261
565 2.86598
570 2.78624
575 2.9629
580 3.20556
585 3.32645
590 3.59683
595 3.89612
600 3.20118
Ex : 328
200 0.603777
205 0.554287
210 0.689573
215 0.787638
220 0.749547
225 0.902858
230 0.912599
235 0.754974
240 0.773262
245 0.781164
250 0.859308
255 0.854987
260 0.871436
265 1.00443
270 1.1208
275 1.24016
280 1.43137
285 1.31931
290 1.60575
295 2.10805
300 2.53279
305 3.91122
310 6.60245
315 216.199
320 3459.76
325 4904.84
330 1148.7
335 143.329
340 24.8357
345 9.31172
350 6.73359
355 8.42007
360 10.4065
365 9.7726
370 6.58337
375 4.43168
380 3.81768
385 3.61549
390 3.60389
395 3.28414
400 3.53682
405 3.51126
410 3.49706
415 3.12627
420 3.07092
425 3.06144
430 3.13332
435 3.15891
440 3.03252
445 2.8871
450 3.16274
455 2.91741
460 3.33202
465 3.49885
470 2.9356
475 3.09994
480 2.94527
485 2.69978
490 2.51516
495 2.62545
500 2.71341
505 2.58493
510 2.5234
515 2.33132
520 2.51369
525 2.29713
530 2.17812
535 2.333
540 2.32656
545 2.42137
550 2.23902
555 2.33679
560 2.31516
565 2.16967
570 2.52302
575 2.26489
580 2.4097
585 2.52456
590 2.61011
595 2.8349
600 3.97277
Ex : 333
200 0.699521
205 0.583754
210 0.734825
215 0.644637
220 0.638182
225 0.696867
230 0.698345
235 0.953692
240 0.778094
245 0.694304
250 0.691583
255 0.773108
260 0.77309
265 1.05568
270 0.952781
275 1.10174
280 0.992491
285 1.24087
290 1.40056
295 1.57996
300 2.23384
305 2.69538
310 4.21803
315 7.39672
320 256.624
325 3724.64
330 5176
335 1216.11
340 150.857
345 25.467
350 9.00183
355 6.09886
360 6.91495
365 9.55213
370 10.3916
375 7.26394
380 4.72095
385 4.08976
390 3.69246
395 3.69999
400 3.64198
405 3.44196
410 3.47187
415 3.37809
420 3.60178
425 3.33903
430 3.26938
435 2.97983
440 2.88564
445 2.95717
450 3.11907
455 3.16974
460 3.00066
465 3.21951
470 3.05774
475 2.93235
480 2.78729
485 2.78866
490 2.604
495 2.54082
500 2.6661
505 2.42467
510 2.59396
515 2.40045
520 2.35823
525 2.18889
530 2.21504
535 2.1086
540 2.2182
545 2.11174
550 2.20665
555 2.06988
560 2.16897
565 2.04369
570 2.02793
575 2.14624
580 2.07636
585 2.25483
590 2.3329
595 2.21347
600 2.65017
Ex : 338
200 0.706155
205 0.610001
210 0.654084
215 0.836799
220 0.702386
225 0.635259
230 0.636983
235 0.808959
240 0.809326
245 0.776357
250 0.773295
255 0.940136
260 0.90009
265 0.898077
270 0.944904
275 0.95423
280 1.06711
285 1.21691
290 1.33523
295 1.57782
300 1.63759
305 2.1367
310 2.95334
315 4.24069
320 7.65319
325 280.322
330 3984.6
335 5361.01
340 1237.6
345 153.281
350 25.3586
355 8.58785
360 5.60753
365 6.49683
370 8.77042
375 9.90224
380 7.84966
385 4.96705
390 3.8579
395 3.75223
400 3.68155
405 3.77785
410 3.56762
415 3.46829
420 3.39236
425 3.17144
430 2.9779
435 3.07855
440 3.00955
445 2.91929
450 3.21961
455 3.17192
460 3.13303
465 3.30652
470 3.1324
475 3.09164
480 2.73371
485 2.66005
490 2.71294
495 2.52186
500 2.40532
505 2.45783
510 2.59997
515 2.37785
520 2.19677
525 2.25465
530 2.05255
535 2.0543
540 1.87015
545 2.15482
550 1.93892
555 1.96716
560 2.0401
565 1.87323
570 2.07751
575 1.90014
580 1.80625
585 1.91248
590 1.92819
595 1.91112
600 1.41104
Ex : 343
200 0.545078
205 0.488921
210 0.530573
215 0.6181
220 0.529784
225 0.624388
230 0.644171
235 0.620237
240 0.610087
245 0.746293
250 0.795396
255 0.793775
260 0.749128
265 0.789669
270 0.842241
275 0.876994
280 1.07442
285 1.15609
290 1.2234
295 1.26884
300 1.45689
305 1.8242
310 2.22576
315 3.16734
320 4.50557
325 7.75266
330 272.45
335 4101.74
340 5722.97
345 1322.67
350 163
355 26.4842
360 8.50743
365 5.56838
370 5.50527
375 7.90116
380 9.20871
385 8.139
390 5.40518
395 3.86144
400 3.6711
405 3.47652
410 3.41513
415 3.31195
420 3.27239
425 3.32031
430 3.25924
435 3.28265
440 2.94144
445 3.26705
450 2.99996
455 2.97417
460 3.05277
465 2.99699
470 3.01922
475 2.83993
480 2.94641
485 2.73079
490 2.75436
495 2.57016
500 2.63787
505 2.66621
510 2.29778
515 2.22447
520 2.38246
525 2.07397
530 2.00313
535 2.07741
540 1.92101
545 1.97641
550 1.90912
555 1.88498
560 1.86607
565 1.78981
570 1.64726
575 1.73606
580 1.66418
585 1.52813
590 1.62674
595 1.82394
600 2.36076
Ex : 348
200 0.458516
205 0.581594
210 0.558887
215 0.598275
220 0.583033
225 0.572468
230 0.561756
235 0.579026
240 0.627742
245 0.594255
250 0.643842
255 0.680223
260 0.685525
265 0.777721
270 0.800499
275 0.830572
280 0.829565
285 0.91155
290 0.882273
295 1.14678
300 1.23797
305 1.47756
310 1.84765
315 2.26111
320 3.2037
325 4.40086
330 7.61746
335 261.059
340 4055.08
345 5955.95
350 1471.01
355 179.961
360 28.3424
365 8.81778
370 5.35558
375 4.98212
380 6.73641
385 8.70776
390 8.5113
395 6.30155
400 4.10568
405 3.48656
410 3.37668
415 3.24354
420 3.32883
425 3.02272
430 3.34917
435 3.32182
440 2.90238
445 3.02373
450 3.16894
455 3.09195
460 3.20064
465 3.18486
470 3.08027
475 3.08054
480 2.82419
485 2.62164
490 2.4383
495 2.59378
500 2.33779
505 2.19147
510 2.31243
515 2.1426
520 2.13231
525 1.90941
530 1.98112
535 1.80922
540 1.7527
545 1.76242
550 1.777
555 1.63443
560 1.69774
565 1.62071
570 1.47541
575 1.55546
580 1.5573
585 1.64298
590 1.41623
595 1.45791
600 1.22935
Ex : 353
200 0.4845
205 0.514425
210 0.450232
215 0.496741
220 0.519702
225 0.554394
230 0.547718
235 0.611205
240 0.524756
245 0.563394
250 0.652053
255 0.650383
260 0.658054
265 0.744768
270 0.701697
275 0.772551
280 0.900476
285 0.861374
290 0.915346
295 0.913209
300 1.16704
305 1.30563
310 1.46332
315 1.95592
320 2.35192
325 3.36045
330 4.75308
335 8.02843
340 276.895
345 4333.18
350 6169.44
355 1466.24
360 179.269
365 28.404
370 8.72595
375 5.85911
380 4.56075
385 5.99539
390 8.087
395 8.85824
400 6.87771
405 4.48188
410 3.68436
415 3.43032
420 3.38984
425 3.31731
430 3.19491
435 3.22265
440 3.09344
445 3.02695
450 3.07467
455 3.20256
460 3.13841
465 3.07798
470 3.0128
475 2.92242
480 2.86472
485 2.65807
490 2.56192
495 2.46086
500 2.35046
505 2.42839
510 2.19693
515 2.05442
520 1.97371
525 2.02941
530 1.8951
535 2.08788
540 1.77515
545 1.67107
550 1.69707
555 1.68905
560 1.48182
565 1.5956
570 1.45015
575 1.32932
580 1.36505
585 1.38119
590 1.38572
595 1.44576
600 1.10687
Ex : 358
200 0.528214
205 0.500843
210 0.505916
215 0.492586
220 0.568969
225 0.559778
230 0.516795
235 0.565262
240 0.612542
245 0.550738
250 0.658777
255 0.64486
260 0.693334
265 0.722373
270 0.740269
275 0.673671
280 0.800402
285 0.953612
290 0.92458
295 0.920943
300 0.975816
305 1.20998
310 1.31522
315 1.45586
320 1.74016
325 2.26167
330 3.03022
335 4.66094
340 8.11423
345 271.304
350 4250.08
355 6300.05
360 1508.59
365 184.167
370 29.1123
375 8.87552
380 5.5126
385 4.78156
390 5.53882
395 8.03376
400 8.60749
405 7.8704
410 5.0562
415 3.65029
420 3.34389
425 3.46297
430 3.30879
435 2.99901
440 3.26996
445 3.11133
450 3.13786
455 3.11995
460 3.0597
465 2.99669
470 2.84505
475 2.77151
480 2.70546
485 2.66295
490 2.46888
495 2.3194
500 2.4204
505 2.13726
510 2.0737
515 2.0167
520 1.87527
525 1.84628
530 1.69351
535 1.68141
540 1.6844
545 1.5534
550 1.59041
555 1.61784
560 1.49389
565 1.49191
570 1.54318
575 1.21347
580 1.31452
585 1.26391
590 1.17011
595 1.17897
600 1.0725
Ex : 363
200 0.50561
205 0.477786
210 0.512858
215 0.540466
220 0.513581
225 0.427549
230 0.463899
235 0.519416
240 0.530223
245 0.6322
250 0.539949
255 0.51888
260 0.585714
265 0.583701
270 0.712234
275 0.610088
280 0.665259
285 0.748395
290 0.769818
295 0.877454
300 0.834063
305 0.919267
310 1.16209
315 1.2877
320 1.49874
325 1.67153
330 2.22982
335 3.11813
340 4.70602
345 7.89292
350 252.904
355 4149.97
360 6303.34
365 1571.1
370 191.346
375 29.5203
380 8.97034
385 5.78724
390 4.61188
395 4.83582
400 7.11332
405 8.40184
410 7.97168
415 5.61989
420 3.8331
425 3.31123
430 3.18426
435 3.07322
440 2.98572
445 3.01685
450 3.08241
455 3.04788
460 3.01904
465 2.9532
470 2.68006
475 2.8567
480 2.77557
485 2.53705
490 2.52634
495 2.2974
500 2.43438
505 2.29275
510 2.16677
515 1.9921
520 1.86401
525 1.6715
530 1.64384
535 1.63328
540 1.54325
545 1.53834
550 1.56417
555 1.64523
560 1.50773
565 1.28966
570 1.39561
575 1.34095
580 1.12296
585 1.02395
590 0.976327
595 0.953484
600 1.061
Ex : 368
200 0.511273
205 0.413742
210 0.421885
215 0.383631
220 0.418809
225 0.457268
230 0.428937
235 0.547472
240 0.527906
245 0.527514
250 0.504269
255 0.556533
260 0.539349
265 0.593642
270 0.548045
275 0.659075
280 0.77632
285 0.728869
290 0.793144
295 0.783818
300 0.870238
305 0.899877
310 1.06294
315 1.20788
320 1.348
325 1.56288
330 1.80856
335 2.48571
340 3.39219
345 4.75668
350 7.9548
355 216.08
360 4131.16
365 6712.97
370 1724.21
375 209.989
380 31.5204
385 9.39591
390 5.7314
395 4.52328
400 4.31467
405 5.99996
410 7.93822
415 7.78283
420 6.20288
425 4.16029
430 3.40267
435 3.25749
440 3.11213
445 3.10541
450 3.06403
455 3.13988
460 2.92132
465 2.9434
470 2.9382
475 2.87933
480 2.52205
485 2.48797
490 2.44036
495 2.16914
500 2.1783
505 2.11768
510 1.94812
515 1.89727
520 1.82208
525 1.74049
530 1.60342
535 1.62168
540 1.65208
545 1.44911
550 1.43101
555 1.30337
560 1.25316
565 1.21383
570 1.22141
575 1.19624
580 1.03732
585 0.988117
590 0.980581
595 0.957126
600 0.520722
Ex : 373
200 0.393069
205 0.418285
210 0.364729
215 0.459627
220 0.478406
225 0.564655
230 0.424237
235 0.446783
240 0.443236
245 0.423025
250 0.48073
255 0.543455
260 0.447983
265 0.527885
270 0.583179
275 0.59914
280 0.574497
285 0.729528
290 0.671936
295 0.736566
300 0.751896
305 0.896202
310 0.90348
315 1.02191
320 1.18693
325 1.49536
330 1.6034
335 1.91936
340 2.51939
345 3.28843
350 5.0533
355 8.25059
360 262.073
365 4423.51
370 6877.65
375 1746.02
380 211.472
385 32.4634
390 9.63697
395 5.82757
400 4.68036
405 3.99141
410 5.19606
415 7.4017
420 7.67785
425 6.62163
430 4.44554
435 3.42291
440 3.29842
445 2.86507
450 3.01198
455 2.98356
460 2.9436
465 2.8703
470 2.95014
475 2.6655
480 2.60693
485 2.41477
490 2.35796
495 2.11831
500 1.95207
505 2.0389
510 1.90546
515 1.86497
520 1.8293
525 1.68381
530 1.57503
535 1.51256
540 1.61736
545 1.42849
550 1.32192
555 1.41958
560 1.21312
565 1.26673
570 1.0664
575 1.0736
580 0.936982
585 1.02672
590 0.947246
595 0.881276
600 0.972643
Ex : 378
200 0.375881
205 0.420958
210 0.44196
215 0.444138
220 0.410928
225 0.44518
230 0.525032
235 0.469639
240 0.449513
245 0.429769
250 0.495771
255 0.482089
260 0.543145
265 0.459583
270 0.535901
275 0.562187
280 0.595428
285 0.701744
290 0.653934
295 0.661514
300 0.759704
305 0.761115
310 0.884585
315 0.869359
320 0.942285
325 1.23398
330 1.30241
335 1.59089
340 1.9858
345 2.51281
350 3.33375
355 4.83303
360 8.06035
365 255.183
370 4523.03
375 7091.38
380 1800.5
385 218.566
390 33.261
395 9.63993
400 5.90192
405 4.64095
410 3.90298
415 4.67977
420 6.76803
425 7.52202
430 7.03071
435 4.89105
440 3.56028
445 3.26234
450 3.09101
455 2.98689
460 3.05564
465 2.85169
470 2.80774
475 2.55452
480 2.77634
485 2.50119
490 2.31078
495 2.23695
500 2.07013
505 2.01408
510 1.942
515 1.77891
520 1.58555
525 1.60182
530 1.5419
535 1.49185
540 1.45759
545 1.39092
550 1.30582
555 1.31044
560 1.23536
565 1.20563
570 1.10795
575 1.04016
580 0.952598
585 1.00328
590 0.905445
595 0.77566
600 0.784361
Ex : 383
200 0.42994
205 0.393224
210 0.368335
215 0.410218
220 0.416045
225 0.527715
230 0.420651
235 0.420414
240 0.468575
245 0.446155
250 0.444579
255 0.46657
260 0.548449
265 0.502885
270 0.541883
275 0.518364
280 0.498616
285 0.545265
290 0.707615
295 0.616786
300 0.612456
305 0.72619
310 0.71449
315 0.871023
320 0.976909
325 0.98591
330 1.18956
335 1.40483
340 1.67135
345 1.97567
350 2.45514
355 3.54313
360 5.00245
365 8.2189
370 243.339
375 4456.6
380 7296.41
385 1905.46
390 230.952
395 34.553
400 10.0805
405 5.92527
410 4.50049
415 3.81518
420 4.30353
425 5.77617
430 6.8941
435 6.67472
440 5.40755
445 3.85755
450 3.25002
455 3.18483
460 2.86201
465 2.86622
470 2.79628
475 2.7507
480 2.5952
485 2.37813
490 2.29542
495 2.23778
500 2.22912
505 2.07865
510 1.94781
515 1.8612
520 1.69452
525 1.61811
530 1.53577
535 1.51743
540 1.43545
545 1.30978
550 1.35895
555 1.28526
560 1.17362
565 1.08185
570 1.02552
575 0.958906
580 0.975322
585 0.994837
590 0.927138
595 0.825608
600 1.07241
Ex : 388
200 0.406032
205 0.395868
210 0.440283
215 0.452816
220 0.400665
225 0.437091
230 0.458569
235 0.46624
240 0.365168
245 0.406397
250 0.442718
255 0.472297
260 0.459198
265 0.488775
270 0.525568
275 0.524114
280 0.537724
285 0.642776
290 0.605749
295 0.584096
300 0.648207
305 0.721184
310 0.683806
315 0.869324
320 0.889408
325 0.951594
330 1.11366
335 1.25086
340 1.45427
345 1.65626
350 1.93197
355 2.44684
360 3.52279
365 5.16462
370 8.51229
375 264.341
380 4747.18
385 7661.05
390 1992.67
395 240.787
400 35.8281
405 10.0958
410 6.00054
415 4.63118
420 4.01198
425 3.7654
430 5.34685
435 7.13084
440 6.70932
445 5.92497
450 4.01406
455 3.34712
460 3.22988
465 2.99875
470 2.85394
475 2.66202
480 2.56581
485 2.45029
490 2.45935
495 2.25569
500 2.1495
505 2.11015
510 1.81855
515 1.91553
520 1.8481
525 1.62443
530 1.66945
535 1.44945
540 1.37117
545 1.40138
550 1.31159
555 1.33425
560 1.1481
565 1.15557
570 1.06441
575 0.970489
580 0.996122
585 0.883382
590 0.795356
595 0.780901
600 0.632547
Ex : 393
200 0.381911
205 0.364867
210 0.38074
215 0.438835
220 0.458774
225 0.446419
230 0.406836
235 0.352773
240 0.502232
245 0.42467
250 0.491242
255 0.482995
260 0.479607
265 0.516462
270 0.401558
275 0.494491
280 0.56083
285 0.505366
290 0.559218
295 0.621386
300 0.666317
305 0.612325
310 0.683411
315 0.756982
320 0.858941
325 0.961444
330 1.07474
335 1.08425
340 1.24626
345 1.45626
350 1.71317
355 2.08585
360 2.75704
365 3.52911
370 5.14158
375 8.61281
380 245.366
385 4912.97
390 8177.73
395 2139.2
400 258.056
405 37.7993
410 10.3592
415 5.93674
420 4.51608
425 3.77218
430 3.41949
435 4.75526
440 6.65832
445 6.73199
450 6.1985
455 4.73331
460 3.41243
465 3.11467
470 2.82368
475 2.73635
480 2.54533
485 2.41138
490 2.42431
495 2.18443
500 2.12475
505 2.03559
510 1.89168
515 1.70298
520 1.78124
525 1.55296
530 1.54052
535 1.57079
540 1.52491
545 1.41891
550 1.3441
555 1.22721
560 1.27393
565 1.10596
570 1.12853
575 1.04924
580 0.967253
585 0.895809
590 0.83969
595 0.806982
600 0.676623
Ex : 398
200 0.395275
205 0.410502
210 0.389918
215 0.394084
220 0.429191
225 0.458624
230 0.411797
235 0.442085
240 0.431563
245 0.445174
250 0.456863
255 0.467915
260 0.407327
265 0.51266
270 0.432941
275 0.533599
280 0.537804
285 0.557872
290 0.57781
295 0.580137
300 0.607918
305 0.649748
310 0.719934
315 0.728949
320 0.845813
325 0.788988
330 0.99939
335 1.05967
340 1.17209
345 1.34597
350 1.56917
355 1.75325
360 2.18311
365 2.768
370 3.4304
375 5.33049
380 8.87517
385 258.126
390 5087.03
395 8434.32
400 2206.4
405 265.645
410 38.4183
415 10.375
420 6.06514
425 4.71662
430 3.76672
435 3.60099
440 4.13551
445 5.92776
450 6.24182
455 6.18559
460 5.13809
465 3.77638
470 3.03943
475 2.79558
480 2.53502
485 2.47594
490 2.47955
495 2.19996
500 2.14793
505 1.95079
510 1.87036
515 1.74818
520 1.76279
525 1.73769
530 1.56225
535 1.47896
540 1.40149
545 1.34081
550 1.34418
555 1.24859
560 1.1425
565 1.21117
570 1.05207
575 0.953188
580 0.932317
585 0.86595
590 0.807978
595 0.736073
600 0.351109
Ex : 403
200 0.423057
205 0.467281
210 0.478329
215 0.441444
220 0.452518
225 0.396411
230 0.401575
235 0.395848
240 0.405967
245 0.43045
250 0.491116
255 0.469579
260 0.489592
265 0.546217
270 0.536426
275 0.523587
280 0.454206
285 0.565828
290 0.601441
295 0.652192
300 0.601736
305 0.680573
310 0.734422
315 0.834842
320 0.793406
325 0.889926
330 0.919801
335 0.992356
340 1.03012
345 1.20546
350 1.24622
355 1.42425
360 1.73682
365 2.13415
370 2.71812
375 3.65437
380 5.29214
385 9.15334
390 283.216
395 5342.44
400 8664.87
405 2284.15
410 274.088
415 39.5569
420 10.664
425 5.95164
430 4.57971
435 3.85025
440 3.71774
445 3.81572
450 5.60315
455 6.42079
460 5.99456
465 5.19578
470 3.85177
475 2.99243
480 2.67848
485 2.41019
490 2.35107
495 2.19515
500 2.14567
505 2.03266
510 1.97879
515 1.92904
520 1.73388
525 1.71129
530 1.57671
535 1.55105
540 1.5106
545 1.43529
550 1.42378
555 1.27336
560 1.37651
565 1.22304
570 1.07166
575 0.924762
580 0.867968
585 0.762092
590 0.737659
595 0.747933
600 0.861456
Ex : 408
200 0.435961
205 0.357483
210 0.374214
215 0.422127
220 0.413356
225 0.459101
230 0.478206
235 0.448344
240 0.403176
245 0.472989
250 0.505963
255 0.491787
260 0.414872
265 0.442005
270 0.520793
275 0.496185
280 0.532255
285 0.502392
290 0.531931
295 0.52712
300 0.564631
305 0.639108
310 0.656665
315 0.70347
320 0.791079
325 0.864688
330 0.880877
335 0.948706
340 0.981431
345 1.00619
350 1.26947
355 1.29247
360 1.55416
365 1.83172
370 2.34698
375 2.75791
380 3.91398
385 5.69455
390 9.86658
395 282.182
400 5514.36
405 8910.72
410 2279.99
415 273.521
420 39.5511
425 10.6191
430 5.72375
435 4.68292
440 3.66529
445 3.50902
450 3.65371
455 4.99953
460 6.06078
465 5.96171
470 5.56211
475 4.05883
480 2.96195
485 2.66811
490 2.51364
495 2.3933
500 2.13817
505 1.95368
510 1.99338
515 1.89957
520 1.784
525 1.64656
530 1.60493
535 1.53968
540 1.45309
545 1.40294
550 1.33157
555 1.31018
560 1.22234
565 1.20992
570 1.13481
575 0.974917
580 0.942945
585 0.885248
590 0.729888
595 0.726244
600 0.617296
Ex : 413
200 0.408926
205 0.368602
210 0.450887
215 0.430929
220 0.393354
225 0.383318
230 0.449192
235 0.45654
240 0.450189
245 0.474887
250 0.454595
255 0.446862
260 0.424642
265 0.489376
270 0.489321
275 0.511103
280 0.503456
285 0.528637
290 0.534455
295 0.606821
300 0.551314
305 0.645513
310 0.667178
315 0.646044
320 0.679251
325 0.693182
330 0.797264
335 0.945499
340 0.973877
345 1.1048
350 1.17325
355 1.17375
360 1.49885
365 1.60944
370 1.95004
375 2.24109
380 2.98904
385 4.0454
390 6.33836
395 10.2562
400 328.277
405 5770.19
410 9120.42
415 2273.05
420 272.404
425 39.2101
430 10.2565
435 5.86053
440 4.65267
445 3.74101
450 3.45228
455 3.50179
460 4.24685
465 5.85214
470 5.51119
475 5.26604
480 4.34666
485 3.01268
490 2.56157
495 2.25
500 2.18237
505 1.98545
510 1.84416
515 1.73543
520 1.75221
525 1.74273
530 1.5601
535 1.67984
540 1.46206
545 1.45579
550 1.29241
555 1.31377
560 1.26822
565 1.15801
570 1.19402
575 1.03825
580 0.89727
585 0.828436
590 0.773308
595 0.724281
600 1.27429
Ex : 418
200 0.376207
205 0.390598
210 0.330262
215 0.424037
220 0.359354
225 0.421981
230 0.413111
235 0.36909
240 0.371666
245 0.415893
250 0.453547
255 0.442409
260 0.43495
265 0.475783
270 0.47673
275 0.530743
280 0.558359
285 0.542574
290 0.493011
295 0.586434
300 0.567644
305 0.545523
310 0.624461
315 0.599188
320 0.686455
325 0.787844
330 0.781134
335 0.88047
340 0.972073
345 0.94064
350 0.957537
355 1.18345
360 1.24304
365 1.45302
370 1.70326
375 2.00545
380 2.28269
385 2.94861
390 4.01202
395 6.25991
400 10.6094
405 306.883
410 5814.8
415 9383.12
420 2391.89
425 286.025
430 40.5771
435 10.4405
440 6.37518
445 4.67121
450 3.88537
455 3.38443
460 3.58544
465 3.93467
470 5.16534
475 5.29122
480 5.3747
485 4.65014
490 3.25284
495 2.60225
500 2.20832
505 2.10921
510 1.91988
515 1.81394
520 1.71339
525 1.75078
530 1.62186
535 1.57938
540 1.51174
545 1.32597
550 1.37208
555 1.39977
560 1.17834
565 1.11864
570 1.08473
575 1.07034
580 0.914738
585 0.792868
590 0.863101
595 0.650578
600 0.678482
Ex : 423
200 0.394198
205 0.362508
210 0.421224
215 0.465173
220 0.4211
225 0.474733
230 0.451326
235 0.426138
240 0.452619
245 0.473612
250 0.455093
255 0.441202
260 0.465334
265 0.494909
270 0.482533
275 0.555025
280 0.532316
285 0.493309
290 0.521558
295 0.544422
300 0.627921
305 0.56801
310 0.611423
315 0.626552
320 0.644442
325 0.715844
330 0.733441
335 0.781472
340 0.880863
345 0.91179
350 0.981834
355 1.08616
360 1.18012
365 1.33174
370 1.56502
375 1.7636
380 1.96189
385 2.40759
390 3.28576
395 4.40179
400 6.38565
405 10.5548
410 315.408
415 6021.3
420 9452.28
425 2341.65
430 280.661
435 40.1933
440 10.4999
445 6.02615
450 4.87267
455 3.81872
460 3.43755
465 3.38255
470 3.45066
475 4.68591
480 5.24952
485 5.05869
490 4.67354
495 3.26793
500 2.3985
505 2.03185
510 2.12397
515 1.84241
520 1.77479
525 1.77294
530 1.65231
535 1.46121
540 1.45324
545 1.41416
550 1.42664
555 1.19278
560 1.19925
565 1.15567
570 0.991877
575 0.975702
580 0.915698
585 0.791968
590 0.78214
595 0.644462
600 0.926099
Ex : 428
200 0.423349
205 0.398487
210 0.428938
215 0.503829
220 0.433165
225 0.405368
230 0.410933
235 0.374187
240 0.443365
245 0.503327
250 0.472887
255 0.479877
260 0.478555
265 0.444533
270 0.51459
275 0.527553
280 0.527044
285 0.540581
290 0.531981
295 0.553173
300 0.542448
305 0.570369
310 0.634617
315 0.609601
320 0.641514
325 0.618155
330 0.743896
335 0.742369
340 0.905893
345 0.923387
350 1.02079
355 1.03561
360 1.19445
365 1.26298
370 1.37291
375 1.50373
380 1.76729
385 2.11995
390 2.60349
395 3.30573
400 4.55163
405 6.65005
410 10.8402
415 348.896
420 6198.26
425 9737.86
430 2480.03
435 296.848
440 42.664
445 11.2956
450 6.30127
455 4.96594
460 3.90789
465 3.63119
470 3.16065
475 3.26981
480 4.10846
485 4.98022
490 4.76671
495 4.35139
500 3.69799
505 2.60612
510 2.22112
515 2.04642
520 1.85666
525 1.77454
530 1.54905
535 1.66953
540 1.51248
545 1.44356
550 1.31679
555 1.27294
560 1.20925
565 1.22928
570 1.06469
575 0.956061
580 0.854316
585 0.837456
590 0.775716
595 0.697844
600 1.62906
Ex : 433
200 0.364394
205 0.403821
210 0.367549
215 0.401988
220 0.424827
225 0.358958
230 0.40141
235 0.418786
240 0.436708
245 0.45764
250 0.490701
255 0.472196
260 0.463522
265 0.501806
270 0.507892
275 0.581942
280 0.491781
285 0.547745
290 0.55987
295 0.574707
300 0.544393
305 0.568564
310 0.58325
315 0.570283
320 0.710316
325 0.742322
330 0.804177
335 0.78545
340 0.795772
345 0.879998
350 0.968951
355 0.998673
360 1.02357
365 1.15437
370 1.2497
375 1.47436
380 1.54536
385 1.84448
390 2.09324
395 2.55383
400 3.38427
405 4.4943
410 6.40815
415 11.119
420 379.275
425 6512.94
430 9669.15
435 2368.17
440 283.927
445 41.3694
450 11.1011
455 6.58654
460 5.14035
465 3.83534
470 3.31075
475 3.26635
480 3.07944
485 3.58622
490 4.63542
495 4.52252
500 4.26914
505 3.68515
510 2.84378
515 2.12828
520 1.9486
525 1.82486
530 1.5993
535 1.4963
540 1.48066
545 1.43437
550 1.3278
555 1.26086
560 1.24793
565 1.15282
570 1.05475
575 0.904741
580 0.894433
585 0.745273
590 0.731944
595 0.737418
600 1.62167
Ex : 438
200 0.457844
205 0.381594
210 0.323092
215 0.44004
220 0.453706
225 0.428487
230 0.479509
235 0.426241
240 0.411342
245 0.407462
250 0.436316
255 0.444804
260 0.494196
265 0.493928
270 0.429861
275 0.497072
280 0.489384
285 0.560545
290 0.552855
295 0.587197
300 0.666859
305 0.62669
310 0.681694
315 0.611083
320 0.676194
325 0.716482
330 0.740684
335 0.750315
340 0.866683
345 0.789468
350 0.873241
355 0.979247
360 0.969501
365 1.13022
370 1.1966
375 1.25965
380 1.47924
385 1.6904
390 1.88457
395 2.24533
400 2.73036
405 3.55572
410 4.75972
415 6.95071
420 11.1404
425 366.311
430 6632.1
435 9999.9
440 2484.15
445 297.471
450 42.9696
455 11.4479
460 6.5309
465 5.36144
470 4.05235
475 3.45274
480 2.91408
485 2.8811
490 3.12353
495 4.30115
500 4.40528
505 4.08081
510 4.02377
515 3.18832
520 2.16752
525 1.77953
530 1.59671
535 1.6788
540 1.45549
545 1.56388
550 1.31212
555 1.19732
560 1.09939
565 1.16646
570 0.964255
575 0.945872
580 0.905824
585 0.798653
590 0.692457
595 0.683162
600 0.667721
Ex : 443
200 0.427508
205 0.405958
210 0.415817
215 0.361176
220 0.352414
225 0.386414
230 0.410778
235 0.419773
240 0.483818
245 0.445418
250 0.428276
255 0.413764
260 0.430839
265 0.409744
270 0.486295
275 0.529755
280 0.550578
285 0.510614
290 0.519078
295 0.539914
300 0.607998
305 0.648009
310 0.584305
315 0.612967
320 0.590605
325 0.66922
330 0.683545
335 0.716397
340 0.730688
345 0.776443
350 0.837196
355 0.962636
360 0.990589
365 1.06443
370 1.0788
375 1.3653
380 1.41673
385 1.60733
390 1.74302
395 1.92969
400 2.35529
405 2.80067
410 3.58442
415 4.8571
420 7.02874
425 11.2641
430 404.62
435 6903.63
440 9999.9
445 2469.89
450 295.995
455 42.7833
460 11.5703
465 6.84137
470 5.20641
475 3.82958
480 3.18832
485 3.07867
490 2.88424
495 2.66978
500 3.78417
505 4.36345
510 3.8502
515 3.7766
520 3.16179
525 2.2877
530 1.86385
535 1.61313
540 1.56312
545 1.56775
550 1.44834
555 1.2856
560 1.25607
565 1.25242
570 1.12619
575 0.986425
580 0.916629
585 0.874145
590 0.726173
595 0.7273
600 0.464359
Ex : 448
200 0.411539
205 0.37882
210 0.414524
215 0.40558
220 0.409403
225 0.400673
230 0.435833
235 0.408612
240 0.497059
245 0.488502
250 0.466732
255 0.463882
260 0.456239
265 0.420142
270 0.484837
275 0.437081
280 0.478418
285 0.535639
290 0.635021
295 0.586874
300 0.584347
305 0.577308
310 0.617695
315 0.623709
320 0.624432
325 0.696698
330 0.71062
335 0.727102
340 0.765737
345 0.813782
350 0.904545
355 0.945728
360 0.947513
365 1.13572
370 1.13201
375 1.26505
380 1.25792
385 1.43737
390 1.61066
395 1.8118
400 2.04409
405 2.40017
410 2.84016
415 3.90721
420 4.88872
425 7.19575
430 11.7399
435 418.153
440 7307.42
445 9999.9
450 2498.34
455 298.89
460 43.8023
465 12.1372
470 6.8342
475 5.02485
480 3.73852
485 3.23393
490 2.86458
495 2.74745
500 2.75465
505 3.33839
510 4.04963
515 3.73495
520 3.5343
525 3.1132
530 2.3813
535 1.82016
540 1.59691
545 1.54136
550 1.40379
555 1.44722
560 1.23812
565 1.12714
570 1.10403
575 0.96056
580 0.877539
585 0.811865
590 0.859135
595 0.800752
600 0.701952
Ex : 453
200 0.402869
205 0.440918
210 0.484153
215 0.443314
220 0.449417
225 0.460282
230 0.436589
235 0.410241
240 0.475974
245 0.450826
250 0.489466
255 0.414717
260 0.474687
265 0.578198
270 0.55324
275 0.495982
280 0.47407
285 0.466376
290 0.51876
295 0.564828
300 0.5541
305 0.73805
310 0.642285
315 0.558069
320 0.689759
325 0.718325
330 0.699336
335 0.804412
340 0.850184
345 0.824951
350 0.816847
355 0.907543
360 1.01966
365 1.04391
370 1.11222
375 1.12031
380 1.29856
385 1.39835
390 1.5207
395 1.54969
400 1.88566
405 2.24879
410 2.48649
415 2.89168
420 3.77895
425 4.80538
430 6.8272
435 11.6609
440 440.055
445 7826.98
450 9999.9
455 2448.11
460 293.542
465 43.2279
470 11.6681
475 6.44187
480 4.85128
485 3.77696
490 3.1111
495 2.82877
500 2.67283
505 2.71016
510 2.89024
515 3.62391
520 3.74589
525 3.3554
530 3.28165
535 2.56256
540 1.99021
545 1.61047
550 1.44196
555 1.45684
560 1.40831
565 1.19692
570 1.09843
575 1.03988
580 0.924302
585 0.935111
590 0.801492
595 0.788038
600 0.778151
Ex : 458
200 0.42581
205 0.459125
210 0.450862
215 0.385943
220 0.52497
225 0.48651
230 0.44374
235 0.413142
240 0.420743
245 0.438668
250 0.417308
255 0.488473
260 0.496987
265 0.528642
270 0.491305
275 0.414498
280 0.536794
285 0.573008
290 0.600638
295 0.585845
300 0.647267
305 0.647529
310 0.647364
315 0.596498
320 0.739085
325 0.770563
330 0.819413
335 0.745922
340 0.792583
345 0.788354
350 0.84322
355 0.885343
360 1.03247
365 1.00162
370 1.07705
375 1.02342
380 1.15378
385 1.29939
390 1.40784
395 1.51149
400 1.75906
405 1.88046
410 2.16144
415 2.56232
420 3.01486
425 3.65272
430 5.24038
435 7.55431
440 12.1869
445 483.715
450 8183.45
455 9999.9
460 2565.12
465 308.396
470 44.7602
475 11.5864
480 6.55062
485 4.70016
490 3.59678
495 2.9103
500 2.75551
505 2.73299
510 2.44977
515 2.43428
520 3.28003
525 3.60549
530 3.15412
535 2.93427
540 2.62315
545 2.04978
550 1.61733
555 1.54458
560 1.33839
565 1.15766
570 1.13851
575 0.996356
580 0.915551
585 0.888364
590 0.828047
595 0.842488
600 0.463684
Ex : 463
200 0.438282
205 0.402898
210 0.40469
215 0.445805
220 0.433653
225 0.569773
230 0.5213
235 0.399115
240 0.43942
245 0.478246
250 0.512418
255 0.494517
260 0.528361
265 0.510924
270 0.473132
275 0.494996
280 0.524219
285 0.530186
290 0.571881
295 0.539955
300 0.594608
305 0.650321
310 0.599957
315 0.629537
320 0.691448
325 0.691607
330 0.690277
335 0.769306
340 0.797446
345 0.861558
350 0.824546
355 0.8527
360 0.953724
365 0.961359
370 0.974657
375 1.16042
380 1.21741
385 1.20554
390 1.37787
395 1.53309
400 1.62064
405 1.67004
410 1.92017
415 2.10416
420 2.56657
425 3.06996
430 3.7858
435 5.07757
440 7.36388
445 12.4044
450 480.111
455 8394.29
460 9999.9
465 2662.34
470 319.025
475 45.4678
480 11.561
485 6.37128
490 4.69424
495 3.42915
500 2.8456
505 2.85275
510 2.72894
515 2.52822
520 2.24751
525 2.8119
530 3.44478
535 3.16362
540 2.82078
545 2.75211
550 2.30881
555 1.65997
560 1.39499
565 1.31692
570 1.1624
575 1.10353
580 0.99236
585 0.894134
590 0.811633
595 0.779449
600 0.254411
Ex : 468
200 0.455549
205 0.422936
210 0.484088
215 0.457029
220 0.484506
225 0.567107
230 0.641428
235 0.536203
240 0.486971
245 0.554081
250 0.470694
255 0.468392
260 0.549659
265 0.539888
270 0.505126
275 0.525773
280 0.5769
285 0.541825
290 0.509799
295 0.595351
300 0.58372
305 0.570586
310 0.757343
315 0.602912
320 0.643626
325 0.654254
330 0.715597
335 0.734906
340 0.7826
345 0.879779
350 0.810368
355 0.859604
360 0.846061
365 0.886878
370 0.990857
375 0.996274
380 1.0818
385 1.14118
390 1.17348
395 1.32083
400 1.52952
405 1.53616
410 1.74649
415 2.04971
420 2.09382
425 2.48883
430 2.93856
435 3.75603
440 5.04285
445 7.49136
450 12.2392
455 520.924
460 8493.68
465 9999.9
470 2728.56
475 324.523
480 45.7109
485 11.0843
490 6.16232
495 4.43819
500 3.4599
505 2.73303
510 2.63262
515 2.45629
520 2.33318
525 2.26485
530 2.63703
535 3.08806
540 3.17386
545 2.70308
550 2.63649
555 2.19004
560 1.65484
565 1.41215
570 1.17111
575 1.11007
580 0.984959
585 0.993721
590 0.895705
595 0.828586
600 0.526259
Ex : 473
200 0.445533
205 0.419663
210 0.464731
215 0.415581
220 0.497694
225 0.456089
230 0.656872
235 0.565518
240 0.476355
245 0.507884
250 0.447749
255 0.525995
260 0.56833
265 0.53729
270 0.567214
275 0.533223
280 0.519884
285 0.560383
290 0.576013
295 0.619302
300 0.575272
305 0.670581
310 0.651461
315 0.672562
320 0.635527
325 0.745005
330 0.761622
335 0.671635
340 0.854433
345 0.808109
350 0.913917
355 0.876008
360 0.765463
365 0.909897
370 0.93311
375 1.03724
380 1.10654
385 1.23196
390 1.19696
395 1.32151
400 1.40461
405 1.49591
410 1.67849
415 1.73462
420 1.86492
425 2.18047
430 2.5577
435 3.07641
440 3.81698
445 5.17067
450 7.90212
455 12.4821
460 540.581
465 9012.28
470 9999.9
475 2610.89
480 311.653
485 44.0149
490 10.9414
495 6.03269
500 4.3861
505 3.31316
510 2.83416
515 2.59656
520 2.54783
525 2.44328
530 2.24529
535 2.15644
540 2.75394
545 2.84309
550 2.47944
555 2.40338
560 2.3362
565 1.83769
570 1.48401
575 1.13802
580 1.04425
585 1.01397
590 0.865867
595 0.893307
600 0.861745
Ex : 478
200 0.600624
205 0.49066
210 0.554979
215 0.536037
220 0.53781
225 0.519316
230 0.62824
235 0.95998
240 0.608076
245 0.466438
250 0.492758
255 0.514049
260 0.544585
265 0.553159
270 0.590738
275 0.514924
280 0.584743
285 0.646215
290 0.602545
295 0.589744
300 0.691564
305 0.633222
310 0.672061
315 0.756693
320 0.725905
325 0.757789
330 0.765781
335 0.692721
340 0.895703
345 0.823947
350 0.909908
355 0.906173
360 0.891348
365 0.973132
370 0.986057
375 1.1327
380 1.15978
385 1.16604
390 1.25061
395 1.24189
400 1.31978
405 1.52256
410 1.6216
415 1.7939
420 1.9365
425 1.94888
430 2.62047
435 2.84101
440 3.28859
445 4.32588
450 5.99609
455 8.53225
460 14.7399
465 618.924
470 9566.13
475 9999.9
480 2674.57
485 319.725
490 45.6785
495 11.5398
500 6.26135
505 4.72671
510 3.63759
515 3.01966
520 2.60403
525 2.54822
530 2.31487
535 2.24956
540 2.27108
545 2.55513
550 2.92465
555 2.61282
560 2.45749
565 2.29196
570 1.96839
575 1.39384
580 1.22265
585 0.980384
590 1.02371
595 0.876135
600 0.77803
Ex : 483
200 0.467386
205 0.516457
210 0.503004
215 0.512771
220 0.512761
225 0.522715
230 0.534355
235 0.947144
240 0.743321
245 0.614565
250 0.547375
255 0.597362
260 0.561051
265 0.517071
270 0.598359
275 0.607563
280 0.585402
285 0.565048
290 0.646134
295 0.527048
300 0.589094
305 0.638697
310 0.608913
315 0.688783
320 0.691696
325 0.757066
330 0.735184
335 0.852735
340 0.792875
345 0.860829
350 0.765297
355 0.908562
360 0.927379
365 0.904629
370 1.0653
375 1.07076
380 1.16356
385 1.26557
390 1.28434
395 1.32126
400 1.3746
405 1.38815
410 1.53581
415 1.69986
420 1.87397
425 1.89185
430 2.0781
435 2.65522
440 2.87776
445 3.51697
450 4.68383
455 6.21139
460 9.39973
465 15.8575
470 505.767
475 9363.61
480 9999.9
485 2791.14
490 333.129
495 47.2715
500 11.6951
505 6.38546
510 4.78595
515 3.69337
520 3.10587
525 2.84124
530 2.65043
535 2.36536
540 2.20792
545 2.16107
550 2.15834
555 2.65206
560 2.58476
565 2.25906
570 2.14293
575 1.84224
580 1.35443
585 1.08896
590 1.02089
595 0.923019
600 1.26627
Ex : 488
200 0.553574
205 0.521901
210 0.488688
215 0.489653
220 0.500534
225 0.493734
230 0.511209
235 0.788655
240 1.07134
245 0.530639
250 0.493749
255 0.52189
260 0.589188
265 0.548037
270 0.676693
275 0.586468
280 0.602565
285 0.557932
290 0.548562
295 0.573416
300 0.61754
305 0.72253
310 0.653408
315 0.735601
320 0.728426
325 0.754535
330 0.733991
335 0.770724
340 0.789543
345 0.807309
350 0.858323
355 0.918582
360 1.03828
365 0.935457
370 1.04628
375 0.913807
380 1.00852
385 1.16911
390 1.27214
395 1.31252
400 1.32738
405 1.4742
410 1.65259
415 1.56981
420 1.6215
425 1.89255
430 2.2277
435 2.26126
440 2.64363
445 3.2021
450 3.6916
455 4.90257
460 6.72258
465 10.3384
470 15.9759
475 609.096
480 9999.9
485 9999.9
490 2695.84
495 322.305
500 46.0291
505 11.7145
510 6.32871
515 4.6803
520 3.70306
525 3.17628
530 2.94761
535 2.58733
540 2.49348
545 2.2908
550 2.02994
555 2.02029
560 2.38435
565 2.41967
570 2.20271
575 1.83092
580 1.72842
585 1.5002
590 1.25481
595 0.955152
600 0.647724
Ex : 493
200 0.56055
205 0.55815
210 0.516361
215 0.590232
220 0.590835
225 0.494024
230 0.576711
235 0.51633
240 1.16002
245 1.02453
250 0.624565
255 0.565376
260 0.602189
265 0.610157
270 0.532555
275 0.579082
280 0.587952
285 0.650328
290 0.595016
295 0.621523
300 0.684759
305 0.68981
310 0.593604
315 0.744039
320 0.703987
325 0.664553
330 0.779925
335 0.814644
340 0.874951
345 0.826547
350 0.830749
355 0.796388
360 0.98713
365 1.06344
370 1.02807
375 1.17745
380 1.0282
385 1.14509
390 1.20267
395 1.2475
400 1.38377
405 1.50889
410 1.52473
415 1.70548
420 1.80033
425 1.99511
430 2.02847
435 2.15891
440 2.24352
445 2.62487
450 3.11345
455 3.99596
460 4.98434
465 7.2353
470 10.0095
475 15.463
480 587.991
485 9999.9
490 9999.9
495 2758.16
500 329.04
505 46.5618
510 11.644
515 6.46752
520 4.84645
525 3.64683
530 3.07242
535 2.76719
540 2.58862
545 2.47306
550 2.31068
555 2.01781
560 2.01312
565 2.04798
570 2.27421
575 2.05219
580 1.62584
585 1.58407
590 1.3642
595 1.16577
600 1.55736
Ex : 498
200 0.557387
205 0.546206
210 0.558939
215 0.590117
220 0.532286
225 0.515493
230 0.567206
235 0.521562
240 0.901872
245 1.45474
250 0.708665
255 0.516604
260 0.562836
265 0.60399
270 0.57735
275 0.615377
280 0.613714
285 0.608554
290 0.563334
295 0.622502
300 0.684612
305 0.703717
310 0.690664
315 0.7344
320 0.682224
325 0.672881
330 0.827367
335 0.818108
340 0.808973
345 0.789278
350 0.887788
355 0.963971
360 0.908338
365 0.984774
370 1.05658
375 0.976672
380 1.16149
385 1.04914
390 1.11355
395 1.34032
400 1.38661
405 1.36469
410 1.43554
415 1.48887
420 1.64926
425 1.68511
430 1.94201
435 2.14696
440 2.20588
445 2.54081
450 2.94371
455 3.56236
460 4.39687
465 5.77145
470 7.55496
475 10.3046
480 16.3745
485 696.097
490 9999.9
495 9999.9
500 2695.25
505 322.389
510 46.2565
515 11.7667
520 6.61642
525 4.88811
530 3.7215
535 3.26179
540 2.73601
545 2.74897
550 2.39948
555 2.28421
560 2.00612
565 1.81935
570 1.76372
575 2.01428
580 1.91871
585 1.42412
590 1.32709
595 1.31819
600 1.09562
Ex : 503
200 0.563154
205 0.53216
210 0.520733
215 0.473664
220 0.506907
225 0.509251
230 0.585443
235 0.61203
240 0.549446
245 1.40371
250 1.03712
255 0.725289
260 0.60663
265 0.555693
270 0.718341
275 0.572094
280 0.571541
285 0.621986
290 0.656931
295 0.698578
300 0.621857
305 0.659256
310 0.658997
315 0.621301
320 0.745905
325 0.799181
330 0.81839
335 0.848899
340 0.719665
345 0.911257
350 0.873169
355 0.890123
360 0.946529
365 1.04019
370 1.07617
375 1.06319
380 1.08565
385 0.990546
390 1.19384
395 1.31145
400 1.37002
405 1.40018
410 1.34566
415 1.37294
420 1.5505
425 1.51744
430 1.78086
435 1.91723
440 2.11096
445 2.36601
450 2.54681
455 2.99186
460 3.66151
465 4.76528
470 5.75383
475 7.1952
480 10.1181
485 16.4267
490 649.518
495 9999.9
500 9999.9
505 2762.25
510 330.581
515 46.9647
520 12.1031
525 6.4119
530 4.64566
535 3.67984
540 3.34455
545 2.78411
550 2.55426
555 2.36634
560 2.17802
565 1.97569
570 1.93323
575 1.88804
580 1.79946
585 1.93429
590 1.64135
595 1.35458
600 1.4307
Ex : 508
200 0.529653
205 0.553852
210 0.541705
215 0.525494
220 0.518107
225 0.468595
230 0.540538
235 0.582834
240 0.634557
245 1.06507
250 1.68769
255 0.729002
260 0.71416
265 0.607525
270 0.719136
275 0.635308
280 0.624695
285 0.581883
290 0.584452
295 0.656295
300 0.648089
305 0.705884
310 0.790149
315 0.725143
320 0.740022
325 0.761266
330 0.729951
335 0.792403
340 0.761674
345 0.77745
350 0.843203
355 1.08815
360 0.895108
365 0.94306
370 0.997091
375 1.02072
380 1.09892
385 1.04371
390 1.04028
395 1.21104
400 1.19632
405 1.44473
410 1.40427
415 1.60753
420 1.66233
425 1.74924
430 1.77167
435 1.69186
440 1.9536
445 2.09455
450 2.43079
455 2.74411
460 3.32218
465 3.74725
470 4.44836
475 5.287
480 7.15846
485 10.3347
490 17.214
495 697.026
500 9999.9
505 9999.9
510 2939.44
515 351.166
520 49.2513
525 12.1301
530 6.52214
535 4.81404
540 3.57118
545 3.14301
550 2.76011
555 2.57846
560 2.41455
565 2.24972
570 2.13481
575 1.85523
580 1.7023
585 1.47191
590 1.73133
595 1.55915
600 0.91841
Ex : 513
200 0.495012
205 0.442333
210 0.442213
215 0.485208
220 0.552013
225 0.525277
230 0.614529
235 0.560195
240 0.703533
245 0.62905
250 2.6033
255 2.16963
260 0.735753
265 0.596068
270 0.55097
275 0.715074
280 0.66368
285 0.64765
290 0.621625
295 0.645295
300 0.746669
305 0.724653
310 0.671573
315 0.708419
320 0.715286
325 0.798033
330 0.909329
335 0.778241
340 0.775533
345 0.808496
350 0.874156
355 0.861315
360 0.917542
365 0.948668
370 0.993972
375 0.986514
380 1.0869
385 1.19109
390 1.09864
395 1.26841
400 1.27553
405 1.39971
410 1.34778
415 1.4986
420 1.43819
425 1.59284
430 1.70902
435 1.86925
440 1.96677
445 2.07028
450 2.25333
455 2.66049
460 2.86223
465 3.30115
470 3.48333
475 4.25109
480 5.62372
485 7.33114
490 10.4893
495 16.5674
500 646.886
505 9999.9
510 9999.9
515 3040.91
520 362.741
525 50.7989
530 12.5922
535 6.59042
540 4.49387
545 3.63266
550 3.04236
555 2.941
560 2.65147
565 2.49581
570 2.19536
575 1.9138
580 1.62438
585 1.65953
590 1.58114
595 1.53751
600 1.75998
Ex : 518
200 0.619144
205 0.549457
210 0.561304
215 0.650193
220 0.590718
225 0.587655
230 0.483853
235 0.537875
240 0.652203
245 0.555477
250 2.05698
255 5.40874
260 1.69346
265 0.813398
270 0.606045
275 0.601706
280 0.684848
285 0.699219
290 0.834408
295 0.741975
300 0.750143
305 0.727623
310 0.716202
315 0.693162
320 0.675265
325 0.879899
330 0.837353
335 0.935062
340 0.878561
345 0.909594
350 0.876966
355 0.938527
360 0.855452
365 0.986625
370 1.02376
375 1.01175
380 1.04024
385 0.860745
390 1.1406
395 1.1961
400 1.30637
405 1.24943
410 1.41442
415 1.50987
420 1.53152
425 1.40506
430 1.69598
435 1.66761
440 1.95426
445 2.11584
450 2.06561
455 2.35866
460 2.60548
465 3.04748
470 3.37827
475 3.67065
480 4.39596
485 5.56451
490 7.49421
495 10.3931
500 16.0867
505 634.608
510 9999.9
515 9999.9
520 3004.92
525 358.542
530 50.3587
535 12.295
540 6.64291
545 4.87205
550 3.87382
555 3.17688
560 3.06731
565 2.6572
570 2.34813
575 2.18366
580 1.93588
585 1.82112
590 1.54318
595 1.42051
600 0.904143
Ex : 523
200 0.619915
205 0.703063
210 0.559622
215 0.56541
220 0.494869
225 0.559955
230 0.514716
235 0.628318
240 0.561263
245 0.599584
250 0.930305
255 6.38175
260 4.81531
265 1.13072
270 0.781307
275 0.655223
280 0.680886
285 0.707636
290 0.653929
295 0.689901
300 0.733619
305 0.722032
310 0.733441
315 0.773954
320 0.822145
325 0.815597
330 0.819153
335 0.897096
340 0.747368
345 0.858589
350 0.891932
355 0.876203
360 1.008
365 0.833285
370 0.894749
375 1.03971
380 0.930942
385 1.01475
390 1.00327
395 1.18341
400 1.33505
405 1.21433
410 1.30687
415 1.40177
420 1.40931
425 1.5602
430 1.4998
435 1.49788
440 1.6956
445 1.8616
450 2.03488
455 2.06991
460 2.40114
465 2.71438
470 3.32508
475 3.10755
480 3.5912
485 4.17894
490 5.51972
495 7.49769
500 9.9005
505 15.9448
510 585.749
515 9999.9
520 9999.9
525 3159.2
530 376.528
535 52.5939
540 12.5419
545 6.63214
550 4.7519
555 3.53822
560 3.12019
565 2.80051
570 2.71306
575 2.41135
580 2.14219
585 1.96369
590 1.7189
595 1.54736
600 2.10451
Ex : 528
200 0.617281
205 0.582777
210 0.550302
215 0.490043
220 0.533702
225 0.57606
230 0.710084
235 0.622402
240 0.568555
245 0.676335
250 0.635622
255 3.53488
260 10.1796
265 2.50956
270 1.02037
275 0.641942
280 0.720229
285 0.669759
290 0.82527
295 0.731695
300 0.77642
305 0.811511
310 0.732412
315 0.811473
320 0.828283
325 0.830129
330 0.812713
335 0.843716
340 0.901088
345 0.829135
350 0.891388
355 0.874416
360 0.900909
365 0.927168
370 1.0993
375 0.894629
380 0.945015
385 0.979906
390 1.08669
395 1.08155
400 1.08884
405 0.998714
410 1.18469
415 1.42105
420 1.33169
425 1.34317
430 1.48376
435 1.60227
440 1.65937
445 1.76608
450 2.11077
455 2.02558
460 2.35595
465 2.46921
470 2.85608
475 2.85438
480 3.17727
485 3.68076
490 4.40136
495 5.46179
500 7.08378
505 10.0453
510 15.6517
515 562.732
520 9925.09
525 9999.9
530 3038.32
535 362.614
540 50.8951
545 12.4481
550 6.24946
555 4.77754
560 3.44584
565 3.12409
570 2.94535
575 2.57639
580 2.36935
585 2.13056
590 1.93802
595 1.68537
600 1.32202
Ex : 533
200 0.703797
205 0.566014
210 0.450438
215 0.451427
220 0.595805
225 0.560338
230 0.517315
235 0.650133
240 0.667078
245 0.555526
250 0.60358
255 1.11454
260 10.9854
265 8.8461
270 1.69357
275 0.786488
280 0.723477
285 0.616856
290 0.955971
295 0.708663
300 0.842343
305 0.794622
310 0.780919
315 0.876925
320 0.866894
325 0.939906
330 0.938937
335 0.962382
340 0.915749
345 0.829968
350 0.83048
355 0.895413
360 0.834282
365 1.12623
370 1.03675
375 1.07578
380 0.924858
385 1.06292
390 1.0326
395 1.09124
400 1.03517
405 1.04873
410 1.27492
415 1.33896
420 1.48559
425 1.29607
430 1.49353
435 1.69465
440 1.56067
445 1.75242
450 1.8529
455 2.00963
460 2.14594
465 2.34915
470 2.57559
475 2.63578
480 2.77302
485 3.17975
490 3.77656
495 4.56911
500 5.41206
505 7.24606
510 9.978
515 15.2644
520 566.121
525 9801.96
530 9999.9
535 3073.02
540 366.322
545 51.278
550 12.3931
555 6.36381
560 4.71621
565 3.5436
570 2.97164
575 2.94005
580 2.72469
585 2.32557
590 2.09966
595 1.87789
600 1.70109
Ex : 538
200 0.703162
205 0.710551
210 0.526616
215 0.559927
220 0.623507
225 0.596424
230 0.5952
235 0.549677
240 0.589666
245 0.604631
250 0.636659
255 0.701863
260 5.89565
265 19.0046
270 5.03975
275 1.18879
280 0.688713
285 0.794341
290 0.844838
295 0.84289
300 0.864028
305 0.823318
310 0.647332
315 0.821184
320 0.764097
325 0.876442
330 0.877628
335 0.843738
340 0.874544
345 0.966111
350 0.879123
355 0.912995
360 0.868285
365 1.0467
370 0.984124
375 1.07697
380 1.03537
385 1.06889
390 1.10218
395 1.08955
400 1.14465
405 1.19666
410 1.22674
415 1.16544
420 1.18614
425 1.25004
430 1.43446
435 1.51948
440 1.78425
445 1.48834
450 1.69253
455 1.92235
460 2.07719
465 2.42057
470 2.21309
475 2.44937
480 2.58141
485 2.87208
490 3.17985
495 3.52847
500 4.56913
505 5.24796
510 7.2843
515 9.74314
520 14.782
525 481.944
530 9382
535 9999.9
540 3272.55
545 390.342
550 53.9273
555 12.2495
560 6.05763
565 4.67769
570 3.53448
575 2.96901
580 2.75274
585 2.55496
590 2.1832
595 1.99309
600 1.83767
Ex : 543
200 0.594075
205 0.588933
210 0.772817
215 0.50391
220 0.532531
225 0.523512
230 0.611879
235 0.66727
240 0.587883
245 0.647832
250 0.502798
255 0.64543
260 1.37021
265 18.9705
270 16.7592
275 2.79878
280 1.08954
285 0.77906
290 0.877782
295 0.943584
300 0.869868
305 0.754904
310 0.798644
315 0.764704
320 0.78892
325 0.785691
330 0.788959
335 0.797989
340 0.904494
345 0.881465
350 0.91072
355 0.92425
360 0.968701
365 0.829583
370 0.960502
375 0.99448
380 0.964576
385 1.066
390 1.12512
395 1.02458
400 0.971663
405 1.23755
410 1.21311
415 1.19557
420 1.13425
425 1.32831
430 1.32064
435 1.48461
440 1.71314
445 1.68016
450 1.86619
455 1.79712
460 2.04952
465 2.1987
470 2.14282
475 2.34004
480 2.34773
485 2.72643
490 2.84305
495 2.98738
500 3.57082
505 4.39512
510 5.20743
515 6.57631
520 9.80011
525 14.9292
530 447.268
535 9017.18
540 9999.9
545 3377.29
550 403.744
555 55.2188
560 12.8521
565 6.45824
570 4.40648
575 3.02035
580 2.7432
585 2.62389
590 2.43348
595 2.54449
600 2.89068
Ex : 548
200 0.599947
205 0.576603
210 0.653799
215 0.618484
220 0.609636
225 0.630558
230 0.546618
235 0.570512
240 0.585935
245 0.597465
250 0.649972
255 0.679749
260 0.808062
265 9.33155
270 30.7688
275 7.71145
280 1.5828
285 0.889622
290 0.779862
295 0.973781
300 0.836697
305 0.834185
310 0.830813
315 0.777965
320 0.742307
325 0.997044
330 0.839404
335 0.854551
340 0.93143
345 0.932516
350 0.922317
355 0.86394
360 1.09363
365 0.956551
370 1.00974
375 1.03541
380 0.95181
385 0.886606
390 1.00824
395 1.11148
400 0.993614
405 1.10701
410 1.06159
415 1.12993
420 1.08735
425 1.34793
430 1.43214
435 1.61381
440 1.44838
445 1.67881
450 1.54251
455 1.69457
460 2.17163
465 2.22395
470 2.17289
475 2.26901
480 2.35566
485 2.59414
490 2.80411
495 2.74256
500 3.19674
505 3.59136
510 4.67298
515 5.49465
520 7.11845
525 9.62605
530 14.6545
535 487.814
540 9188.3
545 9999.9
550 3302.8
555 393.664
560 53.7035
565 12.6673
570 6.132
575 4.08935
580 3.00982
585 2.39989
590 2.47762
595 2.21395
600 2.0195
Ex : 553
200 0.579233
205 0.645867
210 0.564598
215 0.558908
220 0.665535
225 0.669899
230 0.642553
235 0.605447
240 0.616298
245 0.679027
250 0.701238
255 0.632354
260 0.695422
265 1.59411
270 29.7798
275 24.8
280 3.65464
285 1.04046
290 0.827679
295 0.943069
300 1.02507
305 0.806934
310 0.88375
315 0.9875
320 0.835464
325 0.920134
330 0.946754
335 0.863505
340 0.835063
345 0.911255
350 0.874294
355 0.914746
360 0.87213
365 0.892588
370 0.860104
375 0.908082
380 0.98011
385 0.845975
390 1.12131
395 1.25116
400 1.0258
405 0.997107
410 1.15255
415 1.26321
420 1.14986
425 1.11318
430 1.40969
435 1.54304
440 1.32869
445 1.60771
450 1.59007
455 1.76332
460 1.6763
465 2.04394
470 2.23582
475 2.04264
480 2.21677
485 2.3371
490 2.30722
495 2.50376
500 2.51498
505 2.89021
510 3.53419
515 4.01335
520 5.35942
525 6.94174
530 9.11796
535 15.0548
540 434.54
545 8702.2
550 9999.9
555 3350.42
560 400.255
565 54.8052
570 11.9938
575 5.77799
580 4.0814
585 2.8734
590 2.50601
595 2.27475
600 1.94165
Ex : 558
200 0.685363
205 0.586592
210 0.659224
215 0.735509
220 0.630107
225 0.779244
230 0.675559
235 0.54877
240 0.634156
245 0.692282
250 0.717444
255 0.693223
260 0.849187
265 0.740507
270 12.4642
275 45.7835
280 11.2365
285 1.92264
290 0.795636
295 0.790893
300 0.89079
305 1.03822
310 1.01098
315 0.851267
320 0.92074
325 0.838083
330 1.02399
335 1.00748
340 0.989611
345 0.936865
350 1.02953
355 0.969667
360 0.993791
365 0.869197
370 0.842663
375 0.861494
380 0.936629
385 0.91164
390 0.948976
395 1.15146
400 0.970954
405 1.05704
410 1.12365
415 1.22775
420 1.13293
425 0.96183
430 1.21098
435 1.28445
440 1.37113
445 1.43279
450 1.5531
455 1.59717
460 1.862
465 2.31785
470 2.1134
475 2.09763
480 2.24233
485 2.13874
490 2.37954
495 2.41542
500 2.51422
505 2.70463
510 3.01886
515 3.28368
520 3.96162
525 5.21638
530 6.7906
535 9.38441
540 14.0353
545 408.758
550 8332.27
555 9999.9
560 3395.03
565 405.996
570 54.8468
575 11.8104
580 5.64717
585 3.8841
590 2.4664
595 2.4439
600 2.14956
Ex : 563
200 0.513213
205 0.668642
210 0.664995
215 0.677448
220 0.647218
225 0.591293
230 0.655308
235 0.632321
240 0.63543
245 0.505879
250 0.521399
255 0.697685
260 0.642302
265 0.601029
270 2.1347
275 40.7853
280 33.7893
285 5.01548
290 1.30299
295 0.833644
300 0.879748
305 0.918855
310 0.99937
315 0.846404
320 0.952973
325 0.869083
330 0.999282
335 1.00524
340 1.07313
345 0.91789
350 0.922119
355 1.05324
360 0.932155
365 0.800486
370 1.00284
375 0.791178
380 0.939047
385 1.11903
390 1.08572
395 1.07366
400 1.06008
405 1.08903
410 1.07348
415 1.1272
420 1.15976
425 1.0174
430 1.19651
435 1.3191
440 1.48868
445 1.58368
450 1.54477
455 1.67998
460 1.58062
465 1.81039
470 2.02973
475 1.75773
480 1.9056
485 2.1761
490 2.28443
495 2.17933
500 2.1955
505 2.51285
510 2.75494
515 2.91736
520 3.4578
525 3.86285
530 5.24297
535 6.38573
540 8.72756
545 13.8235
550 404.184
555 8093.91
560 9999.9
565 3412.98
570 407.248
575 54.3405
580 11.4594
585 5.08396
590 3.28595
595 2.48924
600 2.47975
Ex : 568
200 0.674314
205 0.659654
210 0.57956
215 0.705607
220 0.727118
225 0.63637
230 0.578049
235 0.59673
240 0.644419
245 0.686363
250 0.58786
255 0.637334
260 0.689207
265 0.655371
270 0.692607
275 15.038
280 57.7102
285 15.7891
290 2.67162
295 1.00042
300 0.909155
305 0.966647
310 0.886316
315 0.932474
320 0.872363
325 0.908913
330 0.834832
335 0.944162
340 1.02833
345 1.06923
350 0.942978
355 0.867844
360 0.982152
365 0.940208
370 1.00697
375 0.850238
380 0.953055
385 1.0712
390 1.01252
395 0.952815
400 0.991694
405 1.20295
410 0.928502
415 1.1072
420 1.06124
425 1.20101
430 1.30738
435 1.24602
440 1.46147
445 1.33723
450 1.43505
455 1.46195
460 1.66193
465 1.64497
470 1.81781
475 1.8592
480 1.77302
485 1.92199
490 2.08054
495 2.29794
500 2.14615
505 2.30144
510 2.28456
515 2.93935
520 2.81712
525 3.22481
530 3.71057
535 4.6885
540 6.44329
545 8.71958
550 12.8763
555 304.815
560 7386.66
565 9999.9
570 3489.66
575 417.295
580 54.7733
585 10.8275
590 4.598
595 3.35176
600 4.13246
Ex : 573
200 0.525116
205 0.640864
210 0.635026
215 0.5816
220 0.614245
225 0.578313
230 0.557245
235 0.674022
240 0.638175
245 0.510537
250 0.689937
255 0.743991
260 0.699998
265 0.677543
270 0.651022
275 1.93781
280 47.4834
285 45.319
290 6.61551
295 1.47999
300 0.835685
305 0.753516
310 0.907429
315 1.0478
320 0.929833
325 0.908554
330 0.899059
335 0.862765
340 0.932082
345 0.935684
350 0.874888
355 1.03701
360 1.06604
365 0.892352
370 0.91181
375 0.999066
380 0.915382
385 0.995774
390 1.03107
395 0.869475
400 1.01815
405 0.944882
410 1.00449
415 0.913577
420 1.13391
425 1.0994
430 1.12599
435 1.07876
440 1.17834
445 1.38995
450 1.27184
455 1.41212
460 1.67686
465 1.77104
470 1.62817
475 1.76691
480 1.87013
485 1.84801
490 1.96714
495 1.967
500 1.8328
505 1.95505
510 2.45859
515 2.31803
520 2.59093
525 2.91726
530 3.07695
535 3.88846
540 4.83298
545 6.4603
550 8.13288
555 12.7626
560 258.958
565 6351.93
570 9999.9
575 3425.41
580 409.471
585 53.4869
590 10.432
595 4.36304
600 3.54246
Ex : 578
200 0.695262
205 0.582935
210 0.609695
215 0.607888
220 0.573255
225 0.579483
230 0.587509
235 0.413881
240 0.603422
245 0.636626
250 0.585518
255 0.565137
260 0.63171
265 0.602809
270 0.656076
275 0.810745
280 17.9777
285 72.4412
290 20.2698
295 3.14743
300 0.967296
305 0.776761
310 0.726316
315 0.837918
320 1.00644
325 0.886605
330 0.762686
335 0.810708
340 0.930495
345 0.813652
350 0.900431
355 0.80186
360 0.815973
365 0.843634
370 0.940326
375 1.02996
380 0.885802
385 0.910758
390 0.779124
395 1.02502
400 0.916145
405 0.929547
410 0.836416
415 1.10467
420 1.1132
425 1.14895
430 1.09341
435 0.975817
440 1.09184
445 1.29564
450 1.29147
455 1.40179
460 1.41465
465 1.4023
470 1.33909
475 1.61037
480 1.60812
485 1.72139
490 1.86187
495 1.8751
500 2.02238
505 2.06938
510 2.13045
515 2.15142
520 2.18219
525 2.50353
530 2.64743
535 3.18553
540 3.82188
545 5.0183
550 5.90813
555 7.97313
560 12.0961
565 229.834
570 5852.16
575 9999.9
580 3096.09
585 368.408
590 47.8241
595 9.10823
600 4.55156
Ex : 583
200 0.738318
205 0.659488
210 0.481168
215 0.616042
220 0.749526
225 0.586359
230 0.600291
235 0.627059
240 0.673952
245 0.588659
250 0.564451
255 0.593053
260 0.616684
265 0.70657
270 0.618204
275 0.680251
280 2.51954
285 56.4877
290 54.6075
295 7.86063
300 1.71336
305 0.805816
310 0.871338
315 0.934993
320 0.896892
325 0.876955
330 0.782561
335 0.834773
340 0.768211
345 0.760429
350 0.752218
355 0.868413
360 0.747307
365 0.878475
370 0.671606
375 0.819226
380 0.988732
385 0.817948
390 0.867207
395 0.893886
400 0.844955
405 0.845915
410 1.01
415 1.10886
420 0.981267
425 0.976329
430 0.931074
435 1.1835
440 1.10466
445 1.10316
450 1.09281
455 1.25711
460 1.46679
465 1.4439
470 1.44009
475 1.28195
480 1.58939
485 1.71881
490 1.68101
495 1.65583
500 1.6105
505 1.85157
510 2.09229
515 1.80359
520 1.92188
525 2.22782
530 2.59242
535 2.60835
540 2.8485
545 3.583
550 4.4734
555 5.84332
560 7.85699
565 10.9839
570 205.887
575 5326.43
580 9778.92
585 2754.14
590 327.572
595 42.9274
600 9.79527
Ex : 588
200 0.624054
205 0.550914
210 0.631866
215 0.649883
220 0.474613
225 0.593758
230 0.507377
235 0.492998
240 0.574825
245 0.515529
250 0.584906
255 0.494457
260 0.527793
265 0.583013
270 0.658997
275 0.57153
280 0.563757
285 19.0539
290 84.0153
295 24.3567
300 3.4081
305 1.10412
310 0.772517
315 0.855983
320 1.06989
325 0.779803
330 0.771182
335 0.606871
340 0.829672
345 0.755842
350 0.732472
355 0.80011
360 0.759983
365 0.86822
370 0.799473
375 1.03287
380 0.75617
385 0.818945
390 0.886621
395 0.822061
400 1.02625
405 0.901447
410 0.804076
415 0.805045
420 0.820285
425 0.924944
430 1.00908
435 0.93781
440 1.15151
445 1.13679
450 1.15786
455 1.17526
460 1.1727
465 1.44971
470 1.39653
475 1.25294
480 1.39963
485 1.36805
490 1.54167
495 1.53134
500 1.69935
505 1.56223
510 1.62052
515 1.77995
520 1.81127
525 2.23056
530 2.25405
535 2.07711
540 2.51995
545 2.91671
550 3.43408
555 4.15592
560 5.55249
565 6.86313
570 10.7379
575 181.678
580 4478.67
585 8510.54
590 2454.5
595 292.197
600 39.9987
Ex : 593
200 0.647548
205 0.375399
210 0.564915
215 0.478872
220 0.568846
225 0.470674
230 0.389814
235 0.660708
240 0.496314
245 0.413824
250 0.543036
255 0.531723
260 0.463255
265 0.503939
270 0.535187
275 0.703444
280 0.798715
285 2.18988
290 64.5537
295 63.6163
300 9.54242
305 1.86564
310 0.818109
315 0.694248
320 0.961999
325 0.944789
330 0.73082
335 0.737444
340 0.814265
345 0.845556
350 0.853566
355 0.832579
360 0.716715
365 0.86265
370 0.814576
375 0.864842
380 0.69368
385 0.931679
390 0.844793
395 0.777037
400 0.889478
405 0.926583
410 0.86279
415 1.00076
420 0.705703
425 0.801497
430 1.00625
435 0.930714
440 0.851389
445 1.03821
450 1.26981
455 1.05737
460 1.22518
465 1.18322
470 1.37504
475 1.34273
480 1.48339
485 1.48613
490 1.32823
495 1.53561
500 1.72266
505 1.35412
510 1.53224
515 1.60701
520 1.70444
525 1.64858
530 1.83441
535 2.09903
540 2.36181
545 2.27855
550 2.43948
555 3.47979
560 3.93002
565 4.99952
570 6.70308
575 9.71104
580 162.666
585 4106.17
590 7574.43
595 2214.89
600 308.859
Ex : 598
200 0.610421
205 0.43458
210 0.466342
215 0.495161
220 0.606649
225 0.60338
230 0.525673
235 0.460673
240 0.419343
245 0.505283
250 0.579461
255 0.57789
260 0.486145
265 0.500283
270 0.603737
275 0.560422
280 0.681293
285 0.638074
290 21.8978
295 99.1731
300 30.2304
305 4.20708
310 1.13509
315 0.907002
320 0.689669
325 0.899751
330 1.04578
335 0.863129
340 0.726125
345 0.762183
350 0.716675
355 0.684617
360 0.728181
365 0.617619
370 0.762477
375 0.794717
380 0.904712
385 0.891286
390 0.776164
395 0.837643
400 0.827336
405 0.799125
410 0.931376
415 0.799238
420 0.772385
425 0.72218
430 0.916465
435 0.786128
440 1.10031
445 0.962844
450 1.16371
455 1.11852
460 1.05951
465 1.02547
470 1.10796
475 1.26993
480 1.38907
485 1.32685
490 1.58293
495 1.25451
500 1.33889
505 1.52051
510 1.59255
515 1.53926
520 1.74581
525 1.81086
530 1.72651
535 1.69503
540 1.92943
545 2.0335
550 2.34668
555 2.74213
560 3.30066
565 3.78325
570 4.35903
575 5.55482
580 8.63746
585 156.677
590 3663.9
595 6564.47
600 4037.93
Ex : 603
200 0.441287
205 0.450158
210 0.546023
215 0.545487
220 0.547406
225 0.457755
230 0.705214
235 0.516143
240 0.533619
245 0.402563
250 0.514252
255 0.722513
260 0.606254
265 0.549178
270 0.523828
275 0.485544
280 0.518849
285 0.555092
290 2.36677
295 73.7248
300 80.6007
305 11.3027
310 1.98185
315 0.904194
320 0.766143
325 0.950354
330 0.822987
335 0.915662
340 0.726427
345 0.677507
350 0.756831
355 0.581532
360 0.707806
365 0.841383
370 0.714618
375 0.747248
380 0.825613
385 0.861971
390 0.715918
395 0.729906
400 0.733166
405 0.690753
410 0.82363
415 0.826789
420 0.804177
425 0.90158
430 0.993584
435 0.868987
440 0.952126
445 0.850962
450 0.914047
455 1.04012
460 1.11849
465 1.22108
470 1.16904
475 1.24242
480 1.41884
485 1.24467
490 1.23667
495 1.31815
500 1.29948
505 1.25668
510 1.48677
515 1.50691
520 1.49761
525 1.43354
530 1.59634
535 1.65364
540 1.80105
545 2.07889
550 1.99026
555 2.14162
560 2.76157
565 3.26559
570 3.25902
575 4.2125
580 5.47011
585 7.01873
590 136.894
595 3135.32
600 6435.35
