File format V 1.0
jeu. 12. mai 14:29:14 2016
Operator : 
Comments : 

=============================================
SpectroFluorometer parameters
Mode : 3D measurement
Data : Fluorescence
Phospho. : Ordinary
Spectrum : Fluorescence

Scan speed : 2400 nm/mn
Response : 100 ms
PM Voltage : 700 V
Shutter : On

Lambda Ex. Start : 203
Lambda Ex. End : 603
Lambda Ex. Step : 5
Ex. Slit : 5 nm

Lambda Em. Start : 200
Lambda Em. End : 600
Lambda Em. Step : 5
Em. Slit : 5 nm

Repetition : 1
Decal lambda em : 10
=============================================
DATA
Ex : 203
200 8.23809
205 8.41196
210 7.79874
215 9.04253
220 7.97425
225 11.0651
230 9.04474
235 5.75568
240 8.79194
245 8.33629
250 6.8349
255 8.55668
260 7.60033
265 8.03048
270 7.85067
275 13.5956
280 9.16751
285 7.37794
290 8.30759
295 5.27687
300 8.73512
305 11.206
310 7.38253
315 9.06694
320 8.65213
325 7.5273
330 8.54426
335 7.36838
340 7.32177
345 11.1492
350 8.17902
355 7.04808
360 5.52021
365 6.0646
370 6.68983
375 7.87164
380 11.9599
385 9.22369
390 10.8233
395 11.6199
400 6.27675
405 8.54152
410 7.55749
415 7.47837
420 8.14724
425 8.7854
430 11.2471
435 9.76718
440 5.37896
445 8.95398
450 10.4857
455 12.7477
460 11.6346
465 8.79124
470 8.97094
475 8.93224
480 12.0307
485 10.5707
490 8.09089
495 6.16685
500 11.4221
505 7.55678
510 8.23335
515 10.6852
520 11.2527
525 6.53994
530 8.0191
535 7.48003
540 6.79936
545 12.1314
550 10.2756
555 8.84131
560 9.64431
565 7.17074
570 7.5413
575 8.67379
580 7.02098
585 6.94868
590 9.72094
595 9.38899
600 1.06843
Ex : 208
200 5.63587
205 10.9531
210 11.005
215 9.98849
220 8.23665
225 9.23963
230 11.2479
235 5.92523
240 7.47025
245 6.44149
250 7.68779
255 11.2308
260 6.94267
265 8.97198
270 11.268
275 7.42239
280 7.0426
285 8.3259
290 9.58678
295 11.6096
300 7.42433
305 6.81974
310 7.25543
315 6.77873
320 8.80423
325 7.59107
330 6.48306
335 11.8101
340 7.05844
345 13.2705
350 7.67305
355 11.6302
360 11.7719
365 8.82255
370 8.35141
375 9.07555
380 8.39318
385 9.889
390 11.4934
395 7.54698
400 5.92284
405 9.06747
410 7.02498
415 6.91626
420 8.80646
425 7.1915
430 9.27099
435 7.69338
440 8.43283
445 10.0932
450 9.04844
455 11.7585
460 7.66963
465 8.50656
470 9.61094
475 11.7904
480 10.4075
485 8.69069
490 10.561
495 9.77353
500 9.18479
505 9.03104
510 11.6202
515 8.15
520 10.84
525 9.38443
530 9.96257
535 7.0888
540 6.82296
545 6.51882
550 11.7939
555 7.40033
560 8.44456
565 10.2823
570 9.69681
575 8.25152
580 11.3441
585 8.41238
590 13.4384
595 10.3703
600 8.93438
Ex : 213
200 12.7967
205 8.66533
210 4.90997
215 8.77057
220 7.68813
225 7.41413
230 7.96407
235 10.8918
240 5.50524
245 9.63863
250 8.84852
255 7.18114
260 8.28022
265 9.62127
270 10.3973
275 7.58779
280 9.97533
285 7.80406
290 11.0569
295 6.41934
300 8.33246
305 6.43323
310 8.20228
315 13.3604
320 8.34612
325 6.83415
330 15.0956
335 10.4077
340 11.6368
345 10.7672
350 8.47129
355 7.78777
360 7.35124
365 8.24843
370 6.84017
375 7.67275
380 7.47415
385 7.96954
390 5.87059
395 9.61473
400 5.55717
405 7.41486
410 11.2198
415 7.8474
420 7.02634
425 10.4191
430 10.5555
435 13.1023
440 8.20645
445 6.80382
450 11.8246
455 9.53816
460 9.8877
465 11.1723
470 10.3973
475 11.738
480 13.8217
485 9.13687
490 6.01612
495 5.87593
500 5.59519
505 6.74
510 7.2416
515 10.2802
520 6.81998
525 9.07507
530 6.95889
535 9.08621
540 14.8588
545 10.1895
550 9.90534
555 9.10818
560 11.6862
565 10.8834
570 10.4796
575 10.5617
580 7.80241
585 7.25153
590 10.0327
595 7.24286
600 19.7299
Ex : 218
200 6.15084
205 10.3739
210 10.3006
215 10.234
220 9.86908
225 8.98176
230 9.37106
235 8.34259
240 10.4422
245 10.1557
250 10.3694
255 6.51691
260 7.05402
265 8.48471
270 14.3614
275 8.54006
280 9.61486
285 7.01418
290 7.16142
295 9.00634
300 9.32696
305 9.87128
310 11.4719
315 9.30449
320 9.23559
325 7.36814
330 9.64448
335 8.11211
340 9.85333
345 7.29715
350 9.21408
355 7.46995
360 10.7831
365 10.8456
370 9.47442
375 6.24685
380 7.00451
385 7.55867
390 10.7708
395 6.76196
400 7.40875
405 7.82698
410 12.8091
415 9.06578
420 12.6931
425 9.00574
430 10.4382
435 7.85362
440 6.46077
445 8.49664
450 9.09202
455 8.65177
460 10.3019
465 9.26463
470 6.08435
475 6.83924
480 6.22346
485 10.9271
490 9.81188
495 9.74227
500 7.6852
505 9.81241
510 8.00613
515 7.79081
520 7.55861
525 12.2661
530 8.21468
535 8.91532
540 8.43179
545 7.74713
550 6.89512
555 9.31122
560 8.97146
565 10.6919
570 9.59052
575 7.2899
580 6.72584
585 8.3209
590 7.8002
595 6.39269
600 6.93089
Ex : 223
200 7.1383
205 11.8596
210 10.7929
215 7.55225
220 8.21934
225 7.02455
230 6.73201
235 9.21801
240 6.31052
245 8.31812
250 9.14747
255 9.05429
260 9.41311
265 7.83094
270 8.22818
275 5.80335
280 8.46284
285 10.3195
290 7.5586
295 9.3773
300 9.41105
305 10.1102
310 7.87359
315 7.30211
320 8.59968
325 9.72379
330 11.0712
335 8.48475
340 8.39565
345 7.67263
350 9.09326
355 7.88968
360 8.66914
365 7.80938
370 11.9246
375 8.98299
380 8.37533
385 8.87353
390 9.17584
395 11.6831
400 8.30001
405 9.02998
410 10.4758
415 7.61023
420 8.75768
425 8.15336
430 8.67982
435 5.71079
440 7.35148
445 8.78871
450 8.22104
455 9.13962
460 7.17566
465 10.3894
470 8.23724
475 8.64018
480 10.211
485 6.94296
490 9.03178
495 9.42958
500 9.04888
505 10.6026
510 7.17083
515 7.50282
520 7.67895
525 7.23235
530 8.63991
535 14.0182
540 8.36834
545 10.2848
550 12.5448
555 7.47933
560 12.2598
565 11.5753
570 9.83145
575 11.4693
580 10.2447
585 10.3005
590 10.249
595 11.0083
600 1.25271
Ex : 228
200 13.3333
205 8.76158
210 9.93432
215 8.60986
220 6.83395
225 7.0496
230 8.23304
235 6.71705
240 8.78542
245 6.65205
250 9.32073
255 6.94345
260 8.78846
265 9.77591
270 6.32061
275 5.75451
280 8.963
285 11.0151
290 9.34955
295 10.4552
300 7.4375
305 8.74533
310 7.12978
315 9.90771
320 12.718
325 11.6207
330 10.4925
335 9.47528
340 10.6624
345 10.4823
350 10.0875
355 11.8529
360 8.92676
365 9.40611
370 7.84852
375 11.264
380 9.50577
385 8.26679
390 9.7222
395 6.8087
400 8.21027
405 8.05785
410 7.27569
415 8.4493
420 7.18665
425 6.33293
430 9.30307
435 9.00905
440 8.73649
445 9.2041
450 11.8494
455 16.6108
460 12.077
465 10.7048
470 7.64103
475 7.6902
480 10.4426
485 11.4997
490 8.14566
495 10.8618
500 9.44396
505 10.8185
510 12.3444
515 13.2619
520 10.1496
525 9.55672
530 7.93025
535 8.01813
540 6.14952
545 10.5536
550 7.3342
555 9.49213
560 6.60328
565 9.94186
570 8.75092
575 8.62633
580 12.5848
585 9.45225
590 8.92155
595 7.85946
600 6.2116
Ex : 233
200 7.02564
205 7.48227
210 6.65241
215 6.7399
220 9.85459
225 10.7378
230 11.2534
235 8.8403
240 8.97405
245 5.28856
250 7.54111
255 5.29306
260 9.03753
265 7.04226
270 7.05738
275 4.36735
280 7.24331
285 9.97618
290 9.66639
295 5.15458
300 10.1641
305 10.3037
310 9.50123
315 9.97118
320 10.5971
325 14.0578
330 12.5345
335 11.5689
340 13.9589
345 13.5101
350 15.583
355 11.8608
360 11.0818
365 8.60447
370 10.676
375 10.9363
380 9.48695
385 9.05541
390 11.5794
395 8.75325
400 8.93236
405 7.2832
410 7.65732
415 7.16506
420 8.47865
425 9.49253
430 7.66615
435 8.50491
440 11.2508
445 7.23337
450 8.48095
455 13.4775
460 34.4419
465 47.8651
470 26.8016
475 9.82164
480 11.0523
485 8.65731
490 10.4903
495 11.6418
500 13.8747
505 11.2611
510 8.43497
515 9.11131
520 8.00098
525 6.65915
530 9.24608
535 7.69309
540 7.05481
545 9.05132
550 5.01597
555 6.74961
560 6.80385
565 6.62009
570 7.63158
575 9.61126
580 9.59679
585 9.05194
590 8.15945
595 9.72836
600 8.7284
Ex : 238
200 6.02222
205 7.22328
210 7.36518
215 5.41333
220 4.73805
225 6.37811
230 12.2051
235 17.1066
240 9.88733
245 5.60639
250 6.78456
255 6.67395
260 7.34973
265 7.72443
270 5.39936
275 5.3607
280 5.86931
285 6.75463
290 6.69492
295 9.15784
300 8.20733
305 12.0905
310 8.23172
315 7.21286
320 8.88525
325 10.1278
330 9.80742
335 11.3224
340 12.8336
345 14.0239
350 11.2368
355 11.731
360 13.6293
365 13.4614
370 11.9448
375 8.43455
380 9.45089
385 10.9664
390 7.82344
395 7.68016
400 6.79898
405 6.56811
410 8.13129
415 6.93064
420 8.33693
425 5.61749
430 7.32477
435 6.74983
440 6.6529
445 7.80256
450 7.41106
455 7.29461
460 8.1482
465 29.2788
470 85.3662
475 109.458
480 58.6437
485 16.4658
490 8.3625
495 7.38331
500 10.652
505 12.221
510 14.8021
515 18.2853
520 11.35
525 8.9872
530 7.05598
535 9.63407
540 7.71678
545 5.95882
550 8.75041
555 7.7275
560 5.86559
565 7.12069
570 5.56876
575 9.24859
580 11.9436
585 9.57343
590 11.1687
595 11.9515
600 5.15805
Ex : 243
200 4.16053
205 4.71947
210 6.87979
215 4.7219
220 4.53992
225 3.86677
230 4.36707
235 15.0413
240 27.7089
245 11.8734
250 6.56634
255 6.78414
260 6.67809
265 6.37351
270 5.71165
275 3.96673
280 4.31086
285 6.93674
290 7.27296
295 5.94761
300 9.34607
305 8.60902
310 7.91518
315 7.79595
320 9.88111
325 10.2138
330 9.39963
335 9.20499
340 9.69742
345 10.4014
350 10.7832
355 12.8631
360 11.2783
365 10.7988
370 8.99108
375 11.1861
380 10.1436
385 10.9507
390 10.189
395 8.00131
400 8.9096
405 7.08525
410 7.15161
415 8.64
420 7.54227
425 7.74972
430 7.36153
435 8.1069
440 6.06422
445 6.25927
450 6.3887
455 6.90166
460 6.97419
465 6.71904
470 14.3871
475 73.2452
480 168.196
485 194.991
490 90.7673
495 21.9409
500 9.97521
505 9.55408
510 9.15054
515 11.343
520 19.175
525 17.8557
530 13.4573
535 10.0817
540 6.44985
545 7.10206
550 7.33618
555 6.7744
560 5.45352
565 5.28498
570 8.12248
575 7.57525
580 9.34184
585 13.4699
590 11.8353
595 9.6608
600 5.65698
Ex : 248
200 6.35657
205 3.48017
210 5.37879
215 6.18286
220 5.17999
225 4.39578
230 6.53026
235 7.52827
240 23.9098
245 33.374
250 11.1623
255 5.26975
260 7.43577
265 9.11496
270 6.24978
275 4.8508
280 4.57123
285 6.95543
290 6.65226
295 7.4157
300 8.69141
305 10.6336
310 9.80111
315 11.5705
320 12.0522
325 11.5371
330 9.98038
335 10.8745
340 11.9481
345 11.6883
350 10.9214
355 12.3372
360 12.8655
365 12.8084
370 10.5423
375 10.7306
380 9.99097
385 9.4787
390 8.8801
395 7.23604
400 6.51587
405 10.0086
410 6.48655
415 5.2018
420 7.61359
425 7.58966
430 8.48454
435 5.19642
440 6.72189
445 6.86028
450 7.7721
455 7.2315
460 4.921
465 6.14971
470 6.27092
475 6.82297
480 19.4875
485 112.716
490 221.1
495 209.202
500 95.1099
505 19.8634
510 8.29228
515 6.96735
520 6.56266
525 11.7014
530 21.0072
535 21.5302
540 18.2679
545 9.96603
550 8.93857
555 6.70792
560 7.4725
565 7.28747
570 6.99449
575 8.87051
580 9.96721
585 10.3416
590 7.92898
595 10.9585
600 13.2108
Ex : 253
200 3.52321
205 5.25413
210 4.14463
215 4.12561
220 3.09249
225 3.21948
230 2.76546
235 2.95829
240 5.36738
245 31.1164
250 48.3712
255 14.182
260 6.162
265 6.075
270 8.24717
275 7.61495
280 4.19545
285 5.92881
290 6.60498
295 7.1428
300 10.1522
305 10.778
310 12.0127
315 10.3478
320 8.82799
325 9.95791
330 8.62835
335 12.1521
340 10.0233
345 12.9663
350 13.8333
355 12.7729
360 12.8388
365 13.2322
370 8.06593
375 10.2454
380 9.94825
385 7.81837
390 8.8343
395 7.27298
400 8.63458
405 6.73273
410 7.307
415 5.38721
420 6.23631
425 5.31869
430 6.93165
435 6.51807
440 5.04588
445 6.30759
450 5.4181
455 6.57898
460 4.79256
465 5.30299
470 6.30664
475 5.11518
480 4.25295
485 6.18233
490 17.8006
495 110.116
500 255.134
505 270.757
510 131.643
515 28.8933
520 11.1213
525 7.4845
530 6.57192
535 8.5963
540 15.649
545 20.6221
550 16.7315
555 14.259
560 7.2851
565 6.97198
570 7.7249
575 7.98603
580 10.89
585 11.1305
590 10.8147
595 12.9133
600 11.2177
Ex : 258
200 2.84365
205 1.84699
210 3.22211
215 2.85526
220 1.81018
225 3.05598
230 2.47022
235 2.62449
240 2.58971
245 4.82274
250 36.3936
255 57.2051
260 16.0875
265 4.47745
270 4.28851
275 7.74617
280 9.38933
285 6.86745
290 7.38949
295 8.75092
300 12.6969
305 10.0558
310 12.1851
315 10.2859
320 9.75423
325 8.66355
330 10.3244
335 9.5207
340 9.55418
345 9.61599
350 11.6118
355 10.0487
360 9.51783
365 10.6562
370 8.34433
375 8.8194
380 6.27871
385 8.16587
390 7.3194
395 5.82066
400 4.90797
405 4.48144
410 6.13671
415 4.64092
420 6.36962
425 5.20149
430 4.26581
435 4.28448
440 4.81655
445 4.85211
450 5.82949
455 4.95361
460 5.04036
465 4.55631
470 4.03027
475 4.85858
480 3.85641
485 3.58201
490 5.11548
495 4.47966
500 18.525
505 130.84
510 257.364
515 246.572
520 107.105
525 21.6536
530 8.36874
535 5.9032
540 5.63129
545 8.83011
550 16.1918
555 21.1327
560 22.2708
565 19.4491
570 15.4345
575 10.7272
580 12.9861
585 13.6783
590 12.6852
595 15.1609
600 19.5126
Ex : 263
200 1.89721
205 2.10163
210 1.49536
215 1.57929
220 1.62063
225 1.2552
230 1.82384
235 1.38611
240 1.88004
245 2.53687
250 4.49508
255 38.1347
260 58.3293
265 15.8529
270 4.8805
275 4.85548
280 10.8506
285 11.7365
290 11.0961
295 10.38
300 12.2461
305 12.4247
310 12.9701
315 10.1245
320 10.3265
325 10.3905
330 9.80759
335 9.17216
340 8.95559
345 10.1556
350 9.27334
355 7.98256
360 8.56621
365 7.78395
370 7.31991
375 5.97853
380 6.15577
385 5.63808
390 4.74142
395 4.97513
400 4.62277
405 4.31327
410 3.90188
415 3.88654
420 4.37244
425 4.26032
430 4.35033
435 4.43061
440 3.5719
445 3.62273
450 4.17167
455 3.86249
460 3.33674
465 3.75336
470 3.6278
475 3.69647
480 4.28236
485 4.23249
490 4.24635
495 3.9272
500 4.19017
505 4.42619
510 19.1586
515 120.181
520 247.312
525 232.461
530 104.386
535 21.3056
540 8.69353
545 6.13909
550 5.56827
555 7.57502
560 15.2752
565 26.1121
570 28.2085
575 30.939
580 23.2374
585 18.2624
590 16.0093
595 16.454
600 19.5498
Ex : 268
200 1.08414
205 0.908791
210 1.04226
215 1.00652
220 1.43991
225 1.54444
230 1.69881
235 1.63448
240 1.31003
245 1.65961
250 1.30376
255 3.29738
260 43.1214
265 72.8406
270 21.4235
275 5.34612
280 5.33594
285 12.1442
290 17.6405
295 16.0212
300 14.8346
305 13.6201
310 12.5404
315 12.5925
320 12.2591
325 11.2478
330 10.8196
335 9.32337
340 10.7331
345 9.82017
350 9.6801
355 7.64054
360 7.68292
365 6.26876
370 5.37863
375 5.61392
380 5.04395
385 4.99216
390 4.80615
395 3.60977
400 3.35818
405 3.70735
410 3.51793
415 2.78866
420 3.46953
425 2.96516
430 3.41435
435 3.04024
440 3.26139
445 3.63453
450 3.19748
455 2.95302
460 2.92109
465 3.18337
470 3.24897
475 3.33933
480 3.78552
485 2.88159
490 2.29301
495 3.34233
500 2.39452
505 2.98449
510 3.44744
515 3.55819
520 24.5977
525 130.158
530 256.674
535 240.792
540 113.023
545 23.052
550 9.77246
555 8.72794
560 10.5687
565 14.3194
570 20.4688
575 29.596
580 34.6546
585 34.6331
590 28.5707
595 24.2087
600 20.4789
Ex : 273
200 1.13777
205 1.86562
210 1.25705
215 0.836327
220 1.55259
225 1.79046
230 1.31556
235 1.03241
240 1.38854
245 1.62488
250 1.18389
255 1.24106
260 4.05611
265 44.7773
270 71.5127
275 20.7561
280 7.36357
285 8.95199
290 14.6639
295 18.5944
300 18.2008
305 13.7788
310 12.8832
315 12.3638
320 11.8479
325 11.5763
330 10.4209
335 10.136
340 10.2695
345 9.76224
350 9.25791
355 7.79924
360 7.28345
365 7.22758
370 5.79157
375 6.05995
380 5.20945
385 4.27803
390 4.55107
395 3.41015
400 3.64674
405 3.8754
410 3.99276
415 4.05521
420 3.83237
425 3.18032
430 2.45517
435 3.04263
440 2.67945
445 2.89279
450 3.2832
455 3.04775
460 2.42432
465 2.69817
470 2.70412
475 2.83722
480 2.69329
485 2.34434
490 2.66523
495 2.18249
500 3.42608
505 2.32788
510 2.20409
515 2.1469
520 2.82884
525 2.93484
530 23.9636
535 134.001
540 275.524
545 249.093
550 109.813
555 24.2999
560 14.6285
565 15.8502
570 16.0623
575 19.6179
580 24.4066
585 29.4821
590 34.9624
595 34.1782
600 35.5926
Ex : 278
200 1.19236
205 1.1747
210 1.11477
215 0.989232
220 0.95356
225 1.33146
230 1.06636
235 1.07699
240 1.1989
245 0.938315
250 0.867664
255 1.21334
260 0.874866
265 4.07465
270 56.044
275 89.25
280 24.8376
285 9.70355
290 9.61201
295 13.2437
300 18.1438
305 16.4304
310 13.1346
315 11.892
320 10.2636
325 10.7209
330 10.1197
335 9.77745
340 10.4483
345 9.61293
350 8.41805
355 7.5488
360 7.56989
365 6.0302
370 5.18033
375 4.88397
380 4.63454
385 4.62086
390 3.91158
395 3.23417
400 2.71605
405 3.31991
410 2.58454
415 3.02168
420 3.41398
425 3.08571
430 2.71038
435 2.57851
440 2.48856
445 2.28523
450 2.65078
455 2.34245
460 2.56381
465 2.39348
470 3.0475
475 2.40383
480 2.5965
485 2.09248
490 2.33702
495 2.38156
500 2.5268
505 1.98355
510 2.61474
515 1.96727
520 1.9662
525 1.5052
530 2.35851
535 2.20547
540 25.1455
545 131.388
550 260.583
555 232.637
560 102.357
565 26.0567
570 17.1461
575 17.2228
580 18.0756
585 16.7566
590 19.5343
595 25.0849
600 24.1001
Ex : 283
200 0.588664
205 0.704005
210 0.841995
215 0.544273
220 0.694872
225 0.777252
230 0.621014
235 0.892312
240 0.786929
245 0.595952
250 0.648804
255 1.17222
260 0.763408
265 0.693369
270 3.78962
275 51.8975
280 80.8446
285 25.3987
290 8.49517
295 6.39454
300 8.71005
305 14.7647
310 13.6916
315 9.78472
320 8.40889
325 8.79945
330 9.1833
335 8.85261
340 8.78141
345 8.85059
350 8.06039
355 6.96717
360 6.30921
365 5.04875
370 5.06768
375 5.54797
380 3.67731
385 4.24498
390 3.82933
395 3.22231
400 3.25022
405 3.08441
410 2.73142
415 2.61024
420 2.79542
425 2.73335
430 2.41619
435 2.6508
440 2.55081
445 2.1291
450 2.088
455 2.44334
460 2.61989
465 2.65886
470 2.63539
475 2.45036
480 2.23908
485 2.35443
490 2.40982
495 2.50414
500 2.28044
505 2.16466
510 1.85786
515 1.85008
520 1.69585
525 1.61382
530 1.76779
535 1.75132
540 1.68652
545 1.98712
550 21.9669
555 121.439
560 256.54
565 222.391
570 95.384
575 21.3273
580 12.4888
585 10.7365
590 10.2199
595 10.2335
600 15.2453
Ex : 288
200 0.505852
205 0.808604
210 0.581213
215 1.30628
220 0.741935
225 0.568274
230 0.639051
235 0.776102
240 0.879909
245 0.770973
250 0.68711
255 0.465442
260 0.596377
265 0.866863
270 0.865135
275 3.68526
280 57.3686
285 90.4675
290 25.6132
295 6.09233
300 4.17652
305 6.85508
310 12.0652
315 12.5048
320 9.65612
325 7.496
330 6.56899
335 6.8093
340 6.41218
345 6.29121
350 7.95468
355 6.3166
360 5.62082
365 5.64257
370 4.58756
375 3.98509
380 3.92306
385 3.34952
390 3.37161
395 3.25016
400 3.02259
405 3.35611
410 3.04637
415 2.87287
420 2.61044
425 2.35046
430 2.70776
435 2.47393
440 2.57894
445 2.73465
450 2.18793
455 2.37916
460 2.46157
465 2.40763
470 2.04873
475 2.51706
480 1.87405
485 1.86459
490 1.58374
495 2.03789
500 1.90167
505 1.84052
510 1.79092
515 1.84249
520 1.64576
525 1.85078
530 2.00627
535 1.35026
540 1.51037
545 1.57506
550 1.64347
555 2.38904
560 22.9945
565 122.162
570 254.368
575 221.37
580 86.893
585 16.6299
590 7.25557
595 6.12836
600 3.86474
Ex : 293
200 0.839729
205 0.607832
210 0.830058
215 0.607611
220 0.534995
225 0.732533
230 0.537236
235 0.519841
240 0.664409
245 0.611772
250 0.739336
255 0.772509
260 0.594551
265 0.638603
270 0.920402
275 0.849149
280 4.80733
285 69.8895
290 99.9426
295 26.2436
300 5.79736
305 3.79355
310 4.93106
315 10.3349
320 12.0676
325 8.98917
330 6.04148
335 5.66702
340 5.89337
345 6.57619
350 5.92151
355 5.65045
360 5.10682
365 4.83916
370 4.33079
375 3.71146
380 3.85719
385 3.86651
390 3.21504
395 3.63359
400 3.08217
405 2.9559
410 3.27423
415 2.72663
420 2.78811
425 2.65867
430 2.93465
435 2.81184
440 2.4397
445 2.48354
450 2.08843
455 1.98592
460 1.93658
465 1.9768
470 1.66781
475 1.64784
480 1.80807
485 2.2379
490 1.92384
495 1.80989
500 1.52956
505 1.50622
510 1.58176
515 1.30432
520 1.31501
525 1.23482
530 1.37701
535 1.45747
540 1.18248
545 1.44909
550 1.43505
555 1.8638
560 1.85172
565 2.02553
570 23.0367
575 126.296
580 256.329
585 207.831
590 77.0692
595 13.9904
600 5.52458
Ex : 298
200 0.581342
205 0.479697
210 0.628031
215 0.54128
220 0.567665
225 0.52314
230 0.57241
235 0.43008
240 0.454354
245 0.383558
250 0.634645
255 0.518965
260 0.690808
265 0.513139
270 0.514852
275 0.693341
280 0.807907
285 4.91922
290 71.339
295 105.076
300 29.2346
305 5.68882
310 3.64097
315 4.34561
320 8.52128
325 11.5954
330 9.97235
335 5.99517
340 4.86967
345 4.70337
350 4.92713
355 4.18789
360 3.9869
365 3.91615
370 3.81754
375 3.13326
380 3.43349
385 3.53154
390 3.09959
395 3.45213
400 3.16153
405 2.91288
410 3.40659
415 2.94728
420 2.93533
425 2.79087
430 2.4057
435 2.65565
440 2.60023
445 2.59297
450 2.1937
455 2.16565
460 2.39472
465 2.04985
470 2.04468
475 1.99641
480 2.01071
485 1.72005
490 1.5466
495 1.6815
500 1.81469
505 1.72325
510 1.79943
515 1.38589
520 1.48064
525 1.38968
530 1.20881
535 1.07565
540 1.17275
545 1.10953
550 1.0752
555 1.02894
560 0.900131
565 0.974912
570 1.2944
575 1.69626
580 28.9175
585 156.633
590 282.034
595 212.941
600 133.928
Ex : 303
200 0.318961
205 0.458383
210 0.51628
215 0.436623
220 0.462481
225 0.517808
230 0.403418
235 0.683441
240 0.575583
245 0.525117
250 0.433108
255 0.464813
260 0.629533
265 0.379419
270 0.482204
275 0.591974
280 0.491988
285 0.536363
290 5.92283
295 78.2838
300 114.382
305 31.194
310 6.34848
315 3.45799
320 3.26763
325 6.90061
330 11.381
335 9.76322
340 5.74848
345 4.03279
350 3.65011
355 3.01182
360 2.77244
365 2.72127
370 3.19626
375 2.98226
380 2.89015
385 2.71367
390 2.79623
395 2.87461
400 2.79224
405 2.77251
410 3.03852
415 2.48015
420 2.76457
425 2.72704
430 2.51831
435 2.45543
440 2.54203
445 2.15448
450 2.1444
455 2.1451
460 1.92168
465 2.12938
470 1.95142
475 1.69246
480 1.78195
485 1.78387
490 1.3909
495 1.36734
500 1.3675
505 1.28497
510 1.29014
515 1.41812
520 1.2697
525 1.08167
530 1.28823
535 0.997219
540 1.16716
545 1.10519
550 0.986925
555 1.02582
560 0.786474
565 0.971895
570 0.819408
575 0.823672
580 1.15687
585 1.32379
590 27.0602
595 132.449
600 210.649
Ex : 308
200 0.414817
205 0.313578
210 0.404043
215 0.345512
220 0.392767
225 0.407905
230 0.492095
235 0.377908
240 0.507356
245 0.403265
250 0.368962
255 0.38594
260 0.382466
265 0.41238
270 0.384271
275 0.513804
280 0.419449
285 0.425626
290 0.503748
295 6.14076
300 91.8137
305 142.53
310 35.0986
315 6.52696
320 3.188
325 2.63078
330 5.13034
335 10.0807
340 9.61321
345 5.46147
350 3.31858
355 2.82458
360 2.43638
365 2.0724
370 2.29887
375 2.49301
380 2.09309
385 2.5355
390 2.24863
395 2.46185
400 2.22761
405 2.61216
410 2.81091
415 2.54189
420 2.62965
425 2.38742
430 2.52187
435 2.27242
440 2.20418
445 2.1282
450 2.66387
455 2.15964
460 1.98641
465 1.89574
470 1.97359
475 1.74235
480 1.63571
485 1.64854
490 1.45902
495 1.53724
500 1.44068
505 1.51811
510 1.56323
515 1.27121
520 1.34009
525 1.24218
530 1.19065
535 1.22035
540 1.20707
545 0.926406
550 0.904193
555 1.03384
560 0.78637
565 0.817702
570 0.712275
575 0.805314
580 0.857467
585 0.891579
590 0.851254
595 1.64372
600 5.25915
Ex : 313
200 0.241034
205 0.38446
210 0.498264
215 0.320576
220 0.327687
225 0.454209
230 0.294821
235 0.340457
240 0.331505
245 0.397306
250 0.5199
255 0.408654
260 0.499154
265 0.350302
270 0.411177
275 0.399763
280 0.493147
285 0.330029
290 0.438613
295 0.487769
300 6.04658
305 87.063
310 122.573
315 31.7228
320 5.7062
325 2.42294
330 1.81747
335 4.21355
340 8.61089
345 9.63353
350 5.73174
355 3.11073
360 2.42684
365 2.04342
370 2.00455
375 2.05756
380 2.19768
385 2.0644
390 2.19379
395 2.29072
400 1.97358
405 2.69603
410 2.5014
415 2.37901
420 2.25058
425 2.35203
430 2.16952
435 2.30279
440 2.25985
445 2.10268
450 2.30722
455 2.02566
460 2.35082
465 2.08642
470 1.86787
475 1.91151
480 1.73382
485 1.4914
490 1.69138
495 1.51064
500 1.38267
505 1.22559
510 1.35842
515 0.967548
520 1.11395
525 1.14322
530 1.09587
535 0.770099
540 0.907742
545 0.880238
550 0.920955
555 0.832276
560 0.990606
565 0.987851
570 0.778999
575 0.666813
580 0.607603
585 0.505437
590 0.722416
595 0.728337
600 0.534189
Ex : 318
200 0.379379
205 0.419224
210 0.339474
215 0.349123
220 0.377517
225 0.375556
230 0.434834
235 0.409821
240 0.357544
245 0.406859
250 0.375159
255 0.387176
260 0.359974
265 0.414326
270 0.2859
275 0.377871
280 0.291781
285 0.280733
290 0.272231
295 0.454522
300 0.415693
305 8.02047
310 107.24
315 160.625
320 38.9496
325 6.37326
330 2.58351
335 1.96366
340 3.1862
345 7.98041
350 9.339
355 7.05121
360 3.42536
365 2.3357
370 1.96653
375 1.65218
380 1.67883
385 1.93957
390 1.97314
395 2.09553
400 2.21201
405 2.50239
410 2.28856
415 2.11295
420 2.07813
425 2.16802
430 2.26691
435 1.95083
440 1.98751
445 2.02656
450 2.07205
455 1.78777
460 1.85729
465 1.90793
470 1.59986
475 1.73305
480 1.92173
485 1.7127
490 1.44956
495 1.68286
500 1.35592
505 1.32433
510 1.04576
515 1.26869
520 1.20749
525 1.12052
530 1.08108
535 0.725235
540 0.847611
545 0.97627
550 0.676325
555 0.863283
560 0.764098
565 0.839762
570 0.57408
575 0.580691
580 0.582601
585 0.542352
590 0.55487
595 0.519552
600 0.280674
Ex : 323
200 0.36723
205 0.33353
210 0.340077
215 0.256953
220 0.275934
225 0.276325
230 0.340631
235 0.360614
240 0.246408
245 0.26963
250 0.237603
255 0.339627
260 0.40182
265 0.383754
270 0.225793
275 0.408683
280 0.351194
285 0.335472
290 0.310004
295 0.34376
300 0.419035
305 0.507014
310 8.12858
315 105.889
320 146.408
325 36.151
330 6.26262
335 2.73969
340 1.86465
345 2.40827
350 5.85885
355 8.78218
360 7.10815
365 3.91802
370 2.21312
375 1.66349
380 1.49763
385 1.77302
390 1.91034
395 1.94585
400 2.00092
405 1.86216
410 2.10943
415 1.9958
420 2.05954
425 1.89634
430 1.94323
435 1.98071
440 1.96278
445 1.8936
450 1.79128
455 1.98265
460 2.14716
465 1.79368
470 1.81075
475 1.97637
480 1.79337
485 1.87579
490 1.64056
495 1.43994
500 1.29641
505 1.20959
510 1.40489
515 1.26227
520 1.04603
525 1.10006
530 0.845516
535 0.940151
540 0.91906
545 0.829139
550 0.811832
555 0.793365
560 0.765508
565 0.683524
570 0.538175
575 0.535914
580 0.483171
585 0.405504
590 0.594724
595 0.422922
600 0.327981
Ex : 328
200 0.222689
205 0.240302
210 0.287744
215 0.209319
220 0.188465
225 0.30117
230 0.260112
235 0.353444
240 0.249534
245 0.328705
250 0.274466
255 0.24318
260 0.211627
265 0.279849
270 0.304312
275 0.21838
280 0.313152
285 0.176675
290 0.39549
295 0.340212
300 0.28598
305 0.430682
310 0.45796
315 6.69122
320 97.5874
325 144.267
330 36.07
335 6.44832
340 2.87061
345 1.74641
350 2.06556
355 4.47752
360 7.74647
365 8.11745
370 4.28336
375 2.08138
380 1.75126
385 1.69678
390 1.56927
395 1.91319
400 1.68596
405 1.71301
410 2.25244
415 2.08641
420 1.93209
425 1.85215
430 1.8856
435 1.90656
440 1.90278
445 1.99534
450 2.13536
455 1.73084
460 1.70897
465 1.75788
470 1.62574
475 1.72325
480 1.83645
485 1.59102
490 1.52476
495 1.54982
500 1.33903
505 1.40309
510 1.24109
515 1.21045
520 0.945823
525 1.15591
530 1.01379
535 0.764003
540 0.72877
545 0.859756
550 0.718762
555 0.703229
560 0.741951
565 0.639997
570 0.534912
575 0.511721
580 0.512751
585 0.401236
590 0.376633
595 0.40688
600 0.117674
Ex : 333
200 0.204495
205 0.296472
210 0.300198
215 0.234058
220 0.257784
225 0.163291
230 0.152733
235 0.275929
240 0.224439
245 0.228279
250 0.292794
255 0.273291
260 0.248872
265 0.245162
270 0.303256
275 0.333738
280 0.294664
285 0.255283
290 0.174039
295 0.258047
300 0.26122
305 0.333908
310 0.305596
315 0.398319
320 8.06987
325 111.579
330 163.096
335 40.5203
340 6.46926
345 2.39125
350 1.58189
355 1.31037
360 3.23108
365 7.49479
370 7.74137
375 4.65941
380 2.35704
385 1.78996
390 1.92347
395 1.79019
400 1.81661
405 1.88493
410 1.95367
415 2.00471
420 1.96622
425 1.95488
430 1.9408
435 1.95447
440 1.81344
445 2.02659
450 1.93346
455 1.95578
460 1.92962
465 1.86387
470 1.73385
475 1.62724
480 1.63255
485 1.73603
490 1.64451
495 1.52133
500 1.45922
505 1.35689
510 1.18374
515 1.35408
520 1.11321
525 1.07303
530 0.939322
535 0.966695
540 0.887586
545 0.943891
550 0.770875
555 0.756297
560 0.67125
565 0.602802
570 0.565165
575 0.508417
580 0.438432
585 0.360103
590 0.404964
595 0.356181
600 0.163151
Ex : 338
200 0.306482
205 0.226773
210 0.248539
215 0.302523
220 0.227718
225 0.202543
230 0.218888
235 0.239842
240 0.191441
245 0.241514
250 0.342017
255 0.218281
260 0.285073
265 0.241279
270 0.30195
275 0.276715
280 0.266955
285 0.231266
290 0.249056
295 0.274994
300 0.290685
305 0.298976
310 0.381475
315 0.304943
320 0.369663
325 9.37027
330 126.781
335 177.618
340 43.3705
345 6.46728
350 2.13747
355 1.17506
360 0.966304
365 2.39898
370 6.29081
375 7.35726
380 5.64936
385 2.76889
390 1.75742
395 1.80977
400 1.65802
405 1.77302
410 1.97539
415 2.04719
420 1.90455
425 2.03727
430 1.97271
435 1.94752
440 1.89949
445 1.87483
450 1.95432
455 1.88407
460 1.83799
465 1.8397
470 1.81285
475 1.87476
480 1.80271
485 1.87181
490 1.53079
495 1.60737
500 1.3665
505 1.3757
510 1.35165
515 1.30893
520 1.02545
525 1.18306
530 0.981538
535 0.906975
540 1.02015
545 0.950306
550 0.932385
555 0.734454
560 0.549924
565 0.616426
570 0.465847
575 0.471713
580 0.411347
585 0.322972
590 0.382991
595 0.336554
600 0.286436
Ex : 343
200 0.239169
205 0.237256
210 0.249113
215 0.189794
220 0.265008
225 0.263056
230 0.193867
235 0.197358
240 0.180693
245 0.207972
250 0.25966
255 0.268677
260 0.274793
265 0.222894
270 0.197642
275 0.244434
280 0.24789
285 0.27184
290 0.200674
295 0.220844
300 0.214642
305 0.164965
310 0.253945
315 0.218061
320 0.330514
325 0.528346
330 9.28441
335 127.892
340 176.025
345 42.1518
350 6.25809
355 1.95141
360 1.14312
365 0.732814
370 1.74071
375 5.1443
380 7.34907
385 5.85588
390 3.36499
395 1.84957
400 1.72131
405 1.70945
410 1.75199
415 1.73341
420 1.71467
425 1.74145
430 1.95598
435 1.99074
440 1.80091
445 1.86297
450 1.97827
455 1.83657
460 2.05031
465 1.93993
470 1.71385
475 1.94879
480 1.74635
485 1.59853
490 1.58265
495 1.50744
500 1.45496
505 1.34271
510 1.25849
515 1.21704
520 1.17182
525 0.962209
530 1.06785
535 0.951091
540 0.870593
545 0.808797
550 0.613513
555 0.593218
560 0.682805
565 0.514679
570 0.608987
575 0.460621
580 0.4487
585 0.457839
590 0.327935
595 0.366389
600 0.641874
Ex : 348
200 0.215557
205 0.160718
210 0.187119
215 0.123021
220 0.225118
225 0.257706
230 0.241702
235 0.242748
240 0.232607
245 0.182058
250 0.191752
255 0.211025
260 0.224051
265 0.21361
270 0.234987
275 0.208418
280 0.204286
285 0.224521
290 0.16347
295 0.197648
300 0.316062
305 0.268686
310 0.204636
315 0.288704
320 0.275369
325 0.263562
330 0.4096
335 8.59531
340 123.621
345 187.213
350 49.1119
355 6.93873
360 2.05312
365 1.10331
370 0.834453
375 1.20225
380 4.04649
385 6.74141
390 6.49102
395 4.17497
400 2.17628
405 1.59827
410 1.5805
415 1.72711
420 1.71903
425 2.04135
430 1.89427
435 1.91525
440 1.9049
445 1.82963
450 1.89721
455 1.87413
460 1.61691
465 1.92549
470 1.79369
475 1.70813
480 1.73234
485 1.67456
490 1.80367
495 1.54235
500 1.48286
505 1.45463
510 1.23638
515 1.17934
520 1.12383
525 1.01799
530 1.04994
535 0.932366
540 0.956839
545 0.649051
550 0.675593
555 0.629022
560 0.653071
565 0.585272
570 0.61719
575 0.527473
580 0.344641
585 0.288162
590 0.267624
595 0.329961
600 0.0934738
Ex : 353
200 0.217588
205 0.257685
210 0.213746
215 0.201392
220 0.218209
225 0.152368
230 0.188684
235 0.197808
240 0.191608
245 0.211193
250 0.231627
255 0.193671
260 0.193862
265 0.185119
270 0.169137
275 0.265013
280 0.183842
285 0.232319
290 0.193939
295 0.200619
300 0.17786
305 0.190582
310 0.21958
315 0.233399
320 0.164056
325 0.296705
330 0.349585
335 0.435324
340 8.89143
345 126.792
350 180.819
355 46.1836
360 6.44403
365 1.99182
370 1.24723
375 0.806582
380 0.943872
385 3.15741
390 6.37765
395 6.79635
400 5.16922
405 2.62989
410 1.71814
415 1.74094
420 1.71417
425 1.87406
430 1.87471
435 1.85881
440 1.74823
445 1.85947
450 1.79879
455 1.84479
460 1.85504
465 1.862
470 1.95836
475 1.73873
480 1.87029
485 1.69608
490 1.66953
495 1.42929
500 1.31582
505 1.11502
510 1.2577
515 1.10079
520 1.19545
525 0.92713
530 0.964967
535 0.861028
540 0.805597
545 0.833887
550 0.672613
555 0.725423
560 0.628352
565 0.480833
570 0.449632
575 0.450625
580 0.388622
585 0.361834
590 0.355376
595 0.313676
600 0.212134
Ex : 358
200 0.125025
205 0.150759
210 0.147635
215 0.175575
220 0.263
225 0.177764
230 0.174219
235 0.201219
240 0.124892
245 0.183174
250 0.220129
255 0.213706
260 0.181202
265 0.194685
270 0.170167
275 0.175298
280 0.174105
285 0.201092
290 0.230698
295 0.192505
300 0.139501
305 0.188712
310 0.206986
315 0.227116
320 0.166441
325 0.190582
330 0.222583
335 0.236011
340 0.3116
345 7.52502
350 114.853
355 174.496
360 44.3842
365 6.21613
370 1.786
375 1.1796
380 0.885142
385 0.860039
390 2.36288
395 5.61434
400 6.68774
405 5.68054
410 3.11307
415 1.77864
420 1.61002
425 1.64931
430 1.70133
435 1.82977
440 1.82885
445 1.79157
450 1.97467
455 1.97569
460 1.98776
465 1.71092
470 1.77981
475 1.58086
480 1.70461
485 1.61838
490 1.44641
495 1.62027
500 1.369
505 1.40642
510 1.27195
515 1.19033
520 0.998148
525 1.00015
530 0.982619
535 0.823195
540 0.70914
545 0.758456
550 0.769641
555 0.613068
560 0.560609
565 0.549712
570 0.479398
575 0.474283
580 0.403644
585 0.327647
590 0.348928
595 0.249656
600 0.791994
Ex : 363
200 0.19836
205 0.173857
210 0.176475
215 0.142764
220 0.13381
225 0.191901
230 0.145706
235 0.174053
240 0.174059
245 0.160209
250 0.17529
255 0.203047
260 0.238656
265 0.150074
270 0.188038
275 0.199291
280 0.17376
285 0.198935
290 0.223609
295 0.185235
300 0.264318
305 0.240418
310 0.15239
315 0.260786
320 0.217398
325 0.170354
330 0.260151
335 0.243518
340 0.233559
345 0.394733
350 7.28164
355 112.459
360 173.153
365 44.6006
370 6.11397
375 1.83687
380 1.08709
385 0.795687
390 0.860487
395 1.79228
400 4.8012
405 6.46146
410 5.52315
415 3.52185
420 2.03908
425 1.86615
430 1.63697
435 1.79007
440 1.69933
445 1.70447
450 1.78073
455 1.68941
460 1.80244
465 1.73695
470 1.76483
475 1.65486
480 1.61416
485 1.56454
490 1.48579
495 1.37916
500 1.33496
505 1.40768
510 1.25232
515 1.06596
520 1.13023
525 1.03475
530 0.872276
535 0.887287
540 0.821016
545 0.727587
550 0.729169
555 0.553723
560 0.534022
565 0.452425
570 0.459158
575 0.374907
580 0.36352
585 0.286843
590 0.222649
595 0.253406
600 0.367269
Ex : 368
200 0.132723
205 0.17586
210 0.166028
215 0.157177
220 0.190834
225 0.193361
230 0.144002
235 0.1263
240 0.156467
245 0.120621
250 0.185011
255 0.170009
260 0.18009
265 0.17942
270 0.165744
275 0.109166
280 0.128679
285 0.135061
290 0.169953
295 0.152302
300 0.122849
305 0.151747
310 0.129913
315 0.168052
320 0.172937
325 0.187871
330 0.25658
335 0.238798
340 0.287882
345 0.280689
350 0.350632
355 6.53024
360 130.03
365 239.66
370 67.3512
375 8.77725
380 2.12967
385 1.28181
390 0.830236
395 0.859067
400 1.36303
405 3.71521
410 5.92381
415 5.692
420 4.18883
425 2.27741
430 1.73937
435 1.59892
440 1.72024
445 1.69706
450 1.64536
455 1.7543
460 1.59777
465 1.72571
470 1.64117
475 1.59488
480 1.62864
485 1.48134
490 1.51668
495 1.37047
500 1.32835
505 1.33334
510 1.191
515 1.02001
520 1.041
525 0.864997
530 0.826738
535 0.834722
540 0.903427
545 0.798819
550 0.65459
555 0.57599
560 0.550836
565 0.55699
570 0.453882
575 0.377829
580 0.300459
585 0.277809
590 0.300508
595 0.208372
600 0.115615
Ex : 373
200 0.14993
205 0.155137
210 0.197635
215 0.129494
220 0.189717
225 0.151254
230 0.171464
235 0.115728
240 0.123547
245 0.141262
250 0.180102
255 0.127298
260 0.180904
265 0.147632
270 0.134474
275 0.138286
280 0.12837
285 0.134781
290 0.138872
295 0.144006
300 0.135315
305 0.182405
310 0.132928
315 0.151755
320 0.172233
325 0.186564
330 0.189707
335 0.239001
340 0.182514
345 0.218731
350 0.262479
355 0.334836
360 8.68381
365 139.765
370 209.471
375 53.6214
380 7.2655
385 1.95485
390 1.39378
395 0.996573
400 0.931355
405 1.19062
410 3.13918
415 5.61443
420 5.84125
425 4.63076
430 2.66592
435 1.87418
440 1.66658
445 1.79423
450 1.66394
455 1.66152
460 1.69378
465 1.7068
470 1.50369
475 1.76886
480 1.51744
485 1.4773
490 1.56126
495 1.39908
500 1.1671
505 1.30564
510 1.10544
515 1.12049
520 1.02747
525 1.05681
530 0.955898
535 0.830156
540 0.746678
545 0.806104
550 0.672075
555 0.542123
560 0.540278
565 0.518133
570 0.415737
575 0.411221
580 0.298641
585 0.316451
590 0.235742
595 0.188069
600 0.113714
Ex : 378
200 0.16804
205 0.172577
210 0.145808
215 0.13604
220 0.159012
225 0.216429
230 0.119702
235 0.220147
240 0.121108
245 0.12094
250 0.124069
255 0.216013
260 0.21609
265 0.133072
270 0.186349
275 0.148413
280 0.187671
285 0.191405
290 0.147012
295 0.154625
300 0.166993
305 0.148269
310 0.16927
315 0.192358
320 0.135083
325 0.195683
330 0.162165
335 0.229381
340 0.182251
345 0.181714
350 0.277356
355 0.3112
360 0.474287
365 8.83534
370 166.709
375 276.317
380 71.0583
385 9.24705
390 2.25124
395 1.52327
400 1.08594
405 0.936633
410 1.1375
415 2.23613
420 4.59943
425 5.40007
430 5.17408
435 3.25301
440 2.01451
445 1.70877
450 1.56346
455 1.63872
460 1.64544
465 1.56397
470 1.64678
475 1.59914
480 1.46557
485 1.50471
490 1.50103
495 1.47529
500 1.34993
505 1.22655
510 1.16125
515 1.06214
520 0.936619
525 1.00855
530 0.969859
535 0.891192
540 0.807064
545 0.748942
550 0.707497
555 0.625253
560 0.597508
565 0.452028
570 0.445237
575 0.330454
580 0.310617
585 0.310205
590 0.227796
595 0.232746
600 0.114519
Ex : 383
200 0.154373
205 0.127965
210 0.16252
215 0.150362
220 0.134884
225 0.104118
230 0.160886
235 0.191495
240 0.129084
245 0.169622
250 0.233195
255 0.179147
260 0.100963
265 0.137472
270 0.157923
275 0.149375
280 0.13941
285 0.13854
290 0.142163
295 0.183379
300 0.15809
305 0.126852
310 0.186643
315 0.163288
320 0.14188
325 0.119877
330 0.220643
335 0.169645
340 0.196022
345 0.197508
350 0.18569
355 0.23469
360 0.323348
365 0.36666
370 7.79262
375 138.811
380 237.616
385 67.1306
390 8.79992
395 2.06655
400 1.23033
405 0.9707
410 0.990598
415 1.0751
420 1.77132
425 4.01102
430 5.11716
435 4.98121
440 3.92155
445 2.08071
450 1.71316
455 1.62392
460 1.58526
465 1.64903
470 1.63281
475 1.45359
480 1.51756
485 1.47163
490 1.33794
495 1.23927
500 1.27217
505 1.27584
510 1.27215
515 1.07412
520 0.971904
525 0.874118
530 1.01932
535 0.933212
540 0.784339
545 0.647546
550 0.667596
555 0.600378
560 0.597946
565 0.532667
570 0.459596
575 0.407736
580 0.353465
585 0.305524
590 0.300212
595 0.272497
600 0.0310091
Ex : 388
200 0.118649
205 0.167856
210 0.144036
215 0.149892
220 0.137291
225 0.128878
230 0.0954733
235 0.137946
240 0.124019
245 0.135785
250 0.106516
255 0.135369
260 0.127642
265 0.146434
270 0.218948
275 0.157191
280 0.20215
285 0.133828
290 0.137527
295 0.149491
300 0.132782
305 0.187633
310 0.161293
315 0.176874
320 0.180878
325 0.16877
330 0.161081
335 0.160964
340 0.152535
345 0.26258
350 0.268216
355 0.246289
360 0.207709
365 0.276773
370 0.441328
375 8.61934
380 168.909
385 312.289
390 90.5825
395 11.5114
400 2.40057
405 1.43675
410 1.14754
415 0.838978
420 0.978764
425 1.47744
430 3.24687
435 4.82495
440 4.91937
445 4.1493
450 2.54432
455 1.76291
460 1.57364
465 1.49946
470 1.49884
475 1.57264
480 1.37887
485 1.4307
490 1.39884
495 1.24967
500 1.41036
505 1.19746
510 1.07473
515 1.16371
520 1.00287
525 0.941624
530 0.938709
535 0.873862
540 0.77751
545 0.772415
550 0.725006
555 0.68403
560 0.633717
565 0.50095
570 0.475815
575 0.452617
580 0.371658
585 0.299551
590 0.289306
595 0.299119
600 0.367036
Ex : 393
200 0.0926246
205 0.132956
210 0.153071
215 0.151572
220 0.147973
225 0.116483
230 0.111521
235 0.148233
240 0.115651
245 0.144827
250 0.0982282
255 0.138779
260 0.140635
265 0.121117
270 0.124443
275 0.0867987
280 0.133968
285 0.133916
290 0.134424
295 0.130701
300 0.158252
305 0.147146
310 0.152276
315 0.109889
320 0.114936
325 0.148896
330 0.155884
335 0.147048
340 0.159711
345 0.207454
350 0.202324
355 0.169566
360 0.203822
365 0.204268
370 0.289335
375 0.420127
380 8.37794
385 168.324
390 279.878
395 74.8179
400 9.61678
405 2.15841
410 1.45182
415 1.02951
420 0.906161
425 0.923166
430 1.14828
435 2.53811
440 4.57725
445 4.84063
450 4.45064
455 2.97787
460 1.95773
465 1.59767
470 1.40284
475 1.46879
480 1.43729
485 1.41512
490 1.4111
495 1.30276
500 1.29284
505 1.19485
510 1.22993
515 1.09164
520 1.03125
525 0.950448
530 0.907464
535 0.869832
540 0.830805
545 0.775901
550 0.680546
555 0.606115
560 0.638219
565 0.57192
570 0.487944
575 0.462297
580 0.371631
585 0.360423
590 0.323048
595 0.272988
600 0.168401
Ex : 398
200 0.133461
205 0.131641
210 0.098629
215 0.142709
220 0.105799
225 0.115516
230 0.147805
235 0.107721
240 0.117832
245 0.141608
250 0.134695
255 0.145861
260 0.114725
265 0.155285
270 0.157796
275 0.156908
280 0.141066
285 0.168861
290 0.159233
295 0.154862
300 0.118587
305 0.145006
310 0.153794
315 0.154239
320 0.162684
325 0.152157
330 0.16336
335 0.155953
340 0.128419
345 0.149309
350 0.171423
355 0.133925
360 0.171162
365 0.231415
370 0.212293
375 0.293657
380 0.451038
385 10.013
390 162.831
395 246.58
400 62.025
405 8.11481
410 2.02883
415 1.27482
420 1.19986
425 1.02457
430 0.99457
435 1.1769
440 2.14107
445 4.20845
450 4.55333
455 4.33569
460 3.3945
465 2.01851
470 1.57907
475 1.53635
480 1.48908
485 1.42533
490 1.45629
495 1.24191
500 1.27759
505 1.29713
510 1.20595
515 1.10947
520 0.989512
525 1.07173
530 1.01221
535 0.947565
540 0.822942
545 0.732328
550 0.727971
555 0.595837
560 0.597576
565 0.609925
570 0.591286
575 0.460845
580 0.386092
585 0.369072
590 0.269244
595 0.324678
600 0.375136
Ex : 403
200 0.129899
205 0.118472
210 0.161896
215 0.15505
220 0.138522
225 0.12111
230 0.120119
235 0.110396
240 0.115596
245 0.122642
250 0.210643
255 0.130479
260 0.149555
265 0.149923
270 0.135011
275 0.149178
280 0.144172
285 0.140768
290 0.141042
295 0.136599
300 0.151721
305 0.113054
310 0.139935
315 0.113148
320 0.153647
325 0.191127
330 0.115746
335 0.155558
340 0.193484
345 0.187056
350 0.187325
355 0.129935
360 0.186283
365 0.172796
370 0.214021
375 0.225791
380 0.306082
385 0.393296
390 9.30554
395 185.059
400 297.916
405 78.2064
410 9.86681
415 2.19153
420 1.29607
425 1.2076
430 1.11945
435 1.00268
440 1.18662
445 1.78117
450 3.6254
455 4.31653
460 4.20216
465 3.78863
470 2.22697
475 1.72088
480 1.47892
485 1.41735
490 1.40595
495 1.39168
500 1.25665
505 1.17714
510 1.08408
515 1.19903
520 1.10123
525 0.971865
530 0.948689
535 0.974346
540 0.933103
545 0.773249
550 0.74383
555 0.691824
560 0.664732
565 0.573364
570 0.59158
575 0.459004
580 0.43895
585 0.466575
590 0.264042
595 0.218284
600 0.298269
Ex : 408
200 0.143374
205 0.143706
210 0.116858
215 0.12094
220 0.11797
225 0.134355
230 0.105743
235 0.148189
240 0.114545
245 0.11682
250 0.150029
255 0.173684
260 0.131186
265 0.11125
270 0.134665
275 0.106798
280 0.0818124
285 0.156513
290 0.100303
295 0.0985627
300 0.135119
305 0.139302
310 0.157931
315 0.11308
320 0.168761
325 0.178216
330 0.151278
335 0.111616
340 0.17375
345 0.15718
350 0.130568
355 0.1742
360 0.140984
365 0.195982
370 0.17542
375 0.177367
380 0.235014
385 0.255481
390 0.409512
395 8.20401
400 151.83
405 257.67
410 70.0724
415 8.98649
420 2.08929
425 1.32917
430 1.26389
435 1.08886
440 1.07637
445 1.18831
450 1.3932
455 2.99051
460 4.25313
465 4.00433
470 3.73264
475 2.52179
480 1.57856
485 1.3682
490 1.28561
495 1.16273
500 1.24633
505 1.14299
510 1.19968
515 1.15848
520 1.10663
525 0.994539
530 0.916382
535 0.934616
540 0.820968
545 0.832179
550 0.765528
555 0.692273
560 0.715653
565 0.557155
570 0.548032
575 0.549785
580 0.433341
585 0.324598
590 0.306952
595 0.217257
600 0.107918
Ex : 413
200 0.100282
205 0.136978
210 0.129743
215 0.138798
220 0.118613
225 0.142211
230 0.163467
235 0.129824
240 0.153035
245 0.123778
250 0.127274
255 0.126667
260 0.10817
265 0.127644
270 0.122962
275 0.145361
280 0.110768
285 0.0968661
290 0.14169
295 0.150118
300 0.1875
305 0.0948098
310 0.112048
315 0.124785
320 0.12875
325 0.158519
330 0.139264
335 0.147207
340 0.158335
345 0.159115
350 0.164998
355 0.16346
360 0.160848
365 0.140626
370 0.146334
375 0.163193
380 0.187208
385 0.209944
390 0.366434
395 0.393065
400 9.46871
405 171.588
410 273.943
415 67.3541
420 8.61629
425 1.99412
430 1.33437
435 1.33568
440 1.13764
445 1.13901
450 1.16222
455 1.26432
460 2.41215
465 4.07275
470 3.80428
475 3.75104
480 2.90542
485 1.73482
490 1.28335
495 1.3439
500 1.20413
505 1.25272
510 1.17214
515 1.09155
520 1.02471
525 0.963382
530 0.971237
535 0.907912
540 0.922563
545 0.765933
550 0.778061
555 0.687376
560 0.677514
565 0.671919
570 0.545901
575 0.482351
580 0.386501
585 0.318922
590 0.346086
595 0.256597
600 0.267427
Ex : 418
200 0.117414
205 0.128567
210 0.17049
215 0.0954004
220 0.141185
225 0.129149
230 0.148703
235 0.117193
240 0.160176
245 0.100329
250 0.136818
255 0.154381
260 0.152116
265 0.1766
270 0.102002
275 0.168392
280 0.139785
285 0.145806
290 0.168074
295 0.185858
300 0.205909
305 0.142687
310 0.145479
315 0.153284
320 0.132704
325 0.197955
330 0.138524
335 0.142716
340 0.166022
345 0.117511
350 0.13845
355 0.172812
360 0.126873
365 0.164307
370 0.164993
375 0.184118
380 0.159484
385 0.194943
390 0.261431
395 0.290792
400 0.483131
405 8.67326
410 181.751
415 370.207
420 106.896
425 13.3309
430 2.602
435 1.52444
440 1.36845
445 1.20526
450 1.11362
455 1.17115
460 1.14532
465 1.80474
470 3.35913
475 3.85001
480 3.37926
485 2.97538
490 1.88091
495 1.3077
500 1.17828
505 1.13695
510 1.1111
515 0.970063
520 0.947791
525 0.880122
530 0.961397
535 0.845034
540 0.838806
545 0.728415
550 0.759176
555 0.650814
560 0.742903
565 0.624618
570 0.569242
575 0.485104
580 0.366141
585 0.326898
590 0.273578
595 0.246333
600 0.243084
Ex : 423
200 0.119852
205 0.125141
210 0.17604
215 0.133039
220 0.151298
225 0.130621
230 0.143332
235 0.154124
240 0.155441
245 0.123071
250 0.120361
255 0.117993
260 0.106762
265 0.151642
270 0.183988
275 0.137293
280 0.109839
285 0.119952
290 0.13256
295 0.126198
300 0.110977
305 0.124893
310 0.139221
315 0.164783
320 0.123172
325 0.183054
330 0.123867
335 0.128158
340 0.141922
345 0.136246
350 0.129508
355 0.13324
360 0.177553
365 0.155993
370 0.188024
375 0.155263
380 0.170931
385 0.135955
390 0.150316
395 0.227529
400 0.254293
405 0.407095
410 8.20107
415 142.536
420 217.547
425 54.7673
430 7.20716
435 1.81607
440 1.28396
445 1.39694
450 1.23231
455 1.07139
460 1.03876
465 1.06036
470 1.46338
475 2.78679
480 3.68142
485 3.23301
490 3.20518
495 2.16692
500 1.37032
505 1.09771
510 1.06475
515 1.00191
520 1.0005
525 0.863404
530 0.783793
535 0.865323
540 0.792688
545 0.775698
550 0.707392
555 0.684868
560 0.621085
565 0.584992
570 0.491273
575 0.443123
580 0.465249
585 0.344495
590 0.297598
595 0.28467
600 0.334942
Ex : 428
200 0.125493
205 0.120836
210 0.136672
215 0.141098
220 0.123776
225 0.157
230 0.140311
235 0.133948
240 0.144569
245 0.136783
250 0.120702
255 0.129787
260 0.130598
265 0.149275
270 0.168467
275 0.172613
280 0.135727
285 0.168467
290 0.160726
295 0.178864
300 0.1427
305 0.153968
310 0.152725
315 0.112728
320 0.146636
325 0.122585
330 0.119129
335 0.15055
340 0.135406
345 0.120467
350 0.150695
355 0.119369
360 0.143198
365 0.124782
370 0.165967
375 0.180025
380 0.173132
385 0.209598
390 0.197521
395 0.190159
400 0.213975
405 0.329538
410 0.48808
415 10.527
420 188.429
425 288.724
430 73.4986
435 9.51804
440 2.2295
445 1.46861
450 1.33148
455 1.17422
460 0.94917
465 1.04436
470 1.04504
475 1.21826
480 2.32322
485 3.4437
490 3.11767
495 2.9499
500 2.45527
505 1.57646
510 1.06934
515 1.03228
520 0.936774
525 0.948965
530 0.844213
535 0.831612
540 0.736096
545 0.75909
550 0.725365
555 0.65356
560 0.583635
565 0.546523
570 0.451684
575 0.431018
580 0.360622
585 0.304568
590 0.203672
595 0.269338
600 0.133754
Ex : 433
200 0.219464
205 0.145152
210 0.153073
215 0.188558
220 0.161846
225 0.129282
230 0.119686
235 0.132378
240 0.158597
245 0.148989
250 0.148779
255 0.14405
260 0.166911
265 0.12521
270 0.130898
275 0.190183
280 0.150979
285 0.13143
290 0.201027
295 0.170488
300 0.148193
305 0.143651
310 0.179074
315 0.173067
320 0.124212
325 0.135586
330 0.141362
335 0.124497
340 0.141867
345 0.184498
350 0.186905
355 0.118418
360 0.17834
365 0.146912
370 0.202196
375 0.15167
380 0.204263
385 0.177014
390 0.162525
395 0.211303
400 0.221383
405 0.297802
410 0.346545
415 0.534126
420 12.7618
425 202.195
430 286.946
435 72.4435
440 9.43247
445 2.23509
450 1.28944
455 1.34851
460 1.14122
465 1.02024
470 0.91638
475 1.01478
480 1.01597
485 1.7121
490 2.99513
495 3.01487
500 2.88473
505 2.63429
510 1.49198
515 1.09212
520 1.01919
525 0.956395
530 0.838487
535 0.807918
540 0.776373
545 0.739126
550 0.720478
555 0.59454
560 0.502811
565 0.570501
570 0.506276
575 0.453138
580 0.356524
585 0.343901
590 0.302988
595 0.265006
600 0.228191
Ex : 438
200 0.109586
205 0.104178
210 0.127185
215 0.131
220 0.142651
225 0.175356
230 0.176224
235 0.127953
240 0.137206
245 0.134067
250 0.141315
255 0.140933
260 0.131373
265 0.153213
270 0.162443
275 0.112311
280 0.155671
285 0.193755
290 0.171739
295 0.137439
300 0.134341
305 0.151901
310 0.166821
315 0.174248
320 0.170387
325 0.183048
330 0.189765
335 0.171386
340 0.171909
345 0.170544
350 0.164034
355 0.167545
360 0.195868
365 0.210444
370 0.203561
375 0.167326
380 0.216298
385 0.212079
390 0.240438
395 0.242012
400 0.226376
405 0.253537
410 0.307623
415 0.494963
420 0.615006
425 25.3529
430 443.115
435 595.423
440 121.143
445 15.2182
450 2.9541
455 1.5478
460 1.3692
465 1.17359
470 0.93941
475 0.845652
480 0.909427
485 0.919255
490 1.42306
495 2.70585
500 3.0216
505 2.70253
510 2.66656
515 1.95297
520 1.22754
525 0.872944
530 0.813744
535 0.832403
540 0.851701
545 0.81287
550 0.745516
555 0.654573
560 0.624022
565 0.625729
570 0.464007
575 0.48453
580 0.368872
585 0.310765
590 0.259647
595 0.267154
600 0.299471
Ex : 443
200 0.134704
205 0.119215
210 0.120007
215 0.126334
220 0.15566
225 0.140792
230 0.177953
235 0.146414
240 0.134995
245 0.150129
250 0.181304
255 0.12241
260 0.163914
265 0.134764
270 0.139178
275 0.139469
280 0.137178
285 0.160768
290 0.151629
295 0.185525
300 0.16979
305 0.162791
310 0.168628
315 0.179051
320 0.169963
325 0.131105
330 0.167696
335 0.161255
340 0.133859
345 0.111766
350 0.138615
355 0.144513
360 0.139243
365 0.147606
370 0.202541
375 0.159508
380 0.159325
385 0.143351
390 0.231956
395 0.199477
400 0.189423
405 0.182629
410 0.205578
415 0.259263
420 0.34554
425 0.497665
430 11.2981
435 179.816
440 278.845
445 71.4506
450 9.07193
455 2.04161
460 1.16724
465 1.05155
470 1.06538
475 0.877224
480 0.768529
485 0.730136
490 0.893618
495 1.00018
500 2.01903
505 2.74709
510 2.69275
515 2.41112
520 2.0635
525 1.27058
530 0.932774
535 0.794762
540 0.671049
545 0.66156
550 0.597047
555 0.53821
560 0.543205
565 0.520707
570 0.474307
575 0.366956
580 0.35998
585 0.376599
590 0.281407
595 0.253845
600 0.679104
Ex : 448
200 0.125626
205 0.144383
210 0.111696
215 0.165262
220 0.142669
225 0.175054
230 0.167994
235 0.127306
240 0.153344
245 0.174128
250 0.150898
255 0.170984
260 0.182107
265 0.151629
270 0.16892
275 0.188095
280 0.153873
285 0.168411
290 0.157639
295 0.157758
300 0.139352
305 0.126326
310 0.18894
315 0.163612
320 0.168649
325 0.172163
330 0.16917
335 0.153897
340 0.23798
345 0.170943
350 0.151301
355 0.158683
360 0.143223
365 0.148176
370 0.176577
375 0.13946
380 0.186002
385 0.172671
390 0.202724
395 0.205073
400 0.190036
405 0.226806
410 0.217902
415 0.216227
420 0.300163
425 0.439161
430 0.46342
435 11.312
440 192.74
445 306.534
450 79.0333
455 9.90979
460 2.01726
465 1.20875
470 0.997475
475 1.01663
480 0.94038
485 0.69229
490 0.742344
495 0.733815
500 0.925113
505 1.69141
510 2.52416
515 2.44262
520 2.29851
525 2.1118
530 1.47393
535 0.918653
540 0.724171
545 0.733108
550 0.570651
555 0.593775
560 0.579023
565 0.560082
570 0.448082
575 0.439197
580 0.352045
585 0.274107
590 0.242794
595 0.271236
600 0.39034
Ex : 453
200 0.165011
205 0.128
210 0.1554
215 0.139184
220 0.159262
225 0.126553
230 0.170389
235 0.150844
240 0.166343
245 0.153218
250 0.179184
255 0.147908
260 0.180746
265 0.144306
270 0.152861
275 0.162106
280 0.151522
285 0.152308
290 0.15578
295 0.143373
300 0.174886
305 0.19031
310 0.165846
315 0.139926
320 0.15612
325 0.157188
330 0.113707
335 0.131795
340 0.152886
345 0.167459
350 0.155453
355 0.195092
360 0.155649
365 0.166418
370 0.165901
375 0.166694
380 0.165875
385 0.119476
390 0.218437
395 0.154632
400 0.168556
405 0.207089
410 0.158856
415 0.220512
420 0.248722
425 0.246928
430 0.332357
435 0.538729
440 13.8899
445 221.522
450 307.964
455 71.3004
460 9.0144
465 1.83204
470 1.00998
475 0.901003
480 0.939425
485 0.71142
490 0.68442
495 0.710395
500 0.761439
505 0.760446
510 1.1764
515 2.35619
520 2.47076
525 2.14066
530 2.15619
535 1.63306
540 1.02556
545 0.693566
550 0.55316
555 0.608611
560 0.507083
565 0.507251
570 0.438008
575 0.350519
580 0.299822
585 0.286994
590 0.206882
595 0.250099
600 0.16425
Ex : 458
200 0.124409
205 0.153228
210 0.174401
215 0.160336
220 0.150256
225 0.183994
230 0.126728
235 0.11947
240 0.182833
245 0.172807
250 0.143708
255 0.125806
260 0.123061
265 0.149222
270 0.115132
275 0.166957
280 0.131846
285 0.130564
290 0.161779
295 0.177956
300 0.145951
305 0.173903
310 0.145525
315 0.156213
320 0.148317
325 0.186003
330 0.183506
335 0.167624
340 0.226732
345 0.255281
350 0.176968
355 0.186086
360 0.219651
365 0.170832
370 0.141896
375 0.196268
380 0.172026
385 0.194879
390 0.191523
395 0.161606
400 0.170575
405 0.209124
410 0.202859
415 0.233961
420 0.220727
425 0.253354
430 0.312948
435 0.412168
440 0.532263
445 16.718
450 261.142
455 353.173
460 80.0159
465 9.99508
470 1.91067
475 1.01637
480 0.855024
485 0.901069
490 0.805889
495 0.678899
500 0.629261
505 0.699387
510 0.655808
515 0.927321
520 1.716
525 2.27601
530 1.95954
535 1.86543
540 1.65169
545 1.11679
550 0.678049
555 0.565146
560 0.554287
565 0.455437
570 0.415405
575 0.38709
580 0.365558
585 0.247125
590 0.283094
595 0.20681
600 0.679844
Ex : 463
200 0.1589
205 0.163833
210 0.142248
215 0.164535
220 0.126013
225 0.175656
230 0.165706
235 0.145482
240 0.136967
245 0.160233
250 0.144481
255 0.122387
260 0.124832
265 0.139934
270 0.209177
275 0.18987
280 0.139565
285 0.156553
290 0.151506
295 0.167201
300 0.154004
305 0.167972
310 0.17397
315 0.17742
320 0.181203
325 0.174997
330 0.176735
335 0.195611
340 0.182055
345 0.211625
350 0.164461
355 0.182031
360 0.194538
365 0.181462
370 0.196175
375 0.188142
380 0.227841
385 0.145342
390 0.158969
395 0.172603
400 0.138643
405 0.187538
410 0.20868
415 0.209123
420 0.188883
425 0.227835
430 0.270945
435 0.280585
440 0.320343
445 0.522453
450 15.046
455 237.28
460 346.881
465 82.7691
470 10.271
475 1.92585
480 1.02609
485 0.834024
490 0.926224
495 0.822277
500 0.632289
505 0.641814
510 0.696707
515 0.645162
520 0.682937
525 1.40736
530 2.0925
535 1.86076
540 1.70371
545 1.71293
550 1.15671
555 0.77935
560 0.534202
565 0.431483
570 0.436282
575 0.429775
580 0.343776
585 0.265812
590 0.329466
595 0.221403
600 0.206247
Ex : 468
200 0.125307
205 0.140929
210 0.110522
215 0.139849
220 0.134506
225 0.132385
230 0.121308
235 0.16927
240 0.169575
245 0.126502
250 0.176182
255 0.165319
260 0.182437
265 0.107682
270 0.160708
275 0.139292
280 0.165091
285 0.178931
290 0.145485
295 0.120667
300 0.149775
305 0.14665
310 0.180092
315 0.14628
320 0.134343
325 0.160473
330 0.193314
335 0.155313
340 0.187488
345 0.18932
350 0.180214
355 0.188046
360 0.172105
365 0.203226
370 0.217599
375 0.177329
380 0.186544
385 0.179731
390 0.156048
395 0.177335
400 0.152911
405 0.217985
410 0.265942
415 0.194796
420 0.218527
425 0.247381
430 0.226088
435 0.237242
440 0.286374
445 0.347072
450 0.483903
455 16.1584
460 250.608
465 335.167
470 73.9128
475 9.21162
480 1.67921
485 0.955532
490 0.815256
495 0.863104
500 0.855985
505 0.591193
510 0.592557
515 0.53504
520 0.659006
525 0.687512
530 1.02847
535 1.84421
540 1.81316
545 1.5613
550 1.57847
555 1.33089
560 0.827948
565 0.586015
570 0.468572
575 0.329496
580 0.322251
585 0.287469
590 0.227569
595 0.187828
600 0.497709
Ex : 473
200 0.140977
205 0.136035
210 0.1302
215 0.110795
220 0.187862
225 0.123418
230 0.184411
235 0.21217
240 0.206934
245 0.157307
250 0.168642
255 0.17378
260 0.157566
265 0.195281
270 0.186476
275 0.149082
280 0.14394
285 0.135972
290 0.188629
295 0.167183
300 0.190969
305 0.142278
310 0.161697
315 0.187585
320 0.132657
325 0.151885
330 0.177445
335 0.178351
340 0.152086
345 0.193335
350 0.174895
355 0.204606
360 0.180997
365 0.151297
370 0.162961
375 0.217861
380 0.19477
385 0.172347
390 0.167879
395 0.189103
400 0.207941
405 0.178593
410 0.159595
415 0.138516
420 0.190942
425 0.191195
430 0.188901
435 0.228692
440 0.20922
445 0.320018
450 0.355182
455 0.548226
460 13.7137
465 210.661
470 296.146
475 68.93
480 8.5796
485 1.61337
490 0.911429
495 0.712941
500 0.800797
505 0.792196
510 0.685837
515 0.559421
520 0.593422
525 0.622445
530 0.533849
535 0.775401
540 1.49804
545 1.82474
550 1.4807
555 1.3011
560 1.32334
565 1.00524
570 0.532801
575 0.401964
580 0.299568
585 0.259214
590 0.22915
595 0.234518
600 0.363307
Ex : 478
200 0.167116
205 0.210186
210 0.164948
215 0.168291
220 0.158768
225 0.161293
230 0.171166
235 0.167904
240 0.187173
245 0.152818
250 0.148947
255 0.166781
260 0.141602
265 0.175865
270 0.146088
275 0.11323
280 0.132611
285 0.150316
290 0.212483
295 0.158736
300 0.181865
305 0.177852
310 0.195683
315 0.187498
320 0.203069
325 0.180034
330 0.217647
335 0.249344
340 0.261528
345 0.199311
350 0.229646
355 0.214882
360 0.184195
365 0.205772
370 0.189551
375 0.169303
380 0.216229
385 0.186075
390 0.21962
395 0.187409
400 0.186765
405 0.195191
410 0.189402
415 0.18655
420 0.193671
425 0.209665
430 0.24168
435 0.224796
440 0.31097
445 0.232199
450 0.321954
455 0.429812
460 0.61731
465 16.6995
470 253.82
475 366.764
480 88.048
485 10.8795
490 1.92535
495 0.966054
500 0.822773
505 0.807561
510 0.905773
515 0.707143
520 0.585635
525 0.571272
530 0.607531
535 0.569632
540 0.719188
545 1.14756
550 1.57837
555 1.46931
560 1.23614
565 1.16771
570 1.00688
575 0.601495
580 0.343671
585 0.316208
590 0.297561
595 0.250474
600 0.198085
Ex : 483
200 0.148987
205 0.191023
210 0.22233
215 0.144937
220 0.180929
225 0.162675
230 0.160888
235 0.248538
240 0.233083
245 0.165118
250 0.141657
255 0.154337
260 0.199153
265 0.198523
270 0.167191
275 0.183486
280 0.193015
285 0.175594
290 0.162144
295 0.175947
300 0.169123
305 0.139128
310 0.191501
315 0.217608
320 0.194103
325 0.194136
330 0.176275
335 0.212857
340 0.23751
345 0.271356
350 0.21085
355 0.228099
360 0.244974
365 0.245226
370 0.263168
375 0.18326
380 0.247249
385 0.218335
390 0.23584
395 0.202744
400 0.226925
405 0.169615
410 0.191003
415 0.246588
420 0.176237
425 0.234347
430 0.254614
435 0.215126
440 0.225367
445 0.258396
450 0.266823
455 0.33017
460 0.370439
465 0.681139
470 12.7325
475 214.409
480 329.839
485 79.5167
490 9.84531
495 1.79736
500 0.902738
505 0.816385
510 0.720276
515 0.776759
520 0.607482
525 0.616647
530 0.542384
535 0.474563
540 0.563582
545 0.645219
550 0.875542
555 1.38511
560 1.53649
565 1.23099
570 1.11904
575 0.982732
580 0.628966
585 0.416591
590 0.354373
595 0.25277
600 0.204333
Ex : 488
200 0.171529
205 0.202369
210 0.169992
215 0.175161
220 0.181034
225 0.194474
230 0.181535
235 0.220968
240 0.353495
245 0.290696
250 0.234072
255 0.20845
260 0.199492
265 0.189473
270 0.203989
275 0.183227
280 0.183828
285 0.174722
290 0.14551
295 0.251657
300 0.18376
305 0.226162
310 0.188643
315 0.223992
320 0.226161
325 0.263693
330 0.17423
335 0.182543
340 0.228397
345 0.241089
350 0.274487
355 0.21824
360 0.261214
365 0.244465
370 0.21044
375 0.212902
380 0.274653
385 0.263731
390 0.23499
395 0.261107
400 0.245694
405 0.218582
410 0.235612
415 0.238223
420 0.260496
425 0.216407
430 0.206432
435 0.27842
440 0.285682
445 0.238297
450 0.270769
455 0.284895
460 0.332941
465 0.431675
470 0.686007
475 14.9984
480 261.827
485 376.669
490 82.1418
495 10.0951
500 1.7834
505 0.917957
510 0.685061
515 0.6955
520 0.84645
525 0.743813
530 0.682783
535 0.478942
540 0.51182
545 0.481522
550 0.533313
555 0.614694
560 1.11012
565 1.33987
570 1.10205
575 0.966166
580 0.771785
585 0.727063
590 0.357076
595 0.296976
600 0.469283
Ex : 493
200 0.153085
205 0.160691
210 0.200134
215 0.156703
220 0.171242
225 0.206992
230 0.179735
235 0.189222
240 0.38938
245 0.366433
250 0.239351
255 0.175869
260 0.209202
265 0.195353
270 0.205068
275 0.202146
280 0.199215
285 0.171192
290 0.20212
295 0.230175
300 0.21298
305 0.191702
310 0.207089
315 0.255957
320 0.211003
325 0.24604
330 0.271498
335 0.230813
340 0.234879
345 0.176412
350 0.224572
355 0.252271
360 0.19728
365 0.238114
370 0.222382
375 0.247151
380 0.200477
385 0.198538
390 0.171078
395 0.320688
400 0.224241
405 0.190403
410 0.217197
415 0.266502
420 0.256476
425 0.217964
430 0.26856
435 0.215657
440 0.244237
445 0.24733
450 0.27582
455 0.288974
460 0.345023
465 0.423794
470 0.468677
475 0.541631
480 13.7849
485 225.154
490 344.868
495 83.3417
500 10.2799
505 1.68958
510 0.792185
515 0.709435
520 0.76635
525 0.832073
530 0.79887
535 0.65789
540 0.533264
545 0.472494
550 0.494047
555 0.505688
560 0.482879
565 0.692984
570 1.13175
575 1.09137
580 0.85979
585 0.774309
590 0.529447
595 0.481478
600 0.438096
Ex : 498
200 0.204969
205 0.190025
210 0.221845
215 0.151627
220 0.279604
225 0.232327
230 0.217079
235 0.210027
240 0.299957
245 0.501379
250 0.260975
255 0.180356
260 0.165522
265 0.195694
270 0.2061
275 0.241967
280 0.186371
285 0.188881
290 0.230928
295 0.222972
300 0.205386
305 0.190701
310 0.222649
315 0.235997
320 0.238802
325 0.22741
330 0.28559
335 0.241326
340 0.179721
345 0.25454
350 0.20783
355 0.239287
360 0.262125
365 0.284455
370 0.340056
375 0.235676
380 0.257408
385 0.278756
390 0.253172
395 0.218927
400 0.2204
405 0.24449
410 0.21799
415 0.216847
420 0.310859
425 0.260772
430 0.227516
435 0.252719
440 0.224146
445 0.292468
450 0.255376
455 0.310438
460 0.34879
465 0.331884
470 0.442146
475 0.509932
480 0.756182
485 24.733
490 322.59
495 412.404
500 95.3428
505 11.7147
510 1.9794
515 0.901185
520 0.831076
525 0.698392
530 0.843108
535 0.798094
540 0.731286
545 0.570063
550 0.45707
555 0.453687
560 0.524727
565 0.507102
570 0.564282
575 0.884963
580 0.894083
585 0.682043
590 0.588732
595 0.598959
600 0.312283
Ex : 503
200 0.206152
205 0.206177
210 0.22401
215 0.227142
220 0.224096
225 0.20375
230 0.256561
235 0.204364
240 0.210265
245 0.519166
250 0.443674
255 0.242424
260 0.206762
265 0.247513
270 0.256503
275 0.188019
280 0.215229
285 0.256663
290 0.179334
295 0.235892
300 0.275318
305 0.236308
310 0.304961
315 0.255146
320 0.237859
325 0.267615
330 0.247219
335 0.262918
340 0.271448
345 0.261751
350 0.303896
355 0.303731
360 0.297294
365 0.267417
370 0.290607
375 0.248693
380 0.212084
385 0.283173
390 0.257777
395 0.230136
400 0.246759
405 0.304093
410 0.280548
415 0.263741
420 0.234036
425 0.2049
430 0.242906
435 0.262372
440 0.250829
445 0.284476
450 0.321919
455 0.307667
460 0.305858
465 0.362373
470 0.332895
475 0.370647
480 0.557518
485 0.661853
490 16.6721
495 290.306
500 443.621
505 106.449
510 13.0594
515 2.10597
520 0.882359
525 0.766988
530 0.797139
535 0.781937
540 0.89076
545 0.630288
550 0.540992
555 0.490048
560 0.446507
565 0.404269
570 0.436626
575 0.532135
580 0.65865
585 0.980762
590 0.795545
595 0.596001
600 0.257213
Ex : 508
200 0.207692
205 0.186897
210 0.233127
215 0.245971
220 0.221049
225 0.19946
230 0.259723
235 0.220441
240 0.28141
245 0.431247
250 0.629312
255 0.328607
260 0.15635
265 0.222397
270 0.301611
275 0.254605
280 0.205894
285 0.211863
290 0.209196
295 0.259252
300 0.316415
305 0.314191
310 0.301064
315 0.226632
320 0.239741
325 0.291309
330 0.272185
335 0.349505
340 0.333366
345 0.292318
350 0.362273
355 0.315395
360 0.281758
365 0.285646
370 0.223527
375 0.25862
380 0.248593
385 0.253345
390 0.281064
395 0.353763
400 0.28382
405 0.239373
410 0.257638
415 0.224896
420 0.234745
425 0.221296
430 0.298726
435 0.281758
440 0.351997
445 0.375058
450 0.265345
455 0.355638
460 0.307839
465 0.332513
470 0.295376
475 0.344239
480 0.479873
485 0.521526
490 0.60047
495 17.2266
500 252.432
505 344.113
510 80.3837
515 9.90766
520 1.76102
525 0.922814
530 0.818864
535 0.70994
540 0.711574
545 0.802276
550 0.599226
555 0.533551
560 0.434899
565 0.486317
570 0.448663
575 0.463998
580 0.393724
585 0.489465
590 0.713485
595 0.741397
600 0.225863
Ex : 513
200 0.227066
205 0.216321
210 0.189349
215 0.148584
220 0.216843
225 0.276574
230 0.203842
235 0.305764
240 0.261818
245 0.208492
250 0.74592
255 0.544789
260 0.312743
265 0.242706
270 0.281719
275 0.320783
280 0.249156
285 0.224885
290 0.297153
295 0.27173
300 0.250952
305 0.230986
310 0.298322
315 0.354046
320 0.253516
325 0.311802
330 0.300584
335 0.300306
340 0.382335
345 0.311031
350 0.365774
355 0.318066
360 0.313724
365 0.33419
370 0.293478
375 0.316308
380 0.286065
385 0.288644
390 0.274657
395 0.300112
400 0.285617
405 0.301584
410 0.295679
415 0.300122
420 0.249203
425 0.259134
430 0.29023
435 0.252
440 0.279391
445 0.332266
450 0.287524
455 0.21626
460 0.28756
465 0.337747
470 0.404965
475 0.385463
480 0.39606
485 0.418747
490 0.516802
495 0.665247
500 17.7805
505 297.852
510 423.054
515 99.3978
520 12.1788
525 2.09079
530 0.831698
535 0.68864
540 0.649457
545 0.666855
550 0.849921
555 0.736452
560 0.626239
565 0.445672
570 0.484861
575 0.477164
580 0.413203
585 0.419214
590 0.388974
595 0.559548
600 0.537601
Ex : 518
200 0.299199
205 0.194756
210 0.204486
215 0.219245
220 0.221468
225 0.281304
230 0.247952
235 0.175501
240 0.16553
245 0.162607
250 0.452081
255 0.977053
260 0.39723
265 0.264812
270 0.303543
275 0.296664
280 0.274596
285 0.22299
290 0.299462
295 0.285259
300 0.299211
305 0.298495
310 0.269771
315 0.27587
320 0.266314
325 0.329594
330 0.391122
335 0.298134
340 0.348401
345 0.313531
350 0.309565
355 0.31213
360 0.356648
365 0.30012
370 0.341023
375 0.307493
380 0.281245
385 0.225048
390 0.323179
395 0.236865
400 0.252136
405 0.225573
410 0.265705
415 0.264707
420 0.23273
425 0.287025
430 0.270969
435 0.31413
440 0.235826
445 0.314543
450 0.341434
455 0.248944
460 0.318715
465 0.278413
470 0.361955
475 0.324173
480 0.301417
485 0.383918
490 0.438845
495 0.431239
500 0.673377
505 16.3833
510 262.248
515 439.07
520 109.123
525 13.3937
530 2.12112
535 0.806905
540 0.670103
545 0.62295
550 0.603661
555 0.810932
560 0.786656
565 0.674584
570 0.558857
575 0.488726
580 0.470178
585 0.536251
590 0.433497
595 0.436453
600 0.313133
Ex : 523
200 0.231947
205 0.198513
210 0.211298
215 0.240967
220 0.177536
225 0.274295
230 0.162057
235 0.255499
240 0.319995
245 0.230712
250 0.2765
255 1.01258
260 0.674032
265 0.274452
270 0.240558
275 0.228406
280 0.332137
285 0.379255
290 0.344135
295 0.340526
300 0.313427
305 0.383215
310 0.30891
315 0.33913
320 0.35436
325 0.394846
330 0.297446
335 0.264267
340 0.376251
345 0.257996
350 0.365785
355 0.341531
360 0.346416
365 0.435188
370 0.335816
375 0.385376
380 0.320177
385 0.294932
390 0.188911
395 0.233916
400 0.259386
405 0.249453
410 0.286393
415 0.287284
420 0.241874
425 0.360124
430 0.350201
435 0.263654
440 0.306761
445 0.322594
450 0.327306
455 0.295163
460 0.328196
465 0.313284
470 0.345678
475 0.32615
480 0.333378
485 0.315618
490 0.414925
495 0.365387
500 0.362543
505 0.544331
510 11.4653
515 181.076
520 290.324
525 76.202
530 9.5019
535 1.65555
540 0.683056
545 0.607349
550 0.560183
555 0.566129
560 0.733198
565 0.871666
570 0.67396
575 0.662421
580 0.593193
585 0.491266
590 0.345842
595 0.391187
600 0.193597
Ex : 528
200 0.267335
205 0.200296
210 0.225092
215 0.214412
220 0.303561
225 0.25594
230 0.227145
235 0.1659
240 0.205697
245 0.223147
250 0.263456
255 0.554607
260 1.22502
265 0.447365
270 0.23867
275 0.275264
280 0.325768
285 0.401413
290 0.308388
295 0.310609
300 0.368661
305 0.285036
310 0.367158
315 0.291557
320 0.352483
325 0.344387
330 0.34098
335 0.283187
340 0.305181
345 0.361089
350 0.313934
355 0.257993
360 0.35635
365 0.380036
370 0.329649
375 0.391398
380 0.350664
385 0.325453
390 0.317112
395 0.280503
400 0.380722
405 0.298487
410 0.236911
415 0.378839
420 0.309414
425 0.260942
430 0.268542
435 0.335057
440 0.238012
445 0.354291
450 0.307928
455 0.31093
460 0.270611
465 0.338728
470 0.318666
475 0.341968
480 0.406167
485 0.329211
490 0.331495
495 0.330797
500 0.364716
505 0.543778
510 0.678735
515 18.4412
520 257.875
525 359.028
530 90.4095
535 10.962
540 1.80861
545 0.782269
550 0.607883
555 0.657441
560 0.635
565 0.682148
570 0.8908
575 0.844279
580 0.482727
585 0.39248
590 0.438166
595 0.590622
600 0.0801164
Ex : 533
200 0.196865
205 0.304803
210 0.267481
215 0.245518
220 0.24624
225 0.19026
230 0.235529
235 0.226022
240 0.232338
245 0.26847
250 0.263974
255 0.38657
260 1.09259
265 0.829354
270 0.291797
275 0.28569
280 0.333941
285 0.417193
290 0.419202
295 0.342253
300 0.463664
305 0.451672
310 0.37902
315 0.365387
320 0.56658
325 0.31102
330 0.340799
335 0.387429
340 0.363671
345 0.236057
350 0.320106
355 0.389758
360 0.374905
365 0.348946
370 0.268909
375 0.302059
380 0.327609
385 0.280713
390 0.22811
395 0.238289
400 0.222576
405 0.230676
410 0.260295
415 0.23932
420 0.296437
425 0.319406
430 0.332715
435 0.306693
440 0.307414
445 0.26752
450 0.322409
455 0.317134
460 0.272601
465 0.314187
470 0.287041
475 0.456214
480 0.219831
485 0.365184
490 0.311835
495 0.331919
500 0.403631
505 0.399051
510 0.436799
515 0.642325
520 12.8243
525 204.552
530 299.321
535 75.3951
540 9.30318
545 1.67556
550 0.861772
555 0.678587
560 0.648914
565 0.638837
570 0.835029
575 0.960005
580 0.674422
585 0.648464
590 0.603771
595 0.508397
600 0.498751
Ex : 538
200 0.235708
205 0.306309
210 0.22698
215 0.22805
220 0.362333
225 0.223644
230 0.230506
235 0.218188
240 0.177778
245 0.263723
250 0.219113
255 0.2694
260 0.588506
265 1.63335
270 0.658673
275 0.346953
280 0.309641
285 0.367728
290 0.576582
295 0.465862
300 0.396003
305 0.399611
310 0.357967
315 0.410593
320 0.413642
325 0.404005
330 0.419207
335 0.435907
340 0.402681
345 0.369207
350 0.421737
355 0.335628
360 0.304816
365 0.267335
370 0.349362
375 0.309144
380 0.370287
385 0.294091
390 0.381787
395 0.296237
400 0.198599
405 0.242188
410 0.411722
415 0.292971
420 0.242872
425 0.251886
430 0.232856
435 0.302282
440 0.333075
445 0.361283
450 0.231748
455 0.335426
460 0.339563
465 0.264137
470 0.271538
475 0.245924
480 0.321144
485 0.316311
490 0.427712
495 0.324523
500 0.298363
505 0.450717
510 0.394308
515 0.50379
520 0.71331
525 10.1995
530 192.626
535 332.25
540 93.3258
545 11.4393
550 1.87771
555 0.790777
560 0.606117
565 0.780979
570 0.750542
575 0.939549
580 0.994229
585 0.868463
590 0.779258
595 0.640969
600 0.668358
Ex : 543
200 0.25057
205 0.331516
210 0.267058
215 0.225153
220 0.221272
225 0.224843
230 0.249849
235 0.315388
240 0.249174
245 0.22368
250 0.21507
255 0.227962
260 0.271614
265 1.37392
270 1.17136
275 0.437886
280 0.335454
285 0.338058
290 0.379343
295 0.51275
300 0.46336
305 0.419633
310 0.375107
315 0.412202
320 0.496328
325 0.47839
330 0.36233
335 0.333624
340 0.397492
345 0.351126
350 0.292539
355 0.329373
360 0.367028
365 0.359157
370 0.329357
375 0.375499
380 0.279498
385 0.369429
390 0.338732
395 0.286314
400 0.318798
405 0.296472
410 0.341212
415 0.236617
420 0.296724
425 0.225794
430 0.366894
435 0.31149
440 0.286912
445 0.274414
450 0.424464
455 0.234484
460 0.340347
465 0.347133
470 0.386812
475 0.311188
480 0.312117
485 0.273407
490 0.25028
495 0.413936
500 0.296448
505 0.327089
510 0.388854
515 0.523863
520 0.462982
525 0.550458
530 8.59248
535 167.101
540 288.018
545 80.9853
550 10.024
555 1.73021
560 0.660497
565 0.746903
570 0.73726
575 0.799708
580 0.772282
585 0.762681
590 0.883827
595 1.01202
600 0.448681
Ex : 548
200 0.274096
205 0.292778
210 0.381643
215 0.232058
220 0.2163
225 0.250338
230 0.306586
235 0.364505
240 0.25875
245 0.259769
250 0.349048
255 0.308366
260 0.286794
265 0.819813
270 1.92088
275 0.725509
280 0.431238
285 0.378352
290 0.366849
295 0.527029
300 0.524898
305 0.515907
310 0.469611
315 0.41283
320 0.437382
325 0.449797
330 0.420192
335 0.425147
340 0.310685
345 0.370972
350 0.468005
355 0.486787
360 0.347193
365 0.333348
370 0.391388
375 0.36689
380 0.297046
385 0.317106
390 0.425245
395 0.272751
400 0.4161
405 0.280304
410 0.301225
415 0.381832
420 0.306173
425 0.29584
430 0.452282
435 0.357626
440 0.375183
445 0.358208
450 0.329875
455 0.311303
460 0.378585
465 0.390693
470 0.3785
475 0.388326
480 0.337481
485 0.334117
490 0.435744
495 0.360395
500 0.403624
505 0.343091
510 0.382887
515 0.418468
520 0.454738
525 0.58387
530 0.688716
535 15.2177
540 265.194
545 411.037
550 108.487
555 13.3956
560 2.2262
565 0.901484
570 0.821063
575 0.796366
580 0.579823
585 0.777362
590 0.987153
595 0.801669
600 1.03618
Ex : 553
200 0.246332
205 0.311235
210 0.326867
215 0.338264
220 0.277397
225 0.258953
230 0.390063
235 0.281725
240 0.301516
245 0.32539
250 0.350867
255 0.326923
260 0.235651
265 0.327352
270 2.15124
275 1.95994
280 0.577975
285 0.430309
290 0.51124
295 0.594404
300 0.502954
305 0.603129
310 0.458428
315 0.375333
320 0.332659
325 0.403558
330 0.352986
335 0.45678
340 0.435832
345 0.411155
350 0.295098
355 0.522066
360 0.324677
365 0.381234
370 0.413339
375 0.392919
380 0.517937
385 0.391281
390 0.287085
395 0.346631
400 0.385995
405 0.331729
410 0.363057
415 0.302693
420 0.341882
425 0.461773
430 0.255621
435 0.442223
440 0.328547
445 0.323831
450 0.320754
455 0.427732
460 0.306056
465 0.338111
470 0.285141
475 0.378219
480 0.381303
485 0.331374
490 0.362483
495 0.442519
500 0.339968
505 0.393698
510 0.391781
515 0.389077
520 0.405339
525 0.481964
530 0.531929
535 0.624512
540 9.38594
545 171.714
550 280.158
555 75.8393
560 9.46877
565 1.73592
570 0.836382
575 0.666286
580 0.654495
585 0.658817
590 0.723642
595 0.808385
600 0.640833
Ex : 558
200 0.266296
205 0.322321
210 0.32804
215 0.296075
220 0.286215
225 0.216112
230 0.409373
235 0.33017
240 0.321854
245 0.268075
250 0.255987
255 0.325907
260 0.391218
265 0.357114
270 0.940753
275 2.37416
280 0.766879
285 0.398532
290 0.466049
295 0.471395
300 0.667188
305 0.567164
310 0.572282
315 0.430944
320 0.490586
325 0.404915
330 0.436395
335 0.493073
340 0.439986
345 0.501008
350 0.396988
355 0.494265
360 0.323488
365 0.324027
370 0.333975
375 0.28713
380 0.372532
385 0.279996
390 0.409536
395 0.302748
400 0.281721
405 0.436492
410 0.393299
415 0.332103
420 0.395215
425 0.327535
430 0.329568
435 0.400246
440 0.226336
445 0.361975
450 0.326158
455 0.316727
460 0.487037
465 0.408285
470 0.262615
475 0.45188
480 0.378004
485 0.395556
490 0.378335
495 0.377625
500 0.373188
505 0.346718
510 0.440923
515 0.33181
520 0.458494
525 0.420489
530 0.434752
535 0.489898
540 0.656124
545 8.56462
550 165.622
555 317.99
560 96.0644
565 11.8857
570 2.14513
575 0.949181
580 0.742995
585 0.764002
590 0.71033
595 0.576697
600 1.04045
Ex : 563
200 0.358164
205 0.369465
210 0.43953
215 0.23895
220 0.28834
225 0.284448
230 0.330441
235 0.299565
240 0.457214
245 0.323906
250 0.261584
255 0.19962
260 0.22234
265 0.272758
270 0.242817
275 2.07978
280 1.56107
285 0.429249
290 0.427031
295 0.423646
300 0.511446
305 0.573679
310 0.57268
315 0.461892
320 0.464845
325 0.423022
330 0.539024
335 0.537842
340 0.338538
345 0.481756
350 0.394877
355 0.387444
360 0.401157
365 0.417105
370 0.312234
375 0.352455
380 0.420479
385 0.323184
390 0.46669
395 0.398136
400 0.398988
405 0.452881
410 0.411415
415 0.321637
420 0.272562
425 0.378285
430 0.376132
435 0.297275
440 0.437071
445 0.331906
450 0.28821
455 0.336488
460 0.304062
465 0.326687
470 0.304721
475 0.348365
480 0.417214
485 0.298912
490 0.359167
495 0.442023
500 0.397463
505 0.335824
510 0.340932
515 0.320088
520 0.320783
525 0.34191
530 0.393364
535 0.479971
540 0.362341
545 0.630735
550 7.99258
555 187.582
560 366.422
565 108.414
570 13.2042
575 2.2054
580 0.855862
585 0.640178
590 0.509109
595 0.603191
600 0.392862
Ex : 568
200 0.214233
205 0.348529
210 0.274044
215 0.338682
220 0.294046
225 0.313175
230 0.295896
235 0.342874
240 0.303564
245 0.338039
250 0.322989
255 0.295635
260 0.299423
265 0.31891
270 0.339413
275 0.764913
280 2.88511
285 1.06197
290 0.383585
295 0.329631
300 0.394422
305 0.518129
310 0.543951
315 0.408308
320 0.423001
325 0.398006
330 0.471479
335 0.553084
340 0.409397
345 0.464381
350 0.438519
355 0.393483
360 0.508364
365 0.316786
370 0.430095
375 0.363889
380 0.321474
385 0.383231
390 0.472474
395 0.365699
400 0.399129
405 0.32483
410 0.315829
415 0.477437
420 0.343008
425 0.345631
430 0.35932
435 0.378484
440 0.392007
445 0.323111
450 0.317656
455 0.398324
460 0.286875
465 0.330621
470 0.323935
475 0.292737
480 0.405011
485 0.371864
490 0.284895
495 0.385887
500 0.409543
505 0.425799
510 0.393892
515 0.4557
520 0.381492
525 0.401543
530 0.483334
535 0.442707
540 0.457542
545 0.556925
550 0.563064
555 9.23177
560 183.233
565 369.18
570 122.337
575 15.0617
580 2.44303
585 0.822348
590 0.669592
595 0.500283
600 0.777489
Ex : 573
200 0.353349
205 0.386473
210 0.293371
215 0.223018
220 0.335198
225 0.295594
230 0.298302
235 0.30989
240 0.238042
245 0.310359
250 0.309625
255 0.341295
260 0.348389
265 0.273002
270 0.388226
275 0.364755
280 2.32654
285 2.4892
290 0.584007
295 0.350753
300 0.424688
305 0.386165
310 0.510742
315 0.462006
320 0.415513
325 0.413657
330 0.381406
335 0.388564
340 0.469374
345 0.334237
350 0.496359
355 0.320776
360 0.349353
365 0.43845
370 0.423554
375 0.395523
380 0.367064
385 0.446013
390 0.304425
395 0.487863
400 0.394136
405 0.340436
410 0.494953
415 0.395412
420 0.282534
425 0.262495
430 0.312797
435 0.362794
440 0.372667
445 0.315636
450 0.298284
455 0.346624
460 0.381725
465 0.449936
470 0.349994
475 0.393979
480 0.411973
485 0.344713
490 0.29435
495 0.335692
500 0.475439
505 0.397559
510 0.256353
515 0.306866
520 0.33604
525 0.352677
530 0.359461
535 0.362486
540 0.416145
545 0.58273
550 0.46917
555 0.565649
560 5.62414
565 129.851
570 255.89
575 77.6283
580 9.83845
585 1.72227
590 0.589125
595 0.5602
600 0.547132
Ex : 578
200 0.274785
205 0.243383
210 0.28701
215 0.349752
220 0.279392
225 0.261151
230 0.305614
235 0.248885
240 0.349559
245 0.396822
250 0.268308
255 0.380594
260 0.28028
265 0.291831
270 0.337046
275 0.378972
280 1.06093
285 3.37655
290 1.11273
295 0.414605
300 0.282817
305 0.365704
310 0.449712
315 0.493707
320 0.499639
325 0.565127
330 0.53699
335 0.545113
340 0.460359
345 0.409382
350 0.395632
355 0.462694
360 0.32331
365 0.417346
370 0.414021
375 0.424915
380 0.310148
385 0.347409
390 0.328962
395 0.342675
400 0.340205
405 0.357007
410 0.357872
415 0.381309
420 0.353549
425 0.315947
430 0.280812
435 0.275743
440 0.257137
445 0.33828
450 0.521026
455 0.372805
460 0.453809
465 0.32939
470 0.298282
475 0.37835
480 0.442067
485 0.340333
490 0.351843
495 0.343912
500 0.476209
505 0.333805
510 0.365738
515 0.335453
520 0.360636
525 0.428354
530 0.350713
535 0.313999
540 0.39908
545 0.527052
550 0.5001
555 0.49314
560 0.627637
565 6.77379
570 115.349
575 205.676
580 63.427
585 7.88063
590 1.3763
595 0.493267
600 0.771003
Ex : 583
200 0.249093
205 0.245616
210 0.271207
215 0.347258
220 0.253983
225 0.370827
230 0.366831
235 0.257215
240 0.262149
245 0.311007
250 0.31572
255 0.336992
260 0.275898
265 0.272163
270 0.386131
275 0.270923
280 0.367555
285 2.55537
290 2.51155
295 0.594467
300 0.373393
305 0.382513
310 0.428654
315 0.616969
320 0.79578
325 0.439427
330 0.487171
335 0.377386
340 0.413047
345 0.405272
350 0.412473
355 0.364132
360 0.414769
365 0.463299
370 0.392276
375 0.413707
380 0.359726
385 0.396396
390 0.437355
395 0.403691
400 0.292716
405 0.319397
410 0.402039
415 0.354323
420 0.454669
425 0.399812
430 0.373023
435 0.388749
440 0.359481
445 0.37991
450 0.463794
455 0.341931
460 0.452926
465 0.466606
470 0.42373
475 0.431725
480 0.387958
485 0.350198
490 0.348731
495 0.395345
500 0.390423
505 0.450127
510 0.314633
515 0.348547
520 0.466021
525 0.311777
530 0.368401
535 0.444809
540 0.390364
545 0.37453
550 0.362626
555 0.335683
560 0.454792
565 0.695083
570 4.19045
575 102.798
580 205.388
585 57.9076
590 7.19725
595 1.3154
600 0.386413
Ex : 588
200 0.300856
205 0.309545
210 0.385304
215 0.353399
220 0.269519
225 0.289503
230 0.311266
235 0.222419
240 0.346006
245 0.365108
250 0.349328
255 0.302184
260 0.295441
265 0.221468
270 0.310658
275 0.217752
280 0.281812
285 1.1226
290 3.86589
295 1.25639
300 0.45623
305 0.335159
310 0.414096
315 0.44094
320 0.422758
325 0.474486
330 0.42197
335 0.370066
340 0.480086
345 0.420063
350 0.548053
355 0.516607
360 0.435528
365 0.380927
370 0.389113
375 0.377313
380 0.29875
385 0.304162
390 0.428532
395 0.404254
400 0.408269
405 0.353264
410 0.285245
415 0.363835
420 0.408013
425 0.409315
430 0.395661
435 0.448082
440 0.387967
445 0.382328
450 0.31041
455 0.311093
460 0.446463
465 0.365517
470 0.384918
475 0.342986
480 0.239062
485 0.292359
490 0.344469
495 0.305595
500 0.390024
505 0.412866
510 0.333528
515 0.363583
520 0.379515
525 0.407969
530 0.370058
535 0.396807
540 0.39065
545 0.280633
550 0.410729
555 0.390059
560 0.446719
565 0.447777
570 0.697467
575 4.05289
580 126.03
585 246.202
590 64.3659
595 8.00941
600 1.64994
Ex : 593
200 0.311739
205 0.297827
210 0.464819
215 0.350222
220 0.315224
225 0.303842
230 0.368986
235 0.285881
240 0.316521
245 0.230637
250 0.283917
255 0.261079
260 0.357045
265 0.376666
270 0.37913
275 0.310924
280 0.33073
285 0.471977
290 3.27137
295 3.08571
300 0.703149
305 0.524878
310 0.40807
315 0.462387
320 0.560164
325 0.61574
330 0.42565
335 0.583695
340 0.385475
345 0.379634
350 0.588015
355 0.475001
360 0.394987
365 0.272718
370 0.292553
375 0.44126
380 0.316171
385 0.442643
390 0.514856
395 0.359503
400 0.342894
405 0.423964
410 0.402375
415 0.386649
420 0.398416
425 0.416341
430 0.399707
435 0.448989
440 0.365779
445 0.4545
450 0.339484
455 0.301466
460 0.397394
465 0.39746
470 0.451239
475 0.30556
480 0.375939
485 0.325482
490 0.435983
495 0.293703
500 0.423172
505 0.36233
510 0.402556
515 0.513778
520 0.511272
525 0.411351
530 0.399419
535 0.401951
540 0.400093
545 0.280291
550 0.351705
555 0.294346
560 0.397337
565 0.35041
570 0.457914
575 0.431681
580 4.55315
585 124.996
590 251.685
595 69.8498
600 11.2936
Ex : 598
200 0.395279
205 0.278465
210 0.32077
215 0.301488
220 0.252785
225 0.30914
230 0.32839
235 0.335826
240 0.461702
245 0.322474
250 0.281641
255 0.402489
260 0.340869
265 0.269491
270 0.318221
275 0.310905
280 0.276478
285 0.517877
290 1.25165
295 4.57177
300 1.63128
305 0.430247
310 0.436182
315 0.369902
320 0.443095
325 0.672711
330 0.644869
335 0.41536
340 0.284171
345 0.386416
350 0.292867
355 0.411097
360 0.499436
365 0.372279
370 0.483031
375 0.404494
380 0.57542
385 0.392136
390 0.367018
395 0.368766
400 0.354703
405 0.425444
410 0.448231
415 0.443234
420 0.406572
425 0.40478
430 0.333571
435 0.373551
440 0.305834
445 0.386211
450 0.412822
455 0.504065
460 0.360421
465 0.414577
470 0.33395
475 0.347268
480 0.339495
485 0.29212
490 0.43754
495 0.421142
500 0.3877
505 0.332319
510 0.429531
515 0.375928
520 0.465679
525 0.425945
530 0.320098
535 0.450801
540 0.372563
545 0.395226
550 0.383828
555 0.410036
560 0.418397
565 0.485128
570 0.389908
575 0.498756
580 0.488514
585 3.91573
590 73.7768
595 118.815
600 73.8692
Ex : 603
200 0.363493
205 0.292429
210 0.36068
215 0.307447
220 0.313443
225 0.37523
230 0.352613
235 0.285534
240 0.231429
245 0.404615
250 0.308746
255 0.469053
260 0.332088
265 0.438169
270 0.472883
275 0.33852
280 0.358019
285 0.445592
290 0.473871
295 3.43718
300 3.64884
305 0.713948
310 0.480159
315 0.395258
320 0.410764
325 0.488005
330 0.646218
335 0.458106
340 0.537972
345 0.492492
350 0.528152
355 0.440681
360 0.435973
365 0.417636
370 0.398884
375 0.424694
380 0.301754
385 0.534095
390 0.555771
395 0.448749
400 0.427895
405 0.444831
410 0.424154
415 0.363475
420 0.319579
425 0.369504
430 0.462302
435 0.398149
440 0.468924
445 0.455549
450 0.394699
455 0.472252
460 0.331018
465 0.39278
470 0.391769
475 0.477685
480 0.495964
485 0.399542
490 0.250325
495 0.500637
500 0.340612
505 0.324616
510 0.422147
515 0.431404
520 0.363073
525 0.42453
530 0.371097
535 0.316335
540 0.240372
545 0.381975
550 0.502241
555 0.398839
560 0.360446
565 0.32771
570 0.465181
575 0.308454
580 0.421278
585 0.489992
590 3.15338
595 57.7101
600 116.195
