File format V 1.0
jeu. 12. mai 16:32:57 2016
Operator : 
Comments : 

=============================================
SpectroFluorometer parameters
Mode : 3D measurement
Data : Fluorescence
Phospho. : Ordinary
Spectrum : Fluorescence

Scan speed : 2400 nm/mn
Response : 100 ms
PM Voltage : 700 V
Shutter : On

Lambda Ex. Start : 203
Lambda Ex. End : 603
Lambda Ex. Step : 5
Ex. Slit : 5 nm

Lambda Em. Start : 200
Lambda Em. End : 600
Lambda Em. Step : 5
Em. Slit : 5 nm

Repetition : 1
Decal lambda em : 10
=============================================
DATA
Ex : 203
200 10.7903
205 10.1212
210 10.2214
215 11.2946
220 7.56072
225 9.59657
230 12.2206
235 11.8266
240 10.2388
245 14.9567
250 12.1019
255 7.51727
260 8.39499
265 14.4699
270 16.0181
275 11.6125
280 16.9208
285 16.9338
290 18.5534
295 15.3653
300 16.6294
305 16.3277
310 16.2342
315 20.5799
320 21.3024
325 24.1928
330 24.9186
335 24.4348
340 21.962
345 24.8419
350 29.1591
355 34.8032
360 22.9572
365 29.1461
370 27.4824
375 34.4696
380 31.4353
385 28.9119
390 30.3914
395 31.1199
400 31.2427
405 38.9642
410 31.4965
415 33.2402
420 33.2585
425 32.1953
430 31.5416
435 30.5574
440 29.9671
445 34.2676
450 29.6707
455 33.0979
460 45.5974
465 44.2802
470 43.2104
475 39.0175
480 36.104
485 38.9989
490 37.2548
495 32.9907
500 30.1009
505 28.6122
510 25.46
515 30.7472
520 30.3643
525 28.1589
530 31.2725
535 27.1644
540 31.6551
545 33.1287
550 30.7441
555 30.2735
560 32.8121
565 28.5124
570 34.5044
575 27.3873
580 27.0953
585 24.9778
590 28.6233
595 21.2702
600 18.1189
Ex : 208
200 7.75144
205 13.0231
210 9.0492
215 13.1395
220 11.0917
225 8.58034
230 10.3043
235 11.6095
240 12.8042
245 9.58143
250 9.01494
255 9.37229
260 10.7515
265 10.5708
270 9.41651
275 12.2262
280 12.4713
285 13.0566
290 21.6871
295 19.7615
300 26.8509
305 19.9192
310 23.9442
315 24.758
320 19.0166
325 22.0707
330 24.126
335 24.7233
340 24.1968
345 23.2628
350 23.0603
355 23.593
360 20.9513
365 29.6391
370 28.7055
375 33.4718
380 30.3999
385 29.9762
390 32.8878
395 34.5566
400 33.5505
405 31.846
410 35.598
415 29.7606
420 34.1535
425 35.2721
430 40.6643
435 32.4747
440 26.6413
445 30.0489
450 29.8098
455 32.2015
460 35.0858
465 37.6223
470 36.8135
475 36.2975
480 35.1592
485 32.1343
490 32.6851
495 34.3041
500 24.5133
505 34.4909
510 29.9898
515 32.0443
520 23.6287
525 33.1703
530 38.5276
535 31.1662
540 30.0226
545 27.0195
550 31.7687
555 30.6469
560 31.0767
565 39.865
570 31.8864
575 26.6487
580 25.1612
585 24.6173
590 25.2899
595 30.3729
600 15.6859
Ex : 213
200 11.3464
205 8.19236
210 9.08533
215 14.1334
220 11.0301
225 10.1998
230 11.4871
235 10.9673
240 11.4136
245 7.64822
250 9.98876
255 8.12946
260 13.6099
265 10.9967
270 12.5456
275 11.6688
280 12.6046
285 11.536
290 16.2629
295 13.3811
300 15.6705
305 20.3201
310 25.1821
315 21.9389
320 19.2847
325 23.8269
330 24.1743
335 24.3693
340 22.4585
345 23.0451
350 26.8823
355 33.5648
360 28.5431
365 29.5706
370 27.6981
375 25.9981
380 25.7927
385 30.0941
390 37.824
395 40.6702
400 34.547
405 36.9384
410 34.1914
415 35.6222
420 29.2721
425 28.7148
430 25.5941
435 26.6208
440 31.9533
445 29.5999
450 33.323
455 34.6134
460 41.8735
465 43.5654
470 40.0753
475 38.908
480 34.2427
485 32.3553
490 32.092
495 33.502
500 27.9686
505 24.1773
510 29.9747
515 24.2709
520 31.9766
525 28.7114
530 28.3946
535 28.1563
540 29.2808
545 30.6929
550 29.376
555 36.4169
560 31.2352
565 37.2865
570 24.2262
575 25.7259
580 26.8503
585 29.047
590 26.1777
595 21.651
600 82.8129
Ex : 218
200 15.2471
205 7.19407
210 6.59936
215 7.72
220 10.9464
225 9.81577
230 12.0759
235 10.1191
240 11.8578
245 9.69227
250 12.9504
255 10.4479
260 13.2393
265 10.0152
270 10.2245
275 13.365
280 16.665
285 16.9995
290 14.106
295 18.1949
300 19.2352
305 13.5766
310 21.5435
315 19.5572
320 22.429
325 25.8752
330 23.6073
335 24.6239
340 24.9521
345 19.0389
350 29.8832
355 25.3428
360 26.4181
365 28.8437
370 31.3891
375 31.575
380 30.5201
385 27.8437
390 31.9597
395 30.4762
400 28.9628
405 33.6226
410 32.8282
415 37.9421
420 27.6664
425 39.329
430 35.0422
435 31.5768
440 28.9887
445 28.7308
450 28.6806
455 30.3286
460 37.5061
465 33.8879
470 42.1572
475 32.5291
480 31.927
485 34.0245
490 29.2843
495 27.8708
500 30.6142
505 28.0465
510 22.4376
515 26.1854
520 28.5288
525 30.6292
530 30.5006
535 33.4255
540 34.529
545 36.9152
550 33.112
555 33.8694
560 28.6585
565 29.0358
570 25.2734
575 32.5664
580 31.3746
585 26.127
590 30.8345
595 22.6215
600 22.0707
Ex : 223
200 10.7526
205 8.09169
210 11.8783
215 10.0185
220 9.6012
225 10.3012
230 8.09775
235 14.1917
240 13.7134
245 11.8667
250 15.0197
255 11.2085
260 14.3518
265 13.2572
270 10.7454
275 11.5075
280 12.5809
285 18.9709
290 18.5583
295 16.0582
300 14.4853
305 20.2915
310 18.2448
315 19.1759
320 19.6378
325 22.4521
330 21.8733
335 23.9992
340 20.5796
345 23.0825
350 29.0884
355 27.3761
360 32.7539
365 26.417
370 29.0502
375 27.5745
380 34.7606
385 31.727
390 28.2916
395 30.8303
400 30.9348
405 32.7397
410 32.4013
415 30.9754
420 28.8179
425 28.7554
430 34.8738
435 33.4071
440 30.5497
445 38.7473
450 38.4443
455 34.7103
460 33.7934
465 31.528
470 43.6492
475 35.9944
480 33.5563
485 30.1061
490 35.6828
495 31.8884
500 24.9836
505 26.0287
510 21.2996
515 29.9654
520 30.7644
525 29.5401
530 28.8559
535 31.4268
540 31.213
545 35.6665
550 30.4474
555 28.3859
560 30.7072
565 35.6144
570 33.8514
575 35.2734
580 30.2754
585 25.2378
590 26.7995
595 25.9484
600 2.95283
Ex : 228
200 12.7512
205 9.74913
210 7.28103
215 7.75003
220 12.3897
225 14.9268
230 8.25371
235 5.60204
240 7.46217
245 8.09111
250 7.77669
255 7.59901
260 10.517
265 9.1874
270 12.627
275 11.9163
280 11.416
285 13.8118
290 16.3298
295 13.9958
300 12.8796
305 11.2704
310 15.3583
315 21.1806
320 23.9667
325 23.4099
330 23.5309
335 26.1931
340 25.4163
345 28.7018
350 33.8859
355 30.6053
360 28.3056
365 29.147
370 27.7921
375 23.4445
380 25.7092
385 29.5072
390 23.5852
395 28.9551
400 27.6107
405 25.6373
410 30.1975
415 32.3099
420 31.5832
425 29.9886
430 28.2893
435 35.2882
440 29.0446
445 29.2739
450 59.0613
455 107.142
460 98.5553
465 47.6456
470 35.7227
475 31.8848
480 33.5461
485 25.5996
490 29.2068
495 26.804
500 29.2955
505 26.7827
510 29.6385
515 20.7623
520 30.652
525 33.2149
530 30.2385
535 29.7217
540 31.7058
545 32.1285
550 34.0219
555 36.1957
560 33.9255
565 30.03
570 34.7415
575 32.7172
580 34.2464
585 27.9634
590 21.4796
595 27.4057
600 22.6151
Ex : 233
200 10.9423
205 8.46084
210 7.09173
215 7.84404
220 8.21201
225 21.6073
230 38.3761
235 17.2474
240 10.9369
245 8.8692
250 7.99273
255 9.72118
260 7.7362
265 12.149
270 11.6009
275 12.9471
280 13.7847
285 12.9278
290 13.9188
295 13.1855
300 18.2046
305 20.751
310 18.5742
315 18.1039
320 22.6348
325 24.2142
330 25.8863
335 28.2865
340 27.8344
345 24.7641
350 24.9732
355 27.1144
360 26.8109
365 30.4583
370 27.6903
375 26.3454
380 31.3841
385 28.7289
390 28.8635
395 26.2485
400 35.0709
405 32.2604
410 30.7366
415 30.2502
420 25.2148
425 31.5866
430 25.4305
435 31.5832
440 26.3745
445 24.2584
450 32.2607
455 74.3964
460 235.471
465 377.032
470 252.958
475 77.0656
480 36.8329
485 32.1431
490 29.2374
495 24.47
500 27.4773
505 26.9818
510 31.843
515 29.9383
520 26.6108
525 26.5366
530 27.2912
535 28.5628
540 32.6135
545 29.9007
550 33.2079
555 30.3524
560 29.6168
565 28.5698
570 29.0366
575 29.8943
580 27.5762
585 26.4019
590 23.6188
595 25.124
600 30.3313
Ex : 238
200 6.90157
205 7.82204
210 7.7191
215 7.88056
220 6.30843
225 11.6686
230 61.3543
235 93.8397
240 28.6528
245 9.37872
250 6.61119
255 9.13004
260 9.33078
265 12.3904
270 10.2927
275 13.8015
280 11.5421
285 14.402
290 19.8724
295 14.7867
300 15.1702
305 16.19
310 16.8036
315 16.8162
320 22.0214
325 23.0501
330 25.3205
335 21.9365
340 23.9974
345 26.9051
350 22.6317
355 21.1058
360 26.5179
365 27.6063
370 22.7711
375 24.89
380 27.029
385 25.093
390 26.3715
395 29.3575
400 26.1069
405 26.8254
410 26.1119
415 24.176
420 27.6637
425 24.1627
430 23.9013
435 26.16
440 21.3075
445 29.6621
450 26.5389
455 25.6757
460 40.5907
465 215.18
470 480.619
475 625.515
480 379.205
485 95.1756
490 35.0977
495 25.2697
500 27.7367
505 26.885
510 31.1564
515 33.2298
520 29.4456
525 27.4432
530 24.8368
535 24.0847
540 28.7254
545 29.2182
550 27.154
555 30.9252
560 30.6062
565 27.1361
570 31.6122
575 23.9362
580 24.8072
585 24.295
590 24.2823
595 21.8063
600 7.02327
Ex : 243
200 6.15686
205 6.29755
210 5.67052
215 5.37876
220 8.62834
225 7.45056
230 11.1931
235 96.3657
240 131.37
245 35.0489
250 10.7032
255 9.56793
260 10.1532
265 9.14571
270 10.6238
275 10.4558
280 10.0488
285 11.2575
290 15.5504
295 11.9624
300 12.6416
305 16.7088
310 16.46
315 18.2679
320 17.7148
325 17.8409
330 18.7982
335 20.1306
340 20.9215
345 21.0236
350 22.7543
355 23.4818
360 20.8408
365 24.0539
370 24.3392
375 23.9032
380 22.4539
385 23.5445
390 27.3229
395 23.5434
400 23.279
405 23.3862
410 20.5885
415 21.9835
420 20.0882
425 20.4951
430 19.2272
435 22.129
440 21.2676
445 23.2603
450 21.4694
455 27.8976
460 23.9899
465 30.6252
470 64.4553
475 315.715
480 645.859
485 762.185
490 404.222
495 90.8543
500 31.0443
505 24.5062
510 24.1892
515 30.7288
520 30.1268
525 27.6712
530 29.0849
535 33.0526
540 26.4326
545 28.7486
550 29.9322
555 26.2519
560 29.1892
565 27.4013
570 26.0607
575 27.1391
580 24.7076
585 24.4302
590 19.8033
595 21.2666
600 26.9014
Ex : 248
200 4.83381
205 4.36405
210 6.8182
215 5.56578
220 4.37242
225 5.46177
230 5.67013
235 12.7726
240 114.313
245 147.777
250 35.0633
255 10.0512
260 9.42572
265 10.103
270 8.40776
275 11.3746
280 7.33778
285 10.0454
290 10.0223
295 13.7623
300 15.0609
305 13.365
310 15.2718
315 15.9524
320 16.0596
325 15.3197
330 16.5365
335 18.3475
340 19.5444
345 19.1416
350 18.8844
355 17.4354
360 22.1197
365 16.3994
370 19.6449
375 19.6198
380 19.0756
385 20.035
390 18.0872
395 19.3331
400 22.6329
405 21.7243
410 18.994
415 21.3609
420 20.1344
425 16.8855
430 16.1612
435 17.6336
440 18.9746
445 17.9509
450 19.2291
455 19.7006
460 19.6284
465 24.7809
470 23.8198
475 23.8522
480 85.1001
485 429.996
490 900.386
495 844.208
500 394.39
505 77.3694
510 28.8693
515 27.2176
520 23.9401
525 28.0597
530 30.047
535 27.5574
540 31.3613
545 28.5689
550 26.68
555 25.9939
560 28.1346
565 23.9393
570 24.3422
575 25.3315
580 25.4059
585 22.3462
590 20.9769
595 16.9034
600 17.3213
Ex : 253
200 3.48458
205 3.78789
210 4.86969
215 5.49297
220 4.51432
225 4.65439
230 4.06446
235 4.52412
240 14.5204
245 121.919
250 204.178
255 65.5088
260 13.8721
265 9.6678
270 10.2981
275 13.9474
280 8.48049
285 9.95895
290 10.8645
295 10.5542
300 13.6571
305 14.2775
310 13.353
315 15.4426
320 14.9008
325 14.752
330 14.5583
335 14.1116
340 17.3065
345 17.1412
350 16.2535
355 18.2491
360 17.9399
365 17.0239
370 15.436
375 16.6029
380 17.3448
385 15.6764
390 18.0486
395 19.3869
400 18.0154
405 18.565
410 18.388
415 16.6346
420 17.0763
425 15.7054
430 14.4907
435 16.8991
440 17.5812
445 17.9078
450 16.047
455 15.7694
460 16.6156
465 19.7119
470 17.7048
475 16.0806
480 18.3416
485 16.8163
490 83.3516
495 414.414
500 960.049
505 1222.57
510 654.434
515 144.881
520 39.2195
525 25.5976
530 25.7861
535 26.4121
540 29.2244
545 31.5815
550 33.8876
555 29.7473
560 28.101
565 24.146
570 22.7069
575 24.2536
580 23.1505
585 24.1103
590 19.4446
595 19.9736
600 20.8026
Ex : 258
200 3.4703
205 4.16837
210 3.37707
215 3.06345
220 3.66563
225 2.46878
230 3.96552
235 3.01482
240 3.57697
245 12.9678
250 254.974
255 486.897
260 155.8
265 26.1092
270 11.0437
275 12.8565
280 13.4796
285 11.0769
290 13.6542
295 13.645
300 13.3674
305 15.805
310 13.9212
315 14.5385
320 13.7068
325 14.3577
330 13.8883
335 15.5807
340 14.9089
345 17.7507
350 15.8627
355 16.0924
360 18.1596
365 16.0434
370 17.4874
375 16.4563
380 14.3373
385 14.0726
390 16.3234
395 16.5396
400 15.8159
405 16.3703
410 16.3375
415 17.6952
420 15.213
425 13.5271
430 14.3402
435 14.1445
440 12.9559
445 12.5792
450 14.6937
455 14.3943
460 15.6354
465 15.8296
470 16.3386
475 13.3086
480 15.5824
485 13.5803
490 16.1248
495 17.8252
500 89.2228
505 788.088
510 2625.3
515 3227.01
520 1681.25
525 297.747
530 61.1191
535 32.7249
540 26.034
545 29.3869
550 32.9643
555 36.2892
560 39.3943
565 34.0387
570 29.6766
575 26.2552
580 24.8741
585 22.4113
590 21.2129
595 22.0099
600 16.9793
Ex : 263
200 2.51476
205 3.21977
210 3.27627
215 2.08325
220 2.94408
225 2.84929
230 3.03245
235 2.76283
240 3.25425
245 3.26876
250 37.0923
255 598.471
260 1149.8
265 301.319
270 45.3293
275 16.3377
280 15.4442
285 17.1603
290 15.8057
295 15.8986
300 18.2565
305 15.3165
310 16.1268
315 15.4029
320 17.0251
325 15.7674
330 15.8582
335 16.0362
340 15.8659
345 14.7571
350 14.5669
355 14.0656
360 15.1883
365 14.4184
370 14.8559
375 13.745
380 12.3689
385 13.6182
390 13.5022
395 13.4819
400 13.9906
405 14.1889
410 14.1031
415 14.4448
420 13.1134
425 13.0823
430 13.8549
435 14.2463
440 13.6872
445 13.1304
450 13.4015
455 13.2103
460 13.025
465 15.1446
470 14.5196
475 12.8353
480 12.9523
485 14.4742
490 13.2361
495 14.895
500 15.898
505 19.624
510 240.999
515 1898.32
520 5207.42
525 5741.79
530 2557.21
535 436.761
540 87.813
545 43.1034
550 36.9909
555 32.2961
560 35.9892
565 42.8302
570 41.9562
575 38.4862
580 33.6221
585 30.451
590 24.1393
595 26.1158
600 20.499
Ex : 268
200 2.67969
205 2.52744
210 2.2912
215 2.54306
220 2.92864
225 2.89924
230 2.69463
235 3.1509
240 3.48572
245 4.30845
250 4.44486
255 58.5559
260 1016.11
265 1865.6
270 533.616
275 75.5856
280 23.056
285 20.9412
290 22.5556
295 19.4142
300 17.3695
305 16.516
310 16.7907
315 17.3354
320 16.5964
325 15.2621
330 15.1563
335 15.7959
340 15.4634
345 15.812
350 15.6648
355 13.3994
360 13.554
365 12.3718
370 11.8704
375 11.2017
380 11.5753
385 10.5353
390 11.9152
395 12.6889
400 12.113
405 11.8018
410 10.8215
415 10.5886
420 11.6214
425 10.737
430 12.275
435 11.2726
440 11.7349
445 10.5662
450 11.23
455 11.4391
460 13.5148
465 13.1343
470 12.8288
475 12.2178
480 12.7235
485 12.8037
490 12.8524
495 12.6249
500 12.4901
505 15.5788
510 16.5242
515 25.1556
520 404.611
525 3143.3
530 8499.25
535 9033.17
540 4048.8
545 675.139
550 121.668
555 51.1225
560 40.5671
565 38.0348
570 39.6104
575 42.3964
580 45.1356
585 44.3984
590 38.7765
595 31.963
600 37.2421
Ex : 273
200 1.9036
205 2.57983
210 2.77104
215 2.29928
220 2.4377
225 3.09347
230 2.56085
235 2.62468
240 3.25966
245 2.98708
250 4.27509
255 5.8044
260 94.3566
265 1713.67
270 3096.83
275 814.997
280 112.143
285 30.5662
290 22.8159
295 26.369
300 22.9947
305 18.0208
310 17.9501
315 17.8269
320 17.6153
325 17.2216
330 17.1485
335 16.3718
340 14.8341
345 15.6115
350 14.448
355 13.8459
360 13.7843
365 13.1772
370 11.9698
375 11.8578
380 10.861
385 10.9918
390 10.3137
395 10.2775
400 10.7787
405 10.1249
410 10.3371
415 10.887
420 10.5003
425 10.654
430 10.3182
435 10.9845
440 9.75144
445 10.508
450 10.0944
455 10.4347
460 10.5768
465 12.0851
470 11.3922
475 11.5894
480 11.7574
485 12.0434
490 12.1749
495 12.3563
500 12.4902
505 13.2074
510 14.5708
515 16.7305
520 19.4248
525 32.3249
530 686.591
535 5152.33
540 9999.9
545 9999.9
550 4982.84
555 809.05
560 143.285
565 59.7587
570 44.2428
575 40.4719
580 39.5565
585 43.3999
590 46.1022
595 43.0885
600 38.5237
Ex : 278
200 2.0475
205 2.75305
210 2.46429
215 2.01102
220 2.48536
225 2.19354
230 2.58357
235 2.85371
240 2.80115
245 3.35045
250 4.13946
255 4.56061
260 6.99071
265 139.402
270 2528.21
275 4446.94
280 1093.7
285 147.709
290 34.6808
295 24.865
300 25.7809
305 23.2279
310 17.8834
315 15.7789
320 16.6518
325 16.2082
330 16.3847
335 15.7647
340 15.2962
345 15.5158
350 13.8788
355 12.6991
360 12.1413
365 12.4875
370 12.1523
375 11.8751
380 11.2306
385 11.3141
390 10.2642
395 11.0974
400 9.74314
405 8.95764
410 9.96887
415 10.8124
420 9.51641
425 10.0649
430 9.18766
435 9.39512
440 9.74006
445 9.74858
450 10.6039
455 9.10129
460 9.64102
465 10.7778
470 11.0096
475 10.1058
480 10.4959
485 10.0672
490 9.68715
495 11.1821
500 10.5816
505 12.2347
510 13.1083
515 13.1641
520 15.4518
525 19.1437
530 25.2528
535 42.6086
540 1004.08
545 7067.63
550 9999.9
555 9999.9
560 5452.78
565 892.802
570 155.17
575 63.1774
580 46.563
585 39.9227
590 36.2561
595 38.4052
600 42.2137
Ex : 283
200 2.43916
205 2.75754
210 2.73412
215 2.43953
220 2.89092
225 2.81635
230 2.30545
235 2.88729
240 3.0716
245 3.36689
250 3.19295
255 4.08902
260 5.13785
265 9.00197
270 183.899
275 3261.1
280 5285.18
285 1310.96
290 173.104
295 36.4378
300 20.3889
305 22.9133
310 22.0899
315 17.2258
320 15.4157
325 15.0915
330 15.2801
335 14.8955
340 14.4303
345 14.9291
350 14.309
355 13.6033
360 12.0586
365 11.2374
370 10.3079
375 10.0091
380 9.85077
385 9.20398
390 9.53586
395 9.42451
400 9.79114
405 9.71974
410 9.82801
415 9.87438
420 9.54614
425 9.09318
430 8.35067
435 9.03793
440 8.99025
445 9.09903
450 9.28549
455 9.48312
460 8.97176
465 10.1648
470 9.55314
475 9.55616
480 9.41369
485 10.002
490 9.38634
495 10.7147
500 9.07388
505 10.6648
510 11.184
515 11.8135
520 12.3202
525 15.0507
530 16.3745
535 20.1709
540 27.0016
545 48.3723
550 1297.79
555 8124.85
560 9999.9
565 9999.9
570 5433.2
575 863.606
580 145.16
585 55.5343
590 37.4387
595 31.6637
600 25.7583
Ex : 288
200 2.64512
205 1.99731
210 2.10285
215 2.15422
220 1.77687
225 1.91434
230 2.31785
235 2.28437
240 2.424
245 2.6222
250 3.15482
255 3.48245
260 4.48997
265 5.54461
270 9.47011
275 210.437
280 3828.17
285 5989.06
290 1476.9
295 189.734
300 37.081
305 18.5867
310 19.7931
315 19.7776
320 17.108
325 14.548
330 13.6486
335 13.0601
340 13.3378
345 13.9421
350 13.1857
355 11.2222
360 11.1255
365 10.6504
370 9.68802
375 9.04473
380 8.69143
385 9.1623
390 9.14993
395 8.87041
400 9.3676
405 9.20518
410 8.53677
415 8.70641
420 8.95755
425 8.52216
430 8.11478
435 8.60439
440 8.51148
445 8.46949
450 8.50636
455 8.79025
460 9.20384
465 9.30873
470 8.4546
475 8.27961
480 8.44528
485 8.99744
490 8.96459
495 8.61757
500 8.89903
505 8.84522
510 8.43587
515 8.94205
520 9.69774
525 10.2677
530 12.2137
535 14.5035
540 16.7781
545 21.3704
550 29.615
555 52.1178
560 1392.02
565 8565.46
570 9999.9
575 9999.9
580 5275.28
585 807.288
590 135.677
595 48.4167
600 36.6252
Ex : 293
200 2.05096
205 2.17957
210 1.94957
215 1.85024
220 2.14591
225 2.29912
230 2.21431
235 2.09852
240 2.21911
245 2.8105
250 2.72373
255 2.87145
260 3.97788
265 4.84423
270 6.2922
275 10.9383
280 268.024
285 4326.96
290 6472.3
295 1566.94
300 200.433
305 37.5473
310 17.4463
315 18.5054
320 20.5154
325 16.4229
330 13.458
335 12.3202
340 12.4952
345 12.2906
350 11.6493
355 10.5828
360 10.1747
365 9.4982
370 9.4278
375 9.95835
380 9.49496
385 8.98529
390 8.5108
395 8.47427
400 8.62803
405 8.48922
410 8.03078
415 8.18122
420 7.66081
425 8.1429
430 7.74397
435 6.87369
440 7.17205
445 7.24096
450 7.19301
455 7.44337
460 7.86637
465 8.15411
470 7.70854
475 7.77309
480 8.09485
485 8.29684
490 7.99337
495 7.93623
500 8.47551
505 7.72706
510 7.73653
515 7.6998
520 8.50222
525 8.59364
530 8.86209
535 10.7837
540 12.5503
545 14.7092
550 17.3554
555 21.8914
560 29.8293
565 57.6184
570 1630.75
575 9536.51
580 9999.9
585 9999.9
590 4486.13
595 661.757
600 122.036
Ex : 298
200 2.05154
205 1.99473
210 1.84944
215 1.99347
220 2.03198
225 1.88849
230 2.00933
235 2.09589
240 2.32001
245 2.11176
250 2.82815
255 3.00481
260 3.18317
265 3.65021
270 4.35031
275 6.77611
280 11.3526
285 289.659
290 4770.81
295 6953.03
300 1715.99
305 218.641
310 40.232
315 18.0495
320 18.5093
325 19.9852
330 16.0249
335 12.6848
340 10.9762
345 11.1592
350 10.5215
355 9.51634
360 9.73933
365 8.86324
370 8.36506
375 8.19187
380 8.38325
385 8.15
390 8.3034
395 8.57162
400 7.93105
405 7.93035
410 7.89449
415 7.55963
420 7.30245
425 7.31621
430 6.62108
435 7.27422
440 7.56517
445 6.71048
450 7.04254
455 6.99815
460 7.09638
465 7.01446
470 6.92959
475 7.12241
480 6.48134
485 6.72694
490 7.12876
495 6.68948
500 6.04993
505 7.06402
510 7.0067
515 7.01894
520 6.67226
525 7.17583
530 7.69496
535 8.33987
540 9.31384
545 10.0733
550 12.2471
555 14.5712
560 16.796
565 21.5126
570 29.0289
575 60.2645
580 1824.03
585 9871.57
590 9999.9
595 9999.9
600 7811.72
Ex : 303
200 1.48481
205 1.44319
210 1.70418
215 1.91058
220 1.56611
225 1.73929
230 1.98526
235 1.88255
240 2.17678
245 2.10446
250 2.2328
255 2.2021
260 3.41666
265 3.09334
270 3.70585
275 5.02481
280 6.78597
285 12.1829
290 314.617
295 5219.51
300 7895.37
305 1874.11
310 237.201
315 43.743
320 18.2981
325 17.9243
330 19.146
335 16.8472
340 12.1792
345 10.565
350 9.45235
355 9.0072
360 8.6448
365 8.40477
370 8.3077
375 7.73308
380 7.64532
385 7.50172
390 7.87989
395 7.43316
400 7.55544
405 7.16982
410 7.16014
415 7.12057
420 7.00043
425 7.07806
430 7.07862
435 6.66871
440 6.45451
445 6.51546
450 6.46654
455 5.95086
460 6.63579
465 6.66738
470 6.77804
475 6.78365
480 6.32069
485 6.40393
490 6.14031
495 6.00691
500 5.94384
505 6.09068
510 6.24124
515 6.25511
520 6.51207
525 6.48072
530 6.96392
535 7.21333
540 7.68387
545 8.37324
550 9.85358
555 10.2696
560 11.5579
565 13.7475
570 15.9132
575 21.4037
580 28.9618
585 66.6357
590 2002.19
595 9885.95
600 9999.9
Ex : 308
200 1.71175
205 1.78973
210 1.76361
215 1.80301
220 1.90407
225 1.77845
230 1.89511
235 1.95963
240 1.93787
245 2.10801
250 2.1413
255 2.30691
260 2.62341
265 2.91083
270 3.05723
275 3.98996
280 5.29504
285 7.52692
290 12.6455
295 369.587
300 5745.96
305 8400.21
310 1989.11
315 250.364
320 44.8561
325 18.0732
330 15.9388
335 18.0255
340 16.3068
345 12.205
350 9.846
355 8.84157
360 8.31447
365 7.67775
370 7.25816
375 7.01386
380 7.40953
385 6.90693
390 7.68562
395 7.28622
400 7.2062
405 7.07715
410 7.05873
415 7.01163
420 6.44969
425 6.3045
430 6.09698
435 6.25604
440 6.48501
445 5.77505
450 5.86698
455 6.0507
460 6.04833
465 5.8789
470 6.17559
475 6.1481
480 5.44319
485 5.64116
490 5.90154
495 5.48732
500 5.73674
505 5.47987
510 5.63013
515 6.16142
520 5.6297
525 5.67729
530 5.32477
535 6.15201
540 6.64499
545 7.01401
550 7.55556
555 8.16438
560 8.97361
565 9.76681
570 11.5201
575 13.661
580 16.252
585 19.9458
590 28.2695
595 76.5173
600 305.327
Ex : 313
200 1.39695
205 1.53859
210 1.43166
215 1.56483
220 1.69269
225 1.56225
230 1.68164
235 1.81958
240 1.94557
245 1.68066
250 2.02178
255 1.88064
260 2.70814
265 2.59689
270 2.81204
275 3.554
280 4.05997
285 5.60794
290 8.01637
295 13.6031
300 386.367
305 6458.26
310 9314.13
315 2183.4
320 273.551
325 47.9109
330 18.3082
335 14.8463
340 17.0154
345 15.9946
350 12.989
355 9.26264
360 8.31826
365 7.24035
370 7.57113
375 7.36244
380 6.81013
385 6.74359
390 6.81573
395 6.77469
400 6.53779
405 6.53033
410 6.57466
415 6.28825
420 5.96023
425 5.44327
430 5.7234
435 5.98537
440 5.38786
445 5.3975
450 5.85506
455 5.55195
460 5.69927
465 5.57428
470 6.02489
475 5.63569
480 5.27204
485 5.47476
490 5.55452
495 5.3861
500 5.22345
505 4.89658
510 5.27571
515 5.12361
520 5.0877
525 5.04052
530 5.16638
535 5.37921
540 5.78431
545 6.41985
550 6.5847
555 6.70631
560 7.30694
565 8.60223
570 8.90755
575 9.31543
580 10.6506
585 12.5543
590 15.4779
595 19.7143
600 19.3629
Ex : 318
200 1.71572
205 1.39447
210 1.58028
215 1.71598
220 1.56425
225 1.74691
230 1.97084
235 1.77526
240 1.66862
245 1.8303
250 1.81506
255 1.95954
260 2.25453
265 2.28741
270 2.82058
275 3.05523
280 3.2466
285 4.28717
290 6.08536
295 8.83969
300 13.8143
305 487.622
310 7309.32
315 9999.9
320 2358.18
325 294.66
330 50.6984
335 18.8356
340 14.928
345 16.112
350 16.4449
355 12.7468
360 9.08159
365 7.88073
370 7.8844
375 6.97566
380 6.83657
385 7.07614
390 6.91847
395 6.52939
400 6.33639
405 6.49504
410 6.20633
415 6.11149
420 5.64101
425 5.067
430 5.37158
435 5.22067
440 5.34776
445 5.11844
450 5.11891
455 5.45823
460 5.22592
465 5.10549
470 5.05087
475 4.97593
480 5.21712
485 4.95745
490 5.13266
495 5.14218
500 4.94914
505 4.76518
510 4.95128
515 4.82626
520 4.82828
525 4.73185
530 4.94456
535 4.62863
540 4.90378
545 4.97575
550 5.89952
555 6.33399
560 6.44533
565 6.5202
570 6.94486
575 7.81685
580 8.01064
585 8.81154
590 10.2493
595 12.9839
600 17.1685
Ex : 323
200 1.34702
205 1.41587
210 1.28246
215 1.37822
220 1.51652
225 1.54818
230 1.45594
235 1.67664
240 1.79054
245 1.84358
250 1.85857
255 1.82279
260 1.93343
265 2.29378
270 2.56087
275 3.09816
280 3.14718
285 3.63908
290 4.43806
295 6.50236
300 8.8539
305 14.978
310 515.623
315 7865.1
320 9999.9
325 2645
330 329.595
335 55.4909
340 19.5538
345 13.2882
350 14.7152
355 15.4774
360 13.3907
365 9.99746
370 8.24914
375 7.57598
380 7.30094
385 6.73323
390 6.37467
395 6.82941
400 6.74206
405 6.48835
410 6.20452
415 5.94352
420 5.5915
425 5.816
430 5.37196
435 5.19467
440 5.09787
445 5.18857
450 5.0378
455 5.13127
460 5.16328
465 5.44143
470 4.87633
475 5.20103
480 5.05967
485 4.9756
490 4.84676
495 5.03989
500 4.63503
505 4.93647
510 4.51293
515 4.12865
520 4.35333
525 4.30256
530 4.14165
535 4.57167
540 4.76075
545 4.79063
550 4.67671
555 5.0837
560 5.32152
565 5.61998
570 5.97549
575 6.199
580 6.6915
585 7.05784
590 7.85203
595 8.81495
600 14.9036
Ex : 328
200 1.42407
205 1.27968
210 1.42725
215 1.64146
220 1.43998
225 1.49752
230 1.66512
235 1.70742
240 1.6838
245 1.65045
250 1.84035
255 1.86402
260 1.90572
265 2.1616
270 2.37355
275 2.89126
280 2.89625
285 3.31182
290 4.00073
295 4.89113
300 6.36991
305 9.56187
310 15.8858
315 541.449
320 8655.8
325 9999.9
330 2633.75
335 329.006
340 55.721
345 19.6641
350 13.6316
355 14.0612
360 15.8469
365 14.0911
370 10.4601
375 8.29031
380 7.4117
385 7.03163
390 7.11132
395 6.91324
400 6.47945
405 6.18708
410 6.10272
415 5.83148
420 5.43645
425 5.42943
430 5.51186
435 5.34152
440 4.90223
445 5.17647
450 5.61234
455 5.13222
460 5.23587
465 5.29059
470 4.82649
475 4.68081
480 4.85237
485 4.80247
490 4.38965
495 4.72782
500 4.62728
505 4.37927
510 4.42431
515 4.62982
520 4.41869
525 4.38289
530 4.40049
535 4.18031
540 4.59332
545 4.62551
550 4.62814
555 4.57089
560 4.65016
565 4.73388
570 5.14141
575 5.29506
580 5.44526
585 5.50133
590 6.35263
595 6.69773
600 7.63026
Ex : 333
200 1.44043
205 1.48572
210 1.46385
215 1.38685
220 1.36813
225 1.53094
230 1.26966
235 1.45536
240 1.76468
245 1.68965
250 1.70479
255 1.97615
260 2.02768
265 2.08659
270 2.14976
275 2.17786
280 2.62178
285 2.9821
290 3.24623
295 4.06306
300 4.96773
305 7.01246
310 9.69193
315 17.1666
320 640.265
325 9341.94
330 9999.9
335 2750.19
340 341.488
345 57.3109
350 19.4462
355 13.1919
360 13.0049
365 14.719
370 14.577
375 11.004
380 8.48132
385 7.7138
390 7.09546
395 7.1041
400 6.30163
405 6.47615
410 5.8748
415 5.79657
420 5.35307
425 5.54022
430 5.29005
435 5.07095
440 5.01796
445 4.90906
450 5.0618
455 4.89111
460 5.02783
465 4.92717
470 4.92354
475 4.6183
480 4.6382
485 4.5194
490 4.31658
495 4.29321
500 4.57939
505 4.16199
510 4.27489
515 4.29724
520 4.04674
525 3.99232
530 4.19676
535 4.14056
540 4.15324
545 4.03146
550 4.13138
555 4.2225
560 4.27689
565 4.63159
570 4.32697
575 4.68458
580 4.46784
585 5.10749
590 5.15423
595 5.25191
600 4.789
Ex : 338
200 1.23269
205 1.20903
210 1.33191
215 1.22632
220 1.26055
225 1.2944
230 1.37732
235 1.4802
240 1.54994
245 1.57887
250 1.54949
255 1.76051
260 1.71335
265 1.78945
270 1.90269
275 2.07587
280 2.21143
285 2.6571
290 2.968
295 3.50301
300 4.12716
305 5.50172
310 6.7967
315 10.6054
320 18.2331
325 696.338
330 9999.9
335 9999.9
340 2797.64
345 347.548
350 57.4425
355 19.6879
360 12.7933
365 11.8621
370 13.3339
375 13.6049
380 11.7385
385 8.51481
390 7.83098
395 7.19171
400 6.26773
405 6.33346
410 6.41871
415 5.95441
420 5.73684
425 5.16275
430 5.37234
435 5.28513
440 5.1028
445 5.26339
450 5.23732
455 5.07709
460 5.0237
465 5.29462
470 4.94285
475 4.65702
480 4.7124
485 4.60737
490 4.28027
495 4.29149
500 4.20524
505 3.82614
510 3.98573
515 4.04384
520 3.95714
525 3.91028
530 3.8278
535 3.76743
540 4.09437
545 3.97049
550 3.62767
555 3.99463
560 3.92387
565 3.87552
570 4.04686
575 4.08449
580 3.95527
585 4.08185
590 4.34881
595 4.35383
600 3.49727
Ex : 343
200 1.06621
205 1.13594
210 1.06363
215 1.10783
220 1.12191
225 1.23846
230 1.24179
235 1.43307
240 1.41732
245 1.43495
250 1.53193
255 1.47315
260 1.55473
265 1.85554
270 1.90024
275 1.89079
280 1.97157
285 2.13697
290 2.75751
295 2.9622
300 3.32965
305 4.23896
310 5.4751
315 7.06712
320 10.9225
325 18.3463
330 681.395
335 9999.9
340 9999.9
345 2871.94
350 356.431
355 58.3353
360 18.8804
365 12.548
370 11.2163
375 12.4741
380 13.683
385 11.85
390 8.82807
395 7.60076
400 6.75914
405 6.31585
410 6.24317
415 5.91198
420 5.51313
425 5.49101
430 5.23487
435 5.08235
440 5.00222
445 4.75141
450 4.85794
455 4.9093
460 4.92371
465 4.90515
470 4.65526
475 4.70508
480 4.49163
485 4.44276
490 4.45778
495 4.02314
500 3.71616
505 3.79147
510 3.74936
515 3.70273
520 3.59726
525 3.68594
530 3.78402
535 3.67303
540 3.67055
545 3.59827
550 3.92949
555 3.69661
560 3.76588
565 3.48446
570 3.43096
575 3.51223
580 3.69773
585 3.57627
590 3.5959
595 3.63322
600 3.72039
Ex : 348
200 0.968213
205 1.09936
210 1.21027
215 1.30879
220 1.08262
225 1.15496
230 1.25824
235 1.22055
240 1.3881
245 1.41462
250 1.317
255 1.39995
260 1.53371
265 1.47417
270 1.68854
275 1.91743
280 1.91527
285 2.20115
290 2.28914
295 2.57365
300 3.07083
305 3.47969
310 4.19535
315 5.33479
320 7.34873
325 10.9873
330 18.652
335 652.82
340 9999.9
345 9999.9
350 3218.58
355 395.852
360 63.1457
365 19.8553
370 12.5517
375 10.9108
380 11.1808
385 13.033
390 12.6748
395 9.80591
400 7.70549
405 6.57195
410 6.24528
415 6.19242
420 5.70342
425 5.38257
430 5.24299
435 5.04527
440 5.11464
445 5.05145
450 4.79541
455 4.77492
460 4.45703
465 4.85638
470 4.57015
475 4.49395
480 4.34915
485 4.24545
490 4.31175
495 4.00219
500 4.01331
505 3.75354
510 3.72906
515 3.57842
520 3.66352
525 3.56366
530 3.48684
535 3.27833
540 3.34825
545 3.32769
550 3.34606
555 3.31978
560 3.3484
565 2.91874
570 3.08564
575 3.154
580 3.09295
585 2.98493
590 3.1709
595 3.21172
600 3.05851
Ex : 353
200 1.09466
205 0.996
210 1.01
215 1.05049
220 1.09491
225 1.17813
230 1.19113
235 1.11693
240 1.21821
245 1.23093
250 1.23022
255 1.26358
260 1.46109
265 1.35516
270 1.43605
275 1.69939
280 1.8751
285 1.79131
290 2.29752
295 2.48838
300 2.64776
305 2.97316
310 3.47929
315 4.2719
320 5.72636
325 7.79949
330 11.1942
335 19.5426
340 697.428
345 9999.9
350 9999.9
355 3139.05
360 387.152
365 62.0921
370 20.0564
375 12.5372
380 10.4592
385 10.6872
390 13.027
395 12.6205
400 10.3519
405 7.6944
410 7.01514
415 6.25791
420 5.62749
425 5.74378
430 5.31868
435 5.1765
440 5.23762
445 5.10916
450 4.73661
455 4.45873
460 4.63969
465 4.84618
470 4.51353
475 4.4997
480 4.04091
485 4.09389
490 4.13182
495 4.10473
500 3.92036
505 3.57526
510 3.39694
515 3.192
520 3.57842
525 3.33059
530 3.06926
535 3.04946
540 3.11634
545 3.33108
550 3.29104
555 3.1496
560 3.04503
565 2.87117
570 2.9108
575 2.96612
580 2.80562
585 2.87386
590 2.81527
595 2.97033
600 2.67473
Ex : 358
200 0.998201
205 0.99565
210 0.98559
215 1.09914
220 1.10158
225 1.12722
230 1.18878
235 1.15889
240 1.05764
245 1.16053
250 1.38222
255 1.22688
260 1.33087
265 1.2971
270 1.51278
275 1.41786
280 1.66409
285 1.82691
290 1.82242
295 1.96891
300 2.33606
305 2.58924
310 3.00598
315 3.56159
320 4.24042
325 5.62682
330 7.68466
335 11.6333
340 19.2582
345 669.873
350 9999.9
355 9999.9
360 3259.8
365 401.058
370 63.7886
375 19.847
380 12.2571
385 10.0092
390 10.0857
395 12.004
400 11.973
405 10.8052
410 8.34437
415 6.74493
420 6.14472
425 6.08145
430 5.51618
435 5.48665
440 5.12349
445 4.69247
450 4.88812
455 4.59025
460 4.62117
465 4.80023
470 4.68856
475 4.55845
480 4.22145
485 4.04964
490 3.88294
495 3.79391
500 3.81163
505 3.59995
510 3.49069
515 3.41447
520 3.03216
525 3.03169
530 3.03741
535 2.99677
540 2.89249
545 2.68992
550 2.8237
555 2.90704
560 2.74594
565 2.87085
570 2.67365
575 2.69609
580 2.70685
585 2.61737
590 2.61249
595 2.48679
600 2.87458
Ex : 363
200 1.06108
205 0.862537
210 0.839207
215 0.969508
220 0.993369
225 0.984661
230 1.01899
235 1.05184
240 1.11636
245 1.03794
250 1.04479
255 1.13879
260 1.27377
265 1.30662
270 1.43096
275 1.43904
280 1.45112
285 1.51781
290 1.63991
295 1.77265
300 1.97296
305 2.24243
310 2.73243
315 3.0025
320 3.76333
325 4.38581
330 5.34963
335 7.64495
340 11.1716
345 19.1521
350 623.51
355 9999.9
360 9999.9
365 3429.58
370 421.219
375 66.1579
380 20.3874
385 12.8045
390 10.4851
395 9.48444
400 11.0913
405 12.2212
410 11.1877
415 8.59142
420 6.83926
425 6.03849
430 5.43437
435 5.1582
440 4.94053
445 4.8747
450 4.79771
455 4.51556
460 4.58213
465 4.35667
470 4.23807
475 4.29444
480 4.13595
485 4.01372
490 3.72758
495 3.65932
500 3.50381
505 3.26313
510 3.17067
515 3.14194
520 3.05726
525 2.76722
530 2.83972
535 2.75052
540 2.68339
545 2.58832
550 2.77948
555 2.45886
560 2.4979
565 2.53211
570 2.35062
575 2.2913
580 2.26905
585 2.20234
590 2.20971
595 2.31043
600 2.23071
Ex : 368
200 0.934986
205 0.908603
210 0.860681
215 0.930394
220 0.939917
225 0.886555
230 0.883042
235 0.976345
240 0.92593
245 1.19169
250 1.11812
255 1.09775
260 1.18614
265 1.1957
270 1.29047
275 1.31805
280 1.52211
285 1.49349
290 1.57902
295 1.73993
300 1.83681
305 1.90263
310 2.14864
315 2.66484
320 3.14473
325 3.54242
330 4.37708
335 5.5444
340 7.49984
345 11.3596
350 18.9237
355 525.236
360 9999.9
365 9999.9
370 3744.39
375 459.075
380 70.4154
385 20.7657
390 12.526
395 10.314
400 8.79057
405 9.92498
410 11.3305
415 11.0968
420 9.27186
425 6.88022
430 5.95527
435 5.51144
440 5.107
445 5.11938
450 4.93549
455 4.57945
460 4.64257
465 4.34625
470 4.2247
475 4.09701
480 4.0973
485 3.8491
490 3.66002
495 3.44802
500 3.39109
505 3.30179
510 3.14233
515 2.85566
520 2.75087
525 2.73981
530 2.66209
535 2.49012
540 2.47081
545 2.36752
550 2.41986
555 2.4984
560 2.58452
565 2.21831
570 2.1399
575 2.24211
580 2.227
585 2.0449
590 1.93297
595 2.08429
600 1.7913
Ex : 373
200 0.832335
205 0.855169
210 0.925019
215 1.01678
220 0.879412
225 0.838279
230 0.873114
235 0.973509
240 0.902139
245 0.902028
250 1.11609
255 1.05949
260 1.08334
265 1.06401
270 1.2011
275 1.26669
280 1.28575
285 1.48931
290 1.50802
295 1.68561
300 1.72175
305 1.93367
310 1.98753
315 2.29239
320 2.64324
325 3.06881
330 3.70169
335 4.46414
340 5.73859
345 7.99021
350 11.6749
355 19.928
360 655.777
365 9999.9
370 9999.9
375 3731.83
380 456.314
385 70.6512
390 21.1297
395 12.9099
400 10.0678
405 8.23293
410 9.26957
415 10.9791
420 10.5145
425 9.40454
430 7.04566
435 5.90785
440 5.47731
445 5.14969
450 4.92218
455 4.88962
460 4.70522
465 4.44059
470 4.33722
475 4.02654
480 3.94063
485 3.80068
490 3.77627
495 3.52687
500 3.21065
505 3.01482
510 3.08505
515 2.8423
520 2.77116
525 2.54131
530 2.56225
535 2.65198
540 2.4606
545 2.46901
550 2.42969
555 2.25026
560 2.1631
565 2.0893
570 2.23297
575 2.1612
580 1.97801
585 2.00165
590 1.82955
595 1.95519
600 1.87363
Ex : 378
200 0.759187
205 0.818164
210 0.901444
215 0.892085
220 0.990202
225 0.945998
230 0.911153
235 0.921671
240 0.926963
245 0.946392
250 1.0305
255 0.948353
260 1.09189
265 1.04693
270 1.07792
275 1.20447
280 1.2624
285 1.27988
290 1.45884
295 1.51827
300 1.4907
305 1.80403
310 1.83445
315 2.08282
320 2.452
325 2.67583
330 3.11923
335 3.91091
340 4.51649
345 6.18961
350 8.03206
355 11.9684
360 20.02
365 637.534
370 9999.9
375 9999.9
380 3796.29
385 464.334
390 71.6756
395 21.8608
400 13.0188
405 10.1885
410 8.32408
415 8.29925
420 9.83147
425 10.1018
430 9.41355
435 7.72474
440 6.04168
445 5.27412
450 5.30225
455 5.00328
460 4.65485
465 4.4617
470 4.36126
475 4.08159
480 3.96074
485 3.82942
490 3.48629
495 3.27123
500 3.29964
505 3.0956
510 3.1013
515 2.90159
520 2.70553
525 2.64763
530 2.65739
535 2.43124
540 2.34535
545 2.27234
550 2.30356
555 2.16502
560 2.25413
565 2.10269
570 1.94716
575 1.81642
580 1.69664
585 1.67948
590 1.76306
595 1.78785
600 1.52834
Ex : 383
200 0.758799
205 0.812386
210 0.809359
215 0.924795
220 0.898702
225 0.74978
230 0.797341
235 0.86993
240 0.878367
245 0.868735
250 0.928167
255 0.943336
260 0.930875
265 1.11083
270 1.1173
275 1.14054
280 1.06613
285 1.1565
290 1.23638
295 1.38906
300 1.50403
305 1.55756
310 1.70115
315 1.96899
320 2.22731
325 2.50964
330 2.8558
335 3.35084
340 4.00154
345 4.75486
350 5.8251
355 7.9527
360 11.8023
365 20.0226
370 600.28
375 9999.9
380 9999.9
385 4022.81
390 492.243
395 75.5177
400 21.9706
405 12.9764
410 9.97418
415 7.89309
420 7.65338
425 9.33036
430 10.1219
435 9.41939
440 7.76298
445 6.05944
450 5.27154
455 5.08265
460 4.86811
465 4.6212
470 4.40533
475 4.14246
480 3.89442
485 3.64836
490 3.53957
495 3.40255
500 3.31151
505 3.1816
510 2.88754
515 2.85416
520 2.72744
525 2.58537
530 2.63341
535 2.56681
540 2.27484
545 2.09653
550 2.23874
555 2.09983
560 2.13374
565 2.13615
570 1.9219
575 1.86003
580 1.7241
585 1.60889
590 1.66211
595 1.67083
600 1.27046
Ex : 388
200 0.80758
205 0.813413
210 0.781637
215 0.850874
220 0.919552
225 0.916979
230 0.895178
235 0.871318
240 0.910855
245 0.816901
250 1.00506
255 1.00071
260 1.00679
265 1.02088
270 0.980723
275 1.19695
280 1.15773
285 1.19922
290 1.3197
295 1.32867
300 1.54295
305 1.44916
310 1.67346
315 2.03823
320 2.09109
325 2.23313
330 2.50598
335 2.70145
340 3.22178
345 3.85991
350 5.02015
355 6.25732
360 8.31627
365 12.5444
370 20.9872
375 657.952
380 9999.9
385 9999.9
390 4106.75
395 501.042
400 76.0321
405 21.8249
410 12.9949
415 9.94374
420 7.90816
425 7.26921
430 8.76713
435 9.81598
440 9.22033
445 8.37025
450 6.63948
455 5.39678
460 5.15539
465 4.76693
470 4.51869
475 4.24183
480 3.85173
485 3.85148
490 3.63888
495 3.4022
500 3.35572
505 3.24311
510 2.96367
515 2.68069
520 2.72167
525 2.64981
530 2.53232
535 2.4679
540 2.49949
545 2.3242
550 2.3145
555 2.12164
560 2.06877
565 2.03031
570 1.90308
575 1.83489
580 1.7111
585 1.72024
590 1.68759
595 1.58792
600 1.38127
Ex : 393
200 0.882185
205 0.83741
210 0.875464
215 0.79778
220 0.794875
225 0.845093
230 0.885686
235 0.868604
240 0.846906
245 0.94266
250 0.931325
255 0.950513
260 1.07766
265 1.08105
270 1.05348
275 1.23604
280 1.15907
285 1.27174
290 1.25297
295 1.34118
300 1.41914
305 1.4837
310 1.6764
315 1.86462
320 2.04967
325 2.29261
330 2.43565
335 2.63692
340 3.08469
345 3.52933
350 4.13601
355 5.11963
360 6.58581
365 8.81388
370 12.7766
375 21.2996
380 620.611
385 9999.9
390 9999.9
395 4353.64
400 530.739
405 79.7328
410 22.7592
415 13.336
420 10.1631
425 7.89759
430 6.92789
435 7.99342
440 9.39998
445 9.51582
450 8.69265
455 6.93808
460 5.86196
465 5.16436
470 4.72425
475 4.51565
480 4.24219
485 3.91437
490 3.67425
495 3.45827
500 3.39426
505 3.26787
510 2.94563
515 2.86162
520 2.90469
525 2.65093
530 2.48931
535 2.37491
540 2.34933
545 2.1982
550 2.10517
555 2.09341
560 2.14855
565 1.96669
570 1.88453
575 1.73082
580 1.69911
585 1.63835
590 1.59506
595 1.52501
600 1.55807
Ex : 398
200 0.740064
205 0.752465
210 0.858544
215 0.87233
220 0.877913
225 0.943382
230 0.80442
235 0.883637
240 0.894213
245 0.861156
250 0.976139
255 1.06334
260 1.02183
265 1.04844
270 1.1126
275 1.05843
280 1.11203
285 1.12989
290 1.14561
295 1.34159
300 1.4458
305 1.50244
310 1.67013
315 1.765
320 1.8091
325 1.94824
330 2.1603
335 2.54044
340 2.73647
345 3.0626
350 3.63709
355 4.15467
360 5.14313
365 6.6115
370 8.65497
375 12.5635
380 21.4102
385 657.988
390 9999.9
395 9999.9
400 4462.17
405 543.095
410 81.072
415 22.4905
420 12.6531
425 9.617
430 7.72436
435 6.84809
440 7.03562
445 8.88752
450 9.07128
455 8.54995
460 7.50364
465 5.82898
470 5.0097
475 4.60487
480 4.26795
485 3.83753
490 3.6616
495 3.5886
500 3.39029
505 3.0731
510 2.9921
515 2.89001
520 2.67685
525 2.66498
530 2.47817
535 2.62661
540 2.28325
545 2.34052
550 2.1819
555 2.0296
560 2.00582
565 1.90141
570 1.91018
575 1.62581
580 1.62693
585 1.54071
590 1.42758
595 1.40245
600 1.52695
Ex : 403
200 0.89195
205 0.764264
210 0.900594
215 0.863051
220 0.876706
225 0.844766
230 0.875311
235 0.924493
240 0.956596
245 0.911988
250 0.906394
255 0.879318
260 1.02576
265 0.996082
270 0.970038
275 1.10338
280 1.26394
285 1.08488
290 1.25837
295 1.28369
300 1.3517
305 1.42704
310 1.64374
315 1.74433
320 1.7493
325 1.78012
330 2.02604
335 2.30056
340 2.40576
345 2.85866
350 3.14162
355 3.55419
360 4.39199
365 5.13961
370 6.54833
375 9.12238
380 13.1372
385 22.5181
390 720.729
395 9999.9
400 9999.9
405 4521.57
410 548.861
415 81.6476
420 22.4236
425 12.8136
430 9.7717
435 7.91431
440 6.93481
445 7.06161
450 8.51692
455 8.93779
460 8.79383
465 7.77828
470 5.80361
475 4.87798
480 4.38221
485 4.01748
490 3.90722
495 3.53487
500 3.28538
505 3.23152
510 2.99362
515 2.85933
520 2.84391
525 2.62213
530 2.47421
535 2.46778
540 2.38317
545 2.16925
550 2.20214
555 2.14007
560 2.06626
565 2.11693
570 1.82897
575 1.63653
580 1.63082
585 1.50264
590 1.52123
595 1.50522
600 1.39212
Ex : 408
200 0.785902
205 0.761795
210 0.741773
215 0.789413
220 0.766945
225 0.84182
230 0.859694
235 0.944674
240 0.911947
245 0.940339
250 0.961362
255 1.02871
260 0.967891
265 0.959617
270 1.05221
275 1.06634
280 1.15972
285 1.14945
290 1.24567
295 1.27352
300 1.33368
305 1.47626
310 1.45418
315 1.44342
320 1.63786
325 1.75455
330 2.02986
335 1.99476
340 2.34573
345 2.52874
350 2.75042
355 3.20449
360 3.61244
365 4.38897
370 5.37591
375 6.63627
380 9.24495
385 13.7116
390 23.1696
395 717.979
400 9999.9
405 9999.9
410 4451.53
415 541.67
420 81.0059
425 22.1836
430 13.1288
435 9.83843
440 7.79772
445 6.81196
450 6.5682
455 7.8483
460 9.15355
465 8.48807
470 7.80506
475 6.15878
480 4.84295
485 4.20603
490 3.94943
495 3.88129
500 3.43838
505 3.28921
510 3.09058
515 2.82546
520 2.85227
525 2.68384
530 2.58503
535 2.59191
540 2.53427
545 2.40812
550 2.27739
555 2.172
560 2.03888
565 1.88159
570 1.83129
575 1.74322
580 1.54452
585 1.42823
590 1.33979
595 1.45945
600 1.92638
Ex : 413
200 0.748343
205 0.767847
210 0.838359
215 0.808774
220 0.85311
225 0.785459
230 0.856922
235 0.845904
240 0.829782
245 0.815269
250 0.842781
255 0.932869
260 0.893438
265 0.947571
270 0.863375
275 1.03811
280 1.04956
285 1.16048
290 1.1314
295 1.31385
300 1.2528
305 1.34836
310 1.41666
315 1.447
320 1.51407
325 1.66065
330 1.80349
335 1.92057
340 2.23583
345 2.37241
350 2.65417
355 2.80534
360 3.27194
365 3.93543
370 4.5927
375 5.41379
380 6.90258
385 9.77472
390 14.3231
395 24.4508
400 815.161
405 9999.9
410 9999.9
415 4368.98
420 530.057
425 79.4448
430 22.4321
435 13.1954
440 10.1002
445 7.72721
450 6.99052
455 6.70285
460 7.37108
465 8.57914
470 8.16981
475 7.74428
480 6.41373
485 4.87558
490 4.16899
495 3.84333
500 3.57399
505 3.37049
510 3.4265
515 3.02642
520 2.81564
525 2.78065
530 2.47392
535 2.57049
540 2.45434
545 2.2935
550 2.32296
555 2.1368
560 1.94997
565 2.02185
570 1.92442
575 1.7964
580 1.63316
585 1.48657
590 1.41643
595 1.36918
600 1.48391
Ex : 418
200 0.795633
205 0.821788
210 0.836521
215 0.795129
220 0.751212
225 0.76977
230 0.832156
235 0.872413
240 0.817015
245 0.834318
250 0.82215
255 0.817846
260 0.809219
265 0.862208
270 0.997361
275 1.03617
280 0.973988
285 1.05772
290 1.0959
295 1.18963
300 1.25385
305 1.28633
310 1.36404
315 1.53578
320 1.43377
325 1.5869
330 1.7513
335 1.9348
340 2.0336
345 2.18036
350 2.40041
355 2.71428
360 2.94168
365 3.46697
370 4.03649
375 4.4828
380 5.61215
385 7.34057
390 10.3549
395 14.973
400 24.4536
405 774.582
410 9999.9
415 9999.9
420 4612.33
425 558.329
430 82.571
435 22.448
440 12.9847
445 10.2739
450 7.88897
455 6.71425
460 6.68018
465 7.00343
470 7.92877
475 8.13586
480 7.61223
485 6.66824
490 5.14264
495 4.08262
500 3.78656
505 3.22527
510 3.16791
515 3.16675
520 2.98472
525 2.78268
530 2.57889
535 2.49304
540 2.34195
545 2.31109
550 2.22109
555 2.15127
560 2.18695
565 1.98318
570 1.92623
575 1.79307
580 1.63277
585 1.52982
590 1.36522
595 1.32866
600 1.46374
Ex : 423
200 0.773164
205 0.746574
210 0.706793
215 0.825926
220 0.812605
225 0.831964
230 0.835189
235 0.901628
240 0.92285
245 0.866838
250 0.863458
255 0.838429
260 0.921317
265 0.964763
270 1.06136
275 0.993858
280 0.995668
285 1.01897
290 1.07317
295 1.18464
300 1.12287
305 1.28156
310 1.35161
315 1.27522
320 1.45727
325 1.54517
330 1.78257
335 1.93597
340 1.89928
345 2.06586
350 2.133
355 2.39646
360 2.67295
365 3.11711
370 3.57043
375 3.94421
380 4.65773
385 6.0405
390 7.90689
395 10.5367
400 15.4849
405 25.4366
410 807.875
415 9999.9
420 9999.9
425 4432.38
430 538.362
435 80.8119
440 22.5887
445 13.538
450 10.4334
455 7.89616
460 7.25246
465 6.73574
470 6.35414
475 7.56163
480 7.76802
485 7.12953
490 6.58917
495 5.24906
500 4.00159
505 3.63362
510 3.33999
515 3.30582
520 3.03021
525 2.6606
530 2.59544
535 2.50777
540 2.47445
545 2.38266
550 2.23005
555 1.99169
560 2.0341
565 1.94927
570 1.75512
575 1.69853
580 1.67337
585 1.53482
590 1.52143
595 1.43002
600 1.50889
Ex : 428
200 0.642637
205 0.804254
210 0.815773
215 0.769145
220 0.890664
225 0.875328
230 0.786306
235 0.745084
240 0.806574
245 0.876019
250 0.754376
255 0.877398
260 0.866422
265 0.943077
270 1.07825
275 0.961446
280 0.997442
285 1.04768
290 1.07188
295 1.19544
300 1.19167
305 1.26204
310 1.28396
315 1.30737
320 1.37229
325 1.48314
330 1.56734
335 1.72238
340 1.84894
345 2.06123
350 2.15245
355 2.33326
360 2.61818
365 2.85241
370 3.00253
375 3.68953
380 4.20586
385 5.03368
390 6.21662
395 8.18318
400 10.7643
405 16.1784
410 26.3847
415 869.293
420 9999.9
425 9999.9
430 4697.69
435 568.8
440 84.4957
445 23.7349
450 13.927
455 10.4016
460 8.49563
465 7.21144
470 6.52707
475 6.08128
480 6.86593
485 7.39628
490 6.95053
495 6.34231
500 5.30001
505 4.28943
510 3.61186
515 3.36483
520 3.10703
525 2.92567
530 2.64098
535 2.64324
540 2.48196
545 2.26318
550 2.18215
555 2.01199
560 2.12066
565 1.92524
570 1.85043
575 1.74496
580 1.54337
585 1.37843
590 1.48253
595 1.39309
600 1.32919
Ex : 433
200 0.916073
205 0.792014
210 0.713908
215 0.851881
220 0.797851
225 0.687782
230 0.761032
235 0.800082
240 0.871516
245 0.865465
250 0.834831
255 0.959346
260 0.930389
265 0.945367
270 0.995752
275 1.04174
280 1.04857
285 1.06512
290 1.11463
295 1.03105
300 1.17599
305 1.28494
310 1.21849
315 1.42342
320 1.43031
325 1.64308
330 1.55767
335 1.71808
340 1.97262
345 1.88335
350 2.08302
355 2.3695
360 2.54004
365 2.69581
370 2.96045
375 3.37694
380 3.59005
385 4.33844
390 5.29857
395 6.4689
400 8.29122
405 11.1662
410 16.3554
415 27.1634
420 972.013
425 9999.9
430 9999.9
435 4387
440 533.218
445 81.5017
450 23.9565
455 14.2709
460 10.938
465 8.75411
470 7.1427
475 6.45421
480 6.14493
485 6.38944
490 7.2379
495 6.96343
500 6.13015
505 5.68728
510 4.25089
515 3.47276
520 3.10969
525 3.07305
530 2.89678
535 2.56084
540 2.34689
545 2.31732
550 2.33965
555 2.19415
560 2.00311
565 1.93049
570 1.94643
575 1.69705
580 1.6357
585 1.47969
590 1.41167
595 1.52553
600 1.06731
Ex : 438
200 0.691999
205 0.731723
210 0.724497
215 0.825388
220 0.975213
225 0.798265
230 0.77589
235 0.743911
240 0.862452
245 0.755625
250 0.806989
255 0.83783
260 0.917554
265 0.895908
270 0.944782
275 0.930766
280 1.10802
285 1.03023
290 1.10153
295 1.12662
300 1.04513
305 1.15191
310 1.25569
315 1.31134
320 1.43755
325 1.49883
330 1.59156
335 1.68241
340 1.80347
345 1.90939
350 1.95492
355 2.19206
360 2.44823
365 2.57961
370 2.70989
375 3.00793
380 3.39161
385 3.6998
390 4.49963
395 5.48717
400 6.74772
405 8.71696
410 11.3406
415 16.6558
420 27.0587
425 943.495
430 9999.9
435 9999.9
440 4690.21
445 569.543
450 86.0572
455 24.2294
460 14.8175
465 11.45
470 8.37848
475 7.13637
480 6.304
485 5.97758
490 6.0745
495 6.66758
500 6.72215
505 5.86516
510 5.81164
515 4.61149
520 3.68021
525 3.15002
530 2.94689
535 2.69258
540 2.54395
545 2.4748
550 2.38256
555 2.29808
560 2.05279
565 2.06766
570 1.86161
575 1.75102
580 1.7126
585 1.4333
590 1.50001
595 1.34145
600 1.73587
Ex : 443
200 0.78956
205 0.778115
210 0.805464
215 0.803378
220 0.877301
225 0.802519
230 0.783332
235 0.807628
240 0.821225
245 0.879218
250 0.917927
255 0.862117
260 0.899921
265 0.843584
270 0.927944
275 0.993984
280 0.994042
285 0.999743
290 1.11266
295 1.13791
300 1.25917
305 1.14964
310 1.27909
315 1.29965
320 1.36225
325 1.41364
330 1.63509
335 1.76779
340 1.70211
345 1.94777
350 1.97986
355 2.23869
360 2.24133
365 2.42295
370 2.67955
375 2.8187
380 3.27398
385 3.66277
390 4.13255
395 4.81504
400 5.84228
405 6.83264
410 8.91997
415 11.5652
420 17.3657
425 27.7243
430 1035.57
435 9999.9
440 9999.9
445 4654.58
450 566.117
455 85.6115
460 25.0718
465 15.564
470 11.5076
475 8.27221
480 6.69713
485 6.3294
490 6.1305
495 5.92128
500 6.29221
505 6.61958
510 5.80175
515 5.41241
520 4.62123
525 3.75333
530 3.11457
535 2.89475
540 2.59811
545 2.52764
550 2.39992
555 2.22678
560 2.21424
565 1.95684
570 1.98943
575 1.83038
580 1.74351
585 1.62223
590 1.49495
595 1.44511
600 1.28597
Ex : 448
200 0.768702
205 0.836954
210 0.807754
215 0.751867
220 0.807558
225 0.813433
230 0.8247
235 0.879594
240 0.808058
245 0.877789
250 0.971589
255 0.969141
260 0.887878
265 0.915916
270 0.873548
275 1.01391
280 1.0095
285 1.06241
290 1.15347
295 1.09634
300 1.15283
305 1.17538
310 1.15096
315 1.37689
320 1.32602
325 1.5055
330 1.54089
335 1.53786
340 1.57147
345 1.70789
350 1.8619
355 2.13161
360 2.34626
365 2.35213
370 2.59502
375 2.72843
380 3.15226
385 3.3444
390 3.69022
395 4.31089
400 4.96595
405 5.52099
410 7.24478
415 8.86337
420 11.905
425 17.4524
430 27.902
435 1071.41
440 9999.9
445 9999.9
450 4755.99
455 577.875
460 88.1082
465 26.2538
470 15.3215
475 11.0171
480 8.31448
485 6.79845
490 6.17423
495 6.09513
500 5.49785
505 5.86563
510 6.39481
515 5.90079
520 5.20861
525 4.65227
530 3.89119
535 3.21063
540 2.82035
545 2.7115
550 2.5063
555 2.28306
560 2.1417
565 2.22779
570 2.01892
575 1.77691
580 1.7133
585 1.69339
590 1.63015
595 1.45587
600 1.142
Ex : 453
200 0.674667
205 0.778213
210 0.77717
215 0.862821
220 0.920349
225 0.923442
230 0.868047
235 0.841668
240 0.850738
245 0.965822
250 0.92534
255 0.938111
260 0.928784
265 0.998784
270 1.0031
275 1.03137
280 1.04771
285 1.06573
290 1.2655
295 1.32388
300 1.21796
305 1.21305
310 1.22614
315 1.31574
320 1.44623
325 1.42039
330 1.58173
335 1.53523
340 1.6266
345 1.7359
350 1.72259
355 1.97824
360 2.15771
365 2.14049
370 2.3836
375 2.48377
380 2.74508
385 3.0112
390 3.46606
395 4.00563
400 4.235
405 4.75249
410 5.79668
415 6.92435
420 8.66176
425 11.633
430 17.0355
435 27.7095
440 1112.42
445 9999.9
450 9999.9
455 4544.55
460 553.672
465 85.9969
470 25.2492
475 14.273
480 10.3422
485 7.70072
490 6.48515
495 6.15873
500 5.64894
505 5.18474
510 5.25521
515 5.91496
520 5.76306
525 4.94909
530 4.8068
535 3.96162
540 3.08034
545 2.80282
550 2.57396
555 2.23661
560 2.41067
565 2.27309
570 2.07386
575 1.96639
580 1.84297
585 1.65679
590 1.58012
595 1.47255
600 1.54504
Ex : 458
200 0.931708
205 0.843557
210 0.787219
215 0.883874
220 0.90384
225 0.942519
230 0.871989
235 0.923992
240 0.91361
245 0.845052
250 0.833264
255 0.94346
260 0.926409
265 0.999635
270 0.92507
275 0.970564
280 1.00346
285 1.12775
290 1.10035
295 1.18002
300 1.25694
305 1.23206
310 1.28461
315 1.28242
320 1.38553
325 1.45177
330 1.48165
335 1.59475
340 1.68392
345 1.83824
350 1.83134
355 1.94257
360 2.16671
365 2.26683
370 2.48107
375 2.46762
380 2.70454
385 2.94723
390 3.28149
395 3.5202
400 3.82369
405 4.35336
410 5.05884
415 5.99224
420 7.13312
425 9.13173
430 11.9556
435 17.629
440 28.9038
445 1227.32
450 9999.9
455 9999.9
460 4888.34
465 597.265
470 91.0882
475 24.9209
480 14.6021
485 10.5554
490 7.95856
495 6.36574
500 5.80768
505 5.61886
510 5.39309
515 5.1502
520 5.57391
525 5.56759
530 4.88633
535 4.656
540 4.18836
545 3.43569
550 2.82789
555 2.7958
560 2.45169
565 2.24809
570 2.04337
575 2.02178
580 1.684
585 1.64842
590 1.56267
595 1.5642
600 1.25196
Ex : 463
200 0.845746
205 0.868826
210 0.857281
215 0.796447
220 0.905356
225 0.973019
230 0.94458
235 0.877159
240 0.878753
245 0.888975
250 0.960208
255 0.969672
260 0.955965
265 0.969198
270 0.923864
275 0.909617
280 1.08058
285 1.00266
290 1.04201
295 1.03813
300 1.19916
305 1.31428
310 1.40682
315 1.37565
320 1.35019
325 1.29393
330 1.53958
335 1.63586
340 1.64718
345 1.70805
350 1.7431
355 1.90464
360 2.0372
365 2.21209
370 2.30637
375 2.2767
380 2.56807
385 2.86702
390 3.1253
395 3.42714
400 3.64365
405 3.77513
410 4.55438
415 4.94785
420 5.76926
425 7.15385
430 9.17991
435 12.2228
440 17.4968
445 30.2357
450 1182.91
455 9999.9
460 9999.9
465 5029.7
470 611.349
475 90.6359
480 24.9894
485 14.0493
490 10.5253
495 7.76216
500 6.33985
505 5.75008
510 5.38349
515 5.10403
520 4.99607
525 4.99421
530 5.32677
535 4.92433
540 4.44525
545 4.29614
550 3.5687
555 2.89981
560 2.60798
565 2.41549
570 2.23888
575 2.02056
580 1.94617
585 1.6849
590 1.64183
595 1.59553
600 1.58611
Ex : 468
200 0.80516
205 0.817061
210 0.763218
215 0.905242
220 0.95154
225 1.04401
230 1.20152
235 0.992042
240 0.953586
245 0.927781
250 0.901589
255 0.982314
260 0.900545
265 0.973494
270 0.958591
275 1.1099
280 1.10707
285 1.07137
290 1.1047
295 1.19923
300 1.11596
305 1.16418
310 1.25258
315 1.38592
320 1.40274
325 1.38942
330 1.40688
335 1.52189
340 1.71943
345 1.85431
350 1.74782
355 1.79588
360 2.0343
365 2.18947
370 2.12766
375 2.36065
380 2.50674
385 2.49104
390 2.74943
395 3.08012
400 3.3851
405 3.59494
410 4.09124
415 4.51453
420 4.91541
425 5.83918
430 6.90093
435 8.77523
440 12.0629
445 17.7699
450 29.2547
455 1298.9
460 9999.9
465 9999.9
470 5226.08
475 629.186
480 91.8616
485 24.4047
490 13.8492
495 9.74486
500 7.3426
505 6.09615
510 5.72811
515 5.32726
520 4.97038
525 4.68933
530 4.64653
535 5.09109
540 4.9115
545 4.15649
550 4.06419
555 3.61658
560 3.02726
565 2.45136
570 2.29907
575 2.03977
580 1.95365
585 1.78032
590 1.75893
595 1.61924
600 1.78755
Ex : 473
200 0.913971
205 0.913921
210 0.928717
215 0.873131
220 0.894244
225 0.990442
230 1.30054
235 1.17187
240 0.918704
245 0.981344
250 1.02648
255 0.969981
260 0.967637
265 1.01299
270 0.895915
275 0.970153
280 1.01153
285 0.926223
290 1.07047
295 1.17295
300 1.15278
305 1.19034
310 1.23013
315 1.45649
320 1.31271
325 1.44523
330 1.46013
335 1.56121
340 1.70262
345 1.79084
350 1.73718
355 1.84856
360 1.82453
365 2.14555
370 2.21186
375 2.43481
380 2.49027
385 2.63397
390 2.8287
395 3.04965
400 3.3106
405 3.51411
410 3.76537
415 4.13463
420 4.67319
425 5.13255
430 5.77193
435 7.22555
440 9.26595
445 12.6867
450 18.7954
455 31.6458
460 1411.82
465 9999.9
470 9999.9
475 4998.66
480 603.894
485 89.1797
490 24.1556
495 13.5323
500 9.86322
505 7.38653
510 6.1689
515 5.67533
520 5.40603
525 5.02181
530 4.66089
535 4.57436
540 4.81535
545 4.75864
550 4.23685
555 3.94973
560 3.69974
565 3.11244
570 2.58689
575 2.15648
580 2.09138
585 1.89584
590 1.88897
595 1.71105
600 1.53906
Ex : 478
200 0.914367
205 1.00736
210 0.926556
215 0.941412
220 0.928951
225 0.95564
230 1.27731
235 1.54078
240 1.10187
245 0.911477
250 0.912777
255 1.00364
260 1.05763
265 1.11372
270 1.06854
275 1.14669
280 1.21773
285 1.12752
290 0.980201
295 1.13748
300 1.18582
305 1.28386
310 1.35222
315 1.38076
320 1.35715
325 1.48554
330 1.54554
335 1.60861
340 1.72797
345 1.75387
350 1.87038
355 1.99676
360 1.91861
365 2.05285
370 2.29353
375 2.35213
380 2.51066
385 2.68963
390 2.82019
395 3.05136
400 3.16497
405 3.46824
410 3.76472
415 4.03845
420 4.42345
425 4.91584
430 5.50144
435 6.54622
440 7.96204
445 10.5876
450 14.1916
455 21.1084
460 35.9968
465 1587.34
470 9999.9
475 9999.9
480 5143.47
485 622.73
490 93.3699
495 25.6296
500 14.2761
505 10.1234
510 7.89894
515 6.56703
520 5.77528
525 5.82404
530 5.36195
535 4.85132
540 4.55169
545 4.69697
550 4.8053
555 4.37448
560 3.82869
565 3.51486
570 3.12342
575 2.58223
580 2.10575
585 2.05556
590 1.92354
595 1.77485
600 2.03147
Ex : 483
200 0.934656
205 0.951434
210 0.936357
215 1.04858
220 0.956541
225 0.950089
230 0.976055
235 1.8943
240 1.52762
245 1.04762
250 0.877082
255 1.01951
260 1.17887
265 1.10863
270 1.09014
275 1.08101
280 1.10781
285 1.20574
290 1.14384
295 1.21373
300 1.16573
305 1.22443
310 1.28021
315 1.35385
320 1.50604
325 1.43011
330 1.47193
335 1.7301
340 1.72451
345 1.66147
350 1.68862
355 1.82761
360 1.81288
365 2.03945
370 2.12177
375 2.20638
380 2.48147
385 2.71842
390 2.92704
395 2.96972
400 3.49424
405 3.47584
410 3.7463
415 3.91424
420 4.07874
425 4.58003
430 5.15916
435 5.87521
440 6.54512
445 8.37276
450 10.6512
455 14.7557
460 22.0236
465 36.9809
470 1292.25
475 9999.9
480 9999.9
485 5414.18
490 653.656
495 96.0951
500 25.8164
505 14.702
510 10.6779
515 7.82849
520 6.63247
525 5.7005
530 5.37195
535 5.27715
540 4.80216
545 4.51683
550 4.24655
555 4.5124
560 4.32241
565 3.82112
570 3.47052
575 3.02506
580 2.6321
585 2.2762
590 1.94924
595 1.83813
600 2.01492
Ex : 488
200 0.85555
205 0.893377
210 0.860785
215 0.990717
220 1.04015
225 0.984625
230 1.03323
235 1.4658
240 1.93621
245 1.30764
250 1.0345
255 1.05107
260 1.11332
265 1.06095
270 1.05646
275 1.05819
280 1.18803
285 1.21757
290 1.23176
295 1.15479
300 1.19544
305 1.17058
310 1.20207
315 1.37778
320 1.32732
325 1.54873
330 1.52877
335 1.65244
340 1.7573
345 1.77936
350 1.7284
355 1.8921
360 1.87872
365 1.99615
370 2.17407
375 2.21541
380 2.31216
385 2.47965
390 2.73885
395 2.83362
400 3.02499
405 3.38942
410 3.70373
415 3.67569
420 3.98571
425 4.493
430 4.87161
435 5.64442
440 6.17981
445 7.15997
450 9.23163
455 11.7881
460 16.181
465 24.8108
470 38.7091
475 1537.82
480 9999.9
485 9999.9
490 5190.96
495 628.531
500 93.6363
505 25.8769
510 14.7118
515 10.5007
520 8.00689
525 6.78677
530 5.92402
535 5.69468
540 5.43399
545 4.92405
550 4.64313
555 4.53848
560 4.29122
565 4.2484
570 3.85584
575 3.18042
580 2.82127
585 2.53766
590 2.15676
595 2.01387
600 2.01686
Ex : 493
200 0.917
205 0.984331
210 1.00102
215 0.865727
220 0.961152
225 0.867809
230 0.984358
235 1.08386
240 2.2358
245 1.61495
250 1.09956
255 1.09402
260 1.02951
265 1.0791
270 1.10831
275 1.06154
280 1.23179
285 1.13049
290 1.18874
295 1.18288
300 1.20325
305 1.28597
310 1.34192
315 1.37608
320 1.29672
325 1.23298
330 1.53993
335 1.61643
340 1.72238
345 1.72803
350 1.82056
355 1.73332
360 1.93956
365 2.06297
370 2.08605
375 2.21541
380 2.42868
385 2.33652
390 2.65216
395 2.73746
400 3.19136
405 3.107
410 3.32862
415 3.55971
420 3.8888
425 3.99845
430 4.40117
435 4.96144
440 5.65584
445 6.11563
450 7.4926
455 9.07647
460 12.4314
465 17.587
470 24.4677
475 37.2252
480 1528.14
485 9999.9
490 9999.9
495 5338.33
500 644.164
505 95.5501
510 26.0147
515 14.5873
520 10.5746
525 8.28921
530 6.69886
535 6.02557
540 5.66529
545 5.17378
550 4.85836
555 4.51777
560 4.13293
565 4.09041
570 3.77166
575 3.47498
580 3.17388
585 2.81082
590 2.56414
595 2.33442
600 1.44418
Ex : 498
200 1.00855
205 0.99351
210 0.94093
215 0.992553
220 0.871187
225 0.894767
230 1.03038
235 1.03768
240 1.70325
245 2.64393
250 1.29404
255 1.16106
260 1.01059
265 1.02955
270 1.01011
275 1.12959
280 1.24126
285 1.17267
290 1.18639
295 1.26146
300 1.24598
305 1.34623
310 1.30929
315 1.42946
320 1.3851
325 1.46372
330 1.55043
335 1.71788
340 1.76869
345 1.73249
350 1.92544
355 1.78586
360 2.04346
365 1.9936
370 2.20823
375 2.31926
380 2.38384
385 2.46595
390 2.90188
395 2.84731
400 2.9631
405 3.15013
410 3.43757
415 3.68317
420 3.78272
425 3.94744
430 4.31421
435 4.89064
440 5.30265
445 5.80976
450 6.61899
455 7.78912
460 9.94342
465 13.6067
470 17.6156
475 24.8208
480 39.2148
485 1772.58
490 9999.9
495 9999.9
500 5248.85
505 635.169
510 95.0254
515 26.1644
520 15.3586
525 10.8502
530 8.16424
535 6.77923
540 5.98199
545 5.78366
550 5.41685
555 4.93889
560 4.64797
565 4.07607
570 3.59719
575 3.60973
580 3.42256
585 2.76156
590 2.61041
595 2.47639
600 1.29843
Ex : 503
200 0.940079
205 0.982993
210 1.03412
215 1.00294
220 1.05188
225 1.06902
230 0.986539
235 1.00397
240 0.989906
245 2.74841
250 2.02286
255 1.1832
260 1.10267
265 1.09368
270 1.02818
275 1.11107
280 1.15554
285 1.20304
290 1.14723
295 1.23113
300 1.31334
305 1.18028
310 1.18566
315 1.29823
320 1.20868
325 1.39256
330 1.40913
335 1.44312
340 1.67183
345 1.75909
350 1.90009
355 1.98311
360 2.02767
365 1.85869
370 2.06105
375 2.09329
380 2.19195
385 2.34521
390 2.7086
395 2.84515
400 2.82448
405 2.70131
410 3.25205
415 3.54791
420 3.6994
425 3.84956
430 4.04572
435 4.29555
440 4.61382
445 5.24772
450 6.28731
455 7.0764
460 8.5244
465 10.9984
470 13.7664
475 16.9283
480 25.0431
485 40.0074
490 1651.5
495 9999.9
500 9999.9
505 5415.57
510 656.656
515 97.906
520 26.7514
525 15.1987
530 10.9764
535 8.22815
540 6.69696
545 6.03759
550 5.83871
555 5.5199
560 5.09985
565 4.6217
570 4.05916
575 3.64944
580 3.54048
585 3.41857
590 2.81535
595 2.61479
600 2.17443
Ex : 508
200 0.991376
205 0.980509
210 0.988667
215 1.02281
220 1.10604
225 1.01889
230 1.02957
235 1.09293
240 1.09043
245 1.91986
250 3.32206
255 1.47947
260 1.04556
265 0.971774
270 1.03505
275 1.18435
280 1.13964
285 1.18345
290 1.23581
295 1.137
300 1.15501
305 1.17602
310 1.28262
315 1.31187
320 1.3334
325 1.33992
330 1.51686
335 1.52125
340 1.52468
345 1.6054
350 1.75592
355 1.7784
360 1.91789
365 1.94001
370 1.95639
375 1.95597
380 2.35145
385 2.24305
390 2.48617
395 2.74005
400 2.83695
405 2.93229
410 3.07824
415 3.11566
420 3.43922
425 3.72305
430 4.00925
435 4.16583
440 4.34583
445 5.17742
450 5.70022
455 6.17496
460 7.4655
465 8.88223
470 9.84793
475 13.0564
480 17.6709
485 24.6865
490 39.7942
495 1714.95
500 9999.9
505 9999.9
510 5818.8
515 702.075
520 102.639
525 27.0918
530 14.9355
535 10.9538
540 7.75381
545 6.58594
550 6.14447
555 5.81149
560 5.43192
565 4.88494
570 4.50903
575 3.85196
580 3.50394
585 3.22446
590 2.97709
595 2.61445
600 2.72429
Ex : 513
200 0.917407
205 0.980115
210 1.0313
215 0.889581
220 0.95455
225 0.997995
230 1.03111
235 1.02934
240 1.04311
245 1.10777
250 5.46574
255 4.36881
260 1.4897
265 1.26869
270 1.16658
275 1.14706
280 1.09742
285 1.08024
290 1.19208
295 1.10477
300 1.0846
305 1.29464
310 1.202
315 1.28692
320 1.21428
325 1.31634
330 1.34979
335 1.45846
340 1.46122
345 1.69196
350 1.62154
355 1.7908
360 1.75453
365 1.96106
370 2.03169
375 1.99541
380 2.08474
385 2.20679
390 2.40864
395 2.41191
400 2.44065
405 2.84325
410 3.14456
415 3.27187
420 3.3274
425 3.44673
430 3.71853
435 3.95471
440 4.26035
445 4.77361
450 5.24552
455 5.72365
460 6.76552
465 8.03901
470 9.03253
475 10.5593
480 13.2309
485 17.8893
490 25.4315
495 39.7472
500 1654.59
505 9999.9
510 9999.9
515 6118.28
520 738.041
525 107.157
530 28.142
535 15.2922
540 10.9532
545 7.88104
550 6.81945
555 6.05776
560 5.67534
565 5.2497
570 5.01848
575 4.3892
580 3.77204
585 3.2819
590 3.02409
595 2.87757
600 3.57108
Ex : 518
200 1.05081
205 1.12059
210 0.874497
215 0.886071
220 0.933648
225 0.948448
230 1.0466
235 0.8326
240 0.935013
245 1.00529
250 3.98464
255 10.7939
260 3.06678
265 1.26178
270 1.11455
275 1.06545
280 1.28944
285 1.22148
290 1.26436
295 1.23986
300 1.07707
305 1.29507
310 1.34869
315 1.32321
320 1.43401
325 1.38257
330 1.30197
335 1.54786
340 1.49668
345 1.55368
350 1.75995
355 1.76027
360 1.98576
365 1.89623
370 2.00525
375 2.01592
380 1.95618
385 2.08483
390 2.48784
395 2.39963
400 2.4799
405 2.7764
410 2.98137
415 3.17991
420 3.35797
425 3.34918
430 3.56816
435 3.86154
440 4.17364
445 4.56707
450 4.97637
455 5.40712
460 6.33353
465 7.16079
470 7.81793
475 8.57564
480 10.5537
485 13.6774
490 17.8698
495 25.1421
500 38.6543
505 1620.91
510 9999.9
515 9999.9
520 6151.64
525 740.613
530 107.571
535 28.2371
540 15.4398
545 10.8139
550 7.84092
555 6.44877
560 6.08409
565 5.82826
570 5.13316
575 4.63435
580 4.23251
585 3.59555
590 3.35231
595 2.93737
600 2.78225
Ex : 523
200 0.928948
205 0.915994
210 0.965604
215 0.925717
220 1.02916
225 0.971475
230 1.02181
235 1.04274
240 0.967125
245 0.864578
250 1.28438
255 13.5303
260 10.1417
265 2.12067
270 1.14686
275 1.14435
280 1.24548
285 1.01152
290 1.3011
295 1.17807
300 1.23643
305 1.15424
310 1.35888
315 1.32609
320 1.34969
325 1.41386
330 1.47072
335 1.32821
340 1.4098
345 1.37687
350 1.61277
355 1.70684
360 1.79109
365 2.00001
370 1.99481
375 2.19187
380 2.05277
385 2.13919
390 2.194
395 2.47137
400 2.36805
405 2.58264
410 2.78165
415 2.81577
420 2.78714
425 3.26663
430 3.36294
435 3.66349
440 3.9592
445 4.16214
450 4.46086
455 5.1042
460 5.62292
465 6.60383
470 7.03392
475 7.43373
480 8.62198
485 10.596
490 13.7553
495 17.8201
500 24.9575
505 38.7943
510 1503.5
515 9999.9
520 9999.9
525 6374.2
530 766.693
535 110.701
540 28.1721
545 15.0837
550 10.9587
555 7.97808
560 6.71136
565 6.21939
570 5.35848
575 5.28278
580 4.66676
585 4.27887
590 3.63129
595 2.96548
600 1.8925
Ex : 528
200 1.21786
205 0.993053
210 0.895451
215 0.895497
220 0.899685
225 0.841178
230 0.97202
235 0.876607
240 0.986582
245 1.12204
250 1.19059
255 7.53982
260 21.0592
265 5.37465
270 1.71483
275 1.16295
280 1.21737
285 1.2264
290 1.35089
295 1.28185
300 1.31498
305 1.24997
310 1.38485
315 1.34329
320 1.46554
325 1.41222
330 1.48106
335 1.54012
340 1.47026
345 1.60788
350 1.52541
355 1.62623
360 1.77529
365 1.88256
370 1.95755
375 2.07692
380 2.26816
385 2.22905
390 2.29442
395 2.2666
400 2.2567
405 2.57277
410 2.68863
415 2.89126
420 2.90192
425 3.07957
430 3.41132
435 3.6526
440 3.87606
445 3.90685
450 4.36064
455 4.53174
460 5.39932
465 6.188
470 6.17738
475 6.83569
480 7.77192
485 8.82197
490 10.9066
495 13.4691
500 17.8254
505 24.989
510 38.9953
515 1424.28
520 9999.9
525 9999.9
530 6310.48
535 760.648
540 109.714
545 28.2221
550 15.8076
555 10.7608
560 7.90622
565 6.82739
570 5.96066
575 5.45429
580 5.06948
585 4.63896
590 3.74136
595 3.65131
600 2.3738
Ex : 533
200 0.946575
205 0.906695
210 1.01874
215 0.909127
220 0.859681
225 0.955692
230 0.921053
235 0.912882
240 0.88064
245 0.984262
250 0.927248
255 1.91516
260 25.0987
265 19.4865
270 3.41821
275 1.43707
280 1.28711
285 1.33172
290 1.35889
295 1.33581
300 1.35674
305 1.23351
310 1.45913
315 1.48299
320 1.46295
325 1.44654
330 1.36408
335 1.39986
340 1.61229
345 1.67226
350 1.49964
355 1.558
360 1.64184
365 1.7067
370 1.88761
375 2.0978
380 1.90945
385 2.17592
390 2.37308
395 2.1719
400 2.23243
405 2.44887
410 2.51306
415 2.68069
420 2.76302
425 2.97109
430 3.18159
435 3.38441
440 3.54368
445 3.89965
450 3.99385
455 4.44149
460 4.92256
465 5.49759
470 5.95538
475 6.07732
480 6.67171
485 7.84842
490 8.55358
495 10.5361
500 13.0437
505 17.6139
510 24.2177
515 38.7124
520 1414.63
525 9999.9
530 9999.9
535 6594.69
540 793.647
545 113.417
550 28.5901
555 15.1919
560 11.0705
565 8.11213
570 6.07244
575 5.61852
580 5.20151
585 4.92821
590 4.29114
595 3.76536
600 2.82168
Ex : 538
200 1.03432
205 0.96025
210 0.89412
215 0.891816
220 0.953398
225 1.0387
230 0.975842
235 0.938385
240 0.879782
245 0.918942
250 1.0069
255 1.03637
260 13.2638
265 42.4481
270 11.2111
275 2.41182
280 1.43547
285 1.30933
290 1.41575
295 1.29265
300 1.31976
305 1.31102
310 1.41158
315 1.50275
320 1.51809
325 1.51408
330 1.52063
335 1.42374
340 1.52154
345 1.61015
350 1.4903
355 1.84605
360 1.61691
365 1.69404
370 1.69913
375 1.75211
380 1.86367
385 1.98092
390 2.15039
395 2.17316
400 2.21087
405 2.28751
410 2.42383
415 2.55465
420 2.79488
425 2.89821
430 3.25396
435 3.07969
440 3.43287
445 3.41966
450 3.92178
455 4.28291
460 4.65814
465 5.17497
470 5.77433
475 5.92761
480 6.34569
485 6.46268
490 7.61526
495 8.98353
500 10.3786
505 13.1734
510 17.2628
515 23.9838
520 37.0429
525 1235.76
530 9999.9
535 9999.9
540 6962.71
545 838.566
550 118.746
555 29.4252
560 15.1765
565 11.2334
570 7.94874
575 6.31841
580 5.43524
585 4.89771
590 4.61244
595 4.11739
600 3.34753
Ex : 543
200 1.02523
205 1.0809
210 0.832561
215 1.01494
220 0.900044
225 1.01641
230 0.970333
235 1.03829
240 0.893882
245 0.926381
250 0.846695
255 1.07079
260 2.52075
265 46.2615
270 38.7397
275 5.84977
280 1.84182
285 1.41044
290 1.50892
295 1.59979
300 1.43904
305 1.43048
310 1.41714
315 1.39093
320 1.56839
325 1.35646
330 1.46206
335 1.61971
340 1.6377
345 1.58265
350 1.44524
355 1.65775
360 1.81138
365 1.7677
370 1.80209
375 2.0473
380 1.81688
385 1.77532
390 1.92522
395 1.97522
400 2.26065
405 2.29712
410 2.142
415 2.60497
420 2.63606
425 2.77115
430 2.97614
435 2.9357
440 3.23431
445 3.51304
450 3.84804
455 4.12414
460 4.54601
465 5.00381
470 5.21141
475 5.27158
480 5.51013
485 5.88855
490 6.65194
495 7.51918
500 8.79505
505 10.1718
510 12.6571
515 17.3795
520 23.4654
525 37.0787
530 1146.79
535 9999.9
540 9999.9
545 7259.6
550 875.856
555 122.536
560 29.1456
565 15.0219
570 10.7007
575 6.96748
580 5.66036
585 5.0315
590 5.048
595 4.86282
600 4.31854
Ex : 548
200 0.974247
205 1.06295
210 0.95461
215 0.82862
220 0.893025
225 1.01028
230 1.01573
235 0.88609
240 0.921554
245 1.0597
250 1.1029
255 1.03847
260 1.2612
265 22.1878
270 77.0659
275 19.467
280 3.47875
285 1.58687
290 1.30717
295 1.6196
300 1.51243
305 1.421
310 1.35033
315 1.50946
320 1.52074
325 1.48948
330 1.60196
335 1.47529
340 1.60522
345 1.66408
350 1.70006
355 1.61136
360 1.72758
365 1.62093
370 1.59988
375 1.78545
380 1.92393
385 1.96912
390 2.15454
395 1.91274
400 2.13076
405 2.30565
410 2.25283
415 2.38491
420 2.53153
425 2.67732
430 2.99304
435 3.05269
440 3.24869
445 3.64267
450 3.69809
455 3.82931
460 4.47774
465 4.88737
470 4.90146
475 4.65015
480 5.40187
485 5.71851
490 6.53763
495 6.68751
500 7.14697
505 8.30586
510 10.3161
515 12.6283
520 16.5044
525 23.1776
530 35.9504
535 1259.88
540 9999.9
545 9999.9
550 7117.48
555 856.631
560 120.334
565 28.5502
570 14.6879
575 10.0995
580 6.94734
585 5.68317
590 4.91246
595 5.19203
600 5.90806
Ex : 553
200 0.937748
205 1.02353
210 1.11473
215 1.09232
220 0.953315
225 1.03119
230 0.968516
235 0.914686
240 1.01944
245 0.940038
250 1.00748
255 1.15658
260 1.10441
265 3.82393
270 74.2397
275 62.9381
280 9.14748
285 2.35645
290 1.44915
295 1.62153
300 1.57767
305 1.63167
310 1.46104
315 1.49745
320 1.4988
325 1.44806
330 1.55962
335 1.55984
340 1.63197
345 1.64699
350 1.59888
355 1.67086
360 1.6371
365 1.78948
370 1.66581
375 1.70764
380 1.89675
385 1.86552
390 1.93539
395 2.19491
400 2.20942
405 2.35085
410 2.49253
415 2.54424
420 2.52446
425 2.62393
430 2.7177
435 2.84007
440 2.97074
445 3.18915
450 3.56944
455 3.86246
460 4.11196
465 4.63825
470 4.63037
475 4.91797
480 4.60021
485 5.36194
490 5.58444
495 5.86662
500 6.20616
505 7.35687
510 8.29116
515 9.94521
520 13.0351
525 16.6465
530 22.8383
535 36.1891
540 1096.19
545 9999.9
550 9999.9
555 7355.92
560 886.563
565 122.279
570 28.1574
575 13.8255
580 9.30314
585 6.80408
590 5.23624
595 5.0649
600 6.07677
Ex : 558
200 1.14975
205 0.9871
210 1.14684
215 0.924486
220 0.980918
225 1.00502
230 0.976401
235 1.09252
240 1.19246
245 1.06641
250 0.974577
255 1.25527
260 1.22789
265 1.27038
270 31.1404
275 118.347
280 29.276
285 4.69992
290 1.82993
295 1.47111
300 1.63509
305 1.7943
310 1.66259
315 1.5618
320 1.50608
325 1.53711
330 1.64936
335 1.60395
340 1.52727
345 1.62395
350 1.55951
355 1.62807
360 1.55212
365 1.73241
370 1.70072
375 1.7201
380 1.79689
385 1.89889
390 1.97321
395 2.19813
400 1.98688
405 2.17891
410 2.12684
415 2.30013
420 2.39202
425 2.4271
430 2.67576
435 2.75078
440 2.80593
445 3.20466
450 3.16898
455 3.66229
460 3.84278
465 4.44269
470 4.43742
475 4.46381
480 4.82852
485 4.97935
490 5.37043
495 5.64969
500 6.06275
505 6.64632
510 7.47384
515 8.22234
520 9.74789
525 12.2257
530 16.4861
535 23.3753
540 35.8398
545 1040.39
550 9999.9
555 9999.9
560 7377.3
565 890.282
570 122.953
575 27.7039
580 13.1504
585 8.55079
590 6.18999
595 4.83415
600 4.8809
Ex : 563
200 1.03268
205 1.01464
210 1.06622
215 0.86936
220 0.950222
225 0.978557
230 0.961047
235 1.02234
240 0.990948
245 0.839641
250 0.980192
255 1.01961
260 1.10881
265 1.19356
270 4.89369
275 103.767
280 87.6349
285 12.3602
290 2.71429
295 1.49392
300 1.47808
305 1.78809
310 1.53649
315 1.44481
320 1.51804
325 1.4719
330 1.59343
335 1.73625
340 1.67024
345 1.65997
350 1.60534
355 1.51407
360 1.60752
365 1.65436
370 1.68906
375 1.68189
380 1.98244
385 1.93915
390 1.93279
395 1.92287
400 2.24743
405 2.37442
410 2.28259
415 2.10286
420 2.34683
425 2.40898
430 2.50185
435 2.77784
440 2.96255
445 3.16686
450 3.17233
455 3.65728
460 3.83732
465 4.06426
470 4.25994
475 4.57181
480 4.47171
485 4.56453
490 4.919
495 5.33311
500 5.52287
505 5.5724
510 6.43395
515 7.1195
520 7.92211
525 9.67697
530 12.4154
535 15.9025
540 22.2191
545 34.9416
550 1006.52
555 9999.9
560 9999.9
565 7413.76
570 892.058
575 121.789
580 26.1961
585 12.4745
590 8.14806
595 5.875
600 3.70774
Ex : 568
200 1.09556
205 1.07986
210 0.98946
215 0.977865
220 1.06743
225 0.955868
230 0.95281
235 0.935085
240 1.08772
245 1.17814
250 0.988621
255 1.02841
260 1.06913
265 1.18093
270 1.34385
275 37.5313
280 152.831
285 40.3557
290 5.8826
295 1.92249
300 1.48661
305 1.66635
310 1.76043
315 1.39328
320 1.71952
325 1.58909
330 1.47782
335 1.56779
340 1.45695
345 1.63217
350 1.63297
355 1.61815
360 1.6598
365 1.77221
370 1.92286
375 1.95363
380 1.80832
385 1.98962
390 1.87806
395 1.78792
400 2.00665
405 2.16534
410 2.01221
415 2.04859
420 2.32934
425 2.29372
430 2.50881
435 2.54285
440 2.68997
445 2.95062
450 2.94236
455 3.69569
460 3.74288
465 4.08629
470 3.92407
475 3.89146
480 4.21011
485 4.38108
490 4.58461
495 4.75873
500 5.14717
505 5.51042
510 5.88515
515 6.64826
520 7.09787
525 8.03226
530 9.55128
535 12.0013
540 16.3454
545 22.3502
550 32.8858
555 791.078
560 9999.9
565 9999.9
570 7696.08
575 930.323
580 123.858
585 25.5077
590 11.4425
595 7.9663
600 6.73417
Ex : 573
200 0.977223
205 0.964151
210 0.909051
215 1.06659
220 0.944128
225 1.01533
230 1.15009
235 0.998946
240 0.87195
245 0.847639
250 0.82376
255 1.1596
260 0.943886
265 1.20099
270 1.35919
275 5.18534
280 125.127
285 118.137
290 16.4084
295 3.15487
300 1.73383
305 1.37775
310 1.44332
315 1.44672
320 1.43217
325 1.28531
330 1.53361
335 1.69303
340 1.48576
345 1.4094
350 1.55675
355 1.49662
360 1.5963
365 1.56284
370 1.60025
375 1.87188
380 1.54863
385 1.95297
390 2.15923
395 2.02298
400 2.02218
405 1.9932
410 1.98276
415 2.11365
420 2.20477
425 2.14726
430 2.32847
435 2.33743
440 2.33987
445 2.50368
450 2.88725
455 3.18847
460 3.38599
465 3.61083
470 3.75562
475 3.9199
480 4.02699
485 4.05691
490 4.33245
495 4.40423
500 4.80063
505 4.72753
510 4.94976
515 5.4112
520 5.82751
525 6.26557
530 7.07556
535 8.85419
540 11.4412
545 14.7572
550 20.2119
555 31.421
560 653.447
565 9999.9
570 9999.9
575 7490.71
580 903.681
585 119.624
590 24.2471
595 11.0232
600 6.03818
Ex : 578
200 0.811899
205 0.92142
210 0.81583
215 0.844219
220 0.998836
225 0.912625
230 0.867912
235 0.902615
240 0.938425
245 0.905281
250 1.00937
255 1.00767
260 1.01515
265 1.02837
270 1.09466
275 1.27731
280 44.9532
285 186.876
290 51.4169
295 7.21609
300 1.99938
305 1.16695
310 1.36209
315 1.4156
320 1.37387
325 1.4314
330 1.38221
335 1.47768
340 1.4283
345 1.49451
350 1.32745
355 1.53323
360 1.54696
365 1.64233
370 1.69411
375 1.53551
380 1.58116
385 1.71401
390 1.5458
395 1.80347
400 1.90476
405 1.83693
410 1.91101
415 1.97231
420 2.10146
425 2.03673
430 2.00824
435 2.45061
440 2.27103
445 2.24168
450 2.51228
455 2.94407
460 3.04515
465 3.73325
470 3.63125
475 3.30122
480 3.69051
485 3.77023
490 4.16951
495 4.13931
500 4.00839
505 4.12189
510 4.57799
515 4.67278
520 4.95428
525 5.97471
530 6.35181
535 7.056
540 8.8988
545 11.0049
550 14.4729
555 19.6283
560 29.8038
565 583.903
570 9999.9
575 9999.9
580 6451.18
585 774.814
590 102.094
595 20.767
600 8.23578
Ex : 583
200 0.924876
205 0.729649
210 0.767764
215 0.982366
220 1.02562
225 0.958121
230 0.896302
235 0.939231
240 0.861281
245 0.927797
250 0.729552
255 0.948968
260 0.922532
265 0.945715
270 1.01404
275 1.11393
280 5.6767
285 146.007
290 142.104
295 19.8133
300 3.47978
305 1.41374
310 1.29259
315 1.60096
320 1.52583
325 1.39575
330 1.38906
335 1.35883
340 1.44447
345 1.32923
350 1.35121
355 1.42695
360 1.47845
365 1.46939
370 1.49868
375 1.50089
380 1.33456
385 1.61616
390 1.54198
395 1.73775
400 1.71902
405 1.65385
410 1.6551
415 1.97846
420 2.14164
425 1.85689
430 1.95174
435 2.20371
440 2.15459
445 2.04144
450 2.55268
455 2.79466
460 3.12055
465 3.05067
470 2.93179
475 3.19406
480 3.35275
485 3.38156
490 3.49971
495 3.38392
500 3.75473
505 3.76647
510 4.23005
515 4.32588
520 4.75097
525 5.01204
530 5.25074
535 5.84862
540 6.76225
545 8.24226
550 10.4919
555 13.9642
560 19.2876
565 28.167
570 512.978
575 9999.9
580 9999.9
585 5495.36
590 663.181
595 88.1372
600 20.3363
Ex : 588
200 0.806863
205 0.743388
210 0.73208
215 0.841363
220 0.789989
225 0.776798
230 0.867607
235 0.827058
240 0.818967
245 0.843417
250 0.87289
255 0.751616
260 0.777255
265 0.884141
270 0.881846
275 1.11775
280 1.15781
285 48.7764
290 221.315
295 62.3549
300 8.39641
305 2.20608
310 1.32501
315 1.32154
320 1.27009
325 1.44941
330 1.27464
335 1.4376
340 1.42088
345 1.42033
350 1.30637
355 1.32594
360 1.3735
365 1.53563
370 1.43643
375 1.37886
380 1.52437
385 1.46796
390 1.69103
395 1.62511
400 1.79255
405 1.47015
410 1.69905
415 1.84292
420 1.75818
425 1.78021
430 1.74958
435 1.7191
440 2.03566
445 2.03009
450 2.23123
455 2.35806
460 2.80218
465 3.11631
470 2.94503
475 3.151
480 3.12809
485 3.2731
490 3.58573
495 3.31093
500 3.51989
505 3.72571
510 3.63577
515 4.18206
520 4.00955
525 4.30899
530 4.85369
535 5.30244
540 5.64691
545 6.69444
550 7.9885
555 10.0777
560 13.4103
565 17.2619
570 24.6928
575 468.598
580 9999.9
585 9999.9
590 5138.46
595 616.854
600 83.3658
Ex : 593
200 0.725376
205 0.786548
210 0.746174
215 0.65138
220 0.866601
225 0.794191
230 0.804072
235 0.765881
240 0.836509
245 0.757783
250 0.832612
255 0.888935
260 0.800818
265 0.834606
270 0.824618
275 0.932073
280 1.0595
285 5.39882
290 166.266
295 171.163
300 24.3056
305 4.05569
310 1.43999
315 1.20992
320 1.49435
325 1.45147
330 1.11648
335 1.11483
340 1.43084
345 1.25521
350 1.25965
355 1.44649
360 1.36061
365 1.20126
370 1.3721
375 1.51696
380 1.30419
385 1.33702
390 1.45178
395 1.49862
400 1.63058
405 1.74334
410 1.56911
415 1.67107
420 1.60886
425 1.87585
430 1.98945
435 1.83605
440 1.85772
445 1.89461
450 2.31922
455 2.20704
460 2.43454
465 2.59139
470 2.80741
475 2.71683
480 3.09593
485 2.83033
490 3.21399
495 3.17251
500 3.09424
505 3.3109
510 3.19447
515 3.13011
520 4.11933
525 4.1662
530 4.27574
535 4.72295
540 5.26977
545 5.53363
550 6.19566
555 7.39786
560 9.2693
565 11.8354
570 16.2477
575 23.0286
580 410.371
585 9999.9
590 9999.9
595 4675.23
600 683.49
Ex : 598
200 0.858081
205 0.700333
210 0.669708
215 0.752904
220 0.79328
225 0.793592
230 0.747656
235 0.851244
240 0.884324
245 0.708281
250 0.812459
255 0.816021
260 0.91951
265 0.847486
270 0.806356
275 0.848818
280 1.0926
285 1.26185
290 55.9821
295 254.163
300 76.7049
305 9.97811
310 2.24826
315 1.30347
320 1.32565
325 1.42861
330 1.40556
335 1.21892
340 1.25213
345 1.13166
350 1.33444
355 1.27138
360 1.45932
365 1.57387
370 1.42063
375 1.24984
380 1.40362
385 1.4472
390 1.59985
395 1.58875
400 1.47902
405 1.55965
410 1.60891
415 1.75794
420 1.71649
425 1.76543
430 1.64551
435 1.51044
440 1.86024
445 1.85243
450 2.15676
455 2.31871
460 2.68336
465 2.51509
470 2.50332
475 2.60023
480 2.69204
485 2.62851
490 2.92621
495 2.90576
500 3.18773
505 3.10503
510 3.29106
515 3.24661
520 3.66954
525 3.8509
530 3.77113
535 4.56228
540 4.48648
545 5.20234
550 5.28599
555 6.43954
560 7.51695
565 9.09102
570 11.7149
575 15.5004
580 20.3747
585 401.749
590 9674.61
595 9999.9
600 9999.9
Ex : 603
200 0.660067
205 0.858167
210 0.616257
215 0.698864
220 0.661557
225 0.697417
230 0.89737
235 0.709196
240 0.704211
245 0.780506
250 0.788612
255 0.69044
260 0.772984
265 0.833437
270 0.879947
275 0.778662
280 0.789216
285 1.073
290 5.49731
295 192.076
300 210.643
305 29.2299
310 4.60873
315 1.64682
320 1.16219
325 1.20767
330 1.38529
335 1.30836
340 1.2605
345 1.23328
350 1.38237
355 1.1348
360 1.25437
365 1.25366
370 1.33193
375 1.36763
380 1.3678
385 1.55693
390 1.44611
395 1.53384
400 1.51507
405 1.72656
410 1.64618
415 1.69181
420 1.50596
425 1.42528
430 1.59994
435 1.87456
440 1.87733
445 1.96995
450 1.88839
455 2.17484
460 2.15708
465 2.38607
470 2.31128
475 2.63402
480 2.57772
485 2.6566
490 2.91105
495 2.76323
500 3.28083
505 2.90581
510 3.33374
515 3.14216
520 3.01901
525 3.40497
530 3.77034
535 3.83585
540 3.95087
545 4.9449
550 4.54198
555 5.37581
560 6.30589
565 7.42437
570 8.84755
575 10.6791
580 13.0503
585 17.3078
590 349.703
595 8407.6
600 9999.9
