File format V 1.0
jeu. 12. mai 15:46:34 2016
Operator : 
Comments : 

=============================================
SpectroFluorometer parameters
Mode : 3D measurement
Data : Fluorescence
Phospho. : Ordinary
Spectrum : Fluorescence

Scan speed : 2400 nm/mn
Response : 100 ms
PM Voltage : 700 V
Shutter : On

Lambda Ex. Start : 203
Lambda Ex. End : 603
Lambda Ex. Step : 5
Ex. Slit : 5 nm

Lambda Em. Start : 200
Lambda Em. End : 600
Lambda Em. Step : 5
Em. Slit : 5 nm

Repetition : 1
Decal lambda em : 10
=============================================
DATA
Ex : 203
200 9.8
205 12.5142
210 10.2355
215 7.03204
220 9.65749
225 10.1272
230 12.9028
235 11.3192
240 8.65201
245 10.0478
250 8.91396
255 9.73844
260 10.4292
265 10.5215
270 7.95583
275 9.58336
280 10.8925
285 8.38791
290 14.5288
295 11.3435
300 10.3812
305 13.6294
310 10.5305
315 16.0821
320 16.8357
325 15.9723
330 14.3046
335 14.795
340 16.0043
345 17.3043
350 19.6296
355 15.133
360 18.4498
365 20.9045
370 15.6983
375 16.7971
380 18.8614
385 23.1812
390 19.2986
395 20.5554
400 19.4962
405 22.32
410 22.3539
415 23.5536
420 22.9494
425 17.5392
430 18.2103
435 24.6438
440 17.8203
445 24.562
450 21.0393
455 22.3566
460 28.1493
465 22.254
470 24.0932
475 24.8859
480 20.3472
485 22.6574
490 23.0411
495 21.6599
500 21.9137
505 22.5988
510 23.1428
515 17.266
520 17.3171
525 13.9219
530 22.5251
535 16.5891
540 19.0871
545 20.1968
550 21.105
555 23.7996
560 19.3604
565 21.1847
570 20.3577
575 21.4847
580 19.3714
585 17.4766
590 15.7082
595 20.1686
600 14.0373
Ex : 208
200 9.69491
205 11.2816
210 9.90293
215 9.14277
220 6.67306
225 9.46949
230 7.92241
235 8.24652
240 10.8279
245 12.095
250 10.0923
255 11.2841
260 15.5488
265 10.464
270 8.79856
275 11.5062
280 12.5844
285 14.0787
290 12.8998
295 12.8559
300 9.9459
305 15.544
310 10.61
315 13.5886
320 16.4736
325 19.3597
330 17.0397
335 17.1109
340 15.6737
345 17.9018
350 17.2808
355 18.02
360 17.7037
365 16.5889
370 21.5908
375 19.4882
380 16.8108
385 16.6261
390 20.5186
395 20.4897
400 24.9962
405 20.2538
410 20.1094
415 21.1106
420 22.6854
425 18.4119
430 18.0419
435 20.6896
440 19.2345
445 21.449
450 21.1792
455 23.0281
460 23.4089
465 22.5187
470 30.2775
475 29.0499
480 26.8579
485 18.1597
490 20.5555
495 21.6932
500 22.2433
505 17.1536
510 16.9067
515 17.12
520 17.8107
525 18.0214
530 17.7001
535 16.7669
540 19.2686
545 20.6655
550 18.098
555 19.9328
560 21.8065
565 22.5616
570 24.6567
575 21.2293
580 19.7097
585 15.0812
590 17.2693
595 14.982
600 16.9919
Ex : 213
200 10.5689
205 8.87075
210 10.288
215 10.1096
220 8.34403
225 10.5086
230 8.26905
235 11.304
240 14.1581
245 12.2613
250 8.85334
255 10.4279
260 8.92548
265 7.65688
270 8.38804
275 10.9948
280 10.5878
285 8.50548
290 13.7053
295 11.3662
300 12.3134
305 13.2907
310 12.3881
315 12.2747
320 14.5438
325 16.8268
330 17.3572
335 20.4441
340 18.4733
345 15.9002
350 17.731
355 15.3314
360 19.6138
365 22.088
370 19.2824
375 16.7147
380 16.1862
385 18.3894
390 20.5763
395 24.3611
400 24.2758
405 24.6576
410 25.0668
415 21.4382
420 19.4892
425 26.8058
430 22.6816
435 20.1491
440 22.2929
445 19.2155
450 22.382
455 21.5545
460 20.6225
465 24.6739
470 21.8897
475 22.4587
480 22.3113
485 22.3013
490 21.5026
495 18.7161
500 20.8158
505 14.9335
510 20.4973
515 20.3285
520 20.483
525 16.5202
530 22.5935
535 18.9947
540 25.9219
545 21.6779
550 22.2515
555 19.1032
560 17.4621
565 18.786
570 21.915
575 16.9717
580 21.438
585 15.6175
590 17.6332
595 16.4983
600 24.4756
Ex : 218
200 10.1436
205 8.06968
210 9.85657
215 10.0951
220 7.61538
225 9.04271
230 7.91527
235 11.9384
240 8.14794
245 5.9684
250 9.61956
255 8.02019
260 10.2444
265 9.84551
270 14.5135
275 9.29509
280 15.7026
285 13.3124
290 15.7189
295 12.4128
300 15.1762
305 14.4016
310 12.5128
315 9.87865
320 13.5708
325 15.5948
330 16.397
335 17.9969
340 19.4429
345 17.447
350 15.1221
355 17.3522
360 16.107
365 20.9361
370 17.6448
375 14.244
380 16.3831
385 25.7516
390 18.6678
395 19.5937
400 18.9051
405 18.6127
410 25.8316
415 21.4944
420 23.9703
425 23.2266
430 20.2975
435 23.1644
440 17.8755
445 21.0242
450 18.4389
455 20.0785
460 22.9005
465 25.2938
470 20.4359
475 21.8444
480 21.2012
485 20.4124
490 23.6489
495 19.8734
500 21.7428
505 18.9736
510 16.6589
515 20.2809
520 18.3657
525 17.8684
530 18.5906
535 23.1087
540 21.0002
545 18.5021
550 22.0476
555 23.8997
560 21.0014
565 17.8673
570 22.28
575 23.5389
580 23.5019
585 17.5636
590 17.2067
595 20.7863
600 39.9404
Ex : 223
200 9.97326
205 5.03125
210 8.93239
215 8.22834
220 10.9588
225 9.14413
230 13.6337
235 8.24884
240 11.5578
245 6.4946
250 10.6636
255 7.95428
260 11.0988
265 9.20092
270 8.6899
275 9.10144
280 14.0087
285 18.4274
290 15.2967
295 12.7934
300 12.4619
305 13.3819
310 11.3421
315 14.5837
320 14.9897
325 16.8626
330 16.5879
335 14.5196
340 15.4564
345 15.4248
350 16.4435
355 14.8041
360 19.9731
365 24.9607
370 21.2116
375 18.6375
380 17.1767
385 19.3999
390 20.8871
395 16.0273
400 18.2876
405 21.2192
410 19.3798
415 21.0795
420 20.7356
425 22.7277
430 18.3314
435 16.6518
440 18.3845
445 19.3208
450 28.2204
455 17.7397
460 21.7126
465 28.8885
470 22.8881
475 17.8057
480 22.562
485 20.1191
490 17.8916
495 20.4887
500 17.9752
505 16.1541
510 19.6702
515 21.069
520 20.1983
525 20.8741
530 20.4044
535 19.2649
540 21.6633
545 23.7289
550 21.8318
555 22.0275
560 21.3884
565 21.8558
570 17.8639
575 17.5343
580 23.0117
585 23.3728
590 15.2984
595 19.6189
600 13.7532
Ex : 228
200 7.59174
205 10.5893
210 7.82042
215 6.36756
220 13.0393
225 11.4467
230 10.122
235 8.06939
240 6.94707
245 9.32316
250 7.13841
255 9.81759
260 9.96956
265 9.24305
270 10.6265
275 13.2078
280 13.7774
285 11.965
290 11.8319
295 11.3871
300 13.4013
305 13.05
310 10.1937
315 13.5417
320 14.8867
325 14.5664
330 17.9258
335 16.3038
340 17.0641
345 20.5399
350 18.7762
355 18.766
360 16.079
365 18.0093
370 19.4014
375 19.9631
380 18.8098
385 20.8215
390 21.2486
395 20.6247
400 19.9651
405 23.1899
410 23.3744
415 18.8893
420 22.4126
425 23.3411
430 18.875
435 20.7311
440 19.9095
445 19.4776
450 42.5656
455 69.931
460 74.5176
465 36.9917
470 25.1966
475 20.3268
480 20.5815
485 21.301
490 19.9615
495 20.4109
500 22.2733
505 20.5336
510 17.3397
515 21.5333
520 18.3618
525 13.8921
530 19.9601
535 20.4343
540 23.1782
545 20.1216
550 15.4148
555 19.6875
560 20.7925
565 25.1105
570 24.2078
575 19.6592
580 20.3272
585 16.3959
590 20.3514
595 18.5282
600 13.186
Ex : 233
200 5.85333
205 6.999
210 7.84581
215 6.51216
220 7.88511
225 21.0133
230 29.3607
235 11.5554
240 6.15686
245 6.9123
250 7.98748
255 7.19637
260 10.1647
265 9.50482
270 11.5006
275 11.7863
280 12.3835
285 8.05964
290 8.63343
295 11.0199
300 10.9198
305 12.8467
310 12.5297
315 16.0699
320 14.0799
325 18.9585
330 19.8699
335 20.4243
340 17.7593
345 19.8836
350 18.8589
355 23.3184
360 19.671
365 19.0051
370 18.3732
375 19.6651
380 19.128
385 15.8074
390 17.2843
395 21.4512
400 21.2679
405 19.1179
410 17.5065
415 18.9751
420 14.9026
425 16.8557
430 16.0613
435 18.0165
440 21.7239
445 15.7499
450 22.4608
455 54.7114
460 188.369
465 281.586
470 174.004
475 47.6122
480 22.3897
485 18.0832
490 22.1933
495 20.3691
500 19.9499
505 19.4827
510 20.9381
515 15.0849
520 16.7314
525 17.5695
530 18.2848
535 17.0926
540 16.3894
545 20.416
550 19.3025
555 15.6741
560 17.5463
565 16.5039
570 20.3502
575 16.1658
580 17.0767
585 15.4265
590 18.2768
595 16.0562
600 30.8946
Ex : 238
200 4.91353
205 6.42255
210 6.06617
215 4.98317
220 5.80311
225 11.1893
230 42.2453
235 59.9393
240 18.6824
245 7.38089
250 8.27478
255 7.00691
260 5.1705
265 8.24868
270 7.7132
275 9.75793
280 8.8282
285 9.80139
290 9.88842
295 9.96335
300 11.0499
305 11.8529
310 12.5101
315 13.0528
320 14.003
325 15.1579
330 19.7796
335 16.8697
340 20.5579
345 19.7048
350 19.0905
355 17.7604
360 17.9863
365 16.4135
370 16.3861
375 18.9113
380 15.8511
385 17.2857
390 19.3911
395 17.0052
400 17.8585
405 16.3695
410 19.4117
415 15.6538
420 17.9882
425 18.0582
430 18.2499
435 19.3433
440 15.7829
445 15.6752
450 16.0917
455 18.3835
460 27.4152
465 145.083
470 384.064
475 463.615
480 264.429
485 62.5091
490 25.8588
495 21.1587
500 21.2054
505 18.4039
510 21.8242
515 25.691
520 22.3968
525 21.517
530 17.0993
535 15.7018
540 20.2171
545 17.8483
550 17.7926
555 21.6273
560 20.4144
565 18.8454
570 19.3965
575 15.7724
580 18.4028
585 16.7829
590 14.3792
595 15.764
600 8.37712
Ex : 243
200 5.82958
205 4.5748
210 6.62325
215 3.5762
220 4.48237
225 5.59624
230 9.64218
235 60.6276
240 82.5882
245 25.9194
250 7.95643
255 4.94983
260 8.11108
265 9.32468
270 9.97562
275 8.79408
280 8.57243
285 9.03217
290 10.2779
295 8.90426
300 12.3035
305 13.5361
310 11.2327
315 14.0065
320 14.3345
325 14.3776
330 12.1089
335 13.8282
340 15.1639
345 18.9311
350 16.239
355 16.5323
360 16.2478
365 16.7914
370 16.2382
375 16.3944
380 17.056
385 16.4135
390 15.8284
395 16.7685
400 14.2369
405 15.7591
410 15.3955
415 14.241
420 15.1861
425 13.3523
430 16.5193
435 13.8436
440 12.3206
445 13.8375
450 15.3676
455 15.8089
460 17.5065
465 18.4708
470 39.0518
475 242.375
480 515.907
485 543.575
490 287.511
495 61.4503
500 19.7541
505 14.901
510 16.5113
515 22.2736
520 23.9977
525 22.8913
530 19.7575
535 16.7038
540 18.365
545 19.9684
550 18.2444
555 22.0276
560 15.3449
565 20.9482
570 18.8718
575 18.4033
580 19.5461
585 20.4179
590 15.7677
595 13.8963
600 17.8875
Ex : 248
200 4.21288
205 5.02843
210 4.25696
215 3.85692
220 4.9556
225 4.41879
230 6.42297
235 8.41782
240 76.238
245 93.358
250 25.4764
255 7.78534
260 8.3268
265 7.50929
270 6.32957
275 7.4946
280 7.06597
285 7.41708
290 8.49247
295 7.82153
300 8.51423
305 10.8297
310 13.184
315 13.0304
320 10.4066
325 13.0463
330 11.7027
335 12.9997
340 12.3628
345 12.5542
350 17.0477
355 13.4462
360 13.0889
365 13.1926
370 13.259
375 12.7077
380 13.7446
385 15.1964
390 13.7543
395 14.9622
400 14.9268
405 15.1039
410 15.2051
415 13.3755
420 11.9231
425 13.2463
430 11.5471
435 12.5683
440 13.1584
445 11.297
450 12.1641
455 14.1575
460 15.9887
465 16.1844
470 13.2067
475 15.1833
480 52.8004
485 294.812
490 563.759
495 560.182
500 278.072
505 59.7027
510 21.6065
515 19.3064
520 17.3143
525 19.0638
530 22.5255
535 23.5847
540 23.9152
545 22.478
550 17.7044
555 17.6883
560 15.2325
565 17.9916
570 16.6054
575 16.5453
580 14.4845
585 13.7558
590 11.5685
595 12.2173
600 14.3879
Ex : 253
200 2.71335
205 5.58314
210 4.03277
215 4.63729
220 4.54667
225 3.24373
230 4.02566
235 4.58576
240 7.98213
245 76.7162
250 129.07
255 42.1562
260 10.2562
265 6.24992
270 6.42294
275 8.03737
280 7.43708
285 6.40897
290 8.4257
295 8.50388
300 10.4118
305 9.64701
310 9.83558
315 11.038
320 11.2263
325 9.70117
330 10.1946
335 10.8273
340 11.9937
345 11.8021
350 11.0571
355 11.9079
360 14.2021
365 10.5431
370 12.029
375 12.6045
380 11.1942
385 12.0878
390 12.3023
395 11.1313
400 12.0535
405 14.6723
410 11.2851
415 11.3873
420 10.1013
425 9.36075
430 10.8601
435 13.1186
440 10.8161
445 11.8518
450 11.0716
455 9.17382
460 15.03
465 14.4761
470 12.477
475 10.4734
480 12.5109
485 11.1662
490 53.0519
495 296.159
500 568.394
505 664.412
510 431.699
515 96.2067
520 26.4157
525 19.7032
530 15.8927
535 15.8997
540 20.6412
545 23.0263
550 25.4795
555 20.5979
560 17.2299
565 16.923
570 14.2209
575 15.552
580 15.5762
585 13.5133
590 13.7692
595 14.8083
600 9.88251
Ex : 258
200 2.35818
205 2.92109
210 2.87217
215 3.7469
220 3.03519
225 3.55468
230 2.77317
235 2.2992
240 4.25535
245 10.123
250 175.034
255 338.197
260 104.62
265 17.0857
270 8.16103
275 9.79804
280 11.2842
285 8.96982
290 8.43262
295 9.78298
300 9.9215
305 9.7527
310 9.75326
315 10.3431
320 11.2304
325 12.3526
330 9.56547
335 13.0293
340 12.322
345 11.496
350 12.5487
355 13.3201
360 12.6119
365 11.5762
370 10.9551
375 10.1245
380 10.0828
385 9.6253
390 10.2643
395 10.7696
400 10.2415
405 12.3936
410 9.82855
415 10.7407
420 8.96333
425 11.7643
430 10.1198
435 10.3924
440 9.12271
445 11.3509
450 11.0685
455 10.2509
460 10.9162
465 10.878
470 11.2715
475 11.857
480 11.9318
485 13.4687
490 11.4269
495 10.6988
500 59.921
505 523.167
510 1954.66
515 2399.82
520 1099.89
525 198.382
530 44.0782
535 21.148
540 19.4294
545 20.0166
550 20.6651
555 30.2526
560 31.5584
565 26.4099
570 21.9037
575 19.0272
580 17.7439
585 16.6159
590 16.4955
595 16.1035
600 16.7798
Ex : 263
200 2.50767
205 2.46344
210 3.0089
215 2.16845
220 2.43341
225 2.43718
230 2.87943
235 2.33151
240 3.0329
245 3.4418
250 23.8063
255 365.79
260 706.012
265 186.662
270 29.2849
275 11.2568
280 11.8427
285 14.8507
290 12.5388
295 11.9372
300 13.4574
305 12.6117
310 12.5646
315 14.1777
320 11.9878
325 12.0407
330 12.099
335 13.4137
340 12.5235
345 13.1273
350 13.0806
355 11.5179
360 10.6081
365 11.4075
370 10.6798
375 9.34655
380 9.77586
385 9.66527
390 8.37394
395 8.67889
400 8.84328
405 9.00912
410 8.15784
415 8.71426
420 10.0868
425 9.16598
430 8.7776
435 8.86349
440 8.27302
445 8.69883
450 8.48102
455 8.64173
460 10.0213
465 9.45572
470 10.1245
475 11.4776
480 9.99001
485 9.12972
490 9.53806
495 10.7525
500 9.85905
505 12.3636
510 162.167
515 1342.97
520 3056.53
525 3257.42
530 1611.36
535 283.002
540 59.0778
545 28.4415
550 22.344
555 21.7575
560 27.3477
565 32.04
570 35.3955
575 31.498
580 24.6693
585 22.9309
590 20.4239
595 19.0019
600 18.1607
Ex : 268
200 1.6499
205 2.07481
210 1.94669
215 2.30287
220 2.48065
225 2.1297
230 2.23915
235 2.14543
240 2.44407
245 3.63204
250 3.35224
255 35.8614
260 632.445
265 1219.81
270 325.224
275 47.9911
280 15.3697
285 14.7597
290 18.1114
295 15.3912
300 14.6242
305 12.475
310 13.8481
315 14.3518
320 14.0383
325 13.2731
330 11.9462
335 11.3904
340 12.3853
345 12.029
350 12.9617
355 10.9442
360 10.593
365 9.67361
370 8.93627
375 9.48508
380 8.06525
385 9.06614
390 7.06523
395 7.82168
400 7.96572
405 7.40296
410 7.46432
415 7.63042
420 8.25537
425 7.82583
430 6.84522
435 6.90252
440 8.92348
445 8.01603
450 8.49115
455 8.68022
460 7.45346
465 9.72312
470 9.62318
475 9.60578
480 7.88097
485 7.88437
490 8.8801
495 8.49382
500 9.27385
505 10.2389
510 11.905
515 15.2245
520 256.296
525 1979.56
530 5532.38
535 5865.94
540 2467.95
545 414.882
550 76.7149
555 33.6005
560 26.9125
565 25.7901
570 28.6904
575 32.6452
580 39.4939
585 36.4494
590 31.7088
595 25.057
600 33.2777
Ex : 273
200 2.07991
205 2.10197
210 2.10416
215 2.1564
220 1.52646
225 2.16644
230 2.4059
235 2.1874
240 2.66294
245 2.54697
250 2.92815
255 4.2456
260 55.3861
265 1060.41
270 1758.34
275 465.788
280 66.7887
285 21.6601
290 18.5611
295 21.223
300 18.9729
305 15.6664
310 14.9335
315 13.7576
320 14.8
325 13.4123
330 14.3217
335 12.8194
340 11.0957
345 11.5791
350 11.9355
355 10.5956
360 10.2935
365 10.2284
370 9.57868
375 8.55637
380 8.91219
385 8.58046
390 8.58755
395 6.41536
400 7.44892
405 7.35465
410 7.55986
415 7.00972
420 6.85134
425 7.44089
430 6.42897
435 7.60421
440 6.80675
445 7.10728
450 7.06086
455 7.80963
460 8.76306
465 9.87094
470 8.0566
475 7.30811
480 7.61585
485 8.21048
490 8.05945
495 8.39461
500 8.42578
505 9.3011
510 9.45987
515 11.2405
520 13.1248
525 21.6719
530 438.205
535 3218.77
540 7803.61
545 7608.39
550 3127.44
555 502.725
560 90.9674
565 41.0479
570 33.9602
575 29.8733
580 29.921
585 33.9927
590 37.9671
595 37.136
600 39.9399
Ex : 278
200 1.75267
205 1.82087
210 1.34702
215 1.7135
220 1.93318
225 2.17831
230 1.79817
235 2.03306
240 1.98357
245 2.6683
250 3.00802
255 3.68009
260 4.5529
265 77.4447
270 1457.6
275 2521.68
280 626.34
285 87.4883
290 22.8134
295 17.3792
300 21.8718
305 18.4462
310 14.8935
315 13.5954
320 14.4097
325 15.2082
330 13.5696
335 12.1263
340 11.6634
345 11.7015
350 11.2626
355 9.76493
360 10.0201
365 8.80357
370 8.74366
375 8.65083
380 7.84553
385 7.57544
390 7.3473
395 8.6589
400 7.9218
405 7.18316
410 7.06388
415 6.02247
420 6.22692
425 6.05871
430 6.28054
435 6.62104
440 6.06619
445 7.28792
450 7.0864
455 7.08453
460 7.79754
465 6.90802
470 7.02028
475 7.06877
480 7.33202
485 7.33149
490 6.73213
495 7.32819
500 7.55308
505 7.31525
510 7.69144
515 8.39943
520 9.80538
525 11.8351
530 15.0413
535 26.2116
540 613.691
545 4338.23
550 9170.37
555 8658.12
560 3497.56
565 557.355
570 100.649
575 42.5339
580 32.884
585 28.5664
590 27.3156
595 28.6077
600 39.0868
Ex : 283
200 2.06931
205 1.68644
210 1.52311
215 1.75249
220 1.51815
225 1.82052
230 1.4725
235 2.20029
240 2.28424
245 2.2697
250 2.08968
255 2.14654
260 3.02868
265 5.24738
270 97.4544
275 1874.87
280 3013.1
285 747.198
290 99.1472
295 23.3123
300 15.1231
305 18.2559
310 16.5987
315 12.2365
320 12.1416
325 12.4025
330 11.4047
335 12.3719
340 11.5642
345 10.9642
350 11.1683
355 9.40371
360 10.1981
365 7.9753
370 8.05293
375 7.83455
380 7.55774
385 7.01646
390 6.17521
395 6.72066
400 6.60979
405 6.24607
410 5.68805
415 6.2048
420 5.47941
425 6.1195
430 6.59331
435 5.79334
440 5.8704
445 6.41971
450 6.34954
455 7.19803
460 6.52334
465 6.51456
470 6.23103
475 5.65167
480 6.58779
485 6.59936
490 6.22993
495 6.52769
500 6.56692
505 6.37899
510 6.51864
515 6.87362
520 8.2001
525 8.23176
530 10.0693
535 13.0264
540 15.7937
545 29.3544
550 753.19
555 4990.88
560 9925.28
565 8876.84
570 3534.94
575 548.848
580 93.2367
585 36.2412
590 26.063
595 22.0927
600 23.8793
Ex : 288
200 1.36902
205 1.37078
210 1.39818
215 1.6786
220 1.28497
225 1.50546
230 1.87752
235 1.9502
240 1.78015
245 2.03919
250 2.31517
255 2.25476
260 2.50397
265 3.62338
270 5.79854
275 114.112
280 2175.76
285 3515.11
290 842.5
295 109.882
300 22.5898
305 12.856
310 15.8357
315 15.6189
320 13.2345
325 11.1511
330 10.5626
335 10.5371
340 10.2089
345 10.3673
350 8.9071
355 8.71923
360 8.31861
365 7.98374
370 6.6549
375 6.85289
380 6.96467
385 6.45424
390 6.74244
395 6.5519
400 6.16801
405 5.79116
410 6.61269
415 6.24197
420 5.54243
425 5.46469
430 5.64316
435 5.48867
440 5.30808
445 6.19261
450 5.73345
455 5.8407
460 6.08912
465 6.63868
470 5.82271
475 5.8212
480 5.41158
485 5.57152
490 5.70139
495 5.78223
500 5.49803
505 5.62624
510 5.87637
515 6.1552
520 6.2118
525 7.0276
530 7.74498
535 8.90729
540 10.9128
545 13.4412
550 18.5113
555 31.4543
560 813.892
565 5143.58
570 9983.31
575 8787.43
580 3430.64
585 512.111
590 85.0802
595 30.1659
600 27.2475
Ex : 293
200 1.49774
205 1.3904
210 1.40134
215 1.47196
220 1.48304
225 1.4482
230 1.17655
235 1.4184
240 1.7787
245 1.80813
250 1.7107
255 1.98952
260 1.97245
265 2.67392
270 4.03482
275 5.70954
280 149.382
285 2418.36
290 3730.38
295 881.938
300 113.572
305 22.3605
310 11.9714
315 13.8199
320 15.5968
325 12.5735
330 10.2009
335 9.78517
340 9.14798
345 8.41114
350 8.50432
355 7.8934
360 7.9405
365 8.04177
370 7.17485
375 6.65299
380 6.1391
385 6.03742
390 6.71342
395 5.83437
400 6.2403
405 5.4487
410 5.83259
415 6.31404
420 5.81192
425 5.18285
430 5.30284
435 5.33837
440 5.36582
445 5.33367
450 5.84655
455 5.50278
460 5.28932
465 5.50203
470 5.96378
475 5.26487
480 5.03183
485 5.28037
490 4.77956
495 4.73927
500 5.41276
505 5.0959
510 5.06634
515 5.0928
520 5.38988
525 5.20921
530 5.88237
535 6.61664
540 7.94455
545 9.84614
550 10.6148
555 13.2501
560 18.4339
565 33.5114
570 943.022
575 5457.77
580 9999.9
585 8056.53
590 2883.88
595 414.704
600 75.6291
Ex : 298
200 1.34563
205 1.63576
210 1.40973
215 1.37633
220 1.16132
225 1.43558
230 1.30427
235 1.43388
240 1.25382
245 1.34828
250 1.33269
255 1.52623
260 1.90309
265 2.23949
270 2.91433
275 3.98336
280 6.98923
285 156.255
290 2698.84
295 4062.93
300 970.843
305 123.963
310 24.3411
315 12.2016
320 13.1942
325 15.6807
330 12.822
335 9.28976
340 8.58365
345 8.01974
350 8.32573
355 7.1352
360 7.01072
365 6.40172
370 6.07645
375 5.65194
380 5.83096
385 5.96248
390 5.22875
395 5.99051
400 5.68375
405 6.02049
410 5.30711
415 5.10491
420 5.2029
425 5.39846
430 5.26521
435 5.06188
440 4.60271
445 4.95184
450 4.95998
455 4.88373
460 4.68303
465 4.79298
470 4.61776
475 4.68439
480 4.97491
485 4.37604
490 4.55664
495 4.92586
500 4.91871
505 4.30242
510 4.65012
515 4.63477
520 4.62839
525 4.77523
530 5.25689
535 5.2831
540 6.02967
545 6.11573
550 7.34438
555 9.26196
560 10.6394
565 12.9568
570 17.257
575 36.189
580 1041.87
585 5532.63
590 9999.9
595 7658.27
600 4781.89
Ex : 303
200 1.15728
205 1.0796
210 1.03339
215 1.03089
220 1.11799
225 1.09471
230 1.189
235 1.31657
240 1.24393
245 1.4955
250 1.39717
255 1.66048
260 1.70519
265 1.77433
270 2.14285
275 2.68271
280 4.06257
285 7.05148
290 165.585
295 2948.26
300 4441.65
305 1054.1
310 134.812
315 25.639
320 11.5454
325 12.4585
330 15.2258
335 13.3385
340 8.65514
345 7.27995
350 6.5908
355 6.21247
360 5.92011
365 5.89134
370 5.28581
375 5.48074
380 5.1301
385 5.29833
390 5.63412
395 5.21269
400 5.04839
405 5.29664
410 5.21521
415 4.77133
420 4.9455
425 5.04868
430 4.92619
435 4.79236
440 4.71168
445 4.452
450 4.18891
455 4.37572
460 4.26181
465 4.84399
470 4.44316
475 4.87293
480 3.81006
485 4.26995
490 4.22629
495 4.22006
500 4.55824
505 3.9044
510 4.0318
515 4.4115
520 3.94263
525 4.1767
530 3.9764
535 4.60626
540 4.7323
545 5.33813
550 5.72803
555 6.39014
560 7.22659
565 8.15157
570 10.4748
575 12.3748
580 17.2099
585 37.8548
590 1154.69
595 5644.23
600 9014.81
Ex : 308
200 1.14322
205 1.08341
210 1.06219
215 0.977871
220 1.10722
225 1.27378
230 1.13326
235 1.16231
240 1.13607
245 1.16039
250 1.20462
255 1.38878
260 1.72252
265 1.45644
270 1.91082
275 2.3739
280 3.12797
285 4.42411
290 6.85814
295 200.79
300 3206.85
305 4632.74
310 1095.57
315 139.701
320 26.0891
325 11.3842
330 10.8993
335 14.2357
340 12.8494
345 8.71552
350 6.78927
355 5.43944
360 5.17574
365 5.33356
370 5.03126
375 5.01657
380 4.71239
385 4.92497
390 5.12296
395 4.83299
400 4.52858
405 4.35007
410 4.39319
415 4.74226
420 4.36953
425 4.51715
430 4.1042
435 4.20176
440 4.18149
445 4.09435
450 3.94506
455 3.89902
460 4.12653
465 3.98504
470 4.02899
475 3.96897
480 3.883
485 3.82895
490 3.68984
495 3.76265
500 3.70286
505 3.66824
510 3.54101
515 3.46979
520 3.87086
525 3.36452
530 4.02743
535 4.06244
540 3.96574
545 4.54101
550 4.74572
555 4.98855
560 5.54922
565 5.82335
570 6.95044
575 8.00057
580 9.2609
585 11.6593
590 15.8516
595 44.5444
600 179.048
Ex : 313
200 1.1332
205 1.06127
210 1.1816
215 1.12537
220 1.01844
225 1.02227
230 1.01092
235 1.12998
240 1.06024
245 1.10603
250 1.33293
255 1.37864
260 1.0962
265 1.56667
270 1.85078
275 1.99711
280 2.5838
285 3.10381
290 4.91808
295 7.29842
300 208.743
305 3604.36
310 5188.72
315 1221.9
320 154.027
325 28.5453
330 11.0652
335 10.2022
340 13.2414
345 13.6137
350 8.90519
355 6.42175
360 5.37489
365 4.97691
370 4.75947
375 4.9748
380 4.39846
385 4.56625
390 4.49346
395 4.60832
400 4.31157
405 4.56343
410 4.24251
415 4.20615
420 4.21039
425 4.1677
430 4.34444
435 3.9674
440 4.03896
445 4.44644
450 4.02681
455 3.98332
460 3.84271
465 4.05798
470 3.95634
475 3.92608
480 3.56641
485 3.73856
490 3.42807
495 3.55347
500 3.68647
505 3.3518
510 3.44981
515 3.50851
520 3.35991
525 3.75435
530 3.29919
535 3.09886
540 3.41224
545 3.76473
550 4.05648
555 4.29633
560 4.56338
565 4.88372
570 4.67568
575 5.66911
580 6.53996
585 7.73915
590 9.55247
595 11.697
600 13.5021
Ex : 318
200 1.1978
205 0.974587
210 1.04556
215 0.881273
220 1.01433
225 1.00217
230 0.997362
235 0.901492
240 0.931119
245 1.41102
250 1.46934
255 1.31127
260 1.44213
265 1.61359
270 1.5045
275 1.87688
280 2.21581
285 2.52251
290 3.41998
295 4.88043
300 8.45082
305 267.592
310 4048.97
315 5692.74
320 1312.11
325 164.706
330 29.202
335 11.2341
340 9.30593
345 11.3869
350 12.6003
355 9.67388
360 6.09689
365 4.94374
370 5.00056
375 4.70389
380 4.79309
385 4.36086
390 4.6026
395 4.57485
400 4.34912
405 4.15405
410 4.23519
415 4.00166
420 4.22546
425 4.18683
430 3.74046
435 3.64041
440 3.64315
445 3.84263
450 4.0059
455 3.54546
460 3.77096
465 3.83717
470 3.80569
475 3.6406
480 3.61709
485 3.90195
490 3.49541
495 3.31208
500 3.50169
505 3.45048
510 3.35262
515 3.19958
520 3.12062
525 3.35563
530 3.26627
535 3.13566
540 2.97157
545 3.45905
550 3.20245
555 3.75121
560 4.08457
565 4.06446
570 4.06861
575 4.47217
580 4.66508
585 5.24057
590 6.23241
595 7.18034
600 7.80247
Ex : 323
200 1.00107
205 0.81885
210 0.917
215 1.10547
220 0.938246
225 1.03856
230 1.04408
235 0.829229
240 0.996089
245 1.02087
250 1.13569
255 1.26926
260 1.47527
265 1.24154
270 1.31357
275 1.75394
280 1.70615
285 2.12716
290 2.51595
295 3.36422
300 5.11985
305 8.65362
310 272.888
315 4289.55
320 6327.35
325 1533.07
330 191.598
335 32.6152
340 11.6727
345 8.81603
350 10.4136
355 12.4194
360 10.4734
365 6.75282
370 5.33653
375 4.52182
380 4.26645
385 4.20207
390 4.37354
395 4.19055
400 4.28023
405 4.266
410 4.13283
415 4.11904
420 3.78361
425 3.77476
430 3.94955
435 3.73734
440 3.4915
445 3.99777
450 3.5993
455 3.67842
460 3.72379
465 3.75498
470 3.59399
475 3.55508
480 3.70318
485 3.6009
490 3.17725
495 3.33842
500 3.01403
505 3.09543
510 3.1493
515 3.1269
520 2.91211
525 2.87434
530 3.00638
535 3.08362
540 3.05072
545 3.32059
550 3.16267
555 3.20806
560 3.1676
565 3.29323
570 3.63665
575 3.45867
580 4.03889
585 4.39113
590 4.53997
595 5.16836
600 5.27902
Ex : 328
200 0.926961
205 0.813211
210 0.865117
215 0.806219
220 0.864804
225 0.91301
230 0.974236
235 0.82938
240 1.02249
245 0.972971
250 1.03911
255 1.13838
260 1.07647
265 1.50773
270 1.18786
275 1.24728
280 1.66971
285 1.84047
290 2.33291
295 2.62781
300 3.41414
305 5.38936
310 8.84761
315 286.356
320 4770.51
325 6899.57
330 1615.07
335 200.551
340 33.8745
345 12.1044
350 8.44087
355 10.0501
360 11.7543
365 11.2142
370 7.44399
375 5.35508
380 4.70496
385 4.39783
390 4.34339
395 4.48247
400 4.21638
405 3.98804
410 3.93016
415 4.11945
420 4.1337
425 4.08113
430 3.76924
435 3.82142
440 3.66763
445 3.84171
450 3.80352
455 3.59896
460 3.74127
465 3.64025
470 3.8163
475 3.46336
480 3.33563
485 3.25945
490 3.60687
495 3.37536
500 3.13402
505 3.01786
510 2.86765
515 2.85192
520 2.7701
525 2.98936
530 2.81629
535 2.86253
540 2.97737
545 2.99611
550 3.16795
555 3.02395
560 2.94833
565 3.27435
570 3.17851
575 3.40628
580 3.34296
585 3.58784
590 3.58835
595 3.91641
600 3.24389
Ex : 333
200 0.855137
205 0.735833
210 0.784706
215 0.92102
220 0.893757
225 0.910124
230 0.987222
235 0.986673
240 1.0034
245 0.922463
250 1.08957
255 1.02218
260 1.14846
265 1.21563
270 1.31758
275 1.34287
280 1.49663
285 1.58725
290 1.93018
295 2.29983
300 2.96476
305 3.806
310 5.6149
315 10.0994
320 347.093
325 5138.42
330 7310.43
335 1711.41
340 211.349
345 35.0993
350 11.5585
355 7.94667
360 8.47514
365 11.0391
370 11.1421
375 8.31608
380 5.40515
385 5.0624
390 4.56989
395 4.69856
400 4.49703
405 4.54459
410 4.4223
415 4.14249
420 3.97255
425 3.98617
430 4.10611
435 3.56322
440 3.49675
445 3.59083
450 3.57675
455 3.71131
460 3.66632
465 3.94955
470 3.81953
475 3.63186
480 3.15895
485 2.96607
490 3.26406
495 3.00086
500 3.03082
505 3.03984
510 3.09343
515 2.81969
520 3.0443
525 2.7849
530 2.79774
535 2.62664
540 2.52771
545 2.56817
550 3.02957
555 2.88843
560 2.51663
565 2.42884
570 2.5797
575 2.86165
580 2.93948
585 2.94764
590 3.13331
595 3.18664
600 3.84098
Ex : 338
200 0.715605
205 0.740746
210 0.842415
215 0.764867
220 0.772852
225 0.940565
230 0.997653
235 1.02066
240 0.747613
245 0.828908
250 0.887624
255 0.952115
260 1.06989
265 1.30584
270 1.20857
275 1.29466
280 1.47087
285 1.50522
290 1.8543
295 2.0852
300 2.37483
305 3.03598
310 3.92394
315 5.87888
320 10.2143
325 378.166
330 5507.17
335 7614.86
340 1769.93
345 218.11
350 35.7434
355 11.5373
360 7.58597
365 7.76754
370 10.476
375 10.7823
380 8.88167
385 6.19416
390 5.04568
395 4.91965
400 4.56265
405 4.37615
410 4.21054
415 4.10688
420 4.13852
425 4.13563
430 3.87127
435 3.45797
440 3.59785
445 3.66253
450 3.56904
455 3.66173
460 3.70179
465 3.40981
470 3.41624
475 3.47833
480 3.4204
485 3.18507
490 3.14146
495 3.13167
500 2.90182
505 2.84253
510 2.72862
515 2.70681
520 2.70276
525 2.69735
530 2.6423
535 2.64627
540 2.58611
545 2.43657
550 2.46374
555 2.60697
560 2.68111
565 2.52116
570 2.52076
575 2.42242
580 2.37989
585 2.59685
590 2.63623
595 2.7311
600 4.01259
Ex : 343
200 0.724486
205 0.687917
210 0.725625
215 0.733297
220 0.738145
225 0.794368
230 0.744062
235 0.894015
240 0.928123
245 0.886704
250 0.982059
255 0.939611
260 0.865193
265 0.959955
270 1.0578
275 1.17099
280 1.2957
285 1.48295
290 1.63694
295 1.60328
300 1.73195
305 2.31387
310 2.781
315 3.94597
320 6.28499
325 10.5025
330 372.619
335 5666.98
340 8078.47
345 1883
350 231.677
355 36.5825
360 11.4761
365 7.30764
370 6.83091
375 9.01287
380 10.7295
385 9.50825
390 6.19862
395 4.8515
400 4.48946
405 4.29908
410 4.06959
415 4.05192
420 3.8684
425 3.95105
430 3.90918
435 3.87388
440 3.79592
445 3.66568
450 3.3786
455 3.45744
460 3.58816
465 3.48306
470 3.39786
475 3.34282
480 3.18405
485 3.327
490 3.15396
495 3.03955
500 3.01412
505 2.72432
510 2.81112
515 2.41338
520 2.42036
525 2.53205
530 2.55602
535 2.38486
540 2.50877
545 2.38145
550 2.37801
555 2.25053
560 2.24967
565 2.23694
570 2.19916
575 2.25041
580 2.15041
585 2.30565
590 2.13043
595 2.30795
600 2.33355
Ex : 348
200 0.63486
205 0.673283
210 0.68016
215 0.666686
220 0.833955
225 0.687685
230 0.838992
235 0.725319
240 0.801063
245 0.919629
250 0.830209
255 0.77573
260 0.904303
265 1.04298
270 1.03288
275 1.06196
280 1.20111
285 1.27369
290 1.40566
295 1.41453
300 1.78132
305 2.05452
310 2.55257
315 2.91474
320 4.04138
325 5.93684
330 10.2566
335 351.641
340 5623.28
345 8518.32
350 2136.09
355 260.364
360 40.0532
365 12.0775
370 7.2437
375 6.51404
380 8.19588
385 9.89558
390 9.60208
395 7.18811
400 5.03403
405 4.46215
410 4.09187
415 3.95559
420 4.13862
425 3.76321
430 3.89099
435 3.70711
440 3.48505
445 3.54616
450 3.64768
455 3.5993
460 3.49945
465 3.57678
470 3.24779
475 3.35578
480 3.25901
485 3.0071
490 3.18152
495 2.91414
500 2.99985
505 2.71889
510 2.3834
515 2.2936
520 2.30508
525 2.20536
530 2.35155
535 2.42288
540 2.20421
545 2.3892
550 2.24911
555 2.12649
560 2.08221
565 2.05455
570 2.00631
575 2.08305
580 1.82221
585 1.81561
590 1.94438
595 1.93791
600 2.28977
Ex : 353
200 0.730761
205 0.605166
210 0.693384
215 0.774404
220 0.5652
225 0.680275
230 0.75205
235 0.643818
240 0.602145
245 0.792657
250 0.796098
255 0.910979
260 0.80692
265 0.866146
270 1.01554
275 0.982576
280 1.06726
285 1.13252
290 1.27955
295 1.19402
300 1.50512
305 1.70969
310 2.08855
315 2.44335
320 3.14437
325 4.20209
330 6.24538
335 11.2587
340 376.375
345 5969.81
350 8721.35
355 2101.31
360 255.763
365 39.3585
370 11.7937
375 7.16657
380 6.13902
385 7.01926
390 9.52899
395 9.95243
400 7.86718
405 5.69844
410 4.68401
415 4.25494
420 4.15778
425 4.01748
430 3.80448
435 3.49524
440 3.5268
445 3.70306
450 3.71748
455 3.37044
460 3.38153
465 3.51685
470 3.37699
475 3.07641
480 3.06293
485 2.87475
490 2.87566
495 2.96686
500 2.65811
505 2.59777
510 2.67164
515 2.43868
520 2.25267
525 2.37868
530 2.19402
535 2.33431
540 2.20289
545 2.0605
550 1.96344
555 1.99516
560 1.84069
565 1.65738
570 1.82967
575 1.71788
580 1.64812
585 1.69112
590 1.73827
595 1.57567
600 1.5106
Ex : 358
200 0.655227
205 0.630325
210 0.573065
215 0.650594
220 0.649348
225 0.675963
230 0.686977
235 0.693981
240 0.723779
245 0.712126
250 0.697345
255 0.916825
260 0.733397
265 0.763001
270 0.867372
275 0.938771
280 0.932256
285 1.09122
290 1.12715
295 1.10326
300 1.20381
305 1.472
310 1.76047
315 1.9679
320 2.46385
325 3.2685
330 4.32572
335 6.2227
340 11.048
345 364.102
350 5886.36
355 9046.83
360 2210.67
365 268.909
370 41.1585
375 11.933
380 7.57306
385 6.08952
390 6.41616
395 8.73411
400 9.94146
405 8.48337
410 5.88916
415 4.5618
420 4.38956
425 4.19741
430 3.81595
435 3.87022
440 3.57332
445 3.56935
450 3.53679
455 3.43909
460 3.24492
465 3.25184
470 3.23599
475 3.03365
480 3.10777
485 3.00596
490 2.78601
495 2.70565
500 2.61853
505 2.62057
510 2.37934
515 2.38392
520 2.03431
525 2.18406
530 2.09644
535 1.96505
540 1.86709
545 1.91067
550 1.8486
555 1.84396
560 1.89946
565 1.75202
570 1.69184
575 1.67346
580 1.57598
585 1.41635
590 1.33447
595 1.54815
600 2.09008
Ex : 363
200 0.668169
205 0.596782
210 0.537049
215 0.673023
220 0.600897
225 0.692876
230 0.724594
235 0.65245
240 0.618137
245 0.693755
250 0.687283
255 0.727866
260 0.729385
265 0.764497
270 0.848555
275 0.928815
280 0.860653
285 0.985142
290 1.01113
295 1.18765
300 1.21558
305 1.24999
310 1.36737
315 1.67552
320 2.0342
325 2.38229
330 3.1937
335 4.33635
340 6.16012
345 11.0528
350 337.9
355 5763.33
360 8984.33
365 2264.41
370 275.667
375 41.9236
380 12.0823
385 7.34061
390 5.88964
395 5.62868
400 7.85373
405 9.11454
410 8.79991
415 6.36728
420 4.79062
425 4.00996
430 4.04439
435 3.76461
440 3.56958
445 3.24287
450 3.53449
455 3.35191
460 3.36487
465 3.26199
470 3.16554
475 3.17864
480 2.93983
485 2.73788
490 2.77994
495 2.61741
500 2.56475
505 2.27553
510 2.25986
515 2.21792
520 2.12574
525 2.01682
530 1.97463
535 1.96761
540 1.88534
545 1.85388
550 1.59804
555 1.83484
560 1.60572
565 1.61645
570 1.48269
575 1.55268
580 1.42067
585 1.37688
590 1.3677
595 1.42671
600 1.47255
Ex : 368
200 0.538648
205 0.518552
210 0.493941
215 0.454854
220 0.575049
225 0.546623
230 0.579214
235 0.555447
240 0.69584
245 0.599546
250 0.801103
255 0.724568
260 0.665302
265 0.704207
270 0.686952
275 0.748908
280 0.898891
285 0.847123
290 0.979854
295 1.07951
300 1.05486
305 1.11203
310 1.27325
315 1.45218
320 1.74423
325 2.08147
330 2.63095
335 3.02692
340 4.20112
345 6.4909
350 10.9788
355 286.324
360 5731.14
365 9608.66
370 2514.68
375 305.589
380 45.6535
385 13.0557
390 7.77762
395 6.34634
400 5.50536
405 7.06329
410 8.92918
415 8.72196
420 6.98895
425 4.8833
430 4.05005
435 3.8909
440 3.76389
445 3.61449
450 3.64356
455 3.44584
460 3.07682
465 3.10188
470 3.16416
475 3.01197
480 2.69925
485 2.6593
490 2.45996
495 2.42621
500 2.36067
505 2.30111
510 2.47729
515 2.09503
520 2.10663
525 1.99285
530 1.91658
535 1.92542
540 1.77638
545 1.70474
550 1.65526
555 1.63792
560 1.58754
565 1.65573
570 1.42039
575 1.32018
580 1.18141
585 1.25796
590 1.30322
595 1.37061
600 0.9634
Ex : 373
200 0.454493
205 0.524105
210 0.516407
215 0.549724
220 0.52492
225 0.539242
230 0.520846
235 0.632314
240 0.601467
245 0.670738
250 0.62
255 0.661208
260 0.717763
265 0.69834
270 0.709883
275 0.685367
280 0.790608
285 0.737459
290 0.864958
295 0.951971
300 0.998013
305 1.05301
310 1.31358
315 1.45559
320 1.40766
325 1.81438
330 2.12105
335 2.50788
340 3.08691
345 4.27192
350 6.60955
355 11.0777
360 353.169
365 6167.22
370 9905.71
375 2553.37
380 308.504
385 45.8883
390 13.0279
395 7.78396
400 5.99432
405 5.0274
410 6.58079
415 8.35597
420 8.40737
425 7.34273
430 4.97768
435 4.1036
440 3.88231
445 3.78048
450 3.56511
455 3.52832
460 3.34622
465 3.36192
470 3.18187
475 2.80093
480 2.90065
485 2.72045
490 2.52564
495 2.58134
500 2.35942
505 2.34153
510 2.35719
515 2.21969
520 2.065
525 2.01424
530 1.8519
535 1.85715
540 1.69795
545 1.66071
550 1.69793
555 1.56914
560 1.51508
565 1.4862
570 1.32631
575 1.30362
580 1.29454
585 1.29084
590 1.13125
595 1.18847
600 0.987362
Ex : 378
200 0.52979
205 0.513979
210 0.523086
215 0.527259
220 0.546383
225 0.531854
230 0.536344
235 0.562568
240 0.62532
245 0.506998
250 0.569026
255 0.632798
260 0.607573
265 0.668711
270 0.762277
275 0.721836
280 0.793498
285 0.750725
290 0.870944
295 0.963152
300 0.880843
305 0.966682
310 1.08777
315 1.2289
320 1.23836
325 1.59969
330 1.77039
335 2.2575
340 2.56701
345 3.36767
350 4.61427
355 6.72999
360 11.2835
365 340.692
370 6325.2
375 9999.9
380 2601.53
385 314.439
390 46.9313
395 13.3112
400 7.74796
405 5.94944
410 4.92838
415 5.6892
420 7.82037
425 8.23747
430 7.43133
435 5.67497
440 4.18764
445 3.87415
450 3.76014
455 3.57977
460 3.47913
465 3.33504
470 3.13938
475 3.09774
480 2.89867
485 2.70757
490 2.67245
495 2.49917
500 2.4432
505 2.01936
510 2.18241
515 2.20865
520 2.11313
525 2.03888
530 1.88612
535 1.70573
540 1.71284
545 1.55506
550 1.52043
555 1.46752
560 1.32219
565 1.35319
570 1.37711
575 1.23053
580 1.21786
585 1.11855
590 1.10611
595 1.08931
600 1.06629
Ex : 383
200 0.518998
205 0.534243
210 0.586809
215 0.554707
220 0.570492
225 0.511332
230 0.563978
235 0.496852
240 0.662407
245 0.573388
250 0.601149
255 0.663738
260 0.600071
265 0.665482
270 0.617825
275 0.725694
280 0.691766
285 0.683537
290 0.745102
295 0.816933
300 0.841753
305 0.95893
310 0.991897
315 1.13275
320 1.33681
325 1.41321
330 1.6867
335 1.83407
340 2.18115
345 2.60192
350 3.4424
355 4.45331
360 6.62131
365 11.4814
370 325.919
375 6266.85
380 9999.9
385 2736.98
390 331.492
395 48.9356
400 13.5236
405 7.81132
410 6.13147
415 4.97311
420 4.94606
425 6.81976
430 7.42347
435 7.41498
440 6.01192
445 4.32855
450 3.97433
455 3.71462
460 3.53322
465 3.33155
470 3.15198
475 2.97401
480 2.74522
485 2.76069
490 2.62976
495 2.58899
500 2.25479
505 2.24118
510 2.04544
515 1.95157
520 1.95741
525 1.88869
530 1.71856
535 1.78307
540 1.74051
545 1.72285
550 1.63474
555 1.59344
560 1.55712
565 1.44394
570 1.31771
575 1.17697
580 1.18136
585 1.04269
590 1.0515
595 0.908696
600 1.26142
Ex : 388
200 0.605367
205 0.522053
210 0.483056
215 0.502071
220 0.495619
225 0.649333
230 0.603127
235 0.493509
240 0.635455
245 0.523446
250 0.571158
255 0.547289
260 0.562206
265 0.664611
270 0.644521
275 0.685767
280 0.601552
285 0.671268
290 0.7414
295 0.741134
300 0.852997
305 0.989149
310 1.13
315 1.06541
320 1.11245
325 1.25282
330 1.48096
335 1.76343
340 1.89163
345 2.27174
350 2.74256
355 3.3841
360 4.57755
365 6.94538
370 11.83
375 353.603
380 6641.53
385 9999.9
390 2755.84
395 332.491
400 48.6807
405 13.4807
410 7.55906
415 5.66077
420 4.69044
425 4.74442
430 6.24372
435 7.54762
440 7.46016
445 6.41833
450 4.67951
455 3.78314
460 3.3756
465 3.45805
470 3.17808
475 2.88197
480 2.84113
485 2.61113
490 2.53461
495 2.53721
500 2.45913
505 2.32664
510 2.19449
515 2.15755
520 1.95993
525 1.8205
530 1.9002
535 1.83829
540 1.81157
545 1.71383
550 1.60749
555 1.63637
560 1.48844
565 1.25575
570 1.29721
575 1.1332
580 1.21049
585 1.07211
590 0.977053
595 0.903987
600 0.717232
Ex : 393
200 0.466282
205 0.528977
210 0.501596
215 0.608342
220 0.49484
225 0.647818
230 0.654417
235 0.554646
240 0.548548
245 0.527093
250 0.550629
255 0.647864
260 0.611145
265 0.64009
270 0.569814
275 0.635999
280 0.715845
285 0.71279
290 0.813733
295 0.781662
300 0.876749
305 0.801817
310 0.995206
315 1.01536
320 1.18234
325 1.18861
330 1.35392
335 1.49574
340 1.73221
345 2.02187
350 2.29818
355 2.84016
360 3.49928
365 4.88741
370 7.10722
375 11.9796
380 335.064
385 6994.72
390 9999.9
395 2913.61
400 351.437
405 51.3845
410 13.8162
415 7.75179
420 6.12811
425 4.73411
430 4.36134
435 5.56957
440 6.94518
445 7.5004
450 7.01228
455 5.05854
460 3.84691
465 3.59325
470 3.33888
475 3.24521
480 3.06699
485 2.89875
490 2.62704
495 2.46284
500 2.47412
505 2.31692
510 2.23956
515 2.05031
520 1.94308
525 2.02545
530 1.71935
535 1.65621
540 1.62343
545 1.64566
550 1.55617
555 1.39304
560 1.43239
565 1.37246
570 1.27784
575 1.15905
580 1.13371
585 1.0047
590 1.08629
595 0.991047
600 0.965588
Ex : 398
200 0.489583
205 0.578116
210 0.512957
215 0.482621
220 0.502207
225 0.549925
230 0.48604
235 0.51815
240 0.549659
245 0.512476
250 0.533884
255 0.611581
260 0.64926
265 0.562813
270 0.616278
275 0.674636
280 0.71554
285 0.793351
290 0.770814
295 0.754839
300 0.783448
305 0.817828
310 0.987744
315 1.01855
320 1.11122
325 1.11887
330 1.18223
335 1.35828
340 1.64768
345 1.75924
350 2.14692
355 2.37369
360 2.92122
365 3.49351
370 4.90598
375 7.10493
380 11.9692
385 355.067
390 7148.27
395 9999.9
400 2950.4
405 355.607
410 51.3144
415 13.9654
420 7.70045
425 6.05976
430 4.61922
435 4.37545
440 4.95255
445 6.83264
450 6.97213
455 6.58683
460 5.49318
465 4.25755
470 3.5666
475 3.17365
480 3.09005
485 2.66287
490 2.70984
495 2.60122
500 2.40399
505 2.44059
510 2.1807
515 2.16879
520 2.086
525 1.79437
530 1.93325
535 1.85265
540 1.65418
545 1.59788
550 1.4571
555 1.6035
560 1.41452
565 1.29221
570 1.32657
575 1.26691
580 1.15467
585 0.992344
590 0.951557
595 0.897919
600 0.497279
Ex : 403
200 0.612586
205 0.473171
210 0.475737
215 0.511408
220 0.463465
225 0.574303
230 0.54595
235 0.569229
240 0.568491
245 0.630192
250 0.565278
255 0.563291
260 0.625159
265 0.614728
270 0.626167
275 0.636489
280 0.614133
285 0.645483
290 0.730805
295 0.666525
300 0.7485
305 0.824595
310 0.877869
315 0.908827
320 0.969122
325 1.19169
330 1.2249
335 1.34763
340 1.47568
345 1.59377
350 1.76647
355 1.9655
360 2.43279
365 2.81147
370 3.72387
375 4.83659
380 7.27538
385 12.5364
390 384.516
395 7468.88
400 9999.9
405 2999.09
410 360.568
415 52.0441
420 13.6852
425 7.84489
430 5.82603
435 4.72595
440 4.37597
445 4.49001
450 6.14209
455 6.98072
460 6.61357
465 6.03051
470 4.43782
475 3.43318
480 3.09472
485 2.87096
490 2.87924
495 2.61303
500 2.45955
505 2.29897
510 2.27012
515 2.14264
520 2.04074
525 2.06532
530 1.89023
535 1.7463
540 1.65432
545 1.71842
550 1.52989
555 1.56341
560 1.43783
565 1.34167
570 1.27384
575 1.21931
580 1.0503
585 0.980621
590 1.08142
595 1.01827
600 0.649078
Ex : 408
200 0.530684
205 0.491268
210 0.457417
215 0.522631
220 0.501989
225 0.480029
230 0.546129
235 0.626016
240 0.49742
245 0.562512
250 0.562964
255 0.449913
260 0.557467
265 0.544622
270 0.575983
275 0.709775
280 0.643301
285 0.632168
290 0.657031
295 0.68943
300 0.778462
305 0.828722
310 0.925085
315 0.924107
320 1.05237
325 1.09118
330 1.13714
335 1.11441
340 1.25033
345 1.44061
350 1.57988
355 1.80673
360 2.09719
365 2.47588
370 3.11218
375 3.75217
380 5.14789
385 7.83843
390 13.3016
395 383.775
400 7621.08
405 9999.9
410 2937.15
415 353.569
420 51.4144
425 13.8122
430 7.77608
435 5.86551
440 4.6511
445 4.42762
450 4.46376
455 5.55485
460 6.57384
465 6.3834
470 5.87276
475 4.59561
480 3.50868
485 3.09031
490 2.82018
495 2.60621
500 2.46073
505 2.3759
510 2.35247
515 2.19749
520 2.07369
525 1.95235
530 1.89043
535 1.77147
540 1.61165
545 1.73923
550 1.70787
555 1.53709
560 1.45678
565 1.41953
570 1.31627
575 1.24423
580 1.00269
585 1.011
590 0.97998
595 0.867577
600 0.842462
Ex : 413
200 0.534424
205 0.492356
210 0.461183
215 0.486257
220 0.478343
225 0.483068
230 0.512949
235 0.583579
240 0.555079
245 0.597076
250 0.520204
255 0.507749
260 0.691369
265 0.641116
270 0.649355
275 0.625859
280 0.608811
285 0.647814
290 0.707529
295 0.718887
300 0.778196
305 0.708369
310 0.749492
315 0.897228
320 0.996187
325 0.975952
330 1.09512
335 1.09558
340 1.32822
345 1.37354
350 1.50935
355 1.61403
360 1.77881
365 2.10615
370 2.45625
375 2.90282
380 3.9885
385 5.36739
390 8.03176
395 13.7647
400 434.108
405 8051.41
410 9999.9
415 2912.25
420 350.12
425 50.7755
430 13.5105
435 7.90043
440 5.84534
445 4.61659
450 4.40156
455 4.20351
460 5.09684
465 6.48555
470 6.37716
475 5.91683
480 4.65475
485 3.52188
490 2.85691
495 2.67051
500 2.73749
505 2.40858
510 2.33223
515 2.24
520 2.00367
525 1.91546
530 2.01396
535 1.73277
540 1.70805
545 1.66267
550 1.64028
555 1.64465
560 1.60288
565 1.41833
570 1.31306
575 1.10112
580 1.12249
585 0.975893
590 0.925275
595 0.901187
600 1.25534
Ex : 418
200 0.464922
205 0.468062
210 0.426314
215 0.509072
220 0.445958
225 0.448631
230 0.554962
235 0.525094
240 0.541276
245 0.576373
250 0.528758
255 0.543158
260 0.622503
265 0.578248
270 0.661899
275 0.617234
280 0.607479
285 0.678727
290 0.69158
295 0.665389
300 0.758961
305 0.73091
310 0.803011
315 0.879485
320 0.953476
325 0.957702
330 1.05055
335 1.01794
340 1.22438
345 1.27972
350 1.39493
355 1.55835
360 1.68004
365 2.02202
370 2.30917
375 2.58689
380 3.08974
385 3.95279
390 5.62054
395 8.23908
400 13.5603
405 410.484
410 8021.19
415 9999.9
420 3029.11
425 363.514
430 52.3682
435 13.9957
440 8.04245
445 6.26486
450 4.8082
455 4.28219
460 4.112
465 4.57488
470 5.87311
475 5.85919
480 5.65346
485 5.19247
490 3.77678
495 2.84674
500 2.51042
505 2.40477
510 2.27522
515 2.1444
520 2.08534
525 1.97902
530 1.89769
535 1.72102
540 1.74985
545 1.56863
550 1.56033
555 1.53703
560 1.37143
565 1.39752
570 1.24481
575 1.14176
580 1.0732
585 0.988156
590 1.01126
595 0.893478
600 0.425434
Ex : 423
200 0.472451
205 0.441563
210 0.525045
215 0.50242
220 0.437048
225 0.528247
230 0.566325
235 0.495976
240 0.467982
245 0.540225
250 0.56321
255 0.540317
260 0.574675
265 0.62199
270 0.583265
275 0.5579
280 0.602395
285 0.710658
290 0.710068
295 0.721014
300 0.715908
305 0.734108
310 0.756413
315 0.777246
320 0.815302
325 0.822519
330 1.04087
335 1.01458
340 1.07382
345 1.19794
350 1.38066
355 1.48233
360 1.66169
365 1.68408
370 2.03913
375 2.33238
380 2.80548
385 3.27683
390 4.39999
395 5.77078
400 8.58371
405 14.3516
410 435.422
415 8483.65
420 9999.9
425 2922.03
430 351.856
435 51.2209
440 13.7561
445 7.97696
450 6.15579
455 4.79171
460 4.3165
465 4.10061
470 4.13903
475 5.28383
480 5.93586
485 5.51625
490 5.07834
495 3.71605
500 2.75175
505 2.51557
510 2.38447
515 2.29094
520 1.99357
525 1.7945
530 1.90296
535 1.81417
540 1.83007
545 1.63953
550 1.58249
555 1.56764
560 1.56346
565 1.34406
570 1.16053
575 1.10487
580 1.07689
585 0.960152
590 0.912544
595 0.831562
600 0.732032
Ex : 428
200 0.477268
205 0.500023
210 0.458785
215 0.517008
220 0.560491
225 0.504538
230 0.579451
235 0.553401
240 0.532734
245 0.498197
250 0.521268
255 0.586363
260 0.513168
265 0.595223
270 0.584647
275 0.587217
280 0.604533
285 0.629068
290 0.635651
295 0.715975
300 0.73723
305 0.81284
310 0.729878
315 0.739561
320 0.879569
325 0.862068
330 0.903948
335 1.04685
340 1.13398
345 1.14874
350 1.25534
355 1.31799
360 1.39642
365 1.62334
370 1.7687
375 2.11496
380 2.34231
385 2.7834
390 3.37912
395 4.42784
400 6.00336
405 8.83927
410 14.4147
415 474.021
420 8566.71
425 9999.9
430 3046.08
435 366.221
440 52.8522
445 14.4614
450 8.07283
455 6.61588
460 5.01953
465 4.5663
470 4.14626
475 3.86079
480 4.68094
485 5.69474
490 5.22933
495 4.74319
500 4.04704
505 2.84982
510 2.49876
515 2.23302
520 2.13753
525 2.07051
530 2.03057
535 1.74174
540 1.73027
545 1.68847
550 1.54789
555 1.46881
560 1.48545
565 1.48276
570 1.22934
575 1.1287
580 1.05884
585 1.08091
590 0.937465
595 0.938839
600 0.970946
Ex : 433
200 0.505767
205 0.516957
210 0.462147
215 0.468162
220 0.528138
225 0.486466
230 0.446838
235 0.49046
240 0.482906
245 0.639058
250 0.595218
255 0.594207
260 0.538343
265 0.6088
270 0.625408
275 0.56076
280 0.688527
285 0.698982
290 0.661574
295 0.696875
300 0.635376
305 0.673014
310 0.736811
315 0.802728
320 0.81986
325 0.801571
330 0.924898
335 1.02937
340 1.0787
345 1.13945
350 1.24477
355 1.30949
360 1.39609
365 1.5436
370 1.76995
375 1.84847
380 2.16063
385 2.46672
390 2.98975
395 3.70338
400 4.54542
405 6.34947
410 9.1042
415 15.1765
420 538.22
425 9328.85
430 9999.9
435 2956.33
440 355.952
445 52.3776
450 14.1513
455 8.37688
460 6.46406
465 5.06037
470 4.53077
475 3.97275
480 3.74633
485 4.28285
490 5.19562
495 5.03521
500 4.79027
505 4.2755
510 3.0258
515 2.48635
520 2.24471
525 2.15786
530 1.94193
535 1.71287
540 1.68834
545 1.66127
550 1.56608
555 1.56902
560 1.33749
565 1.32783
570 1.27364
575 1.20007
580 1.08681
585 1.02611
590 1.00883
595 0.923439
600 0.867861
Ex : 438
200 0.446006
205 0.518776
210 0.522178
215 0.492972
220 0.50739
225 0.508312
230 0.474057
235 0.539667
240 0.541352
245 0.570146
250 0.56652
255 0.582988
260 0.524214
265 0.521469
270 0.584738
275 0.607645
280 0.581558
285 0.616549
290 0.657014
295 0.652514
300 0.645486
305 0.7742
310 0.7557
315 0.831088
320 0.826265
325 0.884257
330 0.928154
335 0.962449
340 0.983277
345 1.06116
350 1.17487
355 1.30483
360 1.34282
365 1.38538
370 1.55174
375 1.80491
380 1.83957
385 2.18499
390 2.51485
395 3.14311
400 3.71174
405 4.58989
410 6.51613
415 9.34231
420 14.8512
425 504.408
430 9106.8
435 9999.9
440 3097.24
445 372.587
450 54.6197
455 14.9257
460 8.5355
465 6.90941
470 5.10231
475 4.22297
480 4.01477
485 3.77299
490 3.70568
495 4.79608
500 5.05602
505 4.56689
510 4.16002
515 3.49776
520 2.48263
525 2.10114
530 2.05445
535 1.84346
540 1.72819
545 1.66895
550 1.62663
555 1.47977
560 1.36811
565 1.3521
570 1.26952
575 1.14933
580 1.10731
585 0.980743
590 0.964565
595 0.89653
600 1.716
Ex : 443
200 0.417745
205 0.513669
210 0.472542
215 0.504836
220 0.517682
225 0.506788
230 0.506719
235 0.590976
240 0.582959
245 0.556061
250 0.54757
255 0.51257
260 0.514768
265 0.604152
270 0.559024
275 0.669061
280 0.683902
285 0.694441
290 0.601753
295 0.673027
300 0.712335
305 0.636132
310 0.777667
315 0.826757
320 0.779394
325 0.940242
330 0.916183
335 0.8873
340 1.00803
345 1.07138
350 1.15023
355 1.27899
360 1.37593
365 1.35829
370 1.57866
375 1.57499
380 1.89305
385 1.99802
390 2.34414
395 2.61331
400 3.15915
405 3.75444
410 4.71973
415 6.51036
420 9.344
425 15.4334
430 556.919
435 9632.44
440 9999.9
445 3068.62
450 369.294
455 54.3576
460 15.1955
465 9.07361
470 6.56189
475 4.85823
480 4.02039
485 3.84593
490 3.62685
495 3.66019
500 4.4074
505 4.79077
510 4.37177
515 4.16637
520 3.29643
525 2.56185
530 2.11733
535 2.0419
540 1.89785
545 1.8024
550 1.63348
555 1.60488
560 1.44569
565 1.37455
570 1.30249
575 1.19429
580 1.14701
585 1.03296
590 0.896828
595 0.900765
600 0.861394
Ex : 448
200 0.551128
205 0.460443
210 0.510197
215 0.583122
220 0.512972
225 0.520893
230 0.521233
235 0.587657
240 0.512869
245 0.596002
250 0.563259
255 0.629839
260 0.600576
265 0.631717
270 0.609051
275 0.565257
280 0.632416
285 0.659045
290 0.677129
295 0.712756
300 0.720474
305 0.735109
310 0.754603
315 0.855162
320 0.793123
325 0.838254
330 0.892773
335 0.971167
340 0.956747
345 1.05885
350 1.15774
355 1.25862
360 1.31399
365 1.3794
370 1.47726
375 1.63495
380 1.67906
385 1.91407
390 2.09997
395 2.33496
400 2.81596
405 3.21881
410 3.90199
415 5.02095
420 6.66474
425 9.69266
430 15.8642
435 573.783
440 9999.9
445 9999.9
450 3083.06
455 371.216
460 55.0486
465 15.639
470 8.88848
475 6.3581
480 4.76928
485 4.11697
490 3.59932
495 3.52197
500 3.22139
505 3.87926
510 4.77161
515 4.2081
520 3.98071
525 3.49841
530 2.83958
535 2.18349
540 1.79006
545 1.80005
550 1.65563
555 1.5918
560 1.50306
565 1.44039
570 1.25305
575 1.13109
580 1.04139
585 1.04287
590 1.01378
595 0.879078
600 1.26993
Ex : 453
200 0.50378
205 0.551148
210 0.518392
215 0.534314
220 0.523627
225 0.54813
230 0.52495
235 0.548457
240 0.55867
245 0.535331
250 0.617954
255 0.532983
260 0.623953
265 0.513274
270 0.57663
275 0.594223
280 0.598069
285 0.681437
290 0.622473
295 0.787824
300 0.713121
305 0.782081
310 0.748138
315 0.733488
320 0.810935
325 0.876123
330 0.918652
335 0.917865
340 0.949952
345 0.999461
350 1.04977
355 1.13013
360 1.19184
365 1.28106
370 1.34031
375 1.53702
380 1.62654
385 1.85685
390 1.86959
395 2.21402
400 2.43785
405 2.74466
410 3.37604
415 4.02152
420 4.90481
425 6.66598
430 9.17089
435 15.8167
440 614.242
445 9999.9
450 9999.9
455 3019.04
460 364.717
465 54.6886
470 15.2524
475 8.49915
480 6.26638
485 4.63118
490 4.0487
495 3.56876
500 3.44565
505 3.25779
510 3.46726
515 4.25644
520 4.0293
525 3.78037
530 3.56132
535 2.87715
540 2.2743
545 1.87849
550 1.83407
555 1.6002
560 1.62249
565 1.49254
570 1.32515
575 1.2546
580 1.1276
585 1.03155
590 0.956047
595 0.913552
600 0.918694
Ex : 458
200 0.522547
205 0.482063
210 0.526219
215 0.531295
220 0.552484
225 0.51592
230 0.545662
235 0.587309
240 0.540969
245 0.559983
250 0.554481
255 0.579064
260 0.560476
265 0.625205
270 0.572989
275 0.57554
280 0.631693
285 0.676168
290 0.722067
295 0.760044
300 0.801257
305 0.76455
310 0.84197
315 0.789436
320 0.802161
325 0.80726
330 0.931042
335 0.965802
340 1.01264
345 1.00683
350 1.16005
355 1.11499
360 1.27422
365 1.28072
370 1.4406
375 1.47524
380 1.58416
385 1.75464
390 1.89896
395 2.09343
400 2.21125
405 2.55044
410 2.97208
415 3.4794
420 3.93771
425 4.88528
430 6.89233
435 10.1788
440 16.9044
445 681.369
450 9999.9
455 9999.9
460 3211.98
465 388.064
470 57.6275
475 15.1556
480 8.49804
485 6.38574
490 5.00733
495 4.00786
500 3.52359
505 3.48581
510 3.33981
515 3.10569
520 3.77641
525 4.18851
530 3.75245
535 3.58228
540 2.97013
545 2.385
550 2.00472
555 1.6816
560 1.51383
565 1.63192
570 1.44541
575 1.35396
580 1.2561
585 1.16762
590 1.04067
595 0.994195
600 0.594714
Ex : 463
200 0.513685
205 0.497084
210 0.50137
215 0.55242
220 0.549002
225 0.645565
230 0.703497
235 0.611686
240 0.547433
245 0.601754
250 0.594558
255 0.669113
260 0.587047
265 0.641374
270 0.604824
275 0.667008
280 0.644423
285 0.737571
290 0.704483
295 0.749671
300 0.65677
305 0.771127
310 0.813371
315 0.822512
320 0.85729
325 0.8363
330 0.816206
335 0.974787
340 1.02394
345 0.995189
350 1.21722
355 1.16486
360 1.16818
365 1.2235
370 1.31606
375 1.50684
380 1.61185
385 1.66705
390 1.73595
395 1.85043
400 2.10608
405 2.25093
410 2.62482
415 3.00736
420 3.63425
425 4.14837
430 4.99527
435 6.96625
440 9.97286
445 17.4648
450 672.444
455 9999.9
460 9999.9
465 3363.14
470 405.472
475 58.5135
480 15.5688
485 8.73377
490 6.22648
495 4.66939
500 3.85554
505 3.52806
510 3.28968
515 3.14182
520 3.05995
525 3.41094
530 4.01177
535 3.55472
540 3.16996
545 3.12837
550 2.53587
555 2.00226
560 1.61041
565 1.44013
570 1.44604
575 1.39876
580 1.31176
585 1.18286
590 1.16871
595 1.0679
600 1.29991
Ex : 468
200 0.587711
205 0.501604
210 0.525704
215 0.51354
220 0.573982
225 0.619731
230 0.657116
235 0.631757
240 0.612647
245 0.592236
250 0.576906
255 0.627443
260 0.613839
265 0.585729
270 0.659278
275 0.622077
280 0.695217
285 0.712939
290 0.718018
295 0.695056
300 0.768774
305 0.759688
310 0.822922
315 0.869722
320 0.842491
325 0.91472
330 0.837144
335 0.914701
340 1.02001
345 1.05813
350 1.03438
355 1.06299
360 1.11039
365 1.19767
370 1.34805
375 1.37377
380 1.49994
385 1.5448
390 1.75875
395 1.78256
400 1.83775
405 2.1769
410 2.34413
415 2.61264
420 2.89973
425 3.2546
430 3.97291
435 5.0832
440 6.87485
445 10.2787
450 17.2021
455 711.364
460 9999.9
465 9999.9
470 3464.46
475 413.831
480 58.9974
485 14.7241
490 8.21527
495 5.85909
500 4.40155
505 3.82997
510 3.45472
515 3.46642
520 3.09516
525 3.05967
530 3.10202
535 3.72329
540 3.56191
545 3.17145
550 2.99021
555 2.65137
560 2.00098
565 1.64143
570 1.56875
575 1.32057
580 1.29492
585 1.24374
590 1.09267
595 1.12332
600 1.35026
Ex : 473
200 0.591082
205 0.621588
210 0.624404
215 0.5608
220 0.663945
225 0.639572
230 0.857105
235 0.765636
240 0.534681
245 0.580999
250 0.667218
255 0.622785
260 0.719975
265 0.60804
270 0.607974
275 0.666827
280 0.685377
285 0.721005
290 0.635048
295 0.677989
300 0.770258
305 0.7939
310 0.804037
315 0.806331
320 0.808715
325 0.851931
330 0.912568
335 0.942164
340 1.04621
345 1.07724
350 1.14276
355 1.21489
360 1.18367
365 1.18144
370 1.20561
375 1.3846
380 1.47521
385 1.61601
390 1.6422
395 1.74623
400 1.96975
405 2.02965
410 2.10213
415 2.40763
420 2.60543
425 2.84383
430 3.43432
435 4.324
440 5.38424
445 7.63443
450 10.9475
455 17.9135
460 801.206
465 9999.9
470 9999.9
475 3318.58
480 397.608
485 57.2508
490 14.7722
495 8.29682
500 5.983
505 4.638
510 3.94136
515 3.47428
520 3.26193
525 3.14292
530 2.92999
535 2.81897
540 3.18604
545 3.49853
550 3.02436
555 2.97543
560 2.64111
565 2.20527
570 1.64404
575 1.4217
580 1.3437
585 1.28682
590 1.14653
595 1.11888
600 1.14987
Ex : 478
200 0.614905
205 0.610145
210 0.564547
215 0.620714
220 0.629779
225 0.615781
230 0.902134
235 1.0826
240 0.676003
245 0.571485
250 0.576054
255 0.637199
260 0.614704
265 0.701228
270 0.719709
275 0.660712
280 0.738067
285 0.723034
290 0.678341
295 0.708941
300 0.627723
305 0.783744
310 0.920477
315 0.856584
320 0.873536
325 0.980121
330 0.942954
335 0.979596
340 1.02223
345 1.08386
350 1.12412
355 1.03347
360 1.15035
365 1.18119
370 1.37078
375 1.4073
380 1.4784
385 1.59191
390 1.78393
395 1.78802
400 1.92068
405 2.08136
410 2.15089
415 2.44253
420 2.79459
425 2.94464
430 3.34873
435 3.87132
440 4.51394
445 5.99283
450 8.27995
455 12.1285
460 20.9179
465 905.951
470 9999.9
475 9999.9
480 3398.85
485 408.113
490 59.4399
495 15.4873
500 8.44822
505 6.3858
510 4.79321
515 3.90518
520 3.55825
525 3.36916
530 3.00002
535 2.93504
540 2.89569
545 3.26082
550 3.5838
555 2.97389
560 2.8217
565 2.48531
570 2.2871
575 1.67748
580 1.57693
585 1.31742
590 1.17144
595 1.15449
600 0.858172
Ex : 483
200 0.593022
205 0.639648
210 0.613819
215 0.591886
220 0.560766
225 0.665218
230 0.683515
235 1.24261
240 0.884656
245 0.731564
250 0.630184
255 0.654356
260 0.661021
265 0.589335
270 0.686628
275 0.624621
280 0.701278
285 0.645893
290 0.779117
295 0.830181
300 0.748123
305 0.827569
310 0.758508
315 0.945827
320 0.973596
325 0.924609
330 0.940079
335 0.903811
340 1.07402
345 1.01228
350 1.08295
355 1.14604
360 1.13723
365 1.29471
370 1.32678
375 1.42819
380 1.48469
385 1.5444
390 1.74904
395 1.85548
400 1.86649
405 2.22599
410 2.0805
415 2.29153
420 2.38645
425 2.79297
430 2.79819
435 3.1405
440 3.8878
445 4.71
450 5.98647
455 8.28422
460 12.5315
465 21.4377
470 720.338
475 9999.9
480 9999.9
485 3562.92
490 427.136
495 61.2842
500 15.6481
505 8.6446
510 6.2697
515 4.9003
520 4.29157
525 3.72283
530 3.47445
535 3.23464
540 2.90285
545 2.8247
550 2.72659
555 3.36439
560 3.11947
565 2.67479
570 2.57644
575 2.15906
580 1.79804
585 1.47447
590 1.24409
595 1.22072
600 0.977741
Ex : 488
200 0.613768
205 0.648654
210 0.677029
215 0.591488
220 0.590744
225 0.632065
230 0.638779
235 0.947161
240 1.43819
245 0.834668
250 0.657364
255 0.758081
260 0.648339
265 0.697266
270 0.723958
275 0.725278
280 0.700851
285 0.714626
290 0.732824
295 0.750724
300 0.596488
305 0.769322
310 0.802104
315 0.901837
320 0.956444
325 0.975213
330 0.961534
335 1.00868
340 1.10834
345 1.13233
350 1.12542
355 1.08951
360 1.11989
365 1.18324
370 1.29337
375 1.33484
380 1.46021
385 1.45264
390 1.60635
395 1.67958
400 1.82816
405 1.97746
410 1.98227
415 2.23368
420 2.2445
425 2.49771
430 2.63835
435 3.0538
440 3.36324
445 4.37978
450 5.02185
455 6.81544
460 9.29818
465 14.7691
470 22.4738
475 863.851
480 9999.9
485 9999.9
490 3456.31
495 415.415
500 60.5547
505 15.8627
510 8.85363
515 6.52652
520 4.98205
525 4.19381
530 3.72744
535 3.27699
540 3.33906
545 2.97269
550 2.81948
555 2.59729
560 2.80424
565 2.81927
570 2.54993
575 2.31901
580 2.03427
585 1.79439
590 1.49185
595 1.37468
600 0.997113
Ex : 493
200 0.624247
205 0.603113
210 0.545512
215 0.520917
220 0.669317
225 0.573754
230 0.596331
235 0.761443
240 1.52229
245 1.19631
250 0.684934
255 0.687764
260 0.687576
265 0.783289
270 0.810512
275 0.717746
280 0.704083
285 0.67535
290 0.795169
295 0.685723
300 0.872912
305 0.756618
310 0.832315
315 0.955689
320 0.839576
325 1.00579
330 0.938183
335 1.08898
340 1.09459
345 1.14738
350 1.15039
355 1.18289
360 1.15596
365 1.23902
370 1.14666
375 1.36124
380 1.44313
385 1.60507
390 1.67853
395 1.7373
400 1.77431
405 1.7112
410 2.05788
415 2.09106
420 2.0865
425 2.52377
430 2.7793
435 2.75898
440 3.17821
445 3.82116
450 4.46347
455 5.13119
460 7.07515
465 10.0085
470 13.6824
475 20.9888
480 835.388
485 9999.9
490 9999.9
495 3484.99
500 417.949
505 60.5588
510 15.9444
515 8.56353
520 6.47423
525 4.9648
530 4.19892
535 3.67003
540 3.32165
545 3.22289
550 2.99303
555 2.73771
560 2.45156
565 2.5864
570 2.80312
575 2.45008
580 2.00674
585 1.93425
590 1.58771
595 1.33369
600 0.964378
Ex : 498
200 0.663865
205 0.638829
210 0.564507
215 0.651745
220 0.598755
225 0.596209
230 0.618108
235 0.69921
240 1.0152
245 1.68491
250 0.887463
255 0.72363
260 0.663313
265 0.766767
270 0.796704
275 0.758529
280 0.750451
285 0.6297
290 0.842109
295 0.913485
300 0.86932
305 0.887118
310 0.786976
315 0.795645
320 0.892072
325 0.849239
330 0.892105
335 0.92827
340 1.0257
345 1.10768
350 1.03291
355 1.21804
360 1.03487
365 1.12862
370 1.23766
375 1.33398
380 1.21345
385 1.4159
390 1.59373
395 1.72433
400 1.76151
405 1.91697
410 1.97971
415 2.15916
420 2.39041
425 2.4825
430 2.34752
435 2.74092
440 3.04127
445 3.26153
450 3.89064
455 4.44308
460 5.97254
465 7.63254
470 10.0217
475 13.8642
480 22.1905
485 978.149
490 9999.9
495 9999.9
500 3430.96
505 412.436
510 60.4295
515 16.1687
520 9.12743
525 6.65656
530 5.15527
535 4.30057
540 3.61656
545 3.54175
550 3.16156
555 2.96224
560 2.92146
565 2.46733
570 2.4933
575 2.53808
580 2.45255
585 1.99329
590 1.77718
595 1.75229
600 1.46829
Ex : 503
200 0.615163
205 0.556069
210 0.540815
215 0.634813
220 0.590572
225 0.676243
230 0.698231
235 0.679738
240 0.649944
245 1.76155
250 1.36491
255 0.89749
260 0.705327
265 0.807987
270 0.780871
275 0.783562
280 0.74384
285 0.75874
290 0.807993
295 0.737803
300 0.838493
305 0.827041
310 0.762968
315 0.869101
320 0.8409
325 0.939633
330 1.05273
335 0.862599
340 0.957631
345 1.12656
350 1.10777
355 1.16506
360 1.26031
365 1.25626
370 1.16722
375 1.38052
380 1.27529
385 1.38369
390 1.48843
395 1.59371
400 1.84887
405 1.83354
410 1.99924
415 2.06595
420 2.22355
425 2.17376
430 2.38792
435 2.62905
440 2.89792
445 3.23582
450 3.57952
455 4.31757
460 5.08714
465 6.81235
470 8.01036
475 10.373
480 14.6444
485 23.3408
490 931.382
495 9999.9
500 9999.9
505 3581.73
510 430.905
515 62.7506
520 16.4831
525 9.25731
530 6.62081
535 5.04647
540 4.00224
545 3.75967
550 3.43753
555 3.20759
560 2.99985
565 2.66484
570 2.64384
575 2.32044
580 2.1093
585 2.2886
590 1.81445
595 1.74622
600 1.61448
Ex : 508
200 0.624975
205 0.69574
210 0.687922
215 0.652315
220 0.654103
225 0.724636
230 0.724327
235 0.558015
240 0.692824
245 1.21505
250 2.17406
255 1.04921
260 0.747428
265 0.736372
270 0.700048
275 0.66981
280 0.73118
285 0.682368
290 0.783446
295 0.736498
300 0.773737
305 0.86068
310 0.879556
315 0.833553
320 0.891741
325 0.915723
330 0.845101
335 1.0071
340 0.930442
345 1.07267
350 1.14469
355 1.17385
360 1.274
365 1.14613
370 1.21534
375 1.17772
380 1.43739
385 1.43919
390 1.34961
395 1.47602
400 1.61241
405 1.69336
410 1.98771
415 1.96299
420 2.12675
425 2.03162
430 2.31959
435 2.40826
440 2.70566
445 2.85147
450 3.1951
455 3.70009
460 4.35808
465 5.27012
470 6.28694
475 7.68342
480 10.1033
485 14.5162
490 22.9832
495 974.617
500 9999.9
505 9999.9
510 3823.83
515 458.96
520 65.8695
525 16.9
530 9.19894
535 6.45951
540 4.9846
545 4.0442
550 3.73339
555 3.31608
560 3.25037
565 2.93206
570 2.60743
575 2.53212
580 2.27205
585 2.15717
590 2.14098
595 1.88543
600 1.17879
Ex : 513
200 0.701291
205 0.709044
210 0.681788
215 0.61341
220 0.699224
225 0.587707
230 0.66213
235 0.684097
240 0.664361
245 0.834357
250 3.67774
255 2.93685
260 1.08297
265 0.82662
270 0.682759
275 0.707317
280 0.751825
285 0.792587
290 0.92632
295 0.814003
300 0.864139
305 0.8407
310 0.893502
315 0.855011
320 0.894054
325 0.900891
330 0.994066
335 0.864796
340 1.08291
345 1.0217
350 1.12538
355 1.25036
360 1.19124
365 1.15819
370 1.14077
375 1.16245
380 1.17941
385 1.49113
390 1.58913
395 1.64544
400 1.69095
405 1.93884
410 1.68692
415 1.87818
420 1.86109
425 2.14995
430 2.09675
435 2.20073
440 2.21125
445 2.71334
450 3.08068
455 3.31662
460 4.01231
465 4.64314
470 4.94696
475 6.16088
480 7.69904
485 9.93052
490 14.7221
495 22.9186
500 888.137
505 9999.9
510 9999.9
515 3907.85
520 468.011
525 66.874
530 16.7062
535 8.82214
540 6.36715
545 4.73644
550 4.12477
555 3.62486
560 3.60606
565 3.42382
570 2.99283
575 2.61505
580 2.28101
585 1.96455
590 1.84825
595 1.85943
600 1.15585
Ex : 518
200 0.778988
205 0.769002
210 0.725503
215 0.701944
220 0.723954
225 0.764152
230 0.642889
235 0.624991
240 0.593464
245 0.639978
250 2.55721
255 6.83304
260 1.99662
265 0.773542
270 0.728904
275 0.761547
280 0.894923
285 0.700492
290 0.755215
295 0.828073
300 0.872996
305 0.86572
310 0.972724
315 0.897722
320 0.999574
325 0.938103
330 1.00913
335 0.953716
340 1.02261
345 0.89199
350 1.14559
355 1.11317
360 1.14434
365 1.1978
370 1.21017
375 1.28922
380 1.30773
385 1.33357
390 1.4
395 1.51697
400 1.73238
405 1.74101
410 1.83248
415 1.87561
420 2.00139
425 2.04172
430 2.06715
435 2.23198
440 2.50126
445 2.50949
450 2.69362
455 3.1299
460 3.466
465 4.16153
470 4.61821
475 4.93742
480 6.28132
485 7.96778
490 10.4558
495 14.3336
500 22.7886
505 910.328
510 9999.9
515 9999.9
520 3963
525 474.278
530 67.5491
535 16.6535
540 9.35191
545 6.7076
550 4.91676
555 4.08133
560 3.76986
565 3.45342
570 3.1455
575 2.75234
580 2.37675
585 2.23429
590 2.0931
595 1.7877
600 2.23931
Ex : 523
200 0.676097
205 0.595824
210 0.700549
215 0.669284
220 0.588595
225 0.618816
230 0.647744
235 0.590538
240 0.644069
245 0.695207
250 0.997587
255 8.81226
260 6.41199
265 1.45724
270 0.802797
275 0.833186
280 0.814255
285 0.927761
290 0.95847
295 0.848806
300 0.970152
305 0.83826
310 0.869867
315 0.940647
320 0.915859
325 1.07382
330 1.00487
335 1.12714
340 0.998142
345 0.940316
350 1.04721
355 1.08587
360 1.14177
365 1.12175
370 1.24122
375 1.33984
380 1.20678
385 1.29734
390 1.43297
395 1.48583
400 1.65265
405 1.55663
410 1.74063
415 1.79778
420 1.91604
425 1.73707
430 2.02201
435 2.24882
440 2.40355
445 2.52116
450 2.74484
455 3.10922
460 3.41208
465 3.69706
470 4.15913
475 4.61529
480 5.18832
485 6.14157
490 7.93962
495 10.0801
500 14.018
505 22.7237
510 830.246
515 9999.9
520 9999.9
525 4087.66
530 488.998
535 69.2504
540 17.0712
545 9.21995
550 6.36552
555 4.75697
560 4.2225
565 3.93487
570 3.55098
575 3.3224
580 2.75778
585 2.35206
590 2.16336
595 2.21569
600 1.49615
Ex : 528
200 0.554599
205 0.621491
210 0.702545
215 0.584386
220 0.606351
225 0.689137
230 0.666682
235 0.688244
240 0.703682
245 0.820969
250 0.770123
255 4.45609
260 13.9056
265 3.52325
270 1.03983
275 0.86586
280 0.89847
285 0.96427
290 0.904462
295 0.809162
300 0.907662
305 0.756873
310 0.872211
315 1.07215
320 0.913837
325 0.995908
330 1.12336
335 0.976718
340 0.943406
345 1.00329
350 1.09233
355 1.15047
360 1.25915
365 1.21889
370 1.161
375 1.33909
380 1.36966
385 1.37841
390 1.44903
395 1.35789
400 1.35827
405 1.49618
410 1.48937
415 1.68583
420 1.78724
425 1.77929
430 1.93606
435 2.15919
440 2.1181
445 2.52545
450 2.66881
455 2.79515
460 2.88242
465 3.43194
470 3.70746
475 3.97022
480 4.48949
485 5.13409
490 6.21295
495 7.82631
500 10.2105
505 14.2571
510 22.4789
515 797.732
520 9999.9
525 9999.9
530 4020.53
535 481.738
540 68.2076
545 16.9583
550 8.99097
555 6.44938
560 4.77935
565 4.20649
570 3.91874
575 3.37874
580 3.07242
585 2.79327
590 2.47709
595 2.09793
600 2.80701
Ex : 533
200 0.674416
205 0.650956
210 0.672457
215 0.71264
220 0.666197
225 0.607661
230 0.664089
235 0.790438
240 0.625286
245 0.595795
250 0.742143
255 1.35795
260 15.6412
265 12.1523
270 2.12358
275 0.900685
280 0.921403
285 0.864455
290 0.964865
295 0.924763
300 0.887944
305 0.872273
310 0.910597
315 0.971878
320 0.945804
325 0.864762
330 0.913022
335 1.01828
340 1.08959
345 1.08115
350 1.0293
355 1.10187
360 1.10535
365 1.24623
370 1.25904
375 1.31082
380 1.2212
385 1.22334
390 1.43358
395 1.32339
400 1.38191
405 1.5274
410 1.51751
415 1.57652
420 1.75716
425 1.77317
430 1.85369
435 2.1186
440 2.04382
445 2.24103
450 2.4992
455 2.66364
460 3.09798
465 3.24193
470 3.48823
475 3.52239
480 4.03845
485 4.5233
490 5.22542
495 5.98205
500 7.86909
505 10.2894
510 14.2319
515 21.9254
520 807.728
525 9999.9
530 9999.9
535 4180.38
540 499.97
545 70.057
550 16.8966
555 9.18006
560 6.56987
565 4.87749
570 3.91813
575 3.77305
580 3.4802
585 3.02669
590 2.7026
595 2.4106
600 2.05568
Ex : 538
200 0.627018
205 0.643222
210 0.65695
215 0.610571
220 0.658871
225 0.725162
230 0.662729
235 0.700664
240 0.688636
245 0.733191
250 0.640022
255 0.66902
260 8.0837
265 25.8566
270 6.9684
275 1.48603
280 0.790267
285 0.873678
290 0.945252
295 0.975484
300 0.89119
305 0.989496
310 1.10264
315 0.973817
320 0.969386
325 1.13747
330 1.11382
335 1.12592
340 1.12419
345 1.203
350 1.20963
355 1.26328
360 1.22645
365 1.29047
370 1.17121
375 1.19435
380 1.14699
385 1.26728
390 1.2986
395 1.49217
400 1.4849
405 1.48314
410 1.54994
415 1.60979
420 1.55422
425 1.89855
430 2.00679
435 2.0207
440 2.00469
445 2.32533
450 2.47404
455 2.49012
460 2.86735
465 2.95432
470 3.1566
475 3.47611
480 3.81157
485 4.11898
490 4.35257
495 4.85616
500 5.91107
505 7.25276
510 10.1772
515 13.6708
520 20.9397
525 685.584
530 9999.9
535 9999.9
540 4366.44
545 522.778
550 72.7329
555 17.3214
560 9.02392
565 6.11119
570 4.44013
575 3.63519
580 3.62223
585 3.31341
590 3.10361
595 2.96537
600 1.83292
Ex : 543
200 0.826154
205 0.739593
210 0.749441
215 0.600103
220 0.739201
225 0.635215
230 0.716243
235 0.664125
240 0.699491
245 0.700546
250 0.752308
255 0.674735
260 1.78295
265 27.6215
270 23.3766
275 3.60868
280 1.19326
285 0.913757
290 1.14213
295 1.08713
300 1.04776
305 0.853276
310 0.928464
315 1.08679
320 1.03662
325 1.00655
330 1.11282
335 1.0374
340 1.08644
345 1.06977
350 1.01137
355 1.04584
360 1.14413
365 1.02474
370 1.17745
375 1.15819
380 1.5087
385 1.16942
390 1.24584
395 1.3813
400 1.37411
405 1.43803
410 1.49392
415 1.51305
420 1.46758
425 1.61481
430 1.8141
435 2.02878
440 2.00134
445 2.252
450 2.13344
455 2.47343
460 2.65498
465 3.18306
470 2.87011
475 3.06101
480 3.46162
485 3.72827
490 3.86082
495 4.07936
500 4.95547
505 5.81
510 7.71958
515 9.60554
520 13.8642
525 20.9079
530 658.905
535 9999.9
540 9999.9
545 4533.5
550 543.841
555 75.7523
560 17.7105
565 8.86624
570 5.94172
575 4.53221
580 3.43159
585 3.16466
590 3.14892
595 3.06779
600 1.90467
Ex : 548
200 0.838583
205 0.699812
210 0.69038
215 0.652696
220 0.696161
225 0.774102
230 0.733132
235 0.751579
240 0.690303
245 0.708355
250 0.709565
255 0.747754
260 0.731978
265 13.1306
270 43.8947
275 10.6404
280 2.10413
285 0.979946
290 1.03822
295 1.18194
300 1.03411
305 0.988198
310 1.10258
315 1.05483
320 0.963015
325 1.10396
330 0.984384
335 0.944136
340 1.04361
345 1.01524
350 1.13396
355 1.03642
360 1.15167
365 1.22496
370 1.06514
375 1.01847
380 1.22368
385 1.20977
390 1.41766
395 1.22631
400 1.33747
405 1.46506
410 1.34297
415 1.43138
420 1.77416
425 1.71109
430 1.56313
435 1.91445
440 1.88992
445 2.00173
450 2.24022
455 2.35617
460 2.4238
465 2.70391
470 3.07472
475 3.01946
480 3.21799
485 3.26832
490 3.65483
495 3.91456
500 4.45591
505 4.80828
510 5.84006
515 7.5321
520 9.73732
525 13.7364
530 20.8382
535 694.968
540 9999.9
545 9999.9
550 4475.49
555 535.363
560 74.257
565 17.3575
570 8.64296
575 6.1005
580 4.36114
585 3.61026
590 3.34119
595 3.04106
600 2.49757
Ex : 553
200 0.891634
205 0.733118
210 0.600419
215 0.701415
220 0.701262
225 0.792735
230 0.653233
235 0.652257
240 0.784837
245 0.660857
250 0.686077
255 0.745821
260 0.749797
265 2.18769
270 42.5564
275 35.076
280 5.29738
285 1.51272
290 1.27101
295 1.07037
300 1.22158
305 1.01383
310 1.04556
315 0.989489
320 1.17607
325 1.10822
330 1.10458
335 1.1708
340 1.04027
345 0.980875
350 1.13015
355 1.10428
360 1.1651
365 1.19406
370 1.211
375 1.30574
380 1.16896
385 1.34169
390 1.33652
395 1.2696
400 1.4314
405 1.47364
410 1.53768
415 1.57476
420 1.58247
425 1.74935
430 1.83677
435 1.83455
440 1.70462
445 2.11296
450 2.07318
455 2.18246
460 2.34459
465 2.62786
470 2.89591
475 2.88362
480 2.85004
485 2.98696
490 3.23654
495 3.48744
500 3.85938
505 3.95848
510 4.76338
515 5.59107
520 7.58202
525 9.61732
530 13.5538
535 20.3681
540 620.138
545 9999.9
550 9999.9
555 4578.63
560 549.675
565 75.5244
570 17.194
575 8.03753
580 5.49929
585 3.90008
590 3.09355
595 3.42233
600 2.30871
Ex : 558
200 0.697136
205 0.683424
210 0.724176
215 0.828811
220 0.678535
225 0.740491
230 0.832019
235 0.647199
240 0.686895
245 0.738818
250 0.733907
255 0.751336
260 0.731187
265 0.834935
270 17.9076
275 65.871
280 16.4822
285 2.73601
290 1.1352
295 1.09671
300 1.13109
305 1.02393
310 1.04289
315 1.02427
320 1.044
325 1.2012
330 1.05975
335 1.0741
340 1.08532
345 1.07417
350 1.09396
355 1.03358
360 1.04811
365 1.13717
370 1.11416
375 1.15981
380 1.33921
385 1.17288
390 1.30319
395 1.3397
400 1.37475
405 1.43859
410 1.45916
415 1.44821
420 1.44891
425 1.4594
430 1.57335
435 1.72096
440 1.80203
445 2.05297
450 1.92338
455 2.30581
460 2.3952
465 2.50849
470 2.70259
475 2.89348
480 2.94379
485 3.09576
490 3.1062
495 3.42483
500 3.50566
505 3.60199
510 4.03021
515 5.00466
520 5.99044
525 7.49409
530 9.44322
535 13.4585
540 20.1084
545 585.873
550 9999.9
555 9999.9
560 4636.05
565 556.324
570 75.2213
575 16.4096
580 7.78973
585 5.3973
590 4.02417
595 3.25322
600 2.43102
Ex : 563
200 0.807598
205 0.826385
210 0.514941
215 0.676393
220 0.796135
225 0.742519
230 0.696966
235 0.754731
240 0.708202
245 0.698606
250 0.838029
255 0.722876
260 0.748147
265 0.8708
270 3.11325
275 58.9262
280 49.089
285 6.95956
290 1.67051
295 1.03407
300 1.0871
305 1.26252
310 1.18893
315 0.876933
320 1.0885
325 1.07736
330 1.19322
335 1.24383
340 1.08515
345 1.12092
350 1.1456
355 1.11424
360 1.144
365 1.1051
370 1.2124
375 1.18955
380 1.10066
385 1.21672
390 1.2367
395 1.30968
400 1.30899
405 1.48687
410 1.26078
415 1.38184
420 1.50801
425 1.46947
430 1.5155
435 1.7716
440 1.83848
445 2.09688
450 2.00427
455 2.27425
460 2.28172
465 2.49567
470 2.3531
475 2.37392
480 2.70483
485 2.74467
490 2.77894
495 3.05243
500 3.16629
505 3.50985
510 3.47107
515 4.1029
520 4.77048
525 5.60523
530 6.99883
535 9.66494
540 13.4081
545 19.9866
550 583.812
555 9999.9
560 9999.9
565 4613.72
570 552.415
575 74.0628
580 15.8167
585 7.59527
590 4.95565
595 3.52651
600 2.98674
Ex : 568
200 0.754194
205 0.736151
210 0.629859
215 0.695241
220 0.797237
225 0.750369
230 0.648614
235 0.744973
240 0.793523
245 0.64911
250 0.705018
255 0.65572
260 0.757291
265 0.895226
270 0.892209
275 21.5008
280 85.3474
285 22.909
290 3.50386
295 1.37776
300 0.932078
305 1.02393
310 1.08734
315 1.0502
320 0.969238
325 1.03846
330 1.13975
335 1.09416
340 1.15837
345 0.996215
350 1.13981
355 0.974909
360 1.15041
365 1.02786
370 1.08669
375 1.26056
380 1.141
385 1.18897
390 1.24346
395 1.24188
400 1.28015
405 1.34969
410 1.25993
415 1.433
420 1.36741
425 1.58906
430 1.57856
435 1.55467
440 1.51668
445 1.78482
450 1.8559
455 1.90135
460 2.27195
465 2.4634
470 2.62839
475 2.54473
480 2.62859
485 2.66885
490 2.86167
495 2.76934
500 2.90792
505 3.17474
510 3.4518
515 3.85503
520 4.18456
525 4.60329
530 5.84308
535 6.873
540 9.0405
545 12.7151
550 19.3324
555 445.091
560 9999.9
565 9999.9
570 4775.72
575 574.833
580 75.6231
585 15.3389
590 6.7119
595 4.62308
600 4.40532
Ex : 573
200 0.712046
205 0.699714
210 0.658529
215 0.875676
220 0.723453
225 0.641612
230 0.562945
235 0.707941
240 0.630163
245 0.679135
250 0.674775
255 0.7483
260 0.755014
265 0.723306
270 0.838539
275 2.642
280 71.4039
285 66.6979
290 9.33325
295 1.86663
300 1.16774
305 0.865647
310 1.19239
315 1.0883
320 1.12196
325 0.967607
330 1.25316
335 1.16615
340 1.05021
345 1.12041
350 1.23824
355 1.09291
360 0.895921
365 1.21213
370 1.05262
375 1.2445
380 1.41026
385 1.30733
390 1.04603
395 1.1578
400 1.27792
405 1.21036
410 1.27956
415 1.27525
420 1.18461
425 1.48745
430 1.48618
435 1.42601
440 1.52984
445 1.90116
450 1.81253
455 1.85622
460 1.93244
465 2.04266
470 2.42593
475 2.30748
480 2.35102
485 2.46776
490 2.57344
495 2.52174
500 2.74635
505 2.62636
510 3.15203
515 3.3338
520 3.46712
525 4.30532
530 4.68186
535 5.50215
540 6.81348
545 8.55346
550 11.7928
555 18.222
560 376.913
565 9658.16
570 9999.9
575 4719.87
580 565.975
585 74.1057
590 14.4023
595 6.13773
600 4.30081
Ex : 578
200 0.83269
205 0.572627
210 0.639325
215 0.669703
220 0.698475
225 0.644749
230 0.715404
235 0.710615
240 0.655005
245 0.629001
250 0.866244
255 0.850322
260 0.751398
265 0.761258
270 0.674305
275 0.955817
280 25.295
285 104.737
290 28.7196
295 4.17514
300 1.31079
305 1.01379
310 0.892732
315 1.03743
320 1.02677
325 0.871598
330 1.01724
335 1.0542
340 0.946144
345 1.10126
350 1.01496
355 1.10482
360 1.1317
365 1.07571
370 1.09795
375 1.03684
380 1.05902
385 1.01285
390 1.09179
395 1.17028
400 1.19318
405 1.21644
410 1.37553
415 1.34192
420 1.07598
425 1.19715
430 1.33823
435 1.30976
440 1.33881
445 1.7678
450 1.73322
455 1.8502
460 1.89438
465 2.13511
470 2.03361
475 2.18569
480 2.05635
485 2.18662
490 2.62753
495 2.40357
500 2.57012
505 2.81602
510 2.93071
515 2.95837
520 3.13364
525 3.61156
530 3.66329
535 4.00189
540 5.2918
545 6.65117
550 8.56268
555 12.2905
560 17.1902
565 338.078
570 8805.36
575 9999.9
580 4152.08
585 496.063
590 64.9888
595 13.1137
600 6.5023
Ex : 583
200 0.679057
205 0.803593
210 0.630706
215 0.732988
220 0.585323
225 0.694304
230 0.618659
235 0.60602
240 0.55539
245 0.700667
250 0.800763
255 0.776627
260 0.656132
265 0.733234
270 0.85497
275 0.848413
280 2.88846
285 82.1786
290 78.8169
295 10.8317
300 2.05457
305 1.10385
310 0.924687
315 0.910473
320 0.997206
325 0.851439
330 0.996212
335 0.944209
340 1.01374
345 0.953525
350 0.988653
355 1.00063
360 1.16002
365 0.917926
370 1.03627
375 0.961419
380 1.07281
385 1.14681
390 1.13427
395 1.06939
400 1.26014
405 1.17659
410 0.963939
415 1.10943
420 1.27517
425 1.2049
430 1.13702
435 1.08161
440 1.44504
445 1.4351
450 1.55853
455 1.61797
460 1.81114
465 2.06169
470 2.0256
475 1.93244
480 2.02512
485 2.19058
490 2.13037
495 2.05949
500 2.30465
505 2.42387
510 2.31376
515 2.66219
520 3.11656
525 3.07377
530 3.27924
535 3.91281
540 4.12894
545 4.82405
550 6.45976
555 7.98117
560 10.8308
565 16.3491
570 301.652
575 8034.45
580 9999.9
585 3640.63
590 435.254
595 57.0817
600 11.6766
Ex : 588
200 0.590102
205 0.538726
210 0.618413
215 0.671951
220 0.559527
225 0.530842
230 0.702571
235 0.686292
240 0.654638
245 0.631582
250 0.656389
255 0.717877
260 0.625463
265 0.620261
270 0.705386
275 0.679257
280 0.853286
285 27.046
290 125.999
295 35.8819
300 5.06017
305 1.21699
310 0.931254
315 1.01668
320 0.84406
325 1.17422
330 1.01951
335 0.975059
340 0.877288
345 0.984038
350 0.90016
355 0.914402
360 0.989798
365 0.903456
370 1.01964
375 1.02958
380 0.97954
385 0.989011
390 1.06119
395 1.15641
400 1.01856
405 1.07473
410 1.13786
415 1.04173
420 1.13214
425 1.01672
430 1.11403
435 1.27248
440 1.39418
445 1.41115
450 1.2333
455 1.30349
460 1.61342
465 1.9705
470 1.84414
475 1.73969
480 1.89898
485 1.90949
490 2.1944
495 1.88181
500 2.08616
505 2.28958
510 2.08597
515 2.51424
520 2.45556
525 2.5566
530 2.88324
535 3.36239
540 3.50731
545 3.88187
550 4.89288
555 5.71269
560 7.97562
565 10.1218
570 14.7417
575 263.502
580 6780.88
585 9999.9
590 3439.49
595 410.698
600 55.3154
Ex : 593
200 0.64372
205 0.59237
210 0.717271
215 0.648987
220 0.659368
225 0.583319
230 0.635966
235 0.667766
240 0.605687
245 0.635318
250 0.799558
255 0.545977
260 0.581302
265 0.638309
270 0.557307
275 0.850169
280 0.794081
285 3.33823
290 95.9603
295 96.4949
300 13.5657
305 2.28829
310 1.10295
315 1.03013
320 1.01898
325 1.03419
330 1.00813
335 0.948616
340 0.908085
345 0.839473
350 0.982857
355 0.897436
360 0.844668
365 0.840402
370 0.836855
375 0.863435
380 0.911147
385 1.07556
390 0.838131
395 0.940763
400 1.2173
405 1.03615
410 1.09861
415 1.00044
420 1.07912
425 1.24208
430 1.11386
435 1.16641
440 1.14112
445 1.23592
450 1.29137
455 1.67542
460 1.3975
465 1.72949
470 1.93346
475 1.89009
480 1.84928
485 1.8407
490 1.94873
495 2.05459
500 2.09003
505 2.16598
510 2.25584
515 2.1196
520 2.48454
525 2.38042
530 2.77083
535 3.19309
540 2.87681
545 3.23594
550 3.94264
555 4.67115
560 5.73574
565 7.45577
570 8.96783
575 12.9816
580 235.094
585 6041.36
590 9999.9
595 3120.68
600 435.177
Ex : 598
200 0.605153
205 0.549893
210 0.604079
215 0.611322
220 0.55418
225 0.61222
230 0.542856
235 0.637199
240 0.591568
245 0.632185
250 0.631577
255 0.574217
260 0.441621
265 0.54659
270 0.731405
275 0.580116
280 0.71573
285 0.881287
290 31.6337
295 147.929
300 43.741
305 5.77405
310 1.39102
315 1.00601
320 0.863111
325 0.97096
330 1.01426
335 0.827171
340 0.927272
345 0.768605
350 0.804763
355 0.943627
360 0.852083
365 0.886654
370 1.03334
375 1.07132
380 0.948237
385 1.03359
390 0.966827
395 0.92112
400 1.17457
405 1.15516
410 0.920125
415 1.07643
420 0.965348
425 1.03727
430 1.13761
435 1.0059
440 1.27614
445 1.20231
450 1.06923
455 1.29396
460 1.60399
465 1.61195
470 1.74642
475 1.77958
480 1.73381
485 1.82428
490 1.82642
495 1.72661
500 1.93341
505 1.99732
510 1.9236
515 2.1098
520 2.09759
525 2.51181
530 2.45354
535 2.59186
540 2.54534
545 2.91
550 2.97336
555 3.94153
560 4.66854
565 5.26738
570 6.76307
575 8.6311
580 11.6835
585 227.992
590 5505.43
595 9999.9
600 6182.22
Ex : 603
200 0.534125
205 0.77479
210 0.564936
215 0.699609
220 0.562434
225 0.587581
230 0.545051
235 0.607178
240 0.468282
245 0.525778
250 0.51098
255 0.672436
260 0.505654
265 0.737877
270 0.581498
275 0.684949
280 0.628513
285 0.713799
290 3.02783
295 110.003
300 118.887
305 16.6792
310 2.64017
315 1.11333
320 0.978805
325 0.948041
330 0.993909
335 1.1437
340 0.798267
345 0.846803
350 0.885721
355 0.874809
360 0.838989
365 0.925714
370 0.889912
375 0.832427
380 0.945235
385 0.962162
390 0.995342
395 1.0547
400 0.998433
405 0.922645
410 1.02458
415 1.10437
420 1.15079
425 1.0532
430 0.973747
435 1.08488
440 1.2359
445 1.00624
450 1.20425
455 1.35597
460 1.44939
465 1.76984
470 1.66817
475 1.48168
480 1.59826
485 1.53362
490 1.68967
495 1.86714
500 1.78968
505 1.99942
510 1.84241
515 2.02178
520 1.95428
525 1.87395
530 2.16843
535 2.15352
540 2.77798
545 2.59176
550 3.20795
555 3.07135
560 3.67304
565 4.13262
570 4.97646
575 5.96109
580 7.60921
585 10.7517
590 201.871
595 4803.55
600 9621.35
