File format V 1.0
ven. 6. janv. 02:15:04 2017
Operator : 
Comments : 

=============================================
SpectroFluorometer parameters
Mode : 3D measurement
Data : Fluorescence
Phospho. : Ordinary
Spectrum : Fluorescence

Scan speed : 2400 nm/mn
Response : 100 ms
PM Voltage : 700 V
Shutter : On

Lambda Ex. Start : 203
Lambda Ex. End : 603
Lambda Ex. Step : 5
Ex. Slit : 5 nm

Lambda Em. Start : 200
Lambda Em. End : 600
Lambda Em. Step : 5
Em. Slit : 5 nm

Repetition : 1
Decal lambda em : 10
=============================================
DATA
Ex : 203
200 6.75949
205 5.45104
210 6.5515
215 2.81742
220 3.11602
225 2.41009
230 1.82077
235 4.9842
240 2.5967
245 8.24654
250 2.69961
255 2.71177
260 2.74565
265 3.00348
270 2.46992
275 3.94995
280 4.75789
285 3.66677
290 1.83888
295 4.17991
300 8.26971
305 5.4049
310 1.49502
315 3.01906
320 3.30156
325 2.46508
330 2.22405
335 5.5079
340 4.67167
345 1.88862
350 2.47966
355 3.82699
360 2.42363
365 4.65789
370 4.22159
375 2.63574
380 3.30159
385 3.41243
390 3.83956
395 4.18995
400 1.54596
405 7.19615
410 6.0315
415 4.70556
420 4.53208
425 1.98138
430 3.18775
435 3.86729
440 5.32992
445 6.20997
450 3.3819
455 2.38176
460 3.11556
465 3.20442
470 2.95802
475 3.50959
480 4.92271
485 3.00468
490 3.08216
495 2.32571
500 2.69457
505 3.10636
510 1.57702
515 5.15015
520 5.77331
525 2.68502
530 3.45905
535 3.04001
540 3.63253
545 3.80406
550 4.77775
555 10.8806
560 3.68689
565 3.4945
570 2.60069
575 2.9724
580 3.52181
585 2.88573
590 2.41466
595 1.80447
600 0.205342
Ex : 208
200 5.77707
205 2.44731
210 2.76627
215 2.25716
220 2.8473
225 5.18346
230 0.799748
235 4.63815
240 2.2434
245 2.9892
250 5.82171
255 3.36301
260 2.88987
265 4.6684
270 4.28739
275 5.49341
280 7.29381
285 3.91743
290 2.80138
295 1.59514
300 5.79983
305 2.8428
310 4.81231
315 1.74311
320 1.06109
325 2.72978
330 5.51082
335 6.15948
340 2.46259
345 3.30994
350 2.61919
355 2.95666
360 3.42215
365 5.44842
370 2.83552
375 5.95126
380 5.3254
385 1.5097
390 2.61027
395 4.86917
400 3.26988
405 1.92457
410 4.17284
415 6.67249
420 2.85607
425 9.1284
430 3.69178
435 4.39201
440 7.25127
445 6.13041
450 3.91011
455 2.53845
460 2.21199
465 2.45293
470 4.77704
475 5.76304
480 2.60305
485 4.75779
490 7.73979
495 4.49056
500 4.25903
505 1.87227
510 5.58745
515 3.61301
520 4.17898
525 2.25395
530 6.19344
535 4.17228
540 4.28547
545 1.74263
550 5.33714
555 6.16006
560 6.02437
565 3.06872
570 2.95443
575 4.13183
580 3.67584
585 7.59064
590 4.59369
595 5.78969
600 0.658844
Ex : 213
200 2.07975
205 4.56658
210 4.13977
215 7.72461
220 3.60746
225 5.67918
230 3.79402
235 7.37562
240 3.39946
245 6.20034
250 8.95187
255 4.02357
260 5.9577
265 6.76914
270 5.33578
275 4.05224
280 3.27613
285 2.66938
290 2.96238
295 2.55572
300 5.41727
305 6.31771
310 5.86818
315 2.9169
320 3.16013
325 2.01509
330 3.66877
335 3.89975
340 2.53182
345 3.36872
350 3.03074
355 1.18414
360 3.15484
365 3.45794
370 4.97813
375 3.00938
380 3.82779
385 5.24131
390 6.18988
395 4.17752
400 3.66208
405 2.62366
410 7.02566
415 5.05216
420 6.08529
425 3.79717
430 3.98246
435 4.49235
440 5.18747
445 3.75767
450 7.49296
455 7.6333
460 6.54244
465 8.81016
470 6.29692
475 4.82322
480 5.34446
485 6.44773
490 3.39234
495 1.76658
500 3.96452
505 8.66557
510 5.03329
515 6.3652
520 4.21161
525 5.63106
530 3.27545
535 2.31557
540 2.84374
545 5.78194
550 5.67038
555 4.92651
560 6.45387
565 6.84205
570 3.56203
575 2.69682
580 2.80974
585 6.50417
590 2.5068
595 6.87271
600 0.782089
Ex : 218
200 6.54487
205 2.77851
210 4.01805
215 2.47292
220 2.49692
225 5.46256
230 3.60845
235 1.53125
240 5.66986
245 5.75456
250 5.35665
255 2.00378
260 1.91411
265 4.57354
270 2.81519
275 2.46062
280 2.05242
285 2.60429
290 8.04928
295 3.60624
300 4.20289
305 2.00796
310 5.77981
315 6.24417
320 3.30012
325 3.37972
330 4.00079
335 1.72128
340 1.50542
345 1.4463
350 1.91046
355 2.38627
360 3.19081
365 5.68586
370 3.37211
375 3.43621
380 2.18905
385 2.01621
390 5.95611
395 3.54262
400 6.90395
405 7.30517
410 6.69258
415 3.01163
420 3.78265
425 3.26969
430 3.86577
435 2.76619
440 5.19184
445 4.41834
450 5.50189
455 2.0137
460 2.21893
465 3.58912
470 4.29409
475 2.26106
480 3.09008
485 2.13519
490 6.18912
495 3.3061
500 4.02494
505 2.81716
510 4.08154
515 6.68391
520 7.2754
525 5.64601
530 5.06727
535 2.33775
540 6.31204
545 3.80398
550 2.845
555 5.99211
560 3.20327
565 2.27594
570 3.0544
575 3.47261
580 3.48852
585 4.62047
590 4.48305
595 2.6337
600 0.299705
Ex : 223
200 1.77215
205 1.30661
210 3.99071
215 3.06664
220 3.537
225 3.14216
230 3.34987
235 2.94074
240 4.62844
245 4.91227
250 4.70453
255 2.88404
260 1.68704
265 2.23997
270 4.92654
275 2.6538
280 1.9267
285 5.25953
290 4.24727
295 2.65085
300 4.02603
305 3.34346
310 5.31629
315 3.7227
320 4.61242
325 8.1691
330 5.27755
335 2.6422
340 7.39577
345 2.52484
350 4.82627
355 4.8186
360 6.34843
365 2.56551
370 4.42756
375 3.05978
380 2.56091
385 2.63016
390 1.41129
395 3.72153
400 2.76033
405 1.63759
410 4.78488
415 2.65324
420 2.38743
425 2.3012
430 6.63682
435 3.48599
440 2.87478
445 2.11128
450 3.84337
455 4.81337
460 5.95972
465 6.98429
470 4.28967
475 2.69775
480 1.8712
485 4.23356
490 4.53874
495 5.34881
500 3.83171
505 2.94416
510 3.5437
515 2.29557
520 4.31795
525 3.12913
530 3.27502
535 4.4938
540 5.58746
545 3.17699
550 3.2885
555 2.25404
560 3.43302
565 3.58205
570 7.62626
575 4.46804
580 5.1202
585 4.83229
590 2.30458
595 4.17905
600 0.47556
Ex : 228
200 2.03488
205 5.20269
210 2.44411
215 7.89948
220 4.58965
225 1.78189
230 2.7181
235 4.88361
240 2.12324
245 2.68688
250 2.90966
255 6.70387
260 7.11489
265 5.10639
270 6.15679
275 2.65696
280 6.14087
285 2.3164
290 1.60873
295 1.38543
300 6.01525
305 4.66957
310 4.33258
315 3.0868
320 3.28214
325 2.43112
330 1.94943
335 1.84998
340 1.68753
345 1.92322
350 2.65088
355 6.36711
360 3.0072
365 3.31075
370 3.27237
375 4.2192
380 2.40359
385 4.65438
390 5.96469
395 2.20444
400 2.58576
405 3.65864
410 2.48972
415 5.02968
420 2.59868
425 4.71197
430 4.20613
435 4.0535
440 4.31651
445 6.4254
450 4.0493
455 4.8184
460 3.34285
465 2.61085
470 5.18482
475 6.64152
480 4.90195
485 6.20327
490 2.78466
495 6.44776
500 6.21433
505 4.96208
510 4.5938
515 4.08321
520 7.03918
525 3.39266
530 2.73712
535 2.72475
540 2.27423
545 6.2647
550 6.2053
555 3.71923
560 2.91203
565 1.16321
570 3.78177
575 5.95013
580 4.12402
585 5.58674
590 3.23462
595 3.24694
600 1.55109
Ex : 233
200 4.08791
205 2.96133
210 3.67167
215 5.45107
220 3.39812
225 2.89923
230 2.34663
235 4.93307
240 4.43078
245 1.91171
250 5.66995
255 5.02147
260 5.58642
265 6.03481
270 3.96708
275 2.58472
280 1.28349
285 2.53832
290 3.87542
295 7.0704
300 6.27033
305 3.21547
310 1.7472
315 3.02863
320 5.79205
325 3.97766
330 3.03377
335 5.25567
340 3.8413
345 1.81728
350 4.65554
355 3.5682
360 2.37488
365 2.75917
370 1.78269
375 4.08415
380 1.56399
385 2.52712
390 3.71742
395 1.95646
400 3.60334
405 4.13304
410 4.0894
415 2.3443
420 3.63338
425 8.53621
430 2.26851
435 3.14635
440 5.37986
445 3.4152
450 1.69131
455 1.35477
460 5.14489
465 3.49051
470 5.25509
475 4.6647
480 2.04595
485 2.62993
490 6.18687
495 2.99629
500 3.75851
505 3.81584
510 5.77634
515 2.47816
520 1.64902
525 2.75425
530 2.8291
535 3.19415
540 2.10064
545 2.44448
550 2.33474
555 3.11455
560 2.79528
565 2.0049
570 1.66597
575 2.26276
580 2.67751
585 4.53931
590 2.03926
595 6.89304
600 0.784401
Ex : 238
200 2.51163
205 1.85203
210 4.30293
215 2.77152
220 1.3932
225 1.42455
230 2.95426
235 3.73606
240 5.49457
245 3.57783
250 3.02473
255 3.28031
260 2.20394
265 6.18218
270 3.34082
275 4.67803
280 3.60649
285 1.89597
290 3.47526
295 3.41721
300 3.84466
305 3.38413
310 2.85761
315 1.97536
320 4.69006
325 2.23295
330 1.29694
335 4.38167
340 5.0628
345 3.03545
350 4.7254
355 2.29293
360 1.73525
365 3.13636
370 6.43135
375 4.28532
380 2.67034
385 1.97782
390 2.59289
395 4.32729
400 4.35051
405 2.64846
410 2.60728
415 2.17988
420 1.93485
425 2.20259
430 4.18826
435 2.68563
440 5.67628
445 3.79093
450 3.68081
455 2.95818
460 3.52613
465 6.05026
470 2.88397
475 3.05305
480 1.64034
485 2.60713
490 2.69206
495 1.83784
500 2.98591
505 4.9407
510 2.47786
515 1.56111
520 2.73594
525 2.08811
530 2.93843
535 4.043
540 2.49044
545 4.66564
550 2.27232
555 2.17179
560 4.13032
565 3.14583
570 3.67579
575 1.58195
580 1.61192
585 2.01328
590 1.97406
595 1.2343
600 0.731261
Ex : 243
200 1.2625
205 2.89408
210 2.12268
215 1.76507
220 3.596
225 2.68596
230 1.75079
235 3.03728
240 1.33861
245 0.728361
250 7.30116
255 3.55821
260 1.39919
265 0.995553
270 2.88589
275 2.67613
280 2.68016
285 2.95994
290 2.90416
295 3.21719
300 2.56122
305 2.81287
310 1.88799
315 2.26241
320 2.13969
325 5.20325
330 3.11817
335 2.0933
340 2.6883
345 5.29219
350 2.42612
355 5.16777
360 1.80479
365 4.53281
370 3.44511
375 1.65432
380 1.31485
385 1.86733
390 1.64888
395 1.46567
400 1.77494
405 4.9962
410 1.21003
415 2.31225
420 1.59056
425 3.01608
430 1.33592
435 3.65253
440 2.93624
445 3.57178
450 3.16977
455 3.25334
460 2.55105
465 2.02463
470 1.5386
475 2.33742
480 1.97716
485 3.10979
490 2.617
495 4.54107
500 2.80316
505 2.14945
510 2.45247
515 3.25446
520 1.11284
525 1.75134
530 2.17479
535 2.53864
540 2.32415
545 3.33301
550 1.77033
555 2.50119
560 4.67728
565 3.43766
570 1.15705
575 2.34526
580 2.10631
585 2.84291
590 1.77331
595 1.84377
600 0.948317
Ex : 248
200 1.8277
205 2.44319
210 1.81016
215 1.13129
220 2.45845
225 2.17473
230 3.54793
235 2.53742
240 1.94691
245 1.57225
250 1.81855
255 1.2876
260 1.84065
265 2.41725
270 3.87238
275 0.946604
280 2.23396
285 3.08753
290 1.41416
295 3.65651
300 2.64871
305 1.12594
310 1.52657
315 3.41043
320 2.25795
325 0.956581
330 1.6208
335 1.4875
340 1.14909
345 2.23314
350 1.61888
355 1.26254
360 2.90075
365 2.0898
370 1.32233
375 1.79546
380 2.12803
385 1.96534
390 1.97046
395 1.3684
400 3.24486
405 3.31335
410 3.76247
415 3.12395
420 2.46851
425 2.34012
430 1.64088
435 2.71511
440 1.63199
445 2.9659
450 1.91021
455 3.92535
460 1.41561
465 2.92208
470 2.95288
475 2.01101
480 3.21145
485 1.76281
490 3.27753
495 3.7601
500 1.7016
505 2.2584
510 1.68114
515 1.47275
520 2.7445
525 2.08156
530 2.003
535 2.16147
540 3.4465
545 2.53282
550 3.30443
555 1.74884
560 2.36596
565 3.41152
570 2.65715
575 1.62048
580 3.30977
585 2.05593
590 1.37381
595 3.04653
600 8.32252
Ex : 253
200 2.65625
205 1.57464
210 2.04593
215 1.8311
220 1.49131
225 1.4585
230 2.05519
235 1.68356
240 1.67026
245 0.740213
250 1.42815
255 1.14914
260 0.993582
265 1.22772
270 0.85687
275 2.16013
280 2.52276
285 2.08404
290 1.10867
295 0.792731
300 1.45933
305 2.55857
310 4.20267
315 1.74247
320 1.40519
325 1.11871
330 1.6851
335 2.17505
340 3.37282
345 2.16907
350 1.68985
355 2.46077
360 4.07912
365 2.09708
370 2.05215
375 2.93067
380 1.52685
385 3.00356
390 1.70856
395 1.44387
400 1.68456
405 1.72863
410 1.01851
415 1.15568
420 1.88325
425 1.81658
430 1.4031
435 2.28555
440 2.27159
445 2.20358
450 1.29694
455 1.85126
460 1.89867
465 1.4839
470 1.79401
475 2.65223
480 1.30253
485 1.54451
490 1.43208
495 4.39026
500 2.12132
505 2.31178
510 1.30373
515 2.21788
520 0.704584
525 1.51486
530 1.09712
535 1.50562
540 1.10364
545 0.886291
550 0.580236
555 1.12679
560 2.24527
565 1.71388
570 1.87957
575 1.49901
580 3.65889
585 2.49623
590 2.55715
595 1.79754
600 0.204553
Ex : 258
200 0.743875
205 1.18636
210 0.96836
215 0.79432
220 0.801738
225 1.39378
230 1.37333
235 1.06086
240 0.76487
245 1.60682
250 1.24018
255 1.05086
260 1.71753
265 1.36345
270 0.984707
275 0.799766
280 1.29299
285 2.22982
290 2.56593
295 2.1187
300 1.57345
305 2.05171
310 1.34371
315 1.55541
320 1.81987
325 1.11515
330 1.33992
335 1.24164
340 2.2402
345 1.35118
350 0.975803
355 0.927499
360 2.01661
365 2.95396
370 1.80916
375 1.52326
380 1.04403
385 2.37302
390 0.751005
395 1.23014
400 2.37679
405 1.39195
410 1.03268
415 1.55734
420 2.04922
425 1.26611
430 1.14416
435 1.41324
440 1.92542
445 2.19071
450 2.04193
455 2.23917
460 0.953031
465 2.95499
470 1.66973
475 2.00471
480 1.68614
485 3.06649
490 1.00864
495 2.05107
500 0.804956
505 0.947316
510 2.11545
515 1.34323
520 1.98582
525 1.72095
530 0.991852
535 0.820242
540 1.70007
545 1.20801
550 0.80064
555 0.664768
560 0.711794
565 1.48873
570 0.91027
575 1.20833
580 2.05895
585 1.20529
590 0.999464
595 1.13236
600 0.128858
Ex : 263
200 1.24567
205 0.784991
210 1.21548
215 1.13762
220 0.654326
225 0.749218
230 1.03376
235 0.797008
240 0.907181
245 1.52732
250 0.902702
255 1.47547
260 0.986411
265 0.9815
270 0.648077
275 1.63783
280 0.842358
285 0.983655
290 1.3218
295 0.671174
300 0.520996
305 0.937745
310 0.919597
315 1.34005
320 0.624329
325 0.890595
330 1.98122
335 2.01026
340 2.05085
345 0.947352
350 0.719193
355 0.720589
360 1.04671
365 2.14628
370 1.17805
375 1.44932
380 2.28058
385 1.11993
390 1.49876
395 1.70766
400 1.46077
405 0.641601
410 0.6476
415 0.813495
420 1.14455
425 1.55411
430 1.47061
435 1.02889
440 0.964555
445 1.39119
450 1.26074
455 1.18578
460 1.11102
465 0.898938
470 2.00794
475 1.10222
480 1.50133
485 1.44019
490 0.923273
495 1.17776
500 1.16739
505 1.16134
510 1.69825
515 1.81379
520 1.88972
525 1.59207
530 1.93193
535 1.30696
540 0.771053
545 0.933093
550 0.894446
555 1.4396
560 0.946125
565 0.753727
570 0.892822
575 0.940665
580 1.02184
585 1.18337
590 0.999101
595 2.16102
600 0.245916
Ex : 268
200 0.967524
205 0.599208
210 1.13187
215 0.689019
220 0.440326
225 0.59027
230 0.908272
235 1.66395
240 0.746289
245 1.29249
250 0.85775
255 0.422631
260 0.596812
265 0.655453
270 0.360862
275 0.760338
280 0.789375
285 0.306589
290 0.835928
295 0.792646
300 0.961776
305 0.580242
310 1.57514
315 1.24736
320 0.620077
325 1.03966
330 0.903553
335 0.809847
340 0.85663
345 0.456886
350 1.07162
355 0.582232
360 0.590523
365 0.843087
370 0.971292
375 0.689923
380 1.95546
385 1.23393
390 1.05874
395 0.967676
400 1.06224
405 0.952152
410 0.695129
415 1.00128
420 0.992862
425 1.18702
430 1.17867
435 0.816383
440 0.506545
445 1.20364
450 1.01706
455 0.832502
460 0.944768
465 0.805109
470 1.45967
475 1.43919
480 1.3162
485 0.456781
490 1.02923
495 1.16523
500 0.320731
505 0.8104
510 1.26336
515 0.670403
520 1.47203
525 1.11684
530 1.31275
535 0.643592
540 1.40315
545 1.16773
550 1.0215
555 0.763947
560 0.654734
565 0.874551
570 0.473615
575 1.2006
580 1.29075
585 0.803874
590 1.49756
595 0.614725
600 0.513055
Ex : 273
200 0.448009
205 0.314211
210 0.568463
215 0.308589
220 0.164232
225 0.25957
230 0.355724
235 0.588708
240 0.353532
245 0.785313
250 0.702364
255 0.4012
260 0.478068
265 0.448713
270 0.737155
275 0.767305
280 0.617853
285 0.631473
290 0.538282
295 0.573327
300 0.348349
305 0.736933
310 0.799453
315 0.685045
320 0.91736
325 0.554937
330 0.581903
335 0.385173
340 0.932015
345 0.419655
350 0.966853
355 0.537371
360 0.854589
365 0.763898
370 0.568011
375 0.783208
380 0.947851
385 0.575115
390 0.626873
395 0.524241
400 0.588441
405 0.675065
410 1.09673
415 0.590554
420 0.584238
425 1.04644
430 0.774534
435 0.827935
440 0.537318
445 1.05982
450 0.684194
455 1.44356
460 1.2745
465 0.855771
470 0.632616
475 0.674104
480 1.40651
485 0.784516
490 0.504745
495 0.678563
500 0.940049
505 0.973484
510 0.493121
515 0.583153
520 1.09004
525 0.784313
530 0.470043
535 0.629472
540 0.900147
545 1.22464
550 0.631694
555 0.716308
560 1.06952
565 0.574745
570 0.947656
575 0.701245
580 0.705943
585 0.30991
590 0.708545
595 0.607373
600 0.0691168
Ex : 278
200 0.245115
205 0.46226
210 0.65746
215 0.357785
220 0.53243
225 0.49087
230 0.568246
235 0.242552
240 0.791821
245 0.538837
250 0.869445
255 0.525275
260 0.384928
265 0.335445
270 0.630059
275 0.645407
280 0.714766
285 0.511526
290 0.871226
295 0.688593
300 0.252721
305 0.802877
310 0.930165
315 0.39585
320 0.433464
325 0.343658
330 0.72259
335 0.742896
340 0.277789
345 0.360042
350 0.423319
355 0.50492
360 0.601646
365 0.897676
370 1.02174
375 0.744931
380 0.669729
385 0.62033
390 0.586465
395 0.574298
400 0.408837
405 1.03619
410 0.470961
415 0.791562
420 0.83694
425 0.852557
430 0.769698
435 0.722553
440 0.790388
445 0.795848
450 1.05893
455 0.558447
460 0.843698
465 0.398971
470 0.703497
475 0.567307
480 0.579718
485 0.86395
490 0.617226
495 0.616994
500 0.45402
505 0.560117
510 0.618321
515 0.602246
520 0.357808
525 0.31407
530 0.471223
535 0.754361
540 0.380709
545 0.658565
550 1.28449
555 1.8534
560 0.659206
565 0.574206
570 0.689677
575 0.44015
580 0.426101
585 0.318168
590 0.50301
595 0.324623
600 1.4483
Ex : 283
200 0.246859
205 0.40912
210 1.04222
215 0.399882
220 0.52523
225 0.662075
230 0.281127
235 0.70792
240 0.567309
245 0.425206
250 0.260755
255 0.197475
260 0.664002
265 0.937759
270 0.66663
275 0.452184
280 0.691785
285 0.55786
290 0.479828
295 0.308272
300 0.385144
305 0.40278
310 0.19899
315 0.417619
320 0.566406
325 0.15971
330 0.329741
335 0.467299
340 0.494629
345 0.308545
350 0.589809
355 0.229091
360 0.778444
365 0.294403
370 1.0479
375 0.520196
380 0.647578
385 0.532232
390 0.579174
395 0.441373
400 0.765036
405 0.354841
410 0.845779
415 0.828443
420 0.727181
425 0.947015
430 0.694352
435 0.329506
440 0.698852
445 0.427444
450 0.437915
455 0.550238
460 1.43305
465 0.622121
470 0.496041
475 0.559179
480 0.711345
485 0.623468
490 0.510377
495 1.14282
500 0.33729
505 0.325657
510 0.763401
515 0.517712
520 0.599929
525 0.373087
530 0.266311
535 0.25335
540 0.326703
545 0.520381
550 0.355943
555 0.765103
560 0.810161
565 0.417508
570 0.634563
575 0.422944
580 0.569697
585 0.310739
590 0.614751
595 0.624838
600 0.0711042
Ex : 288
200 0.192213
205 0.139593
210 0.318464
215 0.60264
220 0.427582
225 0.231176
230 0.25351
235 0.297311
240 0.259631
245 0.37213
250 0.551114
255 0.256108
260 0.417481
265 0.50538
270 0.41034
275 0.442705
280 0.3406
285 0.327393
290 0.457354
295 0.342296
300 0.320699
305 0.283641
310 0.329506
315 0.198774
320 0.421384
325 0.746207
330 0.384037
335 0.600448
340 0.509508
345 0.481841
350 0.334801
355 0.669609
360 0.5657
365 0.566354
370 0.414295
375 0.389605
380 0.301373
385 0.397683
390 0.667767
395 0.740505
400 0.420925
405 0.39711
410 0.754705
415 0.714766
420 0.582379
425 0.505264
430 0.528328
435 1.05311
440 0.414512
445 0.383335
450 0.712268
455 0.626792
460 0.540591
465 0.371055
470 0.394384
475 0.462701
480 0.567617
485 0.644012
490 0.601167
495 0.433607
500 0.286729
505 0.274221
510 0.265805
515 0.503956
520 0.396942
525 0.342603
530 0.526678
535 0.296292
540 0.266318
545 0.163648
550 0.404096
555 0.618313
560 0.324116
565 0.501921
570 0.789822
575 0.710443
580 0.631534
585 0.282867
590 0.177776
595 0.185943
600 0.254371
Ex : 293
200 0.100053
205 0.136441
210 0.301624
215 0.170304
220 0.348914
225 0.156448
230 0.244937
235 0.31568
240 0.314418
245 0.1666
250 0.231195
255 0.434304
260 0.183781
265 0.14738
270 0.330322
275 0.223074
280 0.336168
285 0.46871
290 0.389162
295 0.351696
300 0.176397
305 0.217995
310 0.210685
315 0.353419
320 0.276476
325 0.258491
330 0.252265
335 0.299271
340 0.3197
345 0.407924
350 0.302729
355 0.725754
360 0.476301
365 0.663996
370 0.364191
375 0.483369
380 0.619637
385 0.578998
390 0.544268
395 0.786502
400 0.569
405 0.513655
410 0.244155
415 0.580495
420 0.532432
425 0.461401
430 0.49869
435 0.436348
440 0.433614
445 0.634812
450 0.439058
455 0.540949
460 0.39985
465 0.455998
470 0.539187
475 0.395377
480 0.576995
485 0.561803
490 0.404019
495 0.620367
500 0.342227
505 0.365148
510 0.565068
515 0.345913
520 0.247002
525 0.374883
530 0.276021
535 0.481358
540 0.18912
545 0.166892
550 0.34214
555 0.345533
560 0.132555
565 0.19773
570 0.327895
575 0.308591
580 0.492073
585 0.577735
590 0.229943
595 0.231319
600 0.0263233
Ex : 298
200 0.251245
205 0.33758
210 0.150802
215 0.230109
220 0.222802
225 0.356927
230 0.260218
235 0.356937
240 0.277972
245 0.230683
250 0.335024
255 0.187791
260 0.356998
265 0.217383
270 0.383911
275 0.26483
280 0.216256
285 0.398866
290 0.32972
295 0.321106
300 0.273294
305 0.325128
310 0.101694
315 0.283131
320 0.264706
325 0.267716
330 0.883227
335 0.39523
340 0.212007
345 0.429005
350 0.248154
355 0.222553
360 0.462742
365 0.438828
370 0.382314
375 0.459735
380 0.238415
385 0.458257
390 0.31118
395 0.487233
400 0.514928
405 0.372845
410 0.367005
415 0.523927
420 0.690212
425 0.521443
430 0.560201
435 0.471516
440 0.350688
445 0.260137
450 0.305454
455 0.433067
460 0.343869
465 0.634929
470 0.577272
475 0.442653
480 0.312233
485 0.325298
490 0.503059
495 0.492299
500 0.225292
505 0.420004
510 0.651693
515 0.287416
520 0.241202
525 0.442015
530 0.601405
535 0.318175
540 0.330801
545 0.289237
550 0.272691
555 0.134476
560 0.206642
565 0.173376
570 0.505503
575 0.239196
580 0.449796
585 0.673594
590 0.639051
595 0.369334
600 0.0420287
Ex : 303
200 0.0955538
205 0.17162
210 0.115411
215 0.350952
220 0.130221
225 0.421299
230 0.374127
235 0.259108
240 0.229437
245 0.111274
250 0.175168
255 0.046377
260 0.176129
265 0.153219
270 0.0782744
275 0.431428
280 0.144559
285 0.20456
290 0.109617
295 0.272296
300 0.40845
305 0.293271
310 0.257799
315 0.124375
320 0.229097
325 0.390072
330 0.417582
335 0.359286
340 0.246336
345 0.27787
350 0.334278
355 0.296559
360 0.539603
365 0.309459
370 0.436
375 0.552739
380 0.24735
385 0.372919
390 0.354353
395 0.52581
400 0.772788
405 0.465495
410 0.598784
415 0.693345
420 0.37256
425 0.489708
430 0.341553
435 0.329844
440 0.485858
445 0.264342
450 0.519081
455 0.658848
460 0.542194
465 0.290533
470 0.368945
475 0.185703
480 0.298486
485 0.346374
490 0.1956
495 0.18307
500 0.222053
505 0.154863
510 0.251609
515 0.473481
520 0.331755
525 0.162304
530 0.229504
535 0.132934
540 0.295794
545 0.294
550 0.401749
555 0.373289
560 0.336132
565 0.110537
570 0.321744
575 0.1904
580 0.171176
585 0.196929
590 0.191227
595 0.400863
600 0.0601446
Ex : 308
200 0.0571818
205 0.0870152
210 0.102477
215 0.188964
220 0.223278
225 0.0692888
230 0.261261
235 0.229732
240 0.154397
245 0.164701
250 0.137128
255 0.216461
260 0.194619
265 0.1646
270 0.241199
275 0.226271
280 0.141035
285 0.27205
290 0.142884
295 0.210471
300 0.261907
305 0.392037
310 0.453369
315 0.124829
320 0.144377
325 0.0756325
330 0.30411
335 0.21154
340 0.198834
345 0.192351
350 0.32843
355 0.344362
360 0.259116
365 0.319467
370 0.464081
375 0.659611
380 0.352749
385 0.346491
390 0.349646
395 0.582023
400 0.37481
405 0.571811
410 0.448518
415 0.425501
420 0.515569
425 0.499021
430 0.343146
435 0.449594
440 0.623603
445 0.360803
450 0.518576
455 0.534611
460 0.423375
465 0.375032
470 0.563433
475 0.33814
480 0.230557
485 0.417308
490 0.152429
495 0.281588
500 0.369982
505 0.348167
510 0.153346
515 0.105765
520 0.328974
525 0.183345
530 0.287216
535 0.39074
540 0.337409
545 0.291597
550 0.150809
555 0.231943
560 0.17763
565 0.0695663
570 0.142346
575 0.204478
580 0.183304
585 0.19483
590 0.211541
595 0.128404
600 0.0146119
Ex : 313
200 0.19575
205 0.149335
210 0.103945
215 0.135214
220 0.253201
225 0.105525
230 0.178054
235 0.192676
240 0.0932511
245 0.222945
250 0.105714
255 0.257008
260 0.11669
265 0.123348
270 0.18556
275 0.0915392
280 0.146241
285 0.32056
290 0.159428
295 0.182849
300 0.55253
305 0.524997
310 0.517947
315 0.225797
320 0.203684
325 0.372483
330 0.20371
335 0.247618
340 0.248527
345 0.35742
350 0.436971
355 0.327264
360 0.555719
365 0.493749
370 0.858539
375 0.777621
380 0.735424
385 0.721091
390 0.966916
395 0.808057
400 0.963201
405 0.974509
410 1.05094
415 0.870291
420 1.13049
425 1.0407
430 0.94263
435 0.895451
440 0.969207
445 0.774403
450 0.534954
455 0.525461
460 0.706059
465 0.656608
470 0.59147
475 0.575354
480 0.726703
485 0.41037
490 0.453596
495 0.510564
500 0.427887
505 0.346607
510 0.498716
515 0.254412
520 0.206085
525 0.318138
530 0.2941
535 0.151717
540 0.35342
545 0.215049
550 0.328574
555 0.33368
560 0.293119
565 0.275588
570 0.36225
575 0.252466
580 0.206077
585 0.173014
590 0.0698508
595 0.263382
600 0.0299719
Ex : 318
200 0.0785619
205 0.12691
210 0.0845126
215 0.0847958
220 0.2538
225 0.275852
230 0.125397
235 0.125434
240 0.132689
245 0.134251
250 0.0913125
255 0.129298
260 0.117981
265 0.153504
270 0.065326
275 0.156437
280 0.273218
285 0.195327
290 0.210462
295 0.188592
300 0.143771
305 0.152534
310 0.644649
315 1.22305
320 0.741864
325 0.386737
330 0.689703
335 0.525169
340 0.807206
345 1.44026
350 2.17849
355 2.77802
360 3.89618
365 5.0313
370 5.82431
375 6.69142
380 8.29796
385 9.0007
390 9.44461
395 10.6208
400 11.6392
405 11.2321
410 11.4545
415 10.7608
420 10.9426
425 10.9351
430 10.0914
435 9.42332
440 9.02321
445 8.40353
450 8.35101
455 7.33079
460 7.11993
465 6.44483
470 6.02266
475 5.75959
480 4.90436
485 4.32969
490 3.84119
495 3.51285
500 2.63174
505 2.28079
510 1.99009
515 1.5611
520 1.54162
525 1.20342
530 1.11652
535 0.962817
540 0.836204
545 0.633107
550 0.622234
555 0.465339
560 0.538982
565 0.535516
570 0.434204
575 0.291146
580 0.200462
585 0.157164
590 0.170776
595 0.159815
600 0.0181864
Ex : 323
200 0.166509
205 0.165836
210 0.053608
215 0.051829
220 0.114318
225 0.153014
230 0.0704606
235 0.143525
240 0.0819617
245 0.107015
250 0.109331
255 0.211705
260 0.371901
265 0.224862
270 0.194329
275 0.173829
280 0.193758
285 0.0632184
290 0.137001
295 0.341773
300 0.14192
305 0.135633
310 0.118275
315 7.9994
320 35.1867
325 14.5684
330 3.37764
335 2.70461
340 3.9571
345 5.2498
350 9.2795
355 12.1618
360 14.5815
365 18.0297
370 21.064
375 23.1706
380 27.1742
385 30.3281
390 33.1501
395 35.6815
400 36.3402
405 38.2797
410 37.4804
415 37.0112
420 36.5499
425 35.5723
430 33.6383
435 32.1771
440 31.0423
445 29.4044
450 27.7137
455 26.2834
460 23.6107
465 22.7942
470 20.5493
475 18.8572
480 16.4646
485 15.2176
490 13.6952
495 12.7163
500 11.188
505 9.64306
510 7.83465
515 7.17162
520 6.20663
525 5.2484
530 4.4256
535 3.37745
540 3.07394
545 2.79499
550 2.46483
555 2.0225
560 1.28334
565 1.12566
570 0.934624
575 0.624955
580 0.472781
585 0.365405
590 0.554546
595 0.278736
600 0.338819
Ex : 328
200 0.159442
205 0.271128
210 0.107342
215 0.071827
220 0.0986649
225 0.0988972
230 0.143706
235 0.0830854
240 0.0898106
245 0.155728
250 0.164979
255 0.155918
260 0.191437
265 0.250727
270 0.0815217
275 0.217986
280 0.174595
285 0.138118
290 0.161488
295 0.156108
300 0.124308
305 0.15969
310 0.190262
315 1.8735
320 74.0765
325 177.444
330 51.8014
335 9.06122
340 5.52901
345 6.65521
350 8.7983
355 12.1653
360 17.0866
365 19.5509
370 20.9743
375 25.0343
380 27.2264
385 30.2162
390 33.4032
395 35.0154
400 36.1781
405 37.1341
410 37.7443
415 37.3345
420 35.8429
425 34.5898
430 32.8007
435 31.4943
440 29.4758
445 27.9194
450 26.257
455 25.671
460 23.9361
465 21.2516
470 19.7842
475 17.3297
480 16.1184
485 14.5589
490 12.7738
495 12.0496
500 10.7499
505 9.5696
510 7.9506
515 6.93963
520 6.24302
525 5.48483
530 4.51849
535 4.06455
540 3.42106
545 2.67787
550 2.22046
555 2.31264
560 1.95399
565 1.24637
570 1.09502
575 0.72037
580 0.540658
585 0.471631
590 0.52268
595 0.437572
600 0.0497941
Ex : 333
200 0.0721629
205 0.134171
210 0.201674
215 0.116098
220 0.148404
225 0.13694
230 0.125638
235 0.174076
240 0.095385
245 0.100897
250 0.0849422
255 0.126426
260 0.0759789
265 0.0554161
270 0.116562
275 0.176567
280 0.123578
285 0.0806272
290 0.125666
295 0.2308
300 0.293295
305 0.120704
310 0.139144
315 0.132035
320 9.87497
325 196.622
330 333.424
335 86.3256
340 13.1217
345 5.17251
350 5.28859
355 6.16411
360 9.25504
365 13.1135
370 14.4739
375 14.4855
380 15.1901
385 17.5311
390 20.7559
395 21.1899
400 21.7431
405 22.1309
410 22.8593
415 22.054
420 20.4783
425 19.9941
430 18.1896
435 18.3276
440 17.9228
445 16.1908
450 15.4216
455 14.3794
460 13.0069
465 12.2194
470 11.1369
475 9.92773
480 9.35892
485 8.12408
490 7.64425
495 6.41851
500 5.79932
505 4.86624
510 4.60799
515 3.80572
520 3.40364
525 3.15492
530 2.41628
535 2.07631
540 1.5944
545 1.51274
550 1.57514
555 1.14647
560 1.26873
565 0.827786
570 0.692685
575 0.57514
580 0.59174
585 0.37845
590 0.395502
595 0.295924
600 1.25851
Ex : 338
200 0.0897549
205 0.058176
210 0.107265
215 0.0757199
220 0.0674563
225 0.091093
230 0.12313
235 0.0824336
240 0.101548
245 0.0982497
250 0.0416047
255 0.128058
260 0.19543
265 0.0878315
270 0.0939743
275 0.14364
280 0.137085
285 0.0587834
290 0.141239
295 0.0963217
300 0.122871
305 0.144716
310 0.215738
315 0.257729
320 0.340855
325 18.5411
330 285.483
335 414.603
340 103.739
345 14.4774
350 4.57783
355 3.54197
360 3.6082
365 5.3495
370 9.83824
375 10.219
380 9.16022
385 9.99342
390 12.1999
395 12.8938
400 12.8841
405 12.7561
410 13.8461
415 13.8649
420 13.3308
425 11.8794
430 11.6245
435 10.9472
440 10.8618
445 10.3326
450 9.34269
455 8.60745
460 7.63226
465 7.12402
470 6.51506
475 5.97629
480 5.64031
485 5.13633
490 4.62574
495 4.34923
500 3.90454
505 3.28764
510 2.99277
515 2.71584
520 2.48286
525 2.2235
530 1.95853
535 1.56353
540 1.23246
545 1.22414
550 1.0076
555 1.00885
560 0.710107
565 0.84247
570 0.607741
575 0.652817
580 0.499379
585 0.537091
590 0.30805
595 0.26344
600 0.271078
Ex : 343
200 0.132844
205 0.12695
210 0.172228
215 0.0840266
220 0.0885947
225 0.113701
230 0.0569469
235 0.0787619
240 0.118686
245 0.0933132
250 0.111953
255 0.178724
260 0.117423
265 0.134515
270 0.1827
275 0.09651
280 0.0914423
285 0.0676311
290 0.0990307
295 0.0751115
300 0.105948
305 0.118906
310 0.13232
315 0.159633
320 0.112901
325 0.310616
330 20.3073
335 321.348
340 465.294
345 113.223
350 15.025
355 4.02803
360 2.667
365 2.14688
370 3.2042
375 6.96549
380 9.1277
385 8.96494
390 10.1542
395 10.475
400 9.49421
405 9.94145
410 11.6588
415 12.1712
420 11.8278
425 10.434
430 9.74116
435 10.0137
440 9.3478
445 9.0716
450 7.94192
455 7.58307
460 6.69241
465 6.78931
470 6.04838
475 5.57037
480 5.16345
485 4.85552
490 4.31739
495 3.95009
500 3.37054
505 3.05591
510 2.70495
515 2.35425
520 2.11817
525 2.01801
530 1.79723
535 1.56842
540 1.2953
545 1.10884
550 1.0322
555 0.875505
560 0.711405
565 0.679618
570 0.620486
575 0.607378
580 0.362513
585 0.305778
590 0.286971
595 0.226941
600 0.239941
Ex : 348
200 0.0939202
205 0.106777
210 0.0682047
215 0.0844104
220 0.0814813
225 0.12882
230 0.0625046
235 0.08685
240 0.0623307
245 0.061133
250 0.117518
255 0.0907956
260 0.15469
265 0.0942926
270 0.0908167
275 0.110122
280 0.136096
285 0.0636475
290 0.190936
295 0.231297
300 0.129264
305 0.145018
310 0.100333
315 0.111358
320 0.134303
325 0.187425
330 0.337431
335 20.4747
340 328.161
345 501.938
350 130.884
355 17.0339
360 4.08389
365 2.31528
370 1.79198
375 2.42982
380 6.60632
385 11.953
390 13.3016
395 12.6021
400 11.19
405 11.4375
410 13.3933
415 15.3012
420 14.5633
425 12.3525
430 11.7076
435 11.6344
440 10.978
445 10.6246
450 9.37422
455 8.61024
460 7.25093
465 7.31684
470 6.50444
475 5.94761
480 5.76405
485 5.11191
490 4.64089
495 4.22967
500 3.94777
505 3.38571
510 2.92248
515 2.6277
520 2.35618
525 1.87274
530 1.75301
535 1.62125
540 1.28357
545 1.17103
550 1.27131
555 0.975009
560 0.914252
565 0.742016
570 0.7485
575 0.535858
580 0.339218
585 0.312838
590 0.259053
595 0.383382
600 0.874443
Ex : 353
200 0.0520492
205 0.129546
210 0.0848783
215 0.109651
220 0.0693264
225 0.0593195
230 0.107275
235 0.115325
240 0.175005
245 0.0795936
250 0.0649453
255 0.0605821
260 0.0498319
265 0.146344
270 0.14078
275 0.135823
280 0.102191
285 0.113822
290 0.0756122
295 0.0716698
300 0.122584
305 0.0720313
310 0.0710809
315 0.120089
320 0.0964691
325 0.16856
330 0.260281
335 0.525723
340 21.4685
345 343.82
350 501.225
355 123.937
360 16.0592
365 3.71901
370 2.29317
375 1.88976
380 3.01124
385 8.56248
390 15.1062
395 15.8899
400 14.3377
405 12.4266
410 13.8963
415 16.208
420 16.1019
425 14.3382
430 12.5674
435 12.4861
440 11.9463
445 11.6647
450 10.794
455 9.54518
460 8.47837
465 8.09476
470 7.86914
475 6.85615
480 5.9695
485 5.52149
490 4.9073
495 4.42009
500 4.23804
505 3.54305
510 3.37642
515 2.80685
520 2.56094
525 2.50499
530 1.79482
535 1.66866
540 1.59454
545 1.43549
550 1.23907
555 1.08559
560 0.862709
565 0.749925
570 0.723352
575 0.495331
580 0.447608
585 0.381019
590 0.266856
595 0.257121
600 0.321246
Ex : 358
200 0.0611574
205 0.0827112
210 0.0861932
215 0.0880525
220 0.107707
225 0.0929847
230 0.0505467
235 0.116344
240 0.0666591
245 0.0772005
250 0.0505127
255 0.0713971
260 0.0597548
265 0.142652
270 0.0982892
275 0.0621773
280 0.0909731
285 0.0761473
290 0.105777
295 0.0888913
300 0.127155
305 0.0934777
310 0.176716
315 0.0681622
320 0.0894073
325 0.155483
330 0.158959
335 0.2436
340 0.544069
345 21.0497
350 333.02
355 511.887
360 127.928
365 16.3876
370 3.47705
375 2.41172
380 3.08808
385 5.87328
390 10.9373
395 16.0942
400 14.6665
405 13.4198
410 13.9754
415 15.7605
420 14.5993
425 13.2649
430 12.3086
435 11.5389
440 11.4887
445 11.6611
450 10.13
455 9.24123
460 8.20686
465 7.90371
470 7.45684
475 7.04324
480 6.2738
485 5.79923
490 5.1744
495 4.68107
500 4.15624
505 3.98949
510 3.19887
515 3.15382
520 2.88276
525 2.63883
530 2.52229
535 1.83332
540 1.66593
545 1.50668
550 1.42244
555 1.24967
560 1.06011
565 0.927705
570 0.748862
575 0.689228
580 0.449322
585 0.400653
590 0.343973
595 0.333747
600 0.402887
Ex : 363
200 0.0821646
205 0.171513
210 0.1249
215 0.0771161
220 0.0994366
225 0.109666
230 0.0918379
235 0.0837117
240 0.0912987
245 0.091966
250 0.0626635
255 0.0793127
260 0.0715325
265 0.0538633
270 0.0744859
275 0.0812282
280 0.10985
285 0.180555
290 0.0890582
295 0.104328
300 0.145897
305 0.0595324
310 0.0814022
315 0.0738346
320 0.0594295
325 0.0867696
330 0.198
335 0.171898
340 0.282461
345 0.471441
350 19.9298
355 329.812
360 517.273
365 134.819
370 17.2894
375 3.58066
380 4.31094
385 7.38104
390 10.7952
395 12.5374
400 14.6892
405 16.1728
410 17.6674
415 17.9165
420 16.227
425 14.1707
430 13.4649
435 13.0732
440 13.4257
445 12.8695
450 11.339
455 10.1571
460 9.14705
465 8.84488
470 8.241
475 7.69058
480 6.9825
485 6.29795
490 5.94333
495 5.38944
500 4.77033
505 4.22579
510 3.80049
515 3.58274
520 2.97469
525 2.41459
530 2.29524
535 1.99405
540 1.56505
545 1.50915
550 1.50342
555 1.17364
560 1.10456
565 0.963677
570 0.893172
575 0.555328
580 0.44883
585 0.29716
590 0.252932
595 0.239633
600 0.853952
Ex : 368
200 0.0707672
205 0.0478382
210 0.0601744
215 0.0551432
220 0.0730127
225 0.073741
230 0.0881319
235 0.0739738
240 0.0961648
245 0.0944913
250 0.170163
255 0.092599
260 0.0752015
265 0.091363
270 0.072957
275 0.108152
280 0.121415
285 0.070867
290 0.0978141
295 0.131098
300 0.100064
305 0.0606862
310 0.0666676
315 0.0735458
320 0.0625459
325 0.0990113
330 0.11625
335 0.0985033
340 0.217695
345 0.30165
350 0.401198
355 16.1617
360 321.286
365 532.845
370 142.241
375 18.3721
380 5.5551
385 8.89679
390 13.4535
395 16.0489
400 15.1248
405 17.8095
410 22.6928
415 23.9179
420 21.7124
425 17.862
430 16.1198
435 15.9707
440 16.2518
445 15.573
450 13.6619
455 12.4499
460 11.0434
465 10.5668
470 9.80666
475 9.06504
480 8.34579
485 7.04215
490 6.38822
495 6.09695
500 5.41872
505 4.47932
510 4.27299
515 3.75395
520 3.44032
525 2.9702
530 2.43995
535 2.1714
540 1.8335
545 1.71394
550 1.61015
555 1.29799
560 1.14662
565 0.887587
570 0.792268
575 0.585086
580 0.515194
585 0.478142
590 0.354626
595 0.352556
600 0.554689
Ex : 373
200 0.0647639
205 0.0786253
210 0.0634098
215 0.0640795
220 0.0326493
225 0.104014
230 0.0752439
235 0.0554594
240 0.0507884
245 0.0911644
250 0.059989
255 0.0590655
260 0.0843226
265 0.0479485
270 0.13203
275 0.0963105
280 0.0702741
285 0.0694087
290 0.0803907
295 0.149628
300 0.107877
305 0.0727264
310 0.0792797
315 0.0665249
320 0.0825603
325 0.0606099
330 0.0596696
335 0.187106
340 0.213082
345 0.168032
350 0.336131
355 0.516525
360 19.4871
365 328.631
370 534.029
375 142.13
380 18.994
385 8.12488
390 13.5521
395 16.8277
400 15.0144
405 14.5485
410 18.4452
415 24.9356
420 23.4812
425 19.5516
430 16.1587
435 15.2601
440 15.7708
445 15.2994
450 13.9428
455 12.1726
460 10.9448
465 10.502
470 9.30319
475 8.97325
480 8.1501
485 7.46279
490 6.52852
495 5.98511
500 5.35261
505 4.95834
510 4.31941
515 3.90853
520 3.50427
525 3.02939
530 2.66049
535 2.23507
540 2.00761
545 1.89438
550 1.43865
555 1.31596
560 1.10523
565 1.0458
570 0.892624
575 0.678983
580 0.498264
585 0.361249
590 0.402584
595 0.244412
600 0.917904
Ex : 378
200 0.0485265
205 0.115957
210 0.0974287
215 0.071007
220 0.0752397
225 0.097482
230 0.0593574
235 0.0858094
240 0.0745638
245 0.0568602
250 0.0663883
255 0.0586092
260 0.0533534
265 0.0673016
270 0.032888
275 0.0648782
280 0.10586
285 0.0830343
290 0.0761961
295 0.0983383
300 0.0918263
305 0.0709965
310 0.0770608
315 0.0644589
320 0.0683464
325 0.0554003
330 0.0957475
335 0.0555341
340 0.0884015
345 0.107129
350 0.196539
355 0.280264
360 0.490211
365 18.2878
370 334.527
375 549.824
380 148.969
385 22.6882
390 11.8537
395 12.2603
400 11.3341
405 10.8585
410 13.0177
415 16.8409
420 19.2651
425 16.6509
430 14.0514
435 12.9893
440 12.7196
445 12.2748
450 11.2617
455 10.125
460 8.88655
465 8.63343
470 8.16552
475 8.00765
480 7.53181
485 6.59186
490 5.84075
495 5.31861
500 5.0531
505 4.51064
510 3.81751
515 3.54011
520 3.32234
525 2.78975
530 2.36472
535 2.27833
540 1.98766
545 1.90154
550 1.61752
555 1.36103
560 1.12036
565 0.980136
570 0.825724
575 0.609017
580 0.372822
585 0.431042
590 0.291652
595 0.216028
600 0.340822
Ex : 383
200 0.0568352
205 0.0421875
210 0.0238112
215 0.065836
220 0.0836259
225 0.083094
230 0.0763139
235 0.0849555
240 0.120715
245 0.0707544
250 0.0975019
255 0.0617308
260 0.0772579
265 0.0477953
270 0.0421227
275 0.0808681
280 0.153213
285 0.0436031
290 0.0747009
295 0.051566
300 0.0499895
305 0.114001
310 0.100193
315 0.0625769
320 0.0517157
325 0.0367066
330 0.0899768
335 0.0802508
340 0.0869722
345 0.13902
350 0.197653
355 0.153514
360 0.36518
365 0.607875
370 17.0455
375 333.604
380 575.699
385 160.417
390 27.9592
395 12.3894
400 10.1444
405 11.4272
410 13.5279
415 15.566
420 15.0187
425 15.8878
430 15.1959
435 14.3626
440 13.3599
445 12.9731
450 11.3611
455 9.56545
460 9.3308
465 8.64515
470 8.27988
475 8.10345
480 7.34359
485 6.72881
490 6.25314
495 5.64883
500 5.34952
505 4.54048
510 4.34309
515 3.64882
520 3.29438
525 2.88532
530 2.7262
535 2.36315
540 2.20354
545 1.84327
550 1.62732
555 1.41344
560 1.31416
565 1.16595
570 0.739957
575 0.591777
580 0.429029
585 0.521022
590 0.343307
595 0.315676
600 1.07334
Ex : 388
200 0.0437732
205 0.0995075
210 0.102665
215 0.0942088
220 0.0415542
225 0.0498651
230 0.0614983
235 0.0471739
240 0.037741
245 0.0294554
250 0.0517329
255 0.0844941
260 0.0427088
265 0.045996
270 0.0753637
275 0.0573869
280 0.107222
285 0.0610455
290 0.0961733
295 0.0650374
300 0.116752
305 0.0782721
310 0.0651022
315 0.0625446
320 0.109774
325 0.0535146
330 0.0923141
335 0.081162
340 0.0930725
345 0.0941024
350 0.103993
355 0.13
360 0.19864
365 0.271311
370 0.547279
375 19.5168
380 351.494
385 585.388
390 165.732
395 31.5669
400 14.5444
405 13.6079
410 16.586
415 19.1321
420 17.7777
425 16.3524
430 16.2823
435 17.4616
440 16.7336
445 15.5153
450 13.5011
455 11.5672
460 10.4216
465 9.78511
470 9.49496
475 8.77137
480 8.09254
485 7.37212
490 6.56372
495 6.15292
500 5.64228
505 5.14841
510 4.45338
515 3.92769
520 3.63066
525 3.26556
530 2.76944
535 2.54613
540 2.20639
545 1.81813
550 1.53846
555 1.47438
560 1.28097
565 1.17217
570 0.823516
575 0.659782
580 0.50966
585 0.384757
590 0.343508
595 0.241093
600 0.0274355
Ex : 393
200 0.0573658
205 0.066736
210 0.0840122
215 0.0666929
220 0.0626698
225 0.0722824
230 0.0737335
235 0.0600372
240 0.0605692
245 0.088033
250 0.0509605
255 0.0779745
260 0.100359
265 0.152825
270 0.0521409
275 0.0656338
280 0.0377749
285 0.0830945
290 0.0567874
295 0.0314859
300 0.0403065
305 0.0662729
310 0.117087
315 0.100918
320 0.0729994
325 0.0546565
330 0.0756716
335 0.0913153
340 0.138708
345 0.0886514
350 0.10229
355 0.117832
360 0.131229
365 0.170209
370 0.306287
375 0.658371
380 17.2998
385 346.988
390 601.88
395 173.635
400 33.0253
405 14.9021
410 15.4024
415 19.704
420 19.7599
425 16.3663
430 13.9879
435 14.7479
440 17.3919
445 16.7634
450 14.1296
455 11.6897
460 10.0394
465 9.15789
470 8.80408
475 8.48972
480 7.51112
485 6.93487
490 6.39471
495 5.51692
500 5.17168
505 4.88695
510 4.4041
515 3.86093
520 3.43787
525 3.10122
530 2.77617
535 2.45217
540 2.2361
545 1.78962
550 1.76845
555 1.50422
560 1.2278
565 1.11507
570 0.861617
575 0.639049
580 0.464195
585 0.412196
590 0.408185
595 0.245539
600 0.0406925
Ex : 398
200 0.104579
205 0.0932993
210 0.075794
215 0.0796715
220 0.0712434
225 0.0853037
230 0.0509141
235 0.0418489
240 0.0788711
245 0.101739
250 0.0607103
255 0.0612898
260 0.0692779
265 0.0814016
270 0.0351595
275 0.0318981
280 0.0818647
285 0.10817
290 0.0493577
295 0.068467
300 0.0509129
305 0.0681535
310 0.0703588
315 0.0523421
320 0.0399437
325 0.0602988
330 0.0400086
335 0.107807
340 0.0950286
345 0.0742537
350 0.0798068
355 0.0588424
360 0.100927
365 0.145212
370 0.171692
375 0.287499
380 0.678008
385 19.1601
390 362.603
395 622.064
400 172.569
405 26.8368
410 11.1848
415 12.4745
420 13.2089
425 10.8056
430 9.0956
435 8.65586
440 10.0268
445 12.4443
450 11.7207
455 9.2154
460 8.08543
465 7.31703
470 6.79129
475 6.8334
480 6.20815
485 5.52481
490 5.12686
495 4.71193
500 4.61922
505 4.13064
510 3.88833
515 3.57565
520 3.06166
525 2.80778
530 2.54624
535 2.28015
540 2.19125
545 1.86682
550 1.59545
555 1.26684
560 1.23487
565 0.958729
570 0.853257
575 0.752528
580 0.508363
585 0.429418
590 0.413829
595 0.215415
600 0.0635665
Ex : 403
200 0.0516003
205 0.0409294
210 0.0542757
215 0.0438965
220 0.0604331
225 0.0353583
230 0.0579313
235 0.0854676
240 0.0509532
245 0.0612043
250 0.0573719
255 0.0724832
260 0.0829603
265 0.0491669
270 0.0744434
275 0.0829759
280 0.0501798
285 0.0687136
290 0.0647262
295 0.0750086
300 0.0737737
305 0.0756124
310 0.0420653
315 0.0388128
320 0.0820203
325 0.0924152
330 0.0847958
335 0.0984733
340 0.0681668
345 0.08547
350 0.0905026
355 0.142512
360 0.17201
365 0.121731
370 0.131945
375 0.143722
380 0.39647
385 0.845152
390 21.1813
395 367.144
400 609.817
405 168.114
410 23.8415
415 8.65602
420 6.9661
425 6.37619
430 5.71269
435 5.58772
440 5.99045
445 6.88078
450 8.5039
455 8.52088
460 7.15712
465 6.41316
470 5.85208
475 5.45926
480 5.23047
485 4.69508
490 4.63593
495 4.43167
500 4.11159
505 3.77227
510 3.38156
515 3.16321
520 3.06736
525 2.57172
530 2.441
535 2.14638
540 1.97454
545 1.65778
550 1.52269
555 1.28386
560 1.21497
565 0.941413
570 0.712764
575 0.712243
580 0.506556
585 0.460013
590 0.33508
595 0.196961
600 0.0224135
Ex : 408
200 0.0469629
205 0.0385005
210 0.0303397
215 0.0668095
220 0.0973264
225 0.0640471
230 0.0697433
235 0.0568961
240 0.0641539
245 0.0406039
250 0.0267666
255 0.0535662
260 0.0631164
265 0.0690629
270 0.067651
275 0.0526145
280 0.0372523
285 0.0615724
290 0.0662705
295 0.0812226
300 0.0566199
305 0.0519601
310 0.0960806
315 0.0415971
320 0.0464067
325 0.0859635
330 0.0400262
335 0.10434
340 0.0928067
345 0.0908742
350 0.11762
355 0.139188
360 0.0969959
365 0.106675
370 0.17967
375 0.162137
380 0.262305
385 0.347321
390 0.819103
395 19.7756
400 373.327
405 615.932
410 164.198
415 23.8994
420 7.99484
425 5.87964
430 5.52542
435 5.71155
440 5.71529
445 6.35708
450 6.32922
455 7.5716
460 8.42211
465 7.19097
470 6.69439
475 6.0263
480 5.55494
485 5.10905
490 4.60623
495 4.47792
500 4.21193
505 3.74915
510 3.50826
515 3.18158
520 2.86234
525 2.70862
530 2.40401
535 2.06365
540 1.85505
545 1.81065
550 1.68431
555 1.29348
560 1.21823
565 1.11928
570 0.777976
575 0.578406
580 0.452203
585 0.330762
590 0.338767
595 0.27066
600 0.394294
Ex : 413
200 0.060864
205 0.0652775
210 0.0489878
215 0.0536197
220 0.0406181
225 0.0670279
230 0.0372079
235 0.0594177
240 0.0758319
245 0.0530749
250 0.0598884
255 0.0682661
260 0.0817137
265 0.0394885
270 0.0427012
275 0.0841638
280 0.0314521
285 0.0352953
290 0.0624897
295 0.0778853
300 0.0587341
305 0.0516874
310 0.0538863
315 0.0551761
320 0.045896
325 0.0639527
330 0.0836745
335 0.116156
340 0.067745
345 0.0408249
350 0.0900809
355 0.083701
360 0.0657432
365 0.081024
370 0.122769
375 0.100132
380 0.152761
385 0.219627
390 0.356161
395 0.678916
400 21.5209
405 387.085
410 628.549
415 163.715
420 23.6916
425 7.09694
430 5.05795
435 5.27738
440 5.72158
445 5.80133
450 5.52218
455 5.37172
460 6.05907
465 7.51838
470 6.85361
475 6.17071
480 5.54348
485 4.82824
490 4.34596
495 4.11129
500 3.49436
505 3.59042
510 3.34208
515 3.19029
520 2.78647
525 2.52473
530 2.37155
535 2.01961
540 1.7748
545 1.67671
550 1.51757
555 1.30583
560 1.11886
565 0.913133
570 0.860973
575 0.648194
580 0.554773
585 0.356117
590 0.331173
595 0.304326
600 0.0346311
Ex : 418
200 0.0602635
205 0.0352415
210 0.0415625
215 0.0456715
220 0.0620025
225 0.0517985
230 0.127699
235 0.0539528
240 0.0666452
245 0.048956
250 0.0786614
255 0.0926745
260 0.0509424
265 0.036392
270 0.0557546
275 0.0511448
280 0.0498185
285 0.105192
290 0.0521825
295 0.0624699
300 0.0650624
305 0.0817632
310 0.033186
315 0.0508565
320 0.078129
325 0.0873252
330 0.0534349
335 0.11501
340 0.1094
345 0.0647972
350 0.0931602
355 0.0601001
360 0.0699841
365 0.0833407
370 0.0917075
375 0.0986799
380 0.112421
385 0.186912
390 0.170541
395 0.388332
400 0.731905
405 20.6853
410 382.251
415 626.797
420 169.414
425 22.6248
430 5.28882
435 3.52439
440 3.81105
445 3.94368
450 3.53425
455 3.36709
460 3.43474
465 4.05539
470 5.69163
475 5.66778
480 4.76638
485 4.31209
490 3.82092
495 3.37578
500 3.13703
505 3.12856
510 2.81966
515 2.71295
520 2.44067
525 2.22478
530 1.95703
535 1.69251
540 1.64845
545 1.53663
550 1.42812
555 1.17793
560 1.15758
565 0.940666
570 0.725393
575 0.621364
580 0.397805
585 0.370268
590 0.281585
595 0.265413
600 0.030203
Ex : 423
200 0.0307096
205 0.0394945
210 0.0531102
215 0.0579733
220 0.0500249
225 0.0367899
230 0.0566333
235 0.0585215
240 0.0432606
245 0.0571141
250 0.0353122
255 0.0881319
260 0.0621546
265 0.0568167
270 0.0339328
275 0.0625185
280 0.0633724
285 0.0408922
290 0.0794429
295 0.0661405
300 0.0529267
305 0.0834804
310 0.0914394
315 0.0610576
320 0.0600815
325 0.081749
330 0.0610114
335 0.0763046
340 0.0824816
345 0.0670293
350 0.0428918
355 0.105984
360 0.0859398
365 0.0783965
370 0.0836906
375 0.093334
380 0.107059
385 0.170036
390 0.187389
395 0.222199
400 0.348901
405 0.703699
410 20.8538
415 400.382
420 633.912
425 162.675
430 20.5854
435 4.07884
440 2.18196
445 2.32346
450 2.49801
455 2.11841
460 2.09978
465 2.13897
470 2.60267
475 4.25645
480 5.04408
485 3.8953
490 3.59942
495 3.08141
500 2.74664
505 2.70341
510 2.57399
515 2.44277
520 2.09481
525 2.07438
530 1.75694
535 1.82237
540 1.46074
545 1.37983
550 1.25556
555 1.11051
560 0.983703
565 0.806279
570 0.712794
575 0.613752
580 0.393834
585 0.387241
590 0.292856
595 0.221233
600 0.280031
Ex : 428
200 0.0259125
205 0.0705849
210 0.0592286
215 0.0412074
220 0.0367904
225 0.0594684
230 0.0419211
235 0.122168
240 0.0900062
245 0.0548911
250 0.0478896
255 0.0631886
260 0.0524613
265 0.0725747
270 0.0853936
275 0.0857586
280 0.0919593
285 0.0932643
290 0.0542987
295 0.0277194
300 0.0786855
305 0.0624149
310 0.0338177
315 0.0237384
320 0.0532649
325 0.0541154
330 0.0735812
335 0.0658613
340 0.0918918
345 0.0739689
350 0.0705464
355 0.101931
360 0.0742767
365 0.10208
370 0.100693
375 0.0991392
380 0.0976366
385 0.128001
390 0.146244
395 0.120054
400 0.169268
405 0.328956
410 0.766562
415 23.2026
420 401.941
425 637.866
430 165.591
435 20.5349
440 3.5491
445 1.7357
450 1.73745
455 1.64373
460 1.5305
465 1.50738
470 1.75999
475 1.91367
480 3.16815
485 4.54317
490 3.8561
495 3.10053
500 2.96152
505 2.46452
510 2.31458
515 2.06765
520 2.01628
525 1.83933
530 1.71888
535 1.63357
540 1.43423
545 1.37768
550 1.16938
555 1.06631
560 1.0423
565 0.8401
570 0.643137
575 0.522676
580 0.500206
585 0.338246
590 0.291794
595 0.280607
600 0.207999
Ex : 433
200 0.0362267
205 0.0780145
210 0.0580635
215 0.0758488
220 0.0414985
225 0.0581553
230 0.0405834
235 0.0858279
240 0.0557076
245 0.0936592
250 0.0933457
255 0.0469674
260 0.0492976
265 0.0382093
270 0.0784669
275 0.0455052
280 0.058426
285 0.0480206
290 0.071104
295 0.0618502
300 0.083277
305 0.0650069
310 0.0650269
315 0.0924828
320 0.0802917
325 0.0792947
330 0.0462444
335 0.0555775
340 0.0813637
345 0.073846
350 0.0477048
355 0.0715495
360 0.0795906
365 0.0548077
370 0.0698684
375 0.0967349
380 0.0986141
385 0.137478
390 0.1453
395 0.136681
400 0.202232
405 0.223186
410 0.386307
415 0.68505
420 26.3202
425 437.888
430 658.663
435 163.51
440 20.1295
445 3.46288
450 1.45002
455 1.58036
460 1.76157
465 1.65504
470 1.50273
475 1.74913
480 1.81955
485 2.67125
490 4.37679
495 3.89638
500 2.92287
505 2.62499
510 2.25257
515 2.03814
520 1.77042
525 1.79855
530 1.59373
535 1.56012
540 1.31414
545 1.24987
550 1.16013
555 1.00435
560 0.894512
565 0.768839
570 0.69651
575 0.610612
580 0.416183
585 0.348821
590 0.236748
595 0.170482
600 0.122791
Ex : 438
200 0.0836229
205 0.0503548
210 0.0485928
215 0.077298
220 0.0448213
225 0.0630292
230 0.0425667
235 0.0757121
240 0.0575546
245 0.0764628
250 0.0485558
255 0.0428289
260 0.04255
265 0.0521932
270 0.0922712
275 0.0458779
280 0.0591101
285 0.0567171
290 0.0307822
295 0.0524262
300 0.0561603
305 0.0560154
310 0.104267
315 0.0616902
320 0.0475436
325 0.0932189
330 0.0735945
335 0.0801285
340 0.0809669
345 0.0677473
350 0.0593192
355 0.0526372
360 0.0499304
365 0.0749884
370 0.101295
375 0.0824993
380 0.0736499
385 0.139207
390 0.113855
395 0.134045
400 0.167465
405 0.176285
410 0.230089
415 0.369312
420 0.626315
425 25.5702
430 433.749
435 697.352
440 173.669
445 21.2044
450 3.48185
455 1.53148
460 1.57567
465 1.72724
470 1.52558
475 1.40818
480 1.53571
485 1.77228
490 2.17968
495 3.76091
500 3.6856
505 2.83567
510 2.53679
515 2.39429
520 1.73902
525 1.6114
530 1.54144
535 1.34976
540 1.35326
545 1.22789
550 1.0501
555 0.998282
560 0.886678
565 0.762341
570 0.686042
575 0.639533
580 0.497761
585 0.369015
590 0.284406
595 0.263903
600 0.378078
Ex : 443
200 0.0339771
205 0.0381945
210 0.0753197
215 0.0340842
220 0.056213
225 0.0784511
230 0.0456778
235 0.0722817
240 0.0367713
245 0.0870637
250 0.0720333
255 0.0576974
260 0.0640561
265 0.057003
270 0.0489216
275 0.0754612
280 0.0445106
285 0.0509949
290 0.0406666
295 0.0752418
300 0.0826803
305 0.0442706
310 0.0497956
315 0.0486903
320 0.0580349
325 0.0719862
330 0.0427819
335 0.0496176
340 0.094916
345 0.11209
350 0.1166
355 0.0789422
360 0.0456925
365 0.121702
370 0.154444
375 0.079124
380 0.104762
385 0.147206
390 0.0928196
395 0.0903074
400 0.11973
405 0.184095
410 0.213534
415 0.258904
420 0.395252
425 0.628812
430 27.7165
435 461.96
440 701.127
445 174.195
450 21.4322
455 3.71518
460 1.40525
465 1.40455
470 1.67824
475 1.61625
480 1.48926
485 1.64025
490 1.66371
495 1.74517
500 3.20437
505 3.79512
510 2.77437
515 2.38217
520 2.16637
525 1.79311
530 1.54121
535 1.32288
540 1.26871
545 1.14328
550 1.09841
555 0.974264
560 0.905916
565 0.790113
570 0.624913
575 0.544021
580 0.410893
585 0.391381
590 0.260172
595 0.279286
600 0.0627989
Ex : 448
200 0.0667356
205 0.0637255
210 0.0556949
215 0.0893235
220 0.102095
225 0.051232
230 0.0710164
235 0.0526894
240 0.0520722
245 0.056515
250 0.0748409
255 0.110538
260 0.0837619
265 0.0798519
270 0.064479
275 0.0620738
280 0.106655
285 0.0674272
290 0.07403
295 0.0648411
300 0.0531911
305 0.0545244
310 0.0351382
315 0.0456538
320 0.0476456
325 0.118264
330 0.0508972
335 0.0666416
340 0.0606092
345 0.0504377
350 0.0638618
355 0.0538497
360 0.0943588
365 0.0515488
370 0.0837097
375 0.0678709
380 0.0643456
385 0.0683736
390 0.128778
395 0.120338
400 0.110151
405 0.133126
410 0.181175
415 0.186683
420 0.251045
425 0.375922
430 0.715932
435 28.8609
440 492.92
445 748.27
450 186.037
455 22.8537
460 3.9216
465 1.72297
470 1.61398
475 1.60098
480 1.50618
485 1.3211
490 1.37623
495 1.38732
500 1.49759
505 2.2861
510 3.54482
515 2.86513
520 2.21835
525 2.01818
530 1.73235
535 1.34716
540 1.23834
545 1.08613
550 1.01051
555 0.942601
560 0.705331
565 0.777288
570 0.641452
575 0.598951
580 0.467507
585 0.397059
590 0.302333
595 0.24014
600 0.157738
Ex : 453
200 0.0729472
205 0.0334526
210 0.0883889
215 0.0635078
220 0.0964308
225 0.0589234
230 0.0705405
235 0.0690323
240 0.0966102
245 0.0688717
250 0.0484735
255 0.0426064
260 0.0645955
265 0.0379233
270 0.0288369
275 0.024187
280 0.102074
285 0.0744613
290 0.048532
295 0.033653
300 0.115022
305 0.0571182
310 0.0549141
315 0.058855
320 0.0640593
325 0.0671801
330 0.0696365
335 0.0719131
340 0.0453753
345 0.0962266
350 0.0649376
355 0.0425968
360 0.0924607
365 0.0688281
370 0.06988
375 0.0973144
380 0.0809843
385 0.0516994
390 0.155571
395 0.0754381
400 0.0848416
405 0.0788673
410 0.112295
415 0.133184
420 0.200101
425 0.277123
430 0.427487
435 0.604822
440 29.8456
445 532.832
450 777.138
455 182.385
460 22.5178
465 4.00347
470 1.5961
475 1.35988
480 1.78818
485 1.55666
490 1.36305
495 1.37802
500 1.22434
505 1.39705
510 1.83222
515 3.25027
520 3.18163
525 2.20334
530 1.59641
535 1.70347
540 1.33458
545 1.08872
550 1.09129
555 0.932022
560 0.888997
565 0.747604
570 0.602961
575 0.530038
580 0.447378
585 0.383045
590 0.296502
595 0.291348
600 0.0994125
Ex : 458
200 0.0495836
205 0.0601695
210 0.0474581
215 0.055888
220 0.0608387
225 0.0816154
230 0.0457996
235 0.0474351
240 0.103641
245 0.0889005
250 0.0437672
255 0.0701129
260 0.0646084
265 0.0701601
270 0.0279856
275 0.0495525
280 0.0677071
285 0.0358711
290 0.0546249
295 0.0222985
300 0.0454699
305 0.0412835
310 0.0812851
315 0.0484919
320 0.0667103
325 0.0641221
330 0.109345
335 0.0652121
340 0.0510149
345 0.0619982
350 0.0383264
355 0.0381301
360 0.0710359
365 0.145239
370 0.14099
375 0.059679
380 0.0478896
385 0.144621
390 0.118368
395 0.0981769
400 0.105854
405 0.145156
410 0.101295
415 0.16273
420 0.0960617
425 0.181668
430 0.248836
435 0.388749
440 0.783481
445 33.3163
450 549.248
455 822.059
460 198.719
465 24.4132
470 4.14755
475 1.73669
480 1.4235
485 1.52047
490 1.36645
495 1.335
500 1.14568
505 1.16563
510 1.1507
515 1.48924
520 2.59779
525 3.21014
530 2.29846
535 1.61124
540 1.59178
545 1.21792
550 0.963012
555 1.04898
560 0.896415
565 0.73519
570 0.65562
575 0.484181
580 0.394914
585 0.381072
590 0.256706
595 0.253834
600 0.259068
Ex : 463
200 0.0331323
205 0.027671
210 0.0378676
215 0.0343148
220 0.084416
225 0.0614568
230 0.0431798
235 0.0361664
240 0.058893
245 0.0782913
250 0.0851537
255 0.0598637
260 0.0441514
265 0.0848578
270 0.0722708
275 0.0708771
280 0.071866
285 0.0574726
290 0.101463
295 0.074662
300 0.0828535
305 0.0749163
310 0.0542907
315 0.0514979
320 0.0512566
325 0.0739326
330 0.051429
335 0.0594738
340 0.0741359
345 0.0745943
350 0.0369734
355 0.0620528
360 0.104641
365 0.0728088
370 0.082943
375 0.0658263
380 0.0802457
385 0.0801939
390 0.0977913
395 0.0701826
400 0.0599411
405 0.088237
410 0.104806
415 0.120969
420 0.128691
425 0.127052
430 0.187545
435 0.273486
440 0.388335
445 0.774653
450 33.0189
455 577.647
460 881.594
465 213.354
470 26.2427
475 4.46845
480 1.62607
485 1.31157
490 1.49316
495 1.52563
500 1.33065
505 1.17577
510 1.09879
515 1.05678
520 1.27783
525 2.05743
530 2.99609
535 2.39584
540 1.70784
545 1.50077
550 1.30988
555 1.19372
560 0.93206
565 0.73001
570 0.602441
575 0.533251
580 0.465867
585 0.384878
590 0.284845
595 0.266906
600 0.0844097
Ex : 468
200 0.0788908
205 0.0486218
210 0.0613048
215 0.0398974
220 0.050867
225 0.0740249
230 0.0641804
235 0.0992406
240 0.0527089
245 0.0771264
250 0.0639684
255 0.0743095
260 0.049803
265 0.086775
270 0.0858995
275 0.0453296
280 0.0472066
285 0.0906561
290 0.0664801
295 0.0975952
300 0.0630992
305 0.069167
310 0.0503804
315 0.061356
320 0.0701913
325 0.0517342
330 0.0858945
335 0.0828266
340 0.0559123
345 0.0681516
350 0.0710515
355 0.0781173
360 0.113549
365 0.0822906
370 0.101642
375 0.0819517
380 0.132349
385 0.0870821
390 0.0893672
395 0.0650127
400 0.0743538
405 0.137296
410 0.0906338
415 0.121169
420 0.107657
425 0.13988
430 0.127298
435 0.152011
440 0.302028
445 0.515861
450 0.730006
455 36.6146
460 584.674
465 926.119
470 224.019
475 27.1296
480 4.38259
485 1.59927
490 1.26125
495 1.41918
500 1.3844
505 1.25325
510 1.20666
515 1.10191
520 1.09186
525 1.19098
530 1.60208
535 2.55003
540 2.5621
545 1.65579
550 1.34447
555 1.36597
560 1.08237
565 0.937138
570 0.670156
575 0.598498
580 0.441009
585 0.399649
590 0.3333
595 0.29251
600 0.265733
Ex : 473
200 0.0747138
205 0.0831888
210 0.0765929
215 0.0445409
220 0.043949
225 0.10137
230 0.0504345
235 0.0477086
240 0.0458891
245 0.0513682
250 0.0754758
255 0.0681223
260 0.123124
265 0.0530758
270 0.0606529
275 0.0827868
280 0.064567
285 0.0645358
290 0.0292946
295 0.0603677
300 0.0409308
305 0.0486988
310 0.0969887
315 0.0547887
320 0.0618031
325 0.0686798
330 0.0588063
335 0.0422525
340 0.0737624
345 0.0467342
350 0.078603
355 0.0714409
360 0.0837798
365 0.0718961
370 0.068452
375 0.157432
380 0.106297
385 0.0880757
390 0.0762569
395 0.13208
400 0.0683997
405 0.0775894
410 0.11897
415 0.122316
420 0.110055
425 0.108697
430 0.143472
435 0.141506
440 0.242225
445 0.267778
450 0.506486
455 0.805853
460 43.4379
465 669.423
470 938.14
475 216.54
480 26.2227
485 4.31191
490 1.54297
495 1.19585
500 1.33382
505 1.40379
510 1.2132
515 1.04532
520 1.09421
525 1.04913
530 1.21804
535 1.28009
540 2.19299
545 2.57096
550 1.73714
555 1.19989
560 1.19693
565 1.09279
570 0.755328
575 0.497232
580 0.51712
585 0.453933
590 0.370021
595 0.251723
600 0.315509
Ex : 478
200 0.0754591
205 0.0584434
210 0.0753718
215 0.0782684
220 0.117399
225 0.0678074
230 0.0624934
235 0.0784394
240 0.0794922
245 0.0543741
250 0.0549373
255 0.0597327
260 0.107233
265 0.0504524
270 0.0460774
275 0.0395466
280 0.0595106
285 0.0712975
290 0.0622996
295 0.0587723
300 0.0490269
305 0.0735074
310 0.0587343
315 0.108529
320 0.053055
325 0.0621545
330 0.107365
335 0.0857827
340 0.0658694
345 0.0924506
350 0.105439
355 0.110268
360 0.109626
365 0.0807877
370 0.107404
375 0.119918
380 0.0951174
385 0.110844
390 0.0832757
395 0.0808701
400 0.106493
405 0.172934
410 0.141556
415 0.126606
420 0.116103
425 0.167008
430 0.133409
435 0.155053
440 0.180493
445 0.19183
450 0.347264
455 0.559364
460 1.08691
465 48.7244
470 694.024
475 965.383
480 230.672
485 27.9531
490 4.40653
495 1.55077
500 1.10151
505 1.13153
510 1.28434
515 1.24297
520 1.06092
525 1.14336
530 1.03334
535 1.07211
540 1.13085
545 1.57912
550 2.40555
555 1.94025
560 1.24839
565 1.12845
570 0.941163
575 0.671311
580 0.519495
585 0.386415
590 0.315945
595 0.32683
600 0.580148
Ex : 483
200 0.0841168
205 0.148517
210 0.116054
215 0.0775562
220 0.0656986
225 0.0651468
230 0.0593026
235 0.0487199
240 0.0595611
245 0.095869
250 0.0494913
255 0.0731346
260 0.0898158
265 0.153929
270 0.0836096
275 0.0464212
280 0.0899258
285 0.0945667
290 0.0693649
295 0.121062
300 0.0792028
305 0.0601642
310 0.0532786
315 0.0678979
320 0.0657526
325 0.0746168
330 0.0620317
335 0.0690106
340 0.0736951
345 0.0416023
350 0.0859873
355 0.123877
360 0.0553944
365 0.0608336
370 0.0659096
375 0.0745576
380 0.0694145
385 0.0956959
390 0.0910919
395 0.130552
400 0.0918982
405 0.123352
410 0.100375
415 0.113578
420 0.0915224
425 0.0952878
430 0.0861252
435 0.159001
440 0.168237
445 0.152131
450 0.268678
455 0.334281
460 0.628621
465 1.06406
470 37.1589
475 690.691
480 1058.39
485 254.703
490 30.7206
495 4.71381
500 1.71888
505 1.08093
510 1.08254
515 1.2683
520 1.16565
525 1.15161
530 1.12432
535 0.992241
540 0.977899
545 1.01253
550 1.09399
555 1.9054
560 2.07833
565 1.2602
570 0.90402
575 0.715537
580 0.582994
585 0.463741
590 0.339197
595 0.337857
600 0.501481
Ex : 488
200 0.0458924
205 0.0837704
210 0.0714748
215 0.0663537
220 0.117552
225 0.0706171
230 0.0716528
235 0.0661298
240 0.0773263
245 0.0783088
250 0.087714
255 0.0601071
260 0.0645686
265 0.0900005
270 0.0544136
275 0.134319
280 0.092886
285 0.0533259
290 0.0599651
295 0.0870844
300 0.0907848
305 0.126802
310 0.0931669
315 0.0659184
320 0.0887033
325 0.0871801
330 0.100631
335 0.123064
340 0.096272
345 0.0515076
350 0.103219
355 0.0677665
360 0.0545124
365 0.0796041
370 0.0827723
375 0.0766732
380 0.121299
385 0.0833915
390 0.135985
395 0.118406
400 0.0941273
405 0.0834368
410 0.180607
415 0.0967131
420 0.16159
425 0.103987
430 0.131222
435 0.137173
440 0.147981
445 0.221248
450 0.172094
455 0.31136
460 0.464852
465 0.686251
470 1.09772
475 48.2433
480 765.371
485 1082.35
490 253.153
495 30.6394
500 4.65828
505 1.51209
510 1.01031
515 1.05477
520 1.24994
525 1.27202
530 1.1018
535 1.07003
540 0.921878
545 0.894551
550 0.923748
555 0.911321
560 1.46043
565 1.68377
570 1.26037
575 0.800916
580 0.642121
585 0.534869
590 0.4478
595 0.330242
600 0.487499
Ex : 493
200 0.0489404
205 0.0393088
210 0.0460718
215 0.110918
220 0.0585709
225 0.0783286
230 0.0957582
235 0.0635092
240 0.0480853
245 0.0633691
250 0.0628692
255 0.0754043
260 0.077623
265 0.0749618
270 0.130169
275 0.0563836
280 0.0833229
285 0.0392224
290 0.0307807
295 0.11907
300 0.0613265
305 0.0528556
310 0.145087
315 0.155053
320 0.081123
325 0.116382
330 0.119799
335 0.0809097
340 0.105982
345 0.0619772
350 0.0651948
355 0.148621
360 0.0996334
365 0.110199
370 0.0634411
375 0.0836714
380 0.101487
385 0.140857
390 0.0843411
395 0.0939141
400 0.108513
405 0.103018
410 0.168117
415 0.0906212
420 0.106798
425 0.0981085
430 0.180221
435 0.134787
440 0.0698998
445 0.17496
450 0.166283
455 0.169434
460 0.257027
465 0.416671
470 0.566314
475 1.1323
480 44.8975
485 762.203
490 1137.6
495 260.19
500 31.2346
505 4.77899
510 1.66862
515 1.05445
520 1.1545
525 1.28215
530 1.29977
535 1.13404
540 0.993866
545 0.877922
550 0.943222
555 0.719406
560 0.823688
565 1.09332
570 1.48056
575 1.26093
580 0.736684
585 0.490767
590 0.521742
595 0.41244
600 0.0972865
Ex : 498
200 0.072343
205 0.167003
210 0.107545
215 0.0728727
220 0.0894933
225 0.102405
230 0.0682043
235 0.0680733
240 0.0889641
245 0.130776
250 0.0677949
255 0.0777575
260 0.099368
265 0.0703642
270 0.130481
275 0.135501
280 0.0885175
285 0.073253
290 0.13347
295 0.0505264
300 0.0843868
305 0.105727
310 0.0640621
315 0.103951
320 0.106989
325 0.0814677
330 0.0757001
335 0.0928334
340 0.0525235
345 0.0792118
350 0.0695097
355 0.0717123
360 0.105733
365 0.127922
370 0.0627057
375 0.103352
380 0.0682213
385 0.0582309
390 0.168318
395 0.102155
400 0.152701
405 0.139492
410 0.16015
415 0.0963797
420 0.140403
425 0.121702
430 0.135944
435 0.152089
440 0.0934473
445 0.149112
450 0.20671
455 0.200976
460 0.228126
465 0.304836
470 0.435347
475 0.641201
480 1.162
485 53.7376
490 814.178
495 1119.94
500 260.383
505 31.4599
510 4.81371
515 1.54285
520 1.15341
525 1.20879
530 1.41608
535 1.10213
540 1.02771
545 0.984211
550 0.706595
555 0.687475
560 0.666237
565 0.711932
570 0.785003
575 1.19265
580 1.0946
585 0.641758
590 0.497474
595 0.332108
600 0.506959
Ex : 503
200 0.0609564
205 0.0757124
210 0.134049
215 0.105354
220 0.0501688
225 0.0457305
230 0.114489
235 0.0868083
240 0.0538936
245 0.118709
250 0.0422325
255 0.088771
260 0.112672
265 0.101
270 0.0771243
275 0.0992684
280 0.0639051
285 0.0993795
290 0.0870304
295 0.0746885
300 0.0804195
305 0.08343
310 0.0904426
315 0.0673301
320 0.162357
325 0.0928411
330 0.0928755
335 0.0642102
340 0.0427814
345 0.0735597
350 0.0885413
355 0.125464
360 0.154244
365 0.137954
370 0.140717
375 0.096637
380 0.110745
385 0.163016
390 0.110185
395 0.167409
400 0.117403
405 0.122977
410 0.165033
415 0.149068
420 0.0962022
425 0.101367
430 0.0843152
435 0.138231
440 0.128547
445 0.191906
450 0.131068
455 0.168785
460 0.191882
465 0.279075
470 0.307239
475 0.478865
480 0.765504
485 1.12141
490 49.8836
495 817.533
500 1163.15
505 268.801
510 32.3997
515 4.82164
520 1.67232
525 1.19528
530 0.988068
535 1.00735
540 1.04085
545 0.996961
550 0.773512
555 0.656432
560 0.680639
565 0.701082
570 0.5251
575 0.499806
580 0.710983
585 0.948081
590 0.742863
595 0.479967
600 0.16393
Ex : 508
200 0.12145
205 0.0944021
210 0.0931104
215 0.110576
220 0.0976346
225 0.0696224
230 0.112217
235 0.133709
240 0.083698
245 0.149655
250 0.104285
255 0.100014
260 0.0758165
265 0.115815
270 0.0803599
275 0.098183
280 0.136871
285 0.100087
290 0.12591
295 0.112473
300 0.087873
305 0.0673405
310 0.0926602
315 0.135201
320 0.142262
325 0.0831598
330 0.0905328
335 0.072763
340 0.0890383
345 0.138506
350 0.112436
355 0.172085
360 0.13003
365 0.0912389
370 0.109011
375 0.126242
380 0.0793612
385 0.12057
390 0.096796
395 0.117829
400 0.128146
405 0.072672
410 0.0929776
415 0.0883007
420 0.184653
425 0.106643
430 0.156194
435 0.165912
440 0.136672
445 0.110061
450 0.147327
455 0.151637
460 0.158318
465 0.166994
470 0.31321
475 0.294988
480 0.402246
485 0.751868
490 1.07256
495 55.7814
500 853.069
505 1197.81
510 288.679
515 34.7523
520 5.29255
525 1.60813
530 1.08617
535 0.919072
540 0.957064
545 1.08178
550 0.977075
555 0.784231
560 0.598916
565 0.659409
570 0.577702
575 0.495488
580 0.477247
585 0.517377
590 0.720762
595 0.7337
600 0.595074
Ex : 513
200 0.112332
205 0.0338713
210 0.071703
215 0.0534553
220 0.134767
225 0.105077
230 0.092394
235 0.0575498
240 0.0668255
245 0.0504677
250 0.0573665
255 0.0741772
260 0.0768244
265 0.0748473
270 0.112841
275 0.136708
280 0.0817435
285 0.0959678
290 0.110706
295 0.141329
300 0.23838
305 0.125284
310 0.167307
315 0.109638
320 0.217881
325 0.142497
330 0.098873
335 0.0964767
340 0.0712167
345 0.077247
350 0.118423
355 0.117232
360 0.11774
365 0.160356
370 0.148092
375 0.136658
380 0.138184
385 0.0698707
390 0.0724365
395 0.0879934
400 0.139499
405 0.17562
410 0.158544
415 0.124347
420 0.135562
425 0.100386
430 0.0762214
435 0.0942142
440 0.0821588
445 0.118795
450 0.0888552
455 0.159528
460 0.203178
465 0.250432
470 0.194562
475 0.242523
480 0.302651
485 0.362992
490 0.572472
495 1.04956
500 50.2281
505 831.625
510 1213.94
515 295.786
520 35.6072
525 5.25069
530 1.72136
535 1.01732
540 0.827048
545 0.920181
550 0.958655
555 0.890343
560 0.736167
565 0.627984
570 0.509623
575 0.424253
580 0.372373
585 0.34142
590 0.37175
595 0.490826
600 1.02943
Ex : 518
200 0.0850722
205 0.115235
210 0.111864
215 0.0787116
220 0.179365
225 0.137011
230 0.12814
235 0.132456
240 0.078847
245 0.10693
250 0.134653
255 0.109552
260 0.0768415
265 0.126213
270 0.0835575
275 0.119926
280 0.0894314
285 0.0651742
290 0.061073
295 0.0959172
300 0.0735883
305 0.0509998
310 0.071026
315 0.155732
320 0.0829318
325 0.0990938
330 0.168581
335 0.162569
340 0.103841
345 0.0732875
350 0.0584171
355 0.0827158
360 0.195419
365 0.0930649
370 0.116764
375 0.0868218
380 0.191435
385 0.0814955
390 0.107775
395 0.152191
400 0.146636
405 0.0753182
410 0.115009
415 0.129811
420 0.182347
425 0.134908
430 0.19181
435 0.186908
440 0.12155
445 0.093291
450 0.226527
455 0.152364
460 0.192923
465 0.129474
470 0.284782
475 0.215104
480 0.177346
485 0.353144
490 0.356089
495 0.637227
500 1.16881
505 51.2192
510 817.49
515 1213.57
520 295.723
525 35.422
530 5.23994
535 1.66928
540 1.1057
545 0.874523
550 0.748185
555 0.794308
560 0.838807
565 0.660321
570 0.626918
575 0.404549
580 0.357924
585 0.349935
590 0.342991
595 0.329984
600 0.525175
Ex : 523
200 0.0858314
205 0.104289
210 0.0832355
215 0.0478653
220 0.0657257
225 0.0606516
230 0.0830124
235 0.122401
240 0.112022
245 0.172094
250 0.0750503
255 0.0841547
260 0.0516764
265 0.0751791
270 0.0935538
275 0.117594
280 0.142572
285 0.128496
290 0.0793327
295 0.124588
300 0.165782
305 0.140318
310 0.0579977
315 0.0558159
320 0.0879771
325 0.0633756
330 0.089542
335 0.111545
340 0.186597
345 0.0872549
350 0.111164
355 0.0599312
360 0.101793
365 0.124434
370 0.17316
375 0.167177
380 0.0940656
385 0.110614
390 0.0755344
395 0.107133
400 0.191411
405 0.14662
410 0.099543
415 0.0989915
420 0.131188
425 0.229705
430 0.140705
435 0.184154
440 0.106148
445 0.132664
450 0.170329
455 0.160517
460 0.17908
465 0.101478
470 0.165307
475 0.180445
480 0.179607
485 0.268373
490 0.294225
495 0.440722
500 0.712126
505 1.17001
510 48.5803
515 803.899
520 1234.69
525 317.641
530 38.0263
535 5.43884
540 1.40222
545 0.868083
550 0.665417
555 0.65675
560 0.664414
565 0.737203
570 0.604648
575 0.488687
580 0.331903
585 0.314049
590 0.288501
595 0.315831
600 0.900099
Ex : 528
200 0.0786175
205 0.073756
210 0.110506
215 0.105744
220 0.100393
225 0.146866
230 0.142053
235 0.09352
240 0.113291
245 0.112703
250 0.0516823
255 0.0911808
260 0.0854542
265 0.182562
270 0.0920209
275 0.136436
280 0.111918
285 0.127792
290 0.0854211
295 0.0651559
300 0.163541
305 0.0745137
310 0.113635
315 0.0746956
320 0.122537
325 0.121627
330 0.157887
335 0.183107
340 0.124372
345 0.100034
350 0.0813671
355 0.135782
360 0.104148
365 0.13983
370 0.150492
375 0.103675
380 0.0950762
385 0.146799
390 0.0791292
395 0.0687022
400 0.0757858
405 0.150072
410 0.158013
415 0.143988
420 0.170442
425 0.171036
430 0.237746
435 0.124894
440 0.115906
445 0.0863964
450 0.105426
455 0.101938
460 0.171549
465 0.191848
470 0.181947
475 0.223077
480 0.245932
485 0.200083
490 0.252333
495 0.327016
500 0.383242
505 0.5952
510 1.15175
515 44.4243
520 789.662
525 1232.91
530 310.529
535 37.0784
540 5.1445
545 1.38586
550 0.808919
555 0.683979
560 0.628309
565 0.689229
570 0.541951
575 0.41831
580 0.371757
585 0.329068
590 0.386669
595 0.309635
600 0.123179
Ex : 533
200 0.194079
205 0.145447
210 0.160211
215 0.158306
220 0.0928705
225 0.125999
230 0.116087
235 0.12802
240 0.164522
245 0.126853
250 0.127147
255 0.0745238
260 0.0527067
265 0.118879
270 0.0816975
275 0.160458
280 0.112572
285 0.18514
290 0.059074
295 0.129719
300 0.142126
305 0.16208
310 0.101297
315 0.0552363
320 0.109122
325 0.0816174
330 0.192427
335 0.146188
340 0.107549
345 0.127229
350 0.102842
355 0.110568
360 0.100854
365 0.123362
370 0.10324
375 0.153152
380 0.161164
385 0.10519
390 0.110575
395 0.122784
400 0.128724
405 0.0720397
410 0.0950279
415 0.102075
420 0.0868237
425 0.173901
430 0.142971
435 0.115598
440 0.0822095
445 0.151166
450 0.149959
455 0.147882
460 0.0999135
465 0.133659
470 0.242009
475 0.140773
480 0.129652
485 0.240658
490 0.188331
495 0.259196
500 0.29622
505 0.390158
510 0.762192
515 1.17122
520 45.847
525 781.054
530 1206.43
535 308.346
540 36.814
545 5.03665
550 1.27452
555 0.69633
560 0.64835
565 0.576119
570 0.526596
575 0.499105
580 0.388082
585 0.482166
590 0.384944
595 0.333923
600 0.0564617
Ex : 538
200 0.156522
205 0.0795326
210 0.164523
215 0.134018
220 0.228167
225 0.17324
230 0.0755682
235 0.0768401
240 0.134423
245 0.064983
250 0.131228
255 0.168281
260 0.113208
265 0.0711383
270 0.142403
275 0.0987828
280 0.0898941
285 0.112956
290 0.11301
295 0.0989465
300 0.114948
305 0.106238
310 0.0853524
315 0.0540867
320 0.0959189
325 0.102635
330 0.062263
335 0.116503
340 0.155482
345 0.111148
350 0.12721
355 0.12322
360 0.0750915
365 0.117418
370 0.139452
375 0.0809615
380 0.186801
385 0.182375
390 0.0785946
395 0.158754
400 0.087522
405 0.177015
410 0.142806
415 0.0779339
420 0.0820762
425 0.112239
430 0.0905645
435 0.147661
440 0.132506
445 0.0828568
450 0.0626079
455 0.112142
460 0.16146
465 0.211573
470 0.194593
475 0.170017
480 0.251914
485 0.217924
490 0.141514
495 0.203865
500 0.282612
505 0.318394
510 0.433809
515 0.608799
520 1.0439
525 39.0707
530 744.634
535 1207.52
540 320.913
545 38.3102
550 5.23803
555 1.31397
560 0.753976
565 0.599377
570 0.429639
575 0.41056
580 0.506882
585 0.435044
590 0.382481
595 0.311334
600 0.218449
Ex : 543
200 0.127347
205 0.106473
210 0.117893
215 0.0996269
220 0.0595651
225 0.155961
230 0.0764463
235 0.101017
240 0.0835857
245 0.125924
250 0.121827
255 0.0837034
260 0.0849165
265 0.170748
270 0.0817177
275 0.0972801
280 0.0665243
285 0.0742953
290 0.0873101
295 0.11009
300 0.191418
305 0.0902063
310 0.0733035
315 0.0738411
320 0.0829156
325 0.10561
330 0.103887
335 0.131887
340 0.0932654
345 0.125375
350 0.144019
355 0.153403
360 0.100913
365 0.0798616
370 0.108183
375 0.141915
380 0.113183
385 0.127756
390 0.106129
395 0.181357
400 0.118117
405 0.121071
410 0.153299
415 0.145298
420 0.134924
425 0.184188
430 0.158189
435 0.158108
440 0.16829
445 0.144805
450 0.176066
455 0.136679
460 0.19589
465 0.16624
470 0.176388
475 0.10127
480 0.0946832
485 0.281497
490 0.265083
495 0.192759
500 0.198725
505 0.18073
510 0.327809
515 0.388934
520 0.646399
525 1.04345
530 35.6482
535 714.493
540 1217.29
545 334.019
550 39.8692
555 5.35164
560 1.29296
565 0.734449
570 0.450667
575 0.408052
580 0.424586
585 0.373679
590 0.451467
595 0.287102
600 0.0874365
Ex : 548
200 0.0914676
205 0.0726091
210 0.0667338
215 0.078909
220 0.140066
225 0.0968915
230 0.0760232
235 0.0983041
240 0.148655
245 0.164211
250 0.135721
255 0.0732193
260 0.149048
265 0.140316
270 0.207026
275 0.138267
280 0.0886045
285 0.0962213
290 0.107785
295 0.16744
300 0.0631147
305 0.052809
310 0.0750926
315 0.0933094
320 0.0786193
325 0.149059
330 0.129584
335 0.127239
340 0.096113
345 0.105064
350 0.141615
355 0.118477
360 0.0776362
365 0.0803832
370 0.0756886
375 0.129893
380 0.13652
385 0.110499
390 0.266762
395 0.116815
400 0.181149
405 0.166055
410 0.106559
415 0.196984
420 0.205663
425 0.191885
430 0.161899
435 0.149003
440 0.129836
445 0.134499
450 0.103571
455 0.159284
460 0.159318
465 0.206337
470 0.135124
475 0.157125
480 0.141681
485 0.195413
490 0.22243
495 0.240403
500 0.179347
505 0.269677
510 0.231894
515 0.367041
520 0.425356
525 0.66014
530 0.795485
535 41.7999
540 725.692
545 1195.11
550 326.692
555 39.0053
560 5.1981
565 1.28881
570 0.563111
575 0.481009
580 0.388463
585 0.221862
590 0.270315
595 0.404844
600 0.222303
Ex : 553
200 0.188836
205 0.0909754
210 0.112198
215 0.0574102
220 0.0864017
225 0.13189
230 0.149482
235 0.0976088
240 0.133934
245 0.137787
250 0.079821
255 0.129471
260 0.0683739
265 0.0912175
270 0.0994001
275 0.142997
280 0.0809607
285 0.165425
290 0.215342
295 0.113325
300 0.187048
305 0.0923222
310 0.101055
315 0.216306
320 0.121481
325 0.135261
330 0.0773848
335 0.0783123
340 0.105429
345 0.106801
350 0.0926265
355 0.141862
360 0.154617
365 0.0960066
370 0.333579
375 0.177959
380 0.13832
385 0.164112
390 0.171391
395 0.0785839
400 0.19481
405 0.187167
410 0.176782
415 0.116969
420 0.133308
425 0.0886649
430 0.17791
435 0.134926
440 0.15619
445 0.108182
450 0.0747529
455 0.132871
460 0.232029
465 0.177416
470 0.157135
475 0.14083
480 0.088223
485 0.153149
490 0.156229
495 0.190357
500 0.236381
505 0.174747
510 0.195416
515 0.221847
520 0.249494
525 0.489302
530 0.584544
535 1.0557
540 34.0256
545 689.333
550 1195.36
555 337.401
560 40.2552
565 5.40427
570 1.19408
575 0.532447
580 0.333365
585 0.273655
590 0.237342
595 0.297657
600 0.445696
Ex : 558
200 0.0977444
205 0.173063
210 0.102342
215 0.176419
220 0.108748
225 0.075943
230 0.0497425
235 0.149362
240 0.143099
245 0.094326
250 0.0896256
255 0.0594902
260 0.100483
265 0.123415
270 0.12529
275 0.127196
280 0.101236
285 0.148892
290 0.117117
295 0.141671
300 0.148228
305 0.082182
310 0.105653
315 0.109816
320 0.166946
325 0.172198
330 0.164998
335 0.147826
340 0.158909
345 0.136105
350 0.104899
355 0.186369
360 0.142375
365 0.122811
370 0.158365
375 0.250494
380 0.0974279
385 0.12524
390 0.108637
395 0.140409
400 0.144035
405 0.0723736
410 0.112904
415 0.103168
420 0.0904563
425 0.174887
430 0.15084
435 0.0948795
440 0.140545
445 0.123231
450 0.170579
455 0.0918464
460 0.22912
465 0.171219
470 0.12847
475 0.172588
480 0.116558
485 0.185075
490 0.227476
495 0.239935
500 0.219536
505 0.1538
510 0.188546
515 0.260034
520 0.250528
525 0.311534
530 0.419834
535 0.603026
540 0.987734
545 31.3674
550 654.365
555 1164.32
560 330.318
565 39.6045
570 5.03136
575 1.07704
580 0.57296
585 0.528402
590 0.412152
595 0.262426
600 0.330635
Ex : 563
200 0.096861
205 0.118791
210 0.0460417
215 0.184511
220 0.134592
225 0.119842
230 0.105754
235 0.105474
240 0.126794
245 0.175919
250 0.119154
255 0.164787
260 0.0960164
265 0.148457
270 0.0925583
275 0.124064
280 0.0812809
285 0.147192
290 0.0851765
295 0.159885
300 0.0943255
305 0.143644
310 0.157187
315 0.0711477
320 0.092281
325 0.120294
330 0.0899303
335 0.1298
340 0.0922669
345 0.188355
350 0.113386
355 0.248821
360 0.096023
365 0.0948832
370 0.119959
375 0.123262
380 0.125187
385 0.166037
390 0.199202
395 0.125975
400 0.118469
405 0.214655
410 0.0981655
415 0.151623
420 0.123002
425 0.108943
430 0.144769
435 0.243836
440 0.13814
445 0.256125
450 0.125455
455 0.0975411
460 0.145182
465 0.102541
470 0.208735
475 0.251497
480 0.173235
485 0.159901
490 0.195011
495 0.1801
500 0.262537
505 0.235126
510 0.148185
515 0.270579
520 0.161956
525 0.280466
530 0.397423
535 0.509224
540 0.531871
545 0.903603
550 31.3455
555 649.128
560 1143.76
565 330.996
570 39.6012
575 5.30493
580 1.05163
585 0.568726
590 0.429469
595 0.32201
600 0.0589379
Ex : 568
200 0.10805
205 0.134816
210 0.135147
215 0.106025
220 0.195437
225 0.111477
230 0.137058
235 0.16316
240 0.132218
245 0.0734344
250 0.178468
255 0.0766787
260 0.194947
265 0.114229
270 0.0889278
275 0.127331
280 0.207948
285 0.153194
290 0.0664294
295 0.0877489
300 0.148142
305 0.0650048
310 0.132584
315 0.129067
320 0.102635
325 0.11957
330 0.127898
335 0.103586
340 0.192772
345 0.187038
350 0.106763
355 0.118389
360 0.0982659
365 0.0722665
370 0.142447
375 0.133083
380 0.0813446
385 0.195471
390 0.109425
395 0.330187
400 0.205411
405 0.143698
410 0.101244
415 0.109422
420 0.125164
425 0.17262
430 0.0981189
435 0.205204
440 0.170961
445 0.190121
450 0.161482
455 0.123458
460 0.136289
465 0.165416
470 0.108583
475 0.15478
480 0.149924
485 0.287176
490 0.269753
495 0.163935
500 0.138728
505 0.126009
510 0.196999
515 0.247122
520 0.171248
525 0.257307
530 0.215974
535 0.246197
540 0.434136
545 0.490104
550 0.816881
555 23.867
560 580.522
565 1086.39
570 327.557
575 39.0362
580 4.98498
585 0.981183
590 0.509407
595 0.440436
600 0.538668
Ex : 573
200 0.0470866
205 0.119994
210 0.125795
215 0.203055
220 0.135343
225 0.0942222
230 0.07071
235 0.0933155
240 0.117839
245 0.0876971
250 0.118782
255 0.113337
260 0.175779
265 0.181105
270 0.138751
275 0.0827099
280 0.133514
285 0.0990082
290 0.138823
295 0.0748399
300 0.0774576
305 0.0831128
310 0.172163
315 0.0541024
320 0.159121
325 0.155883
330 0.0969304
335 0.187958
340 0.174999
345 0.0690377
350 0.163316
355 0.13977
360 0.104526
365 0.0831543
370 0.0604865
375 0.171995
380 0.143799
385 0.173497
390 0.0785496
395 0.192753
400 0.187154
405 0.225762
410 0.151342
415 0.119029
420 0.148859
425 0.204395
430 0.0971453
435 0.107018
440 0.111478
445 0.0863705
450 0.154515
455 0.177817
460 0.118481
465 0.0841806
470 0.0841967
475 0.103523
480 0.137618
485 0.116848
490 0.132766
495 0.140004
500 0.168628
505 0.328009
510 0.177863
515 0.169674
520 0.210481
525 0.101339
530 0.265748
535 0.191756
540 0.286944
545 0.366976
550 0.406461
555 0.840059
560 20.8674
565 503.538
570 1012.7
575 313.757
580 37.4176
585 4.67063
590 0.769984
595 0.485012
600 0.107665
Ex : 578
200 0.0729963
205 0.107145
210 0.0859337
215 0.15748
220 0.094754
225 0.0749369
230 0.146098
235 0.113964
240 0.221453
245 0.183835
250 0.076508
255 0.121546
260 0.101554
265 0.114046
270 0.0931196
275 0.109515
280 0.182294
285 0.107883
290 0.133057
295 0.0759021
300 0.130125
305 0.120336
310 0.0753225
315 0.129907
320 0.190066
325 0.178558
330 0.216246
335 0.0926882
340 0.0963749
345 0.0988418
350 0.169462
355 0.149864
360 0.0823288
365 0.126338
370 0.0693272
375 0.154037
380 0.0962091
385 0.151694
390 0.119238
395 0.202303
400 0.231137
405 0.100298
410 0.129011
415 0.163496
420 0.14556
425 0.0960822
430 0.13722
435 0.139424
440 0.129478
445 0.18321
450 0.173119
455 0.310682
460 0.124164
465 0.21519
470 0.180808
475 0.172671
480 0.239092
485 0.112833
490 0.170281
495 0.131096
500 0.180909
505 0.213284
510 0.184026
515 0.266037
520 0.257577
525 0.200448
530 0.157248
535 0.265011
540 0.317426
545 0.226178
550 0.343073
555 0.390526
560 0.776282
565 18.0299
570 451.353
575 885.169
580 270.835
585 32.1293
590 4.09457
595 0.922032
600 0.584445
Ex : 583
200 0.0856524
205 0.0618677
210 0.158014
215 0.0777507
220 0.0739944
225 0.0765783
230 0.155639
235 0.123542
240 0.114638
245 0.108108
250 0.0902333
255 0.0621428
260 0.103268
265 0.0833685
270 0.0639858
275 0.0919667
280 0.150094
285 0.180588
290 0.183751
295 0.201359
300 0.112782
305 0.0420793
310 0.132559
315 0.195616
320 0.119596
325 0.0632656
330 0.138193
335 0.116601
340 0.0939277
345 0.151239
350 0.109318
355 0.0814754
360 0.120514
365 0.160242
370 0.11096
375 0.0761828
380 0.146633
385 0.105637
390 0.198449
395 0.188727
400 0.120938
405 0.117528
410 0.104232
415 0.171793
420 0.139735
425 0.146731
430 0.0989846
435 0.0783645
440 0.0890171
445 0.133106
450 0.120922
455 0.209016
460 0.197533
465 0.138051
470 0.120718
475 0.124981
480 0.16469
485 0.228475
490 0.285631
495 0.272812
500 0.15077
505 0.173263
510 0.138205
515 0.160121
520 0.19606
525 0.190438
530 0.217664
535 0.214234
540 0.249292
545 0.211721
550 0.184459
555 0.30665
560 0.315986
565 0.671028
570 15.9701
575 404.571
580 776.687
585 229.794
590 27.5744
595 3.46217
600 0.419302
Ex : 588
200 0.185967
205 0.144147
210 0.116905
215 0.0556661
220 0.108991
225 0.135931
230 0.0775768
235 0.134545
240 0.158147
245 0.0642077
250 0.187585
255 0.142649
260 0.191339
265 0.15071
270 0.0971696
275 0.164234
280 0.0788465
285 0.0884284
290 0.140282
295 0.0717094
300 0.0516785
305 0.0991007
310 0.128666
315 0.0966659
320 0.148603
325 0.13002
330 0.058044
335 0.210318
340 0.246258
345 0.155507
350 0.140695
355 0.0659048
360 0.099819
365 0.190857
370 0.111752
375 0.140597
380 0.0941803
385 0.11055
390 0.155327
395 0.15025
400 0.197746
405 0.185511
410 0.088591
415 0.0899111
420 0.122495
425 0.254816
430 0.120663
435 0.0889718
440 0.18995
445 0.151248
450 0.10242
455 0.157988
460 0.138489
465 0.127817
470 0.133189
475 0.220637
480 0.19608
485 0.151858
490 0.111673
495 0.115759
500 0.115161
505 0.0825503
510 0.121484
515 0.250861
520 0.149014
525 0.242022
530 0.122613
535 0.123306
540 0.212778
545 0.143635
550 0.225498
555 0.222098
560 0.230424
565 0.425707
570 0.730257
575 13.6748
580 340.867
585 659.919
590 198.076
595 23.6524
600 2.69155
Ex : 593
200 0.188388
205 0.178548
210 0.161771
215 0.0877273
220 0.128704
225 0.0765607
230 0.271602
235 0.140761
240 0.1226
245 0.136292
250 0.114012
255 0.15467
260 0.113889
265 0.103143
270 0.157529
275 0.0783602
280 0.178832
285 0.0955425
290 0.0920366
295 0.138991
300 0.0728974
305 0.112982
310 0.142008
315 0.137777
320 0.115833
325 0.0637062
330 0.201424
335 0.12789
340 0.164072
345 0.194493
350 0.193248
355 0.0878029
360 0.0773554
365 0.0966175
370 0.148531
375 0.134697
380 0.0969222
385 0.132595
390 0.145366
395 0.11603
400 0.105986
405 0.123098
410 0.0799694
415 0.119977
420 0.168216
425 0.210246
430 0.132752
435 0.131378
440 0.0866653
445 0.228268
450 0.273578
455 0.155734
460 0.169068
465 0.110447
470 0.196482
475 0.13979
480 0.196946
485 0.174595
490 0.118928
495 0.115366
500 0.190305
505 0.148991
510 0.104447
515 0.116021
520 0.180393
525 0.228465
530 0.146143
535 0.13917
540 0.159625
545 0.165892
550 0.277576
555 0.256604
560 0.270556
565 0.326028
570 0.5502
575 0.528029
580 11.8811
585 306.867
590 569.057
595 171.537
600 26.9897
Ex : 598
200 0.128404
205 0.0881523
210 0.142962
215 0.154171
220 0.109179
225 0.129307
230 0.18302
235 0.151191
240 0.13057
245 0.190336
250 0.123013
255 0.0960605
260 0.122425
265 0.0995518
270 0.335764
275 0.145115
280 0.196893
285 0.284166
290 0.105074
295 0.179934
300 0.127961
305 0.13252
310 0.0632895
315 0.0574928
320 0.213261
325 0.171205
330 0.124412
335 0.129045
340 0.206456
345 0.237846
350 0.141759
355 0.22329
360 0.165203
365 0.145206
370 0.127889
375 0.134923
380 0.126298
385 0.159871
390 0.18842
395 0.118278
400 0.137548
405 0.099046
410 0.104113
415 0.111465
420 0.154246
425 0.107695
430 0.173243
435 0.188395
440 0.274881
445 0.151358
450 0.194938
455 0.175837
460 0.267938
465 0.172054
470 0.135252
475 0.185717
480 0.0630534
485 0.15205
490 0.113688
495 0.0890186
500 0.129782
505 0.139539
510 0.114551
515 0.101217
520 0.134701
525 0.261609
530 0.183685
535 0.166334
540 0.216294
545 0.242013
550 0.212088
555 0.183158
560 0.217082
565 0.276291
570 0.296744
575 0.286848
580 0.572181
585 11.8007
590 271.1
595 499.02
600 330.533
Ex : 603
200 0.137762
205 0.100848
210 0.219757
215 0.11463
220 0.209065
225 0.136792
230 0.0606608
235 0.083712
240 0.161123
245 0.174724
250 0.0890082
255 0.145831
260 0.0804243
265 0.083105
270 0.193033
275 0.127145
280 0.301571
285 0.214452
290 0.171136
295 0.125335
300 0.170187
305 0.0636151
310 0.106787
315 0.243068
320 0.180527
325 0.115041
330 0.237478
335 0.151033
340 0.161275
345 0.130069
350 0.139695
355 0.0812941
360 0.0640786
365 0.0628892
370 0.131067
375 0.182126
380 0.160911
385 0.176871
390 0.196804
395 0.206278
400 0.161433
405 0.104825
410 0.100955
415 0.136488
420 0.0866676
425 0.148557
430 0.174897
435 0.146754
440 0.114581
445 0.137477
450 0.0998346
455 0.117454
460 0.133523
465 0.14255
470 0.130338
475 0.0991483
480 0.111236
485 0.17146
490 0.160663
495 0.244334
500 0.173568
505 0.225243
510 0.216911
515 0.124912
520 0.171069
525 0.23514
530 0.152524
535 0.198741
540 0.2145
545 0.267917
550 0.454439
555 0.150787
560 0.169668
565 0.194
570 0.223166
575 0.395205
580 0.37476
585 0.371963
590 10.3519
595 236.411
600 460.628
