File format V 1.0
jeu. 5. janv. 21:47:59 2017
Operator : 
Comments : 

=============================================
SpectroFluorometer parameters
Mode : 3D measurement
Data : Fluorescence
Phospho. : Ordinary
Spectrum : Fluorescence

Scan speed : 2400 nm/mn
Response : 100 ms
PM Voltage : 700 V
Shutter : On

Lambda Ex. Start : 203
Lambda Ex. End : 603
Lambda Ex. Step : 5
Ex. Slit : 5 nm

Lambda Em. Start : 200
Lambda Em. End : 600
Lambda Em. Step : 5
Em. Slit : 5 nm

Repetition : 1
Decal lambda em : 10
=============================================
DATA
Ex : 203
200 5.95455
205 7.44011
210 3.61539
215 4.8307
220 7.8765
225 5.74471
230 3.38568
235 2.92225
240 7.09125
245 8.30892
250 4.95048
255 4.13074
260 3.87812
265 3.92097
270 5.0276
275 6.72601
280 3.61958
285 3.97292
290 4.79045
295 5.28785
300 3.38119
305 3.48369
310 2.57214
315 7.12453
320 2.85538
325 4.83599
330 3.93012
335 6.06173
340 9.71981
345 5.28651
350 3.59112
355 5.42656
360 5.12484
365 3.74507
370 8.95888
375 5.61552
380 8.17809
385 4.12892
390 5.50636
395 4.38573
400 3.83016
405 4.53455
410 3.76174
415 7.17727
420 6.9894
425 11.7368
430 7.28174
435 5.67471
440 9.52652
445 4.523
450 7.87511
455 7.94148
460 8.82416
465 8.64291
470 4.39295
475 2.78381
480 4.26162
485 7.45106
490 4.88445
495 9.02465
500 5.19976
505 4.94677
510 5.29744
515 5.06172
520 3.99592
525 6.82248
530 3.49707
535 4.43132
540 2.93698
545 5.0586
550 6.35302
555 3.59587
560 5.41597
565 3.92638
570 2.24269
575 5.81828
580 5.93387
585 4.23791
590 5.6245
595 4.56312
600 0.519266
Ex : 208
200 3.91946
205 4.85943
210 3.93779
215 2.83077
220 2.7291
225 3.89969
230 3.97797
235 3.61509
240 2.25516
245 5.58486
250 2.57546
255 5.20085
260 8.45556
265 5.55756
270 4.69559
275 3.30103
280 3.87212
285 2.65339
290 4.60314
295 3.73564
300 4.49154
305 2.72357
310 2.71891
315 4.77407
320 2.78706
325 4.24262
330 3.20009
335 3.784
340 4.51564
345 5.18551
350 3.79539
355 5.11062
360 3.62498
365 4.30798
370 3.38407
375 8.10936
380 5.57842
385 5.98137
390 5.58468
395 5.04396
400 10.5659
405 5.19854
410 4.51766
415 2.84038
420 5.94625
425 7.25133
430 6.15429
435 7.08968
440 5.35864
445 3.44346
450 5.40444
455 3.48351
460 4.67502
465 6.32641
470 8.46646
475 6.83595
480 5.54199
485 5.99901
490 4.65155
495 6.87859
500 6.48877
505 3.36573
510 7.19642
515 4.07684
520 5.80974
525 3.89282
530 3.71221
535 3.9729
540 2.84427
545 4.95162
550 6.95317
555 10.9677
560 6.30635
565 3.41602
570 3.79766
575 5.70884
580 3.58484
585 3.29245
590 7.8019
595 7.00322
600 8.41829
Ex : 213
200 6.8366
205 2.21353
210 2.60249
215 4.12543
220 3.4031
225 4.89407
230 3.77082
235 3.17293
240 7.8331
245 2.82811
250 3.49739
255 2.13798
260 5.19222
265 6.48604
270 6.28383
275 2.88867
280 3.66995
285 8.27084
290 7.77302
295 7.24909
300 4.32605
305 5.4539
310 5.73477
315 4.48702
320 3.46462
325 6.59769
330 4.76936
335 6.10366
340 5.31022
345 5.54003
350 2.99564
355 5.18832
360 6.34227
365 6.43584
370 8.48112
375 5.5998
380 5.59998
385 7.16347
390 4.6916
395 8.17665
400 9.82704
405 6.57844
410 4.09331
415 7.41696
420 8.90848
425 3.93232
430 4.10385
435 4.12715
440 7.87133
445 4.41158
450 5.65158
455 6.99896
460 6.15717
465 4.70834
470 7.41297
475 5.71229
480 7.4424
485 6.1755
490 7.14325
495 5.05674
500 4.57151
505 4.98078
510 3.75829
515 5.36183
520 5.37051
525 5.91639
530 5.77978
535 5.01923
540 5.8508
545 4.93065
550 5.03292
555 7.80692
560 2.75376
565 5.51243
570 3.64978
575 4.73634
580 4.90017
585 6.33009
590 3.74774
595 7.03273
600 13.2072
Ex : 218
200 7.24691
205 4.01983
210 2.7021
215 5.78813
220 5.3969
225 2.89962
230 2.81493
235 2.36868
240 7.42289
245 5.39104
250 5.44081
255 6.38827
260 4.14518
265 2.79732
270 4.93619
275 2.79427
280 4.86682
285 5.1697
290 4.28081
295 4.12006
300 3.1017
305 3.83235
310 4.9357
315 4.9324
320 4.06151
325 8.90753
330 6.29445
335 5.74593
340 3.38272
345 3.89941
350 4.29364
355 2.62403
360 4.80782
365 7.68659
370 5.84888
375 5.62712
380 4.41557
385 3.92155
390 5.22481
395 11.2234
400 10.0627
405 5.29389
410 5.0812
415 5.71596
420 6.75935
425 6.72738
430 9.52467
435 4.08333
440 4.93732
445 4.42798
450 7.72674
455 4.00607
460 5.86667
465 9.11458
470 8.72699
475 4.40822
480 8.06503
485 5.81271
490 4.33778
495 3.0982
500 5.21561
505 3.97987
510 4.48217
515 5.95926
520 6.32102
525 6.30837
530 7.00543
535 5.10161
540 4.72617
545 4.059
550 4.68709
555 6.71393
560 4.33415
565 3.55566
570 1.92224
575 3.00478
580 7.18729
585 4.7847
590 4.54651
595 11.2955
600 1.28539
Ex : 223
200 2.28302
205 1.9001
210 4.23408
215 3.54065
220 3.04589
225 6.98715
230 3.76617
235 3.94976
240 2.26914
245 4.57387
250 5.45
255 2.47213
260 5.6366
265 3.58469
270 3.45908
275 5.67655
280 3.71814
285 3.73837
290 4.68955
295 7.18844
300 9.05186
305 10.9205
310 6.84479
315 6.09095
320 5.20775
325 6.90262
330 5.94954
335 3.50015
340 7.06434
345 6.61086
350 5.20115
355 5.89278
360 6.56462
365 4.17783
370 4.21242
375 6.05345
380 4.04455
385 8.93827
390 7.44596
395 9.3143
400 5.56754
405 6.13911
410 5.71084
415 5.27167
420 4.47121
425 4.95604
430 6.56548
435 5.9061
440 7.05782
445 8.20762
450 8.59449
455 8.77312
460 7.54262
465 6.49525
470 4.75182
475 11.0043
480 5.00367
485 7.55995
490 7.19032
495 5.00974
500 4.53468
505 7.28916
510 5.65147
515 4.03088
520 5.97475
525 3.91877
530 3.29952
535 3.89854
540 7.38926
545 5.1406
550 3.24359
555 3.84979
560 5.45615
565 5.22099
570 3.63401
575 3.85377
580 5.61283
585 5.17265
590 5.45439
595 4.63965
600 0.527975
Ex : 228
200 3.42938
205 3.10457
210 6.25604
215 3.61759
220 4.31831
225 3.90666
230 3.28334
235 1.86781
240 4.07618
245 4.83719
250 2.41586
255 4.51067
260 2.48857
265 6.48662
270 5.36425
275 5.37931
280 4.45627
285 2.7199
290 2.98424
295 4.4518
300 2.56729
305 3.4914
310 6.26583
315 2.65295
320 2.41894
325 4.32648
330 4.87153
335 7.69175
340 3.01292
345 4.83122
350 6.71369
355 6.41808
360 5.16694
365 5.12191
370 6.78628
375 6.49923
380 5.90269
385 5.27893
390 5.47216
395 3.94105
400 6.89455
405 4.49746
410 7.93375
415 5.7253
420 6.29146
425 6.32329
430 9.76959
435 8.00444
440 5.36181
445 4.23602
450 4.73908
455 4.50559
460 4.30254
465 4.37179
470 5.56883
475 4.6894
480 9.75652
485 6.39525
490 5.41272
495 4.84881
500 4.31434
505 6.85704
510 3.78131
515 6.56596
520 4.19948
525 3.26003
530 5.85778
535 5.94443
540 4.49721
545 7.10388
550 6.25298
555 5.11783
560 4.91934
565 7.83406
570 8.52239
575 3.44243
580 4.44649
585 4.26454
590 3.61032
595 2.2458
600 0.255564
Ex : 233
200 6.57377
205 2.69671
210 2.26712
215 7.28469
220 4.26017
225 3.17184
230 4.82102
235 4.73664
240 4.54352
245 5.92955
250 2.77828
255 3.78799
260 5.27438
265 3.28583
270 3.466
275 2.68648
280 3.82605
285 2.42935
290 2.63189
295 3.74918
300 4.17939
305 2.29617
310 2.14694
315 4.91832
320 3.65397
325 3.00665
330 4.33006
335 6.61826
340 5.55052
345 6.69148
350 9.36446
355 6.09421
360 3.4467
365 3.00907
370 5.13664
375 4.77344
380 7.70468
385 5.55241
390 4.80752
395 3.81525
400 5.05783
405 5.20777
410 5.89138
415 5.97372
420 5.70946
425 3.98376
430 6.79493
435 5.8222
440 9.20949
445 4.72342
450 8.23609
455 7.82042
460 5.03197
465 3.09924
470 8.94005
475 5.08263
480 6.38279
485 4.77022
490 4.21234
495 4.98802
500 5.58325
505 3.67009
510 3.26362
515 7.74213
520 4.42584
525 4.73932
530 2.76209
535 5.53415
540 4.09042
545 5.71006
550 5.80769
555 5.5578
560 4.89195
565 4.38821
570 6.12698
575 2.88043
580 3.35326
585 2.77091
590 4.2902
595 3.46368
600 15.0165
Ex : 238
200 2.5665
205 4.87305
210 4.56777
215 4.81615
220 7.02192
225 3.63492
230 3.47999
235 3.49988
240 3.15963
245 2.00359
250 2.92963
255 4.49295
260 4.09997
265 3.86221
270 3.50463
275 3.2672
280 3.99519
285 1.8599
290 2.86585
295 2.70404
300 3.60109
305 5.8674
310 2.81045
315 4.08309
320 2.04651
325 3.42673
330 6.17199
335 6.32473
340 5.64261
345 4.43765
350 2.15984
355 3.92593
360 2.79474
365 4.43103
370 4.39842
375 6.39552
380 2.67743
385 3.48582
390 5.735
395 5.59375
400 5.00977
405 5.51461
410 6.0707
415 3.9931
420 3.43568
425 2.84876
430 6.65666
435 3.80586
440 4.25263
445 6.20319
450 5.23172
455 5.16271
460 6.37681
465 3.81842
470 4.38409
475 5.33893
480 5.33689
485 4.95473
490 3.31484
495 5.43506
500 5.36076
505 4.33621
510 3.20825
515 5.48442
520 4.69297
525 3.19694
530 2.4466
535 5.11913
540 7.7487
545 3.30406
550 3.2614
555 5.09441
560 4.12454
565 1.46963
570 1.80713
575 3.69807
580 4.13689
585 2.47919
590 2.09502
595 2.83604
600 0.32273
Ex : 243
200 3.35246
205 3.83303
210 2.8661
215 2.26001
220 1.74256
225 3.13361
230 2.34571
235 3.00717
240 2.39865
245 3.09653
250 5.46902
255 3.00885
260 2.35792
265 2.76282
270 3.90319
275 3.27123
280 3.21686
285 2.36729
290 4.21635
295 1.22023
300 1.44923
305 1.5138
310 5.01349
315 3.15655
320 3.96981
325 4.92635
330 3.20444
335 2.96127
340 3.3486
345 3.13942
350 5.27709
355 4.32651
360 3.14334
365 3.61095
370 4.82362
375 3.28262
380 3.20273
385 2.80627
390 4.40342
395 4.67891
400 3.58985
405 2.80972
410 5.0631
415 3.81395
420 4.54985
425 3.95623
430 4.01004
435 4.78026
440 3.79094
445 3.04274
450 5.64132
455 6.86811
460 5.28333
465 3.73006
470 4.26468
475 3.8294
480 4.80032
485 3.88042
490 4.98383
495 4.18612
500 2.77829
505 3.11111
510 7.12554
515 6.68104
520 3.44529
525 4.71767
530 2.20162
535 1.43336
540 3.88364
545 2.68442
550 2.84593
555 2.47443
560 3.08142
565 5.22829
570 3.17234
575 2.33327
580 3.64021
585 3.15504
590 5.40893
595 2.04765
600 15.4757
Ex : 248
200 1.55319
205 3.73163
210 3.84526
215 1.76837
220 6.80096
225 4.25309
230 2.48944
235 2.2577
240 4.47038
245 3.3349
250 2.11721
255 1.55151
260 3.63592
265 3.24833
270 4.56975
275 1.60421
280 1.92285
285 1.43931
290 1.35712
295 2.63709
300 1.28024
305 2.56818
310 1.93337
315 4.84314
320 2.4995
325 2.43047
330 4.68826
335 4.27601
340 2.37405
345 2.5148
350 4.97039
355 2.85805
360 3.49675
365 2.67997
370 3.50342
375 3.1941
380 2.96708
385 2.75631
390 2.66843
395 2.95913
400 5.48819
405 7.44008
410 6.35236
415 4.03636
420 1.76435
425 2.44099
430 2.55163
435 3.61689
440 2.76378
445 3.3566
450 3.31496
455 3.59132
460 3.15138
465 2.60978
470 2.55498
475 5.85784
480 3.57086
485 2.57062
490 3.46455
495 2.37068
500 2.38575
505 2.89239
510 3.30515
515 3.32134
520 3.01673
525 3.33891
530 3.71625
535 2.24403
540 3.54966
545 3.33497
550 4.01546
555 3.06324
560 2.17657
565 2.94124
570 1.63302
575 2.4029
580 1.72845
585 3.39741
590 2.06746
595 3.31202
600 0.376895
Ex : 253
200 0.898551
205 1.93724
210 1.83632
215 1.50399
220 3.04747
225 2.86574
230 3.21524
235 4.07275
240 4.34353
245 1.70229
250 0.89709
255 1.94986
260 1.852
265 1.95991
270 1.85152
275 1.35967
280 1.92204
285 2.01144
290 3.00499
295 2.28181
300 1.67509
305 1.51992
310 1.71741
315 2.04234
320 1.49693
325 1.46674
330 1.24048
335 2.08187
340 3.51002
345 3.08395
350 2.48048
355 3.66548
360 2.45512
365 3.4035
370 3.62477
375 3.39691
380 3.84611
385 1.67131
390 3.60729
395 3.23331
400 5.32757
405 4.17156
410 3.54556
415 3.61788
420 2.34813
425 3.66266
430 2.67283
435 3.27244
440 3.39727
445 3.15022
450 3.43714
455 4.02831
460 2.09933
465 2.71572
470 1.60029
475 2.1824
480 1.7577
485 2.20671
490 2.50262
495 2.07274
500 1.94768
505 2.47528
510 2.9154
515 1.09677
520 1.56457
525 1.40469
530 3.2911
535 1.65116
540 2.20469
545 4.89459
550 3.57209
555 2.27879
560 3.19697
565 2.44744
570 2.01567
575 2.50744
580 1.78545
585 2.73372
590 2.24462
595 2.5863
600 0.294311
Ex : 258
200 1.47465
205 2.35255
210 0.630342
215 1.3238
220 2.02445
225 2.18613
230 1.90788
235 1.22903
240 0.99135
245 1.74637
250 3.0379
255 1.78836
260 1.84873
265 3.17318
270 2.48517
275 1.85179
280 0.910257
285 1.52111
290 1.72092
295 1.72219
300 1.98881
305 1.76727
310 1.65816
315 3.53164
320 2.28433
325 2.52355
330 2.76174
335 2.23369
340 1.86492
345 2.84435
350 2.17181
355 1.75349
360 2.6427
365 3.96771
370 3.27603
375 2.61625
380 2.68286
385 2.47961
390 1.71436
395 2.19315
400 2.34405
405 4.47101
410 3.36228
415 2.97836
420 2.67199
425 2.51541
430 2.73491
435 2.60127
440 2.06842
445 2.42351
450 2.15612
455 2.78036
460 2.59946
465 2.34955
470 1.94431
475 1.84968
480 3.90165
485 2.19207
490 2.18876
495 2.33268
500 1.57317
505 1.37408
510 1.89033
515 1.48083
520 2.75582
525 2.27723
530 2.58953
535 1.78891
540 1.44999
545 1.61026
550 1.69415
555 2.29086
560 1.90875
565 2.94077
570 1.51558
575 1.71035
580 1.93192
585 2.37801
590 3.20236
595 1.50673
600 0.17146
Ex : 263
200 1.57672
205 2.26362
210 1.46491
215 1.06678
220 1.15064
225 1.18732
230 1.15717
235 0.920119
240 1.45142
245 2.62786
250 1.58691
255 1.46031
260 0.81917
265 2.94297
270 1.65564
275 0.97471
280 1.73086
285 2.13124
290 1.11192
295 0.876758
300 1.13238
305 1.91531
310 2.27572
315 2.09233
320 1.00153
325 2.15549
330 0.897044
335 0.851582
340 1.71293
345 2.47396
350 2.08222
355 1.01655
360 2.20688
365 1.5031
370 2.46317
375 2.03869
380 3.03483
385 1.20517
390 1.41174
395 1.59257
400 1.50209
405 1.91063
410 1.49611
415 2.44294
420 1.95573
425 1.47293
430 2.13233
435 2.19644
440 2.76111
445 1.57214
450 1.945
455 2.08483
460 2.00494
465 2.13168
470 1.60164
475 1.70418
480 2.27112
485 1.63715
490 1.60999
495 2.59179
500 2.21372
505 1.65586
510 1.79702
515 1.14762
520 1.71131
525 1.37066
530 1.70198
535 2.39657
540 2.39511
545 1.71457
550 2.2793
555 1.34375
560 0.852714
565 1.02108
570 1.97396
575 1.44637
580 0.995009
585 1.36882
590 1.25534
595 1.27585
600 0.145187
Ex : 268
200 0.858333
205 1.52412
210 0.835965
215 1.5975
220 1.07423
225 1.4491
230 0.53593
235 1.38221
240 0.757703
245 1.03484
250 0.686556
255 0.794239
260 1.47848
265 0.948834
270 1.15042
275 1.11572
280 0.838915
285 1.10541
290 1.08324
295 0.897766
300 1.42836
305 1.14216
310 1.50434
315 1.23562
320 0.965695
325 1.44487
330 0.899352
335 1.36695
340 0.754574
345 1.90313
350 1.06635
355 1.88484
360 2.41867
365 2.08158
370 2.09186
375 1.68415
380 1.90985
385 1.64641
390 1.90697
395 1.62326
400 1.11561
405 1.20543
410 1.36924
415 2.04912
420 1.83721
425 1.7367
430 2.14529
435 1.19981
440 1.47269
445 1.43323
450 1.36863
455 1.56674
460 1.65244
465 1.21302
470 1.33404
475 1.05645
480 1.17787
485 1.54374
490 1.65391
495 1.33587
500 1.99838
505 1.87694
510 1.58677
515 1.26551
520 1.10706
525 1.16554
530 0.836569
535 1.26779
540 1.50977
545 1.57373
550 1.86727
555 1.32668
560 1.54588
565 1.78501
570 0.966664
575 1.01514
580 1.3614
585 0.868058
590 0.57703
595 1.70295
600 2.74163
Ex : 273
200 0.749721
205 0.811398
210 0.703203
215 0.571919
220 0.684418
225 0.497088
230 0.598417
235 0.67132
240 1.22432
245 1.1793
250 0.998938
255 0.838661
260 0.670432
265 0.530447
270 0.597847
275 0.56059
280 0.519898
285 0.545081
290 0.792493
295 1.02786
300 0.563125
305 0.733944
310 0.826914
315 0.875926
320 0.880857
325 1.05538
330 1.14602
335 0.951307
340 2.09499
345 1.98046
350 1.185
355 1.12262
360 1.21066
365 0.915948
370 1.28354
375 0.84258
380 1.51137
385 1.48543
390 1.0139
395 1.05347
400 1.93004
405 1.18503
410 1.22975
415 0.79171
420 1.37162
425 1.37088
430 0.838781
435 1.10684
440 1.28897
445 1.29794
450 2.34821
455 0.878047
460 0.702778
465 1.27044
470 1.31556
475 0.719337
480 1.00594
485 0.820619
490 1.17434
495 1.00373
500 1.37076
505 0.778452
510 1.10083
515 1.05593
520 0.54566
525 0.757392
530 1.19698
535 0.679723
540 0.801066
545 1.06047
550 1.10524
555 1.07822
560 0.702021
565 0.794503
570 0.42878
575 0.740194
580 0.84255
585 1.28697
590 0.735576
595 1.63103
600 0.185605
Ex : 278
200 0.672087
205 0.60229
210 0.472026
215 0.77761
220 0.93516
225 0.803068
230 0.829346
235 1.05793
240 0.536709
245 0.947279
250 0.945662
255 0.671709
260 0.568049
265 0.510169
270 0.403772
275 0.81329
280 0.827788
285 0.910185
290 0.64962
295 0.891582
300 0.570101
305 0.516413
310 0.349551
315 0.564365
320 1.24339
325 0.714205
330 1.61496
335 0.981519
340 0.929851
345 0.653997
350 0.888948
355 0.923192
360 0.77883
365 1.65404
370 0.999422
375 1.15651
380 0.974917
385 1.36477
390 1.14007
395 1.05848
400 1.07849
405 1.36358
410 1.40008
415 1.27763
420 1.36568
425 1.97583
430 1.37969
435 0.963539
440 1.5217
445 1.31798
450 1.25896
455 1.39784
460 0.888017
465 1.1032
470 1.13039
475 0.799187
480 0.722548
485 0.830857
490 0.771566
495 0.700205
500 0.654979
505 0.903669
510 0.62709
515 1.03188
520 0.985692
525 1.15481
530 1.48669
535 1.59051
540 0.884576
545 0.984406
550 0.798036
555 1.01145
560 0.965431
565 0.824359
570 0.611773
575 1.16751
580 0.506336
585 0.710483
590 0.559967
595 0.755058
600 6.76654
Ex : 283
200 0.244713
205 0.694326
210 0.306834
215 0.688049
220 0.631408
225 0.522974
230 0.309205
235 0.490569
240 0.335504
245 0.303703
250 0.521737
255 0.631116
260 0.43866
265 0.582973
270 0.4449
275 0.317362
280 0.730041
285 0.493319
290 1.04755
295 0.728681
300 0.492816
305 0.301201
310 0.658768
315 0.448451
320 0.620214
325 0.779675
330 1.23869
335 1.03517
340 1.08927
345 0.912136
350 0.924482
355 0.744904
360 1.29638
365 1.0184
370 0.806806
375 1.10812
380 0.809801
385 1.49214
390 0.937445
395 0.89112
400 0.852255
405 1.01507
410 0.727079
415 0.876965
420 0.602247
425 1.09231
430 1.3166
435 1.1327
440 0.884086
445 0.975387
450 0.814983
455 0.610748
460 0.53627
465 0.845052
470 0.896934
475 1.08339
480 1.07817
485 0.823937
490 0.804047
495 0.77514
500 1.25511
505 0.744371
510 0.65583
515 1.00063
520 0.525727
525 0.994295
530 0.605708
535 0.502272
540 0.429004
545 0.533295
550 0.607693
555 0.999667
560 0.886744
565 1.37549
570 1.14593
575 0.708536
580 0.303535
585 0.641767
590 1.08032
595 0.64439
600 0.0733291
Ex : 288
200 0.24812
205 0.723538
210 0.643467
215 0.373101
220 0.56167
225 0.469467
230 0.485553
235 0.279737
240 0.299261
245 0.385775
250 0.813834
255 0.667096
260 0.445072
265 0.863514
270 0.695623
275 0.534762
280 0.52625
285 0.682805
290 0.374413
295 0.47223
300 0.490442
305 0.67894
310 0.669755
315 0.555782
320 0.468368
325 0.635533
330 1.0025
335 1.05192
340 0.915842
345 0.538131
350 0.935744
355 1.58479
360 0.835193
365 1.02603
370 0.545423
375 0.760473
380 0.701989
385 0.867058
390 0.955687
395 0.802909
400 1.01527
405 0.544858
410 0.885625
415 0.693454
420 0.534915
425 0.710532
430 1.07571
435 0.981846
440 1.24395
445 0.809007
450 0.802906
455 0.83433
460 0.647078
465 0.787972
470 1.16653
475 0.849886
480 0.82507
485 0.611874
490 0.577719
495 0.777155
500 0.612154
505 0.488255
510 1.0999
515 0.596656
520 0.944119
525 0.72528
530 0.7421
535 1.02245
540 1.05833
545 0.531045
550 0.400375
555 0.685164
560 0.407002
565 0.530409
570 1.01452
575 0.798482
580 0.661687
585 0.620782
590 0.503453
595 0.395345
600 0.0449887
Ex : 293
200 0.185027
205 0.59887
210 0.406699
215 0.454096
220 0.488134
225 0.313647
230 0.517806
235 0.911794
240 0.372435
245 0.749904
250 0.24389
255 0.565178
260 0.452475
265 0.254322
270 0.622129
275 0.382459
280 0.626689
285 0.343191
290 0.475221
295 0.554646
300 0.630382
305 0.507721
310 0.451379
315 0.60903
320 0.529659
325 0.656911
330 0.70734
335 0.681794
340 0.947212
345 0.606784
350 0.495355
355 0.556012
360 0.426393
365 0.687556
370 1.28436
375 0.699203
380 0.553462
385 0.66732
390 0.641833
395 0.849945
400 1.11989
405 1.09386
410 0.788071
415 1.03823
420 1.22673
425 0.71171
430 0.858234
435 1.19637
440 0.826418
445 0.87845
450 0.690926
455 0.720932
460 0.733001
465 0.587249
470 0.654935
475 0.54974
480 0.662829
485 0.347959
490 0.525824
495 0.667411
500 0.494804
505 0.990156
510 0.94195
515 0.755737
520 0.407522
525 0.712324
530 0.366901
535 0.786991
540 0.435982
545 0.295491
550 0.429295
555 0.565922
560 0.32869
565 0.358795
570 0.492713
575 0.421455
580 0.748854
585 0.77817
590 0.577046
595 0.513074
600 0.0583859
Ex : 298
200 0.560683
205 0.239895
210 0.304032
215 0.362973
220 0.302002
225 0.264796
230 0.228172
235 0.316693
240 0.295959
245 0.396965
250 0.175728
255 0.363762
260 0.218553
265 0.287495
270 0.16896
275 0.179828
280 0.456983
285 0.194188
290 0.336863
295 0.517464
300 0.218577
305 0.497598
310 0.354618
315 0.170931
320 0.664151
325 0.509393
330 0.992781
335 1.17725
340 0.75033
345 0.730308
350 0.698789
355 0.810976
360 0.666867
365 0.661648
370 0.82801
375 0.673012
380 0.691411
385 0.622891
390 0.954632
395 0.732883
400 0.893571
405 0.94275
410 0.67048
415 0.906111
420 0.864006
425 0.808272
430 0.659696
435 0.821608
440 0.741344
445 0.866739
450 0.619055
455 0.565544
460 0.945614
465 0.741308
470 0.820393
475 0.642195
480 0.383147
485 0.594861
490 0.892807
495 0.326431
500 0.388409
505 0.40296
510 0.241649
515 0.960945
520 0.419004
525 0.415222
530 0.39399
535 0.258973
540 0.372054
545 0.520416
550 0.368188
555 0.427813
560 0.221331
565 0.265945
570 0.252333
575 0.280194
580 0.349893
585 0.462512
590 0.577972
595 0.497438
600 0.993937
Ex : 303
200 0.325554
205 0.226462
210 0.158737
215 0.213198
220 0.302611
225 0.396556
230 0.372148
235 0.252586
240 0.13034
245 0.16025
250 0.257798
255 0.283964
260 0.215508
265 0.225869
270 0.246454
275 0.271066
280 0.450664
285 0.316366
290 0.186247
295 0.509068
300 0.375846
305 0.487629
310 0.565955
315 0.427038
320 0.502329
325 0.868301
330 0.550238
335 0.48298
340 0.786222
345 0.628184
350 0.528961
355 0.763457
360 0.624906
365 0.584121
370 0.556651
375 0.588253
380 0.687248
385 0.83665
390 0.599678
395 0.491323
400 0.754988
405 0.746848
410 0.914179
415 0.909932
420 0.658763
425 0.957628
430 0.658908
435 0.486484
440 0.722594
445 0.721908
450 0.797794
455 0.824846
460 0.743039
465 0.481867
470 0.818976
475 0.571889
480 0.576062
485 0.402561
490 0.529484
495 0.483255
500 0.484203
505 0.43055
510 0.655663
515 0.613418
520 0.464701
525 0.285311
530 0.518906
535 0.322208
540 0.29761
545 0.280074
550 0.265529
555 0.245204
560 0.225783
565 0.378265
570 0.556278
575 0.348932
580 0.327652
585 0.304852
590 0.290354
595 0.422037
600 0.185541
Ex : 308
200 0.219597
205 0.185608
210 0.17337
215 0.153093
220 0.320458
225 0.293032
230 0.25905
235 0.225508
240 0.250538
245 0.259183
250 0.491117
255 0.196025
260 0.162545
265 0.170072
270 0.120757
275 0.194764
280 0.347167
285 0.112324
290 0.45181
295 0.251615
300 0.417743
305 0.375346
310 0.240612
315 0.326098
320 0.383209
325 0.429196
330 0.745435
335 0.918263
340 0.920556
345 0.872654
350 0.440152
355 0.802402
360 0.6645
365 0.423913
370 0.558628
375 0.741054
380 0.588874
385 0.664984
390 0.578736
395 0.594972
400 0.557573
405 0.856222
410 0.613712
415 0.691915
420 0.520454
425 0.54159
430 0.472647
435 0.664971
440 0.605349
445 0.488749
450 0.643412
455 0.51834
460 0.604151
465 0.606769
470 0.69444
475 0.456199
480 0.59288
485 0.442074
490 0.74555
495 0.547636
500 0.584291
505 0.346655
510 0.321633
515 0.402547
520 0.207497
525 0.370119
530 0.353546
535 0.373844
540 0.408346
545 0.312174
550 0.160311
555 0.314057
560 0.26088
565 0.309557
570 0.226302
575 0.428629
580 0.243822
585 0.274103
590 0.148937
595 0.261792
600 0.158226
Ex : 313
200 0.257856
205 0.329084
210 0.19711
215 0.13965
220 0.0900155
225 0.180245
230 0.204793
235 0.253923
240 0.320489
245 0.360471
250 0.199873
255 0.287625
260 0.171438
265 0.186645
270 0.215342
275 0.15095
280 0.129582
285 0.144468
290 0.203336
295 0.258685
300 0.324748
305 0.260531
310 0.369409
315 0.335535
320 0.440928
325 0.703197
330 0.831601
335 0.850321
340 0.811803
345 0.56504
350 0.530908
355 0.774393
360 1.14071
365 1.04085
370 0.895648
375 1.00448
380 1.18612
385 1.13555
390 0.999387
395 1.04607
400 1.36481
405 1.30414
410 1.31037
415 1.08546
420 1.22061
425 1.296
430 0.986737
435 1.03623
440 1.07021
445 0.792375
450 0.847555
455 0.869168
460 1.10434
465 1.20543
470 0.701172
475 0.680316
480 0.780372
485 0.678969
490 0.591154
495 0.422352
500 0.681143
505 0.415383
510 0.406731
515 0.296775
520 0.343997
525 0.345615
530 0.354271
535 0.434424
540 0.283446
545 0.345129
550 0.428061
555 0.343036
560 0.263155
565 0.281213
570 0.3047
575 0.131316
580 0.274142
585 0.19882
590 0.193185
595 0.196824
600 0.0223978
Ex : 318
200 0.0795363
205 0.121455
210 0.108694
215 0.094344
220 0.110604
225 0.152551
230 0.240844
235 0.138394
240 0.166391
245 0.113268
250 0.153297
255 0.306435
260 0.329789
265 0.156596
270 0.271538
275 0.214616
280 0.185463
285 0.269001
290 0.238603
295 0.2778
300 0.207648
305 0.152978
310 0.635312
315 4.79944
320 2.87908
325 1.38134
330 1.25781
335 1.60789
340 1.74405
345 2.32845
350 2.45296
355 3.43336
360 4.50154
365 5.1628
370 5.93682
375 7.37017
380 8.0302
385 8.92504
390 9.76143
395 10.0533
400 10.6618
405 10.6382
410 11.0804
415 11.9725
420 11.5325
425 10.3571
430 10.4681
435 9.78396
440 9.78352
445 9.3754
450 8.21548
455 7.73293
460 7.69606
465 6.8659
470 5.95777
475 5.44845
480 4.49649
485 4.28016
490 4.43326
495 3.1948
500 2.89927
505 2.57335
510 2.22585
515 1.64297
520 1.52917
525 1.49101
530 1.27652
535 1.11685
540 0.691913
545 0.661893
550 0.546814
555 0.595209
560 0.372807
565 0.504014
570 0.421678
575 0.481138
580 0.327746
585 0.338838
590 0.148157
595 0.165165
600 0.139641
Ex : 323
200 0.263082
205 0.23857
210 0.125687
215 0.10547
220 0.136862
225 0.214492
230 0.191922
235 0.141292
240 0.132256
245 0.145349
250 0.231365
255 0.327255
260 0.296916
265 0.165172
270 0.148323
275 0.102907
280 0.0645192
285 0.192663
290 0.187087
295 0.175272
300 0.221268
305 0.173485
310 0.260793
315 37.525
320 167.099
325 65.7551
330 10.8531
335 4.93473
340 5.11957
345 6.71832
350 9.44559
355 12.8366
360 15.758
365 17.9237
370 21.7838
375 24.7411
380 27.4369
385 32.0528
390 35.2285
395 36.5054
400 38.7241
405 40.2195
410 40.2395
415 40.0874
420 38.8883
425 37.4895
430 36.3024
435 36.585
440 34.3592
445 33.5992
450 30.4784
455 28.7169
460 27.1831
465 24.5239
470 22.4847
475 21.0224
480 18.6502
485 16.6142
490 14.7889
495 13.2091
500 11.1857
505 9.88227
510 8.68085
515 7.36343
520 6.23968
525 5.44702
530 4.80511
535 4.1352
540 3.39976
545 2.86318
550 2.41614
555 1.97097
560 1.75234
565 1.44318
570 0.965524
575 0.619917
580 0.60047
585 0.629871
590 0.611661
595 0.421148
600 0.685992
Ex : 328
200 0.178998
205 0.175335
210 0.178196
215 0.266223
220 0.25252
225 0.195056
230 0.145146
235 0.18121
240 0.187698
245 0.191554
250 0.249905
255 0.31398
260 0.237087
265 0.140797
270 0.148014
275 0.207827
280 0.2549
285 0.160375
290 0.398989
295 0.195241
300 0.379809
305 0.383446
310 0.312286
315 9.93399
320 343.302
325 780.882
330 228.99
335 31.9935
340 10.5853
345 8.45225
350 10.475
355 13.7734
360 18.81
365 21.2908
370 24.0244
375 25.7504
380 29.7394
385 33.9527
390 36.8612
395 38.9143
400 40.8985
405 41.7543
410 41.7433
415 41.3034
420 41.0747
425 40.1689
430 38.2153
435 36.4913
440 35.3866
445 33.175
450 31.1184
455 28.8049
460 27.5059
465 24.5899
470 22.769
475 20.7092
480 19.2185
485 17.4518
490 15.3033
495 13.2085
500 12.1077
505 10.4772
510 9.23368
515 8.06521
520 7.11236
525 6.04976
530 4.86626
535 4.48555
540 4.17394
545 3.29996
550 2.78932
555 2.31732
560 2.19471
565 2.00432
570 1.56773
575 1.15819
580 0.992079
585 0.575656
590 0.724529
595 0.576954
600 0.0656551
Ex : 333
200 0.148814
205 0.228868
210 0.274935
215 0.270509
220 0.128882
225 0.273142
230 0.237933
235 0.207315
240 0.295481
245 0.146294
250 0.232234
255 0.166658
260 0.121118
265 0.187989
270 0.242813
275 0.201332
280 0.226106
285 0.384723
290 0.277471
295 0.305202
300 0.347274
305 0.370888
310 0.417801
315 0.882399
320 44.6489
325 890.287
330 1486.35
335 370.547
340 48.8366
345 11.8228
350 7.85211
355 8.26331
360 10.9926
365 15.9418
370 16.5598
375 16.8864
380 17.8011
385 20.9564
390 23.8024
395 24.7974
400 25.1967
405 25.8284
410 27.4185
415 26.9133
420 25.6506
425 23.8093
430 23.3058
435 23.1456
440 21.6563
445 20.8128
450 19.7006
455 18.42
460 16.517
465 15.4301
470 14.1368
475 12.6349
480 12.1895
485 10.8775
490 10.0032
495 8.53183
500 8.0947
505 6.8991
510 5.88311
515 5.51654
520 4.71634
525 4.28055
530 3.9958
535 3.30832
540 2.95862
545 2.65213
550 2.38758
555 1.95669
560 1.64205
565 1.4265
570 1.35753
575 1.2301
580 0.883198
585 0.916223
590 0.655547
595 0.54558
600 0.148544
Ex : 338
200 0.163969
205 0.0987625
210 0.241309
215 0.302587
220 0.224765
225 0.193306
230 0.226726
235 0.151362
240 0.188446
245 0.249678
250 0.238631
255 0.168103
260 0.181537
265 0.228999
270 0.176354
275 0.248553
280 0.275858
285 0.354267
290 0.217555
295 0.291029
300 0.308896
305 0.41301
310 0.440287
315 0.876911
320 1.08146
325 80.2521
330 1272.54
335 1893.77
340 458.706
345 59.1671
350 12.2567
355 6.9263
360 5.92069
365 7.5926
370 11.6082
375 12.4475
380 11.3298
385 12.7241
390 15.3588
395 16.6613
400 16.9919
405 16.6872
410 17.4022
415 18.3816
420 18.0418
425 16.5422
430 15.4903
435 15.18
440 14.552
445 13.6093
450 12.5782
455 11.7775
460 11.0473
465 10.0902
470 9.9751
475 9.21333
480 8.15756
485 7.53575
490 6.82704
495 6.48444
500 6.24299
505 5.51829
510 4.73416
515 4.12531
520 3.86651
525 3.54566
530 3.13614
535 2.86366
540 2.45986
545 2.40304
550 2.08576
555 1.70496
560 1.78728
565 1.37414
570 1.33057
575 1.18715
580 0.863456
585 0.814838
590 0.774884
595 0.649866
600 0.755139
Ex : 343
200 0.214965
205 0.266246
210 0.273907
215 0.217026
220 0.195498
225 0.174911
230 0.214192
235 0.215116
240 0.248091
245 0.227592
250 0.137142
255 0.224915
260 0.187733
265 0.213321
270 0.289516
275 0.273916
280 0.202187
285 0.292804
290 0.324964
295 0.220342
300 0.265109
305 0.384104
310 0.34797
315 0.548755
320 0.9638
325 2.09702
330 88.7737
335 1388.89
340 1996.44
345 483.063
350 61.0626
355 11.7623
360 5.76179
365 4.45272
370 5.32661
375 9.48404
380 11.3261
385 12.398
390 13.3961
395 14.248
400 13.5991
405 13.9213
410 15.7563
415 16.7713
420 15.4274
425 13.9331
430 12.9363
435 13.2147
440 12.6208
445 11.7469
450 10.9902
455 10.3613
460 9.86587
465 9.42976
470 8.71897
475 7.93539
480 7.36954
485 7.38645
490 6.59735
495 6.06451
500 5.5929
505 5.14331
510 4.65088
515 4.37958
520 3.88588
525 3.45477
530 3.14556
535 2.94577
540 2.59749
545 2.39276
550 2.12603
555 1.83126
560 1.73338
565 1.54958
570 1.26938
575 1.08887
580 1.03634
585 0.963716
590 0.964578
595 0.660934
600 0.479128
Ex : 348
200 0.205987
205 0.177216
210 0.169527
215 0.174357
220 0.209432
225 0.160876
230 0.127558
235 0.225826
240 0.139953
245 0.155624
250 0.133687
255 0.164908
260 0.137226
265 0.178304
270 0.278508
275 0.293402
280 0.318576
285 0.214736
290 0.247014
295 0.388154
300 0.225448
305 0.344106
310 0.408201
315 0.48803
320 0.682517
325 1.03911
330 2.31279
335 87.9411
340 1369.94
345 2006.86
350 509.373
355 63.7665
360 11.259
365 5.11407
370 3.80904
375 4.16481
380 8.85438
385 14.2688
390 16.8363
395 16.6118
400 15.0059
405 15.4768
410 17.6561
415 18.6658
420 18.2192
425 16.1517
430 14.7592
435 15.0349
440 14.2297
445 13.6231
450 12.2681
455 10.9588
460 10.5398
465 9.4808
470 9.68477
475 9.05892
480 8.21335
485 7.63811
490 7.29512
495 6.52427
500 6.34028
505 5.51984
510 5.30995
515 4.97224
520 4.37486
525 3.93366
530 3.58296
535 3.34179
540 2.76034
545 2.61809
550 2.27833
555 2.16271
560 1.84199
565 1.67899
570 1.29382
575 1.02709
580 1.0566
585 0.844342
590 0.621878
595 0.603998
600 0.826743
Ex : 353
200 0.202623
205 0.207244
210 0.195668
215 0.131224
220 0.0849577
225 0.148217
230 0.175313
235 0.136017
240 0.127731
245 0.170472
250 0.204326
255 0.122625
260 0.136324
265 0.15189
270 0.282692
275 0.216386
280 0.198128
285 0.206159
290 0.153289
295 0.204601
300 0.182841
305 0.291349
310 0.454597
315 0.471311
320 0.354741
325 0.707992
330 1.30676
335 2.76902
340 98.146
345 1474.1
350 2059.94
355 506.075
360 62.8264
365 11.2099
370 4.83065
375 3.67235
380 5.01763
385 10.6585
390 19.7
395 20.674
400 18.8536
405 16.3328
410 18.8458
415 20.654
420 19.8709
425 17.5954
430 16.0004
435 15.3127
440 15.5775
445 15.1853
450 13.5732
455 12.2992
460 11.0714
465 11.2034
470 10.3997
475 9.74251
480 9.02523
485 8.16558
490 8.15294
495 7.19292
500 7.11398
505 6.49433
510 6.02558
515 5.34759
520 5.01459
525 4.5202
530 4.04326
535 3.76346
540 3.29968
545 3.10142
550 2.70016
555 2.58314
560 2.16357
565 1.84957
570 1.50637
575 1.27394
580 1.01701
585 0.85644
590 0.860021
595 0.694593
600 0.456686
Ex : 358
200 0.181726
205 0.174946
210 0.109119
215 0.158861
220 0.133267
225 0.104117
230 0.11436
235 0.168406
240 0.108602
245 0.130306
250 0.196048
255 0.170745
260 0.113656
265 0.147431
270 0.119951
275 0.136327
280 0.307438
285 0.268352
290 0.173961
295 0.172472
300 0.23689
305 0.13799
310 0.312242
315 0.242508
320 0.405085
325 0.519928
330 0.825056
335 1.4245
340 2.79897
345 88.7514
350 1409.38
355 2141.47
360 531.112
365 65.7907
370 11.6346
375 4.89473
380 4.86607
385 7.81574
390 14.3419
395 19.1248
400 18.2424
405 17.0556
410 17.0779
415 18.5909
420 18.3095
425 16.0843
430 14.7328
435 14.2768
440 14.4276
445 13.8225
450 12.2422
455 11.4756
460 10.7083
465 10.6081
470 9.91548
475 9.52659
480 9.29125
485 8.91065
490 8.47692
495 7.82628
500 6.91333
505 6.67816
510 6.31466
515 5.69404
520 5.14136
525 4.73346
530 4.38057
535 4.13784
540 3.33549
545 3.17814
550 2.91262
555 2.5624
560 2.25007
565 1.92703
570 1.44605
575 1.48004
580 1.05077
585 0.871181
590 0.717503
595 0.653975
600 0.841056
Ex : 363
200 0.123113
205 0.139067
210 0.0963797
215 0.172019
220 0.134013
225 0.164563
230 0.123068
235 0.0941935
240 0.134654
245 0.233682
250 0.204066
255 0.160283
260 0.10347
265 0.201553
270 0.207071
275 0.176376
280 0.149243
285 0.133175
290 0.185968
295 0.208475
300 0.203208
305 0.176251
310 0.235841
315 0.245361
320 0.270699
325 0.380801
330 0.482185
335 0.773377
340 1.37891
345 2.82607
350 83.4502
355 1438.63
360 2323.96
365 594.217
370 73.4275
375 12.4706
380 6.79494
385 10.2735
390 14.4591
395 16.5298
400 18.5361
405 20.0977
410 20.371
415 20.521
420 19.0846
425 16.5359
430 15.4743
435 15.504
440 15.1793
445 14.5392
450 13.5692
455 12.2256
460 11.2963
465 11.1464
470 10.8178
475 10.1993
480 9.48106
485 9.01027
490 9.01751
495 8.21527
500 8.0527
505 7.57022
510 6.88892
515 6.30822
520 5.72716
525 5.06724
530 4.93078
535 4.06809
540 3.69091
545 3.67199
550 3.00551
555 2.81374
560 2.41392
565 2.10739
570 1.84406
575 1.43028
580 1.04886
585 0.854296
590 0.720636
595 0.77111
600 0.421746
Ex : 368
200 0.118265
205 0.227165
210 0.146832
215 0.116774
220 0.145477
225 0.120627
230 0.118228
235 0.21246
240 0.169252
245 0.115459
250 0.0974597
255 0.150326
260 0.115916
265 0.157993
270 0.127121
275 0.133575
280 0.175277
285 0.159763
290 0.201509
295 0.12326
300 0.187552
305 0.158774
310 0.223483
315 0.170683
320 0.297876
325 0.336927
330 0.439705
335 0.600025
340 0.976773
345 1.3678
350 2.44227
355 67.9679
360 1278
365 2146.7
370 586.563
375 72.8494
380 14.2438
385 12.5851
390 17.934
395 19.6841
400 18.9502
405 21.6573
410 26.5376
415 27.7246
420 25.765
425 21.1413
430 18.67
435 17.6843
440 18.2525
445 17.1567
450 15.3085
455 13.6719
460 12.9201
465 12.601
470 12.0305
475 11.7687
480 11.1772
485 10.811
490 9.74178
495 9.51533
500 9.2446
505 8.21107
510 7.28451
515 7.07708
520 6.43669
525 5.89166
530 5.45699
535 4.67569
540 4.25867
545 3.83899
550 3.48069
555 2.87966
560 2.69368
565 2.34531
570 2.04018
575 1.50435
580 1.38686
585 0.968804
590 0.830793
595 0.701561
600 0.638889
Ex : 373
200 0.174883
205 0.0958826
210 0.1354
215 0.1071
220 0.130964
225 0.117653
230 0.0750963
235 0.169809
240 0.177978
245 0.124529
250 0.101392
255 0.171944
260 0.10701
265 0.154211
270 0.153452
275 0.17694
280 0.154641
285 0.155487
290 0.183392
295 0.165571
300 0.236812
305 0.159121
310 0.164705
315 0.134067
320 0.226431
325 0.251179
330 0.459707
335 0.522187
340 0.611104
345 1.00763
350 1.52241
355 2.49379
360 80.3014
365 1326.23
370 2117.53
375 561.248
380 70.7753
385 17.2528
390 18.3428
395 21.3776
400 19.1829
405 17.885
410 22.5846
415 28.4686
420 26.9499
425 22.3058
430 18.2671
435 17.2959
440 17.7737
445 16.6372
450 15.4591
455 13.8724
460 12.717
465 12.7001
470 12.1935
475 11.8718
480 11.3984
485 10.6882
490 10.586
495 9.66477
500 9.47005
505 8.60458
510 8.22697
515 7.35913
520 6.80916
525 6.47383
530 5.98128
535 5.40775
540 4.73589
545 4.22686
550 3.79305
555 3.32186
560 2.84659
565 2.55478
570 2.23302
575 1.62942
580 1.22028
585 1.08156
590 0.886398
595 0.750011
600 0.419618
Ex : 378
200 0.11909
205 0.167199
210 0.0938378
215 0.115556
220 0.0861334
225 0.0816178
230 0.134439
235 0.133237
240 0.1539
245 0.115204
250 0.0821073
255 0.178308
260 0.135591
265 0.153565
270 0.108987
275 0.154491
280 0.124509
285 0.115195
290 0.148654
295 0.161783
300 0.173055
305 0.222772
310 0.177711
315 0.257262
320 0.285887
325 0.229388
330 0.259006
335 0.369197
340 0.531081
345 0.57344
350 0.972408
355 1.54589
360 2.74501
365 75.7175
370 1463.88
375 2498.74
380 655.549
385 84.8089
390 22.1542
395 16.9745
400 14.4113
405 13.5962
410 15.0712
415 18.2457
420 20.5017
425 17.9365
430 15.2155
435 13.6847
440 13.5028
445 13.0896
450 11.7342
455 11.0151
460 10.9821
465 10.8538
470 10.9577
475 10.8962
480 10.725
485 10.2928
490 10.0779
495 9.73369
500 9.17282
505 8.75002
510 8.51119
515 7.60619
520 7.06801
525 6.77985
530 5.91065
535 5.70245
540 5.0338
545 4.5685
550 4.06602
555 3.65022
560 3.07762
565 2.48168
570 2.06851
575 1.72965
580 1.39693
585 1.11786
590 0.916791
595 0.592897
600 0.968567
Ex : 383
200 0.143019
205 0.142086
210 0.185519
215 0.11471
220 0.1066
225 0.107768
230 0.129388
235 0.0799426
240 0.115744
245 0.111881
250 0.0831696
255 0.174532
260 0.137215
265 0.235514
270 0.128502
275 0.178629
280 0.189888
285 0.133628
290 0.122503
295 0.200757
300 0.164968
305 0.138741
310 0.156764
315 0.200825
320 0.156636
325 0.255849
330 0.229511
335 0.3193
340 0.470726
345 0.50527
350 0.683698
355 0.880432
360 1.46157
365 2.75669
370 67.7971
375 1341.99
380 2324.49
385 629.57
390 86.3672
395 23.1817
400 14.565
405 14.0759
410 15.142
415 16.735
420 16.4147
425 17.1041
430 16.0205
435 14.5745
440 13.7471
445 12.6429
450 11.6906
455 10.9105
460 10.8035
465 10.6409
470 10.5813
475 10.4155
480 10.6553
485 10.2874
490 10.3219
495 9.94685
500 9.49222
505 9.04253
510 8.52112
515 7.99896
520 7.35214
525 6.92426
530 6.27784
535 5.3029
540 4.88725
545 4.58698
550 4.03552
555 3.60625
560 3.0881
565 2.67559
570 2.18176
575 1.81281
580 1.35764
585 1.09364
590 0.931983
595 0.693052
600 0.134911
Ex : 388
200 0.188891
205 0.10175
210 0.0842317
215 0.105507
220 0.0825329
225 0.173654
230 0.16156
235 0.147517
240 0.164959
245 0.135309
250 0.0923389
255 0.0948889
260 0.112053
265 0.0741291
270 0.117775
275 0.135882
280 0.111689
285 0.0821493
290 0.10898
295 0.13068
300 0.132277
305 0.175457
310 0.148531
315 0.160576
320 0.138676
325 0.225735
330 0.270625
335 0.3226
340 0.327077
345 0.368142
350 0.480563
355 0.725116
360 0.999345
365 1.52064
370 2.77076
375 73.3331
380 1397.86
385 2364.06
390 635.579
395 90.9867
400 25.3082
405 17.8466
410 19.9991
415 21.6803
420 19.6272
425 17.0187
430 17.5232
435 18.0267
440 17.1327
445 15.8893
450 13.8822
455 12.2507
460 12.2428
465 11.7373
470 11.5542
475 11.516
480 11.2567
485 10.8614
490 10.742
495 10.2769
500 9.64257
505 9.14141
510 8.6251
515 8.15634
520 7.44043
525 6.9758
530 6.49879
535 5.7174
540 5.22601
545 4.59483
550 4.20775
555 3.65169
560 3.20978
565 2.80143
570 2.41589
575 1.89319
580 1.40965
585 1.11321
590 0.905273
595 0.70642
600 0.336921
Ex : 393
200 0.0785053
205 0.158754
210 0.10759
215 0.11202
220 0.142356
225 0.119193
230 0.102662
235 0.0633694
240 0.118811
245 0.137493
250 0.148274
255 0.126541
260 0.101346
265 0.0853384
270 0.168362
275 0.157336
280 0.13655
285 0.112672
290 0.10441
295 0.157192
300 0.189844
305 0.117476
310 0.142778
315 0.215099
320 0.227448
325 0.244564
330 0.208255
335 0.275137
340 0.285618
345 0.367379
350 0.472513
355 0.55649
360 0.717897
365 0.838878
370 1.37698
375 2.54215
380 63.9437
385 1333.79
390 2335.25
395 659.227
400 93.7495
405 25.4788
410 19.5934
415 22.0251
420 21.7406
425 18.3669
430 15.1588
435 15.9865
440 18.503
445 17.3513
450 15.3276
455 12.999
460 11.7124
465 11.5932
470 11.6564
475 11.6234
480 11.4451
485 11.4332
490 10.2539
495 10.4081
500 10.2587
505 9.24827
510 8.67152
515 8.1111
520 7.68914
525 7.00324
530 6.66362
535 5.95711
540 5.19193
545 4.94293
550 4.40591
555 3.87444
560 3.24291
565 3.03432
570 2.48722
575 1.88222
580 1.45391
585 1.17962
590 0.961248
595 0.789519
600 0.376745
Ex : 398
200 0.11527
205 0.0762057
210 0.0804126
215 0.107714
220 0.101544
225 0.0950205
230 0.137114
235 0.142822
240 0.118975
245 0.104307
250 0.132676
255 0.100411
260 0.166861
265 0.135465
270 0.123562
275 0.111317
280 0.111159
285 0.108576
290 0.135353
295 0.173443
300 0.146597
305 0.114067
310 0.172751
315 0.152495
320 0.166338
325 0.168939
330 0.181408
335 0.237244
340 0.262088
345 0.278275
350 0.316969
355 0.419029
360 0.529417
365 0.656247
370 0.989851
375 1.47059
380 2.89317
385 77.5376
390 1534.09
395 2609.91
400 708.964
405 91.9757
410 20.7949
415 15.0325
420 13.9853
425 11.6426
430 9.52322
435 9.13864
440 10.3652
445 12.6712
450 12.0101
455 10.5198
460 9.72978
465 9.40073
470 9.58758
475 10.1061
480 10.1006
485 9.96448
490 10.2726
495 10.1479
500 9.31444
505 9.35727
510 8.89601
515 8.12302
520 7.69895
525 7.21117
530 6.55688
535 5.81898
540 5.28184
545 4.79668
550 4.38765
555 3.82725
560 3.41709
565 3.0335
570 2.53051
575 2.12085
580 1.59429
585 1.1841
590 1.01151
595 0.736642
600 0.780774
Ex : 403
200 0.0619764
205 0.133943
210 0.114186
215 0.143843
220 0.0936161
225 0.0911973
230 0.127038
235 0.0964314
240 0.0985276
245 0.0849715
250 0.169454
255 0.0915861
260 0.120068
265 0.0945839
270 0.0976959
275 0.0988503
280 0.155905
285 0.138763
290 0.152616
295 0.120287
300 0.123227
305 0.2205
310 0.148828
315 0.156018
320 0.172507
325 0.237246
330 0.201336
335 0.190169
340 0.222858
345 0.264778
350 0.265688
355 0.329992
360 0.44263
365 0.560172
370 0.712083
375 1.01228
380 1.55779
385 3.20147
390 81.6285
395 1448.61
400 2340.78
405 631.906
410 79.2031
415 14.9954
420 7.48024
425 5.86381
430 5.03812
435 4.7711
440 5.00346
445 5.89721
450 8.2586
455 9.37809
460 8.53586
465 8.53963
470 8.46749
475 8.76427
480 9.08755
485 9.41288
490 9.80017
495 9.54625
500 9.43589
505 9.11642
510 8.99668
515 8.27976
520 7.62373
525 7.0528
530 6.6544
535 6.13233
540 5.78424
545 5.12015
550 4.37125
555 3.99981
560 3.5501
565 3.0663
570 2.48696
575 1.79933
580 1.57385
585 1.30289
590 0.992931
595 0.747805
600 0.852531
Ex : 408
200 0.0918722
205 0.0635676
210 0.0836883
215 0.113451
220 0.100958
225 0.11909
230 0.148772
235 0.109833
240 0.0995022
245 0.112903
250 0.112853
255 0.105802
260 0.128002
265 0.102673
270 0.123728
275 0.100691
280 0.118515
285 0.0752793
290 0.159603
295 0.139978
300 0.150125
305 0.0874219
310 0.105156
315 0.120097
320 0.117523
325 0.168796
330 0.184781
335 0.261247
340 0.22972
345 0.196963
350 0.241787
355 0.289614
360 0.408334
365 0.404806
370 0.506026
375 0.66727
380 1.15126
385 1.72218
390 3.2043
395 77.3989
400 1532.67
405 2539.57
410 663.745
415 82.1673
420 13.6424
425 5.46521
430 4.47141
435 4.23547
440 3.93416
445 4.26089
450 5.13585
455 7.30204
460 9.19521
465 8.7822
470 9.05876
475 9.05762
480 8.96839
485 9.36056
490 9.26133
495 9.6798
500 9.2047
505 9.29698
510 8.93885
515 8.38335
520 7.75354
525 7.16462
530 6.84449
535 6.032
540 5.47881
545 5.32667
550 4.51944
555 4.09114
560 3.5304
565 3.16975
570 2.56786
575 2.16947
580 1.70071
585 1.35099
590 0.983734
595 0.804026
600 0.925928
Ex : 413
200 0.131339
205 0.0872717
210 0.12467
215 0.10749
220 0.0977715
225 0.115947
230 0.136831
235 0.117959
240 0.10412
245 0.116856
250 0.160204
255 0.114395
260 0.115967
265 0.184927
270 0.097583
275 0.109809
280 0.137208
285 0.146601
290 0.134179
295 0.109392
300 0.17242
305 0.105889
310 0.134725
315 0.121987
320 0.116237
325 0.137377
330 0.225493
335 0.246999
340 0.269832
345 0.231009
350 0.251752
355 0.325095
360 0.373045
365 0.38011
370 0.391636
375 0.440174
380 0.754545
385 1.06905
390 1.66955
395 3.00396
400 82.9692
405 1461.95
410 2375.38
415 627.976
420 77.4548
425 12.9563
430 4.96151
435 4.28054
440 4.02908
445 4.25948
450 4.50267
455 5.08192
460 7.07741
465 9.98144
470 9.93363
475 9.32065
480 9.52449
485 9.22288
490 9.43616
495 9.62681
500 9.27637
505 9.26997
510 8.83195
515 8.24483
520 7.53479
525 7.08914
530 6.85681
535 6.01798
540 5.41977
545 5.0996
550 4.53748
555 4.09619
560 3.48582
565 3.13589
570 2.61869
575 2.06785
580 1.67317
585 1.32
590 1.00735
595 0.804187
600 0.637558
Ex : 418
200 0.093388
205 0.119446
210 0.146804
215 0.106636
220 0.130903
225 0.115664
230 0.0624705
235 0.0777453
240 0.0818909
245 0.111085
250 0.181042
255 0.0984821
260 0.16619
265 0.149569
270 0.10402
275 0.121422
280 0.167795
285 0.121324
290 0.132065
295 0.116365
300 0.0898353
305 0.167423
310 0.150577
315 0.1508
320 0.135111
325 0.174165
330 0.142952
335 0.172193
340 0.175851
345 0.221814
350 0.227184
355 0.283896
360 0.295195
365 0.263578
370 0.313773
375 0.439933
380 0.561493
385 0.669188
390 1.04542
395 1.49956
400 2.64497
405 77.8192
410 1480.16
415 2496.12
420 672.974
425 82.1216
430 13.0318
435 4.65965
440 3.907
445 3.92797
450 3.94321
455 4.37498
460 5.06673
465 6.49059
470 9.55181
475 10.264
480 9.52177
485 9.7269
490 9.33348
495 9.17802
500 9.13
505 8.93125
510 8.45904
515 7.88843
520 7.53738
525 6.92433
530 6.28571
535 5.71256
540 5.40618
545 4.88258
550 4.41142
555 3.98705
560 3.56643
565 3.03189
570 2.50117
575 2.05317
580 1.67291
585 1.338
590 0.899668
595 0.818596
600 0.334577
Ex : 423
200 0.0994638
205 0.147695
210 0.0822947
215 0.0947137
220 0.06063
225 0.0881777
230 0.0856875
235 0.120648
240 0.0894359
245 0.102899
250 0.0815139
255 0.121648
260 0.0933563
265 0.112864
270 0.129727
275 0.12079
280 0.0950319
285 0.0721882
290 0.10114
295 0.132384
300 0.110942
305 0.0976572
310 0.103935
315 0.107116
320 0.125967
325 0.168436
330 0.14761
335 0.214619
340 0.23786
345 0.181308
350 0.158882
355 0.252729
360 0.292639
365 0.316493
370 0.365709
375 0.331454
380 0.381738
385 0.558892
390 0.782917
395 1.11765
400 1.84641
405 3.12272
410 86.7832
415 1695.8
420 2774.07
425 688.198
430 83.791
435 13.0301
440 4.60044
445 3.99926
450 3.96769
455 4.08666
460 4.71662
465 5.39074
470 6.60543
475 8.88324
480 10.0567
485 9.42746
490 9.62035
495 8.96456
500 8.46848
505 8.06952
510 8.0454
515 7.59141
520 7.11706
525 6.88981
530 6.36701
535 5.84177
540 5.14068
545 4.60257
550 4.37187
555 3.75786
560 3.42789
565 2.92651
570 2.35022
575 2.05553
580 1.50985
585 1.23067
590 0.961901
595 0.754531
600 0.394868
Ex : 428
200 0.0960973
205 0.115316
210 0.0896477
215 0.101658
220 0.117492
225 0.128587
230 0.13038
235 0.0926963
240 0.0908931
245 0.133437
250 0.104293
255 0.0848697
260 0.131824
265 0.106015
270 0.145158
275 0.115599
280 0.0900767
285 0.091111
290 0.0794754
295 0.121332
300 0.141833
305 0.0978553
310 0.0725451
315 0.100493
320 0.106338
325 0.122592
330 0.147376
335 0.173419
340 0.182732
345 0.204275
350 0.166016
355 0.238721
360 0.213765
365 0.317162
370 0.238558
375 0.280176
380 0.418104
385 0.598948
390 0.550678
395 0.92744
400 1.28402
405 2.00416
410 3.75163
415 115.521
420 1850.8
425 2669.77
430 677.236
435 82.2532
440 12.8814
445 4.4703
450 3.87483
455 4.2756
460 4.54165
465 4.88627
470 5.67996
475 6.36411
480 8.2382
485 10.2603
490 9.53069
495 8.87778
500 8.63376
505 7.81588
510 7.53963
515 7.27989
520 6.91383
525 6.36699
530 5.67979
535 5.29926
540 4.97031
545 4.68482
550 4.07715
555 3.68492
560 3.1933
565 2.73426
570 2.26854
575 1.97943
580 1.44003
585 1.18802
590 0.868962
595 0.717274
600 0.82556
Ex : 433
200 0.0991504
205 0.102
210 0.154202
215 0.137487
220 0.0937326
225 0.0953007
230 0.143872
235 0.0792608
240 0.090024
245 0.142624
250 0.171401
255 0.114162
260 0.112958
265 0.109814
270 0.129577
275 0.158044
280 0.129444
285 0.133072
290 0.137057
295 0.209208
300 0.131863
305 0.0885412
310 0.159149
315 0.181034
320 0.136976
325 0.143015
330 0.183384
335 0.17653
340 0.285935
345 0.223814
350 0.182441
355 0.213775
360 0.252218
365 0.267757
370 0.287318
375 0.259688
380 0.401123
385 0.44617
390 0.537257
395 0.588282
400 0.809618
405 1.15939
410 1.9287
415 3.39288
420 104.187
425 1826.77
430 2844.87
435 723.356
440 87.9404
445 13.8651
450 4.77543
455 4.05646
460 4.80659
465 4.991
470 5.03557
475 5.7091
480 6.5397
485 7.51689
490 9.64245
495 9.33499
500 8.37794
505 7.65675
510 7.2101
515 6.50241
520 6.10857
525 5.77772
530 5.29067
535 5.05517
540 4.52169
545 4.12733
550 3.74594
555 3.33125
560 3.00435
565 2.59437
570 2.1509
575 1.65156
580 1.20207
585 1.16612
590 0.806865
595 0.6547
600 0.404253
Ex : 438
200 0.0966383
205 0.0850776
210 0.0893482
215 0.12074
220 0.121049
225 0.122485
230 0.12024
235 0.105693
240 0.116229
245 0.136202
250 0.102733
255 0.1158
260 0.11127
265 0.0950386
270 0.128496
275 0.158095
280 0.125307
285 0.179352
290 0.113672
295 0.149815
300 0.114489
305 0.166495
310 0.110219
315 0.0886082
320 0.129381
325 0.190047
330 0.195659
335 0.244385
340 0.167901
345 0.157254
350 0.186897
355 0.25813
360 0.242452
365 0.227888
370 0.298289
375 0.320076
380 0.389733
385 0.273357
390 0.411801
395 0.546664
400 0.649074
405 0.759935
410 1.1701
415 1.7728
420 3.1834
425 95.2268
430 1775.77
435 2875.21
440 712.098
445 86.7373
450 13.5485
455 5.19638
460 4.3203
465 4.82017
470 4.91953
475 5.2064
480 5.61389
485 5.96655
490 6.60548
495 8.49959
500 9.03573
505 7.36926
510 6.79903
515 6.48136
520 5.61034
525 4.92539
530 4.84895
535 4.40758
540 4.25291
545 3.77048
550 3.31313
555 3.0836
560 2.62528
565 2.3167
570 1.99699
575 1.66911
580 1.2402
585 0.985838
590 0.676558
595 0.614188
600 0.71919
Ex : 443
200 0.113872
205 0.0779107
210 0.0502773
215 0.130025
220 0.113913
225 0.114887
230 0.0929041
235 0.136021
240 0.124108
245 0.127125
250 0.0922185
255 0.132732
260 0.123756
265 0.103353
270 0.145514
275 0.197041
280 0.106417
285 0.114973
290 0.139999
295 0.0940358
300 0.140678
305 0.13911
310 0.149016
315 0.147258
320 0.137742
325 0.105362
330 0.14591
335 0.107191
340 0.172659
345 0.133198
350 0.176472
355 0.219781
360 0.209702
365 0.299182
370 0.285153
375 0.364322
380 0.288647
385 0.309442
390 0.575051
395 0.505973
400 0.545182
405 0.664744
410 0.84387
415 1.20565
420 1.89391
425 3.40048
430 116.873
435 1994.3
440 3018.33
445 738.531
450 89.9971
455 14.585
460 5.44373
465 4.67295
470 4.86169
475 4.67519
480 5.1593
485 5.19594
490 5.36086
495 5.60298
500 7.16515
505 7.76743
510 6.72023
515 5.89716
520 5.47215
525 4.97679
530 4.39129
535 3.74131
540 3.66971
545 3.33547
550 3.01316
555 2.7637
560 2.36329
565 2.0964
570 1.87155
575 1.39242
580 1.16981
585 0.903605
590 0.679953
595 0.558855
600 0.635627
Ex : 448
200 0.191339
205 0.116881
210 0.0998911
215 0.0929632
220 0.196307
225 0.114371
230 0.0852691
235 0.0936222
240 0.10392
245 0.0890662
250 0.213925
255 0.0847168
260 0.159714
265 0.119008
270 0.0813665
275 0.116691
280 0.118862
285 0.122296
290 0.149231
295 0.123463
300 0.163993
305 0.0876898
310 0.123884
315 0.2145
320 0.162331
325 0.130716
330 0.146289
335 0.191743
340 0.207663
345 0.170183
350 0.138728
355 0.20771
360 0.199921
365 0.231487
370 0.254468
375 0.200543
380 0.228147
385 0.370395
390 0.314268
395 0.357407
400 0.488739
405 0.477598
410 0.638547
415 0.915221
420 1.09776
425 1.94359
430 3.41201
435 122.094
440 2031.87
445 2962.75
450 734.23
455 89.2622
460 14.632
465 5.66529
470 4.40451
475 4.55133
480 4.48828
485 4.47712
490 4.53747
495 4.6435
500 4.85681
505 5.51357
510 6.63074
515 6.1106
520 4.85986
525 4.54024
530 4.11975
535 3.69425
540 3.09751
545 2.87048
550 2.64422
555 2.35396
560 2.08517
565 1.87657
570 1.53884
575 1.3117
580 1.09996
585 0.877687
590 0.706504
595 0.427142
600 0.446074
Ex : 453
200 0.0834021
205 0.11159
210 0.0961304
215 0.115848
220 0.133778
225 0.110104
230 0.112745
235 0.0908245
240 0.129456
245 0.118411
250 0.154392
255 0.101228
260 0.101337
265 0.106887
270 0.0833773
275 0.0991845
280 0.157225
285 0.103309
290 0.10383
295 0.128128
300 0.178179
305 0.123155
310 0.105596
315 0.159717
320 0.117212
325 0.254597
330 0.157358
335 0.125348
340 0.190324
345 0.179976
350 0.203181
355 0.192609
360 0.165195
365 0.170555
370 0.298531
375 0.295982
380 0.30392
385 0.308696
390 0.308983
395 0.293804
400 0.395015
405 0.377513
410 0.540596
415 0.703316
420 0.927937
425 1.25477
430 1.88761
435 3.26848
440 119.766
445 2174.37
450 3338.35
455 793.327
460 96.7393
465 15.8172
470 5.57864
475 4.34174
480 4.36196
485 4.04139
490 4.07071
495 3.74042
500 3.97281
505 3.80822
510 4.3129
515 5.67557
520 5.29771
525 4.02311
530 3.96991
535 3.47551
540 2.86614
545 2.55182
550 2.26537
555 1.94348
560 1.81539
565 1.56532
570 1.42164
575 1.16726
580 1.01689
585 0.773085
590 0.666369
595 0.449146
600 0.199747
Ex : 458
200 0.141556
205 0.123136
210 0.124493
215 0.132946
220 0.151018
225 0.128091
230 0.125835
235 0.15922
240 0.0925039
245 0.133283
250 0.118066
255 0.114441
260 0.115743
265 0.137185
270 0.155934
275 0.118607
280 0.114617
285 0.171995
290 0.153036
295 0.186519
300 0.162135
305 0.166035
310 0.13955
315 0.119314
320 0.149094
325 0.128597
330 0.135578
335 0.185847
340 0.213089
345 0.151068
350 0.171268
355 0.214653
360 0.262366
365 0.269094
370 0.230925
375 0.275076
380 0.214324
385 0.315839
390 0.305359
395 0.349269
400 0.409112
405 0.396735
410 0.465874
415 0.559625
420 0.608367
425 0.943935
430 1.22568
435 2.12031
440 3.54989
445 135.361
450 2224.62
455 3316.77
460 806.948
465 98.5011
470 15.7781
475 5.34977
480 4.06202
485 3.95409
490 3.8399
495 3.51745
500 3.23052
505 3.22192
510 3.09771
515 3.24575
520 4.12612
525 4.85965
530 3.77177
535 3.08087
540 2.91136
545 2.54609
550 2.06785
555 1.80798
560 1.65059
565 1.29682
570 1.20095
575 1.08545
580 0.81144
585 0.752328
590 0.525626
595 0.430093
600 0.12663
Ex : 463
200 0.0887311
205 0.170449
210 0.120127
215 0.120143
220 0.145947
225 0.107001
230 0.158322
235 0.12236
240 0.124463
245 0.132639
250 0.0986344
255 0.131145
260 0.184437
265 0.153935
270 0.12754
275 0.0995027
280 0.168963
285 0.117919
290 0.148744
295 0.122042
300 0.0822816
305 0.162631
310 0.161491
315 0.201252
320 0.10154
325 0.1408
330 0.141622
335 0.192915
340 0.23217
345 0.244187
350 0.275361
355 0.22904
360 0.210967
365 0.276799
370 0.304321
375 0.29268
380 0.26938
385 0.27414
390 0.315975
395 0.349822
400 0.381845
405 0.307132
410 0.460792
415 0.492958
420 0.558303
425 0.613342
430 0.860771
435 1.33132
440 2.08223
445 3.76239
450 131.899
455 2389.09
460 3640.91
465 878.853
470 106.525
475 16.3148
480 5.07244
485 3.50044
490 3.31959
495 3.40776
500 2.99121
505 2.70748
510 2.7035
515 2.59719
520 2.48902
525 3.24458
530 4.3821
535 3.7319
540 2.75146
545 2.35278
550 2.06555
555 1.73599
560 1.42586
565 1.31858
570 1.13611
575 0.97773
580 0.703991
585 0.679319
590 0.606025
595 0.409583
600 0.706204
Ex : 468
200 0.149419
205 0.11297
210 0.128164
215 0.1163
220 0.136434
225 0.124215
230 0.131193
235 0.113888
240 0.149962
245 0.102033
250 0.115976
255 0.123589
260 0.139206
265 0.111112
270 0.183692
275 0.142497
280 0.163358
285 0.169791
290 0.122697
295 0.166748
300 0.178178
305 0.152185
310 0.144976
315 0.124513
320 0.154975
325 0.192375
330 0.171315
335 0.199335
340 0.197924
345 0.180956
350 0.217603
355 0.177406
360 0.158766
365 0.189358
370 0.183072
375 0.21762
380 0.236605
385 0.265879
390 0.264242
395 0.289685
400 0.327961
405 0.329034
410 0.37708
415 0.45447
420 0.480276
425 0.649885
430 0.705334
435 0.878912
440 1.25559
445 2.13574
450 3.69836
455 142.308
460 2370.03
465 3707.86
470 875.267
475 104.931
480 15.6835
485 4.72686
490 3.0091
495 2.79416
500 2.68618
505 2.53354
510 2.3734
515 2.1659
520 2.2584
525 2.16276
530 2.51666
535 3.47046
540 3.63657
545 2.56624
550 2.11112
555 1.91076
560 1.55054
565 1.27075
570 1.10745
575 0.922844
580 0.734446
585 0.650045
590 0.497193
595 0.444993
600 0.501004
Ex : 473
200 0.20771
205 0.152395
210 0.128516
215 0.0934337
220 0.102398
225 0.163596
230 0.131052
235 0.135534
240 0.144181
245 0.0847428
250 0.108549
255 0.162166
260 0.128306
265 0.0941674
270 0.0962305
275 0.13144
280 0.106623
285 0.085233
290 0.10363
295 0.164969
300 0.106333
305 0.164969
310 0.130595
315 0.15612
320 0.186985
325 0.13658
330 0.139313
335 0.191047
340 0.144237
345 0.150771
350 0.251511
355 0.16771
360 0.232231
365 0.153378
370 0.284738
375 0.207851
380 0.244285
385 0.306246
390 0.275173
395 0.354187
400 0.260888
405 0.323533
410 0.422593
415 0.444275
420 0.508767
425 0.50899
430 0.601536
435 0.726684
440 0.971725
445 1.49268
450 2.21142
455 3.94982
460 170.194
465 2576
470 3642.4
475 850.859
480 102.204
485 15.1493
490 4.52888
495 2.88067
500 2.65166
505 2.4323
510 2.30695
515 1.95886
520 1.90033
525 1.9091
530 1.84802
535 1.97952
540 2.75986
545 3.4655
550 2.66267
555 2.15617
560 1.76863
565 1.44657
570 1.15153
575 0.854996
580 0.701847
585 0.654284
590 0.539275
595 0.514627
600 0.365031
Ex : 478
200 0.227034
205 0.131285
210 0.200623
215 0.131299
220 0.11462
225 0.115111
230 0.122288
235 0.147784
240 0.140203
245 0.200322
250 0.166202
255 0.173937
260 0.138219
265 0.148555
270 0.133904
275 0.196334
280 0.139224
285 0.11586
290 0.148729
295 0.154177
300 0.17073
305 0.183679
310 0.1108
315 0.127105
320 0.0919402
325 0.137594
330 0.184971
335 0.201722
340 0.237016
345 0.145376
350 0.213202
355 0.204336
360 0.224945
365 0.205032
370 0.268584
375 0.224055
380 0.262186
385 0.256548
390 0.293537
395 0.345874
400 0.302827
405 0.317206
410 0.343857
415 0.419188
420 0.47853
425 0.473847
430 0.578431
435 0.553254
440 0.773117
445 1.12777
450 1.44363
455 2.70045
460 4.70669
465 181.94
470 2523.85
475 3457.94
480 837.133
485 100.629
490 14.8395
495 4.4136
500 2.60847
505 2.29779
510 2.32132
515 2.28925
520 1.95554
525 1.73118
530 1.71097
535 1.68765
540 1.72279
545 2.03809
550 2.90609
555 2.42405
560 1.71534
565 1.54365
570 1.29843
575 0.903419
580 0.603339
585 0.569034
590 0.421547
595 0.418277
600 0.439031
Ex : 483
200 0.0979356
205 0.105336
210 0.0928927
215 0.149416
220 0.149963
225 0.165024
230 0.184548
235 0.168775
240 0.129537
245 0.174258
250 0.139428
255 0.103309
260 0.14077
265 0.143877
270 0.118134
275 0.104271
280 0.105709
285 0.14479
290 0.189816
295 0.179024
300 0.133453
305 0.114211
310 0.194499
315 0.151626
320 0.158964
325 0.15006
330 0.187531
335 0.130476
340 0.177349
345 0.18258
350 0.160435
355 0.171495
360 0.167843
365 0.191935
370 0.232035
375 0.215867
380 0.270217
385 0.316175
390 0.291928
395 0.258703
400 0.259792
405 0.325383
410 0.363136
415 0.518091
420 0.36901
425 0.372442
430 0.47846
435 0.590472
440 0.674195
445 0.919746
450 1.18464
455 1.59667
460 2.82893
465 4.97052
470 148.395
475 2679.9
480 3945.79
485 922.442
490 110.436
495 15.8757
500 4.33029
505 2.41453
510 2.14302
515 2.00444
520 1.96781
525 1.63053
530 1.69469
535 1.64717
540 1.46663
545 1.38959
550 1.56458
555 2.3926
560 2.56646
565 1.6636
570 1.27781
575 1.11166
580 0.751749
585 0.623301
590 0.469825
595 0.543052
600 0.0864998
Ex : 488
200 0.11919
205 0.120933
210 0.124547
215 0.169942
220 0.0923299
225 0.110802
230 0.236093
235 0.157174
240 0.131892
245 0.132794
250 0.119102
255 0.153907
260 0.139037
265 0.163916
270 0.186893
275 0.14485
280 0.154593
285 0.118262
290 0.144423
295 0.140212
300 0.114268
305 0.185039
310 0.125028
315 0.231998
320 0.172105
325 0.144169
330 0.167938
335 0.227293
340 0.222835
345 0.19095
350 0.222239
355 0.135179
360 0.234717
365 0.19622
370 0.239412
375 0.249183
380 0.194203
385 0.208407
390 0.243671
395 0.320264
400 0.260154
405 0.323617
410 0.361471
415 0.373718
420 0.34811
425 0.395024
430 0.522665
435 0.488322
440 0.672959
445 0.736195
450 0.940682
455 1.30644
460 2.06963
465 3.19923
470 4.78036
475 171.496
480 2765.18
485 3805.77
490 878.569
495 105.297
500 15.1958
505 4.20342
510 2.4307
515 2.02945
520 2.13101
525 1.83666
530 1.73637
535 1.73288
540 1.47952
545 1.36053
550 1.34432
555 1.5442
560 2.09572
565 2.37126
570 1.65783
575 1.12487
580 0.836757
585 0.731624
590 0.617633
595 0.364468
600 0.0414751
Ex : 493
200 0.189046
205 0.16982
210 0.169622
215 0.121653
220 0.123421
225 0.178013
230 0.157375
235 0.142919
240 0.164718
245 0.111235
250 0.110534
255 0.100277
260 0.138518
265 0.116296
270 0.204279
275 0.138355
280 0.100191
285 0.216513
290 0.161237
295 0.14541
300 0.178247
305 0.157174
310 0.139029
315 0.150747
320 0.203859
325 0.186137
330 0.197592
335 0.170454
340 0.152754
345 0.166304
350 0.133196
355 0.214765
360 0.172569
365 0.185137
370 0.219672
375 0.185411
380 0.264761
385 0.193345
390 0.214658
395 0.266222
400 0.252189
405 0.280831
410 0.332645
415 0.317419
420 0.370271
425 0.291529
430 0.389959
435 0.378119
440 0.388984
445 0.53509
450 0.628178
455 0.96535
460 1.31684
465 1.80251
470 2.56817
475 4.30469
480 148.824
485 2871.95
490 4432.58
495 971.296
500 115.683
505 16.2754
510 4.45126
515 2.31951
520 1.80991
525 2.06759
530 2.04371
535 1.66252
540 1.43267
545 1.31254
550 1.37451
555 1.30445
560 1.21794
565 1.43
570 2.00269
575 1.6755
580 0.969737
585 0.648379
590 0.666961
595 0.59378
600 0.702011
Ex : 498
200 0.16201
205 0.15784
210 0.21213
215 0.172137
220 0.168522
225 0.154454
230 0.216109
235 0.167798
240 0.146408
245 0.183923
250 0.119957
255 0.189315
260 0.116971
265 0.140639
270 0.171489
275 0.174634
280 0.16367
285 0.0876822
290 0.179865
295 0.202619
300 0.180434
305 0.140776
310 0.223529
315 0.217015
320 0.152529
325 0.156116
330 0.17882
335 0.20274
340 0.226932
345 0.221837
350 0.188399
355 0.216317
360 0.245258
365 0.207124
370 0.295373
375 0.255697
380 0.200079
385 0.213437
390 0.259416
395 0.241166
400 0.243387
405 0.228678
410 0.257013
415 0.291984
420 0.270371
425 0.430819
430 0.425949
435 0.430689
440 0.446474
445 0.50649
450 0.716481
455 0.823725
460 1.07713
465 1.30824
470 1.78053
475 2.63685
480 4.54522
485 180.756
490 2828.45
495 3922.47
500 895.248
505 107.017
510 15.1568
515 4.08245
520 2.40194
525 2.0596
530 2.03384
535 1.74309
540 1.51074
545 1.31334
550 1.201
555 1.09328
560 1.02711
565 1.02041
570 1.17675
575 1.42087
580 1.4094
585 0.832551
590 0.669771
595 0.590534
600 0.318292
Ex : 503
200 0.120343
205 0.196251
210 0.222179
215 0.150936
220 0.17792
225 0.117524
230 0.132838
235 0.212573
240 0.236267
245 0.155403
250 0.159679
255 0.109847
260 0.206881
265 0.0855634
270 0.148291
275 0.166512
280 0.173956
285 0.182493
290 0.226491
295 0.202751
300 0.170286
305 0.263877
310 0.224194
315 0.163996
320 0.188048
325 0.179888
330 0.280478
335 0.261198
340 0.199576
345 0.150695
350 0.226562
355 0.264198
360 0.243548
365 0.248631
370 0.286545
375 0.215399
380 0.209411
385 0.195136
390 0.241089
395 0.234178
400 0.24705
405 0.3899
410 0.363864
415 0.270569
420 0.271975
425 0.299459
430 0.367499
435 0.391969
440 0.435098
445 0.479045
450 0.581953
455 0.75466
460 0.784402
465 1.12171
470 1.39393
475 1.80339
480 2.5012
485 4.00551
490 143.504
495 2457.6
500 3685.78
505 863.501
510 103.384
515 14.7352
520 4.19531
525 2.48878
530 1.98588
535 1.76673
540 1.59592
545 1.41953
550 1.35029
555 1.20842
560 0.956657
565 0.983178
570 0.935435
575 0.817696
580 1.01984
585 1.15953
590 0.85756
595 0.599782
600 0.856857
Ex : 508
200 0.147033
205 0.111304
210 0.158349
215 0.155813
220 0.138161
225 0.154973
230 0.164242
235 0.214879
240 0.268085
245 0.161149
250 0.172931
255 0.15616
260 0.142088
265 0.120646
270 0.138985
275 0.0729623
280 0.151651
285 0.13295
290 0.191103
295 0.17619
300 0.134777
305 0.178942
310 0.132783
315 0.127066
320 0.154463
325 0.202721
330 0.206724
335 0.158843
340 0.14123
345 0.21572
350 0.214539
355 0.174129
360 0.215173
365 0.178426
370 0.174992
375 0.208484
380 0.230033
385 0.176115
390 0.154805
395 0.246013
400 0.215734
405 0.260372
410 0.314626
415 0.319555
420 0.254448
425 0.235526
430 0.361842
435 0.310308
440 0.426296
445 0.604741
450 0.465282
455 0.567192
460 0.652324
465 0.92063
470 1.13399
475 1.40975
480 2.0546
485 2.96945
490 5.27761
495 204.786
500 3352.8
505 3998.94
510 881.865
515 105.3
520 14.8332
525 3.97788
530 2.32912
535 1.62888
540 1.83674
545 1.63245
550 1.48834
555 1.03339
560 1.11625
565 0.888699
570 0.798664
575 0.695273
580 0.608828
585 0.719391
590 0.989172
595 0.889934
600 0.335973
Ex : 513
200 0.135371
205 0.102942
210 0.166978
215 0.107421
220 0.146089
225 0.130767
230 0.156681
235 0.18249
240 0.155771
245 0.144001
250 0.201635
255 0.140533
260 0.166093
265 0.153289
270 0.16402
275 0.187641
280 0.184989
285 0.133321
290 0.136799
295 0.20449
300 0.140263
305 0.182261
310 0.261474
315 0.167183
320 0.12985
325 0.180262
330 0.151243
335 0.120802
340 0.212463
345 0.338618
350 0.198168
355 0.192714
360 0.187058
365 0.148086
370 0.23947
375 0.211802
380 0.215819
385 0.255869
390 0.319931
395 0.215412
400 0.198131
405 0.302789
410 0.270744
415 0.360092
420 0.365118
425 0.31197
430 0.39481
435 0.391334
440 0.338405
445 0.251541
450 0.460614
455 0.401765
460 0.539856
465 0.622346
470 0.800361
475 0.840966
480 1.25306
485 1.81614
490 2.76147
495 4.56564
500 160.066
505 2483.11
510 3526.83
515 853.959
520 102.145
525 14.5626
530 3.60467
535 2.15757
540 1.59553
545 1.49046
550 1.45833
555 1.27324
560 1.18054
565 1.00774
570 0.754564
575 0.628847
580 0.61459
585 0.533913
590 0.598372
595 0.599119
600 0.205477
Ex : 518
200 0.202635
205 0.171151
210 0.227059
215 0.189913
220 0.171855
225 0.210719
230 0.161262
235 0.127065
240 0.124233
245 0.148868
250 0.168196
255 0.123771
260 0.124133
265 0.142388
270 0.147557
275 0.15746
280 0.179429
285 0.174705
290 0.144043
295 0.156275
300 0.13453
305 0.11737
310 0.183046
315 0.166822
320 0.136577
325 0.126676
330 0.134442
335 0.150656
340 0.276234
345 0.189429
350 0.176257
355 0.118012
360 0.168013
365 0.205844
370 0.172298
375 0.282287
380 0.168047
385 0.135559
390 0.16418
395 0.253335
400 0.251144
405 0.269084
410 0.253956
415 0.258023
420 0.341646
425 0.436149
430 0.271542
435 0.27441
440 0.44346
445 0.389413
450 0.450282
455 0.475575
460 0.609428
465 0.559087
470 0.69598
475 0.732535
480 0.894205
485 1.05738
490 1.82769
495 2.52292
500 4.08424
505 150.846
510 2436.37
515 3627.87
520 891.404
525 106.715
530 14.9411
535 4.0548
540 2.08671
545 1.61033
550 1.30398
555 1.26276
560 1.14106
565 1.00273
570 0.834192
575 0.729388
580 0.650042
585 0.55283
590 0.57976
595 0.389807
600 0.224168
Ex : 523
200 0.146814
205 0.16418
210 0.154876
215 0.136508
220 0.113301
225 0.281109
230 0.256061
235 0.142332
240 0.18756
245 0.160212
250 0.126061
255 0.13266
260 0.10996
265 0.152468
270 0.0849314
275 0.16269
280 0.212525
285 0.104101
290 0.100194
295 0.177255
300 0.141809
305 0.136595
310 0.140767
315 0.125024
320 0.148737
325 0.190894
330 0.205488
335 0.194192
340 0.166491
345 0.197682
350 0.14133
355 0.207498
360 0.2083
365 0.191537
370 0.221798
375 0.16637
380 0.207546
385 0.190417
390 0.197792
395 0.300407
400 0.2737
405 0.355685
410 0.241695
415 0.239244
420 0.292687
425 0.306782
430 0.361611
435 0.336166
440 0.372746
445 0.289003
450 0.391671
455 0.510284
460 0.526148
465 0.529558
470 0.583928
475 0.690264
480 0.715353
485 0.89918
490 1.15447
495 1.58371
500 2.23651
505 4.11175
510 139.611
515 2485.07
520 3936.16
525 981.208
530 116.766
535 15.9395
540 3.62245
545 1.9537
550 1.47133
555 1.05259
560 1.29366
565 1.07012
570 0.932732
575 0.698793
580 0.58806
585 0.53255
590 0.474557
595 0.364468
600 0.0414751
Ex : 528
200 0.0742225
205 0.138998
210 0.140149
215 0.171356
220 0.229993
225 0.212227
230 0.2001
235 0.223
240 0.237248
245 0.143371
250 0.0909818
255 0.156951
260 0.193821
265 0.114362
270 0.148751
275 0.141846
280 0.20863
285 0.1827
290 0.133247
295 0.21089
300 0.193385
305 0.204088
310 0.210684
315 0.180947
320 0.200156
325 0.187093
330 0.17448
335 0.218819
340 0.203601
345 0.186094
350 0.200543
355 0.252923
360 0.233315
365 0.205464
370 0.165661
375 0.247419
380 0.258905
385 0.272001
390 0.20096
395 0.193426
400 0.247853
405 0.244118
410 0.225207
415 0.250476
420 0.228313
425 0.274062
430 0.215079
435 0.314826
440 0.253456
445 0.341652
450 0.455307
455 0.347973
460 0.370462
465 0.512408
470 0.558534
475 0.614815
480 0.670653
485 0.724506
490 0.967676
495 1.21514
500 1.59799
505 2.225
510 3.58746
515 128.676
520 2187.5
525 3348.89
530 845.755
535 100.947
540 13.8066
545 3.55117
550 1.80414
555 1.41192
560 1.27465
565 1.099
570 1.02893
575 0.893929
580 0.62201
585 0.538858
590 0.626582
595 0.489604
600 0.955694
Ex : 533
200 0.149617
205 0.117317
210 0.223685
215 0.223367
220 0.192334
225 0.160714
230 0.230261
235 0.184054
240 0.172413
245 0.210216
250 0.183013
255 0.127857
260 0.142384
265 0.215528
270 0.105009
275 0.220271
280 0.116465
285 0.210585
290 0.129089
295 0.125368
300 0.102842
305 0.202132
310 0.166659
315 0.136939
320 0.226995
325 0.227944
330 0.253942
335 0.180062
340 0.112147
345 0.139973
350 0.187042
355 0.228281
360 0.170293
365 0.164258
370 0.194341
375 0.227022
380 0.23752
385 0.243885
390 0.149876
395 0.354951
400 0.236018
405 0.164985
410 0.308246
415 0.22645
420 0.274469
425 0.373513
430 0.294789
435 0.275955
440 0.252031
445 0.351699
450 0.406581
455 0.444373
460 0.445974
465 0.524027
470 0.561124
475 0.63608
480 0.436745
485 0.535332
490 0.616925
495 0.85176
500 1.16373
505 1.50885
510 2.52066
515 3.96765
520 132.153
525 2288.7
530 3771.1
535 987.712
540 117.429
545 16.034
550 3.70388
555 1.80452
560 1.21012
565 0.871083
570 1.00034
575 0.871226
580 0.633616
585 0.554358
590 0.475925
595 0.41496
600 0.638023
Ex : 538
200 0.104701
205 0.130244
210 0.0995795
215 0.218012
220 0.148884
225 0.130629
230 0.178581
235 0.143047
240 0.161009
245 0.0714367
250 0.229163
255 0.232057
260 0.114094
265 0.110475
270 0.174821
275 0.128704
280 0.241881
285 0.255237
290 0.130906
295 0.105546
300 0.108253
305 0.150412
310 0.139095
315 0.15239
320 0.0977256
325 0.149605
330 0.280525
335 0.184208
340 0.30181
345 0.255029
350 0.235967
355 0.194394
360 0.235722
365 0.220967
370 0.211897
375 0.244059
380 0.306977
385 0.191601
390 0.191591
395 0.270232
400 0.204453
405 0.165462
410 0.183541
415 0.193351
420 0.208475
425 0.273702
430 0.27051
435 0.304019
440 0.310153
445 0.323828
450 0.364128
455 0.326773
460 0.352237
465 0.402323
470 0.429249
475 0.483233
480 0.571691
485 0.527142
490 0.483988
495 0.541845
500 0.858968
505 0.96364
510 1.46294
515 2.02717
520 3.79607
525 110.236
530 2241.94
535 3964.76
540 1050.05
545 125.434
550 16.7507
555 3.75063
560 1.71106
565 1.21555
570 0.854158
575 0.864209
580 0.694823
585 0.606328
590 0.586755
595 0.354625
600 0.478692
Ex : 543
200 0.212929
205 0.206158
210 0.184363
215 0.188975
220 0.153258
225 0.153688
230 0.195678
235 0.17641
240 0.130481
245 0.161285
250 0.135006
255 0.176308
260 0.153959
265 0.215187
270 0.186647
275 0.11395
280 0.134605
285 0.150159
290 0.121041
295 0.178166
300 0.178652
305 0.143161
310 0.210059
315 0.194707
320 0.187046
325 0.116536
330 0.19368
335 0.177492
340 0.185998
345 0.205953
350 0.233522
355 0.201285
360 0.120596
365 0.228457
370 0.237741
375 0.149938
380 0.193857
385 0.241761
390 0.233726
395 0.262325
400 0.278461
405 0.284653
410 0.300796
415 0.2301
420 0.34858
425 0.345385
430 0.2734
435 0.321526
440 0.290244
445 0.313125
450 0.267607
455 0.301191
460 0.364687
465 0.375039
470 0.406273
475 0.475208
480 0.433357
485 0.563153
490 0.60305
495 0.736761
500 0.568313
505 0.697034
510 1.11437
515 1.23321
520 1.82618
525 3.11766
530 97.1471
535 1965.15
540 3281.36
545 895.224
550 107.311
555 14.3653
560 3.15213
565 1.48909
570 1.01377
575 0.707149
580 0.699215
585 0.504609
590 0.572501
595 0.417746
600 0.265376
Ex : 548
200 0.148643
205 0.120553
210 0.186748
215 0.150842
220 0.156118
225 0.181307
230 0.156915
235 0.119522
240 0.210616
245 0.146974
250 0.213429
255 0.150141
260 0.126675
265 0.166318
270 0.191739
275 0.197076
280 0.120921
285 0.164731
290 0.190736
295 0.151467
300 0.168252
305 0.212405
310 0.148527
315 0.165476
320 0.222947
325 0.166711
330 0.18061
335 0.17873
340 0.205801
345 0.250464
350 0.201668
355 0.152083
360 0.23801
365 0.171588
370 0.227399
375 0.191182
380 0.300263
385 0.166431
390 0.257486
395 0.248352
400 0.245043
405 0.156201
410 0.149127
415 0.158186
420 0.278019
425 0.277232
430 0.268617
435 0.323058
440 0.30501
445 0.217534
450 0.276705
455 0.1992
460 0.294272
465 0.360073
470 0.37607
475 0.353161
480 0.379723
485 0.523878
490 0.423202
495 0.51033
500 0.55377
505 0.500959
510 0.826729
515 0.930402
520 1.14805
525 1.68827
530 3.29316
535 102.809
540 1869.56
545 3115.14
550 875.389
555 104.048
560 14.0641
565 3.03593
570 1.33861
575 0.87045
580 0.71445
585 0.677633
590 0.479403
595 0.549428
600 0.309836
Ex : 553
200 0.175789
205 0.124609
210 0.187603
215 0.133281
220 0.139608
225 0.138411
230 0.0860783
235 0.158783
240 0.164377
245 0.209229
250 0.0914701
255 0.110058
260 0.205871
265 0.238556
270 0.152641
275 0.166052
280 0.144371
285 0.173717
290 0.15532
295 0.180352
300 0.167036
305 0.167688
310 0.272533
315 0.197263
320 0.182994
325 0.15784
330 0.22247
335 0.160831
340 0.194116
345 0.138571
350 0.318888
355 0.190994
360 0.243816
365 0.294795
370 0.13218
375 0.168373
380 0.200498
385 0.196775
390 0.275148
395 0.291364
400 0.25633
405 0.305593
410 0.247158
415 0.259865
420 0.297578
425 0.234766
430 0.254881
435 0.259765
440 0.215141
445 0.224836
450 0.21621
455 0.408455
460 0.357083
465 0.336119
470 0.40181
475 0.322025
480 0.489953
485 0.51708
490 0.41569
495 0.494837
500 0.413323
505 0.532429
510 0.564147
515 0.672169
520 0.924104
525 1.41105
530 1.84913
535 3.09277
540 90.7706
545 1815.1
550 3149.93
555 936.883
560 111.839
565 14.6956
570 3.02407
575 1.39653
580 0.933832
585 0.55049
590 0.413884
595 0.396965
600 0.759349
Ex : 558
200 0.244171
205 0.191912
210 0.144905
215 0.289465
220 0.133601
225 0.173648
230 0.201191
235 0.176524
240 0.216505
245 0.191618
250 0.164712
255 0.192182
260 0.113108
265 0.138514
270 0.196462
275 0.155436
280 0.225287
285 0.193001
290 0.199101
295 0.150702
300 0.165689
305 0.185783
310 0.125924
315 0.137371
320 0.167427
325 0.163689
330 0.161464
335 0.217454
340 0.18695
345 0.213333
350 0.171398
355 0.179354
360 0.231368
365 0.20424
370 0.15363
375 0.152261
380 0.273089
385 0.138025
390 0.221354
395 0.212192
400 0.218241
405 0.290231
410 0.240753
415 0.214333
420 0.227363
425 0.214566
430 0.330452
435 0.237627
440 0.251501
445 0.21713
450 0.28589
455 0.331413
460 0.302452
465 0.398758
470 0.348838
475 0.40778
480 0.315402
485 0.322422
490 0.384515
495 0.370889
500 0.423904
505 0.444729
510 0.458679
515 0.578485
520 0.723431
525 1.00723
530 1.18008
535 1.81266
540 2.81121
545 85.4545
550 1626.58
555 2884.45
560 852.162
565 101.529
570 13.3263
575 2.64007
580 1.15862
585 0.812701
590 0.40603
595 0.433386
600 1.69819
Ex : 563
200 0.184721
205 0.192853
210 0.185954
215 0.227951
220 0.205952
225 0.143629
230 0.265298
235 0.170005
240 0.118079
245 0.125256
250 0.160932
255 0.181058
260 0.23285
265 0.159215
270 0.169248
275 0.145025
280 0.197866
285 0.114666
290 0.128652
295 0.176642
300 0.248643
305 0.188807
310 0.115644
315 0.19096
320 0.232979
325 0.199735
330 0.126583
335 0.170708
340 0.144921
345 0.119675
350 0.150888
355 0.19707
360 0.21692
365 0.181464
370 0.16476
375 0.212757
380 0.158183
385 0.19282
390 0.361538
395 0.161489
400 0.287808
405 0.208309
410 0.201882
415 0.171095
420 0.182424
425 0.225104
430 0.241614
435 0.334863
440 0.301615
445 0.32844
450 0.302265
455 0.399961
460 0.476985
465 0.396761
470 0.342105
475 0.340022
480 0.373467
485 0.430564
490 0.375262
495 0.461299
500 0.466331
505 0.404794
510 0.446647
515 0.493329
520 0.599018
525 0.719146
530 0.872439
535 1.19088
540 1.89139
545 2.6666
550 80.8712
555 1578.54
560 2694.73
565 799.211
570 95.5375
575 12.3471
580 2.30069
585 0.892698
590 0.664895
595 0.506358
600 0.794744
Ex : 568
200 0.28688
205 0.189367
210 0.172709
215 0.129641
220 0.17699
225 0.134148
230 0.199231
235 0.186677
240 0.153635
245 0.136977
250 0.111755
255 0.223901
260 0.145573
265 0.201129
270 0.220888
275 0.204458
280 0.159616
285 0.230726
290 0.320789
295 0.237069
300 0.199234
305 0.138616
310 0.154735
315 0.155679
320 0.179343
325 0.358212
330 0.141732
335 0.230579
340 0.173028
345 0.162498
350 0.151147
355 0.178677
360 0.164134
365 0.270901
370 0.250602
375 0.165405
380 0.180773
385 0.186383
390 0.322069
395 0.278143
400 0.165144
405 0.317575
410 0.19876
415 0.258565
420 0.284214
425 0.23921
430 0.332206
435 0.298063
440 0.260883
445 0.266683
450 0.300222
455 0.264343
460 0.34145
465 0.262663
470 0.403366
475 0.418386
480 0.381493
485 0.293336
490 0.423573
495 0.449341
500 0.457253
505 0.438846
510 0.43894
515 0.468121
520 0.659512
525 0.633223
530 0.562159
535 0.793372
540 1.07733
545 1.47936
550 2.66723
555 62.4014
560 1473.45
565 2762.97
570 853.512
575 102.513
580 12.9482
585 2.22081
590 0.778813
595 0.540106
600 0.470037
Ex : 573
200 0.0751904
205 0.129454
210 0.192424
215 0.245388
220 0.194219
225 0.219098
230 0.0693284
235 0.366614
240 0.148937
245 0.213414
250 0.173963
255 0.168564
260 0.203931
265 0.126734
270 0.204838
275 0.176621
280 0.23931
285 0.272488
290 0.152926
295 0.161504
300 0.130901
305 0.159608
310 0.106868
315 0.162494
320 0.153942
325 0.184801
330 0.217774
335 0.20267
340 0.241119
345 0.169395
350 0.266415
355 0.251375
360 0.289187
365 0.158118
370 0.124219
375 0.192693
380 0.176167
385 0.331993
390 0.206392
395 0.201966
400 0.30712
405 0.331718
410 0.247036
415 0.271333
420 0.195004
425 0.336932
430 0.238641
435 0.25246
440 0.30094
445 0.270127
450 0.247884
455 0.254974
460 0.260426
465 0.272419
470 0.489781
475 0.295303
480 0.357298
485 0.464746
490 0.307575
495 0.416805
500 0.390176
505 0.321884
510 0.403344
515 0.404158
520 0.407869
525 0.470755
530 0.604894
535 0.59431
540 0.631887
545 1.09996
550 1.47723
555 2.60629
560 51.7897
565 1245.94
570 2479
575 790.179
580 94.6875
585 11.9167
590 2.03046
595 0.684324
600 0.497654
Ex : 578
200 0.158999
205 0.209682
210 0.160322
215 0.153537
220 0.135836
225 0.1299
230 0.128117
235 0.136689
240 0.150864
245 0.209631
250 0.283002
255 0.134281
260 0.208092
265 0.132563
270 0.231459
275 0.154327
280 0.170431
285 0.186956
290 0.2287
295 0.198113
300 0.149912
305 0.113663
310 0.139182
315 0.18192
320 0.146909
325 0.248109
330 0.252827
335 0.239192
340 0.164834
345 0.207386
350 0.400331
355 0.172281
360 0.245743
365 0.17431
370 0.1714
375 0.109082
380 0.239147
385 0.155371
390 0.23485
395 0.265039
400 0.242189
405 0.298558
410 0.226368
415 0.25776
420 0.264177
425 0.250351
430 0.22334
435 0.275486
440 0.215799
445 0.327678
450 0.303614
455 0.285612
460 0.386258
465 0.269995
470 0.323368
475 0.318356
480 0.300172
485 0.280916
490 0.378089
495 0.405813
500 0.251455
505 0.343945
510 0.3705
515 0.301049
520 0.361332
525 0.534454
530 0.40108
535 0.507007
540 0.53383
545 0.738159
550 1.18609
555 1.32338
560 2.35945
565 47.7679
570 1249.08
575 2424.77
580 716.405
585 85.3212
590 10.8035
595 1.86157
600 0.254039
Ex : 583
200 0.143573
205 0.250926
210 0.186576
215 0.086638
220 0.244451
225 0.224686
230 0.291564
235 0.134236
240 0.125678
245 0.125189
250 0.13191
255 0.232918
260 0.313196
265 0.162862
270 0.167479
275 0.134845
280 0.141308
285 0.170845
290 0.151554
295 0.247662
300 0.211001
305 0.195923
310 0.145499
315 0.172911
320 0.120151
325 0.230529
330 0.305415
335 0.174352
340 0.200856
345 0.204756
350 0.142672
355 0.230367
360 0.204562
365 0.144077
370 0.3534
375 0.304464
380 0.137337
385 0.237105
390 0.210117
395 0.21853
400 0.139708
405 0.260626
410 0.192251
415 0.206466
420 0.251746
425 0.211903
430 0.227983
435 0.171576
440 0.170755
445 0.279121
450 0.299893
455 0.321971
460 0.262052
465 0.225893
470 0.399771
475 0.24605
480 0.23056
485 0.361367
490 0.299041
495 0.282179
500 0.230059
505 0.27768
510 0.241976
515 0.419353
520 0.238142
525 0.439993
530 0.316307
535 0.480738
540 0.429547
545 0.45568
550 0.668227
555 0.864936
560 1.18971
565 2.25296
570 39.556
575 1086.53
580 2189.47
585 644.898
590 76.6839
595 9.74537
600 2.13249
Ex : 588
200 0.152241
205 0.125357
210 0.0732733
215 0.144451
220 0.0989577
225 0.086483
230 0.143763
235 0.249515
240 0.163606
245 0.180436
250 0.184422
255 0.164808
260 0.105462
265 0.129096
270 0.181459
275 0.141061
280 0.117938
285 0.106697
290 0.171295
295 0.241659
300 0.188108
305 0.150843
310 0.116574
315 0.192997
320 0.120515
325 0.237467
330 0.219073
335 0.144624
340 0.141632
345 0.126354
350 0.266583
355 0.261097
360 0.199911
365 0.207516
370 0.231194
375 0.229121
380 0.325138
385 0.272224
390 0.285771
395 0.202795
400 0.131102
405 0.203056
410 0.14303
415 0.158302
420 0.205031
425 0.208892
430 0.20758
435 0.270753
440 0.205928
445 0.253967
450 0.163478
455 0.229487
460 0.404445
465 0.469017
470 0.276933
475 0.435234
480 0.18845
485 0.302563
490 0.264473
495 0.20499
500 0.368321
505 0.27652
510 0.296265
515 0.19343
520 0.329006
525 0.282662
530 0.428037
535 0.409248
540 0.290104
545 0.496178
550 0.39848
555 0.654601
560 0.78327
565 1.11334
570 1.64193
575 34.7938
580 891.582
585 1808.74
590 557.808
595 66.2794
600 9.02366
Ex : 593
200 0.332851
205 0.18445
210 0.094559
215 0.221463
220 0.155118
225 0.239525
230 0.126987
235 0.193427
240 0.126961
245 0.0732183
250 0.147997
255 0.176985
260 0.192049
265 0.31177
270 0.163179
275 0.264157
280 0.121391
285 0.14157
290 0.259659
295 0.170218
300 0.292864
305 0.159494
310 0.212494
315 0.326563
320 0.206239
325 0.125854
330 0.348525
335 0.201197
340 0.173064
345 0.175761
350 0.237654
355 0.250973
360 0.155874
365 0.191506
370 0.260404
375 0.219029
380 0.197713
385 0.177128
390 0.198943
395 0.216316
400 0.154766
405 0.223867
410 0.25342
415 0.175141
420 0.148947
425 0.227682
430 0.257227
435 0.273559
440 0.29326
445 0.264156
450 0.205249
455 0.260609
460 0.182005
465 0.293029
470 0.280688
475 0.238711
480 0.155941
485 0.233183
490 0.262265
495 0.272548
500 0.230102
505 0.332683
510 0.307782
515 0.197945
520 0.256196
525 0.290644
530 0.331554
535 0.331516
540 0.386089
545 0.50603
550 0.355341
555 0.425833
560 0.598121
565 0.904205
570 1.05875
575 1.40889
580 32.132
585 790.418
590 1437.76
595 421.297
600 58.4892
Ex : 598
200 0.131524
205 0.293435
210 0.318587
215 0.140404
220 0.161704
225 0.200646
230 0.190612
235 0.232426
240 0.272334
245 0.142103
250 0.108312
255 0.122025
260 0.112767
265 0.114166
270 0.103445
275 0.132856
280 0.162032
285 0.132918
290 0.105343
295 0.133597
300 0.177313
305 0.18029
310 0.161492
315 0.241405
320 0.279898
325 0.355241
330 0.132986
335 0.18449
340 0.225009
345 0.12265
350 0.116043
355 0.182803
360 0.248529
365 0.174576
370 0.161086
375 0.145125
380 0.234774
385 0.230288
390 0.259815
395 0.219011
400 0.299333
405 0.155391
410 0.183381
415 0.235526
420 0.37427
425 0.24205
430 0.159981
435 0.156839
440 0.226346
445 0.172644
450 0.392324
455 0.242819
460 0.309928
465 0.181757
470 0.287138
475 0.271769
480 0.312762
485 0.249933
490 0.294692
495 0.274412
500 0.23155
505 0.316005
510 0.249493
515 0.319864
520 0.242769
525 0.299153
530 0.238485
535 0.330443
540 0.292628
545 0.243141
550 0.264631
555 0.466287
560 0.453674
565 0.560032
570 0.606262
575 0.905904
580 1.43645
585 28.8678
590 694.787
595 1233.16
600 768.884
Ex : 603
200 0.143727
205 0.133229
210 0.132141
215 0.142541
220 0.159839
225 0.275924
230 0.220404
235 0.27961
240 0.193713
245 0.179979
250 0.227571
255 0.130816
260 0.163292
265 0.101007
270 0.191406
275 0.152085
280 0.142144
285 0.293762
290 0.146521
295 0.186671
300 0.229792
305 0.128827
310 0.304266
315 0.177436
320 0.241303
325 0.259757
330 0.176082
335 0.211872
340 0.227833
345 0.143784
350 0.110714
355 0.176516
360 0.123984
365 0.258336
370 0.0977289
375 0.101321
380 0.134819
385 0.174985
390 0.171293
395 0.167545
400 0.173797
405 0.121269
410 0.320361
415 0.338251
420 0.179961
425 0.237075
430 0.180861
435 0.279403
440 0.16653
445 0.24199
450 0.173577
455 0.237976
460 0.206082
465 0.231588
470 0.171158
475 0.278743
480 0.282199
485 0.21483
490 0.174851
495 0.165079
500 0.306626
505 0.23489
510 0.222515
515 0.376931
520 0.261241
525 0.263727
530 0.27734
535 0.208731
540 0.388433
545 0.300707
550 0.259326
555 0.247868
560 0.404808
565 0.326353
570 0.381636
575 0.638546
580 0.797375
585 1.03361
590 23.9631
595 550.969
600 1123.07
