File format V 1.0
jeu. 5. janv. 23:53:06 2017
Operator : 
Comments : 

=============================================
SpectroFluorometer parameters
Mode : 3D measurement
Data : Fluorescence
Phospho. : Ordinary
Spectrum : Fluorescence

Scan speed : 2400 nm/mn
Response : 100 ms
PM Voltage : 700 V
Shutter : On

Lambda Ex. Start : 203
Lambda Ex. End : 603
Lambda Ex. Step : 5
Ex. Slit : 5 nm

Lambda Em. Start : 200
Lambda Em. End : 600
Lambda Em. Step : 5
Em. Slit : 5 nm

Repetition : 1
Decal lambda em : 10
=============================================
DATA
Ex : 203
200 1.57616
205 4.54926
210 5.58259
215 2.99658
220 3.74113
225 4.21117
230 3.22091
235 5.68375
240 4.69719
245 5.37195
250 2.86654
255 2.27973
260 1.8011
265 2.86914
270 4.14934
275 3.78444
280 8.2281
285 2.57152
290 3.24664
295 3.27693
300 4.16636
305 2.36431
310 7.48953
315 7.27452
320 4.41824
325 4.28081
330 1.73792
335 3.61684
340 6.89883
345 5.17706
350 2.74709
355 3.47677
360 2.01646
365 6.81596
370 5.20128
375 4.24028
380 4.27181
385 5.70677
390 2.58506
395 4.92146
400 2.29416
405 2.85898
410 4.54678
415 5.24009
420 6.72095
425 5.39856
430 3.79913
435 3.23055
440 4.61492
445 4.00047
450 4.24969
455 7.85054
460 6.7898
465 4.2605
470 3.25488
475 6.90183
480 4.56313
485 3.60705
490 7.63732
495 5.81071
500 3.5795
505 4.12257
510 6.48721
515 4.65229
520 7.37287
525 3.89936
530 3.17231
535 6.84487
540 3.34278
545 3.25423
550 5.30614
555 2.53913
560 4.01332
565 4.09241
570 2.35627
575 2.70519
580 6.39311
585 3.59767
590 3.69226
595 8.5408
600 0.971911
Ex : 208
200 2.93827
205 6.52678
210 2.70048
215 5.05073
220 3.97187
225 5.66495
230 4.86412
235 1.55127
240 3.99057
245 3.41575
250 3.67251
255 1.98582
260 3.27913
265 1.1396
270 4.68552
275 2.92309
280 3.61717
285 4.13939
290 3.23428
295 3.37029
300 3.20902
305 3.31391
310 4.08193
315 4.05566
320 3.60845
325 4.52856
330 5.83854
335 7.83084
340 5.8514
345 7.95637
350 4.40941
355 5.4043
360 3.53946
365 5.45077
370 3.07136
375 5.78418
380 5.15121
385 3.34457
390 4.59447
395 5.05018
400 3.8223
405 4.01013
410 4.10226
415 2.83715
420 4.76569
425 5.85379
430 2.217
435 3.4567
440 6.50383
445 3.5996
450 2.78709
455 7.00713
460 8.30584
465 3.1249
470 4.88258
475 6.99681
480 14.1058
485 3.4326
490 4.34137
495 5.52842
500 7.16771
505 3.59172
510 1.81234
515 3.87269
520 4.1605
525 4.43628
530 2.16573
535 4.46298
540 3.87104
545 5.97476
550 6.74561
555 4.33078
560 6.48381
565 3.06483
570 3.91073
575 7.07688
580 5.18606
585 5.88011
590 4.34364
595 3.11461
600 0.354431
Ex : 213
200 4.1976
205 4.62854
210 6.89022
215 3.63904
220 5.57071
225 2.27224
230 4.84396
235 4.61698
240 7.23522
245 4.13774
250 6.04873
255 2.71842
260 4.24295
265 4.40078
270 3.3282
275 4.15776
280 8.50885
285 3.18093
290 8.27669
295 2.78811
300 2.7023
305 1.97129
310 3.16916
315 4.62232
320 4.81348
325 5.15368
330 4.37745
335 5.86236
340 3.65222
345 2.45621
350 6.68916
355 3.08605
360 1.86421
365 5.38257
370 5.38352
375 2.35916
380 2.99845
385 3.41929
390 2.89234
395 7.53934
400 4.84587
405 3.91091
410 3.72131
415 6.23178
420 2.15071
425 3.25262
430 6.47245
435 3.25241
440 5.4281
445 2.8855
450 2.47547
455 6.69692
460 5.12297
465 4.4456
470 7.46005
475 5.51702
480 5.60667
485 4.35561
490 3.11974
495 4.61695
500 4.07564
505 7.42599
510 5.15493
515 4.01327
520 4.4387
525 5.79946
530 3.62628
535 3.8861
540 2.04731
545 3.57506
550 4.93748
555 7.29825
560 4.8445
565 5.6353
570 4.42679
575 2.12846
580 2.15616
585 4.29158
590 1.8727
595 3.38913
600 0.38567
Ex : 218
200 2
205 5.0143
210 4.43192
215 11.3692
220 5.96362
225 5.74182
230 5.96501
235 2.05666
240 3.60161
245 3.58185
250 3.94028
255 3.17388
260 3.40972
265 3.92202
270 2.67593
275 2.63932
280 3.35342
285 4.12028
290 3.8038
295 3.55337
300 2.29131
305 3.33368
310 3.65354
315 2.90963
320 4.89984
325 4.19161
330 3.78956
335 3.27975
340 4.30433
345 3.58891
350 4.56398
355 1.44828
360 3.12937
365 5.12089
370 2.39853
375 6.37917
380 3.75899
385 4.5201
390 2.40309
395 5.7722
400 4.01299
405 3.70803
410 2.59459
415 3.51268
420 2.76092
425 6.20277
430 6.61562
435 2.8475
440 5.49924
445 3.42526
450 3.97436
455 5.60557
460 8.03769
465 4.93564
470 4.55525
475 3.31126
480 3.25424
485 2.86627
490 6.54235
495 5.42692
500 6.24353
505 4.13367
510 7.17636
515 3.67536
520 6.63939
525 6.09534
530 4.03572
535 5.38063
540 7.10345
545 6.03753
550 3.08991
555 5.81846
560 5.75779
565 3.66534
570 2.45477
575 4.23057
580 5.35272
585 7.04273
590 7.39188
595 2.58736
600 6.05476
Ex : 223
200 3.84516
205 2.28109
210 3.14815
215 4.77118
220 2.86786
225 8.14354
230 2.51518
235 5.63148
240 3.78188
245 3.31185
250 3.72028
255 2.69666
260 3.90886
265 3.6308
270 5.09125
275 1.64835
280 3.32115
285 1.46245
290 3.13098
295 1.18447
300 2.20629
305 4.77725
310 2.62672
315 2.11455
320 3.04126
325 3.47417
330 5.70646
335 4.31024
340 5.61625
345 6.65654
350 7.09468
355 6.43532
360 5.17352
365 3.59757
370 4.58971
375 4.87898
380 6.07455
385 3.91808
390 5.64123
395 3.06176
400 3.96229
405 5.17908
410 4.05937
415 3.89258
420 3.80836
425 3.83558
430 5.33332
435 2.37395
440 5.37383
445 7.5868
450 3.80662
455 4.13375
460 4.03751
465 8.60592
470 4.19992
475 5.62973
480 2.67776
485 4.74648
490 5.32904
495 3.78328
500 7.81939
505 3.67586
510 5.06323
515 3.98722
520 7.42011
525 4.7561
530 3.48365
535 2.61194
540 6.29149
545 5.7252
550 3.73874
555 6.10919
560 2.15912
565 1.82238
570 4.45807
575 7.25068
580 3.0079
585 3.7958
590 9.38915
595 5.39521
600 5.39945
Ex : 228
200 4.65
205 3.01818
210 2.52142
215 3.90727
220 2.49716
225 4.53165
230 2.98663
235 3.23117
240 5.81231
245 2.66053
250 4.72234
255 4.63676
260 3.48346
265 4.17318
270 2.9747
275 3.38581
280 6.83041
285 3.27822
290 3.93935
295 6.29723
300 4.25562
305 2.94048
310 3.76359
315 3.38912
320 3.06946
325 4.28973
330 3.60298
335 7.8354
340 4.14804
345 4.304
350 4.24189
355 6.66983
360 7.25071
365 5.52096
370 1.35475
375 3.98881
380 6.13784
385 3.96634
390 3.76947
395 4.89502
400 3.62252
405 3.07084
410 5.07761
415 3.89326
420 2.80817
425 3.42661
430 6.95206
435 3.58532
440 4.84982
445 5.53489
450 4.8435
455 7.37803
460 6.62629
465 4.43478
470 1.50234
475 3.99099
480 1.49518
485 2.26851
490 4.04466
495 2.1712
500 8.77421
505 8.33766
510 3.28663
515 3.42537
520 5.86341
525 3.09588
530 5.80427
535 2.64266
540 7.20501
545 6.26822
550 7.68332
555 4.19499
560 1.71903
565 7.53256
570 2.69504
575 2.21038
580 0.955432
585 3.40413
590 4.4608
595 3.20294
600 9.52192
Ex : 233
200 1.6383
205 5.2718
210 3.82292
215 4.7005
220 5.46128
225 2.77295
230 3.55146
235 4.09017
240 2.87905
245 1.95315
250 4.04462
255 5.00452
260 2.43934
265 2.40846
270 3.16543
275 3.4035
280 2.48333
285 1.77619
290 4.53571
295 2.78536
300 1.94426
305 2.7249
310 2.73625
315 3.68517
320 3.85454
325 4.07619
330 2.28057
335 4.04725
340 2.30799
345 4.20751
350 3.34386
355 2.83839
360 2.11532
365 3.5688
370 6.48801
375 6.04667
380 3.12277
385 2.49827
390 3.90337
395 5.61199
400 5.11275
405 4.27101
410 3.22741
415 1.73732
420 4.62357
425 5.77482
430 6.0708
435 3.48387
440 4.24151
445 5.31177
450 3.38498
455 4.47991
460 3.52289
465 2.15403
470 3.78994
475 3.89644
480 3.35171
485 3.37113
490 3.13651
495 4.24508
500 2.17884
505 3.19471
510 3.61949
515 3.17219
520 2.64917
525 3.07824
530 6.24408
535 4.28474
540 4.91368
545 8.27069
550 7.16545
555 3.37923
560 4.7611
565 3.00983
570 2.75316
575 5.17183
580 4.58641
585 2.71863
590 4.44499
595 3.62886
600 9.27499
Ex : 238
200 1.85
205 1.99133
210 3.83136
215 3.28746
220 2.17159
225 2.40752
230 1.43285
235 2.14865
240 2.12605
245 1.91354
250 1.75764
255 2.84958
260 2.21484
265 5.07744
270 4.55458
275 3.41264
280 4.9344
285 5.1768
290 2.83774
295 4.57496
300 2.62218
305 2.7038
310 3.73404
315 2.75748
320 2.69349
325 4.72456
330 5.00446
335 4.91715
340 4.95649
345 3.30785
350 4.73325
355 3.80783
360 3.74492
365 1.72764
370 4.95477
375 2.23924
380 2.36582
385 5.82849
390 7.03747
395 5.92969
400 4.11968
405 5.6121
410 2.91745
415 3.81801
420 1.98748
425 4.02359
430 6.81322
435 6.09254
440 1.75758
445 2.81708
450 3.45503
455 3.0781
460 2.44295
465 4.9386
470 3.43696
475 3.4326
480 4.03868
485 2.64753
490 3.89459
495 5.14982
500 3.23604
505 5.88289
510 3.95863
515 2.65256
520 2.12252
525 1.20421
530 2.34386
535 3.28535
540 2.62117
545 3.06549
550 2.06937
555 7.54046
560 2.87879
565 2.9683
570 1.44769
575 1.99898
580 2.34913
585 3.55098
590 4.83511
595 2.08602
600 14.0622
Ex : 243
200 1.60159
205 2.69258
210 5.02922
215 2.42349
220 4.81376
225 2.80926
230 2.49491
235 3.79577
240 1.61355
245 2.24759
250 1.72574
255 2.86983
260 2.79697
265 3.052
270 5.01583
275 3.71924
280 2.06235
285 2.0107
290 3.95017
295 1.35834
300 3.62233
305 2.68941
310 0.813498
315 2.35893
320 1.88792
325 2.18543
330 2.73309
335 2.31413
340 4.06136
345 4.49605
350 2.07831
355 2.91813
360 4.93592
365 4.13642
370 2.79847
375 3.19862
380 3.23956
385 3.57142
390 1.86346
395 2.11758
400 1.21949
405 4.11058
410 4.69368
415 2.79572
420 3.12067
425 3.68875
430 2.05699
435 2.10053
440 1.64787
445 3.66642
450 1.72202
455 2.9599
460 4.84808
465 3.43574
470 2.1043
475 3.20202
480 1.34463
485 1.53821
490 2.01447
495 2.86632
500 1.56137
505 3.51114
510 1.79216
515 6.92083
520 4.48067
525 3.80355
530 3.03931
535 2.49435
540 1.44273
545 3.59426
550 4.01947
555 3.65461
560 2.59494
565 3.85539
570 1.94173
575 3.75427
580 2.79174
585 2.2004
590 1.35166
595 2.54957
600 0.290131
Ex : 248
200 2.55903
205 2.41926
210 1.42234
215 1.33033
220 0.872002
225 4.43835
230 3.33901
235 2.35308
240 2.65861
245 1.16086
250 2.6881
255 1.78496
260 2.83576
265 1.32345
270 1.55138
275 2.36788
280 5.74984
285 1.6205
290 2.73579
295 1.59975
300 1.88628
305 0.912302
310 1.03465
315 2.00014
320 3.52279
325 1.5279
330 2.17099
335 3.95
340 3.32811
345 1.55287
350 2.25405
355 1.77439
360 4.053
365 2.14724
370 0.928712
375 2.05658
380 1.45693
385 2.80176
390 2.61843
395 3.01235
400 1.66889
405 2.98241
410 2.51608
415 1.40397
420 1.66343
425 1.06938
430 1.72965
435 2.16894
440 4.4044
445 2.65118
450 3.60779
455 2.67744
460 1.55204
465 2.92008
470 2.51847
475 2.46066
480 1.632
485 2.70556
490 2.19297
495 3.14471
500 3.07703
505 2.55291
510 4.28996
515 2.46388
520 1.57115
525 1.61768
530 1.27675
535 1.63273
540 1.93342
545 3.23622
550 4.93175
555 2.60854
560 3.65338
565 1.60463
570 2.19198
575 2.40252
580 3.6182
585 2.98012
590 2.2775
595 2.2226
600 3.79774
Ex : 253
200 1.06094
205 1.20526
210 2.49238
215 1.31624
220 2.15214
225 2.52009
230 0.80436
235 1.15766
240 3.39818
245 2.50822
250 1.09351
255 1.02083
260 1.93275
265 1.15108
270 1.91367
275 1.67988
280 1.94302
285 0.702191
290 1.78434
295 2.80171
300 0.71095
305 1.29975
310 2.46305
315 3.01054
320 1.259
325 1.29896
330 1.27903
335 1.65519
340 1.62088
345 2.41139
350 2.15377
355 3.51101
360 1.42049
365 2.38878
370 3.77801
375 3.85513
380 1.64811
385 2.9576
390 1.57575
395 1.30766
400 3.44189
405 1.94378
410 1.96339
415 2.11825
420 3.16347
425 1.15489
430 1.38268
435 1.60246
440 4.33021
445 4.30025
450 2.64043
455 2.12745
460 2.43362
465 2.63677
470 2.38785
475 3.4081
480 1.43768
485 2.35702
490 2.11242
495 3.36356
500 1.65994
505 1.46756
510 1.63364
515 2.04693
520 2.19506
525 1.98715
530 1.92317
535 2.65721
540 2.13065
545 3.68183
550 2.07219
555 2.64557
560 3.42435
565 2.84595
570 1.17832
575 1.97068
580 2.74747
585 1.84129
590 2.027
595 1.30677
600 0.148705
Ex : 258
200 1.1895
205 0.947714
210 0.887941
215 1.02426
220 0.82355
225 1.84441
230 1.10227
235 2.80272
240 1.17884
245 1.37647
250 0.854112
255 1.46326
260 1.6442
265 0.598482
270 1.66814
275 0.658279
280 1.14897
285 1.48718
290 1.3339
295 2.14786
300 1.61621
305 0.624086
310 1.57354
315 1.38308
320 1.65069
325 2.80034
330 0.943503
335 0.842896
340 1.09417
345 1.49853
350 2.69092
355 1.37256
360 1.02575
365 1.0711
370 1.4045
375 0.665641
380 0.986915
385 1.56935
390 1.05043
395 1.45502
400 0.821408
405 1.7935
410 0.952534
415 1.30184
420 3.12846
425 1.56354
430 1.37237
435 1.93675
440 1.35367
445 1.94253
450 2.13027
455 1.38927
460 1.78674
465 2.14463
470 1.63904
475 1.96308
480 1.09147
485 1.83944
490 1.05844
495 0.95051
500 1.93952
505 1.23438
510 1.48368
515 1.64584
520 1.37025
525 1.96704
530 2.29504
535 1.82049
540 1.15178
545 1.40432
550 1.46644
555 0.677536
560 1.03477
565 1.05973
570 1.75032
575 1.46202
580 2.15623
585 1.34045
590 1.6502
595 1.85258
600 0.210817
Ex : 263
200 1.38732
205 0.557063
210 1.54406
215 1.15632
220 1.04271
225 1.53162
230 0.876657
235 1.999
240 2.15814
245 1.65872
250 2.13033
255 1.51634
260 1.03209
265 1.31868
270 0.925097
275 0.794542
280 1.10322
285 0.776662
290 1.51789
295 1.30287
300 1.465
305 2.23032
310 0.885006
315 1.54235
320 1.572
325 2.31629
330 0.851262
335 0.807965
340 1.62629
345 1.51831
350 0.990567
355 1.10546
360 0.955534
365 1.31372
370 0.73707
375 1.53361
380 1.00859
385 1.00578
390 1.36926
395 1.63231
400 1.6987
405 1.51876
410 1.27901
415 1.74286
420 2.27334
425 2.45744
430 1.11233
435 1.4648
440 0.979562
445 0.831909
450 0.996557
455 1.62682
460 2.00808
465 1.42943
470 1.44608
475 1.62872
480 1.45772
485 1.26578
490 1.93222
495 0.907235
500 0.881217
505 1.6839
510 1.15853
515 0.812588
520 2.13276
525 1.2208
530 1.24589
535 1.03432
540 1.22902
545 1.08334
550 1.1109
555 1.50253
560 2.03982
565 1.09367
570 2.39112
575 0.850129
580 0.709172
585 1.64234
590 1.59966
595 1.03391
600 2.12638
Ex : 268
200 0.912256
205 0.580805
210 0.547351
215 0.957179
220 1.00507
225 0.897414
230 0.763318
235 1.475
240 0.640992
245 0.712841
250 0.841951
255 1.69638
260 0.844514
265 0.648895
270 0.483148
275 0.782059
280 0.820175
285 1.03259
290 0.939794
295 0.4509
300 2.32145
305 0.706658
310 0.568311
315 0.900878
320 0.859482
325 0.740642
330 0.954373
335 0.627207
340 0.530432
345 0.975725
350 0.534442
355 1.83446
360 0.584985
365 0.584657
370 1.81559
375 1.47907
380 1.24134
385 1.05849
390 0.578284
395 1.38461
400 1.07568
405 1.13364
410 1.30032
415 1.83948
420 0.807482
425 1.30115
430 1.53104
435 1.09736
440 0.6034
445 1.04264
450 0.738866
455 1.1527
460 1.40431
465 1.48294
470 1.00883
475 1.17353
480 0.848381
485 1.027
490 0.752329
495 0.854382
500 1.60913
505 0.752728
510 1.2689
515 0.628788
520 1.10133
525 1.21983
530 1.80014
535 1.31136
540 0.875319
545 1.16725
550 0.402921
555 1.1757
560 0.788917
565 1.64964
570 1.40333
575 0.803203
580 1.0168
585 0.547197
590 0.854011
595 0.684231
600 8.57499
Ex : 273
200 0.624581
205 1.3806
210 0.755948
215 0.660563
220 0.512825
225 0.564056
230 0.369705
235 0.993437
240 1.42535
245 0.517084
250 0.727996
255 0.872893
260 0.838167
265 0.58547
270 0.880707
275 0.731461
280 0.605589
285 0.425606
290 0.422362
295 0.909318
300 0.321
305 1.08504
310 0.875343
315 0.665907
320 0.733987
325 1.0976
330 0.446614
335 1.22177
340 0.781429
345 1.07723
350 1.23584
355 0.557378
360 1.43131
365 1.06501
370 0.756927
375 1.37516
380 1.09022
385 1.00826
390 1.02969
395 2.23884
400 0.853938
405 0.763085
410 1.7756
415 1.05618
420 0.46722
425 0.655866
430 0.856041
435 0.953846
440 1.12321
445 1.04987
450 0.689316
455 0.663236
460 0.489503
465 0.557953
470 0.386838
475 0.836675
480 1.31386
485 1.07816
490 0.397178
495 0.849033
500 0.869794
505 0.548016
510 0.928402
515 0.979023
520 1.59968
525 0.899392
530 0.74294
535 1.15138
540 0.849513
545 0.907284
550 0.784941
555 1.09362
560 0.759283
565 0.373581
570 0.368746
575 0.692182
580 0.995944
585 0.832807
590 1.2063
595 0.795394
600 0.0905128
Ex : 278
200 0.622403
205 0.600923
210 0.392406
215 0.383521
220 0.947427
225 0.8673
230 0.697527
235 0.778501
240 0.782944
245 0.640945
250 0.601918
255 0.476521
260 0.780185
265 0.380937
270 0.755549
275 0.62611
280 0.554485
285 0.390839
290 0.492829
295 0.71628
300 0.580451
305 0.637954
310 0.771287
315 0.4256
320 0.559331
325 0.566717
330 0.430019
335 0.609074
340 0.72053
345 1.07796
350 1.36497
355 1.09347
360 0.814331
365 0.463508
370 0.622851
375 1.22818
380 0.791312
385 0.559544
390 0.929608
395 1.10306
400 0.587822
405 0.769075
410 0.844616
415 1.18295
420 0.924439
425 0.471903
430 0.970687
435 0.998273
440 0.800647
445 0.45464
450 0.937133
455 0.599336
460 0.786768
465 0.49456
470 0.929486
475 0.458002
480 0.723996
485 0.991273
490 0.390448
495 0.709694
500 1.08748
505 0.815619
510 0.603808
515 0.335378
520 0.498863
525 0.261827
530 0.811451
535 0.681802
540 0.501954
545 0.549008
550 0.608709
555 0.764935
560 0.942552
565 0.32759
570 0.89853
575 0.582243
580 0.761398
585 0.36148
590 0.491527
595 0.789148
600 0.089802
Ex : 283
200 0.672821
205 0.598056
210 0.702655
215 0.219957
220 0.366946
225 0.226914
230 0.483502
235 0.767539
240 0.285555
245 0.955485
250 0.438976
255 0.229489
260 0.486001
265 0.609515
270 0.423035
275 0.332848
280 0.292325
285 0.428029
290 0.609571
295 0.53261
300 0.451072
305 0.500748
310 0.645353
315 0.839468
320 0.917099
325 0.611239
330 0.39412
335 0.828053
340 0.421681
345 1.05244
350 0.420524
355 0.515517
360 0.580311
365 1.06493
370 0.508232
375 0.537505
380 0.595829
385 0.800264
390 0.704126
395 0.560599
400 0.98215
405 0.988731
410 0.743043
415 0.872587
420 0.514414
425 0.380492
430 0.597342
435 0.486702
440 0.916325
445 0.574925
450 1.06157
455 0.823723
460 0.782562
465 0.912196
470 0.831781
475 0.582233
480 0.406334
485 0.344519
490 0.659548
495 0.513463
500 0.816131
505 1.00516
510 0.420224
515 0.486965
520 0.654454
525 0.649164
530 0.787126
535 0.776162
540 0.874505
545 0.65306
550 0.713051
555 1.18022
560 0.727543
565 0.607974
570 0.724234
575 0.599146
580 0.551931
585 0.374993
590 0.523927
595 0.357465
600 1.42537
Ex : 288
200 0.61596
205 0.269724
210 0.661092
215 0.202856
220 0.40018
225 0.208288
230 0.30022
235 0.244054
240 0.197813
245 0.281219
250 0.319074
255 0.479689
260 0.352963
265 0.827287
270 0.718715
275 0.57663
280 0.336679
285 0.165393
290 0.131204
295 0.446741
300 0.434767
305 0.249728
310 0.425967
315 0.490174
320 0.312707
325 0.418239
330 0.537632
335 0.392466
340 0.307884
345 0.653434
350 0.702737
355 0.385119
360 0.397311
365 0.380684
370 0.522379
375 0.377968
380 0.468255
385 0.402751
390 0.975874
395 0.721497
400 0.471345
405 0.705111
410 0.564521
415 0.464194
420 0.559542
425 0.368116
430 0.792104
435 0.484068
440 0.644961
445 0.541546
450 0.329392
455 0.340688
460 0.328991
465 0.484696
470 0.329897
475 0.487898
480 0.654097
485 0.454235
490 0.684772
495 0.546013
500 0.519153
505 0.405925
510 0.218036
515 0.382277
520 0.5507
525 0.406354
530 0.277012
535 0.42266
540 0.395639
545 0.660457
550 0.538184
555 0.435492
560 0.488206
565 0.323684
570 0.462851
575 0.520546
580 0.322882
585 0.312304
590 0.334633
595 0.431579
600 0.049112
Ex : 293
200 0.398197
205 0.391738
210 0.429495
215 0.397043
220 0.21666
225 0.325907
230 0.340438
235 0.402953
240 0.630029
245 0.615277
250 0.323285
255 0.318011
260 0.366203
265 0.0993766
270 0.183483
275 0.314711
280 0.251338
285 0.265875
290 0.651166
295 0.897308
300 0.27452
305 0.442996
310 0.179228
315 0.211574
320 0.253798
325 0.185852
330 0.449219
335 0.594926
340 0.339226
345 0.486433
350 0.544132
355 0.446938
360 0.361508
365 0.640229
370 0.522085
375 0.472816
380 0.38956
385 0.475623
390 0.78416
395 1.04073
400 0.567721
405 0.550111
410 0.679235
415 0.763949
420 0.460173
425 0.359602
430 0.707946
435 0.502406
440 0.492492
445 0.36513
450 0.452207
455 0.439588
460 0.455965
465 0.412513
470 0.592335
475 0.6214
480 0.414663
485 0.579098
490 0.623076
495 0.657772
500 0.6485
505 0.531867
510 0.594428
515 0.238159
520 0.376497
525 0.571085
530 0.44506
535 0.433098
540 0.250221
545 0.448429
550 0.503318
555 0.477624
560 0.325083
565 0.428904
570 0.378251
575 0.634636
580 0.540029
585 0.71292
590 0.231881
595 0.349507
600 0.0397726
Ex : 298
200 0.493601
205 0.271601
210 0.122541
215 0.140897
220 0.168503
225 0.229087
230 0.22562
235 0.346929
240 0.18227
245 0.226788
250 0.226768
255 0.454587
260 0.23183
265 0.136593
270 0.395812
275 0.136311
280 0.609872
285 0.400403
290 0.191292
295 0.247542
300 0.287806
305 0.143322
310 0.193876
315 0.531691
320 0.450287
325 0.384281
330 0.355854
335 0.272088
340 0.554276
345 0.634845
350 0.287229
355 0.506854
360 0.499146
365 0.593047
370 0.425643
375 0.501512
380 0.459038
385 0.495942
390 0.625554
395 0.50385
400 0.448116
405 0.502056
410 0.456005
415 0.349893
420 0.428222
425 0.525697
430 0.763536
435 0.475803
440 0.696357
445 0.479968
450 0.42493
455 0.627451
460 0.314101
465 0.375228
470 0.430439
475 0.386275
480 0.348243
485 0.269249
490 0.208533
495 0.313364
500 0.347956
505 0.600129
510 0.382765
515 0.50295
520 0.322152
525 0.740507
530 0.497059
535 0.292199
540 0.388961
545 0.159354
550 0.274993
555 0.266274
560 0.446091
565 0.396789
570 0.302703
575 0.206649
580 0.243441
585 0.378253
590 0.548563
595 0.522875
600 0.0595012
Ex : 303
200 0.215717
205 0.219626
210 0.428459
215 0.401401
220 0.252975
225 0.250075
230 0.242233
235 0.300216
240 0.272784
245 0.50616
250 0.300124
255 0.26526
260 0.206369
265 0.355546
270 0.403428
275 0.440439
280 0.289846
285 0.229997
290 0.390668
295 0.220075
300 0.240426
305 0.319821
310 0.221747
315 0.186394
320 0.160732
325 0.312989
330 0.411212
335 0.227805
340 0.297496
345 0.304804
350 0.302805
355 0.339875
360 0.460526
365 0.66021
370 0.749692
375 0.623604
380 0.428133
385 0.60519
390 0.404845
395 0.551719
400 0.475193
405 0.484165
410 0.719135
415 0.447944
420 0.434677
425 0.2549
430 0.488638
435 0.445915
440 0.496683
445 0.356391
450 0.588126
455 0.437822
460 0.338518
465 0.881617
470 0.438981
475 0.370723
480 0.367422
485 0.363432
490 0.496157
495 0.379463
500 0.315017
505 0.280938
510 0.322459
515 0.238426
520 0.526815
525 0.53876
530 0.273258
535 0.0886231
540 0.203137
545 0.253762
550 0.152812
555 0.338371
560 0.229813
565 0.12328
570 0.326534
575 0.114019
580 0.39499
585 0.292015
590 0.297537
595 0.255144
600 0.0290344
Ex : 308
200 0.150884
205 0.148585
210 0.26086
215 0.166975
220 0.17539
225 0.344653
230 0.14524
235 0.263609
240 0.161264
245 0.240825
250 0.232599
255 0.164871
260 0.23977
265 0.18264
270 0.266626
275 0.283498
280 0.22333
285 0.121687
290 0.298633
295 0.275901
300 0.464158
305 0.27668
310 0.352112
315 0.547308
320 0.414179
325 0.256868
330 0.321406
335 0.493311
340 0.330189
345 0.420365
350 0.399958
355 0.445375
360 0.446402
365 0.578959
370 0.444321
375 0.390889
380 0.30941
385 0.482022
390 0.386986
395 0.449026
400 0.44033
405 0.45508
410 0.562642
415 0.420049
420 0.541785
425 0.811637
430 0.390987
435 0.371782
440 0.411226
445 0.531921
450 0.534272
455 0.338122
460 0.298599
465 0.526109
470 0.323043
475 0.304014
480 0.360342
485 0.156664
490 0.267988
495 0.369084
500 0.236624
505 0.124261
510 0.178378
515 0.184456
520 0.3914
525 0.349881
530 0.350205
535 0.277652
540 0.142833
545 0.217901
550 0.219873
555 0.185334
560 0.254544
565 0.224054
570 0.417766
575 0.365522
580 0.48283
585 0.199196
590 0.159268
595 0.212339
600 0.0241634
Ex : 313
200 0.0863005
205 0.232047
210 0.221295
215 0.409576
220 0.157384
225 0.095557
230 0.172272
235 0.251789
240 0.239177
245 0.206042
250 0.260592
255 0.245217
260 0.215623
265 0.250518
270 0.103387
275 0.198547
280 0.141515
285 0.206316
290 0.175229
295 0.208918
300 0.324334
305 0.142111
310 0.402438
315 0.169339
320 0.269508
325 0.419293
330 0.403006
335 0.408288
340 0.486189
345 0.349458
350 0.27697
355 0.454553
360 0.436586
365 0.603021
370 0.462191
375 0.620079
380 0.703527
385 0.876479
390 0.892404
395 0.712848
400 0.903984
405 0.844493
410 0.826925
415 0.954003
420 0.741947
425 0.815175
430 0.807271
435 0.554843
440 0.652855
445 0.895947
450 0.700529
455 0.580089
460 0.377635
465 0.532167
470 0.404337
475 0.672859
480 0.448238
485 0.517988
490 0.44799
495 0.60139
500 0.361496
505 0.281139
510 0.37194
515 0.46654
520 0.376104
525 0.237937
530 0.343228
535 0.493728
540 0.241706
545 0.279323
550 0.246212
555 0.321149
560 0.311787
565 0.224281
570 0.18819
575 0.32788
580 0.266009
585 0.183419
590 0.198925
595 0.391776
600 0.177513
Ex : 318
200 0.0605656
205 0.0972089
210 0.196984
215 0.205096
220 0.223165
225 0.209077
230 0.249406
235 0.157827
240 0.179306
245 0.102998
250 0.14536
255 0.102203
260 0.126257
265 0.105731
270 0.183524
275 0.30099
280 0.215963
285 0.197272
290 0.200744
295 0.136246
300 0.0749666
305 0.206381
310 0.194583
315 1.16428
320 0.614482
325 0.449932
330 0.553756
335 0.660577
340 0.972375
345 1.18192
350 1.66936
355 2.0022
360 3.18855
365 4.20051
370 4.44337
375 5.81762
380 6.65462
385 7.79264
390 7.7372
395 8.77489
400 9.19377
405 9.29344
410 9.5252
415 9.41162
420 8.74228
425 8.55098
430 7.87444
435 7.95448
440 7.62724
445 6.90629
450 6.95525
455 6.46649
460 6.15615
465 5.88733
470 4.73906
475 4.69026
480 4.10917
485 3.59711
490 3.41866
495 2.50153
500 2.27003
505 1.95809
510 1.64763
515 1.43877
520 1.37469
525 1.36834
530 0.846013
535 0.614546
540 0.524939
545 0.476984
550 0.431616
555 0.500939
560 0.410242
565 0.438926
570 0.388546
575 0.229356
580 0.222531
585 0.136729
590 0.187724
595 0.164376
600 0.0187053
Ex : 323
200 0.2046
205 0.210851
210 0.150109
215 0.225311
220 0.170457
225 0.14615
230 0.180176
235 0.0939788
240 0.168436
245 0.205036
250 0.106732
255 0.1003
260 0.209223
265 0.197774
270 0.139612
275 0.168484
280 0.182236
285 0.169935
290 0.29273
295 0.200496
300 0.145645
305 0.332909
310 0.201227
315 8.33454
320 37.5152
325 15.5998
330 3.26038
335 3.01481
340 4.56699
345 6.06082
350 8.62839
355 11.8179
360 14.007
365 17.3464
370 20.3892
375 24.0978
380 27.7378
385 29.7885
390 33.0017
395 34.8788
400 35.797
405 36.9463
410 37.3682
415 37.3175
420 35.0466
425 34.9959
430 32.43
435 31.1259
440 31.1072
445 28.5039
450 26.8041
455 24.1296
460 23.8217
465 22.0973
470 20.1784
475 17.9385
480 17.0331
485 14.6056
490 13.7791
495 12.029
500 10.3626
505 9.45046
510 8.18368
515 6.6453
520 5.79101
525 4.8291
530 4.17209
535 3.68795
540 3.31689
545 2.37572
550 2.26959
555 1.6793
560 1.34181
565 1.1943
570 0.871377
575 0.853084
580 0.57477
585 0.419846
590 0.39496
595 0.174072
600 0.152739
Ex : 328
200 0.0950757
205 0.294037
210 0.20331
215 0.230263
220 0.180192
225 0.177747
230 0.0797438
235 0.216553
240 0.0835186
245 0.110178
250 0.14119
255 0.16027
260 0.0985414
265 0.232429
270 0.116148
275 0.177151
280 0.146978
285 0.31149
290 0.176338
295 0.0998096
300 0.186636
305 0.159301
310 0.280791
315 2.20506
320 87.3456
325 211.093
330 60.9825
335 10.4713
340 6.19772
345 6.88075
350 9.19065
355 13.2818
360 18.1915
365 20.6384
370 22.8194
375 25.9745
380 29.7276
385 33.8713
390 36.9343
395 37.8691
400 40.1794
405 40.1454
410 40.5633
415 40.124
420 38.2582
425 36.1697
430 34.5358
435 34.0146
440 32.3405
445 30.3573
450 28.3628
455 26.3357
460 24.7118
465 22.8917
470 20.9837
475 18.653
480 17.178
485 16.0385
490 14.4318
495 12.665
500 11.2407
505 9.54177
510 8.47653
515 7.39205
520 6.61747
525 5.3507
530 4.96784
535 3.97747
540 3.61468
545 3.04187
550 2.55533
555 2.03296
560 1.72081
565 1.29567
570 1.38505
575 1.07006
580 0.682601
585 0.470051
590 0.329843
595 0.399559
600 0.0454683
Ex : 333
200 0.219985
205 0.118918
210 0.139909
215 0.127651
220 0.18312
225 0.101529
230 0.202335
235 0.121319
240 0.232422
245 0.167063
250 0.0995121
255 0.0964827
260 0.289669
265 0.152782
270 0.120968
275 0.196316
280 0.119033
285 0.257573
290 0.0683697
295 0.138028
300 0.18682
305 0.232302
310 0.22599
315 0.342181
320 12.0432
325 241.84
330 406.841
335 105.789
340 15.6743
345 6.28427
350 5.87908
355 6.59887
360 9.79711
365 14.6109
370 15.4209
375 15.421
380 17.1674
385 19.2809
390 22.4631
395 23.845
400 23.8478
405 23.478
410 24.7247
415 24.6791
420 23.8107
425 22.3127
430 21.1499
435 20.1962
440 18.2312
445 17.7098
450 16.2157
455 15.3477
460 13.7038
465 12.4422
470 11.8985
475 10.883
480 9.94904
485 8.92097
490 8.05179
495 7.28692
500 6.82861
505 5.88017
510 4.71052
515 4.56501
520 3.83438
525 3.25697
530 2.64
535 2.44484
540 1.95186
545 1.66657
550 1.70182
555 1.21655
560 1.1852
565 0.852969
570 0.80105
575 0.705642
580 0.437732
585 0.491703
590 0.286191
595 0.393234
600 0.541887
Ex : 338
200 0.12947
205 0.152904
210 0.132548
215 0.0913584
220 0.134056
225 0.135354
230 0.147641
235 0.0892786
240 0.107752
245 0.109765
250 0.0923105
255 0.134765
260 0.132752
265 0.20866
270 0.124721
275 0.154702
280 0.0822828
285 0.14621
290 0.181064
295 0.124185
300 0.104786
305 0.179889
310 0.236917
315 0.138561
320 0.271726
325 22.8174
330 360.813
335 528.38
340 130.414
345 18.0717
350 5.72389
355 4.5286
360 3.77796
365 5.79171
370 10.3457
375 10.6925
380 9.75815
385 10.8683
390 12.6428
395 13.7531
400 13.9993
405 13.6914
410 14.9561
415 15.7727
420 14.2765
425 13.5407
430 12.3721
435 11.4318
440 11.4607
445 10.7108
450 9.87048
455 8.88184
460 8.45677
465 7.69668
470 7.16668
475 6.5729
480 5.8232
485 5.19139
490 4.83179
495 4.41244
500 3.87405
505 3.36724
510 2.81275
515 2.58121
520 2.25075
525 2.12584
530 1.87342
535 1.48601
540 1.24251
545 1.23567
550 0.898531
555 1.05368
560 0.848039
565 0.737785
570 0.639537
575 0.502814
580 0.440062
585 0.568989
590 0.34574
595 0.227341
600 0.0258705
Ex : 343
200 0.150916
205 0.117613
210 0.0881101
215 0.0983019
220 0.199455
225 0.0771734
230 0.0886595
235 0.118342
240 0.0783808
245 0.0957289
250 0.163786
255 0.10249
260 0.117414
265 0.0765796
270 0.140669
275 0.163063
280 0.133469
285 0.109312
290 0.129053
295 0.144934
300 0.153064
305 0.205
310 0.144769
315 0.239784
320 0.29332
325 0.50473
330 26.9306
335 421.866
340 611.133
345 145.562
350 19.37
355 4.97809
360 3.04354
365 2.5879
370 3.27333
375 7.71944
380 9.15365
385 9.70843
390 10.774
395 11.2142
400 10.5095
405 11.0576
410 12.1631
415 13.2389
420 12.0237
425 10.9158
430 10.3606
435 10.2477
440 9.81192
445 9.1159
450 8.27932
455 7.3862
460 6.94307
465 6.39191
470 6.06952
475 5.53426
480 5.54902
485 4.64306
490 4.41824
495 3.7305
500 3.51813
505 2.83345
510 2.55134
515 2.29669
520 1.92564
525 1.70977
530 1.46057
535 1.42391
540 1.35895
545 1.16012
550 1.07576
555 0.958243
560 0.803014
565 0.786306
570 0.636395
575 0.481249
580 0.473835
585 0.366885
590 0.382287
595 0.381248
600 0.366729
Ex : 348
200 0.147929
205 0.188805
210 0.100839
215 0.126734
220 0.0569057
225 0.115125
230 0.0477887
235 0.0869251
240 0.116489
245 0.123164
250 0.116576
255 0.0989807
260 0.197252
265 0.12509
270 0.0997169
275 0.0822437
280 0.156729
285 0.103797
290 0.103552
295 0.115757
300 0.206739
305 0.154693
310 0.123656
315 0.162408
320 0.177775
325 0.275899
330 0.641139
335 28.0493
340 423.51
345 648.915
350 165.53
355 21.1524
360 4.84786
365 2.78668
370 1.96142
375 2.7882
380 7.20963
385 12.6428
390 13.8055
395 13.171
400 12.0294
405 12.5198
410 14.4183
415 15.6115
420 14.3715
425 12.9391
430 12.4263
435 11.3566
440 11.5139
445 10.8208
450 10.0251
455 8.11134
460 7.43438
465 7.53329
470 7.03157
475 6.45595
480 5.54434
485 5.09443
490 4.91194
495 4.07386
500 3.91532
505 3.27173
510 2.79629
515 2.99691
520 2.40645
525 2.18557
530 1.73142
535 1.48198
540 1.29505
545 1.20992
550 1.0815
555 0.944759
560 0.781215
565 0.707821
570 0.528972
575 0.518817
580 0.458137
585 0.348638
590 0.328857
595 0.256637
600 0.133787
Ex : 353
200 0.0717513
205 0.0844252
210 0.0478299
215 0.161182
220 0.170732
225 0.0970568
230 0.179207
235 0.167609
240 0.218389
245 0.10068
250 0.153924
255 0.148841
260 0.16411
265 0.135742
270 0.0933898
275 0.15182
280 0.0749426
285 0.187062
290 0.164913
295 0.115345
300 0.171904
305 0.15744
310 0.115871
315 0.185544
320 0.16157
325 0.117396
330 0.400553
335 0.677625
340 28.4685
345 454.085
350 655.775
355 161.056
360 20.6277
365 4.73894
370 2.68792
375 2.21831
380 3.29184
385 8.67352
390 15.7336
395 17.1313
400 14.8985
405 13.4509
410 15.2184
415 17.3793
420 16.5761
425 14.5112
430 12.8275
435 12.7493
440 12.7357
445 11.7723
450 10.5624
455 9.12903
460 8.61413
465 8.0305
470 7.38637
475 6.65687
480 6.43179
485 5.45377
490 4.77733
495 4.43289
500 3.86303
505 3.61037
510 3.24475
515 2.88556
520 2.52889
525 2.2767
530 1.91295
535 1.74873
540 1.63655
545 1.45766
550 1.09525
555 0.981904
560 0.893854
565 0.824994
570 0.693698
575 0.575968
580 0.415068
585 0.327797
590 0.38771
595 0.285455
600 0.826481
Ex : 358
200 0.128795
205 0.0596194
210 0.0644357
215 0.0828357
220 0.0647857
225 0.151072
230 0.133761
235 0.0812852
240 0.0894647
245 0.0915923
250 0.162591
255 0.110646
260 0.132126
265 0.0954655
270 0.118371
275 0.174309
280 0.0840075
285 0.115154
290 0.111268
295 0.130348
300 0.0573845
305 0.142089
310 0.181252
315 0.129766
320 0.138631
325 0.186605
330 0.261289
335 0.372597
340 0.612699
345 27.6841
350 438.391
355 674.89
360 167.775
365 21.0991
370 4.26277
375 2.88236
380 3.45508
385 6.02704
390 11.9616
395 16.6324
400 15.1307
405 13.9309
410 15.0135
415 16.3507
420 15.3653
425 13.712
430 12.3817
435 11.7833
440 12.2085
445 11.4735
450 10.2785
455 9.2649
460 8.62399
465 7.6481
470 7.38651
475 6.71031
480 6.10872
485 5.63166
490 5.03627
495 4.42012
500 4.02495
505 3.86428
510 3.28783
515 2.58732
520 2.71438
525 2.48267
530 1.93775
535 1.64585
540 1.63878
545 1.55564
550 1.30148
555 1.07944
560 0.937243
565 0.775282
570 0.701906
575 0.707819
580 0.563353
585 0.377478
590 0.324019
595 0.284443
600 0.225636
Ex : 363
200 0.0674825
205 0.100401
210 0.0745601
215 0.123502
220 0.0891006
225 0.0655602
230 0.0634279
235 0.113824
240 0.0788993
245 0.135534
250 0.148878
255 0.0929352
260 0.0590251
265 0.136966
270 0.120332
275 0.0874905
280 0.132806
285 0.141322
290 0.0871043
295 0.123153
300 0.14166
305 0.0978735
310 0.225728
315 0.14099
320 0.116927
325 0.168429
330 0.140886
335 0.22115
340 0.348569
345 0.7017
350 26.3418
355 431.393
360 677.418
365 176.024
370 22.2751
375 4.79116
380 4.50251
385 8.46617
390 11.6481
395 13.6258
400 15.72
405 17.3433
410 18.0132
415 18.4032
420 17.1011
425 15.1919
430 13.2988
435 12.9323
440 12.7635
445 12.3683
450 11.542
455 10.1095
460 9.05744
465 8.89646
470 8.22858
475 7.39948
480 6.68563
485 6.18216
490 5.70688
495 5.04532
500 4.39179
505 3.98443
510 3.68164
515 3.22986
520 2.86748
525 2.58002
530 2.21537
535 1.87561
540 1.87779
545 1.51606
550 1.34311
555 1.34622
560 0.800546
565 0.886218
570 0.71806
575 0.639673
580 0.553769
585 0.383523
590 0.29857
595 0.265477
600 0.0302103
Ex : 368
200 0.100232
205 0.118884
210 0.0674731
215 0.0973353
220 0.0808679
225 0.0958802
230 0.132349
235 0.0598456
240 0.0468868
245 0.0722954
250 0.0900804
255 0.0894447
260 0.074691
265 0.0697833
270 0.0584092
275 0.061273
280 0.0885915
285 0.163642
290 0.0621554
295 0.101703
300 0.127909
305 0.118629
310 0.0721366
315 0.114192
320 0.142856
325 0.233687
330 0.147027
335 0.258585
340 0.226349
345 0.503545
350 0.623433
355 21.7699
360 422.071
365 698.143
370 185.248
375 23.7069
380 6.8012
385 9.81041
390 14.7834
395 16.6602
400 15.5085
405 18.5038
410 23.6582
415 25.094
420 22.7558
425 18.917
430 16.8753
435 16.6552
440 16.441
445 15.5701
450 14.135
455 12.0483
460 11.1442
465 10.26
470 9.84075
475 8.67732
480 8.13224
485 7.19023
490 6.24958
495 5.68582
500 5.08434
505 4.4995
510 3.98422
515 3.38072
520 3.36448
525 2.81407
530 2.28025
535 2.04843
540 1.79082
545 1.39794
550 1.52845
555 1.33112
560 1.12666
565 0.998999
570 0.777376
575 0.728098
580 0.482745
585 0.372735
590 0.241952
595 0.226712
600 1.99606
Ex : 373
200 0.111423
205 0.0705199
210 0.130463
215 0.0795374
220 0.0744481
225 0.065974
230 0.0675508
235 0.0833784
240 0.120252
245 0.101634
250 0.0717198
255 0.108196
260 0.135723
265 0.130394
270 0.153851
275 0.070239
280 0.0652789
285 0.0638817
290 0.0698437
295 0.0761032
300 0.0956808
305 0.11325
310 0.0685441
315 0.126894
320 0.0888243
325 0.11943
330 0.188536
335 0.125791
340 0.259136
345 0.234996
350 0.336031
355 0.722729
360 25.907
365 433.039
370 697.918
375 184.855
380 24.4413
385 9.62693
390 14.4656
395 17.7314
400 16.3822
405 15.4424
410 19.8389
415 26.3878
420 24.3517
425 20.1117
430 16.8906
435 15.6149
440 16.2348
445 15.3123
450 13.9916
455 12.0283
460 10.5823
465 9.89854
470 9.1485
475 8.82347
480 7.88297
485 6.77331
490 6.22219
495 5.58997
500 5.16223
505 4.63879
510 4.04719
515 3.48141
520 3.25215
525 2.79124
530 2.33168
535 2.22724
540 1.81213
545 1.62729
550 1.43779
555 1.36611
560 1.15127
565 0.968579
570 0.802611
575 0.622293
580 0.415993
585 0.479919
590 0.364984
595 0.295135
600 0.0335852
Ex : 378
200 0.0681304
205 0.0849251
210 0.0742273
215 0.0834786
220 0.113114
225 0.105185
230 0.0784283
235 0.0522379
240 0.0776415
245 0.0548317
250 0.102776
255 0.0525607
260 0.0772104
265 0.113718
270 0.136024
275 0.111471
280 0.127477
285 0.0779573
290 0.0742159
295 0.0830954
300 0.0864789
305 0.0859729
310 0.200765
315 0.118955
320 0.119713
325 0.0731795
330 0.118255
335 0.159644
340 0.122792
345 0.160606
350 0.309798
355 0.359488
360 0.791706
365 24.6287
370 435.258
375 713.587
380 190.926
385 27.9889
390 12.9219
395 13.2401
400 11.9618
405 11.6571
410 13.2989
415 17.4072
420 19.8044
425 16.9363
430 13.5682
435 12.8405
440 12.7348
445 12.3251
450 11.18
455 9.85877
460 9.06646
465 8.80454
470 8.10945
475 7.6298
480 6.66546
485 6.05349
490 5.6701
495 4.94817
500 4.73258
505 4.27699
510 3.8148
515 3.22357
520 3.17403
525 2.92615
530 2.3307
535 1.90185
540 1.93841
545 1.81533
550 1.48721
555 1.27961
560 1.10846
565 0.986251
570 0.686917
575 0.640061
580 0.455414
585 0.335972
590 0.329444
595 0.404406
600 0.0750758
Ex : 383
200 0.114789
205 0.084326
210 0.0792539
215 0.0795217
220 0.12549
225 0.0534318
230 0.0663358
235 0.0722352
240 0.0965064
245 0.0867009
250 0.0626364
255 0.072598
260 0.116124
265 0.0713676
270 0.0843971
275 0.086037
280 0.0725056
285 0.0741202
290 0.0772063
295 0.0679661
300 0.0519319
305 0.100069
310 0.0799066
315 0.0806707
320 0.0628589
325 0.0626195
330 0.0751658
335 0.130016
340 0.108854
345 0.171145
350 0.212096
355 0.308909
360 0.316451
365 0.773828
370 22.6505
375 435.417
380 747.947
385 206.248
390 33.9878
395 14.3898
400 11.2999
405 12.3542
410 14.1699
415 15.9633
420 16.2153
425 16.0972
430 15.3185
435 13.9105
440 13.6105
445 12.3394
450 11.2533
455 10.1328
460 9.34189
465 8.98848
470 8.25006
475 7.46512
480 6.85623
485 6.40251
490 5.67278
495 5.06691
500 4.88182
505 4.37562
510 3.83146
515 3.50537
520 3.14685
525 2.7799
530 2.5061
535 2.08925
540 1.75171
545 1.67998
550 1.51202
555 1.22763
560 1.05992
565 0.972373
570 0.780057
575 0.596043
580 0.453865
585 0.333466
590 0.310471
595 0.17076
600 0.0756987
Ex : 388
200 0.124176
205 0.0424691
210 0.100131
215 0.0758662
220 0.0681574
225 0.0670619
230 0.0564843
235 0.0669652
240 0.0626501
245 0.0613589
250 0.0610802
255 0.0537208
260 0.120033
265 0.0698465
270 0.102393
275 0.0421549
280 0.0852429
285 0.0799452
290 0.0742357
295 0.0807236
300 0.0727115
305 0.138398
310 0.0934764
315 0.0588023
320 0.075836
325 0.0688911
330 0.18029
335 0.116892
340 0.130904
345 0.145216
350 0.143114
355 0.218385
360 0.262572
365 0.42201
370 0.781822
375 24.9797
380 449.869
385 754.019
390 210.582
395 37.9602
400 15.8866
405 14.6537
410 18.0076
415 20.3459
420 19.3545
425 16.8315
430 17.0907
435 17.8631
440 17.5018
445 15.5646
450 13.4661
455 11.3991
460 10.1359
465 9.63888
470 9.37621
475 8.66389
480 7.96314
485 7.27282
490 5.98454
495 5.64934
500 5.15136
505 4.72885
510 4.22497
515 3.81705
520 3.39797
525 2.749
530 2.78349
535 2.26558
540 1.91815
545 1.63873
550 1.52533
555 1.31835
560 1.11427
565 1.08021
570 0.828592
575 0.592101
580 0.472798
585 0.298306
590 0.304478
595 0.282318
600 0.267998
Ex : 393
200 0.073002
205 0.0810133
210 0.126459
215 0.042827
220 0.10255
225 0.0992403
230 0.0809929
235 0.130562
240 0.0986865
245 0.0467362
250 0.0377396
255 0.0694216
260 0.109154
265 0.0662529
270 0.0682906
275 0.0718838
280 0.123467
285 0.0573579
290 0.0614193
295 0.0403328
300 0.0817969
305 0.0700582
310 0.0660176
315 0.0912435
320 0.115543
325 0.0948475
330 0.0651135
335 0.125969
340 0.0860591
345 0.103414
350 0.157563
355 0.0924556
360 0.232874
365 0.230435
370 0.422106
375 0.880455
380 22.7376
385 448.075
390 777.313
395 218.941
400 38.5341
405 16.2789
410 16.4752
415 20.1526
420 20.2444
425 16.8835
430 14.6034
435 15.1213
440 17.5269
445 16.1142
450 13.8608
455 11.5234
460 9.7413
465 9.01834
470 8.90743
475 8.18841
480 7.55992
485 6.73186
490 5.85089
495 5.37425
500 5.12159
505 4.6226
510 4.10932
515 3.40911
520 3.29237
525 2.81911
530 2.5035
535 2.28723
540 2.05785
545 1.67918
550 1.47981
555 1.17406
560 1.05899
565 0.916104
570 0.811172
575 0.630361
580 0.542389
585 0.36733
590 0.441572
595 0.263697
600 0.0300077
Ex : 398
200 0.0474921
205 0.0685548
210 0.0608233
215 0.0655176
220 0.0718646
225 0.0701281
230 0.0724949
235 0.0871071
240 0.108757
245 0.0678089
250 0.0733396
255 0.0977626
260 0.107995
265 0.147291
270 0.0610967
275 0.0546112
280 0.0444664
285 0.0616616
290 0.0739411
295 0.0853374
300 0.12286
305 0.0769762
310 0.0738782
315 0.124683
320 0.0810936
325 0.0518535
330 0.092025
335 0.146207
340 0.108178
345 0.107765
350 0.0816032
355 0.111834
360 0.124591
365 0.223747
370 0.284032
375 0.431356
380 1.06244
385 24.4069
390 461.301
395 798.788
400 218.246
405 32.3156
410 12.1449
415 13.1228
420 13.1774
425 11.0338
430 9.21073
435 8.68206
440 10.4155
445 12.3696
450 11.5317
455 8.99877
460 7.78181
465 6.94344
470 6.46752
475 6.33491
480 6.01443
485 5.30306
490 5.11519
495 4.24799
500 4.38377
505 3.92585
510 3.38547
515 3.09595
520 2.81957
525 2.54209
530 2.32118
535 1.90186
540 1.81229
545 1.55734
550 1.46016
555 1.30291
560 1.13533
565 1.0112
570 0.726161
575 0.621956
580 0.475779
585 0.354322
590 0.331007
595 0.252178
600 0.0286969
Ex : 403
200 0.0682524
205 0.106097
210 0.0799333
215 0.0496309
220 0.068073
225 0.0578552
230 0.066499
235 0.0623908
240 0.0937515
245 0.0700058
250 0.0620458
255 0.0732841
260 0.117994
265 0.106287
270 0.0822331
275 0.0954558
280 0.0310514
285 0.0484496
290 0.0554884
295 0.0473423
300 0.0926805
305 0.123118
310 0.0567154
315 0.0508405
320 0.0582451
325 0.0736263
330 0.0699051
335 0.0825009
340 0.110383
345 0.130941
350 0.106637
355 0.111668
360 0.178464
365 0.17224
370 0.234628
375 0.227805
380 0.491502
385 1.02734
390 27.227
395 477.06
400 784.833
405 214.227
410 29.5312
415 8.93598
420 7.00943
425 6.58167
430 5.89849
435 5.52974
440 5.91883
445 6.65201
450 8.3358
455 8.55553
460 6.93758
465 5.96925
470 5.72718
475 5.31603
480 4.98874
485 4.61648
490 4.18223
495 4.02771
500 3.82945
505 3.56502
510 3.19161
515 3.12761
520 2.72274
525 2.44619
530 2.10823
535 1.89693
540 1.82892
545 1.58684
550 1.33693
555 1.18728
560 1.13482
565 0.897473
570 0.680231
575 0.568009
580 0.506684
585 0.316669
590 0.264316
595 0.211311
600 0.227388
Ex : 408
200 0.125355
205 0.0539653
210 0.0426519
215 0.0845075
220 0.0756808
225 0.08593
230 0.0754178
235 0.0764769
240 0.0616729
245 0.057677
250 0.0486208
255 0.0642879
260 0.12111
265 0.0835418
270 0.0530431
275 0.0434957
280 0.0494132
285 0.0657956
290 0.0978734
295 0.0432959
300 0.0455999
305 0.110722
310 0.0781024
315 0.117762
320 0.0910833
325 0.115898
330 0.0732021
335 0.108553
340 0.0792443
345 0.0652054
350 0.0468215
355 0.116982
360 0.139253
365 0.121997
370 0.213418
375 0.16944
380 0.264884
385 0.493738
390 1.16527
395 25.1308
400 483.997
405 792.021
410 210.318
415 29.4292
420 8.45444
425 5.74282
430 5.50071
435 5.4234
440 5.97353
445 6.33774
450 5.90712
455 7.05232
460 8.25886
465 6.61
470 6.03209
475 5.64683
480 4.96988
485 4.71406
490 4.31598
495 4.13212
500 3.62581
505 3.62125
510 3.25592
515 2.93302
520 2.64306
525 2.46686
530 2.09881
535 2.06367
540 1.81387
545 1.54069
550 1.27403
555 1.28979
560 1.06243
565 0.81684
570 0.70654
575 0.578397
580 0.50657
585 0.339711
590 0.237093
595 0.263084
600 0.0749992
Ex : 413
200 0.0521621
205 0.0397604
210 0.0531382
215 0.0431254
220 0.0426213
225 0.0325262
230 0.070902
235 0.0954177
240 0.0550939
245 0.0410491
250 0.0799344
255 0.0477193
260 0.0538524
265 0.0749927
270 0.0938757
275 0.0653039
280 0.127762
285 0.109013
290 0.0877683
295 0.0561923
300 0.0497925
305 0.0625466
310 0.0724921
315 0.126505
320 0.0755279
325 0.0545014
330 0.0837395
335 0.116333
340 0.112267
345 0.120932
350 0.1141
355 0.0851923
360 0.0960637
365 0.134643
370 0.148923
375 0.136993
380 0.19597
385 0.296129
390 0.498188
395 0.94807
400 28.1867
405 498.17
410 804.052
415 207.698
420 28.8705
425 7.46101
430 5.03426
435 5.42761
440 5.71142
445 5.57633
450 5.42459
455 4.97271
460 5.9395
465 7.40957
470 6.40661
475 5.67024
480 5.03817
485 4.48532
490 4.00315
495 3.59205
500 3.31441
505 3.2139
510 2.89389
515 2.64919
520 2.6292
525 2.27207
530 2.03778
535 1.74731
540 1.4861
545 1.56208
550 1.25975
555 1.3199
560 0.985353
565 0.829695
570 0.742324
575 0.592073
580 0.427376
585 0.34541
590 0.262788
595 0.239849
600 0.597418
Ex : 418
200 0.0885478
205 0.109112
210 0.104447
215 0.04686
220 0.0569533
225 0.0820761
230 0.0537804
235 0.0580435
240 0.0376703
245 0.0796323
250 0.100362
255 0.115857
260 0.0395098
265 0.0555595
270 0.0783292
275 0.0861265
280 0.0478071
285 0.0556756
290 0.09761
295 0.0849874
300 0.0794638
305 0.0715274
310 0.0574629
315 0.0591248
320 0.104677
325 0.0912418
330 0.0767613
335 0.053084
340 0.0787952
345 0.0833348
350 0.0762616
355 0.111617
360 0.106272
365 0.166844
370 0.178032
375 0.122516
380 0.152248
385 0.192235
390 0.319245
395 0.539271
400 0.967817
405 26.6164
410 495.613
415 813.619
420 218.517
425 28.4254
430 5.98174
435 3.59286
440 3.83538
445 3.85507
450 3.33455
455 3.12029
460 3.0403
465 3.65272
470 5.57785
475 5.62644
480 4.31769
485 4.05332
490 3.4927
495 3.04141
500 2.95005
505 2.67398
510 2.5459
515 2.34036
520 2.18633
525 1.8309
530 1.80169
535 1.69383
540 1.35002
545 1.29878
550 1.21567
555 1.21248
560 0.981201
565 0.891888
570 0.694481
575 0.462787
580 0.386204
585 0.435494
590 0.261528
595 0.240645
600 0.0273844
Ex : 423
200 0.0984532
205 0.0725295
210 0.0747954
215 0.0588813
220 0.0480969
225 0.0731394
230 0.0505398
235 0.0532252
240 0.0764578
245 0.0623656
250 0.0444386
255 0.0673551
260 0.0494158
265 0.0356382
270 0.0765207
275 0.0389935
280 0.0413191
285 0.0319398
290 0.0858912
295 0.0402707
300 0.056802
305 0.0600994
310 0.0479998
315 0.0867292
320 0.0767252
325 0.0659729
330 0.0667326
335 0.0871819
340 0.0283403
345 0.0776836
350 0.0912534
355 0.0871366
360 0.125956
365 0.0664834
370 0.0774504
375 0.0890377
380 0.111974
385 0.180919
390 0.223044
395 0.265872
400 0.545214
405 0.897977
410 27.9187
415 513.609
420 803.909
425 202.986
430 25.3816
435 4.67892
440 2.35549
445 2.49838
450 2.31303
455 2.00502
460 1.89392
465 2.12976
470 2.51003
475 4.19962
480 4.88851
485 3.61093
490 3.02237
495 2.81723
500 2.46101
505 2.2922
510 2.19299
515 2.10448
520 1.97484
525 1.67609
530 1.62707
535 1.41394
540 1.42516
545 1.14378
550 1.18144
555 0.877667
560 0.884822
565 0.801838
570 0.579723
575 0.636089
580 0.459999
585 0.315921
590 0.29745
595 0.22258
600 0.321699
Ex : 428
200 0.0469083
205 0.065501
210 0.0419071
215 0.0465449
220 0.0356698
225 0.065355
230 0.124136
235 0.0572403
240 0.0734843
245 0.0809598
250 0.0951294
255 0.0892165
260 0.0681204
265 0.0662754
270 0.0636837
275 0.0532789
280 0.0881663
285 0.0497116
290 0.0812496
295 0.0574616
300 0.0613418
305 0.0796655
310 0.0692848
315 0.118342
320 0.0664032
325 0.0732038
330 0.0874746
335 0.0884176
340 0.093774
345 0.101309
350 0.106451
355 0.14283
360 0.0927247
365 0.110346
370 0.146652
375 0.0851299
380 0.166247
385 0.131785
390 0.114617
395 0.182164
400 0.284839
405 0.425354
410 0.976629
415 30.289
420 514.331
425 814.358
430 212.571
435 26.2536
440 4.4565
445 1.74345
450 1.8077
455 1.77549
460 1.57462
465 1.45535
470 1.52516
475 1.82413
480 3.40918
485 4.44748
490 3.48952
495 2.77214
500 2.4833
505 2.11213
510 1.93577
515 1.68175
520 1.72702
525 1.56122
530 1.51017
535 1.40357
540 1.20378
545 1.14269
550 1.08618
555 0.901049
560 0.857342
565 0.689688
570 0.615382
575 0.446863
580 0.36871
585 0.255125
590 0.212732
595 0.194138
600 0.0220921
Ex : 433
200 0.0656337
205 0.0541413
210 0.091955
215 0.117169
220 0.0650292
225 0.039701
230 0.122123
235 0.0543905
240 0.0845247
245 0.084987
250 0.108727
255 0.116415
260 0.079101
265 0.104906
270 0.0871149
275 0.0609801
280 0.0829402
285 0.0843628
290 0.138846
295 0.0867679
300 0.0666342
305 0.0926275
310 0.0855523
315 0.0954995
320 0.0517231
325 0.103371
330 0.0889238
335 0.0884478
340 0.117816
345 0.147993
350 0.156727
355 0.0858831
360 0.0690916
365 0.122677
370 0.102474
375 0.193145
380 0.107559
385 0.162738
390 0.155121
395 0.202976
400 0.150055
405 0.283164
410 0.514573
415 0.954927
420 32.0501
425 545.642
430 833.456
435 208.657
440 25.7466
445 4.31793
450 1.61623
455 1.72434
460 1.58643
465 1.53758
470 1.49698
475 1.45394
480 1.84456
485 2.49054
490 4.34995
495 3.73836
500 2.74201
505 2.45745
510 2.00797
515 1.60714
520 1.69138
525 1.42416
530 1.42959
535 1.18414
540 1.12403
545 1.19027
550 1.08444
555 0.90369
560 0.803002
565 0.658369
570 0.598954
575 0.54736
580 0.373539
585 0.294915
590 0.243012
595 0.219522
600 0.185299
Ex : 438
200 0.0604139
205 0.0403871
210 0.0544277
215 0.0641095
220 0.0644286
225 0.0985991
230 0.092354
235 0.0540225
240 0.0877948
245 0.0849268
250 0.0618231
255 0.132687
260 0.0703635
265 0.0777775
270 0.0675674
275 0.0585663
280 0.0645081
285 0.0733678
290 0.0813605
295 0.13597
300 0.071104
305 0.0702157
310 0.0753575
315 0.0578639
320 0.0734827
325 0.0473969
330 0.110454
335 0.111295
340 0.0807206
345 0.104227
350 0.103398
355 0.0991176
360 0.0818438
365 0.079926
370 0.0832528
375 0.12311
380 0.130977
385 0.159129
390 0.134621
395 0.114454
400 0.16345
405 0.189751
410 0.276642
415 0.506268
420 0.91613
425 32.5736
430 555.512
435 890.236
440 223.181
445 27.3281
450 4.60123
455 1.77256
460 1.57858
465 1.76164
470 1.58346
475 1.41787
480 1.51527
485 1.44394
490 1.99919
495 3.56752
500 3.87802
505 2.64586
510 2.41481
515 1.79484
520 1.57709
525 1.47281
530 1.29397
535 1.29594
540 1.2253
545 1.06698
550 1.0805
555 0.859074
560 0.766315
565 0.734825
570 0.619821
575 0.4811
580 0.352508
585 0.366722
590 0.29745
595 0.268488
600 0.183144
Ex : 443
200 0.045722
205 0.071892
210 0.060741
215 0.0762616
220 0.0587191
225 0.0935116
230 0.049484
235 0.0258718
240 0.0672157
245 0.0753133
250 0.072953
255 0.0633512
260 0.121931
265 0.0543781
270 0.0523511
275 0.0516519
280 0.0504383
285 0.0862126
290 0.0856957
295 0.128923
300 0.0635792
305 0.044309
310 0.119502
315 0.0659451
320 0.0457388
325 0.0684694
330 0.0695258
335 0.0657433
340 0.0948686
345 0.0957244
350 0.0431251
355 0.0788174
360 0.0997993
365 0.0990198
370 0.0841272
375 0.104508
380 0.116442
385 0.099486
390 0.0801262
395 0.156581
400 0.16502
405 0.21653
410 0.248264
415 0.36417
420 0.578208
425 0.880818
430 35.1157
435 594.551
440 908.026
445 224.848
450 27.3725
455 4.43561
460 1.70383
465 1.63748
470 1.69544
475 1.64302
480 1.28985
485 1.28763
490 1.4593
495 1.72363
500 2.88134
505 3.62379
510 2.71415
515 2.12726
520 1.89296
525 1.68375
530 1.33853
535 1.27326
540 1.17449
545 1.19947
550 1.04656
555 0.829925
560 0.839345
565 0.773095
570 0.702529
575 0.393287
580 0.394226
585 0.367801
590 0.247169
595 0.248652
600 0.0282957
Ex : 448
200 0.0605358
205 0.0548822
210 0.0608116
215 0.0644344
220 0.0568198
225 0.0726622
230 0.072507
235 0.0745346
240 0.0671008
245 0.10504
250 0.0567002
255 0.0810732
260 0.0926039
265 0.0730162
270 0.0586469
275 0.119773
280 0.0442276
285 0.0541598
290 0.0785384
295 0.0698804
300 0.0863326
305 0.0810333
310 0.0499451
315 0.0527183
320 0.0642748
325 0.0791495
330 0.0634053
335 0.0721591
340 0.0842795
345 0.0713426
350 0.0581841
355 0.117432
360 0.0786001
365 0.129166
370 0.0988237
375 0.130652
380 0.114234
385 0.122071
390 0.118933
395 0.108997
400 0.201197
405 0.208363
410 0.172783
415 0.265889
420 0.371001
425 0.62061
430 0.914977
435 37.2278
440 634.277
445 955.465
450 237.79
455 29.1705
460 4.75074
465 1.90627
470 1.50946
475 1.71658
480 1.61823
485 1.29003
490 1.31418
495 1.29901
500 1.52497
505 2.33172
510 3.43865
515 2.81781
520 1.87672
525 1.8915
530 1.3546
535 1.17622
540 1.09924
545 1.05719
550 0.962023
555 0.893073
560 0.81934
565 0.711724
570 0.539957
575 0.463644
580 0.44678
585 0.322734
590 0.287045
595 0.259005
600 0.121354
Ex : 453
200 0.0675655
205 0.0772753
210 0.0605917
215 0.067804
220 0.0456312
225 0.0631523
230 0.056903
235 0.105262
240 0.0684502
245 0.0976999
250 0.0450168
255 0.0400805
260 0.0886651
265 0.0473263
270 0.069612
275 0.119222
280 0.0704397
285 0.0684571
290 0.0709899
295 0.0717625
300 0.0435931
305 0.0910318
310 0.0710339
315 0.0440441
320 0.0478994
325 0.0595424
330 0.0403252
335 0.05343
340 0.09324
345 0.119955
350 0.0540728
355 0.0819321
360 0.0941072
365 0.078352
370 0.0925304
375 0.0566012
380 0.111038
385 0.146669
390 0.114926
395 0.150464
400 0.171874
405 0.142697
410 0.1585
415 0.190146
420 0.257838
425 0.299241
430 0.464783
435 0.974373
440 38.9177
445 685.309
450 996.563
455 234.404
460 28.7194
465 5.04967
470 1.9308
475 1.42238
480 1.639
485 1.63657
490 1.32375
495 1.22471
500 1.16064
505 1.31132
510 1.68406
515 3.09865
520 3.0791
525 2.01574
530 1.91081
535 1.4514
540 1.28073
545 1.03382
550 0.985273
555 0.871129
560 0.796446
565 0.649178
570 0.63496
575 0.538753
580 0.39205
585 0.377343
590 0.356958
595 0.31488
600 0.136792
Ex : 458
200 0.115708
205 0.0694396
210 0.0542557
215 0.0704813
220 0.0935946
225 0.0571657
230 0.0473908
235 0.0726298
240 0.0690305
245 0.078047
250 0.0430919
255 0.0491137
260 0.0400821
265 0.0893617
270 0.0626612
275 0.0649144
280 0.0856038
285 0.0725416
290 0.0905122
295 0.117631
300 0.0776943
305 0.0571949
310 0.0863617
315 0.0865057
320 0.0536336
325 0.090497
330 0.0854038
335 0.0982148
340 0.0803602
345 0.0677579
350 0.0974739
355 0.0567484
360 0.0611114
365 0.0919926
370 0.0926288
375 0.0576438
380 0.0509254
385 0.108675
390 0.113532
395 0.123251
400 0.14601
405 0.143196
410 0.116595
415 0.150571
420 0.12759
425 0.234041
430 0.329791
435 0.543317
440 0.959321
445 43.6141
450 710.856
455 1058.42
460 257.129
465 31.5229
470 5.08962
475 1.7844
480 1.47146
485 1.74765
490 1.51138
495 1.37439
500 1.11192
505 1.11993
510 1.21733
515 1.3587
520 2.4577
525 2.88716
530 2.30769
535 1.74247
540 1.59212
545 1.19162
550 0.9558
555 0.853575
560 0.810332
565 0.666165
570 0.625474
575 0.547141
580 0.43345
585 0.387513
590 0.297279
595 0.272919
600 0.285083
Ex : 463
200 0.0339851
205 0.0725669
210 0.0600169
215 0.0895524
220 0.087832
225 0.0592827
230 0.0452568
235 0.0615595
240 0.0746091
245 0.0774129
250 0.0649904
255 0.0680108
260 0.0565959
265 0.0827847
270 0.0392875
275 0.1172
280 0.038211
285 0.0622629
290 0.0695041
295 0.0683647
300 0.092047
305 0.063958
310 0.0722331
315 0.0679661
320 0.0591443
325 0.0818182
330 0.0951988
335 0.101988
340 0.106531
345 0.0708045
350 0.0894758
355 0.0644143
360 0.0989234
365 0.128789
370 0.123541
375 0.0888297
380 0.103362
385 0.0784735
390 0.0993272
395 0.0701374
400 0.135315
405 0.0768364
410 0.148588
415 0.146121
420 0.145453
425 0.14879
430 0.195052
435 0.369482
440 0.524911
445 1.07256
450 42.6676
455 748.49
460 1141.58
465 277.806
470 33.7195
475 5.30155
480 2.01632
485 1.42042
490 1.74914
495 1.4024
500 1.25523
505 1.02051
510 1.18967
515 1.02517
520 1.16003
525 1.75945
530 2.69164
535 2.54733
540 1.75684
545 1.2986
550 1.19721
555 0.928162
560 0.860557
565 0.77519
570 0.655996
575 0.500368
580 0.45411
585 0.456232
590 0.331713
595 0.367015
600 0.483512
Ex : 468
200 0.0447199
205 0.0481849
210 0.067356
215 0.0624494
220 0.0694876
225 0.0730099
230 0.0481238
235 0.0689218
240 0.0480881
245 0.0740555
250 0.107826
255 0.111555
260 0.0720733
265 0.0623727
270 0.0772876
275 0.0472852
280 0.0765973
285 0.0635626
290 0.0415158
295 0.0465722
300 0.0709961
305 0.0443123
310 0.0533578
315 0.13159
320 0.123579
325 0.0527951
330 0.0566247
335 0.076181
340 0.0583536
345 0.0950875
350 0.066781
355 0.0779996
360 0.0846309
365 0.105227
370 0.122555
375 0.0950304
380 0.100002
385 0.0909467
390 0.100642
395 0.110145
400 0.115631
405 0.122923
410 0.141293
415 0.114694
420 0.179518
425 0.148411
430 0.187689
435 0.271435
440 0.32308
445 0.516904
450 1.00026
455 47.0715
460 762.676
465 1212.14
470 291.85
475 35.3072
480 5.53216
485 1.80491
490 1.29941
495 1.41789
500 1.42364
505 1.39435
510 1.11018
515 1.08709
520 1.08563
525 1.19957
530 1.65805
535 2.50674
540 2.71593
545 1.67529
550 1.30844
555 1.14057
560 0.966034
565 0.770523
570 0.61712
575 0.61005
580 0.442916
585 0.411935
590 0.350106
595 0.31671
600 0.311911
Ex : 473
200 0.0481088
205 0.0655938
210 0.0383155
215 0.0759257
220 0.0520309
225 0.0649519
230 0.062988
235 0.0569641
240 0.0702075
245 0.102535
250 0.0792834
255 0.075613
260 0.0672061
265 0.0881614
270 0.0773102
275 0.0648701
280 0.0724424
285 0.0730566
290 0.0680825
295 0.0941884
300 0.11061
305 0.090963
310 0.0536559
315 0.0842678
320 0.0846862
325 0.168452
330 0.0925389
335 0.102436
340 0.0878117
345 0.0987665
350 0.0951773
355 0.101865
360 0.100459
365 0.0639422
370 0.0824064
375 0.0571117
380 0.0954155
385 0.098798
390 0.0860658
395 0.14779
400 0.143892
405 0.133219
410 0.146365
415 0.132841
420 0.113475
425 0.136695
430 0.180163
435 0.23959
440 0.319565
445 0.362013
450 0.601124
455 1.07136
460 55.6915
465 857.401
470 1197.77
475 277.151
480 33.7391
485 5.19662
490 1.79158
495 1.31743
500 1.3693
505 1.29493
510 1.29068
515 1.12424
520 1.15884
525 1.07642
530 1.0644
535 1.29668
540 2.25771
545 2.74006
550 1.7715
555 1.24759
560 1.2033
565 1.04576
570 0.692297
575 0.637031
580 0.458515
585 0.344739
590 0.363339
595 0.312504
600 0.229338
Ex : 478
200 0.0818626
205 0.0891612
210 0.0548369
215 0.129152
220 0.111766
225 0.0942779
230 0.141663
235 0.0892825
240 0.165143
245 0.129056
250 0.0498017
255 0.0934751
260 0.0807441
265 0.0524831
270 0.0831598
275 0.0937429
280 0.0963812
285 0.117429
290 0.0754494
295 0.118981
300 0.10832
305 0.101922
310 0.0788436
315 0.0758766
320 0.0943576
325 0.0426212
330 0.0463557
335 0.0551348
340 0.0872865
345 0.0663771
350 0.0702968
355 0.102204
360 0.0989312
365 0.0842877
370 0.100329
375 0.110768
380 0.107881
385 0.108137
390 0.0880405
395 0.1331
400 0.137872
405 0.16313
410 0.172864
415 0.150321
420 0.141001
425 0.131161
430 0.186626
435 0.156963
440 0.185431
445 0.285985
450 0.502477
455 0.800474
460 1.47395
465 62.4308
470 907.045
475 1254.89
480 304.188
485 36.9453
490 5.64169
495 1.75024
500 1.19764
505 1.18547
510 1.28116
515 1.31234
520 1.1434
525 1.16433
530 1.21688
535 1.17827
540 1.00066
545 1.53123
550 2.34539
555 1.95906
560 1.37302
565 1.09946
570 0.8942
575 0.713603
580 0.532069
585 0.395355
590 0.358371
595 0.286174
600 0.283553
Ex : 483
200 0.0709144
205 0.0613263
210 0.0854965
215 0.0759915
220 0.0921807
225 0.0833579
230 0.13928
235 0.105447
240 0.116514
245 0.162319
250 0.0800881
255 0.0383626
260 0.138152
265 0.121044
270 0.124938
275 0.072677
280 0.0751537
285 0.12028
290 0.0829486
295 0.0881471
300 0.0884383
305 0.0693159
310 0.0988673
315 0.0999449
320 0.0784831
325 0.0851891
330 0.13146
335 0.125983
340 0.0984492
345 0.0937421
350 0.0710737
355 0.0789695
360 0.125815
365 0.107059
370 0.0947411
375 0.0940109
380 0.0980196
385 0.100068
390 0.121034
395 0.0922901
400 0.180582
405 0.154553
410 0.17334
415 0.141611
420 0.141045
425 0.162349
430 0.156623
435 0.171076
440 0.218629
445 0.214606
450 0.268347
455 0.505671
460 0.831351
465 1.44357
470 50.3574
475 890.86
480 1361.3
485 326.386
490 39.3294
495 5.86347
500 1.90268
505 1.23267
510 1.24871
515 1.43058
520 1.24152
525 1.04635
530 1.10727
535 1.17776
540 0.962158
545 0.958966
550 1.15673
555 1.9002
560 2.1766
565 1.27033
570 0.893326
575 0.823025
580 0.61131
585 0.422061
590 0.407885
595 0.299038
600 0.18173
Ex : 488
200 0.0756202
205 0.110126
210 0.0890089
215 0.065167
220 0.119792
225 0.0956483
230 0.115299
235 0.108519
240 0.0904809
245 0.111465
250 0.0885863
255 0.0890179
260 0.08287
265 0.10974
270 0.0959964
275 0.089527
280 0.132417
285 0.115119
290 0.095916
295 0.119291
300 0.0639422
305 0.0625722
310 0.110488
315 0.0719029
320 0.115667
325 0.0824535
330 0.124551
335 0.0916959
340 0.102668
345 0.0913145
350 0.0932194
355 0.128845
360 0.113057
365 0.10506
370 0.0854793
375 0.126458
380 0.12116
385 0.175809
390 0.0710349
395 0.112887
400 0.143689
405 0.150766
410 0.166555
415 0.123916
420 0.16717
425 0.181204
430 0.109257
435 0.125907
440 0.182133
445 0.268261
450 0.28177
455 0.29104
460 0.538427
465 0.906186
470 1.69952
475 60.7501
480 972.968
485 1370.65
490 324.583
495 39.007
500 5.96246
505 1.94405
510 1.12292
515 1.09195
520 1.29312
525 1.30407
530 1.14396
535 1.04138
540 0.974776
545 0.980789
550 0.887314
555 1.11994
560 1.47398
565 2.00524
570 1.40781
575 0.886011
580 0.646786
585 0.562598
590 0.379942
595 0.318895
600 0.612321
Ex : 493
200 0.0632616
205 0.0569947
210 0.0809134
215 0.0745609
220 0.120723
225 0.0734365
230 0.071379
235 0.0995679
240 0.075067
245 0.123257
250 0.0643924
255 0.0843539
260 0.122434
265 0.140843
270 0.103046
275 0.10535
280 0.113959
285 0.0984648
290 0.0989782
295 0.103305
300 0.104682
305 0.136787
310 0.0940994
315 0.0767876
320 0.0745998
325 0.104402
330 0.131018
335 0.0876972
340 0.124877
345 0.107934
350 0.121942
355 0.155924
360 0.110477
365 0.146542
370 0.146114
375 0.114106
380 0.137217
385 0.109141
390 0.105913
395 0.0944039
400 0.153744
405 0.147909
410 0.121465
415 0.193723
420 0.197622
425 0.156733
430 0.184177
435 0.186991
440 0.20912
445 0.173854
450 0.249281
455 0.299751
460 0.347139
465 0.624361
470 0.864968
475 1.33504
480 57.5685
485 994.185
490 1473.58
495 336.768
500 40.3522
505 6.01959
510 1.75544
515 1.19248
520 1.16163
525 1.30272
530 1.32486
535 1.06323
540 0.959977
545 0.931378
550 0.910882
555 0.837485
560 0.759372
565 1.00955
570 1.63974
575 1.54559
580 0.808632
585 0.585214
590 0.56339
595 0.342508
600 0.258
Ex : 498
200 0.129714
205 0.122737
210 0.0805922
215 0.0883536
220 0.160111
225 0.0916496
230 0.0900951
235 0.12862
240 0.12276
245 0.0737127
250 0.0739934
255 0.155589
260 0.189377
265 0.0755938
270 0.135152
275 0.0725457
280 0.0422485
285 0.0891616
290 0.102487
295 0.146349
300 0.0875859
305 0.123633
310 0.0880814
315 0.0964714
320 0.11316
325 0.147409
330 0.143184
335 0.0970344
340 0.147875
345 0.128438
350 0.0950261
355 0.10373
360 0.144376
365 0.139098
370 0.159473
375 0.107203
380 0.120173
385 0.16951
390 0.182806
395 0.247011
400 0.140674
405 0.0993736
410 0.103566
415 0.119684
420 0.222721
425 0.117189
430 0.158362
435 0.19779
440 0.213974
445 0.216504
450 0.266846
455 0.287806
460 0.339346
465 0.461336
470 0.4996
475 0.885531
480 1.72003
485 70.801
490 1044.99
495 1424.63
500 330.909
505 39.7285
510 6.0955
515 1.8579
520 1.26098
525 1.21657
530 1.45566
535 1.27294
540 1.03353
545 0.854962
550 0.758367
555 0.715616
560 0.829869
565 0.664861
570 0.785315
575 1.0721
580 1.19213
585 0.776262
590 0.411173
595 0.431995
600 0.548114
Ex : 503
200 0.0677555
205 0.0516226
210 0.0738634
215 0.0508791
220 0.105969
225 0.0805234
230 0.13881
235 0.118463
240 0.136168
245 0.0847154
250 0.0801928
255 0.0975497
260 0.139416
265 0.0778248
270 0.0827379
275 0.136996
280 0.14168
285 0.099817
290 0.0697247
295 0.13781
300 0.097031
305 0.096527
310 0.0574735
315 0.142691
320 0.122909
325 0.130311
330 0.120613
335 0.143216
340 0.0960746
345 0.19582
350 0.221581
355 0.121092
360 0.133507
365 0.121654
370 0.140351
375 0.115799
380 0.101092
385 0.165541
390 0.112256
395 0.200015
400 0.162136
405 0.097564
410 0.156802
415 0.113871
420 0.16688
425 0.217214
430 0.205185
435 0.198248
440 0.180403
445 0.222075
450 0.196819
455 0.237818
460 0.33111
465 0.40623
470 0.435645
475 0.543216
480 0.852143
485 1.52998
490 65.4384
495 1061.12
500 1509.19
505 347.863
510 41.9572
515 6.29321
520 2.18464
525 1.4002
530 1.24068
535 1.31069
540 1.26299
545 1.12398
550 0.958298
555 0.81408
560 0.785346
565 0.689632
570 0.596935
575 0.583626
580 0.796825
585 0.977067
590 0.77253
595 0.436775
600 0.368426
Ex : 508
200 0.0766308
205 0.0875455
210 0.107279
215 0.191776
220 0.153318
225 0.108263
230 0.0683964
235 0.093176
240 0.0961114
245 0.0888515
250 0.0870073
255 0.174146
260 0.111534
265 0.1103
270 0.091935
275 0.0682535
280 0.0842542
285 0.127165
290 0.11603
295 0.118238
300 0.11028
305 0.117717
310 0.111184
315 0.113983
320 0.0750535
325 0.127847
330 0.12003
335 0.123156
340 0.214456
345 0.065047
350 0.157168
355 0.0978762
360 0.130778
365 0.215477
370 0.195755
375 0.1521
380 0.115387
385 0.164167
390 0.168586
395 0.172209
400 0.0781013
405 0.199371
410 0.134883
415 0.11582
420 0.15981
425 0.171231
430 0.14459
435 0.207168
440 0.1639
445 0.195288
450 0.212304
455 0.218756
460 0.292888
465 0.337541
470 0.293654
475 0.332243
480 0.580962
485 0.926358
490 1.62091
495 70.9202
500 1077.38
505 1516.04
510 366.426
515 43.9644
520 6.38498
525 1.94047
530 1.42027
535 1.17654
540 1.36715
545 1.09721
550 0.927668
555 0.932728
560 0.768951
565 0.667255
570 0.525862
575 0.436483
580 0.431628
585 0.623633
590 0.916924
595 0.701567
600 0.379283
Ex : 513
200 0.167988
205 0.115402
210 0.109722
215 0.0678489
220 0.12858
225 0.134314
230 0.0793812
235 0.134684
240 0.137791
245 0.134112
250 0.0871427
255 0.180091
260 0.0642935
265 0.0882772
270 0.115928
275 0.090639
280 0.104307
285 0.0832306
290 0.167401
295 0.102953
300 0.156987
305 0.083126
310 0.0711534
315 0.0986841
320 0.0846986
325 0.118694
330 0.128065
335 0.0980324
340 0.118036
345 0.102918
350 0.0973545
355 0.0789272
360 0.0974132
365 0.183497
370 0.108547
375 0.109626
380 0.17363
385 0.144787
390 0.121573
395 0.0995003
400 0.148105
405 0.122117
410 0.213334
415 0.0967461
420 0.176074
425 0.236669
430 0.154277
435 0.125113
440 0.156683
445 0.189539
450 0.270752
455 0.223927
460 0.320883
465 0.334961
470 0.341334
475 0.30784
480 0.409226
485 0.622368
490 0.949892
495 1.63356
500 65.3036
505 1076.95
510 1559.16
515 380.894
520 45.9373
525 6.79574
530 1.97193
535 1.23364
540 1.02064
545 1.09307
550 1.03285
555 0.813823
560 0.766859
565 0.625911
570 0.482313
575 0.510795
580 0.407684
585 0.395127
590 0.40008
595 0.531181
600 0.366891
Ex : 518
200 0.0720935
205 0.0920299
210 0.137396
215 0.149286
220 0.131265
225 0.203102
230 0.0897472
235 0.0943254
240 0.0960637
245 0.0757112
250 0.115628
255 0.0859311
260 0.097387
265 0.06781
270 0.121795
275 0.155431
280 0.146595
285 0.147994
290 0.0917129
295 0.153972
300 0.10718
305 0.130418
310 0.0902692
315 0.165591
320 0.169972
325 0.183651
330 0.0748479
335 0.112602
340 0.119388
345 0.138213
350 0.119481
355 0.138074
360 0.14721
365 0.131461
370 0.135731
375 0.102411
380 0.132751
385 0.135318
390 0.223574
395 0.178753
400 0.158808
405 0.202485
410 0.142276
415 0.147491
420 0.123186
425 0.0966001
430 0.195126
435 0.109582
440 0.18566
445 0.175201
450 0.199735
455 0.195779
460 0.267393
465 0.218309
470 0.198962
475 0.256679
480 0.304504
485 0.566578
490 0.652714
495 0.898251
500 1.66419
505 67.2905
510 1054.77
515 1546.92
520 381.267
525 45.7505
530 6.6077
535 1.94858
540 1.29183
545 0.945958
550 0.908023
555 1.02445
560 0.831433
565 0.668826
570 0.593352
575 0.474989
580 0.429348
585 0.400959
590 0.433246
595 0.421831
600 1.52643
Ex : 523
200 0.103852
205 0.216682
210 0.107495
215 0.0850524
220 0.102647
225 0.103785
230 0.157111
235 0.148215
240 0.136299
245 0.0758735
250 0.0747531
255 0.0753323
260 0.127776
265 0.14924
270 0.14486
275 0.0977954
280 0.114846
285 0.156956
290 0.153357
295 0.114201
300 0.0825988
305 0.0719104
310 0.144441
315 0.17221
320 0.181975
325 0.161291
330 0.10032
335 0.171887
340 0.118238
345 0.122929
350 0.0942762
355 0.104185
360 0.124783
365 0.102947
370 0.159047
375 0.128167
380 0.190749
385 0.0811579
390 0.152172
395 0.153372
400 0.160022
405 0.142525
410 0.216052
415 0.200252
420 0.202275
425 0.137479
430 0.147363
435 0.11581
440 0.165536
445 0.205667
450 0.210765
455 0.210244
460 0.207526
465 0.215707
470 0.229953
475 0.241046
480 0.231404
485 0.402273
490 0.431517
495 0.557343
500 0.795135
505 1.69565
510 61.8563
515 1035.31
520 1564.63
525 399.437
530 47.7209
535 6.89379
540 1.87938
545 1.06871
550 0.699345
555 0.70295
560 0.87257
565 0.66061
570 0.637939
575 0.410925
580 0.386944
585 0.391387
590 0.412591
595 0.309826
600 0.161858
Ex : 528
200 0.0951276
205 0.0581095
210 0.155834
215 0.110507
220 0.108881
225 0.0746716
230 0.138114
235 0.0703873
240 0.151492
245 0.122595
250 0.132263
255 0.151848
260 0.142183
265 0.157825
270 0.210339
275 0.0830233
280 0.11358
285 0.0926301
290 0.117285
295 0.0756391
300 0.0816145
305 0.103028
310 0.0627785
315 0.142881
320 0.0880431
325 0.0994613
330 0.0977932
335 0.162601
340 0.192111
345 0.205612
350 0.158394
355 0.131145
360 0.146544
365 0.133147
370 0.0962585
375 0.152464
380 0.0978644
385 0.0927521
390 0.208918
395 0.214605
400 0.186497
405 0.1296
410 0.144855
415 0.16968
420 0.161206
425 0.184453
430 0.157506
435 0.203979
440 0.192627
445 0.173643
450 0.16036
455 0.163218
460 0.186602
465 0.202677
470 0.307226
475 0.181863
480 0.241405
485 0.208472
490 0.381751
495 0.433814
500 0.569758
505 0.978338
510 1.46178
515 59.1454
520 1038.79
525 1567.55
530 395.277
535 47.2758
540 6.72648
545 1.81428
550 0.930597
555 0.707877
560 0.704191
565 0.73093
570 0.602339
575 0.531142
580 0.372486
585 0.343227
590 0.314151
595 0.337724
600 0.0384317
Ex : 533
200 0.0563363
205 0.141539
210 0.0670212
215 0.080863
220 0.113382
225 0.0924909
230 0.0776226
235 0.0835366
240 0.184351
245 0.125608
250 0.208564
255 0.132595
260 0.0899636
265 0.115289
270 0.128736
275 0.162724
280 0.0904112
285 0.082794
290 0.102877
295 0.0664856
300 0.11495
305 0.12841
310 0.155509
315 0.0936055
320 0.0979671
325 0.167841
330 0.0971981
335 0.232668
340 0.105067
345 0.114419
350 0.181338
355 0.203086
360 0.159914
365 0.157405
370 0.173584
375 0.127274
380 0.18026
385 0.194637
390 0.141208
395 0.140033
400 0.138085
405 0.180042
410 0.159672
415 0.118893
420 0.150326
425 0.181305
430 0.1523
435 0.207496
440 0.192765
445 0.223715
450 0.183325
455 0.127399
460 0.167257
465 0.174828
470 0.232086
475 0.221723
480 0.2569
485 0.228283
490 0.404708
495 0.386147
500 0.503839
505 0.655321
510 0.835376
515 1.53612
520 59.6462
525 992.056
530 1538.45
535 398.076
540 47.4336
545 6.68439
550 1.82019
555 0.992115
560 0.713306
565 0.578105
570 0.590128
575 0.55538
580 0.528286
585 0.404398
590 0.375029
595 0.262768
600 0.232598
Ex : 538
200 0.110983
205 0.127865
210 0.169526
215 0.188915
220 0.0721118
225 0.118236
230 0.0977342
235 0.108248
240 0.117631
245 0.0927854
250 0.129385
255 0.120689
260 0.189102
265 0.115722
270 0.0965435
275 0.257416
280 0.152396
285 0.119312
290 0.0907695
295 0.114929
300 0.134462
305 0.118402
310 0.151921
315 0.122866
320 0.187793
325 0.11623
330 0.131578
335 0.149334
340 0.123782
345 0.228393
350 0.203692
355 0.204302
360 0.182043
365 0.199186
370 0.218
375 0.142891
380 0.147289
385 0.10685
390 0.197045
395 0.132105
400 0.18948
405 0.0853983
410 0.251986
415 0.227597
420 0.132979
425 0.203429
430 0.117984
435 0.123279
440 0.133911
445 0.212904
450 0.276291
455 0.147002
460 0.258074
465 0.171446
470 0.277398
475 0.280517
480 0.286905
485 0.226603
490 0.249234
495 0.317108
500 0.430313
505 0.455058
510 0.584267
515 0.781232
520 1.42005
525 47.6268
530 934.322
535 1542
540 414.287
545 49.2266
550 6.56217
555 1.70473
560 0.950307
565 0.557977
570 0.526028
575 0.540538
580 0.597261
585 0.34132
590 0.314851
595 0.356553
600 0.687067
Ex : 543
200 0.12038
205 0.210357
210 0.0782699
215 0.103895
220 0.165279
225 0.10802
230 0.148972
235 0.153698
240 0.0879233
245 0.191757
250 0.11563
255 0.0938192
260 0.178733
265 0.12396
270 0.161022
275 0.0863026
280 0.114805
285 0.122504
290 0.156269
295 0.144046
300 0.191065
305 0.122351
310 0.111215
315 0.118289
320 0.136459
325 0.150493
330 0.131267
335 0.112666
340 0.158742
345 0.116217
350 0.113396
355 0.139437
360 0.197919
365 0.134229
370 0.145962
375 0.11886
380 0.187498
385 0.136259
390 0.103221
395 0.220805
400 0.213435
405 0.215736
410 0.165187
415 0.139225
420 0.18062
425 0.154427
430 0.159903
435 0.180164
440 0.149034
445 0.163228
450 0.14782
455 0.135376
460 0.160118
465 0.199779
470 0.258136
475 0.261634
480 0.19524
485 0.20539
490 0.302995
495 0.235009
500 0.289077
505 0.33242
510 0.426199
515 0.509435
520 0.884929
525 1.49718
530 46.8784
535 917.863
540 1545.68
545 426.215
550 51.0522
555 6.72779
560 1.65511
565 1.01778
570 0.533627
575 0.479128
580 0.399302
585 0.528801
590 0.392177
595 0.432513
600 0.34627
Ex : 548
200 0.14276
205 0.178749
210 0.169304
215 0.106325
220 0.142831
225 0.0698964
230 0.195495
235 0.128484
240 0.0998981
245 0.0986841
250 0.156611
255 0.147318
260 0.168501
265 0.205975
270 0.0789554
275 0.131425
280 0.160705
285 0.144923
290 0.210763
295 0.180337
300 0.106743
305 0.123732
310 0.18598
315 0.136941
320 0.0786401
325 0.177077
330 0.137828
335 0.126262
340 0.120907
345 0.105368
350 0.115936
355 0.125737
360 0.167073
365 0.158697
370 0.203229
375 0.21667
380 0.131672
385 0.233343
390 0.126048
395 0.111089
400 0.182771
405 0.129126
410 0.154392
415 0.120602
420 0.25291
425 0.192789
430 0.18118
435 0.231857
440 0.14515
445 0.155688
450 0.180074
455 0.220798
460 0.171237
465 0.14903
470 0.157199
475 0.270165
480 0.196314
485 0.176499
490 0.238929
495 0.298852
500 0.294082
505 0.327201
510 0.349984
515 0.48444
520 0.599922
525 0.78058
530 1.36043
535 50.9332
540 927.804
545 1513.23
550 418.627
555 49.8471
560 6.8412
565 1.54692
570 0.672599
575 0.535651
580 0.403638
585 0.427459
590 0.372998
595 0.341584
600 0.844511
Ex : 553
200 0.0870113
205 0.0769737
210 0.175778
215 0.139591
220 0.135646
225 0.130706
230 0.145164
235 0.0616992
240 0.179192
245 0.107908
250 0.0518612
255 0.127054
260 0.0618422
265 0.139265
270 0.140208
275 0.105986
280 0.145669
285 0.148116
290 0.120114
295 0.138403
300 0.0636865
305 0.219811
310 0.184854
315 0.0959863
320 0.153005
325 0.10335
330 0.228324
335 0.211169
340 0.177419
345 0.18218
350 0.138568
355 0.149521
360 0.115231
365 0.15179
370 0.141978
375 0.168502
380 0.169933
385 0.157153
390 0.133867
395 0.188426
400 0.239962
405 0.120591
410 0.126444
415 0.135963
420 0.0893641
425 0.136128
430 0.194756
435 0.09784
440 0.161503
445 0.256977
450 0.197071
455 0.161122
460 0.18497
465 0.21282
470 0.265523
475 0.177439
480 0.2307
485 0.287735
490 0.220022
495 0.280844
500 0.217897
505 0.18022
510 0.276074
515 0.467112
520 0.439142
525 0.591993
530 0.870819
535 1.38323
540 44.0147
545 876.197
550 1506.35
555 420.416
560 50.2152
565 6.62453
570 1.55204
575 0.815577
580 0.469712
585 0.412445
590 0.451824
595 0.337707
600 0.351208
Ex : 558
200 0.108957
205 0.10076
210 0.142779
215 0.122173
220 0.104321
225 0.234617
230 0.172983
235 0.163822
240 0.146866
245 0.21763
250 0.116575
255 0.0997688
260 0.1425
265 0.132054
270 0.157084
275 0.135649
280 0.156919
285 0.115465
290 0.124736
295 0.120066
300 0.215272
305 0.151484
310 0.178225
315 0.103431
320 0.188389
325 0.085479
330 0.0891781
335 0.110451
340 0.164339
345 0.168305
350 0.131011
355 0.109015
360 0.110142
365 0.12397
370 0.19464
375 0.15683
380 0.16675
385 0.178704
390 0.129116
395 0.132767
400 0.12637
405 0.168497
410 0.283678
415 0.198307
420 0.159575
425 0.190219
430 0.198627
435 0.171166
440 0.165239
445 0.164004
450 0.112792
455 0.211621
460 0.145799
465 0.190542
470 0.232006
475 0.247662
480 0.157925
485 0.24929
490 0.281994
495 0.246588
500 0.170685
505 0.203114
510 0.344709
515 0.261683
520 0.353799
525 0.540675
530 0.571714
535 0.679001
540 1.42069
545 42.0439
550 831.586
555 1476.15
560 419.705
565 50.0182
570 6.44506
575 1.23668
580 0.667623
585 0.464243
590 0.3581
595 0.3664
600 0.041695
Ex : 563
200 0.124813
205 0.131169
210 0.134702
215 0.146414
220 0.220288
225 0.152506
230 0.171259
235 0.176051
240 0.154408
245 0.214698
250 0.14984
255 0.177355
260 0.129031
265 0.172667
270 0.100492
275 0.100335
280 0.152081
285 0.130402
290 0.148452
295 0.0968133
300 0.192383
305 0.0997301
310 0.204182
315 0.132313
320 0.175858
325 0.17558
330 0.104285
335 0.186433
340 0.212852
345 0.132881
350 0.282231
355 0.186447
360 0.134628
365 0.178551
370 0.150654
375 0.148325
380 0.159231
385 0.152328
390 0.1825
395 0.18894
400 0.214398
405 0.150922
410 0.208641
415 0.156285
420 0.178271
425 0.147857
430 0.136303
435 0.181316
440 0.202668
445 0.172891
450 0.124475
455 0.246079
460 0.20873
465 0.289881
470 0.215925
475 0.189911
480 0.216504
485 0.195199
490 0.224185
495 0.181775
500 0.192578
505 0.256082
510 0.266488
515 0.215993
520 0.240499
525 0.339028
530 0.361239
535 0.578641
540 0.761224
545 1.30767
550 40.0811
555 805.157
560 1412.5
565 408.131
570 48.8462
575 6.26924
580 1.32573
585 0.453701
590 0.36077
595 0.342358
600 0.0995071
Ex : 568
200 0.0892062
205 0.124602
210 0.14154
215 0.133536
220 0.214058
225 0.238785
230 0.131554
235 0.138502
240 0.176702
245 0.151924
250 0.246781
255 0.186958
260 0.151323
265 0.217893
270 0.121432
275 0.10367
280 0.176147
285 0.179495
290 0.184751
295 0.180923
300 0.0858027
305 0.13066
310 0.134403
315 0.238322
320 0.183873
325 0.145113
330 0.19284
335 0.197782
340 0.242108
345 0.137108
350 0.149621
355 0.135867
360 0.24537
365 0.111136
370 0.163528
375 0.249345
380 0.207343
385 0.108545
390 0.232395
395 0.15776
400 0.157598
405 0.167533
410 0.151638
415 0.126232
420 0.160647
425 0.135726
430 0.220655
435 0.206534
440 0.180719
445 0.155309
450 0.179051
455 0.193757
460 0.216009
465 0.297038
470 0.170845
475 0.175501
480 0.228797
485 0.145634
490 0.195808
495 0.171944
500 0.218577
505 0.1941
510 0.318405
515 0.283175
520 0.309326
525 0.423154
530 0.30802
535 0.449263
540 0.593883
545 0.673759
550 1.08274
555 29.4552
560 734.794
565 1368.46
570 410.644
575 49.3782
580 6.24436
585 1.16682
590 0.531021
595 0.343788
600 0.154213
Ex : 573
200 0.190484
205 0.165935
210 0.136367
215 0.199921
220 0.118682
225 0.1414
230 0.170368
235 0.131727
240 0.247688
245 0.166581
250 0.232984
255 0.122525
260 0.191919
265 0.159381
270 0.129492
275 0.150402
280 0.193507
285 0.11149
290 0.179522
295 0.172015
300 0.136639
305 0.126324
310 0.107154
315 0.144064
320 0.132784
325 0.166489
330 0.182228
335 0.159688
340 0.0987875
345 0.334512
350 0.173908
355 0.157199
360 0.144388
365 0.158698
370 0.236252
375 0.130456
380 0.170396
385 0.156035
390 0.171015
395 0.239385
400 0.282755
405 0.155574
410 0.118725
415 0.149091
420 0.225601
425 0.151627
430 0.2007
435 0.24861
440 0.203791
445 0.23541
450 0.209906
455 0.194663
460 0.315809
465 0.21171
470 0.232188
475 0.283506
480 0.27321
485 0.22523
490 0.180409
495 0.158083
500 0.171157
505 0.310316
510 0.237538
515 0.234744
520 0.168562
525 0.207661
530 0.278512
535 0.321865
540 0.41774
545 0.491132
550 0.656829
555 1.25451
560 27.023
565 644.026
570 1282.65
575 396.9
580 47.3905
585 5.93591
590 1.02559
595 0.533946
600 0.497955
Ex : 578
200 0.158006
205 0.0611993
210 0.058454
215 0.126256
220 0.180003
225 0.122844
230 0.118531
235 0.0852722
240 0.123099
245 0.159504
250 0.102101
255 0.0979817
260 0.134004
265 0.182367
270 0.277817
275 0.161614
280 0.118043
285 0.107347
290 0.124333
295 0.10593
300 0.16612
305 0.118002
310 0.12213
315 0.126287
320 0.161322
325 0.182148
330 0.138065
335 0.197441
340 0.235145
345 0.100633
350 0.114229
355 0.168392
360 0.0834368
365 0.207319
370 0.156603
375 0.0869851
380 0.133666
385 0.138725
390 0.15773
395 0.160486
400 0.113488
405 0.192423
410 0.194419
415 0.280221
420 0.149631
425 0.142175
430 0.0878282
435 0.215462
440 0.191274
445 0.188991
450 0.17906
455 0.132899
460 0.127953
465 0.225975
470 0.162805
475 0.199405
480 0.183885
485 0.217956
490 0.217173
495 0.136692
500 0.225177
505 0.215837
510 0.29246
515 0.160689
520 0.249198
525 0.237152
530 0.198591
535 0.210419
540 0.313777
545 0.331108
550 0.444889
555 0.617314
560 1.09451
565 23.3544
570 577.5
575 1120.77
580 336.833
585 39.8798
590 4.96957
595 1.03991
600 0.130478
Ex : 583
200 0.151207
205 0.126865
210 0.11044
215 0.199514
220 0.184335
225 0.147428
230 0.137888
235 0.106763
240 0.0850022
245 0.197574
250 0.105035
255 0.150543
260 0.0836302
265 0.123427
270 0.0465297
275 0.128329
280 0.207231
285 0.116859
290 0.0965153
295 0.0657611
300 0.10525
305 0.115895
310 0.180571
315 0.10167
320 0.156785
325 0.197948
330 0.166047
335 0.149905
340 0.171174
345 0.165352
350 0.128401
355 0.124378
360 0.142168
365 0.0847392
370 0.15697
375 0.136778
380 0.166853
385 0.13887
390 0.204034
395 0.170994
400 0.174455
405 0.16052
410 0.238995
415 0.212331
420 0.252287
425 0.14684
430 0.194071
435 0.134222
440 0.187215
445 0.156275
450 0.245247
455 0.29659
460 0.122341
465 0.247299
470 0.181466
475 0.229926
480 0.193203
485 0.129214
490 0.166829
495 0.173823
500 0.212772
505 0.158758
510 0.186888
515 0.190559
520 0.301082
525 0.189013
530 0.150537
535 0.221685
540 0.232938
545 0.250818
550 0.349049
555 0.440672
560 0.657595
565 1.0887
570 19.8916
575 517.732
580 977.428
585 281.629
590 33.5043
595 4.21314
600 0.479439
Ex : 588
200 0.198138
205 0.175739
210 0.165232
215 0.158421
220 0.150006
225 0.0882994
230 0.122991
235 0.196763
240 0.0936147
245 0.116326
250 0.128916
255 0.107095
260 0.114101
265 0.21143
270 0.184403
275 0.175046
280 0.128305
285 0.0646791
290 0.115115
295 0.106991
300 0.176172
305 0.137047
310 0.102517
315 0.222483
320 0.20916
325 0.177213
330 0.149854
335 0.219869
340 0.0987164
345 0.13746
350 0.231143
355 0.112954
360 0.122338
365 0.159049
370 0.134831
375 0.106039
380 0.168845
385 0.183189
390 0.0988543
395 0.24338
400 0.154318
405 0.146374
410 0.138369
415 0.201356
420 0.115275
425 0.222111
430 0.233069
435 0.151212
440 0.201962
445 0.203104
450 0.0840699
455 0.159015
460 0.204301
465 0.186125
470 0.214475
475 0.179473
480 0.234967
485 0.0994311
490 0.258016
495 0.169288
500 0.17793
505 0.268836
510 0.120403
515 0.19085
520 0.154864
525 0.1033
530 0.224394
535 0.391529
540 0.206948
545 0.25984
550 0.27479
555 0.332335
560 0.421221
565 0.510885
570 0.84531
575 17.5838
580 436.495
585 836.399
590 249.587
595 29.5128
600 4.09053
Ex : 593
200 0.117415
205 0.126347
210 0.0641465
215 0.120787
220 0.112016
225 0.11855
230 0.177125
235 0.13792
240 0.104875
245 0.104127
250 0.0761042
255 0.0930531
260 0.154472
265 0.115584
270 0.140855
275 0.0943654
280 0.144344
285 0.196654
290 0.163895
295 0.179108
300 0.169449
305 0.128503
310 0.0960892
315 0.125315
320 0.20363
325 0.121497
330 0.0746327
335 0.168625
340 0.248589
345 0.194794
350 0.26011
355 0.167838
360 0.145129
365 0.112975
370 0.0775154
375 0.139998
380 0.150935
385 0.200166
390 0.222536
395 0.232324
400 0.142743
405 0.188249
410 0.132238
415 0.127734
420 0.130667
425 0.169271
430 0.11871
435 0.205589
440 0.185954
445 0.128521
450 0.189934
455 0.244698
460 0.232698
465 0.119697
470 0.0944201
475 0.126019
480 0.153274
485 0.155378
490 0.156494
495 0.110071
500 0.23666
505 0.133856
510 0.187403
515 0.127631
520 0.201687
525 0.185189
530 0.342875
535 0.21584
540 0.275849
545 0.220188
550 0.294387
555 0.461929
560 0.407079
565 0.355301
570 0.380972
575 0.67631
580 15.7481
585 383.374
590 716.248
595 215.527
600 36.6812
Ex : 598
200 0.138905
205 0.146151
210 0.100015
215 0.0965254
220 0.163285
225 0.172197
230 0.121263
235 0.158527
240 0.19555
245 0.251202
250 0.216809
255 0.0962247
260 0.160634
265 0.0924655
270 0.187121
275 0.112976
280 0.210969
285 0.159283
290 0.133088
295 0.185894
300 0.251597
305 0.227757
310 0.321263
315 0.121384
320 0.0941932
325 0.218315
330 0.136022
335 0.171402
340 0.11998
345 0.197793
350 0.149157
355 0.0757282
360 0.0737127
365 0.139665
370 0.184109
375 0.139961
380 0.163992
385 0.190049
390 0.122082
395 0.165134
400 0.230927
405 0.157262
410 0.205909
415 0.153741
420 0.121497
425 0.163412
430 0.139745
435 0.258207
440 0.150824
445 0.232098
450 0.232911
455 0.224336
460 0.153549
465 0.155043
470 0.220864
475 0.14713
480 0.160127
485 0.131143
490 0.128095
495 0.105422
500 0.215244
505 0.178477
510 0.160574
515 0.112682
520 0.369573
525 0.391381
530 0.155805
535 0.185847
540 0.310669
545 0.286848
550 0.297469
555 0.254008
560 0.240395
565 0.189034
570 0.342953
575 0.397748
580 0.588843
585 14.8074
590 343.144
595 624.951
600 411.657
Ex : 603
200 0.163001
205 0.21088
210 0.206658
215 0.143417
220 0.188891
225 0.119923
230 0.10014
235 0.127798
240 0.11005
245 0.104369
250 0.129171
255 0.195848
260 0.196671
265 0.0966247
270 0.104068
275 0.246084
280 0.180616
285 0.196139
290 0.0698894
295 0.161206
300 0.177543
305 0.110413
310 0.0863422
315 0.072383
320 0.0827922
325 0.0721569
330 0.137934
335 0.123478
340 0.132118
345 0.115406
350 0.139884
355 0.104644
360 0.157552
365 0.0878459
370 0.211837
375 0.232851
380 0.193739
385 0.13551
390 0.1999
395 0.0982295
400 0.269377
405 0.227647
410 0.186921
415 0.160152
420 0.123541
425 0.23539
430 0.12037
435 0.118143
440 0.118727
445 0.187546
450 0.227391
455 0.122553
460 0.211544
465 0.148717
470 0.111152
475 0.201367
480 0.222091
485 0.204132
490 0.176272
495 0.12176
500 0.28906
505 0.262853
510 0.18139
515 0.165099
520 0.258786
525 0.177354
530 0.348242
535 0.182293
540 0.165969
545 0.153942
550 0.257233
555 0.0956058
560 0.24868
565 0.359418
570 0.237737
575 0.376448
580 0.324964
585 0.538442
590 13.1539
595 292.226
600 581.759
