File format V 1.0
jeu. 5. janv. 22:18:28 2017
Operator : 
Comments : 

=============================================
SpectroFluorometer parameters
Mode : 3D measurement
Data : Fluorescence
Phospho. : Ordinary
Spectrum : Fluorescence

Scan speed : 2400 nm/mn
Response : 100 ms
PM Voltage : 700 V
Shutter : On

Lambda Ex. Start : 203
Lambda Ex. End : 603
Lambda Ex. Step : 5
Ex. Slit : 5 nm

Lambda Em. Start : 200
Lambda Em. End : 600
Lambda Em. Step : 5
Em. Slit : 5 nm

Repetition : 1
Decal lambda em : 10
=============================================
DATA
Ex : 203
200 3.26846
205 9.44437
210 3.61439
215 5.30247
220 3.869
225 4.83153
230 4.7116
235 4.01722
240 4.91872
245 2.3022
250 7.55417
255 8.98706
260 4.84019
265 3.14786
270 1.83324
275 10.6974
280 4.91853
285 3.24164
290 6.5909
295 6.9065
300 8.36411
305 8.20256
310 7.87629
315 5.48732
320 4.4289
325 4.66609
330 3.30193
335 4.5544
340 5.40182
345 4.48126
350 3.42704
355 4.64494
360 5.34515
365 3.08963
370 4.80722
375 3.96942
380 5.47353
385 3.93477
390 3.90283
395 3.97765
400 3.12226
405 7.7949
410 10.4935
415 8.32834
420 9.07405
425 6.37361
430 6.16826
435 3.72023
440 4.68394
445 5.02902
450 3.72464
455 7.51348
460 7.16695
465 4.24143
470 6.42138
475 4.42626
480 4.88391
485 4.45871
490 6.71081
495 5.77771
500 2.54843
505 6.12324
510 4.91067
515 3.10517
520 4.74796
525 8.10926
530 3.9805
535 5.30445
540 5.89091
545 6.19209
550 4.13167
555 2.74031
560 2.1865
565 6.68265
570 6.81523
575 6.25286
580 5.97261
585 3.41406
590 3.24683
595 4.19123
600 0.476946
Ex : 208
200 3.44654
205 4.07995
210 5.22983
215 2.24184
220 3.32359
225 4.29707
230 1.68764
235 6.44532
240 5.40351
245 3.18911
250 3.64073
255 5.7914
260 4.6822
265 5.56348
270 10.7804
275 7.15121
280 4.46383
285 6.83464
290 2.97054
295 6.90566
300 4.88737
305 4.83351
310 3.48091
315 4.97661
320 5.44924
325 3.41632
330 4.13598
335 7.53114
340 2.76178
345 5.92309
350 4.38102
355 8.71451
360 4.8562
365 5.45247
370 4.19522
375 6.84034
380 4.97967
385 3.86272
390 6.48517
395 8.20573
400 4.67283
405 6.08714
410 3.28588
415 7.1837
420 6.7394
425 4.6617
430 2.82907
435 5.09463
440 6.91553
445 4.61449
450 3.25802
455 4.26889
460 5.14721
465 5.65609
470 7.58168
475 5.51136
480 8.04765
485 6.96536
490 7.10967
495 4.06039
500 6.44697
505 7.6553
510 4.04775
515 5.82769
520 4.69846
525 4.14854
530 4.5464
535 8.69686
540 4.85775
545 3.12525
550 5.61414
555 3.13297
560 2.62706
565 4.15786
570 4.18377
575 2.39716
580 3.92052
585 3.47351
590 4.09971
595 4.43082
600 0.50421
Ex : 213
200 5.90789
205 4.15557
210 4.0177
215 3.77612
220 6.95331
225 5.46778
230 7.50397
235 4.52213
240 4.68462
245 3.12757
250 4.15229
255 3.42843
260 5.08757
265 5.19506
270 2.6428
275 5.59352
280 3.5943
285 3.43393
290 5.49947
295 9.06748
300 8.25469
305 5.47963
310 2.43868
315 4.14567
320 3.67741
325 5.38122
330 4.42128
335 6.50715
340 3.24428
345 8.10237
350 4.01774
355 3.75457
360 3.17754
365 4.91679
370 5.9057
375 7.76695
380 8.43515
385 3.79574
390 5.09928
395 7.98772
400 3.84981
405 5.07589
410 10.632
415 4.06217
420 8.12895
425 4.74788
430 6.24074
435 5.63414
440 7.81031
445 8.82845
450 4.58563
455 6.10491
460 5.59361
465 5.38491
470 7.21008
475 3.70798
480 4.20846
485 7.67596
490 4.98716
495 5.16328
500 5.37063
505 2.94596
510 6.13638
515 4.47329
520 7.1024
525 3.54536
530 4.70449
535 6.05197
540 3.87454
545 4.0778
550 3.53471
555 6.45102
560 4.75117
565 6.87676
570 6.68489
575 5.34534
580 3.77092
585 3.65327
590 3.57133
595 5.39359
600 9.47581
Ex : 218
200 3.50299
205 3.61112
210 5.1485
215 6.59941
220 5.81825
225 2.95191
230 5.76603
235 3.14434
240 7.78321
245 7.0733
250 4.23684
255 5.67354
260 5.36437
265 5.6209
270 3.02876
275 3.86746
280 4.39086
285 5.17348
290 6.17821
295 5.19238
300 2.11237
305 7.25976
310 6.29194
315 4.95824
320 4.63098
325 3.80594
330 6.17638
335 4.61876
340 8.12564
345 10.4957
350 9.33563
355 6.5216
360 3.44938
365 5.72097
370 7.43732
375 5.60558
380 6.88706
385 7.29436
390 6.17016
395 4.57374
400 5.64892
405 7.25429
410 3.2901
415 7.34968
420 8.66637
425 3.23986
430 6.19547
435 4.18078
440 7.34384
445 4.15584
450 6.06943
455 4.76184
460 4.02832
465 4.58366
470 4.96913
475 5.69123
480 5.60834
485 4.28979
490 14.8389
495 4.95385
500 4.3705
505 2.27516
510 3.73466
515 5.74775
520 4.08487
525 4.18153
530 7.35695
535 2.6096
540 4.85458
545 4.13626
550 6.67412
555 9.92036
560 5.78687
565 2.75625
570 3.61436
575 2.92037
580 2.58192
585 7.7811
590 4.07579
595 2.33038
600 0.265188
Ex : 223
200 4.55769
205 4.80553
210 5.25254
215 5.00155
220 2.62582
225 3.35448
230 2.02832
235 3.31859
240 9.72739
245 4.95253
250 3.89893
255 2.57057
260 3.24126
265 4.87806
270 6.17867
275 4.76617
280 4.92385
285 3.08259
290 3.24234
295 4.61232
300 7.98461
305 3.80165
310 3.02011
315 4.05147
320 8.66806
325 3.87031
330 4.16987
335 7.38372
340 2.88768
345 3.76884
350 9.98447
355 9.11203
360 4.19028
365 8.32219
370 7.33878
375 4.68242
380 6.51345
385 9.26058
390 6.59774
395 4.29018
400 4.87752
405 6.19066
410 2.97402
415 3.9589
420 4.04366
425 3.07473
430 6.66557
435 8.25802
440 3.99561
445 5.44023
450 5.83204
455 6.72295
460 5.51577
465 6.5804
470 11.3833
475 4.49934
480 4.11327
485 4.11853
490 5.54566
495 5.516
500 3.88766
505 11.2506
510 4.37412
515 5.34043
520 7.08983
525 7.59028
530 4.75023
535 5.40001
540 3.27872
545 4.22867
550 4.73711
555 3.9143
560 6.76395
565 3.67511
570 9.05207
575 9.82714
580 4.93855
585 3.87302
590 4.11479
595 3.2563
600 0.370555
Ex : 228
200 2.64943
205 2.29812
210 2.79353
215 6.86178
220 3.96888
225 7.76403
230 4.46056
235 3.9361
240 3.41453
245 3.60976
250 2.17288
255 2.81942
260 3.29361
265 3.76682
270 5.22296
275 4.91766
280 5.6933
285 4.69247
290 3.41007
295 7.40555
300 4.36101
305 2.71178
310 2.91382
315 3.78981
320 5.34073
325 3.73408
330 4.43472
335 6.45207
340 6.6324
345 4.84029
350 3.53507
355 4.11752
360 4.10611
365 4.2373
370 3.89534
375 2.41642
380 6.91364
385 5.07812
390 3.85682
395 5.27503
400 5.093
405 5.0322
410 4.05802
415 5.52977
420 6.37033
425 2.93781
430 2.8345
435 6.33754
440 6.45023
445 6.45741
450 3.95963
455 3.492
460 7.5831
465 4.45608
470 7.19581
475 6.09937
480 2.57849
485 3.81306
490 5.68143
495 5.79255
500 3.69009
505 6.52191
510 5.05255
515 7.73399
520 4.17968
525 4.16372
530 3.61929
535 3.78947
540 4.54437
545 5.26349
550 5.61396
555 4.48669
560 5.08841
565 3.6529
570 7.08683
575 3.77575
580 3.67174
585 2.44188
590 6.00602
595 5.38485
600 3.04984
Ex : 233
200 7.13021
205 2.19893
210 4.23578
215 2.80517
220 4.81055
225 5.97961
230 3.70429
235 3.76257
240 3.58988
245 2.52664
250 6.06711
255 5.84783
260 3.50223
265 2.47899
270 2.05451
275 4.87392
280 3.70504
285 3.37403
290 3.86649
295 1.95988
300 3.40978
305 4.97572
310 4.63291
315 3.81814
320 3.80482
325 3.36211
330 4.5234
335 6.21507
340 3.73779
345 3.6666
350 4.09405
355 2.9065
360 6.68649
365 3.61278
370 3.07432
375 6.97829
380 4.33892
385 4.42811
390 2.84566
395 5.29404
400 4.77574
405 3.6501
410 3.20322
415 3.95131
420 5.85234
425 8.41295
430 5.08103
435 4.06903
440 4.65904
445 7.27039
450 3.38256
455 4.31254
460 7.43268
465 10.7685
470 5.71119
475 4.58043
480 6.39109
485 3.89372
490 4.25981
495 5.03885
500 3.86142
505 5.35382
510 4.08062
515 2.65092
520 4.63316
525 4.31082
530 2.17973
535 4.84984
540 2.98536
545 4.20137
550 3.83848
555 4.20438
560 4.35001
565 2.70808
570 3.60835
575 4.72413
580 5.71917
585 5.41729
590 4.30535
595 3.85851
600 0.439084
Ex : 238
200 3.56481
205 6.76174
210 7.53683
215 5.45978
220 2.90725
225 3.93212
230 2.28972
235 4.62917
240 3.7277
245 3.44337
250 3.01717
255 3.32135
260 3.62037
265 2.94145
270 1.91664
275 1.08676
280 3.75959
285 2.41838
290 3.62019
295 3.51368
300 2.26003
305 3.18513
310 1.59237
315 1.89823
320 3.95546
325 2.279
330 2.26779
335 2.91252
340 3.36404
345 2.81577
350 3.54336
355 5.29177
360 6.34752
365 3.84514
370 2.61682
375 3.87001
380 3.21572
385 3.56589
390 5.96869
395 6.70457
400 4.3361
405 2.9294
410 7.66966
415 4.22988
420 5.75555
425 3.62777
430 5.19098
435 6.60393
440 3.35364
445 3.72662
450 3.5809
455 4.05555
460 5.12463
465 4.93136
470 4.58976
475 2.4817
480 5.29528
485 5.62582
490 4.97909
495 5.97416
500 7.17105
505 5.52008
510 2.93393
515 2.89158
520 2.81042
525 4.82026
530 5.29256
535 5.46515
540 4.41804
545 1.91301
550 2.64639
555 4.35708
560 3.32404
565 4.72488
570 4.76819
575 2.9504
580 3.28259
585 3.23894
590 1.57291
595 2.57041
600 0.292502
Ex : 243
200 3.64898
205 4.53002
210 2.75414
215 4.37355
220 1.5546
225 2.93113
230 1.95048
235 1.49281
240 4.50158
245 2.61654
250 3.75937
255 2.4513
260 3.99577
265 2.51548
270 2.34629
275 3.203
280 2.14444
285 3.09465
290 2.65991
295 4.17008
300 3.45945
305 2.89816
310 3.94725
315 3.23067
320 2.94782
325 1.7187
330 2.90585
335 2.59049
340 2.79767
345 2.74579
350 4.24039
355 2.09766
360 2.33741
365 2.03107
370 1.96534
375 3.15765
380 7.32631
385 8.58888
390 6.42172
395 3.56588
400 3.40637
405 5.92542
410 3.19961
415 3.18979
420 2.698
425 2.97635
430 5.47722
435 3.13607
440 3.88283
445 4.01723
450 5.12232
455 3.41194
460 2.99887
465 2.45914
470 3.14379
475 3.64937
480 3.34944
485 3.04718
490 3.91479
495 2.69454
500 4.21347
505 4.70176
510 2.65894
515 4.44956
520 4.19694
525 1.85769
530 3.52487
535 3.28221
540 5.1913
545 4.10894
550 3.67016
555 2.83767
560 4.49136
565 2.49248
570 1.83541
575 1.17725
580 3.50154
585 1.971
590 5.20155
595 2.70795
600 7.39779
Ex : 248
200 1.64883
205 1.48358
210 1.38201
215 3.5261
220 3.29183
225 1.47252
230 3.13389
235 3.40256
240 4.13484
245 2.72942
250 4.06143
255 3.58612
260 2.26849
265 4.13249
270 1.50672
275 2.70347
280 3.93892
285 3.26306
290 4.02134
295 2.18481
300 3.59685
305 2.89004
310 1.02981
315 3.54019
320 2.09904
325 2.32544
330 2.73266
335 2.77196
340 4.64834
345 3.38626
350 6.35772
355 4.2621
360 2.81999
365 2.94681
370 2.46287
375 2.5135
380 2.82379
385 3.1827
390 2.30682
395 3.23829
400 4.07499
405 3.75486
410 3.84287
415 3.12257
420 4.69908
425 3.21201
430 1.71666
435 3.45707
440 4.93482
445 3.8438
450 2.64668
455 4.03322
460 4.25836
465 3.83456
470 4.05686
475 4.21121
480 3.3036
485 3.03455
490 2.23208
495 3.71969
500 1.67216
505 2.26958
510 2.05818
515 2.92459
520 2.7553
525 4.48811
530 4.41636
535 4.16765
540 1.86642
545 3.12921
550 2.91759
555 2.25162
560 3.40584
565 2.4385
570 2.51047
575 2.08688
580 2.17698
585 2.98932
590 1.49341
595 2.14266
600 0.243826
Ex : 253
200 2.44837
205 2.67187
210 1.23053
215 2.61887
220 1.4571
225 1.62754
230 2.19257
235 2.0925
240 1.94393
245 2.03606
250 1.36552
255 1.60736
260 2.54098
265 2.65498
270 2.22182
275 1.58604
280 2.83409
285 2.16194
290 3.93768
295 4.80822
300 3.07476
305 2.37179
310 1.83495
315 1.67231
320 0.970883
325 1.49854
330 2.61851
335 3.29077
340 2.99422
345 1.86583
350 2.48451
355 2.29251
360 3.21666
365 3.17901
370 2.83231
375 3.40917
380 3.60417
385 3.96758
390 2.47856
395 6.60726
400 2.78417
405 3.61948
410 3.42144
415 3.46559
420 3.61832
425 1.59336
430 3.1167
435 4.52765
440 2.09401
445 1.55623
450 2.90978
455 1.67219
460 1.83759
465 3.06913
470 1.72404
475 1.44953
480 4.4371
485 3.90032
490 3.4431
495 1.50525
500 2.22288
505 3.12185
510 3.41877
515 2.36952
520 1.9357
525 3.47914
530 3.12941
535 3.40385
540 1.3856
545 2.69747
550 2.73904
555 2.79714
560 1.9749
565 2.14314
570 2.2543
575 2.57131
580 3.02171
585 1.23006
590 2.84537
595 2.05492
600 0.322463
Ex : 258
200 1.59361
205 1.16513
210 1.21327
215 2.64627
220 1.94173
225 2.45493
230 2.39374
235 1.69637
240 1.12546
245 1.17651
250 3.38675
255 3.15402
260 1.2514
265 0.723091
270 1.90718
275 1.3693
280 1.0461
285 0.832529
290 0.603119
295 1.29599
300 1.40327
305 1.34928
310 1.02749
315 1.30272
320 2.07658
325 2.51966
330 2.91608
335 1.16178
340 1.06842
345 2.78019
350 2.32769
355 2.01323
360 2.51043
365 2.42323
370 2.57748
375 1.44701
380 1.84061
385 2.60417
390 1.45538
395 1.92991
400 2.18575
405 2.34467
410 3.28787
415 2.49632
420 3.74192
425 2.09454
430 2.58659
435 1.14854
440 1.66823
445 2.25284
450 2.40015
455 3.03337
460 1.35458
465 2.60652
470 2.10439
475 1.94197
480 2.22661
485 1.89435
490 1.7765
495 1.47324
500 1.6193
505 2.30535
510 1.47714
515 1.16355
520 1.13192
525 2.02614
530 2.00923
535 2.21565
540 1.11648
545 1.30513
550 1.95911
555 2.16545
560 2.18332
565 1.71865
570 1.69515
575 1.62895
580 1.42279
585 1.21539
590 0.698227
595 1.6602
600 2.28359
Ex : 263
200 1.74211
205 1.00332
210 1.18073
215 0.622082
220 1.01482
225 0.923538
230 0.745397
235 1.24835
240 1.13021
245 1.92616
250 0.815166
255 0.85214
260 0.797949
265 0.633759
270 1.53102
275 2.45706
280 1.46803
285 1.41927
290 1.34156
295 1.45545
300 1.33503
305 0.873214
310 1.60942
315 0.738981
320 1.56423
325 1.72606
330 1.32247
335 1.41783
340 1.27109
345 2.61122
350 1.83114
355 2.32825
360 1.1214
365 1.26522
370 1.90354
375 1.87864
380 1.4197
385 1.26813
390 2.22523
395 1.41877
400 1.91276
405 1.99787
410 1.91284
415 1.67425
420 1.33488
425 1.17313
430 1.70862
435 1.3555
440 1.76197
445 2.32739
450 2.22182
455 1.56037
460 1.30818
465 1.77757
470 1.49029
475 2.41954
480 2.06326
485 1.06813
490 2.01587
495 1.44793
500 3.00379
505 1.18309
510 0.932215
515 1.62959
520 0.673246
525 1.03135
530 2.15117
535 1.54739
540 1.3556
545 1.21016
550 1.55127
555 1.5698
560 1.7902
565 1.69217
570 1.08037
575 3.14177
580 1.16847
585 1.71773
590 0.874366
595 1.02115
600 2.45831
Ex : 268
200 2.1897
205 1.21662
210 1.72148
215 1.14725
220 1.63076
225 1.31515
230 1.62416
235 1.53441
240 1.6116
245 1.37859
250 1.13233
255 0.823747
260 0.373721
265 1.01021
270 0.916234
275 1.19299
280 0.888475
285 0.713866
290 1.24145
295 0.848271
300 1.80096
305 1.25494
310 0.594549
315 0.841423
320 0.952537
325 1.24381
330 1.83662
335 1.31984
340 1.27608
345 1.57188
350 0.77538
355 1.31434
360 2.11556
365 0.921086
370 0.930372
375 1.49173
380 2.1705
385 1.25062
390 1.42553
395 1.38697
400 0.877873
405 1.42858
410 0.896815
415 1.04676
420 1.47252
425 1.35412
430 2.30258
435 2.63652
440 2.153
445 1.79149
450 1.41232
455 1.45031
460 1.73079
465 1.08072
470 2.19161
475 1.12454
480 0.961
485 1.52656
490 1.16572
495 1.44394
500 1.24648
505 0.965008
510 1.01814
515 0.796604
520 1.23852
525 1.79973
530 1.14189
535 1.23955
540 0.893587
545 1.20003
550 1.70493
555 1.48702
560 1.12425
565 0.95951
570 1.20712
575 1.07456
580 0.798659
585 0.916014
590 0.999192
595 0.609378
600 1.2354
Ex : 273
200 0.523179
205 0.485786
210 0.571737
215 0.518373
220 0.636729
225 0.928923
230 0.502193
235 0.469198
240 0.954583
245 0.672396
250 0.807385
255 1.32756
260 0.868945
265 0.516392
270 0.787398
275 0.793146
280 1.89224
285 1.10251
290 0.795591
295 0.755934
300 0.600625
305 0.840911
310 1.17073
315 0.583992
320 0.755949
325 0.721321
330 1.2667
335 1.37143
340 1.33101
345 1.84655
350 1.58957
355 1.38641
360 1.22645
365 1.45845
370 1.2194
375 1.70835
380 1.31673
385 1.25409
390 0.886171
395 1.75938
400 1.16716
405 1.31237
410 1.46905
415 1.33461
420 0.960323
425 1.34937
430 1.02668
435 1.29844
440 0.954213
445 1.10371
450 1.15268
455 1.62442
460 1.26283
465 1.0783
470 1.3485
475 0.98171
480 0.984945
485 1.17592
490 1.24008
495 1.4182
500 1.11283
505 1.63147
510 0.955785
515 0.762289
520 0.851878
525 1.506
530 0.767187
535 0.496935
540 1.10507
545 1.05088
550 0.688433
555 0.850929
560 0.629556
565 0.757896
570 0.530339
575 0.385793
580 1.34904
585 1.42024
590 1.16971
595 1.00225
600 0.114052
Ex : 278
200 0.277326
205 0.548169
210 0.432915
215 0.898611
220 0.450324
225 0.721003
230 0.796252
235 0.709235
240 0.985391
245 0.519771
250 0.691568
255 0.829441
260 0.444013
265 0.847151
270 0.501432
275 0.969899
280 0.911822
285 0.958402
290 0.862256
295 0.546048
300 0.423094
305 0.683955
310 0.422466
315 0.81391
320 0.897888
325 0.421048
330 0.597802
335 1.35572
340 1.14208
345 0.648065
350 1.32812
355 1.14022
360 0.836111
365 1.19646
370 1.17817
375 0.805169
380 0.739672
385 1.53115
390 1.31687
395 1.1683
400 0.903774
405 1.50849
410 0.783289
415 0.940602
420 1.38791
425 1.28224
430 0.760748
435 1.31528
440 0.93795
445 1.31952
450 1.15006
455 0.525629
460 1.53226
465 1.29327
470 1.16341
475 1.07063
480 0.643225
485 0.721718
490 0.994895
495 0.983292
500 0.646045
505 0.715364
510 0.973198
515 0.711467
520 0.613497
525 0.777143
530 1.0261
535 0.767303
540 1.06125
545 0.743766
550 1.22253
555 1.39042
560 0.869615
565 0.90231
570 0.748005
575 0.672383
580 0.901629
585 0.741285
590 0.617689
595 0.668681
600 0.0760934
Ex : 283
200 0.431022
205 0.527009
210 0.683918
215 0.806395
220 0.313655
225 0.260082
230 0.504493
235 0.693744
240 0.639496
245 0.547069
250 0.701082
255 0.998782
260 0.587054
265 0.255602
270 0.577309
275 0.542417
280 0.553911
285 0.818169
290 0.944738
295 0.332597
300 0.401504
305 0.98474
310 0.632091
315 0.481458
320 0.449172
325 0.57801
330 0.825091
335 0.89048
340 0.912412
345 1.07759
350 0.986089
355 0.707947
360 0.912915
365 1.10803
370 0.943971
375 1.0503
380 0.689708
385 1.00993
390 0.947664
395 1.28455
400 1.15174
405 0.719423
410 0.657601
415 0.740637
420 0.660912
425 0.887226
430 0.983782
435 0.984838
440 1.13077
445 1.27659
450 0.590707
455 0.841221
460 0.871733
465 0.731252
470 0.945902
475 0.746468
480 0.917683
485 0.504115
490 0.530008
495 0.650894
500 0.425181
505 0.896435
510 0.985555
515 1.12002
520 0.793279
525 0.629905
530 0.541855
535 0.730318
540 0.683009
545 0.330078
550 0.623686
555 0.863508
560 0.784487
565 0.764283
570 0.50432
575 0.379886
580 0.249402
585 0.50454
590 0.362026
595 0.505526
600 0.0575269
Ex : 288
200 0.166875
205 0.352145
210 0.237623
215 0.376015
220 0.616478
225 0.308492
230 0.495485
235 0.328426
240 0.611259
245 0.537185
250 0.370964
255 0.562023
260 0.427943
265 0.356847
270 0.756106
275 0.743333
280 0.577973
285 0.496642
290 0.33763
295 0.358716
300 0.254925
305 0.443056
310 0.637521
315 0.384266
320 0.426457
325 0.483544
330 0.535885
335 0.844229
340 0.67979
345 0.70288
350 0.65758
355 0.601703
360 0.466005
365 0.779123
370 0.713952
375 0.936871
380 0.880575
385 0.67264
390 1.28709
395 0.474232
400 0.628525
405 1.25556
410 0.800962
415 0.581864
420 0.775177
425 0.707771
430 0.928069
435 1.11913
440 0.896774
445 0.623807
450 0.993385
455 0.745567
460 0.779496
465 0.616286
470 0.743847
475 0.579143
480 0.963947
485 0.625252
490 0.582227
495 0.484307
500 0.432363
505 0.444189
510 0.475233
515 0.655472
520 0.388652
525 0.797836
530 0.561135
535 0.463036
540 0.691993
545 0.550143
550 0.278395
555 0.372614
560 0.63543
565 0.610282
570 0.956212
575 0.49548
580 0.584525
585 0.557064
590 0.395859
595 0.436152
600 0.0496325
Ex : 293
200 0.226744
205 0.438763
210 0.480412
215 0.464809
220 0.229186
225 0.250725
230 0.159644
235 0.470737
240 0.236676
245 0.65946
250 0.286973
255 0.540141
260 0.491612
265 0.533674
270 0.369981
275 0.525917
280 0.645147
285 0.656643
290 0.376633
295 0.513109
300 0.191679
305 0.340389
310 0.225628
315 0.411373
320 0.302047
325 0.488246
330 0.579183
335 0.585959
340 0.592099
345 0.633828
350 0.493181
355 0.794466
360 0.931614
365 0.638485
370 0.677962
375 0.827522
380 0.351439
385 0.62125
390 1.10421
395 0.765031
400 0.695673
405 0.569133
410 0.959531
415 0.738216
420 0.714311
425 0.603564
430 0.547195
435 0.882113
440 0.54443
445 0.692522
450 0.654863
455 1.05924
460 0.530905
465 0.561477
470 1.24487
475 0.799398
480 0.523898
485 0.391709
490 0.389916
495 0.727427
500 0.436783
505 0.408885
510 0.512575
515 0.561194
520 0.331226
525 0.51115
530 0.378319
535 0.674768
540 0.504349
545 0.463216
550 0.195265
555 0.986044
560 0.372047
565 0.305091
570 0.366571
575 0.479564
580 0.785079
585 0.545342
590 0.381243
595 0.253911
600 0.0288941
Ex : 298
200 0.392265
205 0.264239
210 0.336721
215 0.424928
220 0.470396
225 0.327186
230 0.333187
235 0.194886
240 0.175099
245 0.173692
250 0.512878
255 0.286968
260 0.351986
265 0.787302
270 0.248467
275 0.643923
280 0.369228
285 0.30693
290 0.297981
295 0.323457
300 0.541162
305 0.310442
310 0.369597
315 0.312775
320 0.379022
325 0.655358
330 0.467985
335 0.693701
340 0.5095
345 0.70748
350 0.806658
355 0.560985
360 0.719891
365 1.18295
370 0.715726
375 0.61465
380 0.547792
385 0.714054
390 0.408337
395 0.789108
400 0.57184
405 0.93697
410 0.619951
415 0.750945
420 0.851579
425 0.551286
430 0.481003
435 0.591123
440 0.530284
445 0.739225
450 0.683106
455 0.534239
460 0.585998
465 0.52882
470 0.442679
475 0.502984
480 0.356036
485 0.440524
490 0.350468
495 0.310166
500 0.391681
505 0.449659
510 0.400997
515 0.585759
520 0.282454
525 0.36303
530 0.251322
535 0.219499
540 0.303807
545 0.348247
550 0.671285
555 0.394356
560 0.287961
565 0.35105
570 0.501316
575 0.23748
580 0.540351
585 0.631428
590 0.611584
595 0.950021
600 1.67601
Ex : 303
200 0.386703
205 0.488693
210 0.239836
215 0.31926
220 0.277128
225 0.306709
230 0.305191
235 0.221336
240 0.335465
245 0.368204
250 0.270827
255 0.227438
260 0.288946
265 0.230603
270 0.163864
275 0.42761
280 0.479691
285 0.288174
290 0.179548
295 0.252676
300 0.453128
305 0.254512
310 0.17191
315 0.162211
320 0.573612
325 0.437466
330 0.633838
335 0.54188
340 0.638776
345 0.642519
350 0.430302
355 0.572745
360 0.566291
365 0.417439
370 0.611675
375 0.67938
380 0.421807
385 0.70032
390 0.644186
395 0.911693
400 0.674331
405 0.643735
410 0.654226
415 0.749702
420 0.452018
425 0.503082
430 0.727375
435 0.658275
440 0.673677
445 0.652322
450 0.728157
455 0.603347
460 0.509627
465 0.919571
470 0.754005
475 0.348672
480 0.582491
485 0.391298
490 0.456421
495 0.371809
500 0.458487
505 0.400478
510 0.362049
515 0.312602
520 0.3094
525 0.490624
530 0.268206
535 0.687321
540 0.251834
545 0.237384
550 0.444093
555 0.282553
560 0.289461
565 0.31986
570 0.25058
575 0.383776
580 0.131764
585 0.225626
590 0.267952
595 0.259443
600 0.0295236
Ex : 308
200 0.167818
205 0.25787
210 0.235287
215 0.307879
220 0.314365
225 0.192988
230 0.363265
235 0.311402
240 0.18593
245 0.328016
250 0.211032
255 0.151672
260 0.165063
265 0.16422
270 0.102911
275 0.122912
280 0.159266
285 0.193695
290 0.223424
295 0.239928
300 0.193505
305 0.471977
310 0.317158
315 0.367265
320 0.357053
325 0.610443
330 0.475318
335 0.691807
340 0.550103
345 0.617515
350 0.51539
355 0.540931
360 0.541233
365 0.589173
370 0.469641
375 0.676555
380 0.676772
385 0.669365
390 0.609207
395 0.537182
400 0.907093
405 0.691456
410 0.826759
415 1.04055
420 0.702513
425 0.683836
430 0.720975
435 0.821829
440 0.637823
445 0.676953
450 0.515193
455 0.399952
460 0.454745
465 0.356284
470 0.578783
475 0.488662
480 0.489585
485 0.437681
490 0.262483
495 0.462451
500 0.488133
505 0.614977
510 0.360125
515 0.3907
520 0.231489
525 0.331306
530 0.45018
535 0.415359
540 0.387758
545 0.355342
550 0.275786
555 0.389321
560 0.247218
565 0.200476
570 0.122562
575 0.279032
580 0.233191
585 0.514289
590 0.310389
595 0.241329
600 0.0274623
Ex : 313
200 0.29303
205 0.176125
210 0.118298
215 0.245049
220 0.238399
225 0.184106
230 0.245606
235 0.140292
240 0.131944
245 0.13937
250 0.241547
255 0.227694
260 0.148042
265 0.318015
270 0.180102
275 0.139639
280 0.198505
285 0.236266
290 0.271683
295 0.221925
300 0.207764
305 0.270416
310 0.331386
315 0.263669
320 0.55372
325 0.776324
330 0.790058
335 0.701397
340 0.999728
345 0.735161
350 0.636065
355 0.550866
360 0.667149
365 0.718397
370 0.877768
375 0.874498
380 0.851602
385 1.19513
390 1.21668
395 1.04447
400 1.0713
405 1.10791
410 0.982587
415 1.2404
420 1.42679
425 1.26636
430 1.39617
435 1.10159
440 0.920681
445 1.25335
450 0.785896
455 0.87808
460 0.711284
465 0.67463
470 0.742105
475 0.607499
480 0.664807
485 0.74972
490 0.553488
495 0.37363
500 0.598583
505 0.38993
510 0.367809
515 0.349291
520 0.408749
525 0.275282
530 0.306779
535 0.250392
540 0.327503
545 0.321702
550 0.180339
555 0.395173
560 0.292725
565 0.360981
570 0.172519
575 0.266399
580 0.292664
585 0.19689
590 0.268982
595 0.352939
600 0.0401631
Ex : 318
200 0.199252
205 0.336538
210 0.157788
215 0.116556
220 0.1302
225 0.160092
230 0.254377
235 0.228124
240 0.184722
245 0.0704283
250 0.291214
255 0.21548
260 0.18819
265 0.129418
270 0.144111
275 0.114893
280 0.169688
285 0.149606
290 0.0930677
295 0.151578
300 0.127722
305 0.243201
310 0.685003
315 4.5665
320 2.40982
325 1.20491
330 1.28405
335 1.24983
340 1.46735
345 2.18856
350 2.87704
355 3.08078
360 3.47783
365 4.68697
370 5.77597
375 6.75745
380 7.49606
385 8.21016
390 9.4136
395 10.1534
400 10.9199
405 10.7094
410 11.3301
415 10.8564
420 11.183
425 10.8314
430 10.5801
435 9.50302
440 9.42651
445 9.25458
450 8.6615
455 8.50136
460 8.01787
465 6.90123
470 5.99483
475 6.04375
480 4.98588
485 3.93952
490 3.64962
495 3.22673
500 2.82718
505 2.45164
510 2.01179
515 1.65316
520 1.62403
525 1.33169
530 1.21411
535 1.11787
540 0.781237
545 0.658001
550 0.534328
555 0.526494
560 0.472241
565 0.519092
570 0.364133
575 0.324819
580 0.433473
585 0.468054
590 0.263999
595 0.297737
600 0.160482
Ex : 323
200 0.168338
205 0.216707
210 0.142835
215 0.165564
220 0.112485
225 0.146114
230 0.0937164
235 0.179344
240 0.154078
245 0.207771
250 0.16135
255 0.190359
260 0.153673
265 0.133051
270 0.171669
275 0.194295
280 0.221006
285 0.273856
290 0.0908718
295 0.216908
300 0.16782
305 0.26738
310 0.28479
315 31.7896
320 143.503
325 57.8474
330 9.72545
335 4.60102
340 4.89157
345 6.6441
350 9.72109
355 12.8968
360 15.3548
365 18.1746
370 21.6757
375 24.9592
380 28.1689
385 31.8187
390 33.8126
395 36.7365
400 37.9935
405 39.8085
410 40.3798
415 39.6949
420 38.7698
425 37.3828
430 37.2743
435 36.3764
440 34.7061
445 31.7959
450 30.7736
455 28.5563
460 26.8019
465 24.1648
470 22.0059
475 20.8172
480 19.2205
485 15.9942
490 14.3268
495 13.113
500 11.6269
505 10.2355
510 8.69855
515 7.35774
520 6.10728
525 5.50171
530 4.61142
535 4.27776
540 3.43667
545 3.2776
550 2.42976
555 2.10285
560 1.83841
565 1.1055
570 1.13927
575 0.746402
580 0.579195
585 0.358874
590 0.482009
595 0.303969
600 0.705957
Ex : 328
200 0.111849
205 0.181739
210 0.338142
215 0.151321
220 0.17875
225 0.30345
230 0.287899
235 0.35304
240 0.107962
245 0.109428
250 0.180081
255 0.239218
260 0.148609
265 0.158604
270 0.213117
275 0.205133
280 0.258732
285 0.223844
290 0.141356
295 0.175656
300 0.151756
305 0.215502
310 0.307848
315 7.8631
320 289.464
325 659.593
330 192.067
335 27.5185
340 9.01015
345 8.39982
350 9.46533
355 13.6661
360 18.6359
365 20.9431
370 23.3946
375 26.7106
380 29.3868
385 33.2348
390 36.8329
395 39.7854
400 39.6559
405 41.7059
410 42.3738
415 42.3409
420 41.0982
425 38.5244
430 36.8416
435 36.6968
440 36.0092
445 33.7506
450 31.7714
455 29.1852
460 27.4936
465 25.2934
470 23.2272
475 21.6637
480 18.8595
485 16.7766
490 15.1319
495 13.4979
500 11.8124
505 10.5638
510 9.75022
515 8.3747
520 6.96418
525 5.72592
530 5.44553
535 4.36382
540 3.83856
545 3.44089
550 2.90715
555 2.46292
560 2.24446
565 1.60156
570 1.47094
575 1.01334
580 0.764903
585 0.805654
590 0.484816
595 0.440259
600 0.123273
Ex : 333
200 0.20436
205 0.160367
210 0.30801
215 0.168866
220 0.155864
225 0.219289
230 0.177651
235 0.24194
240 0.224949
245 0.274931
250 0.170264
255 0.229549
260 0.197718
265 0.181575
270 0.198462
275 0.130072
280 0.243914
285 0.187096
290 0.188244
295 0.291576
300 0.302765
305 0.290699
310 0.44932
315 0.598569
320 38.0475
325 790.468
330 1347.04
335 339.999
340 45.331
345 11.6808
350 7.73784
355 7.78168
360 10.763
365 15.0959
370 16.932
375 16.3688
380 17.3298
385 20.5139
390 23.8291
395 25.2344
400 25.5379
405 25.6479
410 26.6802
415 27.4974
420 26.7813
425 24.9003
430 23.6593
435 23.2675
440 21.3315
445 20.1414
450 19.5686
455 18.0116
460 16.7419
465 15.2559
470 14.5892
475 12.8272
480 11.8674
485 10.4537
490 9.55664
495 8.91901
500 7.58292
505 6.8453
510 6.21721
515 5.2771
520 4.68792
525 4.04968
530 3.5831
535 3.41149
540 3.05327
545 2.80743
550 2.18415
555 2.03386
560 1.72494
565 1.42867
570 1.10385
575 0.960472
580 0.978971
585 0.683007
590 0.539379
595 0.601743
600 0.610452
Ex : 338
200 0.145326
205 0.119279
210 0.203724
215 0.170963
220 0.203363
225 0.185898
230 0.18302
235 0.200009
240 0.255034
245 0.216259
250 0.382469
255 0.282846
260 0.158924
265 0.193612
270 0.252729
275 0.284313
280 0.242281
285 0.175983
290 0.310476
295 0.388646
300 0.319212
305 0.324488
310 0.423062
315 0.464193
320 0.951288
325 71.2424
330 1107.75
335 1584.92
340 380.695
345 49.5144
350 10.8933
355 6.21311
360 5.75314
365 7.79685
370 11.9614
375 12.4385
380 11.8174
385 13.168
390 15.566
395 16.4573
400 16.5115
405 16.5513
410 18.1548
415 18.9255
420 18.0523
425 16.8967
430 15.1358
435 15.1142
440 14.1296
445 13.7503
450 12.5701
455 11.8434
460 10.9787
465 9.90949
470 9.80854
475 8.96646
480 8.55521
485 7.80786
490 7.10975
495 6.66078
500 5.82942
505 5.38405
510 4.56959
515 4.49364
520 3.52603
525 3.3413
530 2.96071
535 2.86407
540 2.67053
545 2.27762
550 2.15279
555 1.72151
560 1.48454
565 1.40536
570 1.18502
575 0.982743
580 0.799689
585 0.697219
590 0.807786
595 0.624849
600 0.776187
Ex : 343
200 0.229076
205 0.0719185
210 0.160334
215 0.176161
220 0.14971
225 0.18537
230 0.195318
235 0.296011
240 0.270658
245 0.157979
250 0.199335
255 0.152898
260 0.118717
265 0.197613
270 0.17084
275 0.189931
280 0.256473
285 0.153585
290 0.192222
295 0.178712
300 0.272343
305 0.270013
310 0.375802
315 0.409223
320 0.638089
325 1.77315
330 81.8031
335 1231.43
340 1774.05
345 421.081
350 53.7863
355 10.7828
360 5.45677
365 4.15045
370 5.03065
375 9.35728
380 11.3486
385 11.7881
390 13.753
395 14.1112
400 13.722
405 14.1985
410 15.1167
415 16.0163
420 15.7303
425 14.2301
430 12.6655
435 12.4418
440 12.8187
445 11.6882
450 11.0216
455 9.93513
460 9.62254
465 9.11341
470 8.42718
475 8.19091
480 7.61286
485 7.12417
490 6.64906
495 6.18305
500 5.64392
505 5.04548
510 4.72707
515 4.25549
520 4.34173
525 3.54748
530 3.01923
535 2.76872
540 2.72494
545 2.30136
550 1.88
555 1.95589
560 1.69728
565 1.44055
570 1.30399
575 1.09602
580 0.904559
585 0.699585
590 0.681988
595 0.599752
600 0.496482
Ex : 348
200 0.217024
205 0.165077
210 0.126092
215 0.202267
220 0.172674
225 0.166994
230 0.134313
235 0.18042
240 0.178763
245 0.152793
250 0.128442
255 0.130929
260 0.100622
265 0.289855
270 0.175549
275 0.177156
280 0.180342
285 0.146558
290 0.133653
295 0.199857
300 0.167073
305 0.255951
310 0.311822
315 0.397782
320 0.452358
325 0.93462
330 2.00918
335 80.1333
340 1183.03
345 1774.61
350 448.87
355 56.0968
360 10.3687
365 4.40533
370 3.34084
375 4.26199
380 8.75465
385 14.6673
390 17.1254
395 16.9106
400 15.0971
405 15.3632
410 17.4891
415 19.3139
420 17.9666
425 16.3165
430 14.9503
435 14.8364
440 14.5635
445 13.7289
450 12.6998
455 11.208
460 10.5873
465 9.91819
470 10.0635
475 8.93823
480 7.95267
485 7.83651
490 7.43813
495 6.92062
500 6.13136
505 5.85119
510 5.37199
515 4.88582
520 4.12775
525 3.75929
530 3.50375
535 3.28197
540 2.73871
545 2.34891
550 2.45231
555 2.37618
560 1.90068
565 1.69048
570 1.55486
575 0.976769
580 0.902259
585 0.732463
590 0.619058
595 0.563075
600 0.0696146
Ex : 353
200 0.134523
205 0.249612
210 0.120056
215 0.250253
220 0.148691
225 0.23841
230 0.153027
235 0.129205
240 0.115847
245 0.24265
250 0.256306
255 0.20428
260 0.233339
265 0.233895
270 0.126768
275 0.200251
280 0.179284
285 0.173852
290 0.169736
295 0.188093
300 0.231761
305 0.258127
310 0.242606
315 0.235101
320 0.349186
325 0.598024
330 1.22767
335 2.26596
340 79.5744
345 1271.91
350 1868.24
355 453.21
360 56.5394
365 10.33
370 4.44893
375 3.86944
380 4.95161
385 10.9516
390 18.8785
395 20.1355
400 18.2937
405 17.0335
410 18.6596
415 20.7739
420 20.6352
425 17.6578
430 15.8834
435 15.4841
440 15.7115
445 14.7807
450 13.5343
455 12.2015
460 11.1616
465 10.493
470 10.3878
475 9.45972
480 9.08733
485 8.3782
490 8.00485
495 7.44322
500 6.76394
505 6.09965
510 6.04566
515 5.21399
520 4.56822
525 4.40924
530 4.05465
535 3.77814
540 3.07068
545 3.00055
550 2.33663
555 2.38399
560 2.01706
565 1.76614
570 1.26291
575 1.00096
580 1.03828
585 0.665528
590 0.590782
595 0.605368
600 0.924357
Ex : 358
200 0.157328
205 0.119142
210 0.177012
215 0.103664
220 0.226334
225 0.122538
230 0.127303
235 0.159539
240 0.186021
245 0.146095
250 0.139425
255 0.13894
260 0.178821
265 0.108194
270 0.178212
275 0.175295
280 0.248466
285 0.286708
290 0.224622
295 0.167372
300 0.181122
305 0.140989
310 0.286844
315 0.288304
320 0.383318
325 0.415989
330 0.627554
335 0.95705
340 2.30075
345 78.3918
350 1216.9
355 1819.33
360 447.32
365 55.3958
370 9.55103
375 4.47824
380 4.48418
385 7.92198
390 14.0674
395 19.3489
400 18.857
405 16.1241
410 17.0582
415 19.0599
420 18.3385
425 16.2058
430 14.5579
435 14.0171
440 14.039
445 14.1827
450 12.1995
455 11.1084
460 10.7036
465 10.4796
470 9.68202
475 9.77378
480 9.21904
485 8.75488
490 8.17125
495 7.58787
500 7.27116
505 6.73242
510 6.74984
515 5.68451
520 5.31368
525 4.72797
530 4.56688
535 4.0729
540 3.73736
545 3.04117
550 2.98581
555 2.47509
560 2.07923
565 1.96399
570 1.72223
575 1.24791
580 0.939316
585 0.8552
590 0.737769
595 0.636824
600 0.663271
Ex : 363
200 0.0943039
205 0.137932
210 0.14039
215 0.164154
220 0.189381
225 0.163208
230 0.16318
235 0.151004
240 0.150268
245 0.143442
250 0.132837
255 0.0861994
260 0.149262
265 0.133627
270 0.11815
275 0.13361
280 0.207926
285 0.213092
290 0.172162
295 0.169143
300 0.143919
305 0.186137
310 0.134858
315 0.235178
320 0.317785
325 0.326661
330 0.483896
335 0.811269
340 1.12477
345 2.03796
350 68.7444
355 1152.55
360 1770.98
365 460.925
370 57.4919
375 10.1426
380 6.57246
385 9.858
390 14.1441
395 16.2762
400 19.2863
405 20.2403
410 21.1334
415 21.0798
420 19.3484
425 16.6267
430 15.1717
435 15.1191
440 15.0213
445 14.213
450 12.8202
455 12.4121
460 11.2575
465 10.9922
470 10.8526
475 10.3356
480 10.0084
485 9.30531
490 8.71699
495 8.53267
500 7.88257
505 7.03347
510 6.83727
515 6.08992
520 5.16521
525 5.21936
530 4.65811
535 4.08247
540 3.88281
545 3.38054
550 3.12219
555 2.69562
560 2.41537
565 2.18248
570 1.86102
575 1.51994
580 1.17609
585 0.880559
590 0.785812
595 0.645551
600 0.45199
Ex : 368
200 0.0797505
205 0.0985778
210 0.108707
215 0.0788457
220 0.109934
225 0.0821035
230 0.200225
235 0.208445
240 0.177971
245 0.1166
250 0.112968
255 0.149369
260 0.103782
265 0.168851
270 0.175359
275 0.134696
280 0.116174
285 0.175612
290 0.177234
295 0.156477
300 0.119155
305 0.0980346
310 0.205964
315 0.205256
320 0.210715
325 0.249783
330 0.341278
335 0.581513
340 0.726134
345 1.33736
350 2.26321
355 59.9344
360 1162.23
365 1952.55
370 529.321
375 66.0616
380 13.4383
385 12.5197
390 18.2891
395 20.1352
400 19.2119
405 21.9611
410 26.9403
415 28.2552
420 25.9236
425 20.6864
430 18.534
435 18.1757
440 18.1187
445 17.3959
450 15.5698
455 13.8817
460 13.173
465 12.4925
470 12.0392
475 11.562
480 11.1361
485 10.2829
490 9.88436
495 8.97879
500 8.49056
505 8.13311
510 7.52837
515 7.10062
520 6.12217
525 5.61828
530 5.16211
535 4.75551
540 4.1425
545 3.70711
550 3.47599
555 2.96491
560 2.69283
565 2.4423
570 1.94203
575 1.62079
580 1.23882
585 0.997535
590 0.720978
595 0.60138
600 0.802129
Ex : 373
200 0.0687031
205 0.129243
210 0.0679947
215 0.0986589
220 0.182529
225 0.113268
230 0.129125
235 0.152223
240 0.195137
245 0.156722
250 0.192965
255 0.153788
260 0.205697
265 0.176291
270 0.115118
275 0.0957564
280 0.141491
285 0.122442
290 0.128186
295 0.13456
300 0.183565
305 0.20418
310 0.157158
315 0.206499
320 0.166023
325 0.313766
330 0.296971
335 0.346605
340 0.630027
345 0.6943
350 1.23788
355 2.03557
360 63.5674
365 1100.14
370 1809.57
375 488.066
380 61.8827
385 16.1479
390 18.4762
395 21.7205
400 19.2673
405 18.1288
410 22.7746
415 28.5338
420 27.6261
425 22.5043
430 19.0313
435 17.2326
440 17.6347
445 17.5492
450 15.8294
455 14.0618
460 12.8243
465 12.8119
470 12.3956
475 12.1423
480 11.5427
485 10.8974
490 10.443
495 9.84772
500 9.60282
505 8.76404
510 8.20909
515 7.92388
520 6.96531
525 6.39486
530 5.61713
535 5.26997
540 4.77369
545 4.3379
550 3.74713
555 3.15754
560 2.84642
565 2.47093
570 2.25397
575 1.76337
580 1.2698
585 1.06436
590 0.704846
595 0.585534
600 0.509733
Ex : 378
200 0.0618851
205 0.117256
210 0.127741
215 0.119014
220 0.115947
225 0.079675
230 0.1097
235 0.145454
240 0.116693
245 0.114668
250 0.138219
255 0.128634
260 0.109437
265 0.13611
270 0.122961
275 0.0936848
280 0.116967
285 0.084606
290 0.120635
295 0.233998
300 0.166718
305 0.1805
310 0.115425
315 0.13321
320 0.242218
325 0.21289
330 0.353872
335 0.309355
340 0.384816
345 0.590478
350 0.961252
355 1.15753
360 2.50451
365 64.261
370 1186.17
375 1965.16
380 531.663
385 69.9183
390 20.6451
395 16.9088
400 14.678
405 13.2838
410 14.8455
415 19.0481
420 21.0389
425 18.5454
430 15.2497
435 14.1187
440 13.9146
445 13.1784
450 12.276
455 11.1062
460 10.7904
465 10.7748
470 11.3395
475 10.7587
480 10.4895
485 10.4727
490 10.0245
495 9.67051
500 9.3504
505 8.66137
510 8.33551
515 7.59468
520 7.13581
525 6.57837
530 5.61067
535 5.47426
540 5.131
545 4.43517
550 3.92643
555 3.65437
560 3.22813
565 2.80173
570 2.3261
575 1.96146
580 1.39119
585 1.1386
590 0.928786
595 0.72227
600 0.464112
Ex : 383
200 0.134944
205 0.113582
210 0.158568
215 0.0821074
220 0.117347
225 0.133362
230 0.123417
235 0.100386
240 0.122378
245 0.158358
250 0.132462
255 0.17624
260 0.197162
265 0.179376
270 0.0958839
275 0.0641844
280 0.137896
285 0.135384
290 0.128597
295 0.0903456
300 0.141024
305 0.134723
310 0.202271
315 0.121325
320 0.144353
325 0.156221
330 0.218004
335 0.317042
340 0.385333
345 0.473213
350 0.59061
355 0.712982
360 1.19452
365 2.24799
370 59.7428
375 1149.55
380 1939.87
385 523.162
390 73.5479
395 21.2539
400 14.38
405 14.1748
410 15.6217
415 16.6977
420 16.4515
425 16.7449
430 16.3737
435 14.788
440 14.1635
445 12.5693
450 11.6315
455 10.6592
460 10.5686
465 10.4387
470 10.816
475 10.7259
480 10.5879
485 10.3072
490 9.7898
495 9.92506
500 9.45057
505 8.92749
510 8.29708
515 8.05225
520 7.23404
525 6.52016
530 5.8094
535 5.17105
540 4.78876
545 4.33909
550 3.88961
555 3.66654
560 3.10452
565 2.75896
570 2.04692
575 1.67818
580 1.31894
585 1.02253
590 0.84855
595 0.639779
600 0.539503
Ex : 388
200 0.0897726
205 0.145808
210 0.120079
215 0.113181
220 0.0931484
225 0.103224
230 0.0953138
235 0.1079
240 0.146854
245 0.102773
250 0.127604
255 0.0750012
260 0.0777973
265 0.1538
270 0.0765064
275 0.112534
280 0.104182
285 0.150497
290 0.0938857
295 0.12025
300 0.160536
305 0.117213
310 0.110074
315 0.146833
320 0.146708
325 0.125781
330 0.197669
335 0.265474
340 0.27015
345 0.375853
350 0.406105
355 0.589472
360 0.786811
365 1.21281
370 2.30213
375 63.7816
380 1161.31
385 1939.36
390 542.04
395 79.9872
400 24.6658
405 18.3387
410 20.0638
415 21.7924
420 20.2045
425 17.3552
430 17.9962
435 18.6072
440 17.3021
445 16.259
450 13.7349
455 12.6186
460 11.7185
465 11.996
470 11.4641
475 11.5789
480 10.9348
485 10.8943
490 10.7768
495 10.0146
500 9.77332
505 9.23116
510 8.58815
515 8.01044
520 7.61928
525 6.74071
530 6.55201
535 5.76626
540 5.03834
545 4.60198
550 3.91676
555 3.43577
560 3.19756
565 2.77833
570 2.16571
575 1.92545
580 1.55454
585 1.09468
590 0.85531
595 0.603133
600 0.518501
Ex : 393
200 0.0702911
205 0.11845
210 0.124245
215 0.102805
220 0.0689447
225 0.0956037
230 0.117517
235 0.0817546
240 0.066124
245 0.077149
250 0.102906
255 0.149525
260 0.139631
265 0.091751
270 0.0871655
275 0.131112
280 0.0601189
285 0.189257
290 0.106083
295 0.0965999
300 0.126518
305 0.17365
310 0.134754
315 0.121143
320 0.131002
325 0.144948
330 0.248963
335 0.263167
340 0.245146
345 0.321875
350 0.410424
355 0.481279
360 0.567436
365 0.855174
370 1.24846
375 2.24716
380 62.7031
385 1285.92
390 2183.08
395 597.265
400 86.0437
405 24.2324
410 19.6975
415 22.7588
420 22.2106
425 18.6063
430 15.8795
435 16.333
440 19.013
445 17.6826
450 15.4088
455 13.1912
460 11.6645
465 11.5822
470 11.9423
475 11.9257
480 11.5518
485 11.3361
490 10.7268
495 10.2965
500 10.1379
505 9.32307
510 9.08295
515 8.20295
520 7.35976
525 6.82309
530 6.30103
535 5.70932
540 5.36159
545 4.85746
550 4.34736
555 3.87188
560 3.33616
565 2.9782
570 2.5846
575 1.88432
580 1.57772
585 1.15745
590 0.922305
595 0.592727
600 0.550256
Ex : 398
200 0.103524
205 0.0782732
210 0.106121
215 0.106372
220 0.0829197
225 0.145937
230 0.0933334
235 0.0734314
240 0.0735844
245 0.0978527
250 0.126992
255 0.102963
260 0.124577
265 0.15432
270 0.0935111
275 0.133398
280 0.158195
285 0.10878
290 0.13207
295 0.181183
300 0.129419
305 0.130843
310 0.17706
315 0.156643
320 0.15412
325 0.151711
330 0.191874
335 0.244384
340 0.272292
345 0.276876
350 0.350175
355 0.370237
360 0.495928
365 0.662781
370 0.876458
375 1.36304
380 2.86287
385 67.0713
390 1374.02
395 2378.57
400 632.588
405 83.1496
410 19.7074
415 14.57
420 13.9412
425 11.6258
430 9.6056
435 8.86235
440 10.5617
445 12.708
450 11.7698
455 10.2971
460 9.50179
465 9.42458
470 9.73854
475 10.2603
480 9.90551
485 10.2525
490 10.1073
495 9.72519
500 9.55704
505 9.35929
510 8.90776
515 8.11797
520 7.40756
525 7.08715
530 6.39541
535 6.0744
540 5.49285
545 4.99415
550 4.31904
555 3.92369
560 3.432
565 2.96048
570 2.34544
575 1.71701
580 1.44104
585 1.0444
590 0.803681
595 0.635245
600 0.718978
Ex : 403
200 0.0944349
205 0.0858039
210 0.0968377
215 0.0802216
220 0.115435
225 0.139246
230 0.119786
235 0.102782
240 0.0956118
245 0.0882802
250 0.104413
255 0.098992
260 0.14598
265 0.102711
270 0.124838
275 0.101539
280 0.156712
285 0.0775518
290 0.116781
295 0.143349
300 0.0912996
305 0.131753
310 0.0988093
315 0.177818
320 0.131212
325 0.145603
330 0.243561
335 0.157676
340 0.147385
345 0.273082
350 0.290544
355 0.320798
360 0.384961
365 0.422428
370 0.607425
375 0.769948
380 1.3887
385 2.84019
390 69.2789
395 1262.61
400 2152.01
405 587.377
410 73.7503
415 14.0428
420 6.92944
425 5.57033
430 4.97708
435 4.49981
440 4.95573
445 5.958
450 8.43333
455 9.12089
460 8.20144
465 8.51261
470 8.59973
475 8.93676
480 9.10884
485 9.41875
490 9.74262
495 9.71395
500 9.64909
505 9.15206
510 8.6564
515 8.39928
520 7.6425
525 6.87785
530 6.46214
535 6.05033
540 5.56404
545 5.07858
550 4.55874
555 3.93356
560 3.39369
565 3.09898
570 2.60877
575 1.91296
580 1.59628
585 1.26366
590 0.964977
595 0.722281
600 0.623594
Ex : 408
200 0.10074
205 0.102126
210 0.0910898
215 0.107023
220 0.0769485
225 0.0913748
230 0.123894
235 0.0496421
240 0.0793972
245 0.077728
250 0.116892
255 0.0642991
260 0.100896
265 0.0975089
270 0.111199
275 0.0822057
280 0.0878671
285 0.0861146
290 0.121784
295 0.0766757
300 0.136205
305 0.13077
310 0.13053
315 0.124972
320 0.0924412
325 0.185762
330 0.173642
335 0.155729
340 0.224054
345 0.205528
350 0.221891
355 0.26269
360 0.377975
365 0.397147
370 0.413229
375 0.538697
380 0.946122
385 1.47259
390 2.83314
395 65.0796
400 1296.25
405 2211.28
410 591.417
415 73.3869
420 12.6185
425 5.18019
430 4.11799
435 3.92994
440 3.77437
445 4.27214
450 5.03766
455 7.18644
460 9.20844
465 8.68558
470 8.95246
475 8.82547
480 8.95588
485 9.38876
490 9.59324
495 9.31632
500 9.50991
505 9.09899
510 8.61147
515 8.22332
520 7.61593
525 7.12899
530 6.48394
535 6.19444
540 5.50233
545 4.88092
550 4.33721
555 4.04063
560 3.26282
565 3.00475
570 2.41557
575 2.0301
580 1.65871
585 1.19707
590 0.979748
595 0.881507
600 0.686108
Ex : 413
200 0.111076
205 0.0620671
210 0.132945
215 0.0853622
220 0.0605669
225 0.0877731
230 0.102677
235 0.0774661
240 0.137292
245 0.114043
250 0.115649
255 0.103063
260 0.0785285
265 0.0905257
270 0.129464
275 0.0869987
280 0.106991
285 0.0881962
290 0.0912812
295 0.120739
300 0.116869
305 0.115628
310 0.135596
315 0.143383
320 0.132946
325 0.117304
330 0.136913
335 0.189008
340 0.188777
345 0.267247
350 0.251536
355 0.239293
360 0.262939
365 0.331724
370 0.345776
375 0.392194
380 0.622967
385 0.901636
390 1.49571
395 2.62407
400 79.8792
405 1407.34
410 2269.11
415 583.435
420 71.688
425 11.9064
430 4.57422
435 3.99258
440 3.89369
445 3.95784
450 4.46691
455 4.99946
460 6.84332
465 9.3954
470 9.52364
475 9.14613
480 9.64145
485 9.43674
490 9.13668
495 9.46589
500 9.3369
505 8.95805
510 8.64637
515 8.16995
520 7.58065
525 7.20941
530 6.43975
535 5.73091
540 5.52578
545 4.99696
550 4.4111
555 4.10058
560 3.46508
565 3.13214
570 2.54241
575 2.18131
580 1.62903
585 1.36608
590 0.999826
595 0.857257
600 0.549458
Ex : 418
200 0.0648623
205 0.0543607
210 0.0659451
215 0.103954
220 0.121981
225 0.107274
230 0.0900186
235 0.113343
240 0.0889661
245 0.12445
250 0.0946748
255 0.0844599
260 0.101191
265 0.149104
270 0.108438
275 0.181545
280 0.134523
285 0.10593
290 0.120859
295 0.0991808
300 0.103987
305 0.11926
310 0.150832
315 0.166082
320 0.160846
325 0.11421
330 0.176911
335 0.143005
340 0.206525
345 0.19678
350 0.200521
355 0.199043
360 0.291757
365 0.275332
370 0.373048
375 0.438575
380 0.441524
385 0.723579
390 1.09127
395 1.45135
400 2.82785
405 77.1972
410 1382.98
415 2251.52
420 601.777
425 73.259
430 11.5786
435 4.3183
440 3.8593
445 3.39225
450 3.63357
455 4.30316
460 5.03304
465 6.66445
470 9.46422
475 10.181
480 9.29401
485 9.47054
490 9.1015
495 9.14163
500 9.05673
505 8.62638
510 8.43489
515 7.99517
520 7.59308
525 7.02808
530 6.49618
535 5.97774
540 5.24373
545 4.90961
550 4.34778
555 4.00161
560 3.54975
565 2.87573
570 2.54388
575 2.09351
580 1.60828
585 1.16991
590 0.935037
595 0.711108
600 0.371432
Ex : 423
200 0.113712
205 0.0945549
210 0.119462
215 0.148507
220 0.156031
225 0.0962122
230 0.12041
235 0.132904
240 0.0931701
245 0.0709512
250 0.106131
255 0.0937726
260 0.0999729
265 0.105033
270 0.131352
275 0.127668
280 0.111288
285 0.133617
290 0.109401
295 0.129347
300 0.137422
305 0.137804
310 0.130547
315 0.111753
320 0.10606
325 0.119108
330 0.254719
335 0.256978
340 0.146095
345 0.134016
350 0.182805
355 0.267128
360 0.249272
365 0.262403
370 0.337198
375 0.347853
380 0.410804
385 0.460583
390 0.74279
395 1.08491
400 1.5316
405 2.80869
410 77.2258
415 1511.17
420 2442.72
425 619.449
430 75.527
435 12.0502
440 4.20828
445 3.65137
450 3.70936
455 3.98337
460 4.30465
465 5.54409
470 6.61061
475 9.00503
480 10.3668
485 9.32953
490 9.39598
495 9.07053
500 8.64717
505 8.32338
510 8.0524
515 7.41
520 7.27847
525 6.52259
530 6.22149
535 5.73939
540 4.9941
545 4.59387
550 4.24399
555 3.79706
560 3.37983
565 2.88228
570 2.49233
575 2.05262
580 1.48242
585 1.23437
590 0.954955
595 0.710619
600 0.674564
Ex : 428
200 0.137556
205 0.084427
210 0.0802706
215 0.110041
220 0.106664
225 0.0938911
230 0.0780488
235 0.100658
240 0.130455
245 0.166055
250 0.0933197
255 0.0787726
260 0.100667
265 0.102645
270 0.100032
275 0.0691064
280 0.0963356
285 0.128883
290 0.0730497
295 0.131316
300 0.0992324
305 0.0984517
310 0.109371
315 0.101574
320 0.112623
325 0.103077
330 0.125404
335 0.129605
340 0.163547
345 0.217945
350 0.139164
355 0.199587
360 0.210038
365 0.257622
370 0.224978
375 0.22201
380 0.330876
385 0.422367
390 0.489354
395 0.565046
400 0.947181
405 1.51098
410 2.55693
415 81.8088
420 1427.75
425 2273.72
430 595.059
435 72.4977
440 11.4333
445 4.10765
450 3.56342
455 4.24281
460 4.15463
465 4.86358
470 5.65334
475 6.52173
480 8.43354
485 10.3176
490 9.5126
495 8.64574
500 8.68196
505 8.15092
510 7.53118
515 7.18362
520 6.64537
525 6.49016
530 5.8313
535 5.42932
540 5.09895
545 4.35887
550 3.91776
555 3.66344
560 2.9527
565 2.5876
570 2.21659
575 1.64329
580 1.38663
585 0.976237
590 0.79509
595 0.698689
600 0.715455
Ex : 433
200 0.0657004
205 0.126816
210 0.116286
215 0.119014
220 0.102512
225 0.0585851
230 0.123737
235 0.112871
240 0.107992
245 0.115569
250 0.0979391
255 0.0904118
260 0.182051
265 0.120045
270 0.121894
275 0.139174
280 0.162871
285 0.14941
290 0.125436
295 0.145328
300 0.100363
305 0.120257
310 0.116614
315 0.110659
320 0.190862
325 0.129919
330 0.131394
335 0.223757
340 0.175571
345 0.193328
350 0.210175
355 0.190286
360 0.180315
365 0.26946
370 0.243976
375 0.283054
380 0.337597
385 0.39559
390 0.434146
395 0.568864
400 0.804737
405 1.00679
410 1.67358
415 3.04734
420 96.375
425 1677.13
430 2493.09
435 613.495
440 74.7673
445 11.8432
450 4.51833
455 3.94318
460 4.51771
465 4.74767
470 5.0541
475 5.91546
480 6.36464
485 7.69709
490 9.68343
495 9.19287
500 8.13956
505 7.67494
510 7.38692
515 6.26862
520 6.17071
525 5.70687
530 4.98582
535 4.97202
540 4.51207
545 3.94443
550 3.81155
555 3.37487
560 3.04408
565 2.51843
570 2.12276
575 1.64449
580 1.33702
585 1.11202
590 0.892261
595 0.606165
600 0.297965
Ex : 438
200 0.0709465
205 0.0937459
210 0.0865333
215 0.0845392
220 0.0878437
225 0.137091
230 0.127297
235 0.0643561
240 0.128678
245 0.105567
250 0.123045
255 0.0692003
260 0.111295
265 0.122086
270 0.0732177
275 0.0953484
280 0.122104
285 0.118267
290 0.150742
295 0.189766
300 0.083114
305 0.11248
310 0.129659
315 0.0773286
320 0.114131
325 0.104215
330 0.156892
335 0.134914
340 0.183965
345 0.184815
350 0.155908
355 0.130808
360 0.17432
365 0.195402
370 0.203617
375 0.23018
380 0.258638
385 0.303196
390 0.397127
395 0.525398
400 0.661335
405 0.812775
410 0.940201
415 1.68531
420 2.85738
425 96.0058
430 1584.26
435 2442.15
440 605.814
445 73.9253
450 12.0411
455 4.65008
460 4.16597
465 4.58125
470 4.85742
475 4.91011
480 5.24427
485 5.86209
490 6.46737
495 8.11112
500 8.54686
505 7.26466
510 6.92097
515 6.38781
520 5.6521
525 5.13177
530 4.88704
535 4.58205
540 4.17933
545 3.58813
550 3.17752
555 3.23984
560 2.89344
565 2.40407
570 1.90526
575 1.47402
580 1.13522
585 0.964554
590 0.779445
595 0.575536
600 0.0743558
Ex : 443
200 0.117991
205 0.173745
210 0.11774
215 0.113085
220 0.0879403
225 0.112067
230 0.0989316
235 0.167521
240 0.119068
245 0.0958838
250 0.100662
255 0.104721
260 0.126488
265 0.119218
270 0.0702585
275 0.0807762
280 0.146171
285 0.158816
290 0.143908
295 0.0892402
300 0.0823021
305 0.133113
310 0.0841731
315 0.0907466
320 0.148597
325 0.158836
330 0.141736
335 0.182439
340 0.139054
345 0.170271
350 0.163183
355 0.186879
360 0.178226
365 0.257937
370 0.149851
375 0.292216
380 0.233792
385 0.322978
390 0.324144
395 0.350269
400 0.430651
405 0.528537
410 0.713759
415 0.948137
420 1.48768
425 2.8726
430 98.2382
435 1631.87
440 2532.95
445 645.628
450 78.9351
455 12.9324
460 5.1068
465 4.35844
470 4.77676
475 4.90609
480 4.80419
485 4.98248
490 5.21693
495 5.66338
500 7.03684
505 7.77756
510 6.81188
515 5.84188
520 5.41677
525 4.81044
530 4.39541
535 3.98726
540 3.60876
545 3.22804
550 2.97443
555 2.53067
560 2.40888
565 2.08034
570 1.83496
575 1.37687
580 1.08136
585 0.896541
590 0.697074
595 0.588051
600 0.775881
Ex : 448
200 0.102091
205 0.115969
210 0.103733
215 0.0978684
220 0.0944639
225 0.104387
230 0.140624
235 0.104552
240 0.149092
245 0.0849771
250 0.126816
255 0.0728825
260 0.175965
265 0.121391
270 0.13615
275 0.107507
280 0.138632
285 0.19971
290 0.0847126
295 0.119612
300 0.155092
305 0.162711
310 0.0981802
315 0.120835
320 0.146252
325 0.187165
330 0.0894847
335 0.163957
340 0.150748
345 0.17191
350 0.151913
355 0.177078
360 0.226317
365 0.177064
370 0.170879
375 0.211563
380 0.266423
385 0.31317
390 0.285302
395 0.382834
400 0.408866
405 0.435696
410 0.606704
415 0.759124
420 1.07346
425 1.60543
430 2.93679
435 97.1719
440 1708.74
445 2618.96
450 657.398
455 80.1723
460 13.0812
465 4.94889
470 4.15016
475 4.4342
480 4.64549
485 4.40361
490 4.55696
495 4.41857
500 4.43134
505 5.39905
510 6.74099
515 5.95671
520 4.92139
525 4.43918
530 4.16626
535 3.4183
540 3.23841
545 2.83746
550 2.67432
555 2.50651
560 2.08639
565 1.76195
570 1.61359
575 1.23841
580 1.03437
585 0.758703
590 0.594156
595 0.559467
600 0.146654
Ex : 453
200 0.11241
205 0.137345
210 0.156119
215 0.118858
220 0.0992765
225 0.10279
230 0.0998769
235 0.118898
240 0.106392
245 0.0868422
250 0.112263
255 0.103874
260 0.0995674
265 0.110744
270 0.141095
275 0.101048
280 0.108786
285 0.132261
290 0.110744
295 0.14058
300 0.170793
305 0.17153
310 0.168862
315 0.154839
320 0.170927
325 0.197095
330 0.157764
335 0.123822
340 0.208785
345 0.179532
350 0.210126
355 0.22667
360 0.238798
365 0.187713
370 0.256758
375 0.18826
380 0.195391
385 0.253421
390 0.30424
395 0.344441
400 0.41373
405 0.365669
410 0.537197
415 0.58976
420 0.845759
425 0.990212
430 1.72191
435 2.90494
440 111.737
445 1939.08
450 2776.65
455 646.846
460 79.0868
465 13.1309
470 5.0277
475 3.99607
480 4.28381
485 4.1527
490 3.85854
495 3.79938
500 3.89836
505 3.73082
510 4.14586
515 5.47249
520 5.47716
525 4.23052
530 3.7103
535 3.35127
540 2.76453
545 2.40773
550 2.28431
555 2.162
560 1.72699
565 1.5878
570 1.33639
575 1.15294
580 0.911107
585 0.680023
590 0.539699
595 0.453372
600 0.126365
Ex : 458
200 0.113212
205 0.0945874
210 0.0698162
215 0.11627
220 0.123955
225 0.0997955
230 0.112987
235 0.144851
240 0.110115
245 0.070098
250 0.11169
255 0.140286
260 0.125741
265 0.11553
270 0.11206
275 0.122287
280 0.138436
285 0.132877
290 0.139151
295 0.0939726
300 0.103803
305 0.136848
310 0.176978
315 0.148198
320 0.200633
325 0.128985
330 0.158536
335 0.147087
340 0.183408
345 0.150494
350 0.128134
355 0.185796
360 0.152819
365 0.238474
370 0.242499
375 0.180926
380 0.225039
385 0.236271
390 0.232019
395 0.313587
400 0.354303
405 0.409541
410 0.453108
415 0.484013
420 0.676409
425 0.804186
430 1.06132
435 1.74107
440 3.22817
445 124.586
450 2041.66
455 3090.91
460 741.214
465 90.4848
470 14.535
475 4.88194
480 3.77216
485 3.79945
490 3.67351
495 3.3797
500 3.137
505 3.0534
510 2.98489
515 3.0441
520 4.13588
525 4.75856
530 3.9567
535 3.16388
540 2.88243
545 2.40048
550 2.08946
555 1.85824
560 1.58634
565 1.48691
570 1.23453
575 0.959234
580 0.781071
585 0.663566
590 0.508536
595 0.403219
600 0.520637
Ex : 463
200 0.0637972
205 0.147781
210 0.0981924
215 0.0859007
220 0.100158
225 0.134622
230 0.115711
235 0.139713
240 0.0858673
245 0.107269
250 0.0966102
255 0.16234
260 0.129509
265 0.126748
270 0.122016
275 0.112079
280 0.113886
285 0.149762
290 0.111907
295 0.122012
300 0.118212
305 0.13275
310 0.109675
315 0.163267
320 0.127822
325 0.166492
330 0.172392
335 0.163094
340 0.158493
345 0.18265
350 0.190314
355 0.180824
360 0.163778
365 0.209891
370 0.221965
375 0.240904
380 0.201641
385 0.218141
390 0.273452
395 0.279826
400 0.304726
405 0.387412
410 0.465641
415 0.434528
420 0.472582
425 0.584181
430 0.731603
435 1.07307
440 1.75488
445 3.31291
450 116.701
455 2037.85
460 3150.83
465 758.586
470 91.9156
475 14.0185
480 4.68413
485 3.24375
490 3.14297
495 3.06056
500 2.7638
505 2.62096
510 2.48274
515 2.60186
520 2.57791
525 3.13905
530 4.27372
535 3.60954
540 2.53328
545 2.42706
550 2.01705
555 1.67054
560 1.45955
565 1.24216
570 1.11872
575 0.908729
580 0.684977
585 0.632646
590 0.486407
595 0.451753
600 0.189202
Ex : 468
200 0.0875627
205 0.102211
210 0.13541
215 0.113094
220 0.139255
225 0.118535
230 0.108345
235 0.119545
240 0.133426
245 0.145541
250 0.124751
255 0.0914831
260 0.106462
265 0.072449
270 0.0891834
275 0.0894534
280 0.111896
285 0.117003
290 0.123485
295 0.152235
300 0.133504
305 0.114608
310 0.140498
315 0.158947
320 0.139957
325 0.161549
330 0.123285
335 0.128572
340 0.172279
345 0.19718
350 0.133032
355 0.163275
360 0.165542
365 0.146371
370 0.144974
375 0.185094
380 0.233063
385 0.218894
390 0.282046
395 0.266524
400 0.382535
405 0.286518
410 0.392777
415 0.360824
420 0.430744
425 0.459837
430 0.517136
435 0.848355
440 1.2233
445 1.93898
450 3.40532
455 131.137
460 2216.93
465 3655.93
470 894.561
475 107.129
480 15.9094
485 4.51854
490 3.05044
495 3.01372
500 2.73722
505 2.34996
510 2.15921
515 2.15711
520 2.20517
525 2.09058
530 2.45599
535 3.49439
540 3.50739
545 2.51462
550 2.19536
555 1.89591
560 1.58462
565 1.2254
570 1.13945
575 0.845978
580 0.7465
585 0.589355
590 0.537723
595 0.471038
600 0.241951
Ex : 473
200 0.0936815
205 0.170906
210 0.116249
215 0.110132
220 0.109026
225 0.0820834
230 0.083124
235 0.129677
240 0.118582
245 0.13059
250 0.103506
255 0.114767
260 0.116998
265 0.135852
270 0.090625
275 0.082088
280 0.127689
285 0.132014
290 0.166794
295 0.125239
300 0.165698
305 0.130061
310 0.167601
315 0.124576
320 0.164165
325 0.179882
330 0.130843
335 0.170745
340 0.147364
345 0.184107
350 0.189383
355 0.163948
360 0.156783
365 0.19077
370 0.223348
375 0.205263
380 0.186787
385 0.223199
390 0.271066
395 0.270671
400 0.298365
405 0.311018
410 0.352924
415 0.409092
420 0.416971
425 0.459619
430 0.551694
435 0.677801
440 0.80481
445 1.18532
450 2.0026
455 3.59873
460 144.814
465 2289.83
470 3204.9
475 726.207
480 87.3483
485 13.0617
490 4.02366
495 2.63989
500 2.47791
505 2.2888
510 2.12594
515 1.93383
520 1.85356
525 1.86681
530 1.78102
535 1.95672
540 2.77097
545 3.25649
550 2.40823
555 1.88673
560 1.73879
565 1.38279
570 1.10823
575 0.767715
580 0.671538
585 0.57147
590 0.510196
595 0.515291
600 0.975846
Ex : 478
200 0.148758
205 0.116238
210 0.128077
215 0.0962888
220 0.132859
225 0.165163
230 0.111219
235 0.124412
240 0.126002
245 0.116041
250 0.112212
255 0.13091
260 0.136374
265 0.0955011
270 0.111172
275 0.206662
280 0.123111
285 0.11284
290 0.128371
295 0.138718
300 0.135834
305 0.119141
310 0.14303
315 0.133697
320 0.167556
325 0.142
330 0.163759
335 0.242612
340 0.157588
345 0.183164
350 0.208862
355 0.167511
360 0.1935
365 0.166391
370 0.239067
375 0.166734
380 0.225656
385 0.254047
390 0.222955
395 0.313505
400 0.310643
405 0.254973
410 0.279107
415 0.35092
420 0.444803
425 0.33184
430 0.501996
435 0.5634
440 0.744816
445 0.97975
450 1.44224
455 2.13863
460 4.20401
465 160.797
470 2367.32
475 3305.42
480 802.263
485 96.4406
490 14.3807
495 4.10509
500 2.42337
505 2.38892
510 2.00078
515 1.98589
520 1.86728
525 1.7609
530 1.75693
535 1.67992
540 1.60398
545 2.14712
550 3.02185
555 2.37697
560 1.64997
565 1.42748
570 1.20864
575 0.8662
580 0.693679
585 0.636076
590 0.417704
595 0.407347
600 0.304442
Ex : 483
200 0.116037
205 0.083578
210 0.108347
215 0.154246
220 0.0994262
225 0.106627
230 0.14057
235 0.119196
240 0.120978
245 0.11941
250 0.105543
255 0.119708
260 0.155577
265 0.137333
270 0.116773
275 0.139826
280 0.113419
285 0.145051
290 0.168662
295 0.137689
300 0.137294
305 0.0750487
310 0.164816
315 0.123298
320 0.130033
325 0.187504
330 0.128797
335 0.231307
340 0.191934
345 0.162224
350 0.148426
355 0.182212
360 0.206802
365 0.202697
370 0.208559
375 0.145075
380 0.186803
385 0.161138
390 0.295572
395 0.280965
400 0.367187
405 0.303137
410 0.275792
415 0.343696
420 0.348092
425 0.37807
430 0.423479
435 0.463746
440 0.606946
445 0.683065
450 0.98917
455 1.39396
460 2.37458
465 4.37328
470 119.979
475 2256.88
480 3461.5
485 815.356
490 97.828
495 14.1677
500 4.08726
505 2.28061
510 2.19331
515 2.07197
520 2.01048
525 1.84566
530 1.62024
535 1.51871
540 1.47008
545 1.62132
550 1.6224
555 2.45361
560 2.63561
565 1.60929
570 1.2428
575 1.12417
580 0.845963
585 0.633087
590 0.444039
595 0.425812
600 0.170271
Ex : 488
200 0.10798
205 0.129697
210 0.112398
215 0.112218
220 0.0904786
225 0.144069
230 0.117609
235 0.142284
240 0.160909
245 0.152776
250 0.14834
255 0.154207
260 0.139701
265 0.19237
270 0.139189
275 0.179818
280 0.128483
285 0.137605
290 0.166492
295 0.131694
300 0.09495
305 0.11861
310 0.110084
315 0.129919
320 0.140478
325 0.143903
330 0.143483
335 0.173772
340 0.122224
345 0.149342
350 0.16022
355 0.129222
360 0.160228
365 0.17777
370 0.162703
375 0.154251
380 0.218192
385 0.225343
390 0.20901
395 0.260177
400 0.254467
405 0.198788
410 0.308441
415 0.38255
420 0.411882
425 0.324214
430 0.373327
435 0.385722
440 0.50901
445 0.638641
450 0.73571
455 1.19593
460 1.75563
465 2.66251
470 4.27667
475 152.28
480 2428.9
485 3257.55
490 747.719
495 89.6635
500 13.0886
505 3.42269
510 1.97287
515 1.91036
520 1.93704
525 1.89516
530 1.63836
535 1.47716
540 1.42848
545 1.48965
550 1.38339
555 1.39874
560 1.83093
565 2.3014
570 1.746
575 0.932957
580 0.855957
585 0.620496
590 0.481901
595 0.406155
600 0.535159
Ex : 493
200 0.195021
205 0.19275
210 0.09567
215 0.155565
220 0.0620929
225 0.132228
230 0.0737403
235 0.193812
240 0.163486
245 0.116945
250 0.132379
255 0.0948467
260 0.150232
265 0.148887
270 0.112976
275 0.182815
280 0.134202
285 0.141907
290 0.208427
295 0.169079
300 0.174075
305 0.186123
310 0.108387
315 0.123736
320 0.12407
325 0.146973
330 0.241146
335 0.162606
340 0.140686
345 0.149074
350 0.190083
355 0.175194
360 0.228569
365 0.139376
370 0.192811
375 0.237743
380 0.264353
385 0.17356
390 0.234392
395 0.284494
400 0.250412
405 0.236706
410 0.260888
415 0.248922
420 0.324209
425 0.394953
430 0.33822
435 0.35748
440 0.387931
445 0.531496
450 0.598279
455 0.717771
460 1.14077
465 1.575
470 2.25292
475 3.77344
480 129.366
485 2233.45
490 3386.76
495 780.429
500 93.1852
505 13.4986
510 3.55358
515 2.17889
520 1.72103
525 1.9239
530 1.76989
535 1.57126
540 1.31223
545 1.20386
550 1.32256
555 1.15645
560 1.0494
565 1.42332
570 1.85315
575 1.70889
580 0.947055
585 0.786058
590 0.649629
595 0.571566
600 0.225562
Ex : 498
200 0.200969
205 0.193157
210 0.131949
215 0.168306
220 0.115816
225 0.115228
230 0.111797
235 0.134012
240 0.131487
245 0.162024
250 0.171431
255 0.146603
260 0.116629
265 0.143575
270 0.118168
275 0.203272
280 0.185343
285 0.159694
290 0.142546
295 0.110254
300 0.0740785
305 0.0812673
310 0.180259
315 0.217964
320 0.206281
325 0.143708
330 0.122972
335 0.123122
340 0.169339
345 0.164295
350 0.136631
355 0.267685
360 0.222757
365 0.178238
370 0.165512
375 0.129232
380 0.180427
385 0.166367
390 0.217544
395 0.319178
400 0.215396
405 0.25003
410 0.289828
415 0.24189
420 0.339616
425 0.37829
430 0.343932
435 0.410944
440 0.402913
445 0.458011
450 0.587342
455 0.68743
460 0.893577
465 1.34545
470 1.70238
475 2.38608
480 3.90251
485 161.307
490 2365.57
495 3208.23
500 745.842
505 89.2273
510 12.7338
515 3.59638
520 2.15419
525 1.82363
530 1.9363
535 1.87499
540 1.44582
545 1.18672
550 1.29046
555 1.0506
560 1.09986
565 0.978113
570 1.00552
575 1.56304
580 1.40262
585 0.914303
590 0.666537
595 0.572272
600 0.572321
Ex : 503
200 0.129686
205 0.123209
210 0.137579
215 0.115518
220 0.0899166
225 0.0936033
230 0.117038
235 0.164452
240 0.159998
245 0.143583
250 0.100025
255 0.123574
260 0.119422
265 0.164629
270 0.189609
275 0.149483
280 0.205643
285 0.152372
290 0.169933
295 0.142732
300 0.112357
305 0.143814
310 0.171659
315 0.138569
320 0.240628
325 0.125346
330 0.164068
335 0.131077
340 0.138557
345 0.155595
350 0.238905
355 0.147388
360 0.125454
365 0.188594
370 0.247405
375 0.257297
380 0.214003
385 0.247942
390 0.220872
395 0.213694
400 0.240791
405 0.274849
410 0.289262
415 0.297002
420 0.342633
425 0.333889
430 0.316237
435 0.288999
440 0.396556
445 0.455053
450 0.419082
455 0.599988
460 0.778086
465 0.896216
470 1.11807
475 1.561
480 2.40905
485 4.13707
490 149.278
495 2445.65
500 3447.15
505 794.256
510 94.9726
515 13.6924
520 3.70393
525 2.17056
530 1.77592
535 1.57368
540 1.74555
545 1.59022
550 1.17682
555 1.09163
560 1.03607
565 0.909382
570 0.859461
575 0.818296
580 1.0682
585 1.12173
590 0.787333
595 0.601791
600 0.366463
Ex : 508
200 0.16484
205 0.124296
210 0.113
215 0.100389
220 0.175687
225 0.180723
230 0.187425
235 0.129609
240 0.0933506
245 0.16053
250 0.193665
255 0.159351
260 0.183635
265 0.12957
270 0.112662
275 0.133238
280 0.188843
285 0.20782
290 0.112974
295 0.16201
300 0.125053
305 0.0873356
310 0.105952
315 0.153533
320 0.140835
325 0.13139
330 0.161755
335 0.164341
340 0.169024
345 0.194204
350 0.235927
355 0.175614
360 0.205894
365 0.172764
370 0.149318
375 0.197225
380 0.149058
385 0.133514
390 0.145517
395 0.240424
400 0.270409
405 0.224865
410 0.225574
415 0.227282
420 0.267247
425 0.238398
430 0.291227
435 0.394774
440 0.326386
445 0.31512
450 0.513815
455 0.502446
460 0.594202
465 0.892212
470 0.906482
475 1.26316
480 1.57144
485 2.17952
490 3.98067
495 157.351
500 2363.43
505 3326.01
510 804.274
515 96.1444
520 13.5848
525 3.59958
530 2.12371
535 1.66087
540 1.55383
545 1.37373
550 1.19184
555 1.10723
560 1.1725
565 1.05327
570 0.867556
575 0.928426
580 0.730372
585 0.754627
590 0.925328
595 0.779031
600 0.275648
Ex : 513
200 0.130954
205 0.216316
210 0.206601
215 0.097344
220 0.150086
225 0.110123
230 0.10399
235 0.162566
240 0.217715
245 0.114686
250 0.189075
255 0.194843
260 0.188504
265 0.178399
270 0.148203
275 0.100152
280 0.103138
285 0.129937
290 0.185395
295 0.18305
300 0.188859
305 0.187206
310 0.147192
315 0.158446
320 0.140032
325 0.235177
330 0.128536
335 0.138614
340 0.186056
345 0.245911
350 0.22631
355 0.160989
360 0.152944
365 0.167038
370 0.160554
375 0.108457
380 0.239768
385 0.174108
390 0.24988
395 0.259334
400 0.240744
405 0.229666
410 0.312193
415 0.239659
420 0.304093
425 0.273687
430 0.43282
435 0.283133
440 0.33665
445 0.408322
450 0.462505
455 0.609702
460 0.717729
465 0.824636
470 0.825378
475 0.87308
480 0.93443
485 1.31824
490 2.26371
495 3.46484
500 134.86
505 2226.46
510 3231.69
515 793.383
520 94.9824
525 13.5773
530 3.53094
535 1.99481
540 1.48183
545 1.46484
550 1.48623
555 1.2107
560 1.05827
565 0.870177
570 0.936688
575 0.698524
580 0.641106
585 0.579996
590 0.445817
595 0.745708
600 0.85565
Ex : 518
200 0.104843
205 0.119368
210 0.112403
215 0.117842
220 0.136429
225 0.139518
230 0.130538
235 0.144336
240 0.12608
245 0.25577
250 0.175242
255 0.207617
260 0.119114
265 0.125111
270 0.11468
275 0.145318
280 0.164271
285 0.1523
290 0.126814
295 0.123265
300 0.14543
305 0.134199
310 0.123487
315 0.135265
320 0.20245
325 0.132612
330 0.209245
335 0.170472
340 0.189154
345 0.201937
350 0.180059
355 0.171626
360 0.184189
365 0.149562
370 0.154367
375 0.169548
380 0.19012
385 0.198343
390 0.199953
395 0.241384
400 0.287846
405 0.247256
410 0.180413
415 0.230804
420 0.174405
425 0.220736
430 0.294317
435 0.279444
440 0.406419
445 0.45587
450 0.322917
455 0.442608
460 0.393728
465 0.514199
470 0.573169
475 0.656643
480 0.748561
485 1.0458
490 1.5844
495 2.14589
500 3.87877
505 139.424
510 2234.75
515 3245.31
520 783.193
525 93.6362
530 13.0868
535 3.44868
540 1.84759
545 1.62844
550 1.28669
555 1.14878
560 1.08578
565 0.920275
570 0.771543
575 0.663209
580 0.505708
585 0.541015
590 0.423937
595 0.382661
600 0.111389
Ex : 523
200 0.100129
205 0.205377
210 0.171054
215 0.147685
220 0.0989103
225 0.139239
230 0.118136
235 0.145527
240 0.134574
245 0.121797
250 0.130741
255 0.143452
260 0.157798
265 0.170078
270 0.141824
275 0.188518
280 0.0938751
285 0.145604
290 0.128278
295 0.109225
300 0.12264
305 0.198713
310 0.17894
315 0.175375
320 0.175483
325 0.125545
330 0.210205
335 0.140182
340 0.142824
345 0.122927
350 0.210935
355 0.250138
360 0.187852
365 0.328087
370 0.233744
375 0.18687
380 0.18888
385 0.188742
390 0.199812
395 0.214848
400 0.243247
405 0.231988
410 0.265405
415 0.294882
420 0.312102
425 0.296806
430 0.239106
435 0.348346
440 0.286809
445 0.376444
450 0.375506
455 0.393829
460 0.566962
465 0.419547
470 0.563309
475 0.554379
480 0.67369
485 0.689324
490 1.10013
495 1.44642
500 1.9049
505 3.63424
510 123.254
515 2109.35
520 3244.03
525 815.046
530 97.3882
535 13.5484
540 3.31007
545 1.87113
550 1.11604
555 1.14273
560 1.27376
565 1.09458
570 1.02568
575 0.73684
580 0.606748
585 0.434245
590 0.368709
595 0.375452
600 0.0731339
Ex : 528
200 0.291904
205 0.183775
210 0.269706
215 0.128893
220 0.161114
225 0.194528
230 0.183135
235 0.204482
240 0.197335
245 0.206533
250 0.177573
255 0.174476
260 0.180963
265 0.170348
270 0.17827
275 0.180565
280 0.181597
285 0.181585
290 0.14337
295 0.152829
300 0.124035
305 0.124958
310 0.165557
315 0.190907
320 0.18763
325 0.19953
330 0.19756
335 0.173822
340 0.153688
345 0.317383
350 0.143928
355 0.125908
360 0.224475
365 0.149446
370 0.185802
375 0.227442
380 0.241055
385 0.267943
390 0.168359
395 0.149992
400 0.341453
405 0.193504
410 0.181196
415 0.195731
420 0.269934
425 0.216272
430 0.249717
435 0.192272
440 0.269013
445 0.360712
450 0.28135
455 0.38652
460 0.427894
465 0.401501
470 0.478497
475 0.475092
480 0.605434
485 0.690368
490 0.754555
495 0.918426
500 1.34513
505 2.12267
510 3.59596
515 123.756
520 2125.38
525 3127.68
530 783.077
535 93.5554
540 13.0037
545 3.14787
550 1.67331
555 1.20523
560 1.06436
565 1.03664
570 0.90506
575 0.614544
580 0.585784
585 0.507648
590 0.512541
595 0.442847
600 0.0503943
Ex : 533
200 0.157613
205 0.147817
210 0.113577
215 0.204642
220 0.105202
225 0.153657
230 0.174968
235 0.145888
240 0.202707
245 0.156199
250 0.169916
255 0.216532
260 0.193329
265 0.175148
270 0.15336
275 0.198545
280 0.157434
285 0.177948
290 0.0937458
295 0.0837048
300 0.125254
305 0.131854
310 0.117083
315 0.122597
320 0.15786
325 0.11481
330 0.165715
335 0.149941
340 0.244982
345 0.165535
350 0.176829
355 0.204944
360 0.258343
365 0.181514
370 0.225138
375 0.162946
380 0.182829
385 0.175698
390 0.226723
395 0.263242
400 0.223407
405 0.260465
410 0.303702
415 0.380214
420 0.277636
425 0.167916
430 0.311851
435 0.29805
440 0.261261
445 0.289348
450 0.332988
455 0.313945
460 0.314085
465 0.407831
470 0.447266
475 0.382848
480 0.49019
485 0.442605
490 0.508763
495 0.840725
500 0.900692
505 1.47284
510 2.08797
515 3.38593
520 117.606
525 2063.02
530 3261.78
535 840.884
540 100.129
545 13.5406
550 3.18337
555 1.60582
560 1.35449
565 0.811981
570 0.818371
575 0.851882
580 0.607644
585 0.590226
590 0.424721
595 0.371451
600 0.314593
Ex : 538
200 0.185707
205 0.185266
210 0.111975
215 0.213763
220 0.175744
225 0.171946
230 0.121272
235 0.0870709
240 0.321612
245 0.210769
250 0.137151
255 0.204991
260 0.192155
265 0.216677
270 0.250622
275 0.0941688
280 0.161173
285 0.142552
290 0.141638
295 0.176311
300 0.190106
305 0.141282
310 0.105762
315 0.127405
320 0.166998
325 0.134601
330 0.140115
335 0.164855
340 0.143994
345 0.151208
350 0.178471
355 0.166843
360 0.116081
365 0.116849
370 0.212271
375 0.186464
380 0.214143
385 0.24341
390 0.143301
395 0.18963
400 0.299692
405 0.21266
410 0.26185
415 0.226719
420 0.250262
425 0.323996
430 0.287406
435 0.379751
440 0.346867
445 0.367623
450 0.371755
455 0.357522
460 0.445009
465 0.327471
470 0.297906
475 0.386904
480 0.413386
485 0.476584
490 0.513208
495 0.72386
500 0.676096
505 0.811534
510 1.20304
515 1.77763
520 3.02807
525 95.2603
530 1787.87
535 2914.12
540 789.242
545 94.4069
550 12.5987
555 2.91261
560 1.5288
565 0.81863
570 0.862393
575 0.786664
580 0.705623
585 0.617492
590 0.564837
595 0.507206
600 0.0577181
Ex : 543
200 0.21757
205 0.20854
210 0.166476
215 0.149081
220 0.13455
225 0.0987076
230 0.206097
235 0.113921
240 0.13011
245 0.132896
250 0.200105
255 0.176262
260 0.131173
265 0.104483
270 0.235955
275 0.2453
280 0.0942056
285 0.154671
290 0.119837
295 0.130923
300 0.166873
305 0.164549
310 0.133146
315 0.107321
320 0.150778
325 0.133182
330 0.163814
335 0.182303
340 0.150359
345 0.174642
350 0.193243
355 0.25062
360 0.195969
365 0.291016
370 0.17767
375 0.211702
380 0.198972
385 0.187311
390 0.295207
395 0.168024
400 0.24546
405 0.191646
410 0.160433
415 0.249775
420 0.279634
425 0.226512
430 0.241982
435 0.299569
440 0.283738
445 0.267531
450 0.402241
455 0.402026
460 0.312427
465 0.342038
470 0.373968
475 0.410234
480 0.389309
485 0.382285
490 0.514986
495 0.571482
500 0.636765
505 0.73037
510 1.15473
515 1.3427
520 1.91176
525 2.81871
530 88.9136
535 1721.27
540 2869.6
545 810.787
550 97.3236
555 13.1661
560 2.92904
565 1.41407
570 1.04771
575 0.707123
580 0.613612
585 0.569133
590 0.407774
595 0.448544
600 0.247977
Ex : 548
200 0.128641
205 0.149697
210 0.109252
215 0.140917
220 0.168388
225 0.110838
230 0.12385
235 0.104179
240 0.109017
245 0.205646
250 0.281084
255 0.153756
260 0.13697
265 0.110446
270 0.147748
275 0.0814461
280 0.229538
285 0.222259
290 0.190744
295 0.207295
300 0.231216
305 0.110219
310 0.132055
315 0.205857
320 0.142103
325 0.209831
330 0.223222
335 0.129195
340 0.26466
345 0.169854
350 0.211802
355 0.225479
360 0.166756
365 0.0856955
370 0.205243
375 0.13908
380 0.182643
385 0.175964
390 0.203666
395 0.257695
400 0.168175
405 0.207514
410 0.174148
415 0.174933
420 0.2582
425 0.205357
430 0.18921
435 0.280008
440 0.361087
445 0.350556
450 0.239531
455 0.298292
460 0.216952
465 0.339194
470 0.400689
475 0.425277
480 0.349232
485 0.362635
490 0.405861
495 0.588591
500 0.424408
505 0.480588
510 0.569678
515 0.968995
520 1.04228
525 1.50607
530 2.72729
535 91.8427
540 1686.01
545 2719.29
550 759.339
555 90.2649
560 12.0201
565 2.79142
570 1.23428
575 0.804227
580 0.559045
585 0.445713
590 0.50666
595 0.435362
600 0.422151
Ex : 553
200 0.0757408
205 0.15784
210 0.101802
215 0.122942
220 0.182224
225 0.107306
230 0.187829
235 0.156659
240 0.208299
245 0.124676
250 0.156929
255 0.0787508
260 0.193114
265 0.178834
270 0.203246
275 0.147027
280 0.126051
285 0.23624
290 0.204174
295 0.200525
300 0.173654
305 0.146344
310 0.089651
315 0.130205
320 0.230759
325 0.203601
330 0.170118
335 0.198493
340 0.203308
345 0.17439
350 0.191272
355 0.150016
360 0.243943
365 0.160104
370 0.128807
375 0.105007
380 0.190624
385 0.250865
390 0.369203
395 0.218031
400 0.217009
405 0.313996
410 0.31877
415 0.242563
420 0.204769
425 0.212304
430 0.315262
435 0.310887
440 0.262898
445 0.260741
450 0.360296
455 0.29404
460 0.290102
465 0.351835
470 0.451882
475 0.365894
480 0.39667
485 0.309669
490 0.354108
495 0.467264
500 0.392963
505 0.349804
510 0.602908
515 0.679527
520 0.966401
525 1.22022
530 1.89135
535 3.19521
540 90.7466
545 1876.05
550 3071.39
555 839.463
560 100.551
565 13.3893
570 2.59997
575 1.11472
580 0.768291
585 0.715387
590 0.512368
595 0.440939
600 0.0812721
Ex : 558
200 0.167532
205 0.0978095
210 0.171765
215 0.273191
220 0.121739
225 0.20369
230 0.193193
235 0.186923
240 0.12822
245 0.126413
250 0.170054
255 0.179777
260 0.193896
265 0.159072
270 0.164508
275 0.187036
280 0.135058
285 0.128912
290 0.213083
295 0.152614
300 0.29682
305 0.264187
310 0.159975
315 0.144527
320 0.180989
325 0.206101
330 0.100532
335 0.226722
340 0.162457
345 0.160652
350 0.179597
355 0.135742
360 0.174545
365 0.223275
370 0.192694
375 0.183185
380 0.168222
385 0.190425
390 0.23478
395 0.163185
400 0.162503
405 0.148896
410 0.234563
415 0.268243
420 0.186617
425 0.207615
430 0.253377
435 0.241435
440 0.311091
445 0.257178
450 0.339204
455 0.234645
460 0.174745
465 0.323745
470 0.381346
475 0.242863
480 0.387892
485 0.467702
490 0.500366
495 0.473071
500 0.42452
505 0.499752
510 0.506082
515 0.596144
520 0.615573
525 0.848713
530 1.36991
535 1.5527
540 2.73464
545 74.7145
550 1570.78
555 2770.36
560 794.789
565 94.7249
570 12.4299
575 2.52316
580 1.08837
585 0.761096
590 0.561486
595 0.46094
600 1.14812
Ex : 563
200 0.187304
205 0.201971
210 0.141491
215 0.224409
220 0.286216
225 0.131481
230 0.139415
235 0.153113
240 0.165235
245 0.173942
250 0.132727
255 0.310861
260 0.154413
265 0.140922
270 0.124475
275 0.119761
280 0.171214
285 0.180309
290 0.162529
295 0.15466
300 0.186407
305 0.240187
310 0.0969769
315 0.129471
320 0.129301
325 0.140443
330 0.138235
335 0.232421
340 0.146231
345 0.114151
350 0.158454
355 0.144366
360 0.118234
365 0.300929
370 0.21284
375 0.211763
380 0.254407
385 0.289896
390 0.249632
395 0.224278
400 0.199455
405 0.218686
410 0.30249
415 0.251017
420 0.24222
425 0.227953
430 0.224775
435 0.21146
440 0.20854
445 0.246047
450 0.204707
455 0.396238
460 0.337345
465 0.315094
470 0.413408
475 0.28214
480 0.347911
485 0.551576
490 0.386744
495 0.36652
500 0.406215
505 0.458153
510 0.368694
515 0.49787
520 0.430605
525 0.687452
530 0.783863
535 1.06619
540 1.6245
545 2.52879
550 75.6816
555 1572.06
560 2746.08
565 800.458
570 95.2165
575 12.3313
580 2.29347
585 0.967801
590 0.628629
595 0.597374
600 0.307644
Ex : 568
200 0.132145
205 0.131114
210 0.136041
215 0.181644
220 0.159798
225 0.176028
230 0.0978951
235 0.172693
240 0.223099
245 0.211654
250 0.125869
255 0.220388
260 0.347447
265 0.167253
270 0.153069
275 0.128349
280 0.104435
285 0.196111
290 0.182312
295 0.16037
300 0.165721
305 0.138838
310 0.148299
315 0.123945
320 0.183193
325 0.137119
330 0.131087
335 0.148627
340 0.141206
345 0.272266
350 0.165177
355 0.118546
360 0.182637
365 0.178847
370 0.180755
375 0.164774
380 0.199061
385 0.179501
390 0.207633
395 0.196649
400 0.298393
405 0.349361
410 0.171446
415 0.32859
420 0.181748
425 0.339157
430 0.292131
435 0.306321
440 0.281627
445 0.276342
450 0.237285
455 0.261292
460 0.27124
465 0.312284
470 0.37302
475 0.360457
480 0.391216
485 0.261409
490 0.288872
495 0.40808
500 0.365433
505 0.428002
510 0.347944
515 0.500085
520 0.622193
525 0.555296
530 0.702836
535 0.854418
540 0.934444
545 1.39835
550 2.15879
555 53.1069
560 1274.14
565 2448.17
570 746.307
575 89.1382
580 11.2032
585 2.13609
590 0.756318
595 0.52173
600 0.956936
Ex : 573
200 0.13612
205 0.163589
210 0.218758
215 0.224735
220 0.107051
225 0.214437
230 0.14788
235 0.150651
240 0.163783
245 0.246592
250 0.179925
255 0.181115
260 0.117918
265 0.133727
270 0.103965
275 0.151454
280 0.200583
285 0.200747
290 0.157241
295 0.150534
300 0.0943883
305 0.259505
310 0.193873
315 0.125905
320 0.153824
325 0.104285
330 0.195141
335 0.139725
340 0.268415
345 0.193034
350 0.213968
355 0.236353
360 0.232667
365 0.150673
370 0.235977
375 0.252328
380 0.275132
385 0.218601
390 0.250396
395 0.194868
400 0.195275
405 0.22624
410 0.23239
415 0.167307
420 0.220783
425 0.206913
430 0.208148
435 0.277389
440 0.122758
445 0.21529
450 0.2711
455 0.329508
460 0.233537
465 0.277872
470 0.264506
475 0.262224
480 0.312291
485 0.240362
490 0.314796
495 0.311772
500 0.33036
505 0.480484
510 0.355426
515 0.304718
520 0.475311
525 0.438162
530 0.446239
535 0.479452
540 0.725521
545 0.948849
550 1.19639
555 2.11232
560 47.4347
565 1145.93
570 2329
575 738.804
580 88.2448
585 11.1884
590 1.93332
595 0.651992
600 0.490886
Ex : 578
200 0.185707
205 0.161708
210 0.177814
215 0.213852
220 0.125391
225 0.132721
230 0.133799
235 0.154329
240 0.192045
245 0.169458
250 0.135985
255 0.169812
260 0.129264
265 0.18505
270 0.181037
275 0.15822
280 0.145617
285 0.120779
290 0.133678
295 0.18299
300 0.152802
305 0.0961974
310 0.138128
315 0.173198
320 0.130994
325 0.198751
330 0.169246
335 0.155844
340 0.278836
345 0.153435
350 0.159241
355 0.158608
360 0.201406
365 0.264874
370 0.156183
375 0.169158
380 0.187871
385 0.169564
390 0.24408
395 0.184104
400 0.158992
405 0.26468
410 0.164507
415 0.352822
420 0.36618
425 0.267907
430 0.295323
435 0.152677
440 0.154906
445 0.308131
450 0.224216
455 0.186761
460 0.347482
465 0.20195
470 0.285743
475 0.258019
480 0.281449
485 0.373926
490 0.36486
495 0.289401
500 0.316815
505 0.363836
510 0.36952
515 0.35937
520 0.366142
525 0.323277
530 0.426397
535 0.33342
540 0.527537
545 0.694092
550 0.873063
555 1.20019
560 1.85824
565 39.788
570 1022.28
575 2088.63
580 638.195
585 75.9548
590 9.46941
595 1.70497
600 0.338705
Ex : 583
200 0.110113
205 0.215511
210 0.163667
215 0.221447
220 0.220795
225 0.123824
230 0.233367
235 0.165021
240 0.220128
245 0.175441
250 0.166521
255 0.160455
260 0.186477
265 0.103547
270 0.113396
275 0.182159
280 0.18551
285 0.104777
290 0.191756
295 0.161913
300 0.16931
305 0.151185
310 0.190251
315 0.1605
320 0.160349
325 0.207724
330 0.147478
335 0.320091
340 0.257455
345 0.258854
350 0.148647
355 0.181341
360 0.249801
365 0.171501
370 0.207043
375 0.167642
380 0.154164
385 0.130864
390 0.184944
395 0.17551
400 0.209563
405 0.159979
410 0.222736
415 0.210698
420 0.146878
425 0.204529
430 0.262492
435 0.181646
440 0.136757
445 0.244817
450 0.293123
455 0.261741
460 0.290591
465 0.268723
470 0.292119
475 0.319129
480 0.182568
485 0.227841
490 0.276092
495 0.327514
500 0.288438
505 0.28148
510 0.291197
515 0.258844
520 0.220472
525 0.458324
530 0.40157
535 0.460465
540 0.372475
545 0.531998
550 0.57281
555 0.837294
560 1.1303
565 1.81936
570 36.0558
575 929.68
580 1766.62
585 507.056
590 60.2578
595 7.58696
600 2.02651
Ex : 588
200 0.264838
205 0.15924
210 0.146017
215 0.231177
220 0.163843
225 0.119185
230 0.150743
235 0.154204
240 0.155596
245 0.113329
250 0.188902
255 0.120306
260 0.129704
265 0.191663
270 0.230266
275 0.122097
280 0.250626
285 0.151741
290 0.110147
295 0.198643
300 0.185317
305 0.205521
310 0.126127
315 0.0823681
320 0.122297
325 0.175101
330 0.21617
335 0.132496
340 0.234973
345 0.236916
350 0.17951
355 0.153582
360 0.216109
365 0.131992
370 0.263563
375 0.152127
380 0.273613
385 0.246315
390 0.136764
395 0.304002
400 0.17643
405 0.210033
410 0.333242
415 0.206325
420 0.142687
425 0.19237
430 0.187293
435 0.291469
440 0.224525
445 0.142375
450 0.27363
455 0.201663
460 0.330523
465 0.278774
470 0.37237
475 0.196957
480 0.258991
485 0.189153
490 0.280103
495 0.234822
500 0.210828
505 0.206549
510 0.268516
515 0.31076
520 0.3504
525 0.356089
530 0.523679
535 0.358948
540 0.30086
545 0.279469
550 0.502584
555 0.541419
560 0.754753
565 0.95321
570 1.70203
575 29.5445
580 727.314
585 1411.72
590 422.466
595 50.2254
600 5.71546
Ex : 593
200 0.143704
205 0.154
210 0.138641
215 0.0842803
220 0.0599304
225 0.0855435
230 0.172081
235 0.174143
240 0.147892
245 0.187427
250 0.123263
255 0.15403
260 0.20528
265 0.219312
270 0.130469
275 0.137666
280 0.141644
285 0.164914
290 0.193144
295 0.219795
300 0.114099
305 0.249413
310 0.12837
315 0.113738
320 0.250014
325 0.203289
330 0.155975
335 0.131287
340 0.202976
345 0.132623
350 0.159384
355 0.206746
360 0.154381
365 0.155226
370 0.0947534
375 0.221438
380 0.163103
385 0.298499
390 0.272307
395 0.193625
400 0.184287
405 0.198051
410 0.167693
415 0.30279
420 0.21031
425 0.141803
430 0.190709
435 0.36219
440 0.200852
445 0.228591
450 0.179645
455 0.216609
460 0.281352
465 0.260085
470 0.249946
475 0.207453
480 0.205664
485 0.241099
490 0.358071
495 0.283141
500 0.242035
505 0.175913
510 0.252518
515 0.280516
520 0.328391
525 0.339765
530 0.257941
535 0.278411
540 0.241213
545 0.35733
550 0.324467
555 0.436998
560 0.456126
565 0.6778
570 0.779469
575 1.22496
580 25.1537
585 672.809
590 1275.39
595 377.49
600 55.7169
Ex : 598
200 0.104629
205 0.198866
210 0.228362
215 0.168693
220 0.143895
225 0.233438
230 0.206647
235 0.156708
240 0.136734
245 0.163766
250 0.170566
255 0.143519
260 0.207567
265 0.183629
270 0.113497
275 0.141542
280 0.167126
285 0.123357
290 0.126347
295 0.177188
300 0.154166
305 0.106738
310 0.138964
315 0.210924
320 0.0809546
325 0.108387
330 0.226924
335 0.310188
340 0.1849
345 0.16818
350 0.244321
355 0.247046
360 0.246548
365 0.138306
370 0.18814
375 0.187668
380 0.104585
385 0.2172
390 0.163864
395 0.245038
400 0.149507
405 0.124601
410 0.250545
415 0.198202
420 0.204015
425 0.254157
430 0.334673
435 0.201603
440 0.230753
445 0.191661
450 0.220078
455 0.182095
460 0.323683
465 0.236917
470 0.20184
475 0.314827
480 0.335824
485 0.256231
490 0.203352
495 0.234686
500 0.197984
505 0.271985
510 0.336417
515 0.245667
520 0.187169
525 0.303703
530 0.257506
535 0.266934
540 0.350093
545 0.232735
550 0.309198
555 0.312251
560 0.397787
565 0.367998
570 0.603398
575 0.68598
580 0.938077
585 24.6312
590 560.52
595 1043.62
600 644.158
Ex : 603
200 0.202313
205 0.164337
210 0.188094
215 0.195074
220 0.163816
225 0.327738
230 0.186291
235 0.15087
240 0.16554
245 0.31184
250 0.195849
255 0.16443
260 0.183766
265 0.377666
270 0.150454
275 0.245808
280 0.128095
285 0.154642
290 0.184581
295 0.20056
300 0.240831
305 0.155175
310 0.178259
315 0.188592
320 0.130721
325 0.244361
330 0.20976
335 0.239589
340 0.169821
345 0.173685
350 0.222406
355 0.229777
360 0.20528
365 0.173811
370 0.0976023
375 0.139786
380 0.127928
385 0.166995
390 0.223351
395 0.266138
400 0.269266
405 0.165667
410 0.23738
415 0.183741
420 0.158962
425 0.228336
430 0.169616
435 0.374443
440 0.214027
445 0.11894
450 0.223532
455 0.279686
460 0.239487
465 0.260271
470 0.256643
475 0.25001
480 0.285548
485 0.228279
490 0.204372
495 0.361878
500 0.249047
505 0.166969
510 0.260948
515 0.189848
520 0.315545
525 0.336328
530 0.197109
535 0.375896
540 0.299257
545 0.3193
550 0.314806
555 0.216458
560 0.417252
565 0.273373
570 0.320016
575 0.438548
580 0.652101
585 0.926245
590 22.0215
595 497.026
600 1033.65
