File format V 1.0
jeu. 5. janv. 23:05:47 2017
Operator : 
Comments : 

=============================================
SpectroFluorometer parameters
Mode : 3D measurement
Data : Fluorescence
Phospho. : Ordinary
Spectrum : Fluorescence

Scan speed : 2400 nm/mn
Response : 100 ms
PM Voltage : 700 V
Shutter : On

Lambda Ex. Start : 203
Lambda Ex. End : 603
Lambda Ex. Step : 5
Ex. Slit : 5 nm

Lambda Em. Start : 200
Lambda Em. End : 600
Lambda Em. Step : 5
Em. Slit : 5 nm

Repetition : 1
Decal lambda em : 10
=============================================
DATA
Ex : 203
200 4.96129
205 8.95093
210 4.0528
215 3.94771
220 5.59147
225 4.05276
230 3.77999
235 4.0832
240 5.33595
245 4.32567
250 6.15573
255 4.00783
260 3.46682
265 5.21084
270 4.75089
275 2.29377
280 3.47273
285 2.91156
290 3.53798
295 4.29009
300 3.90948
305 2.9509
310 1.64714
315 2.01739
320 8.27775
325 3.88368
330 2.38016
335 2.34274
340 2.87825
345 8.04037
350 2.31002
355 2.25683
360 4.13533
365 3.1292
370 4.01391
375 2.40866
380 3.0678
385 3.43916
390 5.44159
395 6.46354
400 5.35769
405 6.59608
410 1.99935
415 3.46305
420 3.63973
425 2.58459
430 1.65658
435 2.80604
440 7.13311
445 7.08039
450 6.5085
455 3.62634
460 3.77896
465 5.44974
470 5.57679
475 5.9221
480 3.48222
485 4.67264
490 6.62906
495 8.1413
500 4.50061
505 7.91604
510 5.62935
515 4.13078
520 5.4838
525 5.05505
530 3.15277
535 3.69818
540 4.15193
545 7.34495
550 5.28481
555 4.02563
560 2.42991
565 6.08474
570 2.27097
575 2.3013
580 1.47034
585 3.23909
590 3.64449
595 4.5999
600 0.523451
Ex : 208
200 3.6
205 3.13037
210 4.61661
215 4.553
220 3.36235
225 5.22129
230 3.23142
235 5.29452
240 4.32108
245 1.42905
250 4.73587
255 5.36721
260 5.09461
265 4.09541
270 5.60728
275 3.02402
280 3.36074
285 3.97905
290 2.94099
295 3.6549
300 2.60265
305 3.61229
310 4.5708
315 4.16407
320 2.80089
325 5.54621
330 3.11711
335 7.49257
340 4.68229
345 4.72113
350 3.469
355 3.79187
360 5.48572
365 3.78172
370 3.34534
375 6.86143
380 4.02259
385 2.64449
390 6.12633
395 4.30603
400 2.61936
405 7.1422
410 4.931
415 4.61067
420 3.17682
425 4.17524
430 4.78275
435 6.98991
440 4.28269
445 4.61203
450 8.14266
455 7.27277
460 2.80013
465 3.18308
470 4.24157
475 2.64138
480 6.44532
485 7.38998
490 4.80046
495 4.97729
500 5.04257
505 5.17427
510 3.31149
515 5.38581
520 5.21454
525 3.81981
530 5.21684
535 4.43578
540 5.18816
545 3.69211
550 4.29297
555 3.15857
560 9.5029
565 7.56436
570 10.1074
575 3.28717
580 3.91888
585 4.4701
590 3.48175
595 3.8465
600 1.98857
Ex : 213
200 1.77564
205 1.84154
210 3.91703
215 3.77309
220 5.4297
225 2.53429
230 2.51023
235 1.51618
240 2.84288
245 4.47685
250 3.66295
255 3.87873
260 4.78151
265 6.1203
270 6.315
275 4.78537
280 5.6667
285 7.44523
290 4.04368
295 3.25424
300 2.82534
305 3.19231
310 10.1176
315 5.42631
320 3.23095
325 6.16935
330 4.64868
335 3.15309
340 2.93789
345 2.49131
350 3.59636
355 6.13549
360 4.85478
365 5.35472
370 5.63899
375 7.83358
380 5.48456
385 6.41086
390 6.13593
395 3.92735
400 6.58304
405 2.63969
410 3.05416
415 1.82265
420 3.49729
425 2.79359
430 1.85739
435 4.55855
440 3.18975
445 3.58554
450 5.79464
455 6.88905
460 3.94474
465 3.61775
470 1.97592
475 5.05925
480 3.50701
485 4.75676
490 8.10208
495 2.21551
500 4.84638
505 3.60054
510 5.01918
515 4.72233
520 6.03775
525 3.52864
530 3.0544
535 6.288
540 2.88117
545 6.3437
550 2.90674
555 3.57832
560 3.74795
565 1.89794
570 4.69458
575 3.6678
580 3.26546
585 7.1481
590 4.44172
595 2.69588
600 0.306781
Ex : 218
200 2.96386
205 4.35747
210 3.27336
215 1.30386
220 2.53431
225 2.84605
230 7.40751
235 8.16815
240 8.03001
245 6.54413
250 5.81635
255 3.81341
260 4.47826
265 3.32461
270 3.43976
275 4.35984
280 3.68647
285 5.5385
290 4.10921
295 6.81615
300 5.99244
305 4.77478
310 3.53357
315 6.19821
320 4.59413
325 6.75084
330 4.06154
335 4.48825
340 4.77296
345 6.79611
350 6.09059
355 6.1457
360 3.08275
365 4.7585
370 7.53017
375 7.07867
380 4.68403
385 3.02205
390 3.71829
395 3.04809
400 1.67323
405 8.89236
410 8.94406
415 4.13678
420 7.12864
425 7.0952
430 2.21653
435 5.32629
440 9.96173
445 4.36737
450 5.15777
455 5.75743
460 6.22711
465 3.62524
470 8.38837
475 4.20586
480 5.72494
485 3.05604
490 2.64973
495 4.71634
500 6.12456
505 6.13347
510 3.12515
515 4.20164
520 3.27183
525 1.56727
530 3.07472
535 2.9412
540 2.33406
545 4.31279
550 5.53356
555 6.28368
560 7.73695
565 4.77522
570 4.92553
575 3.48665
580 6.35434
585 2.8597
590 5.5218
595 2.38383
600 0.271271
Ex : 223
200 4.33333
205 2.74645
210 4.31153
215 1.87107
220 3.84981
225 5.4163
230 4.367
235 2.79878
240 3.29835
245 5.05631
250 4.23397
255 6.12788
260 4.19134
265 5.28778
270 6.79947
275 3.16334
280 5.81042
285 4.18011
290 9.92852
295 5.47223
300 5.9106
305 1.95106
310 2.58523
315 6.981
320 3.4986
325 4.01679
330 4.29731
335 4.77142
340 3.78007
345 4.05505
350 2.17056
355 2.74891
360 3.87789
365 4.81622
370 5.48321
375 3.43963
380 4.05328
385 2.40368
390 4.70992
395 4.97723
400 5.34268
405 6.93225
410 3.82573
415 4.48576
420 4.06671
425 6.16868
430 9.19982
435 2.52041
440 4.84933
445 2.95218
450 4.67835
455 3.578
460 2.3871
465 3.27192
470 3.611
475 3.81173
480 4.19752
485 3.52662
490 4.49768
495 2.89691
500 4.56057
505 5.204
510 3.82489
515 4.3929
520 5.35972
525 3.57127
530 3.66482
535 2.18945
540 1.58913
545 3.64663
550 3.66976
555 3.91162
560 7.09756
565 5.02402
570 2.96061
575 5.3819
580 4.75385
585 5.00076
590 3.69105
595 5.18408
600 27.3533
Ex : 228
200 2.87356
205 3.38663
210 3.06744
215 4.35112
220 4.77604
225 2.58074
230 5.96001
235 1.61626
240 3.71263
245 6.39882
250 4.43319
255 3.33717
260 2.17969
265 3.55876
270 5.94131
275 2.701
280 4.21908
285 2.67452
290 3.29873
295 2.77573
300 1.9055
305 1.71016
310 3.32302
315 3.17507
320 4.0088
325 9.0247
330 3.03798
335 2.01155
340 2.43115
345 2.82058
350 2.89382
355 2.99822
360 3.22519
365 3.0712
370 2.68636
375 4.21234
380 4.86403
385 4.26686
390 3.31296
395 1.30852
400 4.02231
405 4.87243
410 7.63425
415 5.46369
420 5.31124
425 3.56524
430 3.09471
435 5.23613
440 3.71636
445 3.03671
450 6.14196
455 4.77547
460 2.90314
465 4.60771
470 5.13977
475 6.98758
480 5.58722
485 9.18917
490 6.26387
495 4.87898
500 2.90983
505 2.88217
510 3.35973
515 6.44439
520 10.499
525 2.61157
530 5.06381
535 4.63714
540 2.07588
545 3.18843
550 2.50755
555 3.74457
560 6.92494
565 5.37914
570 3.37957
575 4.63421
580 4.59633
585 3.74742
590 3.27907
595 3.4527
600 0.392905
Ex : 233
200 2.92391
205 2.19518
210 3.28181
215 5.00522
220 3.53161
225 3.38575
230 2.49315
235 1.31674
240 4.28219
245 2.75706
250 4.32135
255 3.03713
260 2.56863
265 2.3827
270 2.74022
275 3.75562
280 4.01835
285 2.91624
290 2.23291
295 5.19599
300 4.34574
305 1.64331
310 2.71697
315 3.45309
320 3.59503
325 1.95996
330 9.43555
335 3.54497
340 1.76578
345 4.762
350 1.89104
355 3.2529
360 2.03119
365 3.68734
370 5.87353
375 4.0866
380 5.18277
385 2.05202
390 3.86249
395 4.55778
400 3.46282
405 3.69896
410 2.38811
415 2.01982
420 3.16417
425 5.62431
430 5.72937
435 4.45688
440 3.90679
445 3.27022
450 2.71717
455 6.10399
460 7.01239
465 4.8896
470 2.69889
475 4.885
480 7.97097
485 3.27801
490 3.8448
495 3.46077
500 4.56037
505 4.88291
510 2.38377
515 1.90168
520 2.44364
525 2.37135
530 4.96122
535 4.07434
540 4.35257
545 3.95912
550 4.89562
555 4.67303
560 7.6312
565 3.52701
570 2.46917
575 2.49197
580 2.98202
585 5.88445
590 3.21686
595 1.65552
600 0.188391
Ex : 238
200 2.62326
205 3.62178
210 2.69649
215 1.71171
220 5.25184
225 4.05748
230 2.08339
235 1.42149
240 4.69912
245 3.8276
250 2.12397
255 1.56657
260 2.59559
265 1.57689
270 3.89155
275 2.21525
280 1.67696
285 2.3213
290 5.88782
295 2.42926
300 4.15205
305 3.681
310 2.74784
315 2.5071
320 1.77395
325 2.90189
330 3.36427
335 2.3716
340 3.17646
345 3.38898
350 1.32774
355 1.55057
360 3.12764
365 4.6046
370 2.51351
375 4.13053
380 2.52941
385 3.42871
390 3.47614
395 5.16118
400 4.92887
405 2.86332
410 2.09824
415 5.71472
420 5.0937
425 3.90625
430 5.00939
435 3.74149
440 3.05367
445 3.20732
450 5.79192
455 3.38006
460 4.24723
465 4.88693
470 3.67409
475 3.63665
480 2.87655
485 5.96502
490 5.37097
495 2.61612
500 5.62298
505 7.38616
510 2.46662
515 2.88692
520 2.23125
525 3.91688
530 2.30174
535 4.39611
540 2.62372
545 5.43334
550 4.0024
555 3.13558
560 2.4075
565 3.66006
570 3.28931
575 4.54704
580 3.8459
585 5.69579
590 2.89321
595 2.83807
600 0.322961
Ex : 243
200 3.68996
205 2.62175
210 3.5541
215 5.05891
220 3.04733
225 2.1437
230 3.11951
235 2.65527
240 1.49253
245 1.25712
250 1.85327
255 2.665
260 3.77544
265 2.76465
270 4.11208
275 2.27888
280 2.02403
285 3.14162
290 5.5784
295 3.48188
300 1.98583
305 1.81424
310 3.46083
315 5.72208
320 2.93401
325 3.53693
330 3.3477
335 3.13
340 5.19104
345 1.77621
350 1.46441
355 1.95729
360 3.19839
365 1.90688
370 3.2023
375 2.75859
380 1.67915
385 2.31797
390 2.60589
395 3.01766
400 3.17081
405 2.792
410 3.28364
415 1.63967
420 2.27523
425 2.94337
430 1.56396
435 3.15681
440 2.9525
445 2.81366
450 3.37308
455 3.26587
460 2.42144
465 4.63363
470 2.02982
475 2.40411
480 4.87649
485 3.88368
490 4.73721
495 3.50021
500 2.54838
505 4.17428
510 4.8871
515 2.07006
520 1.85452
525 2.58283
530 2.83287
535 3.76872
540 3.47906
545 3.19861
550 3.47847
555 3.12892
560 2.84536
565 3.29163
570 3.66456
575 6.02196
580 3.57351
585 4.24446
590 2.20075
595 1.79464
600 1.38583
Ex : 248
200 2.20678
205 2.37168
210 2.56552
215 3.12714
220 2.03784
225 2.89671
230 3.14169
235 1.29461
240 2.52641
245 2.35202
250 1.75081
255 3.61363
260 1.44184
265 1.15911
270 2.92879
275 1.13631
280 4.3992
285 2.655
290 1.33918
295 4.62126
300 1.68235
305 2.61873
310 2.38319
315 2.72034
320 1.46227
325 2.09908
330 3.95248
335 1.78686
340 2.83096
345 2.14137
350 2.71018
355 2.93245
360 3.03155
365 3.59231
370 2.47339
375 2.44977
380 2.9094
385 2.63199
390 2.75771
395 1.79191
400 2.41942
405 5.18155
410 3.0405
415 2.76518
420 3.05107
425 4.67272
430 1.75776
435 1.95252
440 2.24324
445 3.37856
450 2.41227
455 1.79777
460 2.4122
465 3.17568
470 2.43763
475 2.36608
480 1.63939
485 1.79639
490 1.84072
495 1.21768
500 2.65
505 2.8506
510 2.24608
515 4.61168
520 1.64774
525 2.79418
530 1.80641
535 3.39137
540 3.01243
545 3.95416
550 1.41054
555 2.40987
560 2.79179
565 1.24885
570 3.824
575 2.4541
580 2.71096
585 1.67045
590 2.37543
595 2.66529
600 0.3033
Ex : 253
200 2.87021
205 3.30701
210 2.75331
215 2.35996
220 1.61288
225 1.65453
230 1.22045
235 1.53596
240 1.4676
245 1.2735
250 1.79625
255 1.10598
260 1.97358
265 1.5514
270 4.208
275 2.17825
280 1.92039
285 3.79684
290 1.4852
295 2.87841
300 1.44029
305 2.15328
310 2.53963
315 1.48434
320 1.78135
325 1.89795
330 1.85882
335 1.67737
340 2.09129
345 3.12654
350 3.54314
355 2.34771
360 3.62879
365 3.74073
370 1.71243
375 2.43925
380 1.99475
385 2.4596
390 1.74373
395 2.57149
400 2.1513
405 2.51298
410 1.22943
415 2.32638
420 2.33087
425 1.55496
430 2.27447
435 1.17823
440 1.20804
445 1.84171
450 1.20908
455 1.77464
460 2.88053
465 2.15218
470 1.29384
475 1.42674
480 2.55584
485 2.42238
490 1.66544
495 3.26457
500 3.14945
505 2.61125
510 3.33556
515 1.82246
520 2.8584
525 1.00201
530 3.22995
535 2.006
540 2.48667
545 2.68551
550 1.41142
555 1.65479
560 2.96577
565 1.49263
570 3.96751
575 2.53407
580 1.90424
585 1.46532
590 2.15573
595 1.84652
600 0.210127
Ex : 258
200 0.937788
205 0.786544
210 2.57922
215 1.85434
220 1.88697
225 0.703805
230 1.80891
235 1.89243
240 1.51677
245 2.5587
250 1.85411
255 3.09907
260 1.92412
265 1.62059
270 0.944306
275 0.983794
280 1.89634
285 0.894808
290 0.789293
295 0.948142
300 0.93422
305 2.1023
310 1.48952
315 1.43669
320 0.772112
325 2.4772
330 1.4425
335 1.43871
340 0.760006
345 1.70432
350 0.891983
355 1.53244
360 1.84454
365 1.58505
370 1.17555
375 1.67393
380 2.23138
385 0.880307
390 1.20844
395 1.83268
400 1.91325
405 2.17306
410 1.8212
415 1.46353
420 1.31922
425 1.62513
430 1.45207
435 2.30291
440 2.87523
445 1.36921
450 1.63213
455 0.697395
460 1.87844
465 1.06947
470 1.9577
475 2.26958
480 2.03686
485 1.50558
490 1.72961
495 1.58855
500 1.23709
505 2.38271
510 1.76725
515 1.42615
520 2.82701
525 1.94951
530 2.03938
535 2.53023
540 1.15991
545 2.50555
550 0.776099
555 0.872956
560 1.14466
565 1.4355
570 1.90602
575 2.01116
580 1.13859
585 0.971761
590 1.40912
595 1.97707
600 12.3364
Ex : 263
200 1.73989
205 1.31675
210 1.27845
215 1.37132
220 0.933675
225 1.90244
230 1.06675
235 0.784462
240 1.43181
245 1.76958
250 1.4338
255 0.87462
260 1.77857
265 1.36091
270 1.24043
275 2.15424
280 2.06369
285 1.11313
290 1.09542
295 1.24812
300 2.20719
305 1.03116
310 1.61914
315 0.783376
320 0.569561
325 1.28295
330 1.241
335 1.10799
340 1.25767
345 1.00864
350 1.4031
355 1.71566
360 2.75105
365 1.32004
370 1.57413
375 3.56581
380 1.27771
385 1.77846
390 1.99056
395 1.19945
400 1.22503
405 1.56167
410 0.954331
415 0.966769
420 1.70487
425 1.33231
430 1.66534
435 1.57509
440 1.39235
445 0.763581
450 0.672392
455 1.76362
460 1.51284
465 1.59915
470 0.877823
475 0.65927
480 1.18546
485 1.64712
490 0.88119
495 0.959673
500 1.29447
505 1.7728
510 0.827481
515 0.887166
520 1.18253
525 2.15796
530 1.81347
535 1.35475
540 1.17512
545 1.5582
550 1.05872
555 1.58787
560 1.22717
565 1.6865
570 1.05917
575 0.90968
580 2.83136
585 2.12011
590 1.41766
595 1.25447
600 17.8035
Ex : 268
200 0.637363
205 1.38841
210 1.32366
215 1.69314
220 0.82515
225 1.31654
230 0.630365
235 1.47457
240 1.42941
245 0.564031
250 1.68481
255 0.572604
260 1.49672
265 0.668343
270 1.58114
275 1.13825
280 1.21525
285 0.664047
290 0.790921
295 0.626946
300 0.495655
305 1.59282
310 0.668546
315 1.36156
320 1.12285
325 0.61765
330 0.95016
335 1.88053
340 0.493595
345 0.959823
350 0.703719
355 0.194074
360 0.629344
365 1.15789
370 0.980179
375 0.698147
380 2.16791
385 0.829729
390 0.585128
395 1.7505
400 1.09785
405 1.70958
410 1.05363
415 1.40576
420 0.867703
425 0.64682
430 1.83989
435 0.840271
440 0.813082
445 1.09559
450 0.68353
455 1.18182
460 1.27176
465 1.72316
470 1.26228
475 1.57974
480 1.14878
485 1.0355
490 1.26041
495 0.667993
500 0.801091
505 1.41057
510 1.34878
515 0.561654
520 0.821575
525 0.963214
530 0.960609
535 1.05452
540 0.855599
545 0.875433
550 1.47678
555 1.21325
560 1.25807
565 0.675131
570 0.5311
575 0.559636
580 1.97373
585 0.657081
590 0.683578
595 0.722527
600 0.0822208
Ex : 273
200 0.525785
205 0.808933
210 0.701872
215 0.756696
220 0.648216
225 0.891799
230 0.827733
235 0.899378
240 0.845003
245 0.38216
250 0.709648
255 0.418595
260 1.51007
265 0.788549
270 0.728
275 1.15981
280 0.881236
285 0.549426
290 0.474757
295 1.33399
300 1.21163
305 0.263351
310 0.639233
315 0.824283
320 0.981984
325 0.571814
330 0.480697
335 1.06507
340 0.836487
345 0.823535
350 1.23527
355 0.771156
360 0.963079
365 1.60513
370 0.635807
375 0.588395
380 0.96612
385 0.970255
390 0.788911
395 0.616922
400 0.512318
405 0.780168
410 1.05788
415 1.50804
420 1.37601
425 0.880582
430 0.742384
435 1.03349
440 1.39757
445 0.685725
450 0.866325
455 0.822837
460 0.487614
465 1.0579
470 1.09384
475 0.346787
480 1.0343
485 0.719334
490 0.803949
495 1.53194
500 0.605536
505 0.524498
510 1.18109
515 1.15594
520 0.641084
525 0.607714
530 0.552812
535 1.32764
540 0.643193
545 1.45908
550 1.14145
555 1.14731
560 0.488185
565 0.831483
570 1.01808
575 0.857006
580 1.0032
585 1.53288
590 1.71247
595 0.648977
600 0.0738511
Ex : 278
200 0.725384
205 1.17038
210 0.844266
215 0.859285
220 0.929054
225 0.57206
230 0.452456
235 0.43152
240 0.39189
245 0.480831
250 0.729216
255 0.55514
260 0.566439
265 0.839478
270 1.49185
275 0.556666
280 0.639706
285 0.409904
290 0.536817
295 0.529147
300 0.225316
305 0.464315
310 0.305454
315 0.20885
320 0.492408
325 0.320199
330 0.713263
335 0.857597
340 0.764688
345 0.735617
350 0.539334
355 1.10545
360 1.14654
365 0.889724
370 0.43551
375 0.645511
380 0.936403
385 0.836894
390 0.577805
395 0.983319
400 0.398659
405 1.0547
410 0.90082
415 0.993628
420 1.13309
425 0.823093
430 0.981489
435 0.70195
440 1.0394
445 0.885889
450 0.627524
455 0.99491
460 1.02296
465 1.01556
470 0.618656
475 0.271663
480 0.453565
485 0.560092
490 0.604634
495 0.566406
500 0.856902
505 1.22921
510 1.16026
515 0.418169
520 0.528622
525 1.17597
530 1.04345
535 0.646777
540 1.11992
545 0.882693
550 0.51271
555 0.968984
560 0.714198
565 0.750777
570 0.500667
575 0.623115
580 0.735358
585 0.622829
590 0.504704
595 0.619044
600 1.37643
Ex : 283
200 0.381832
205 0.56529
210 0.421754
215 0.34362
220 0.554953
225 0.445124
230 0.752371
235 0.403962
240 0.817996
245 0.691907
250 0.569805
255 0.265229
260 0.414584
265 0.220031
270 0.669369
275 0.511535
280 0.715998
285 0.235802
290 0.5104
295 0.555599
300 0.648147
305 0.398944
310 0.179692
315 0.241156
320 0.500894
325 0.287747
330 0.52009
335 0.411919
340 0.768697
345 0.637486
350 0.96872
355 0.507182
360 0.378086
365 0.595481
370 0.410145
375 0.283038
380 0.804386
385 1.05946
390 0.563331
395 0.854376
400 1.21359
405 0.852999
410 0.837884
415 0.927863
420 0.631437
425 0.733341
430 0.63125
435 0.937272
440 0.527139
445 0.606636
450 0.498163
455 0.430074
460 0.883799
465 1.10835
470 0.869307
475 0.456122
480 0.447032
485 0.700444
490 0.577202
495 0.543644
500 0.279136
505 0.524472
510 0.50747
515 0.468298
520 0.74646
525 0.709987
530 0.94162
535 0.458705
540 0.378029
545 1.06922
550 0.680643
555 0.720086
560 0.831146
565 0.587738
570 0.429058
575 0.454024
580 0.418348
585 0.452481
590 0.900211
595 0.861374
600 0.0980211
Ex : 288
200 0.284739
205 0.377222
210 0.250098
215 0.938676
220 0.497057
225 0.55785
230 0.257986
235 0.344786
240 0.661629
245 0.394125
250 0.483487
255 0.272105
260 0.380578
265 0.258601
270 0.363981
275 0.492237
280 0.490746
285 0.778947
290 0.512598
295 0.230665
300 0.389848
305 0.851582
310 0.754979
315 0.359821
320 0.635106
325 0.352631
330 0.66885
335 0.569554
340 0.469697
345 0.705383
350 0.436666
355 0.354777
360 0.546537
365 0.522466
370 0.454375
375 0.734089
380 0.82576
385 0.849027
390 0.41376
395 0.476505
400 0.549096
405 0.668427
410 0.795759
415 0.618836
420 0.394506
425 0.290562
430 0.531693
435 0.58704
440 0.594305
445 0.484569
450 0.553109
455 0.683063
460 0.453409
465 0.414858
470 0.497784
475 0.500304
480 0.628837
485 0.583588
490 0.51591
495 0.546317
500 0.510053
505 0.396199
510 0.708631
515 0.391666
520 0.670257
525 0.456872
530 0.272134
535 0.383135
540 0.900729
545 0.421488
550 0.622499
555 0.493925
560 0.504594
565 0.435156
570 0.616936
575 0.61569
580 0.362872
585 0.740255
590 0.586828
595 0.278722
600 0.0317175
Ex : 293
200 0.342371
205 0.355227
210 0.320102
215 0.522792
220 0.360413
225 0.335309
230 0.549428
235 0.442256
240 0.584225
245 0.666615
250 0.859954
255 0.355421
260 0.397488
265 0.420998
270 0.355987
275 0.31359
280 0.404937
285 0.299958
290 0.53215
295 0.378511
300 0.273448
305 0.419305
310 0.389833
315 0.525444
320 0.484581
325 0.429803
330 0.360678
335 0.644194
340 0.610414
345 0.345339
350 0.541417
355 0.67412
360 0.482651
365 0.269718
370 0.605259
375 0.521426
380 0.546489
385 0.633688
390 0.547693
395 0.545883
400 0.555707
405 0.746127
410 0.414856
415 1.04365
420 0.782227
425 0.414713
430 0.37515
435 0.402242
440 0.37287
445 0.512944
450 0.52139
455 0.504582
460 0.803425
465 0.615006
470 0.344949
475 0.391108
480 0.841711
485 0.332824
490 0.535624
495 0.329039
500 0.539877
505 0.601643
510 0.428574
515 0.370156
520 0.342119
525 0.753797
530 0.550642
535 0.295054
540 0.499081
545 0.233366
550 0.446511
555 0.416831
560 0.392702
565 0.4099
570 0.471739
575 0.757796
580 0.501053
585 0.507228
590 0.366314
595 0.656303
600 0.0746847
Ex : 298
200 0.323731
205 0.507137
210 0.383533
215 0.384146
220 0.457059
225 0.358379
230 0.528938
235 0.232497
240 0.194889
245 0.348096
250 0.227966
255 0.615094
260 0.250778
265 0.431469
270 0.399024
275 0.289737
280 0.18592
285 0.234969
290 0.252562
295 0.426695
300 0.23957
305 0.430269
310 0.603708
315 0.285454
320 0.269022
325 0.439631
330 0.309283
335 0.215894
340 0.173421
345 0.662171
350 0.378763
355 0.341924
360 0.443571
365 0.304026
370 0.395918
375 0.329293
380 0.278275
385 0.323224
390 0.570065
395 0.470145
400 0.370061
405 0.618899
410 0.460112
415 0.609013
420 0.548685
425 0.35893
430 0.787339
435 0.621728
440 0.274188
445 0.366245
450 0.65355
455 0.332236
460 0.398059
465 0.708924
470 0.518041
475 0.334236
480 0.299886
485 0.330348
490 0.394116
495 0.373345
500 0.346607
505 0.327662
510 0.387071
515 0.599712
520 0.346649
525 0.490755
530 0.49294
535 0.384953
540 0.328922
545 0.475599
550 0.309954
555 0.159176
560 0.301206
565 0.271337
570 0.450205
575 0.380335
580 0.370056
585 0.449584
590 0.661267
595 0.774561
600 0.0881421
Ex : 303
200 0.0942201
205 0.654106
210 0.187725
215 0.398372
220 0.323925
225 0.24053
230 0.274966
235 0.414523
240 0.342808
245 0.329002
250 0.246
255 0.336254
260 0.28719
265 0.178855
270 0.13347
275 0.117429
280 0.249967
285 0.175619
290 0.410497
295 0.280725
300 0.30895
305 0.521255
310 0.538251
315 0.338831
320 0.340389
325 0.293147
330 0.251348
335 0.203721
340 0.330756
345 0.423038
350 0.277215
355 0.333972
360 0.520333
365 0.358249
370 0.240832
375 0.362879
380 0.508797
385 0.638189
390 0.527797
395 0.460557
400 0.360793
405 0.349746
410 0.399119
415 0.457888
420 0.295258
425 0.37953
430 0.512734
435 0.391207
440 0.710946
445 0.496993
450 0.345252
455 0.435739
460 0.316506
465 0.444184
470 0.440476
475 0.430685
480 0.371553
485 0.673911
490 0.432301
495 0.492473
500 0.215004
505 0.476921
510 0.320848
515 0.300692
520 0.164312
525 0.155744
530 0.170701
535 0.294881
540 0.577598
545 0.370902
550 0.307608
555 0.599275
560 0.430621
565 0.256935
570 0.341371
575 0.385668
580 0.25746
585 0.290238
590 0.365088
595 0.488553
600 0.513467
Ex : 308
200 0.269297
205 0.252196
210 0.18179
215 0.197057
220 0.208977
225 0.260226
230 0.403912
235 0.12261
240 0.264106
245 0.167654
250 0.129776
255 0.286357
260 0.240247
265 0.214787
270 0.220242
275 0.251255
280 0.18771
285 0.167823
290 0.197017
295 0.215824
300 0.223466
305 0.355094
310 0.305372
315 0.221352
320 0.171188
325 0.268267
330 0.333637
335 0.300568
340 0.315952
345 0.240392
350 0.369682
355 0.404283
360 0.35303
365 0.447839
370 0.395872
375 0.371937
380 0.589559
385 0.39779
390 0.615388
395 0.270988
400 0.32902
405 0.34102
410 0.429642
415 0.722469
420 0.491444
425 0.496549
430 0.505835
435 0.481319
440 0.335083
445 0.322246
450 0.236143
455 0.223256
460 0.461577
465 0.428313
470 0.553824
475 0.486188
480 0.296314
485 0.350265
490 0.418342
495 0.30509
500 0.192591
505 0.160928
510 0.196603
515 0.255226
520 0.191463
525 0.344802
530 0.278531
535 0.320242
540 0.205845
545 0.139714
550 0.21538
555 0.418724
560 0.18287
565 0.213893
570 0.293383
575 0.234894
580 0.330945
585 0.423438
590 0.279624
595 0.273058
600 4.46209
Ex : 313
200 0.160871
205 0.142538
210 0.11904
215 0.177497
220 0.112268
225 0.216392
230 0.391424
235 0.139183
240 0.242967
245 0.121759
250 0.399173
255 0.226023
260 0.18359
265 0.143593
270 0.273356
275 0.189934
280 0.165082
285 0.285547
290 0.267157
295 0.130522
300 0.12397
305 0.269459
310 0.380822
315 0.208482
320 0.313513
325 0.173102
330 0.44646
335 0.205351
340 0.246738
345 0.344927
350 0.427135
355 0.335849
360 0.348173
365 0.45114
370 0.463494
375 0.447906
380 0.706707
385 0.609437
390 0.440478
395 0.68105
400 0.802182
405 0.699122
410 0.772241
415 0.847714
420 0.849564
425 0.506007
430 0.823127
435 0.781199
440 0.763713
445 0.526352
450 0.546651
455 0.427019
460 0.542681
465 0.466869
470 0.476402
475 0.549373
480 0.537181
485 0.497975
490 0.423131
495 0.264477
500 0.150685
505 0.412343
510 0.24491
515 0.200887
520 0.445004
525 0.287447
530 0.268833
535 0.294205
540 0.271208
545 0.266
550 0.208107
555 0.148503
560 0.324642
565 0.256387
570 0.36851
575 0.125707
580 0.138308
585 0.255488
590 0.125223
595 0.0886867
600 0.0100922
Ex : 318
200 0.185354
205 0.234987
210 0.195268
215 0.137099
220 0.160263
225 0.0944932
230 0.0995427
235 0.264735
240 0.185826
245 0.236521
250 0.158267
255 0.208442
260 0.11727
265 0.246759
270 0.125933
275 0.172161
280 0.113601
285 0.139017
290 0.271224
295 0.257268
300 0.283433
305 0.24205
310 0.324228
315 0.643901
320 0.381224
325 0.259588
330 0.652551
335 0.66482
340 0.779814
345 1.24547
350 1.38621
355 1.9577
360 2.63128
365 3.01165
370 3.72816
375 4.31103
380 5.28516
385 5.73329
390 6.26087
395 6.47563
400 7.0609
405 7.35287
410 7.34588
415 7.53022
420 6.93985
425 7.45579
430 6.75558
435 6.70957
440 6.70035
445 6.21178
450 5.28628
455 5.2215
460 4.62645
465 4.50776
470 4.29721
475 3.89393
480 3.15282
485 3.18753
490 2.37454
495 2.23143
500 2.02705
505 1.87979
510 1.42647
515 1.16877
520 1.0375
525 0.850428
530 0.929175
535 0.723416
540 0.607133
545 0.552692
550 0.384842
555 0.375939
560 0.38324
565 0.503249
570 0.419576
575 0.410371
580 0.205828
585 0.244133
590 0.304541
595 0.174949
600 0.101399
Ex : 323
200 0.260662
205 0.0966916
210 0.0670459
215 0.200662
220 0.160532
225 0.19895
230 0.147841
235 0.206127
240 0.153413
245 0.165763
250 0.13851
255 0.182617
260 0.209494
265 0.154354
270 0.0928508
275 0.148948
280 0.104418
285 0.349443
290 0.181515
295 0.296666
300 0.111979
305 0.106857
310 0.146247
315 5.39146
320 26.2111
325 10.9912
330 2.28668
335 2.07405
340 3.34398
345 5.10462
350 7.72137
355 10.818
360 13.0192
365 16.4352
370 18.6949
375 22.2718
380 25.3398
385 28.2617
390 31.2302
395 32.074
400 32.9087
405 33.6714
410 34.1566
415 33.9151
420 33.7711
425 33.9076
430 31.3684
435 30.9317
440 29.4634
445 28.0259
450 27.227
455 25.8753
460 22.7854
465 21.1164
470 19.4809
475 17.978
480 16.2516
485 14.6359
490 13.0695
495 11.1926
500 10.2839
505 8.65732
510 7.69806
515 6.46581
520 5.63791
525 4.60329
530 3.83919
535 3.25958
540 2.89975
545 2.22862
550 1.87921
555 1.50368
560 1.38081
565 1.20229
570 0.991992
575 0.813689
580 0.415044
585 0.314373
590 0.36778
595 0.364012
600 0.0414231
Ex : 328
200 0.281941
205 0.173815
210 0.131771
215 0.242237
220 0.178376
225 0.147174
230 0.170678
235 0.155584
240 0.0816617
245 0.114911
250 0.102658
255 0.193773
260 0.1318
265 0.105964
270 0.0816996
275 0.108529
280 0.16168
285 0.172795
290 0.148444
295 0.117019
300 0.0822539
305 0.176489
310 0.157044
315 1.36801
320 63.8924
325 155.368
330 47.697
335 8.88738
340 5.63459
345 6.89578
350 8.79626
355 12.8074
360 17.751
365 20.2156
370 22.8609
375 25.7989
380 29.6109
385 33.1512
390 36.7386
395 38.6774
400 39.3726
405 40.4895
410 40.8948
415 41.0781
420 40.1114
425 37.8692
430 36.421
435 34.8177
440 34.4942
445 32.3822
450 29.9413
455 28.3454
460 26.4969
465 24.4605
470 22.345
475 20.1473
480 18.4851
485 16.6127
490 14.6114
495 13.2052
500 11.2917
505 10.2525
510 8.70057
515 7.52325
520 6.43279
525 6.0252
530 4.47084
535 4.06223
540 3.0593
545 2.62038
550 2.24191
555 1.9905
560 1.66702
565 1.31452
570 1.21526
575 0.766572
580 0.554462
585 0.536211
590 0.461705
595 0.400487
600 1.0204
Ex : 333
200 0.283687
205 0.108019
210 0.0933304
215 0.100215
220 0.200528
225 0.206052
230 0.178999
235 0.19098
240 0.123873
245 0.0627984
250 0.165013
255 0.0898619
260 0.0732898
265 0.12155
270 0.22034
275 0.0858132
280 0.188395
285 0.164397
290 0.0971818
295 0.0946729
300 0.152733
305 0.131892
310 0.192424
315 0.211661
320 8.98214
325 187.557
330 320.358
335 83.8737
340 12.904
345 6.01858
350 5.77796
355 6.97678
360 9.57396
365 14.9168
370 15.6828
375 15.5804
380 17.2745
385 20.2675
390 21.5154
395 23.0646
400 24.0791
405 23.8604
410 25.2274
415 25.4068
420 24.4421
425 23.1061
430 21.6723
435 21.502
440 19.9933
445 18.5216
450 17.9955
455 16.8954
460 15.3212
465 13.4209
470 12.6717
475 11.7684
480 10.6462
485 9.64619
490 8.34287
495 7.30141
500 6.37129
505 5.80517
510 5.17181
515 4.21757
520 3.59643
525 2.99661
530 2.57244
535 2.36217
540 2.2583
545 1.84176
550 1.66716
555 1.21727
560 1.10774
565 1.11501
570 0.911165
575 0.625762
580 0.480454
585 0.415052
590 0.451666
595 0.326192
600 0.0371195
Ex : 338
200 0.249779
205 0.216864
210 0.24619
215 0.174311
220 0.125953
225 0.181354
230 0.110914
235 0.0971794
240 0.173724
245 0.184343
250 0.175312
255 0.15167
260 0.131182
265 0.101972
270 0.167475
275 0.217271
280 0.101971
285 0.287544
290 0.150598
295 0.19655
300 0.138109
305 0.197079
310 0.0993991
315 0.162007
320 0.319751
325 18.278
330 288.253
335 423.62
340 104.314
345 14.7677
350 5.45654
355 4.00151
360 3.99134
365 5.83825
370 10.3356
375 10.8178
380 9.937
385 10.4949
390 12.5981
395 14.2451
400 13.8887
405 14.2497
410 14.7175
415 15.8131
420 15.013
425 13.8891
430 12.6106
435 12.6413
440 11.6907
445 10.9426
450 10.1221
455 9.08612
460 7.94812
465 8.05107
470 7.02989
475 6.65087
480 5.73421
485 5.33309
490 4.79512
495 4.18397
500 4.00345
505 3.46876
510 3.24968
515 2.51809
520 2.16938
525 2.2375
530 1.74879
535 1.60072
540 1.21617
545 1.10108
550 0.766674
555 0.802156
560 0.784167
565 0.742384
570 0.774538
575 0.768851
580 0.400792
585 0.425836
590 0.388299
595 0.388689
600 0.123593
Ex : 343
200 0.157564
205 0.185177
210 0.178339
215 0.0948887
220 0.0633767
225 0.0975469
230 0.108631
235 0.08212
240 0.233479
245 0.210343
250 0.126402
255 0.121941
260 0.157663
265 0.109463
270 0.127526
275 0.126807
280 0.167681
285 0.153197
290 0.194559
295 0.115651
300 0.20188
305 0.178826
310 0.138964
315 0.21148
320 0.320377
325 0.421789
330 20.9988
335 332.597
340 472.045
345 113.605
350 15.4514
355 4.23856
360 2.89949
365 2.3765
370 3.51846
375 7.02392
380 9.34723
385 9.42268
390 10.2153
395 10.7231
400 10.69
405 11.239
410 12.3234
415 13.0219
420 12.4851
425 11.0293
430 10.6379
435 10.4292
440 10.6331
445 9.30287
450 8.74064
455 7.83934
460 7.0054
465 6.21249
470 5.64994
475 5.49376
480 4.92789
485 4.46906
490 4.13219
495 3.80335
500 3.2806
505 2.95256
510 2.47661
515 2.07225
520 1.93629
525 1.56482
530 1.40339
535 1.4207
540 1.11944
545 0.840386
550 0.795871
555 0.789663
560 0.674409
565 0.57631
570 0.660169
575 0.492425
580 0.367405
585 0.313404
590 0.298436
595 0.28877
600 0.0328609
Ex : 348
200 0.150111
205 0.066323
210 0.187967
215 0.094449
220 0.172318
225 0.0924424
230 0.0941817
235 0.0860997
240 0.067816
245 0.117502
250 0.143544
255 0.106583
260 0.0847792
265 0.0811815
270 0.161464
275 0.0947777
280 0.122042
285 0.0879358
290 0.196187
295 0.138475
300 0.124803
305 0.110044
310 0.224193
315 0.150407
320 0.147533
325 0.243326
330 0.424198
335 21.3145
340 333.274
345 493.54
350 126.251
355 16.517
360 3.92177
365 2.61704
370 1.60368
375 2.62465
380 6.65582
385 12.3988
390 14.0519
395 13.0148
400 11.6851
405 12.4149
410 14.5071
415 15.4648
420 14.5876
425 12.9311
430 12.1197
435 11.7794
440 11.3886
445 10.73
450 9.67771
455 8.63793
460 8.14509
465 7.19364
470 6.5959
475 5.70063
480 5.33399
485 4.97069
490 4.10437
495 3.75847
500 3.36637
505 3.18134
510 2.57041
515 2.28805
520 1.85155
525 1.65139
530 1.30306
535 1.46996
540 1.35557
545 1.05386
550 1.01823
555 0.776244
560 0.808284
565 0.656227
570 0.487718
575 0.474781
580 0.511841
585 0.440623
590 0.233298
595 0.277358
600 0.0426399
Ex : 353
200 0.108465
205 0.0788689
210 0.125986
215 0.0755215
220 0.0601974
225 0.0757338
230 0.183371
235 0.132267
240 0.0822379
245 0.0893221
250 0.0939003
255 0.0990378
260 0.163704
265 0.0984704
270 0.121904
275 0.150381
280 0.128392
285 0.12636
290 0.211083
295 0.132043
300 0.0595817
305 0.0879545
310 0.137973
315 0.150803
320 0.140546
325 0.217604
330 0.345499
335 0.566888
340 22.2989
345 348.879
350 502.404
355 122.901
360 15.8163
365 3.72793
370 2.11445
375 1.73064
380 3.05636
385 8.79157
390 15.9409
395 16.6167
400 14.3482
405 13.4687
410 14.979
415 17.0015
420 17.2859
425 14.4386
430 12.7832
435 12.3481
440 12.7429
445 11.8869
450 10.3537
455 9.43748
460 8.40675
465 7.57302
470 7.07477
475 6.41408
480 5.75778
485 5.21288
490 4.7264
495 4.27605
500 3.51004
505 3.21942
510 2.80049
515 2.54037
520 2.2139
525 1.83055
530 1.84125
535 1.48997
540 1.35335
545 1.19717
550 1.06137
555 0.945494
560 0.693167
565 0.718412
570 0.574306
575 0.551971
580 0.322717
585 0.299731
590 0.21741
595 0.30563
600 0.0347795
Ex : 358
200 0.0641237
205 0.0914534
210 0.0911888
215 0.111959
220 0.0699259
225 0.16563
230 0.0744284
235 0.120994
240 0.12333
245 0.165038
250 0.111547
255 0.1283
260 0.101839
265 0.0805435
270 0.10451
275 0.111675
280 0.139001
285 0.104472
290 0.170452
295 0.0950192
300 0.114095
305 0.114074
310 0.138198
315 0.0844306
320 0.104162
325 0.0943862
330 0.155462
335 0.272492
340 0.473711
345 21.6692
350 334.25
355 507.685
360 127.484
365 16.4225
370 3.53822
375 2.47568
380 2.95538
385 6.00191
390 11.6845
395 16.656
400 15.5081
405 13.7509
410 14.4394
415 15.9329
420 15.4298
425 13.6516
430 12.4949
435 12.0815
440 12.2983
445 11.3845
450 10.5334
455 9.23697
460 8.05387
465 7.58007
470 6.97485
475 6.40177
480 5.98618
485 5.00709
490 4.8259
495 4.13482
500 3.90851
505 3.37734
510 3.12943
515 2.57588
520 2.27511
525 1.8878
530 1.85468
535 1.58988
540 1.28447
545 1.19383
550 1.00167
555 0.988746
560 0.69579
565 0.650318
570 0.587735
575 0.502391
580 0.429564
585 0.307335
590 0.25254
595 0.272869
600 0.186608
Ex : 363
200 0.130394
205 0.113791
210 0.0660978
215 0.0435016
220 0.122703
225 0.107611
230 0.126356
235 0.0544303
240 0.108493
245 0.126111
250 0.0702616
255 0.0693407
260 0.0925443
265 0.125311
270 0.0442078
275 0.0489179
280 0.148362
285 0.0999348
290 0.0836332
295 0.0850309
300 0.144193
305 0.067999
310 0.127125
315 0.0557392
320 0.128428
325 0.111701
330 0.251008
335 0.198881
340 0.352132
345 0.473197
350 19.4644
355 327.948
360 514.163
365 132.961
370 17.0152
375 3.82928
380 4.64104
385 7.98885
390 11.196
395 13.1464
400 15.7019
405 18.2812
410 18.4252
415 18.3922
420 16.7677
425 14.3503
430 13.4778
435 12.9827
440 13.1418
445 12.5893
450 11.4737
455 9.81316
460 9.41242
465 8.168
470 7.77749
475 7.18749
480 6.32132
485 5.76625
490 5.06602
495 4.42891
500 4.17155
505 3.81278
510 3.30781
515 2.87056
520 2.44082
525 2.27221
530 1.90029
535 1.69725
540 1.46454
545 1.22511
550 1.01134
555 0.955226
560 0.87892
565 0.879315
570 0.638916
575 0.499002
580 0.388058
585 0.383878
590 0.393286
595 0.251059
600 0.369081
Ex : 368
200 0.13178
205 0.117737
210 0.0824567
215 0.0806677
220 0.110666
225 0.0611039
230 0.10118
235 0.0869668
240 0.0904334
245 0.10889
250 0.105308
255 0.0949882
260 0.121585
265 0.128941
270 0.151211
275 0.0859585
280 0.0650897
285 0.0574593
290 0.129614
295 0.0963319
300 0.0633355
305 0.103429
310 0.0967795
315 0.0686025
320 0.157982
325 0.15867
330 0.156777
335 0.211516
340 0.204885
345 0.229564
350 0.557214
355 16.877
360 322.505
365 532.878
370 142.113
375 18.6902
380 6.19165
385 9.65016
390 14.2342
395 16.9127
400 16.1534
405 18.7905
410 23.6844
415 24.6769
420 22.3787
425 18.6928
430 16.6568
435 16.0738
440 15.8572
445 15.622
450 13.3312
455 11.7371
460 10.83
465 9.9553
470 9.40928
475 8.10561
480 7.07135
485 6.54357
490 5.729
495 5.49206
500 4.61122
505 4.20478
510 3.64601
515 3.34725
520 2.71733
525 2.33697
530 1.94279
535 1.56485
540 1.66752
545 1.29754
550 1.27427
555 1.05299
560 0.925683
565 0.865849
570 0.706128
575 0.455804
580 0.477514
585 0.371785
590 0.219191
595 0.175484
600 0.0893956
Ex : 373
200 0.121984
205 0.0678501
210 0.14156
215 0.162124
220 0.131178
225 0.077975
230 0.107915
235 0.0503233
240 0.104329
245 0.0743478
250 0.0850298
255 0.106021
260 0.0891543
265 0.0836006
270 0.101474
275 0.0842269
280 0.0796366
285 0.0460572
290 0.0487824
295 0.0888337
300 0.0800404
305 0.0751706
310 0.0743885
315 0.186877
320 0.0949544
325 0.193201
330 0.11769
335 0.129392
340 0.116584
345 0.216264
350 0.317901
355 0.545031
360 19.8161
365 336.093
370 539.438
375 143.716
380 19.7444
385 8.91662
390 14.0648
395 17.8431
400 16.1086
405 15.411
410 19.5174
415 26.0815
420 23.9231
425 19.4826
430 16.3339
435 15.778
440 16.1702
445 15.3131
450 14.0317
455 11.8837
460 10.0769
465 9.56887
470 8.92502
475 8.02648
480 7.44976
485 6.4315
490 5.51872
495 4.88865
500 4.72806
505 4.16215
510 3.51869
515 3.04144
520 2.76287
525 2.33539
530 1.90722
535 1.98517
540 1.61362
545 1.28321
550 1.1934
555 1.10952
560 0.91485
565 0.73171
570 0.535367
575 0.448102
580 0.506538
585 0.296686
590 0.294027
595 0.184999
600 0.328114
Ex : 378
200 0.0756618
205 0.145975
210 0.0920255
215 0.0538546
220 0.0784734
225 0.0916893
230 0.0862687
235 0.0604019
240 0.0763485
245 0.0818211
250 0.0943231
255 0.0747583
260 0.0643533
265 0.040306
270 0.0762312
275 0.0618717
280 0.0900376
285 0.0995799
290 0.105417
295 0.0720493
300 0.108942
305 0.071454
310 0.0932483
315 0.0775784
320 0.094547
325 0.0946392
330 0.0883509
335 0.0673395
340 0.152463
345 0.183809
350 0.327612
355 0.307391
360 0.477729
365 18.4802
370 334.649
375 548.528
380 147.167
385 22.5031
390 11.946
395 12.7361
400 12.2765
405 11.3918
410 13.4642
415 17.2614
420 19.158
425 17.4634
430 13.7879
435 13.0383
440 12.2974
445 12.0392
450 10.4863
455 9.61109
460 8.50016
465 8.15663
470 7.99564
475 7.12871
480 6.30567
485 5.80724
490 4.96866
495 4.64583
500 4.05564
505 3.69349
510 3.32394
515 2.82097
520 2.5205
525 2.45537
530 2.13762
535 1.83969
540 1.60177
545 1.45213
550 1.28374
555 0.87295
560 0.803817
565 0.759583
570 0.607963
575 0.508957
580 0.377808
585 0.262298
590 0.212509
595 0.308711
600 0.200604
Ex : 383
200 0.0682434
205 0.0819936
210 0.0976412
215 0.0430396
220 0.0639948
225 0.0914183
230 0.0605829
235 0.0666278
240 0.084263
245 0.118016
250 0.0989613
255 0.0859612
260 0.14
265 0.0779185
270 0.0765635
275 0.12498
280 0.0921827
285 0.0786079
290 0.0594678
295 0.118121
300 0.0937689
305 0.135226
310 0.0691406
315 0.0990485
320 0.0775602
325 0.0713569
330 0.0983135
335 0.113185
340 0.130024
345 0.146033
350 0.180472
355 0.257476
360 0.238031
365 0.480754
370 17.1528
375 332.264
380 572.396
385 159.787
390 28.3179
395 13.4245
400 11.3678
405 12.1225
410 13.9498
415 15.521
420 15.3381
425 15.7405
430 15.2485
435 14.3308
440 13.2805
445 12.1296
450 10.4025
455 9.09305
460 8.23915
465 7.98769
470 7.63612
475 6.95675
480 6.39068
485 5.62361
490 5.12633
495 4.78125
500 4.39778
505 3.70475
510 3.36039
515 3.05226
520 2.67669
525 2.33449
530 2.00017
535 1.75662
540 1.79003
545 1.5576
550 1.31007
555 1.13849
560 0.950768
565 0.705618
570 0.60085
575 0.585758
580 0.497171
585 0.311922
590 0.26118
595 0.192543
600 0.0219107
Ex : 388
200 0.0364659
205 0.0657592
210 0.11497
215 0.145853
220 0.0875389
225 0.0539129
230 0.0740281
235 0.0957392
240 0.0798585
245 0.0843275
250 0.12684
255 0.0597911
260 0.127352
265 0.105557
270 0.093022
275 0.0834132
280 0.104982
285 0.0665245
290 0.0837985
295 0.0504848
300 0.112879
305 0.120039
310 0.0498994
315 0.0668431
320 0.103989
325 0.0812812
330 0.115356
335 0.102797
340 0.123309
345 0.123106
350 0.130333
355 0.137549
360 0.142137
365 0.31501
370 0.509972
375 19.7869
380 350.631
385 587.48
390 164.545
395 31.8906
400 15.0648
405 14.5881
410 16.6199
415 19.2575
420 18.0814
425 15.8389
430 16.5061
435 17.2588
440 16.2745
445 14.5418
450 12.6768
455 10.7128
460 9.88314
465 9.18217
470 8.39392
475 8.08515
480 7.22059
485 5.95762
490 5.59475
495 5.06398
500 4.59629
505 4.06115
510 3.74442
515 3.19804
520 2.88652
525 2.49347
530 2.23573
535 1.89941
540 1.74766
545 1.41316
550 1.28208
555 1.13842
560 0.933907
565 0.754926
570 0.775448
575 0.570822
580 0.436396
585 0.313959
590 0.281922
595 0.195153
600 0.362537
Ex : 393
200 0.0623341
205 0.0991476
210 0.0618701
215 0.0947207
220 0.128755
225 0.0941761
230 0.0699099
235 0.0795185
240 0.114945
245 0.0376801
250 0.0391856
255 0.155183
260 0.06987
265 0.080627
270 0.0945535
275 0.0654135
280 0.0650781
285 0.108418
290 0.0997527
295 0.0368951
300 0.0756653
305 0.10352
310 0.0680604
315 0.0412515
320 0.0654088
325 0.100889
330 0.147404
335 0.0994639
340 0.0991116
345 0.0837225
350 0.103363
355 0.124596
360 0.170334
365 0.205498
370 0.296187
375 0.629299
380 17.3617
385 348.237
390 599.017
395 172.889
400 32.7047
405 15.1054
410 16.2082
415 19.424
420 19.6619
425 16.4544
430 14.3518
435 14.962
440 17.4347
445 16.4471
450 13.648
455 11.4057
460 9.41417
465 8.34058
470 7.86116
475 7.71927
480 7.0386
485 6.01057
490 5.31816
495 4.6666
500 4.24095
505 3.87498
510 3.5316
515 3.07024
520 2.76315
525 2.41614
530 2.20017
535 2.07714
540 1.73722
545 1.48159
550 1.31922
555 1.0122
560 0.917571
565 0.730297
570 0.640128
575 0.539004
580 0.469955
585 0.321451
590 0.265563
595 0.242082
600 0.320824
Ex : 398
200 0.045495
205 0.0985641
210 0.0504853
215 0.0674674
220 0.099608
225 0.13357
230 0.117945
235 0.0739797
240 0.0858736
245 0.0585985
250 0.0805846
255 0.114814
260 0.13212
265 0.135687
270 0.0761791
275 0.0815601
280 0.0537647
285 0.0836601
290 0.0942875
295 0.0653195
300 0.0698672
305 0.0691932
310 0.0779921
315 0.0345507
320 0.0590846
325 0.0925782
330 0.112428
335 0.0998551
340 0.084004
345 0.109114
350 0.113253
355 0.0984558
360 0.0986845
365 0.132194
370 0.169606
375 0.281311
380 0.815981
385 19.3697
390 361.158
395 629.006
400 175.538
405 27.5506
410 11.6336
415 12.6553
420 13.0153
425 10.8378
430 8.87988
435 8.75267
440 9.90841
445 12.4252
450 11.1875
455 8.73356
460 7.18511
465 6.27564
470 6.0843
475 5.77519
480 5.31676
485 4.88831
490 4.69924
495 4.01946
500 3.55024
505 3.34971
510 3.06704
515 2.75271
520 2.42097
525 1.97241
530 1.95588
535 1.71681
540 1.50822
545 1.32581
550 1.14834
555 0.947636
560 0.834997
565 0.702804
570 0.680511
575 0.491541
580 0.38171
585 0.289721
590 0.325668
595 0.181287
600 0.519307
Ex : 403
200 0.0784345
205 0.0594913
210 0.0264714
215 0.10782
220 0.0839531
225 0.0732841
230 0.108429
235 0.055121
240 0.0440114
245 0.0541206
250 0.063258
255 0.0772449
260 0.0491316
265 0.0574858
270 0.142582
275 0.15198
280 0.0807826
285 0.046826
290 0.0887618
295 0.0440402
300 0.0513776
305 0.0543606
310 0.03758
315 0.12376
320 0.0939255
325 0.0920328
330 0.0605155
335 0.0571385
340 0.0785742
345 0.0645615
350 0.0468131
355 0.122303
360 0.0693968
365 0.0974633
370 0.152492
375 0.181343
380 0.292633
385 0.997948
390 21.6955
395 378.357
400 639.617
405 177.096
410 24.7309
415 8.27026
420 6.34412
425 6.02276
430 5.43151
435 5.08399
440 5.36768
445 6.21048
450 8.05999
455 8.03945
460 6.30387
465 5.84762
470 4.99759
475 4.67719
480 4.61378
485 3.94707
490 3.54786
495 3.37394
500 3.27928
505 3.10019
510 2.74956
515 2.52615
520 2.03985
525 1.95349
530 1.86511
535 1.63274
540 1.40874
545 1.21981
550 1.07115
555 0.984181
560 0.785389
565 0.6934
570 0.572318
575 0.472739
580 0.445103
585 0.313032
590 0.22262
595 0.12118
600 0.096015
Ex : 408
200 0.0703036
205 0.107622
210 0.0756094
215 0.0778751
220 0.051121
225 0.0781664
230 0.0772329
235 0.0947942
240 0.0670922
245 0.0776308
250 0.0467698
255 0.0373238
260 0.0787932
265 0.0554754
270 0.0516215
275 0.14047
280 0.0661886
285 0.089973
290 0.0694828
295 0.0864093
300 0.0663178
305 0.0770515
310 0.0731771
315 0.106034
320 0.0791941
325 0.0775653
330 0.0731862
335 0.102331
340 0.149286
345 0.149959
350 0.105453
355 0.0678531
360 0.111194
365 0.109521
370 0.189137
375 0.138115
380 0.232859
385 0.375771
390 0.783795
395 20.334
400 387.987
405 643.693
410 171.339
415 24.1665
420 7.03637
425 5.00665
430 4.72532
435 4.83715
440 4.98676
445 5.14908
450 5.29894
455 6.7321
460 7.41513
465 6.50747
470 5.46092
475 4.7312
480 4.25111
485 3.86575
490 3.63926
495 3.4145
500 3.25564
505 2.85863
510 2.44542
515 2.54892
520 2.23852
525 1.91514
530 1.70976
535 1.53199
540 1.45704
545 1.11214
550 1.08407
555 0.932568
560 0.842494
565 0.714163
570 0.557754
575 0.448779
580 0.379258
585 0.285475
590 0.268633
595 0.182824
600 0.0208047
Ex : 413
200 0.0623164
205 0.0708758
210 0.0581205
215 0.0453729
220 0.0620022
225 0.0766646
230 0.0296981
235 0.0524471
240 0.129575
245 0.05998
250 0.073427
255 0.0805419
260 0.118353
265 0.0886074
270 0.0466956
275 0.0701179
280 0.0607277
285 0.057788
290 0.0778415
295 0.0795986
300 0.141258
305 0.0567157
310 0.0709955
315 0.0596908
320 0.11847
325 0.0944074
330 0.0726582
335 0.105106
340 0.0785679
345 0.0663903
350 0.0834707
355 0.161697
360 0.157239
365 0.139042
370 0.0999898
375 0.141457
380 0.167874
385 0.214603
390 0.383602
395 0.720104
400 23.987
405 417.691
410 675.039
415 177.081
420 24.2868
425 6.28721
430 4.22591
435 4.525
440 4.69345
445 4.57703
450 4.34087
455 4.31096
460 5.35267
465 6.95295
470 6.08968
475 5.00208
480 4.61541
485 3.78869
490 3.34982
495 3.12474
500 2.83347
505 2.6142
510 2.6155
515 2.24723
520 2.2483
525 1.91914
530 1.7284
535 1.52954
540 1.43076
545 1.04172
550 1.07526
555 0.811646
560 0.804519
565 0.732907
570 0.672016
575 0.492934
580 0.358988
585 0.283412
590 0.198788
595 0.16932
600 1.32355
Ex : 418
200 0.0697564
205 0.0587726
210 0.0453254
215 0.0510915
220 0.036586
225 0.0979378
230 0.048375
235 0.0540525
240 0.0605253
245 0.0399396
250 0.0622598
255 0.0742354
260 0.0553297
265 0.0658719
270 0.03222
275 0.0691915
280 0.0753114
285 0.064698
290 0.0657191
295 0.0632133
300 0.0886231
305 0.0686138
310 0.0791641
315 0.0828648
320 0.0527774
325 0.0406709
330 0.0736094
335 0.0518432
340 0.0777178
345 0.106253
350 0.0734981
355 0.0644954
360 0.0812364
365 0.0955874
370 0.0946791
375 0.116717
380 0.108945
385 0.151185
390 0.215233
395 0.336172
400 0.737971
405 22.0785
410 422.707
415 695.533
420 185.884
425 24.1484
430 5.26142
435 3.14601
440 3.46388
445 3.42554
450 3.05555
455 2.81068
460 2.98076
465 3.47079
470 5.47975
475 5.33956
480 3.90358
485 3.61815
490 3.06651
495 2.62762
500 2.26106
505 2.4616
510 2.02536
515 2.02276
520 1.77404
525 1.61594
530 1.52094
535 1.49393
540 1.23301
545 1.21973
550 0.97336
555 0.843578
560 0.752762
565 0.663154
570 0.500505
575 0.423185
580 0.3425
585 0.288698
590 0.19391
595 0.200236
600 0.493673
Ex : 423
200 0.0363552
205 0.0346196
210 0.0495959
215 0.0539543
220 0.0572228
225 0.0667479
230 0.0544777
235 0.0510704
240 0.0715908
245 0.113901
250 0.0656072
255 0.05417
260 0.0984816
265 0.0825138
270 0.0866834
275 0.074801
280 0.0576645
285 0.0419962
290 0.0786119
295 0.0892259
300 0.053718
305 0.057037
310 0.0376514
315 0.0555618
320 0.101683
325 0.0996858
330 0.0913547
335 0.0642404
340 0.0859268
345 0.0789062
350 0.115257
355 0.116198
360 0.0813763
365 0.136733
370 0.105729
375 0.0937769
380 0.12738
385 0.125462
390 0.157218
395 0.285213
400 0.417445
405 0.845529
410 23.1153
415 441.766
420 708.412
425 182.802
430 23.0106
435 4.42886
440 2.12573
445 2.26336
450 2.25048
455 1.9485
460 1.74684
465 1.92449
470 2.41348
475 4.40428
480 4.77787
485 3.61459
490 2.82419
495 2.50395
500 2.20163
505 2.00095
510 1.88468
515 1.78574
520 1.52712
525 1.4768
530 1.33742
535 1.24492
540 1.06943
545 0.99665
550 0.853759
555 0.84138
560 0.703008
565 0.6124
570 0.49016
575 0.393439
580 0.274444
585 0.293494
590 0.18769
595 0.208523
600 0.307546
Ex : 428
200 0.0591603
205 0.0885422
210 0.156259
215 0.102756
220 0.040379
225 0.0306221
230 0.0413208
235 0.0523201
240 0.0525812
245 0.0748005
250 0.0694795
255 0.0764201
260 0.138292
265 0.0742247
270 0.0930863
275 0.0730506
280 0.091317
285 0.0887397
290 0.104261
295 0.090138
300 0.0535542
305 0.0731675
310 0.108505
315 0.0892311
320 0.117017
325 0.12511
330 0.0719599
335 0.0468113
340 0.0771641
345 0.0883057
350 0.162852
355 0.0892609
360 0.124237
365 0.131024
370 0.108083
375 0.179961
380 0.123096
385 0.169439
390 0.171331
395 0.165753
400 0.243364
405 0.382317
410 0.927318
415 26.3615
420 450.232
425 732.138
430 196.16
435 24.3887
440 4.15895
445 1.90219
450 1.78224
455 1.73379
460 1.65408
465 1.40968
470 1.58459
475 1.6461
480 3.05759
485 4.42518
490 3.35523
495 2.7847
500 2.45763
505 1.88415
510 1.67805
515 1.54181
520 1.43767
525 1.34681
530 1.19588
535 1.19567
540 1.09663
545 0.925921
550 0.887211
555 0.738849
560 0.629079
565 0.598954
570 0.499709
575 0.449796
580 0.378495
585 0.281354
590 0.201262
595 0.146572
600 0.136992
Ex : 433
200 0.0329565
205 0.0648432
210 0.0416041
215 0.0739802
220 0.0969963
225 0.0869555
230 0.0320413
235 0.0468164
240 0.093033
245 0.0446661
250 0.0432543
255 0.0801841
260 0.0865641
265 0.0944913
270 0.0718238
275 0.0821365
280 0.0889751
285 0.0658751
290 0.065979
295 0.0492969
300 0.0718807
305 0.0664373
310 0.0766902
315 0.0521733
320 0.0636772
325 0.0907613
330 0.0984072
335 0.0763709
340 0.0993832
345 0.075618
350 0.0963656
355 0.0983291
360 0.0788806
365 0.118139
370 0.145149
375 0.103754
380 0.0969912
385 0.106855
390 0.151333
395 0.204756
400 0.181449
405 0.249408
410 0.401385
415 0.870377
420 30.8448
425 511.692
430 772.85
435 193.606
440 23.9603
445 4.24429
450 1.77125
455 1.66207
460 1.81272
465 1.5384
470 1.39365
475 1.33458
480 1.62572
485 2.4265
490 4.04715
495 3.60578
500 2.4633
505 2.19664
510 1.776
515 1.52406
520 1.29559
525 1.21969
530 1.2019
535 1.13649
540 0.999781
545 0.860191
550 0.876003
555 0.806771
560 0.719657
565 0.496563
570 0.484924
575 0.358434
580 0.335046
585 0.293602
590 0.21068
595 0.18839
600 0.0214381
Ex : 438
200 0.0443689
205 0.0473901
210 0.0910864
215 0.0879849
220 0.0524114
225 0.0605031
230 0.0863777
235 0.0799425
240 0.070598
245 0.0484285
250 0.0543971
255 0.0635033
260 0.0647465
265 0.0692355
270 0.104282
275 0.109153
280 0.0400753
285 0.088678
290 0.0536577
295 0.0540394
300 0.0576762
305 0.0453741
310 0.101921
315 0.0604951
320 0.0663595
325 0.0891403
330 0.0775027
335 0.0975173
340 0.0716194
345 0.0762978
350 0.11242
355 0.0883893
360 0.125647
365 0.0843246
370 0.161028
375 0.130214
380 0.0960221
385 0.0759039
390 0.16268
395 0.161266
400 0.182909
405 0.217897
410 0.297986
415 0.38702
420 0.815103
425 30.7338
430 513.94
435 822.893
440 208.487
445 25.6857
450 4.4216
455 1.74282
460 1.78424
465 1.81422
470 1.64393
475 1.21714
480 1.46689
485 1.45719
490 1.78246
495 3.5732
500 3.55288
505 2.42329
510 2.15508
515 1.86809
520 1.4166
525 1.32911
530 1.13387
535 1.15224
540 1.11513
545 0.946443
550 0.826616
555 0.852294
560 0.738041
565 0.59071
570 0.533011
575 0.359508
580 0.293507
585 0.248817
590 0.28294
595 0.209649
600 0.0589544
Ex : 443
200 0.0570905
205 0.0546368
210 0.0832106
215 0.0857085
220 0.0540742
225 0.0792923
230 0.0723795
235 0.10148
240 0.0852676
245 0.0766923
250 0.0790316
255 0.0725779
260 0.0572904
265 0.0977946
270 0.0712115
275 0.0910783
280 0.0800722
285 0.068334
290 0.100721
295 0.0720295
300 0.0496673
305 0.0543657
310 0.0767868
315 0.0990899
320 0.16077
325 0.0790718
330 0.100253
335 0.0621743
340 0.121282
345 0.0978441
350 0.0643909
355 0.0647106
360 0.0787641
365 0.0879635
370 0.0756441
375 0.11467
380 0.138153
385 0.0866261
390 0.104686
395 0.147833
400 0.186493
405 0.167233
410 0.168416
415 0.26131
420 0.475221
425 0.953332
430 33.2867
435 557.576
440 850.611
445 211.027
450 25.9772
455 4.47292
460 1.76187
465 1.55304
470 1.72233
475 1.57838
480 1.17026
485 1.27592
490 1.30315
495 1.50135
500 2.79956
505 3.80748
510 2.74849
515 2.02374
520 1.77855
525 1.3326
530 1.11304
535 0.990668
540 0.937369
545 0.905806
550 0.807552
555 0.859873
560 0.792936
565 0.606406
570 0.458491
575 0.40097
580 0.368488
585 0.212504
590 0.217488
595 0.191251
600 0.0365831
Ex : 448
200 0.0699139
205 0.0586447
210 0.0687534
215 0.0474088
220 0.0802514
225 0.0655897
230 0.0442189
235 0.0759028
240 0.0838812
245 0.0625052
250 0.0610662
255 0.0643487
260 0.0572366
265 0.0801632
270 0.0694353
275 0.0669865
280 0.0550069
285 0.0775666
290 0.0886765
295 0.0860433
300 0.0623604
305 0.0483218
310 0.0562602
315 0.0484767
320 0.0554163
325 0.0444263
330 0.127202
335 0.104916
340 0.0781693
345 0.0948406
350 0.0885434
355 0.0726533
360 0.0805125
365 0.113154
370 0.0843273
375 0.0896234
380 0.101091
385 0.105092
390 0.123429
395 0.104026
400 0.125026
405 0.222942
410 0.210992
415 0.22169
420 0.369271
425 0.396475
430 0.967189
435 35.4272
440 610.13
445 917.975
450 227.486
455 27.7895
460 4.68799
465 2.03426
470 1.60996
475 1.70584
480 1.49398
485 1.22164
490 1.1959
495 1.27453
500 1.30539
505 2.19535
510 3.60274
515 3.02819
520 1.92328
525 1.66951
530 1.43666
535 1.29034
540 1.05768
545 0.882675
550 0.888205
555 0.799841
560 0.748997
565 0.573384
570 0.559284
575 0.429659
580 0.295274
585 0.201586
590 0.247505
595 0.19544
600 0.217857
Ex : 453
200 0.0675543
205 0.0748718
210 0.0580332
215 0.0595868
220 0.0678381
225 0.0392136
230 0.0608541
235 0.0658267
240 0.0931768
245 0.0661332
250 0.113194
255 0.102309
260 0.080247
265 0.069989
270 0.0775477
275 0.0488068
280 0.0610382
285 0.0624049
290 0.0866885
295 0.098646
300 0.0791942
305 0.0961564
310 0.0769604
315 0.0581028
320 0.0867794
325 0.0607679
330 0.065571
335 0.0793415
340 0.0629023
345 0.0804097
350 0.0481922
355 0.113653
360 0.0721833
365 0.0599545
370 0.0685822
375 0.089613
380 0.113457
385 0.149265
390 0.100756
395 0.100267
400 0.100817
405 0.141961
410 0.166453
415 0.162735
420 0.261064
425 0.347877
430 0.423026
435 0.944954
440 38.1768
445 677.224
450 986.551
455 231.483
460 28.3299
465 4.78844
470 1.77607
475 1.58043
480 1.72062
485 1.51324
490 1.31041
495 1.06755
500 1.17412
505 1.14892
510 1.67223
515 3.20271
520 3.19247
525 1.98103
530 1.82483
535 1.51116
540 1.12344
545 0.913451
550 0.880632
555 0.719265
560 0.691521
565 0.573483
570 0.511388
575 0.450121
580 0.312697
585 0.373955
590 0.208327
595 0.244166
600 0.262785
Ex : 458
200 0.101599
205 0.10061
210 0.0614385
215 0.0883704
220 0.0585096
225 0.139062
230 0.149599
235 0.133058
240 0.087361
245 0.0890406
250 0.105547
255 0.0798674
260 0.065696
265 0.0621292
270 0.0495412
275 0.0611857
280 0.0579857
285 0.0676231
290 0.0737098
295 0.0885352
300 0.11265
305 0.089013
310 0.0983763
315 0.0606021
320 0.0645514
325 0.0719041
330 0.0974238
335 0.0642294
340 0.0806093
345 0.104741
350 0.0911708
355 0.0780341
360 0.107324
365 0.127669
370 0.135579
375 0.113788
380 0.116449
385 0.104672
390 0.165879
395 0.0964349
400 0.0934227
405 0.0863762
410 0.147867
415 0.206579
420 0.233131
425 0.283308
430 0.370635
435 0.558922
440 0.962984
445 43.2312
450 691.601
455 1032.57
460 251.669
465 31.0348
470 5.06508
475 1.78807
480 1.42207
485 1.61581
490 1.54218
495 1.28036
500 1.07441
505 1.12517
510 1.13656
515 1.45453
520 2.56324
525 3.28613
530 2.0165
535 1.44632
540 1.43725
545 1.14558
550 0.90905
555 0.714021
560 0.711845
565 0.61585
570 0.531595
575 0.489583
580 0.375244
585 0.347612
590 0.244012
595 0.184459
600 0.0586399
Ex : 463
200 0.0829745
205 0.12801
210 0.0348622
215 0.0571185
220 0.0719755
225 0.0911018
230 0.0715814
235 0.0557959
240 0.0878132
245 0.0621148
250 0.0638655
255 0.0695284
260 0.0842021
265 0.0676968
270 0.0601741
275 0.076341
280 0.0862561
285 0.072618
290 0.0872645
295 0.0540353
300 0.0811225
305 0.0901651
310 0.0816112
315 0.0759961
320 0.0979228
325 0.062775
330 0.074446
335 0.0721878
340 0.0442698
345 0.05168
350 0.0511605
355 0.0793528
360 0.101462
365 0.0827294
370 0.0823897
375 0.0814738
380 0.0994224
385 0.0867424
390 0.134755
395 0.0706256
400 0.11298
405 0.164992
410 0.136459
415 0.16446
420 0.14651
425 0.228402
430 0.236354
435 0.361044
440 0.571991
445 1.22281
450 43.0011
455 753.015
460 1145.14
465 273.184
470 33.4352
475 5.39615
480 1.81687
485 1.43494
490 1.44741
495 1.45847
500 1.28956
505 1.03881
510 1.20826
515 1.11946
520 1.17079
525 1.88202
530 3.03861
535 2.50799
540 1.58644
545 1.51159
550 1.20357
555 0.898744
560 0.766393
565 0.630025
570 0.5885
575 0.466984
580 0.345454
585 0.30378
590 0.290077
595 0.241743
600 0.0275094
Ex : 468
200 0.0482799
205 0.081466
210 0.0748874
215 0.105144
220 0.0992422
225 0.0965153
230 0.0617302
235 0.0737719
240 0.0714514
245 0.0676131
250 0.049686
255 0.0680832
260 0.106504
265 0.0609611
270 0.0598673
275 0.0884176
280 0.094572
285 0.0493629
290 0.046078
295 0.0662171
300 0.0439697
305 0.115093
310 0.0664551
315 0.067143
320 0.0752177
325 0.0933178
330 0.059618
335 0.0680696
340 0.0774949
345 0.118279
350 0.0615034
355 0.0746529
360 0.0719532
365 0.0879031
370 0.0907091
375 0.109118
380 0.0934923
385 0.134498
390 0.12221
395 0.100369
400 0.148642
405 0.114462
410 0.105813
415 0.11436
420 0.187474
425 0.162664
430 0.222351
435 0.265244
440 0.349475
445 0.685388
450 1.12473
455 48.3923
460 774.245
465 1215.7
470 292.157
475 35.3667
480 5.58861
485 1.85519
490 1.37702
495 1.43879
500 1.39244
505 1.17946
510 1.0152
515 1.06585
520 1.12248
525 1.19723
530 1.63353
535 2.73118
540 2.69713
545 1.6799
550 1.36325
555 1.17552
560 0.931602
565 0.728076
570 0.634561
575 0.556949
580 0.441673
585 0.293883
590 0.240523
595 0.258115
600 0.363515
Ex : 473
200 0.0611276
205 0.052467
210 0.041276
215 0.047949
220 0.0752237
225 0.0930451
230 0.0912538
235 0.0614985
240 0.0526611
245 0.0599964
250 0.100779
255 0.0729089
260 0.0975441
265 0.0570114
270 0.0800405
275 0.0893496
280 0.0809882
285 0.0475351
290 0.0867791
295 0.0497045
300 0.0817391
305 0.139617
310 0.0628756
315 0.0785045
320 0.0603183
325 0.0586324
330 0.0960607
335 0.115418
340 0.118468
345 0.0746284
350 0.0949934
355 0.089223
360 0.109403
365 0.112944
370 0.078739
375 0.0611583
380 0.0786171
385 0.0721547
390 0.0894252
395 0.117565
400 0.128012
405 0.0916952
410 0.121264
415 0.109729
420 0.165276
425 0.16325
430 0.1726
435 0.241807
440 0.30221
445 0.429681
450 0.467728
455 1.19675
460 55.4372
465 855.616
470 1196.21
475 277.262
480 33.6644
485 5.43101
490 1.90621
495 1.30229
500 1.38839
505 1.36529
510 1.30025
515 1.04307
520 1.01963
525 1.12158
530 1.12612
535 1.23196
540 2.08639
545 2.71803
550 1.84888
555 1.24048
560 1.20133
565 0.922834
570 0.66343
575 0.493341
580 0.409933
585 0.32801
590 0.270554
595 0.272776
600 0.124994
Ex : 478
200 0.0981488
205 0.0391009
210 0.0553722
215 0.110123
220 0.0740993
225 0.0773302
230 0.0733598
235 0.0686613
240 0.113738
245 0.0632903
250 0.0801951
255 0.103581
260 0.105271
265 0.0597363
270 0.0701567
275 0.0856329
280 0.0375949
285 0.0628744
290 0.110191
295 0.105679
300 0.0854157
305 0.069668
310 0.111916
315 0.118319
320 0.0610181
325 0.134961
330 0.11017
335 0.103565
340 0.127516
345 0.0829
350 0.0499531
355 0.12672
360 0.108816
365 0.107646
370 0.0911557
375 0.0824721
380 0.091496
385 0.150613
390 0.10111
395 0.132719
400 0.0973571
405 0.116962
410 0.122247
415 0.180708
420 0.144867
425 0.134864
430 0.153557
435 0.210066
440 0.254044
445 0.45899
450 0.482483
455 0.698983
460 1.60661
465 62.0034
470 901.982
475 1273.45
480 309.42
485 37.3956
490 5.95267
495 1.84024
500 1.10284
505 1.30532
510 1.33864
515 1.26307
520 1.06318
525 0.95442
530 1.07764
535 1.03813
540 1.09649
545 1.56529
550 2.50921
555 2.19862
560 1.1509
565 0.914417
570 0.84097
575 0.652899
580 0.440866
585 0.409976
590 0.371145
595 0.260534
600 0.76295
Ex : 483
200 0.095082
205 0.0721102
210 0.0739543
215 0.0554543
220 0.0842274
225 0.0946668
230 0.0538218
235 0.126903
240 0.0787594
245 0.0712462
250 0.0756271
255 0.101883
260 0.0743543
265 0.0599026
270 0.0645536
275 0.116248
280 0.0518138
285 0.079839
290 0.0535064
295 0.0603941
300 0.0950873
305 0.0733065
310 0.0938723
315 0.099898
320 0.100378
325 0.0889405
330 0.132543
335 0.138642
340 0.190548
345 0.100326
350 0.200001
355 0.091767
360 0.141817
365 0.105895
370 0.0737994
375 0.0950527
380 0.0905367
385 0.0800141
390 0.112728
395 0.141141
400 0.134478
405 0.11576
410 0.135846
415 0.0930091
420 0.145236
425 0.188943
430 0.109944
435 0.13142
440 0.189539
445 0.257639
450 0.329008
455 0.499794
460 0.934168
465 1.59853
470 52.0648
475 925.726
480 1419.69
485 338.825
490 40.917
495 6.07541
500 1.97199
505 1.12757
510 1.1957
515 1.32492
520 1.28182
525 1.2078
530 1.1349
535 0.99898
540 0.993038
545 0.98216
550 1.25452
555 2.07047
560 2.246
565 1.39496
570 0.837812
575 0.696703
580 0.488827
585 0.402054
590 0.405883
595 0.276567
600 0.531971
Ex : 488
200 0.0890592
205 0.0938889
210 0.109124
215 0.0883876
220 0.0789635
225 0.12197
230 0.0740032
235 0.111768
240 0.124221
245 0.110461
250 0.0912837
255 0.120703
260 0.0946201
265 0.107273
270 0.0867281
275 0.0552259
280 0.100469
285 0.0870925
290 0.139976
295 0.0911014
300 0.0672031
305 0.104814
310 0.095837
315 0.13091
320 0.100394
325 0.0736586
330 0.101525
335 0.118192
340 0.178102
345 0.097293
350 0.0927875
355 0.123608
360 0.0794922
365 0.0943744
370 0.108383
375 0.134594
380 0.155978
385 0.112805
390 0.0920848
395 0.193981
400 0.151212
405 0.144017
410 0.17742
415 0.163874
420 0.110778
425 0.159765
430 0.117734
435 0.190053
440 0.263007
445 0.204334
450 0.303423
455 0.366906
460 0.549777
465 0.911947
470 1.67139
475 64.3107
480 1028.06
485 1434.67
490 338.287
495 40.7192
500 6.2532
505 1.81415
510 1.18379
515 1.20639
520 1.24385
525 1.33086
530 1.10891
535 1.04902
540 1.01096
545 0.935312
550 1.04253
555 0.925207
560 1.65233
565 2.01615
570 1.30856
575 0.803197
580 0.576277
585 0.521476
590 0.350028
595 0.269474
600 0.247972
Ex : 493
200 0.181999
205 0.126495
210 0.108238
215 0.101346
220 0.158554
225 0.119192
230 0.114263
235 0.0740282
240 0.10038
245 0.10148
250 0.103377
255 0.10404
260 0.0582695
265 0.0911772
270 0.102468
275 0.110755
280 0.0684982
285 0.0974318
290 0.0983352
295 0.0886434
300 0.0982479
305 0.118854
310 0.11218
315 0.136305
320 0.142926
325 0.0928719
330 0.0797499
335 0.105908
340 0.136206
345 0.0971237
350 0.122855
355 0.103255
360 0.111554
365 0.162314
370 0.120589
375 0.127227
380 0.118581
385 0.146279
390 0.127512
395 0.148198
400 0.136296
405 0.125433
410 0.10213
415 0.172889
420 0.190434
425 0.16222
430 0.133663
435 0.188777
440 0.246978
445 0.230779
450 0.231617
455 0.26249
460 0.425971
465 0.679968
470 0.875163
475 1.4861
480 59.9191
485 1005.5
490 1489.99
495 343.678
500 41.4416
505 6.18812
510 1.85727
515 1.21971
520 1.18104
525 1.51593
530 1.27152
535 1.10357
540 0.924061
545 0.901958
550 0.81178
555 0.767275
560 0.81593
565 1.19846
570 1.61858
575 1.30846
580 0.759127
585 0.549514
590 0.527192
595 0.28257
600 0.0321554
Ex : 498
200 0.0857285
205 0.0766607
210 0.0922676
215 0.0891153
220 0.0915807
225 0.132312
230 0.0981996
235 0.0588373
240 0.135325
245 0.105145
250 0.112545
255 0.0771952
260 0.134764
265 0.178504
270 0.118217
275 0.114513
280 0.112637
285 0.079825
290 0.0857284
295 0.0973061
300 0.129464
305 0.14947
310 0.10127
315 0.079393
320 0.10696
325 0.0886676
330 0.121942
335 0.158672
340 0.091914
345 0.118875
350 0.0754216
355 0.102187
360 0.158942
365 0.108217
370 0.0756658
375 0.127175
380 0.122896
385 0.101242
390 0.127492
395 0.117899
400 0.092032
405 0.12206
410 0.173371
415 0.133824
420 0.174029
425 0.211027
430 0.16581
435 0.159247
440 0.136478
445 0.159462
450 0.146089
455 0.28659
460 0.253986
465 0.42933
470 0.688295
475 0.859946
480 1.70945
485 72.9677
490 1086.74
495 1487.93
500 346.368
505 41.6338
510 6.25143
515 2.04247
520 1.31727
525 1.26184
530 1.41251
535 1.23763
540 1.08619
545 0.870614
550 0.802346
555 0.697574
560 0.675028
565 0.591601
570 0.642476
575 1.3342
580 1.33849
585 0.735112
590 0.396174
595 0.519848
600 0.604795
Ex : 503
200 0.139674
205 0.124895
210 0.179766
215 0.0997388
220 0.100834
225 0.105035
230 0.132786
235 0.128049
240 0.0670663
245 0.0791531
250 0.11927
255 0.104844
260 0.109727
265 0.145962
270 0.129163
275 0.113529
280 0.0875893
285 0.0840687
290 0.0770146
295 0.0831602
300 0.110706
305 0.0990068
310 0.142889
315 0.167045
320 0.202159
325 0.122178
330 0.155738
335 0.141444
340 0.140868
345 0.149425
350 0.153948
355 0.122897
360 0.178686
365 0.100821
370 0.083152
375 0.0854414
380 0.125266
385 0.109637
390 0.100478
395 0.109599
400 0.118396
405 0.103291
410 0.161313
415 0.118966
420 0.147377
425 0.105848
430 0.132026
435 0.175496
440 0.1423
445 0.134404
450 0.205942
455 0.191232
460 0.249227
465 0.387177
470 0.386773
475 0.584776
480 0.989436
485 1.57946
490 66.6667
495 1109.12
500 1586.22
505 370.502
510 44.4267
515 6.63661
520 2.17031
525 1.31961
530 1.25376
535 1.36066
540 1.16976
545 1.07868
550 0.821543
555 0.836009
560 0.762837
565 0.70829
570 0.4975
575 0.497009
580 0.732011
585 1.0042
590 0.659969
595 0.426958
600 0.0485862
Ex : 508
200 0.116363
205 0.102008
210 0.154582
215 0.0924167
220 0.0989136
225 0.0698456
230 0.0947889
235 0.144361
240 0.0698393
245 0.151145
250 0.0869217
255 0.0723164
260 0.082857
265 0.171325
270 0.121413
275 0.189347
280 0.127829
285 0.140981
290 0.0717157
295 0.0929157
300 0.164996
305 0.146779
310 0.133855
315 0.104105
320 0.106274
325 0.134909
330 0.10036
335 0.12856
340 0.172183
345 0.115099
350 0.173246
355 0.0880859
360 0.114038
365 0.176352
370 0.196457
375 0.152594
380 0.0948056
385 0.173009
390 0.156896
395 0.107405
400 0.217953
405 0.167723
410 0.177268
415 0.0966715
420 0.127999
425 0.176231
430 0.212266
435 0.162119
440 0.177436
445 0.211322
450 0.203618
455 0.228385
460 0.201915
465 0.327316
470 0.379424
475 0.448204
480 0.730449
485 1.01745
490 1.75035
495 74.3795
500 1137.31
505 1582.53
510 383.658
515 46.0485
520 6.87578
525 2.23273
530 1.31699
535 1.15834
540 1.11046
545 1.16976
550 0.915682
555 0.873973
560 0.75834
565 0.742278
570 0.556399
575 0.487651
580 0.465533
585 0.571779
590 0.730879
595 0.758439
600 0.1551
Ex : 513
200 0.0812999
205 0.0903032
210 0.0798253
215 0.137515
220 0.102504
225 0.102516
230 0.14336
235 0.122376
240 0.123891
245 0.0790442
250 0.0965923
255 0.0984639
260 0.0942895
265 0.157701
270 0.168644
275 0.106355
280 0.18813
285 0.174907
290 0.0881266
295 0.145128
300 0.0851057
305 0.168607
310 0.127974
315 0.109627
320 0.150497
325 0.106034
330 0.109252
335 0.0872419
340 0.179622
345 0.164405
350 0.102995
355 0.153601
360 0.163087
365 0.188586
370 0.172858
375 0.123366
380 0.102799
385 0.150539
390 0.129908
395 0.123811
400 0.119846
405 0.138404
410 0.188298
415 0.10966
420 0.15402
425 0.115905
430 0.178697
435 0.184704
440 0.207911
445 0.166099
450 0.195006
455 0.184748
460 0.260985
465 0.269442
470 0.368931
475 0.309419
480 0.557177
485 0.646581
490 0.920774
495 1.69104
500 70.0016
505 1144.95
510 1671.02
515 409.382
520 49.2117
525 7.2388
530 2.28895
535 1.34901
540 1.09392
545 1.0881
550 1.08999
555 0.996389
560 0.712955
565 0.638103
570 0.419697
575 0.472145
580 0.357657
585 0.382533
590 0.478727
595 0.629692
600 0.154479
Ex : 518
200 0.0674055
205 0.106567
210 0.0978721
215 0.140723
220 0.132074
225 0.144952
230 0.0990421
235 0.134787
240 0.153971
245 0.113248
250 0.0769881
255 0.209224
260 0.170392
265 0.181268
270 0.0928936
275 0.138398
280 0.148756
285 0.0745771
290 0.122763
295 0.210189
300 0.156501
305 0.0615699
310 0.0996495
315 0.128476
320 0.139021
325 0.244882
330 0.0993298
335 0.0886273
340 0.115304
345 0.162282
350 0.193365
355 0.129404
360 0.140961
365 0.173492
370 0.0666859
375 0.177348
380 0.152139
385 0.0813437
390 0.16434
395 0.126852
400 0.12586
405 0.126016
410 0.227282
415 0.141015
420 0.0855732
425 0.128109
430 0.154695
435 0.143796
440 0.155117
445 0.216608
450 0.257684
455 0.21043
460 0.239658
465 0.3923
470 0.359887
475 0.331188
480 0.416541
485 0.442494
490 0.719008
495 0.905263
500 1.65494
505 74.3467
510 1141.02
515 1704.37
520 422.124
525 50.725
530 7.24295
535 2.09325
540 1.26098
545 0.934997
550 0.823554
555 0.954729
560 0.82387
565 0.665967
570 0.494537
575 0.480412
580 0.395932
585 0.398274
590 0.355912
595 0.343695
600 0.861406
Ex : 523
200 0.152987
205 0.100116
210 0.192193
215 0.118611
220 0.11441
225 0.132508
230 0.109554
235 0.125604
240 0.142834
245 0.113961
250 0.0875442
255 0.128374
260 0.0855216
265 0.0892415
270 0.164929
275 0.125843
280 0.11231
285 0.162002
290 0.103392
295 0.0926931
300 0.13074
305 0.11107
310 0.0831161
315 0.168424
320 0.175129
325 0.101303
330 0.159051
335 0.103987
340 0.16269
345 0.212957
350 0.09526
355 0.0844623
360 0.179062
365 0.213463
370 0.179291
375 0.1406
380 0.138002
385 0.103588
390 0.122955
395 0.224667
400 0.109178
405 0.154874
410 0.154925
415 0.217514
420 0.157709
425 0.147905
430 0.141016
435 0.155791
440 0.15518
445 0.112065
450 0.210344
455 0.254909
460 0.195716
465 0.224266
470 0.274329
475 0.348973
480 0.315006
485 0.358884
490 0.446994
495 0.59522
500 1.00565
505 1.67944
510 67.3035
515 1105.54
520 1664.98
525 428.966
530 51.1653
535 7.20477
540 1.97789
545 1.00602
550 0.927991
555 0.785345
560 0.798879
565 0.785973
570 0.544158
575 0.583362
580 0.439462
585 0.320073
590 0.310749
595 0.329319
600 0.416647
Ex : 528
200 0.162444
205 0.164848
210 0.153322
215 0.096689
220 0.11871
225 0.16892
230 0.115909
235 0.159968
240 0.108297
245 0.109849
250 0.125895
255 0.135015
260 0.150375
265 0.111693
270 0.0902585
275 0.0996105
280 0.112927
285 0.134918
290 0.111818
295 0.121968
300 0.0865048
305 0.12259
310 0.109659
315 0.1303
320 0.107673
325 0.103869
330 0.190135
335 0.290114
340 0.116069
345 0.129554
350 0.208695
355 0.126949
360 0.131468
365 0.173675
370 0.111234
375 0.0844625
380 0.157076
385 0.168237
390 0.196688
395 0.11557
400 0.181301
405 0.171354
410 0.158567
415 0.100679
420 0.157356
425 0.156902
430 0.159232
435 0.106643
440 0.157768
445 0.133942
450 0.117971
455 0.157602
460 0.226957
465 0.230411
470 0.181433
475 0.251741
480 0.254937
485 0.354347
490 0.365301
495 0.518498
500 0.552464
505 1.0797
510 1.69589
515 65.8469
520 1151.02
525 1727.63
530 434.295
535 51.8807
540 7.16414
545 1.91295
550 1.00153
555 0.758147
560 0.683527
565 0.63353
570 0.64825
575 0.542165
580 0.464487
585 0.372384
590 0.265257
595 0.332426
600 0.187037
Ex : 533
200 0.0860175
205 0.133629
210 0.127896
215 0.0906519
220 0.145306
225 0.133524
230 0.15194
235 0.150956
240 0.160053
245 0.108188
250 0.0984592
255 0.128588
260 0.125156
265 0.161794
270 0.113957
275 0.136671
280 0.135155
285 0.096189
290 0.121121
295 0.104785
300 0.114997
305 0.0904105
310 0.126122
315 0.0823331
320 0.200581
325 0.116676
330 0.148373
335 0.110521
340 0.106014
345 0.154564
350 0.175487
355 0.19001
360 0.135178
365 0.129616
370 0.181579
375 0.125259
380 0.0916697
385 0.100291
390 0.146258
395 0.159407
400 0.128496
405 0.11192
410 0.116018
415 0.171577
420 0.195721
425 0.149899
430 0.159581
435 0.153605
440 0.164151
445 0.135635
450 0.12943
455 0.208491
460 0.257042
465 0.222901
470 0.169019
475 0.177937
480 0.301267
485 0.321358
490 0.262927
495 0.365225
500 0.433437
505 0.684903
510 1.0038
515 1.70016
520 64.1841
525 1065.29
530 1687.3
535 444.421
540 53.1443
545 7.308
550 1.79246
555 1.03936
560 0.668255
565 0.580059
570 0.63682
575 0.50549
580 0.484624
585 0.446701
590 0.303074
595 0.282501
600 0.129584
Ex : 538
200 0.163704
205 0.151012
210 0.0866048
215 0.088962
220 0.114947
225 0.0772515
230 0.088878
235 0.128251
240 0.112214
245 0.195505
250 0.073386
255 0.117674
260 0.12245
265 0.0958533
270 0.122315
275 0.242539
280 0.136765
285 0.0946928
290 0.0953794
295 0.15742
300 0.167422
305 0.138701
310 0.120245
315 0.0641385
320 0.108513
325 0.136128
330 0.124765
335 0.118979
340 0.207058
345 0.137069
350 0.144653
355 0.0906473
360 0.175567
365 0.167564
370 0.135113
375 0.167731
380 0.127628
385 0.123008
390 0.217616
395 0.0934842
400 0.141
405 0.213861
410 0.209111
415 0.195926
420 0.177818
425 0.158322
430 0.259233
435 0.146756
440 0.142158
445 0.242516
450 0.249321
455 0.213512
460 0.178088
465 0.160441
470 0.227654
475 0.24369
480 0.238329
485 0.27771
490 0.301161
495 0.3441
500 0.375532
505 0.424198
510 0.55639
515 1.0397
520 1.73732
525 55.0388
530 1067.44
535 1740.64
540 461.836
545 54.9714
550 7.3337
555 1.602
560 0.843946
565 0.694996
570 0.647063
575 0.5091
580 0.451237
585 0.500622
590 0.389496
595 0.29685
600 0.0337804
Ex : 543
200 0.0811632
205 0.188446
210 0.145114
215 0.19366
220 0.173996
225 0.142766
230 0.241342
235 0.174138
240 0.143481
245 0.16906
250 0.0773911
255 0.104302
260 0.105166
265 0.114498
270 0.184942
275 0.101308
280 0.0541173
285 0.0996613
290 0.0669941
295 0.134982
300 0.104265
305 0.113823
310 0.173284
315 0.128852
320 0.125069
325 0.12953
330 0.103755
335 0.129691
340 0.123343
345 0.18554
350 0.136036
355 0.13925
360 0.101585
365 0.148337
370 0.141181
375 0.104804
380 0.195128
385 0.141362
390 0.122819
395 0.16213
400 0.124752
405 0.114713
410 0.0849115
415 0.241896
420 0.218636
425 0.157114
430 0.182887
435 0.26346
440 0.158885
445 0.158182
450 0.169607
455 0.116336
460 0.170533
465 0.285917
470 0.223306
475 0.19218
480 0.210288
485 0.247168
490 0.319541
495 0.327777
500 0.307979
505 0.396439
510 0.439047
515 0.668329
520 0.869184
525 1.4955
530 50.9545
535 1010.76
540 1710.55
545 473.191
550 56.451
555 7.5597
560 1.79633
565 0.821018
570 0.59611
575 0.402174
580 0.403453
585 0.535721
590 0.406753
595 0.360784
600 0.198603
Ex : 548
200 0.122246
205 0.151816
210 0.190606
215 0.115598
220 0.122046
225 0.0962417
230 0.148665
235 0.117203
240 0.0962021
245 0.143629
250 0.150386
255 0.162405
260 0.108781
265 0.132592
270 0.211942
275 0.0901224
280 0.130137
285 0.0972439
290 0.167505
295 0.0724311
300 0.0516577
305 0.103279
310 0.109162
315 0.0985622
320 0.113041
325 0.100011
330 0.111803
335 0.190328
340 0.248744
345 0.145889
350 0.148831
355 0.186368
360 0.189359
365 0.149829
370 0.126772
375 0.128611
380 0.119914
385 0.118149
390 0.151827
395 0.242102
400 0.173152
405 0.136603
410 0.164213
415 0.173243
420 0.206143
425 0.218726
430 0.117221
435 0.149576
440 0.207576
445 0.13974
450 0.169653
455 0.184906
460 0.192246
465 0.191153
470 0.177594
475 0.240727
480 0.188433
485 0.231491
490 0.30578
495 0.271336
500 0.316211
505 0.341584
510 0.382098
515 0.38301
520 0.542546
525 0.802904
530 1.45967
535 54.3056
540 1004.8
545 1662.88
550 460.893
555 54.9388
560 7.18864
565 1.71937
570 0.793975
575 0.425293
580 0.325251
585 0.359368
590 0.397246
595 0.31694
600 0.661917
Ex : 553
200 0.158071
205 0.127713
210 0.137764
215 0.124555
220 0.103394
225 0.0906309
230 0.0955761
235 0.0963553
240 0.112685
245 0.129422
250 0.148645
255 0.108074
260 0.101507
265 0.0968134
270 0.134174
275 0.150735
280 0.175023
285 0.118356
290 0.240774
295 0.204115
300 0.116223
305 0.15575
310 0.158526
315 0.12944
320 0.101326
325 0.0958952
330 0.139581
335 0.167483
340 0.0944591
345 0.0981425
350 0.113542
355 0.128322
360 0.146692
365 0.0805499
370 0.165151
375 0.140628
380 0.0915949
385 0.1155
390 0.112458
395 0.123823
400 0.114778
405 0.147213
410 0.14794
415 0.181369
420 0.139026
425 0.145491
430 0.230784
435 0.216689
440 0.134649
445 0.163505
450 0.199767
455 0.153529
460 0.245851
465 0.172671
470 0.145285
475 0.253472
480 0.172543
485 0.165937
490 0.28136
495 0.235429
500 0.340093
505 0.277983
510 0.339721
515 0.304134
520 0.482786
525 0.574881
530 1.03777
535 1.39496
540 46.3088
545 946.25
550 1639.31
555 462.968
560 55.2007
565 7.24925
570 1.48731
575 0.647335
580 0.492827
585 0.418301
590 0.317907
595 0.357741
600 0.372388
Ex : 558
200 0.15389
205 0.136417
210 0.135674
215 0.142865
220 0.145345
225 0.154282
230 0.104348
235 0.165224
240 0.126919
245 0.0873152
250 0.165907
255 0.0665625
260 0.106714
265 0.0980007
270 0.113302
275 0.0946369
280 0.115681
285 0.119869
290 0.134692
295 0.0899538
300 0.102582
305 0.171935
310 0.086534
315 0.149577
320 0.127427
325 0.0963656
330 0.155528
335 0.111166
340 0.17037
345 0.2444
350 0.104175
355 0.188089
360 0.12239
365 0.158701
370 0.164082
375 0.185417
380 0.139949
385 0.124144
390 0.225738
395 0.159369
400 0.0935928
405 0.149706
410 0.166717
415 0.161667
420 0.20352
425 0.172537
430 0.152948
435 0.143509
440 0.288218
445 0.263796
450 0.172838
455 0.148592
460 0.156231
465 0.176448
470 0.232463
475 0.192301
480 0.253123
485 0.198442
490 0.200004
495 0.273988
500 0.213747
505 0.321663
510 0.275078
515 0.322187
520 0.394298
525 0.432325
530 0.495223
535 0.927328
540 1.5058
545 45.6257
550 928.802
555 1636.01
560 462.517
565 55.2488
570 7.20053
575 1.45302
580 0.673779
585 0.436999
590 0.398304
595 0.412035
600 0.127452
Ex : 563
200 0.204271
205 0.275115
210 0.236295
215 0.128227
220 0.138304
225 0.140567
230 0.0979702
235 0.0995563
240 0.185259
245 0.188587
250 0.138733
255 0.119285
260 0.118365
265 0.166314
270 0.12215
275 0.0873498
280 0.140374
285 0.161207
290 0.152248
295 0.151977
300 0.159449
305 0.218074
310 0.0984435
315 0.154315
320 0.14706
325 0.162016
330 0.133181
335 0.269411
340 0.113145
345 0.170446
350 0.146513
355 0.234727
360 0.191404
365 0.104954
370 0.133457
375 0.177626
380 0.227878
385 0.191106
390 0.160117
395 0.138753
400 0.0855537
405 0.126036
410 0.14273
415 0.125873
420 0.134854
425 0.197969
430 0.157054
435 0.163422
440 0.245143
445 0.203669
450 0.249624
455 0.153883
460 0.152423
465 0.1838
470 0.220382
475 0.276529
480 0.245462
485 0.240169
490 0.180009
495 0.287765
500 0.306059
505 0.215892
510 0.366922
515 0.217441
520 0.402745
525 0.331151
530 0.428216
535 0.564926
540 0.87051
545 1.57353
550 44.3093
555 868.206
560 1548.5
565 454.649
570 54.3226
575 6.91996
580 1.35275
585 0.705208
590 0.525887
595 0.347666
600 0.0783345
Ex : 568
200 0.185265
205 0.0900856
210 0.169831
215 0.101534
220 0.114961
225 0.0912161
230 0.0702998
235 0.205437
240 0.16669
245 0.16325
250 0.190246
255 0.112989
260 0.164767
265 0.187246
270 0.142347
275 0.157567
280 0.164237
285 0.187438
290 0.177387
295 0.207295
300 0.154437
305 0.227353
310 0.149653
315 0.0748048
320 0.0878188
325 0.113404
330 0.0693856
335 0.216713
340 0.161799
345 0.131396
350 0.135074
355 0.0966234
360 0.147239
365 0.126403
370 0.121205
375 0.126187
380 0.104417
385 0.179487
390 0.127131
395 0.144363
400 0.202707
405 0.182724
410 0.204287
415 0.106025
420 0.123234
425 0.116389
430 0.145141
435 0.152277
440 0.11449
445 0.101977
450 0.20658
455 0.141714
460 0.213775
465 0.268108
470 0.16468
475 0.1393
480 0.179659
485 0.215041
490 0.240772
495 0.335103
500 0.346151
505 0.232532
510 0.253773
515 0.273647
520 0.342386
525 0.284027
530 0.265394
535 0.408236
540 0.586242
545 0.850203
550 1.27826
555 32.9821
560 805.442
565 1507.18
570 455.166
575 54.5258
580 6.97825
585 1.31392
590 0.546646
595 0.487606
600 0.223461
Ex : 573
200 0.111252
205 0.185482
210 0.147768
215 0.106267
220 0.100798
225 0.0913659
230 0.166116
235 0.0966603
240 0.229704
245 0.103447
250 0.155297
255 0.152726
260 0.147679
265 0.131195
270 0.167982
275 0.156313
280 0.223549
285 0.139692
290 0.179648
295 0.122936
300 0.189449
305 0.102496
310 0.17866
315 0.176528
320 0.159933
325 0.240492
330 0.188224
335 0.129541
340 0.129768
345 0.125949
350 0.236271
355 0.111414
360 0.149018
365 0.135713
370 0.0999985
375 0.111499
380 0.12072
385 0.216544
390 0.158642
395 0.246892
400 0.125161
405 0.122637
410 0.131272
415 0.196313
420 0.137051
425 0.210063
430 0.157856
435 0.198833
440 0.156369
445 0.12126
450 0.129391
455 0.148326
460 0.226159
465 0.20759
470 0.185706
475 0.135979
480 0.157763
485 0.195618
490 0.289058
495 0.1267
500 0.227729
505 0.216551
510 0.218887
515 0.174426
520 0.263461
525 0.258642
530 0.340794
535 0.36689
540 0.372091
545 0.661623
550 0.746559
555 1.3507
560 31.2351
565 708.721
570 1405.6
575 435.296
580 52.057
585 6.56635
590 1.23433
595 0.582006
600 0.665016
Ex : 578
200 0.143644
205 0.154367
210 0.213903
215 0.136407
220 0.22606
225 0.116655
230 0.114703
235 0.209825
240 0.223233
245 0.162993
250 0.130648
255 0.224336
260 0.202216
265 0.0926916
270 0.0878492
275 0.112363
280 0.136473
285 0.0928052
290 0.0979269
295 0.146086
300 0.120491
305 0.240057
310 0.1895
315 0.221232
320 0.156578
325 0.197503
330 0.166976
335 0.165537
340 0.228838
345 0.17909
350 0.157112
355 0.108026
360 0.170243
365 0.132382
370 0.157672
375 0.160456
380 0.133466
385 0.162549
390 0.215238
395 0.219072
400 0.194884
405 0.13684
410 0.118011
415 0.141671
420 0.243596
425 0.238058
430 0.240278
435 0.200221
440 0.293971
445 0.130726
450 0.169403
455 0.184251
460 0.153097
465 0.187879
470 0.109928
475 0.165263
480 0.202469
485 0.184024
490 0.183707
495 0.193979
500 0.394823
505 0.337947
510 0.329518
515 0.290054
520 0.199752
525 0.270421
530 0.282864
535 0.305145
540 0.273228
545 0.341067
550 0.396936
555 0.588891
560 1.1599
565 26.4277
570 661.762
575 1266.11
580 374.815
585 44.6364
590 5.7131
595 0.974127
600 0.110852
Ex : 583
200 0.0872405
205 0.144495
210 0.080362
215 0.0841429
220 0.231275
225 0.0998572
230 0.0788908
235 0.0941091
240 0.116527
245 0.113495
250 0.155658
255 0.160953
260 0.199341
265 0.204099
270 0.132674
275 0.105154
280 0.0990749
285 0.15217
290 0.104422
295 0.109917
300 0.126457
305 0.185541
310 0.124512
315 0.0987333
320 0.0731438
325 0.056315
330 0.140745
335 0.146182
340 0.08878
345 0.185381
350 0.0904728
355 0.180387
360 0.162974
365 0.172649
370 0.195102
375 0.191881
380 0.141705
385 0.164076
390 0.181199
395 0.204979
400 0.141198
405 0.150164
410 0.103028
415 0.149918
420 0.222086
425 0.306035
430 0.147841
435 0.119752
440 0.16434
445 0.187744
450 0.294158
455 0.191171
460 0.158116
465 0.201984
470 0.157095
475 0.167224
480 0.217045
485 0.246661
490 0.202355
495 0.174287
500 0.194298
505 0.123865
510 0.203846
515 0.155306
520 0.259718
525 0.244058
530 0.265244
535 0.19586
540 0.333689
545 0.366988
550 0.271916
555 0.49274
560 0.679912
565 1.29988
570 21.7079
575 562.693
580 1060.66
585 309.076
590 36.7112
595 4.45846
600 1.06673
Ex : 588
200 0.145629
205 0.0972482
210 0.144906
215 0.165088
220 0.193784
225 0.131671
230 0.148602
235 0.119605
240 0.105578
245 0.0901184
250 0.143765
255 0.157456
260 0.167487
265 0.176182
270 0.100866
275 0.227228
280 0.226013
285 0.0960849
290 0.0857315
295 0.193598
300 0.11019
305 0.104646
310 0.137456
315 0.176643
320 0.145422
325 0.195899
330 0.083277
335 0.138686
340 0.0810503
345 0.135758
350 0.0722113
355 0.173092
360 0.201071
365 0.155022
370 0.168622
375 0.240855
380 0.117358
385 0.363793
390 0.227597
395 0.155276
400 0.138692
405 0.129536
410 0.175435
415 0.2228
420 0.304375
425 0.182132
430 0.151691
435 0.117491
440 0.2365
445 0.161158
450 0.15203
455 0.183454
460 0.197655
465 0.12395
470 0.23122
475 0.175298
480 0.250534
485 0.1667
490 0.197565
495 0.194552
500 0.186667
505 0.158446
510 0.286568
515 0.267272
520 0.282311
525 0.273326
530 0.150919
535 0.238879
540 0.227264
545 0.313204
550 0.322617
555 0.383629
560 0.405815
565 0.645499
570 0.963347
575 19.1852
580 476.863
585 922.712
590 277.318
595 33.0295
600 4.7674
Ex : 593
200 0.0945039
205 0.0809247
210 0.157205
215 0.122025
220 0.156807
225 0.0868464
230 0.152919
235 0.0755159
240 0.110519
245 0.231839
250 0.213892
255 0.158633
260 0.167898
265 0.183093
270 0.150264
275 0.141033
280 0.180386
285 0.130499
290 0.115526
295 0.0740134
300 0.113877
305 0.130336
310 0.0904754
315 0.0926698
320 0.149615
325 0.160909
330 0.132189
335 0.125156
340 0.069258
345 0.167812
350 0.135431
355 0.144466
360 0.195255
365 0.274271
370 0.084015
375 0.158145
380 0.123134
385 0.189417
390 0.123248
395 0.194732
400 0.13961
405 0.132811
410 0.275762
415 0.197735
420 0.10586
425 0.154342
430 0.0640434
435 0.240922
440 0.090166
445 0.163912
450 0.186601
455 0.351503
460 0.196511
465 0.149489
470 0.153126
475 0.219621
480 0.190502
485 0.158227
490 0.204447
495 0.22217
500 0.195419
505 0.27235
510 0.185387
515 0.24718
520 0.226136
525 0.295659
530 0.321669
535 0.269379
540 0.153426
545 0.21479
550 0.200583
555 0.375694
560 0.328025
565 0.423944
570 0.452372
575 0.735713
580 16.5421
585 425.089
590 809.557
595 243.49
600 35.844
Ex : 598
200 0.0500847
205 0.148848
210 0.12049
215 0.167944
220 0.203617
225 0.159471
230 0.0765464
235 0.133399
240 0.183274
245 0.114256
250 0.220566
255 0.13135
260 0.179944
265 0.244474
270 0.133849
275 0.163492
280 0.149558
285 0.171317
290 0.089018
295 0.120611
300 0.0951627
305 0.127626
310 0.105515
315 0.308589
320 0.216054
325 0.103236
330 0.11277
335 0.265648
340 0.133524
345 0.135449
350 0.131607
355 0.107279
360 0.172341
365 0.170527
370 0.295358
375 0.276889
380 0.28646
385 0.179905
390 0.133188
395 0.237557
400 0.231281
405 0.101869
410 0.10875
415 0.127827
420 0.133951
425 0.133867
430 0.120935
435 0.141538
440 0.171818
445 0.176923
450 0.232869
455 0.174172
460 0.270855
465 0.180525
470 0.210034
475 0.172557
480 0.223548
485 0.145613
490 0.160899
495 0.158379
500 0.262493
505 0.237459
510 0.128003
515 0.182724
520 0.231279
525 0.27108
530 0.219866
535 0.187628
540 0.200859
545 0.263826
550 0.219131
555 0.205403
560 0.277491
565 0.253422
570 0.244182
575 0.399551
580 0.723972
585 17.1521
590 389.352
595 696.467
600 424.252
Ex : 603
200 0.134015
205 0.177096
210 0.127157
215 0.23902
220 0.113804
225 0.138474
230 0.142105
235 0.216509
240 0.178347
245 0.155072
250 0.215421
255 0.196493
260 0.149964
265 0.102975
270 0.253346
275 0.169236
280 0.155895
285 0.217418
290 0.143792
295 0.206841
300 0.156136
305 0.123184
310 0.140593
315 0.180247
320 0.142445
325 0.212522
330 0.125272
335 0.0885459
340 0.101922
345 0.149452
350 0.114073
355 0.105916
360 0.0821322
365 0.167874
370 0.0749273
375 0.167363
380 0.0952626
385 0.067403
390 0.1554
395 0.11582
400 0.124305
405 0.136965
410 0.186546
415 0.242076
420 0.129497
425 0.221898
430 0.190147
435 0.177468
440 0.18862
445 0.220379
450 0.181612
455 0.139798
460 0.270285
465 0.133821
470 0.100622
475 0.177537
480 0.123806
485 0.281258
490 0.181584
495 0.171462
500 0.145512
505 0.163414
510 0.117377
515 0.200315
520 0.14563
525 0.205205
530 0.192775
535 0.228958
540 0.138041
545 0.175625
550 0.275922
555 0.312591
560 0.389386
565 0.252425
570 0.33809
575 0.491267
580 0.595111
585 0.511087
590 14.401
595 322.939
600 645.714
