File format V 1.0
jeu. 5. janv. 22:50:33 2017
Operator : 
Comments : 

=============================================
SpectroFluorometer parameters
Mode : 3D measurement
Data : Fluorescence
Phospho. : Ordinary
Spectrum : Fluorescence

Scan speed : 2400 nm/mn
Response : 100 ms
PM Voltage : 700 V
Shutter : On

Lambda Ex. Start : 203
Lambda Ex. End : 603
Lambda Ex. Step : 5
Ex. Slit : 5 nm

Lambda Em. Start : 200
Lambda Em. End : 600
Lambda Em. Step : 5
Em. Slit : 5 nm

Repetition : 1
Decal lambda em : 10
=============================================
DATA
Ex : 203
200 6.3481
205 3.28548
210 3.64555
215 4.86383
220 3.0145
225 4.28751
230 3.75318
235 2.51056
240 5.42328
245 5.06978
250 5.69142
255 6.25829
260 5.68977
265 4.40801
270 5.81884
275 8.86105
280 5.24649
285 4.83691
290 7.4185
295 2.84103
300 9.18534
305 2.4474
310 5.08602
315 4.8651
320 4.15637
325 4.50118
330 4.47301
335 5.0783
340 4.75143
345 5.70926
350 6.85312
355 3.98294
360 6.26604
365 3.88171
370 4.01001
375 2.55552
380 3.18574
385 2.67545
390 5.53536
395 10.5258
400 7.86515
405 4.80181
410 4.71921
415 4.02276
420 5.84685
425 4.22825
430 6.64714
435 3.40435
440 7.49386
445 8.34029
450 5.35664
455 6.81299
460 3.88269
465 7.18393
470 5.7063
475 3.8969
480 5.68335
485 4.75449
490 3.14211
495 3.42113
500 2.66334
505 7.64499
510 5.27145
515 3.13735
520 4.25078
525 6.02092
530 4.57164
535 3.722
540 9.35601
545 4.53665
550 7.24586
555 6.28138
560 6.94488
565 6.23503
570 4.70058
575 2.68365
580 5.14997
585 3.84481
590 5.56442
595 3.27421
600 0.372593
Ex : 208
200 4.25161
205 6.41779
210 4.04662
215 4.24042
220 3.20846
225 2.73968
230 2.30132
235 4.99025
240 7.84473
245 4.3932
250 2.6859
255 6.00267
260 4.12133
265 5.3236
270 5.20961
275 1.39413
280 3.98569
285 3.22931
290 2.33749
295 6.2537
300 3.85847
305 5.75058
310 2.92038
315 2.58975
320 1.26779
325 4.31564
330 3.91094
335 3.4193
340 3.59218
345 4.67547
350 4.0376
355 5.16095
360 4.50772
365 5.32878
370 5.25432
375 3.12207
380 5.48836
385 7.25559
390 1.98058
395 7.68057
400 6.0655
405 3.8002
410 3.05439
415 4.85868
420 4.57309
425 3.3294
430 6.75363
435 4.58646
440 2.5025
445 6.18302
450 4.83922
455 3.99283
460 5.45773
465 2.91687
470 5.52888
475 4.06591
480 5.59044
485 3.40483
490 7.29745
495 5.37362
500 4.38841
505 5.77145
510 4.21992
515 5.64774
520 4.55031
525 6.46395
530 4.63828
535 6.10804
540 5.9414
545 4.22699
550 4.69466
555 6.49765
560 6.41111
565 6.74172
570 4.53355
575 2.40364
580 5.05546
585 3.70616
590 4.26974
595 4.22763
600 6.01986
Ex : 213
200 2.69591
205 4.52652
210 3.26952
215 5.90771
220 2.68328
225 3.56013
230 5.71061
235 2.86536
240 3.65373
245 5.424
250 3.84856
255 6.10247
260 4.18171
265 4.10756
270 2.92283
275 3.76348
280 4.99427
285 3.53739
290 1.62866
295 2.18217
300 5.78257
305 8.23537
310 3.5778
315 4.23211
320 4.39099
325 2.42506
330 10.1989
335 6.69369
340 3.78335
345 4.79914
350 4.03948
355 3.81459
360 2.76776
365 3.31756
370 4.36262
375 5.19619
380 4.78442
385 5.24724
390 6.50903
395 3.49407
400 6.64997
405 4.38787
410 2.71194
415 1.92277
420 2.63906
425 5.09963
430 3.98058
435 3.54908
440 7.04182
445 4.46199
450 2.41526
455 6.05004
460 4.13272
465 2.25901
470 7.11383
475 4.60754
480 3.18917
485 4.61421
490 6.68742
495 7.48573
500 4.88407
505 8.93337
510 8.82625
515 5.04355
520 11.1662
525 3.47738
530 5.66944
535 2.99391
540 4.2959
545 4.03946
550 4.17741
555 3.15148
560 5.15939
565 4.0642
570 5.41789
575 6.54637
580 10.5847
585 5.84843
590 9.14539
595 6.09992
600 2.90966
Ex : 218
200 4.91772
205 3.36593
210 8.28083
215 4.93905
220 3.48706
225 4.97868
230 5.16035
235 3.9635
240 6.29519
245 4.10859
250 3.27585
255 3.8204
260 3.18871
265 4.51958
270 4.67947
275 5.73077
280 10.596
285 5.68963
290 3.98549
295 1.46313
300 5.48372
305 5.86444
310 4.85191
315 5.21511
320 5.81091
325 4.28173
330 3.74404
335 5.88996
340 5.68824
345 3.51042
350 2.22173
355 3.36902
360 5.42617
365 3.82615
370 3.16078
375 4.186
380 4.11412
385 5.15155
390 3.87039
395 4.4226
400 3.95835
405 3.72134
410 3.3573
415 4.48214
420 4.21742
425 7.81443
430 3.97667
435 3.30997
440 5.72229
445 1.98917
450 3.94957
455 1.9045
460 6.10234
465 6.76463
470 7.10675
475 9.30747
480 4.95488
485 7.66979
490 3.5204
495 4.12752
500 5.8272
505 4.23065
510 4.96784
515 5.70291
520 4.52341
525 5.61641
530 4.62704
535 6.51115
540 8.44659
545 6.47469
550 3.88711
555 2.72642
560 1.95366
565 5.38348
570 5.24529
575 3.62221
580 3.59119
585 6.11467
590 2.77438
595 3.77947
600 0.43009
Ex : 223
200 2.93865
205 4.0554
210 3.30161
215 2.91654
220 6.00913
225 3.89286
230 4.3143
235 8.22665
240 3.56002
245 1.32541
250 6.85167
255 4.75925
260 4.6292
265 6.60614
270 4.21766
275 6.4579
280 3.7457
285 4.26996
290 4.57109
295 5.02548
300 5.19983
305 4.18287
310 3.55891
315 3.45168
320 2.50306
325 4.72104
330 4.5908
335 5.98455
340 6.75933
345 7.53804
350 2.9486
355 4.07211
360 4.44862
365 6.90545
370 4.06244
375 4.27729
380 7.53442
385 5.19866
390 3.28921
395 6.78179
400 3.75858
405 6.14056
410 4.62123
415 2.33658
420 3.92218
425 2.30287
430 3.76606
435 4.58329
440 5.13673
445 6.24168
450 3.23428
455 2.49274
460 4.91874
465 6.21823
470 6.62856
475 7.32994
480 5.80283
485 3.66504
490 5.71356
495 2.78588
500 6.93878
505 3.47444
510 5.37963
515 10.8449
520 6.64164
525 5.55263
530 4.82813
535 5.4316
540 5.30807
545 5.1129
550 3.09886
555 6.40462
560 2.98359
565 3.86729
570 3.30917
575 4.07198
580 3.56237
585 3.36508
590 7.04068
595 5.72211
600 0.651154
Ex : 228
200 5.36111
205 6.04377
210 5.37421
215 4.77672
220 5.41242
225 4.59649
230 3.5722
235 1.93137
240 6.85816
245 4.32525
250 1.696
255 2.99744
260 9.2135
265 4.69553
270 6.32381
275 3.73488
280 3.48162
285 2.46855
290 4.87156
295 3.18822
300 2.72034
305 3.32052
310 3.09778
315 2.51818
320 2.91461
325 2.47375
330 2.21363
335 4.83062
340 4.15748
345 2.76292
350 2.46733
355 7.10909
360 5.1079
365 2.24973
370 2.33305
375 2.93993
380 5.0837
385 4.88991
390 5.0504
395 5.76932
400 4.90098
405 3.599
410 4.80429
415 3.3885
420 2.50105
425 4.48061
430 5.93722
435 3.65739
440 3.39052
445 9.3247
450 3.88086
455 7.23757
460 7.08611
465 6.93251
470 5.29904
475 4.14252
480 5.61571
485 3.84301
490 5.37474
495 4.12942
500 5.36098
505 2.16978
510 5.958
515 5.35993
520 3.42376
525 6.10124
530 4.48945
535 2.40669
540 2.97054
545 6.66966
550 2.85226
555 5.90719
560 4.44538
565 2.27297
570 1.85082
575 3.28686
580 3.5665
585 4.45932
590 3.83072
595 3.30428
600 6.57944
Ex : 233
200 1.99495
205 5.66597
210 2.35419
215 3.00204
220 3.11101
225 2.72376
230 3.57043
235 5.21907
240 6.4024
245 2.24643
250 4.39911
255 2.0191
260 2.76582
265 1.99899
270 3.53228
275 3.46206
280 1.76139
285 6.75254
290 4.24176
295 4.84147
300 2.53128
305 2.99717
310 3.07232
315 2.9989
320 2.93028
325 3.89219
330 2.71041
335 2.9859
340 3.7885
345 2.30539
350 4.08381
355 1.54558
360 2.51266
365 2.96381
370 4.94347
375 3.68374
380 3.95448
385 4.16339
390 7.51757
395 3.35861
400 6.96472
405 7.00108
410 4.80689
415 3.7135
420 5.34427
425 3.72432
430 4.99527
435 5.88566
440 3.45423
445 3.11678
450 8.22736
455 5.17461
460 5.96719
465 4.14329
470 3.01933
475 4.19254
480 5.39065
485 4.21181
490 4.46721
495 3.1229
500 2.93846
505 2.6023
510 2.45447
515 3.06169
520 3.78128
525 5.17931
530 2.16085
535 4.44059
540 4.21941
545 3.95463
550 4.07716
555 2.57352
560 2.73604
565 5.62396
570 6.96565
575 5.20916
580 2.87799
585 2.09499
590 2.30452
595 1.32931
600 0.15127
Ex : 238
200 5.13089
205 4.348
210 2.98048
215 2.62742
220 2.76018
225 1.91708
230 3.49544
235 1.42543
240 1.89627
245 2.84458
250 2.59355
255 2.00394
260 2.77283
265 2.39283
270 2.32548
275 2.98746
280 3.31692
285 4.67117
290 1.88536
295 4.73753
300 2.85427
305 2.99174
310 3.45037
315 1.88915
320 2.51499
325 4.26763
330 3.57406
335 4.73122
340 5.0888
345 6.87535
350 2.55062
355 3.9123
360 1.78501
365 4.06945
370 3.55399
375 3.02542
380 2.08432
385 2.58809
390 2.11591
395 2.34712
400 2.76834
405 2.39232
410 3.05529
415 4.02332
420 5.12682
425 3.97236
430 5.00902
435 3.25456
440 3.17131
445 3.07188
450 3.20704
455 2.73931
460 3.53048
465 4.35559
470 3.57228
475 3.22031
480 3.36812
485 1.7727
490 7.08337
495 6.21362
500 6.25977
505 5.31297
510 3.19281
515 5.05448
520 3.13842
525 2.85098
530 4.773
535 4.50913
540 2.2993
545 3.50971
550 3.58129
555 4.44658
560 5.06423
565 4.6406
570 3.95995
575 8.41421
580 1.97208
585 2.88727
590 6.71345
595 2.26824
600 0.258117
Ex : 243
200 4.25
205 4.14897
210 2.427
215 2.33921
220 2.70777
225 2.83181
230 3.10584
235 3.02303
240 3.89258
245 2.04263
250 3.7322
255 1.65235
260 3.47027
265 2.5933
270 2.97883
275 2.7982
280 2.90138
285 2.08014
290 2.77923
295 1.72735
300 5.82155
305 2.9268
310 1.58972
315 2.64962
320 2.81368
325 2.38421
330 2.58879
335 3.3179
340 3.25223
345 4.54477
350 4.60679
355 2.54387
360 7.38988
365 3.80514
370 3.15021
375 3.16354
380 2.00197
385 3.115
390 2.81097
395 2.67159
400 2.21367
405 1.98211
410 2.994
415 3.04855
420 3.64661
425 1.65412
430 2.03872
435 2.07115
440 2.21928
445 2.62374
450 3.11596
455 2.7643
460 4.33509
465 4.32063
470 4.60751
475 1.93296
480 2.88224
485 2.2481
490 4.10636
495 2.62694
500 3.65928
505 2.85256
510 3.05887
515 2.36021
520 4.6187
525 3.90104
530 3.39549
535 2.72275
540 2.1524
545 2.46987
550 3.06191
555 2.8048
560 2.08775
565 1.54527
570 6.32983
575 3.82966
580 1.94883
585 3.11359
590 3.30085
595 2.8787
600 0.327585
Ex : 248
200 4.4
205 1.99128
210 3.2641
215 3.40985
220 2.91432
225 2.88137
230 2.30862
235 2.82048
240 1.59926
245 2.09999
250 2.32563
255 3.82786
260 2.46259
265 2.50686
270 2.83155
275 3.34784
280 2.47972
285 0.926972
290 3.41843
295 3.42143
300 2.80627
305 1.5667
310 1.80144
315 1.73772
320 3.04901
325 3.27645
330 1.67627
335 2.96841
340 1.59664
345 2.4691
350 1.26146
355 1.49947
360 3.52024
365 2.62668
370 3.60823
375 3.58644
380 2.07444
385 2.36235
390 1.54785
395 4.09774
400 3.60378
405 3.93592
410 2.7571
415 2.95074
420 2.02883
425 1.24826
430 2.04422
435 2.57342
440 3.72528
445 3.76565
450 4.16709
455 3.88971
460 2.64425
465 3.99862
470 2.35269
475 5.5429
480 3.24748
485 2.36196
490 4.97295
495 3.33758
500 4.82042
505 3.17617
510 3.72771
515 3.12501
520 3.79042
525 2.30086
530 2.64272
535 3.22826
540 2.41501
545 2.25537
550 1.46073
555 2.35605
560 6.0949
565 2.63194
570 2.44303
575 3.77694
580 3.4466
585 2.55059
590 3.90013
595 2.13447
600 0.242895
Ex : 253
200 2.07735
205 1.74268
210 3.19538
215 2.39535
220 1.06892
225 0.678528
230 1.64052
235 3.28333
240 1.89958
245 2.37226
250 2.99365
255 1.78457
260 2.02974
265 1.0425
270 1.68841
275 2.55706
280 2.54039
285 1.2587
290 2.34677
295 1.40282
300 1.89351
305 1.93482
310 1.53559
315 1.15914
320 1.37758
325 0.998916
330 2.17902
335 1.14469
340 0.979229
345 1.06242
350 1.7222
355 2.5153
360 1.62192
365 3.33358
370 2.73478
375 2.37243
380 1.33393
385 2.49897
390 2.74191
395 2.36523
400 2.49571
405 1.42341
410 1.49371
415 3.90634
420 1.41885
425 2.01766
430 2.71988
435 2.51506
440 1.58143
445 3.23388
450 1.86716
455 1.87974
460 3.74135
465 2.80239
470 2.62455
475 2.20088
480 2.73331
485 2.73164
490 1.85711
495 1.36941
500 4.20487
505 2.75622
510 2.752
515 3.00954
520 2.49722
525 1.23697
530 2.83513
535 1.55044
540 1.92793
545 1.23956
550 1.08427
555 2.28614
560 1.69387
565 2.07404
570 4.22133
575 3.34289
580 2.16784
585 2.2002
590 2.40731
595 2.49198
600 9.01902
Ex : 258
200 0.331849
205 1.34077
210 1.5076
215 1.89207
220 1.61847
225 1.328
230 2.24597
235 1.61682
240 1.94447
245 1.74914
250 1.11384
255 1.2844
260 1.58078
265 1.80355
270 1.35932
275 1.18188
280 1.11149
285 1.47367
290 2.92781
295 1.83848
300 1.20543
305 1.11918
310 0.65702
315 2.42362
320 1.34089
325 1.50213
330 1.12239
335 1.27423
340 1.01668
345 1.73973
350 1.97658
355 1.9192
360 1.04376
365 0.716173
370 1.98602
375 2.39341
380 2.49306
385 3.54654
390 1.47336
395 1.61273
400 1.28877
405 2.16435
410 1.9163
415 1.42781
420 2.33977
425 1.65293
430 1.86513
435 1.77088
440 1.7708
445 2.42519
450 3.04213
455 1.57401
460 1.44201
465 2.21538
470 2.32774
475 1.93458
480 0.912744
485 0.84445
490 2.48017
495 1.53521
500 2.19765
505 1.29122
510 1.07695
515 1.40865
520 1.26091
525 2.71228
530 1.6275
535 1.87813
540 1.57938
545 1.30022
550 0.712815
555 1.71328
560 1.39202
565 2.05799
570 1.64074
575 2.123
580 1.38567
585 3.01752
590 0.709467
595 1.88677
600 8.43223
Ex : 263
200 1.61296
205 0.871585
210 0.786701
215 0.703049
220 1.25478
225 1.66912
230 0.80636
235 1.64106
240 1.1018
245 1.1097
250 1.40687
255 0.886291
260 1.71062
265 1.03505
270 1.05454
275 0.67971
280 0.990217
285 0.90978
290 1.2334
295 0.842454
300 1.54386
305 1.66966
310 1.33118
315 1.66297
320 2.0817
325 1.09817
330 1.55448
335 1.07239
340 1.63762
345 0.848263
350 1.34226
355 0.867275
360 1.9309
365 1.59207
370 2.49906
375 2.02033
380 1.19869
385 1.08994
390 2.19826
395 1.75121
400 1.71159
405 1.71488
410 2.23913
415 1.70096
420 1.31811
425 1.24118
430 1.33427
435 1.06148
440 1.78913
445 1.00041
450 1.39806
455 0.879831
460 1.26922
465 1.89196
470 0.882686
475 1.46015
480 1.37704
485 1.30236
490 1.43107
495 0.934606
500 1.95961
505 0.866362
510 0.861968
515 1.13507
520 1.71714
525 1.41099
530 1.98538
535 1.95411
540 0.785208
545 1.81784
550 0.96803
555 0.874879
560 1.65727
565 0.802839
570 0.63905
575 1.30426
580 1.26767
585 1.35372
590 1.04181
595 1.46596
600 0.388372
Ex : 268
200 0.654596
205 0.828995
210 0.788796
215 0.402756
220 0.677958
225 1.73553
230 1.54
235 0.625184
240 0.999489
245 0.816036
250 1.39114
255 0.877418
260 1.47742
265 1.07161
270 1.68994
275 1.82114
280 0.839
285 0.732745
290 0.301242
295 0.874624
300 0.561301
305 0.623905
310 1.67966
315 0.733687
320 1.20709
325 0.359856
330 0.710976
335 1.04461
340 0.598594
345 1.82069
350 1.71324
355 1.11334
360 0.63274
365 0.889376
370 1.10859
375 0.855108
380 0.944209
385 0.599235
390 0.60611
395 1.00889
400 1.23676
405 0.820703
410 1.17735
415 1.39502
420 0.87996
425 0.98634
430 1.1345
435 0.488008
440 1.10276
445 0.950875
450 1.25397
455 1.09546
460 0.715461
465 1.06026
470 1.38982
475 0.76316
480 1.45844
485 1.65533
490 1.59841
495 0.879672
500 0.845918
505 1.16943
510 1.04509
515 1.50694
520 0.906505
525 1.46176
530 1.06132
535 0.881464
540 1.71378
545 1.54002
550 0.5622
555 1.15411
560 0.746752
565 1.08975
570 1.11045
575 0.787283
580 0.923148
585 1.07875
590 0.69052
595 0.886915
600 1.03636
Ex : 273
200 0.682713
205 0.782648
210 1.09038
215 0.817546
220 0.768331
225 0.956823
230 0.658906
235 0.979332
240 0.950593
245 0.851506
250 1.03705
255 0.413076
260 0.743808
265 1.04986
270 0.325214
275 0.534317
280 0.623553
285 0.565747
290 0.507482
295 0.542861
300 0.932874
305 0.928989
310 0.707211
315 0.675927
320 1.1332
325 0.602806
330 0.784147
335 0.679369
340 0.451034
345 0.807697
350 0.781519
355 1.02277
360 1.16634
365 1.2814
370 1.48162
375 1.53864
380 1.03985
385 0.501852
390 0.946307
395 0.845856
400 0.643965
405 1.13213
410 0.683578
415 0.61796
420 0.707714
425 0.987326
430 0.731787
435 1.09749
440 0.979086
445 1.15829
450 0.68456
455 0.889424
460 1.09273
465 1.08948
470 1.03116
475 1.24143
480 1.28053
485 1.55883
490 0.74448
495 1.06431
500 1.17626
505 1.14295
510 0.524489
515 0.960926
520 1.19737
525 0.907214
530 0.895358
535 0.947495
540 0.547909
545 1.20514
550 1.03724
555 0.912216
560 0.526519
565 0.681566
570 0.402268
575 0.895588
580 0.516542
585 0.66817
590 0.696578
595 0.858173
600 0.983861
Ex : 278
200 1.61434
205 1.16032
210 0.654399
215 0.687433
220 1.10277
225 0.652575
230 0.783386
235 0.654401
240 0.594808
245 0.352127
250 0.535255
255 0.378805
260 0.575152
265 0.277298
270 0.331826
275 0.339152
280 0.477616
285 0.586879
290 0.395486
295 0.992661
300 0.512922
305 0.644564
310 0.400736
315 0.444995
320 0.546326
325 0.717961
330 0.518251
335 1.20228
340 0.797796
345 0.537902
350 0.941745
355 0.413177
360 0.91499
365 0.846267
370 1.10494
375 1.05044
380 0.347579
385 0.697346
390 0.893575
395 0.891023
400 0.509911
405 0.616187
410 0.772579
415 0.458392
420 0.673961
425 0.581814
430 1.09225
435 1.02182
440 0.70464
445 0.692589
450 1.00288
455 0.961762
460 0.70378
465 0.817241
470 0.870371
475 0.796452
480 0.616892
485 0.63182
490 0.871763
495 0.612353
500 0.505468
505 0.457373
510 1.09205
515 0.843298
520 0.719498
525 0.298824
530 0.89231
535 0.696156
540 0.623338
545 0.478652
550 0.461185
555 0.824076
560 0.543395
565 1.02263
570 0.504186
575 1.09508
580 0.459871
585 0.290368
590 0.416179
595 1.09381
600 0.124471
Ex : 283
200 0.51497
205 0.6944
210 0.538608
215 0.705743
220 0.402323
225 0.63747
230 0.429979
235 0.513901
240 0.351867
245 0.771861
250 0.619423
255 1.11518
260 0.604346
265 0.299548
270 0.726538
275 0.769267
280 0.431087
285 0.553438
290 0.235484
295 0.71695
300 0.480278
305 0.896947
310 0.777908
315 0.681562
320 0.292837
325 0.310345
330 0.287163
335 0.187327
340 0.602972
345 0.356015
350 0.434974
355 1.05234
360 0.981714
365 0.310727
370 0.625059
375 0.706508
380 0.591952
385 0.609645
390 0.796329
395 0.948321
400 1.04199
405 0.739912
410 0.79209
415 0.878321
420 0.568997
425 0.872328
430 0.933698
435 0.712425
440 0.578939
445 0.581941
450 0.532611
455 0.613065
460 0.592208
465 0.386821
470 0.70468
475 0.682568
480 0.401377
485 0.306795
490 0.675953
495 0.513953
500 0.438382
505 0.690659
510 0.512269
515 0.435801
520 0.525752
525 0.280876
530 0.790323
535 0.431757
540 0.56457
545 0.324502
550 0.419788
555 0.361885
560 0.813339
565 1.06383
570 0.512996
575 0.33121
580 0.263625
585 0.390455
590 0.529687
595 0.902004
600 0.46935
Ex : 288
200 0.365732
205 0.630922
210 0.390163
215 0.342419
220 0.29256
225 0.265566
230 0.415109
235 0.355434
240 0.552268
245 0.505948
250 0.490695
255 0.309751
260 0.330279
265 0.239924
270 0.376736
275 0.871847
280 0.710388
285 0.353389
290 0.452402
295 0.795826
300 0.230752
305 0.402769
310 0.57578
315 0.377808
320 0.263708
325 0.569727
330 0.419314
335 0.48584
340 0.653154
345 0.565984
350 0.729898
355 0.82119
360 0.463753
365 0.987315
370 0.439113
375 0.931166
380 0.584179
385 0.736385
390 0.75109
395 0.566058
400 0.674652
405 0.406873
410 0.552623
415 0.699448
420 0.397533
425 0.448978
430 0.697553
435 0.530038
440 0.598269
445 0.360706
450 0.504634
455 0.475017
460 0.620736
465 0.656433
470 0.328696
475 0.493563
480 0.764682
485 0.843938
490 0.60465
495 0.607775
500 0.568872
505 0.29074
510 0.611773
515 0.659301
520 0.463262
525 0.575778
530 0.727054
535 0.303733
540 0.715052
545 0.514712
550 0.29761
555 0.253191
560 0.598675
565 0.577915
570 0.860848
575 1.12223
580 0.576106
585 0.269557
590 0.429438
595 0.695964
600 0.0791981
Ex : 293
200 0.554268
205 0.523427
210 0.5311
215 0.206713
220 0.36513
225 0.550576
230 0.227862
235 0.465236
240 0.317298
245 0.646582
250 0.185249
255 0.339144
260 0.307426
265 0.557412
270 0.307114
275 0.17613
280 0.242072
285 0.519935
290 0.425289
295 0.333639
300 0.232255
305 0.379209
310 0.467948
315 0.172293
320 0.464128
325 0.466726
330 0.244178
335 0.492079
340 0.718049
345 0.373934
350 0.210495
355 0.364214
360 0.744986
365 0.401515
370 0.947559
375 0.367055
380 0.574351
385 0.562269
390 0.595989
395 0.564191
400 0.416606
405 0.445986
410 0.442044
415 0.640323
420 0.455718
425 0.71425
430 0.699038
435 0.796974
440 0.458881
445 0.561857
450 0.520916
455 0.539285
460 0.716859
465 0.611402
470 0.492212
475 0.312944
480 0.553876
485 0.605894
490 0.295674
495 0.463307
500 0.418162
505 0.728443
510 0.508499
515 0.263217
520 0.506587
525 0.552879
530 0.731514
535 0.579045
540 0.557967
545 0.679508
550 0.510211
555 0.263625
560 0.168245
565 0.697025
570 0.596153
575 0.268751
580 0.574653
585 0.531541
590 0.350976
595 0.298809
600 0.0340034
Ex : 298
200 0.338475
205 0.470142
210 0.392185
215 0.219543
220 0.307404
225 0.223683
230 0.342858
235 0.372882
240 0.404462
245 0.45309
250 0.419372
255 0.202901
260 0.172698
265 0.371307
270 0.218179
275 0.274486
280 0.321989
285 0.412619
290 0.495192
295 0.403376
300 0.426884
305 0.174769
310 0.120462
315 0.275749
320 0.338504
325 0.335288
330 0.35492
335 0.221555
340 0.486253
345 0.36744
350 0.351372
355 0.424806
360 0.598215
365 0.506701
370 0.415913
375 0.360179
380 0.611895
385 0.752695
390 0.417929
395 0.438531
400 0.654375
405 1.00954
410 0.716792
415 0.884176
420 0.566715
425 0.392
430 0.492488
435 0.394995
440 0.534254
445 0.455567
450 0.29372
455 0.370748
460 0.35722
465 0.363092
470 0.384126
475 0.468369
480 0.475595
485 0.386034
490 0.314965
495 0.405331
500 0.462291
505 0.495709
510 0.585167
515 0.319079
520 0.413963
525 0.391696
530 0.230927
535 0.268231
540 0.419848
545 0.247663
550 0.14999
555 0.223229
560 0.244797
565 0.466645
570 0.468727
575 0.204824
580 0.322283
585 0.666162
590 0.317462
595 0.708263
600 0.0805976
Ex : 303
200 0.0721324
205 0.22271
210 0.416535
215 0.31502
220 0.36844
225 0.580344
230 0.468893
235 0.217641
240 0.216054
245 0.413359
250 0.322841
255 0.386724
260 0.511137
265 0.360505
270 0.120307
275 0.44117
280 0.303657
285 0.47059
290 0.309385
295 0.159303
300 0.338958
305 0.351245
310 0.395019
315 0.254238
320 0.225667
325 0.215076
330 0.542026
335 0.398877
340 0.3759
345 0.340438
350 0.25781
355 0.282995
360 0.47707
365 0.374561
370 0.410898
375 0.473264
380 0.665936
385 0.580666
390 0.641295
395 0.558777
400 0.577194
405 0.563928
410 0.624941
415 0.670523
420 0.447479
425 0.606521
430 0.572261
435 0.428267
440 0.427428
445 0.427583
450 0.426499
455 0.601886
460 0.282428
465 0.420164
470 0.496407
475 0.280081
480 0.326573
485 0.532519
490 0.441212
495 0.335626
500 0.345241
505 0.415552
510 0.358026
515 0.279227
520 0.291653
525 0.475759
530 0.222324
535 0.358154
540 0.290233
545 0.229566
550 0.501596
555 0.332646
560 0.289229
565 0.310248
570 0.2573
575 0.186796
580 0.338697
585 0.265402
590 0.164731
595 0.478415
600 0.408923
Ex : 308
200 0.135953
205 0.260433
210 0.195488
215 0.168351
220 0.187103
225 0.198656
230 0.311795
235 0.206061
240 0.242738
245 0.181946
250 0.225452
255 0.286739
260 0.23983
265 0.206839
270 0.109822
275 0.19515
280 0.213886
285 0.257633
290 0.371518
295 0.315835
300 0.384535
305 0.533795
310 0.391324
315 0.25393
320 0.207244
325 0.2896
330 0.380272
335 0.694858
340 0.56285
345 0.368731
350 0.220068
355 0.361993
360 0.468216
365 0.36154
370 0.392285
375 0.351606
380 0.385181
385 0.39019
390 0.317884
395 0.594612
400 0.569753
405 0.660501
410 0.541213
415 0.540391
420 0.452793
425 0.515566
430 0.256891
435 0.408946
440 0.501087
445 0.567336
450 0.471979
455 0.419845
460 0.349983
465 0.39493
470 0.33182
475 0.287072
480 0.327653
485 0.276154
490 0.380592
495 0.267407
500 0.380402
505 0.364096
510 0.454397
515 0.20499
520 0.21369
525 0.272966
530 0.278048
535 0.396275
540 0.490844
545 0.24796
550 0.240793
555 0.24599
560 0.131378
565 0.27438
570 0.102095
575 0.224319
580 0.191477
585 0.305275
590 0.171701
595 0.162097
600 0.018446
Ex : 313
200 0.212985
205 0.277942
210 0.190255
215 0.0790009
220 0.283936
225 0.11675
230 0.109337
235 0.167305
240 0.132655
245 0.133364
250 0.266065
255 0.122262
260 0.285881
265 0.160834
270 0.175838
275 0.150302
280 0.0905282
285 0.164318
290 0.25032
295 0.227263
300 0.129578
305 0.410489
310 0.391557
315 0.149549
320 0.186415
325 0.275816
330 0.414817
335 0.33278
340 0.292948
345 0.302358
350 0.398223
355 0.496282
360 0.488618
365 0.364933
370 0.414026
375 0.445743
380 0.552583
385 0.689215
390 0.824993
395 0.523902
400 0.755068
405 0.707407
410 0.76851
415 0.727399
420 0.651411
425 0.504461
430 0.51786
435 0.7607
440 0.655392
445 0.570052
450 0.571426
455 0.627055
460 0.859633
465 0.594433
470 0.524716
475 0.374625
480 0.447026
485 0.319309
490 0.368493
495 0.301211
500 0.2787
505 0.330656
510 0.26231
515 0.294822
520 0.226509
525 0.197831
530 0.350432
535 0.241399
540 0.203519
545 0.188173
550 0.166473
555 0.241449
560 0.413812
565 0.18107
570 0.333799
575 0.502084
580 0.203658
585 0.274443
590 0.212836
595 0.247885
600 0.0282083
Ex : 318
200 0.212544
205 0.116128
210 0.113762
215 0.213226
220 0.185764
225 0.194228
230 0.16245
235 0.180901
240 0.377322
245 0.131702
250 0.16823
255 0.190288
260 0.261306
265 0.398527
270 0.211021
275 0.286948
280 0.123285
285 0.207976
290 0.0940921
295 0.287525
300 0.213376
305 0.18043
310 0.280643
315 0.799482
320 0.502473
325 0.212958
330 0.399584
335 0.497812
340 0.814456
345 1.34786
350 1.7387
355 2.05608
360 2.51445
365 3.07854
370 3.8792
375 4.4141
380 4.87246
385 6.45082
390 6.49644
395 6.74353
400 7.40365
405 8.05434
410 7.95887
415 7.37421
420 7.73295
425 7.30011
430 7.02623
435 6.34878
440 6.3746
445 5.77308
450 5.42503
455 5.54716
460 5.19421
465 4.64934
470 4.56164
475 3.8349
480 3.23553
485 2.96761
490 2.45402
495 2.56061
500 1.97874
505 1.46124
510 1.33485
515 1.13431
520 1.36772
525 0.857889
530 0.77488
535 0.818883
540 0.540247
545 0.471762
550 0.439179
555 0.393281
560 0.315032
565 0.267711
570 0.312384
575 0.21298
580 0.254011
585 0.230643
590 0.234793
595 0.306308
600 0.212097
Ex : 323
200 0.184406
205 0.0844074
210 0.163448
215 0.0669111
220 0.298173
225 0.22234
230 0.100484
235 0.09459
240 0.172958
245 0.126001
250 0.225565
255 0.175143
260 0.280228
265 0.195653
270 0.220634
275 0.137533
280 0.175865
285 0.128336
290 0.166194
295 0.144784
300 0.250317
305 0.256893
310 0.179676
315 5.27241
320 25.9122
325 11.3966
330 2.64696
335 2.57687
340 3.55002
345 5.28382
350 7.92418
355 10.4762
360 13.4623
365 16.2144
370 18.9669
375 21.7927
380 24.4573
385 28.2677
390 30.3109
395 31.7923
400 33.0537
405 34.4461
410 34.8626
415 34.7553
420 34.0353
425 32.3801
430 31.8027
435 30.6439
440 29.6656
445 28.4636
450 25.9555
455 25.1394
460 22.6285
465 21.6724
470 20.1269
475 18.2437
480 15.8311
485 14.2905
490 12.2409
495 11.1331
500 9.50141
505 8.30596
510 7.43101
515 6.7384
520 5.27959
525 4.80215
530 3.68119
535 3.44465
540 3.01431
545 2.45782
550 2.01429
555 1.4792
560 1.33358
565 0.899083
570 0.83912
575 0.731678
580 0.492823
585 0.414161
590 0.399073
595 0.303827
600 0.113543
Ex : 328
200 0.273625
205 0.119182
210 0.129062
215 0.148565
220 0.126054
225 0.20217
230 0.135592
235 0.167164
240 0.166691
245 0.129504
250 0.16771
255 0.234462
260 0.194955
265 0.146696
270 0.395208
275 0.127357
280 0.100435
285 0.275413
290 0.253658
295 0.0885727
300 0.18621
305 0.191946
310 0.108221
315 1.24991
320 64.7741
325 159.273
330 47.8613
335 8.93462
340 5.62124
345 7.0271
350 9.04483
355 12.6602
360 17.803
365 20.3786
370 22.6969
375 25.6239
380 29.5837
385 32.2615
390 36.1415
395 37.9448
400 38.9679
405 40.0454
410 40.7747
415 41.0419
420 40.8897
425 37.959
430 36.8214
435 35.593
440 35.0183
445 31.2458
450 30.4685
455 28.3592
460 26.0695
465 24.3766
470 22.98
475 20.4874
480 18.3805
485 16.5446
490 15.1199
495 12.95
500 11.3523
505 9.57332
510 8.39944
515 7.36942
520 6.42177
525 5.25983
530 4.73488
535 3.9616
540 3.43923
545 3.20891
550 2.48375
555 1.99689
560 1.68247
565 1.49877
570 1.00419
575 0.731849
580 0.579939
585 0.551051
590 0.498309
595 0.279942
600 0.539409
Ex : 333
200 0.121153
205 0.132495
210 0.0824568
215 0.0854082
220 0.115215
225 0.260266
230 0.14349
235 0.135034
240 0.117211
245 0.317573
250 0.144425
255 0.0933449
260 0.1107
265 0.207862
270 0.315239
275 0.182933
280 0.201472
285 0.169037
290 0.0669598
295 0.104192
300 0.117332
305 0.203553
310 0.173947
315 0.22927
320 8.92548
325 193.523
330 329.677
335 84.7161
340 13.2666
345 6.29926
350 6.05077
355 6.90136
360 9.9583
365 13.8261
370 15.2072
375 15.6702
380 17.2179
385 19.7617
390 21.7381
395 23.4887
400 23.7627
405 24.4132
410 25.0462
415 24.9958
420 24.5653
425 22.5051
430 22.3031
435 20.6016
440 20.1471
445 19.0247
450 17.4466
455 15.9597
460 14.8943
465 13.5649
470 12.7067
475 11.8152
480 10.3832
485 9.56132
490 8.46416
495 7.30254
500 6.08387
505 5.94352
510 4.86952
515 4.23902
520 3.62183
525 3.09511
530 2.82002
535 2.30106
540 1.94547
545 1.83604
550 1.6575
555 1.35099
560 1.35716
565 0.830313
570 0.669284
575 0.549733
580 0.405385
585 0.44048
590 0.505962
595 0.325843
600 0.0590517
Ex : 338
200 0.174343
205 0.17033
210 0.197097
215 0.119791
220 0.108712
225 0.172328
230 0.070015
235 0.081449
240 0.126056
245 0.201362
250 0.11524
255 0.258352
260 0.172081
265 0.134227
270 0.272712
275 0.11256
280 0.0912228
285 0.247599
290 0.207077
295 0.130787
300 0.181999
305 0.196186
310 0.121758
315 0.154047
320 0.296631
325 18.3041
330 286.908
335 416.853
340 102.96
345 14.6847
350 5.15179
355 4.14182
360 4.20665
365 6.03458
370 10.4824
375 10.6764
380 9.64751
385 10.8277
390 12.2713
395 14.3121
400 13.7033
405 14.0072
410 15.0689
415 15.5829
420 14.6766
425 13.6758
430 12.6093
435 12.2471
440 12.0984
445 11.431
450 10.1672
455 9.15381
460 8.41203
465 7.40097
470 6.78816
475 6.27161
480 6.06814
485 4.95229
490 4.69775
495 3.88967
500 3.56145
505 3.46817
510 2.89835
515 2.37699
520 2.23531
525 1.93458
530 1.66214
535 1.57406
540 1.11853
545 1.05233
550 1.08153
555 0.993697
560 0.815303
565 0.826503
570 0.486
575 0.425083
580 0.52836
585 0.438955
590 0.371005
595 0.464385
600 0.661284
Ex : 343
200 0.189863
205 0.181125
210 0.226877
215 0.140116
220 0.106914
225 0.219536
230 0.229692
235 0.0929374
240 0.0861482
245 0.246325
250 0.141736
255 0.138269
260 0.266115
265 0.109849
270 0.121494
275 0.259187
280 0.244354
285 0.110351
290 0.191352
295 0.119776
300 0.10212
305 0.121387
310 0.129909
315 0.210611
320 0.174286
325 0.30421
330 21.3288
335 329.316
340 473.931
345 115.536
350 15.4373
355 4.3965
360 2.94567
365 2.39981
370 3.28684
375 7.58683
380 9.12799
385 9.61574
390 10.7201
395 11.0084
400 10.7162
405 10.9382
410 11.8923
415 12.7798
420 12.1215
425 10.9659
430 10.6214
435 10.0079
440 9.76611
445 9.27645
450 7.89835
455 7.37425
460 6.9168
465 6.36087
470 6.27034
475 5.20059
480 4.58356
485 4.24648
490 3.94274
495 3.54272
500 3.17458
505 2.65131
510 2.44443
515 2.37218
520 2.05837
525 1.66206
530 1.70245
535 1.55573
540 1.19804
545 1.01477
550 0.948239
555 0.832159
560 0.726758
565 0.718826
570 0.448475
575 0.460241
580 0.38846
585 0.368555
590 0.342473
595 0.235539
600 0.0268035
Ex : 348
200 0.117647
205 0.13418
210 0.0987636
215 0.084639
220 0.0644252
225 0.0923952
230 0.0702568
235 0.0808662
240 0.0762095
245 0.048882
250 0.0757805
255 0.101178
260 0.128238
265 0.116852
270 0.192964
275 0.200281
280 0.159395
285 0.14174
290 0.216872
295 0.106598
300 0.126916
305 0.0756698
310 0.124041
315 0.0937534
320 0.153708
325 0.147026
330 0.530205
335 22.3526
340 336.446
345 498.836
350 128.07
355 16.7671
360 4.20218
365 2.52726
370 2.0074
375 2.30455
380 6.89219
385 11.9375
390 14.0517
395 13.6079
400 11.6288
405 12.2995
410 14.0597
415 14.9563
420 14.0821
425 12.3237
430 11.708
435 11.326
440 11.3303
445 10.1673
450 9.1185
455 8.42036
460 7.33512
465 7.05349
470 5.96859
475 5.72591
480 5.14473
485 4.96948
490 4.20457
495 3.76907
500 3.18274
505 2.93486
510 2.85174
515 2.2892
520 2.01488
525 1.57641
530 1.60863
535 1.25511
540 1.28563
545 1.05952
550 1.08493
555 0.865102
560 0.726228
565 0.684457
570 0.493354
575 0.465159
580 0.390579
585 0.309622
590 0.195326
595 0.247308
600 0.286848
Ex : 353
200 0.0619263
205 0.086863
210 0.0771527
215 0.0549602
220 0.122197
225 0.156659
230 0.190661
235 0.0913416
240 0.098711
245 0.0475718
250 0.062223
255 0.0864239
260 0.130504
265 0.13806
270 0.0836345
275 0.0733171
280 0.0971842
285 0.122581
290 0.178565
295 0.131998
300 0.0866671
305 0.173345
310 0.139348
315 0.14557
320 0.129169
325 0.156687
330 0.278722
335 0.653961
340 22.822
345 353.754
350 506.817
355 124.343
360 16.0093
365 3.76785
370 2.49086
375 1.92263
380 3.22418
385 9.02033
390 16.5197
395 16.7421
400 14.086
405 13.4726
410 15.0889
415 17.5055
420 16.7015
425 14.5004
430 12.8654
435 12.5246
440 12.6515
445 11.4037
450 9.89033
455 9.02101
460 7.99042
465 7.4945
470 6.71111
475 6.19499
480 5.33557
485 5.03892
490 4.31942
495 4.05637
500 3.48863
505 3.00131
510 2.64411
515 2.59686
520 1.94671
525 1.7421
530 1.61085
535 1.28531
540 1.22925
545 1.09273
550 1.09635
555 0.940377
560 0.800935
565 0.65344
570 0.660093
575 0.490834
580 0.337862
585 0.294036
590 0.288728
595 0.339337
600 0.535195
Ex : 358
200 0.0882915
205 0.132149
210 0.187592
215 0.0855305
220 0.101386
225 0.166041
230 0.0547958
235 0.108035
240 0.136584
245 0.0758988
250 0.080581
255 0.0861766
260 0.155811
265 0.100698
270 0.107415
275 0.103432
280 0.134209
285 0.0769903
290 0.162681
295 0.121216
300 0.123772
305 0.158834
310 0.15569
315 0.062782
320 0.0822464
325 0.160615
330 0.183982
335 0.419191
340 0.488477
345 21.3656
350 336.492
355 514.693
360 129.579
365 16.4435
370 3.64112
375 2.68269
380 3.22702
385 6.0409
390 11.6332
395 16.8325
400 14.873
405 13.8263
410 14.7898
415 15.822
420 14.8857
425 13.7977
430 12.0802
435 12.0616
440 11.2009
445 10.9436
450 9.94224
455 8.762
460 7.84248
465 7.35873
470 6.89015
475 6.25103
480 5.34926
485 5.10569
490 4.49341
495 3.99004
500 3.66404
505 3.66186
510 3.04266
515 2.59317
520 2.32922
525 2.08709
530 1.5175
535 1.40118
540 1.13676
545 1.25518
550 1.03074
555 0.880692
560 0.968542
565 0.681869
570 0.621416
575 0.539635
580 0.510405
585 0.302277
590 0.341901
595 0.170041
600 0.512212
Ex : 363
200 0.144653
205 0.113646
210 0.0515974
215 0.0586205
220 0.108921
225 0.105311
230 0.0577579
235 0.124563
240 0.100722
245 0.0467278
250 0.0468898
255 0.130006
260 0.0948958
265 0.101288
270 0.0944003
275 0.0980353
280 0.106744
285 0.0858822
290 0.116826
295 0.118915
300 0.0958247
305 0.106335
310 0.0751346
315 0.101504
320 0.105319
325 0.170527
330 0.156347
335 0.161387
340 0.2698
345 0.521651
350 20.5738
355 333.79
360 526.307
365 136.152
370 17.2478
375 4.08047
380 4.46577
385 7.82323
390 11.4134
395 13.4793
400 16.0269
405 17.0484
410 17.9918
415 18.169
420 15.9265
425 14.0153
430 12.744
435 13.0081
440 12.6667
445 11.659
450 10.6481
455 9.3185
460 8.50712
465 7.65803
470 7.21365
475 6.5536
480 6.18144
485 5.35994
490 4.61503
495 4.39921
500 4.0809
505 3.62811
510 3.38075
515 2.47014
520 2.5583
525 2.09832
530 1.64256
535 1.62975
540 1.49953
545 1.38761
550 1.21793
555 1.03951
560 0.879691
565 0.705566
570 0.61485
575 0.443625
580 0.502498
585 0.337377
590 0.321005
595 0.211086
600 0.125427
Ex : 368
200 0.0466327
205 0.0965059
210 0.122932
215 0.110637
220 0.0580237
225 0.122444
230 0.073861
235 0.0643239
240 0.106237
245 0.0862966
250 0.116415
255 0.130243
260 0.0877128
265 0.0538411
270 0.0833594
275 0.0718642
280 0.135767
285 0.0911547
290 0.113114
295 0.13391
300 0.114332
305 0.114806
310 0.0889909
315 0.0608374
320 0.117314
325 0.219945
330 0.121347
335 0.178171
340 0.193437
345 0.267762
350 0.554758
355 17.5588
360 332.609
365 545.586
370 145.098
375 18.5786
380 6.06688
385 9.42135
390 14.1954
395 15.8718
400 14.9789
405 19.197
410 23.3603
415 23.9071
420 20.9207
425 17.9383
430 15.8687
435 15.5295
440 15.3682
445 14.4844
450 12.9376
455 10.9108
460 9.88845
465 9.40207
470 8.6109
475 7.85796
480 7.27679
485 6.45403
490 5.36049
495 4.74228
500 4.20783
505 3.92846
510 3.60763
515 3.17939
520 2.52822
525 2.12493
530 1.95124
535 1.77968
540 1.62275
545 1.3729
550 1.11009
555 1.00385
560 0.92871
565 0.713502
570 0.735755
575 0.634417
580 0.438286
585 0.244576
590 0.285098
595 0.222493
600 0.414586
Ex : 373
200 0.0588174
205 0.165087
210 0.0663451
215 0.0575163
220 0.155641
225 0.138045
230 0.152926
235 0.0674646
240 0.0572949
245 0.0846897
250 0.107639
255 0.123048
260 0.103774
265 0.100058
270 0.0981285
275 0.131559
280 0.0939525
285 0.113962
290 0.0768742
295 0.103832
300 0.10533
305 0.0799052
310 0.0876398
315 0.0943067
320 0.116092
325 0.0885516
330 0.114662
335 0.198199
340 0.167783
345 0.238564
350 0.222849
355 0.495467
360 19.7533
365 331.533
370 533.544
375 141.726
380 19.49
385 8.85044
390 14.238
395 17.8182
400 16.226
405 15.0113
410 18.9725
415 25.3788
420 23.5778
425 19.2524
430 15.723
435 15.1157
440 14.8682
445 14.5304
450 13.0872
455 10.8869
460 9.75655
465 8.97996
470 8.41728
475 7.61836
480 6.72943
485 6.08291
490 5.30465
495 5.05327
500 4.58013
505 3.9166
510 3.45354
515 3.26256
520 2.7129
525 2.1503
530 1.9938
535 1.84958
540 1.81008
545 1.42748
550 1.22832
555 1.08972
560 0.953511
565 0.774328
570 0.585204
575 0.563828
580 0.428682
585 0.273735
590 0.248132
595 0.23169
600 0.352862
Ex : 378
200 0.0930806
205 0.074912
210 0.126785
215 0.0619658
220 0.0421792
225 0.070216
230 0.0650268
235 0.11367
240 0.145672
245 0.0594819
250 0.0603716
255 0.066633
260 0.0640382
265 0.127133
270 0.0932546
275 0.0939761
280 0.0776175
285 0.073815
290 0.0501886
295 0.069043
300 0.0388929
305 0.0649031
310 0.119632
315 0.0950986
320 0.0783733
325 0.0632263
330 0.106905
335 0.13518
340 0.171129
345 0.134916
350 0.19698
355 0.296237
360 0.531064
365 19.2365
370 341.044
375 554.712
380 148.343
385 22.7574
390 12.3308
395 13.1479
400 12.3315
405 11.7429
410 13.4378
415 16.9051
420 18.6396
425 16.1909
430 13.6349
435 12.5041
440 11.9798
445 11.3846
450 10.4897
455 8.97495
460 8.09164
465 7.96192
470 7.12289
475 6.4027
480 5.93689
485 5.4433
490 5.2109
495 4.43175
500 4.2144
505 3.49079
510 3.16622
515 2.97944
520 2.61477
525 2.40642
530 1.96338
535 1.85394
540 1.63679
545 1.39008
550 1.16211
555 0.92916
560 0.835654
565 0.787821
570 0.563289
575 0.465159
580 0.415555
585 0.335572
590 0.29478
595 0.240636
600 0.108959
Ex : 383
200 0.0928404
205 0.0605925
210 0.0726025
215 0.0929935
220 0.0794526
225 0.0875892
230 0.0990369
235 0.118709
240 0.0949127
245 0.0749891
250 0.0802738
255 0.111325
260 0.0911186
265 0.101895
270 0.0630903
275 0.0575836
280 0.148832
285 0.114818
290 0.0737555
295 0.104233
300 0.0537684
305 0.0960597
310 0.107245
315 0.0979902
320 0.0806423
325 0.110385
330 0.140731
335 0.137013
340 0.0944643
345 0.144345
350 0.112934
355 0.184545
360 0.302693
365 0.488631
370 17.9587
375 337.348
380 582.364
385 162.116
390 28.2556
395 12.8926
400 10.9888
405 11.8459
410 13.4527
415 14.7998
420 14.6843
425 15.1859
430 14.8035
435 13.4296
440 12.7542
445 11.4273
450 9.90935
455 8.84665
460 7.89904
465 7.69553
470 7.20806
475 6.53915
480 6.00752
485 5.48537
490 5.28985
495 4.35224
500 4.07269
505 3.64813
510 3.22574
515 2.7583
520 2.62461
525 2.34259
530 2.08397
535 1.74188
540 1.64081
545 1.50237
550 1.17823
555 0.896263
560 0.888699
565 0.741213
570 0.713892
575 0.457763
580 0.363893
585 0.307786
590 0.253854
595 0.21189
600 0.154229
Ex : 388
200 0.0861166
205 0.0405198
210 0.0541468
215 0.0636873
220 0.0598947
225 0.149431
230 0.0725455
235 0.0517292
240 0.0585044
245 0.107114
250 0.116106
255 0.072961
260 0.0733857
265 0.0419089
270 0.0643799
275 0.0714572
280 0.0720444
285 0.0328151
290 0.102831
295 0.071632
300 0.122956
305 0.0555758
310 0.117039
315 0.137857
320 0.0802508
325 0.0704823
330 0.0649298
335 0.0862651
340 0.0823656
345 0.16522
350 0.139956
355 0.120996
360 0.222931
365 0.39794
370 0.600303
375 19.4131
380 356.51
385 589.462
390 167.221
395 32.0324
400 15.2491
405 14.1824
410 17.1952
415 18.4442
420 17.5207
425 15.1778
430 16.0641
435 17.1303
440 15.4502
445 13.9675
450 12.0208
455 10.3235
460 9.15368
465 8.59051
470 8.00789
475 7.34554
480 6.38549
485 5.86876
490 5.33325
495 4.99677
500 4.31718
505 3.96465
510 3.6154
515 3.16154
520 2.76632
525 2.20491
530 2.13904
535 1.87135
540 1.69561
545 1.46012
550 1.20568
555 0.962229
560 0.861249
565 0.836104
570 0.619076
575 0.49592
580 0.369439
585 0.354433
590 0.319099
595 0.240883
600 0.308156
Ex : 393
200 0.0488285
205 0.0539421
210 0.102492
215 0.0543163
220 0.0576706
225 0.052248
230 0.0833206
235 0.0753248
240 0.0521077
245 0.0794987
250 0.0754967
255 0.0894613
260 0.103473
265 0.0775301
270 0.0995448
275 0.104419
280 0.0665447
285 0.0744544
290 0.0914321
295 0.0575994
300 0.057007
305 0.0589628
310 0.0977591
315 0.0936103
320 0.0988605
325 0.129141
330 0.0602591
335 0.132759
340 0.0967235
345 0.0874023
350 0.11363
355 0.149334
360 0.199849
365 0.191032
370 0.283117
375 0.553851
380 18.0694
385 353.419
390 612.716
395 176.635
400 33.4508
405 15.1312
410 15.4621
415 19.7565
420 19.3422
425 16.0241
430 13.3178
435 14.2551
440 16.5716
445 15.4888
450 12.9171
455 10.8807
460 8.92123
465 8.10012
470 7.77105
475 7.45409
480 6.53973
485 5.95813
490 5.33504
495 4.77447
500 4.28796
505 3.81002
510 3.48682
515 3.04873
520 2.68762
525 2.43077
530 1.83718
535 1.83347
540 1.42158
545 1.3687
550 1.31933
555 1.14612
560 0.967836
565 0.817102
570 0.697132
575 0.45012
580 0.346033
585 0.395689
590 0.212889
595 0.144981
600 0.0164983
Ex : 398
200 0.0768481
205 0.0631928
210 0.049374
215 0.0648877
220 0.0959755
225 0.110399
230 0.0480493
235 0.046808
240 0.0331045
245 0.0648797
250 0.0651381
255 0.076509
260 0.0431376
265 0.0676413
270 0.07051
275 0.0644487
280 0.0469239
285 0.0671306
290 0.054852
295 0.0935223
300 0.0672908
305 0.132713
310 0.0737917
315 0.121689
320 0.11167
325 0.0738977
330 0.0735241
335 0.106481
340 0.115204
345 0.1046
350 0.158566
355 0.140795
360 0.131849
365 0.168909
370 0.299465
375 0.31043
380 0.773287
385 19.229
390 363.942
395 623.93
400 174.122
405 27.338
410 11.3365
415 11.9914
420 12.2044
425 10.5556
430 8.6115
435 8.29313
440 9.53278
445 12.0004
450 10.7574
455 8.3773
460 7.02155
465 5.99125
470 5.75512
475 5.72771
480 5.18036
485 4.68002
490 4.39521
495 3.9111
500 3.55161
505 3.11979
510 2.98941
515 2.7778
520 2.48112
525 2.05431
530 1.90969
535 1.7581
540 1.48334
545 1.26287
550 1.05717
555 0.960501
560 0.88837
565 0.715596
570 0.575475
575 0.439797
580 0.430698
585 0.317845
590 0.304364
595 0.167996
600 0.173371
Ex : 403
200 0.0810038
205 0.0712361
210 0.0529038
215 0.0277182
220 0.0588342
225 0.0672815
230 0.0714437
235 0.0465346
240 0.0586416
245 0.0715583
250 0.0899308
255 0.0711525
260 0.051824
265 0.0510904
270 0.0434983
275 0.0539207
280 0.115526
285 0.0871431
290 0.106462
295 0.1149
300 0.154911
305 0.0776706
310 0.103828
315 0.0496366
320 0.0526836
325 0.0802986
330 0.108789
335 0.129079
340 0.15994
345 0.0938682
350 0.130294
355 0.124512
360 0.0698996
365 0.141844
370 0.141793
375 0.183179
380 0.334332
385 0.802855
390 22.0536
395 379.151
400 624.506
405 171.552
410 23.9425
415 7.59292
420 6.23561
425 5.7367
430 4.93437
435 4.74331
440 5.19513
445 5.8475
450 7.46243
455 7.57769
460 6.13833
465 5.16102
470 4.83276
475 4.34729
480 4.11169
485 3.80628
490 3.53489
495 3.24614
500 2.94848
505 2.79114
510 2.6069
515 2.2713
520 2.1891
525 1.8417
530 1.88564
535 1.48667
540 1.28401
545 1.29555
550 1.17322
555 0.895847
560 0.784072
565 0.698773
570 0.62954
575 0.405071
580 0.331827
585 0.281872
590 0.231719
595 0.242869
600 0.136152
Ex : 408
200 0.0697581
205 0.0972563
210 0.0745132
215 0.0564874
220 0.0482834
225 0.0595242
230 0.0953352
235 0.0770431
240 0.0660674
245 0.0560068
250 0.0788691
255 0.06519
260 0.0433554
265 0.0687091
270 0.0854087
275 0.0640077
280 0.123539
285 0.0880711
290 0.0427339
295 0.0560668
300 0.0945514
305 0.114079
310 0.107898
315 0.0958511
320 0.065745
325 0.070317
330 0.0573373
335 0.0827581
340 0.0936388
345 0.103701
350 0.137542
355 0.115167
360 0.103179
365 0.123594
370 0.133216
375 0.117795
380 0.222294
385 0.452617
390 0.869272
395 20.3807
400 394.45
405 659.394
410 174.875
415 24.0302
420 6.48731
425 4.41717
430 4.31415
435 4.37531
440 4.52462
445 4.64214
450 4.77863
455 6.07662
460 7.11671
465 5.57095
470 5.00218
475 4.66881
480 4.10853
485 3.733
490 3.46901
495 3.13938
500 2.92874
505 2.79581
510 2.49001
515 2.33964
520 2.08651
525 2.04106
530 1.765
535 1.50947
540 1.22029
545 1.31163
550 1.02672
555 0.95989
560 0.770297
565 0.635321
570 0.605406
575 0.398021
580 0.37111
585 0.328818
590 0.271426
595 0.215743
600 0.0245507
Ex : 413
200 0.109271
205 0.0680841
210 0.075245
215 0.053365
220 0.0591147
225 0.0649758
230 0.0467761
235 0.0622122
240 0.0877404
245 0.0901547
250 0.0944266
255 0.0832362
260 0.0658764
265 0.0506826
270 0.0690677
275 0.0592348
280 0.0418407
285 0.053083
290 0.0921489
295 0.0811602
300 0.062973
305 0.0883808
310 0.082061
315 0.0877085
320 0.0729003
325 0.0648334
330 0.0744287
335 0.0772514
340 0.0827594
345 0.0550793
350 0.0911194
355 0.0992452
360 0.0842635
365 0.0967053
370 0.123104
375 0.116315
380 0.190491
385 0.186276
390 0.406695
395 0.742014
400 23.3474
405 420.108
410 680.231
415 177.272
420 24.042
425 5.87896
430 4.02269
435 4.17335
440 4.35349
445 4.08104
450 4.05244
455 3.9218
460 4.85161
465 6.94072
470 5.63349
475 4.62966
480 4.25245
485 3.39297
490 3.25234
495 3.0114
500 2.79492
505 2.49363
510 2.37179
515 2.20071
520 2.04872
525 1.8573
530 1.59382
535 1.52469
540 1.3799
545 1.13049
550 0.963222
555 0.88379
560 0.818814
565 0.702736
570 0.57467
575 0.413608
580 0.314015
585 0.218488
590 0.226389
595 0.145074
600 0.0341156
Ex : 418
200 0.0705505
205 0.0918709
210 0.0586124
215 0.109932
220 0.0450837
225 0.0568606
230 0.0632012
235 0.0907351
240 0.078815
245 0.0639717
250 0.0676263
255 0.0612624
260 0.0409994
265 0.0633187
270 0.0581439
275 0.0749909
280 0.0373179
285 0.0873129
290 0.0437995
295 0.0453719
300 0.0721763
305 0.0890263
310 0.0388631
315 0.058032
320 0.0530989
325 0.0748202
330 0.111359
335 0.113748
340 0.0523858
345 0.0994599
350 0.0779841
355 0.169804
360 0.0891886
365 0.124771
370 0.102398
375 0.121554
380 0.124792
385 0.13962
390 0.262244
395 0.425547
400 0.838399
405 23.3434
410 429.183
415 695.347
420 185.993
425 24.0013
430 5.28038
435 2.99783
440 2.96439
445 3.11135
450 2.68465
455 2.51201
460 2.75705
465 3.28043
470 5.14997
475 5.0737
480 3.97603
485 3.35597
490 3.09366
495 2.5798
500 2.43891
505 2.33501
510 2.06035
515 1.88116
520 1.7484
525 1.64734
530 1.61215
535 1.35193
540 1.2982
545 0.992964
550 0.998565
555 0.8492
560 0.804206
565 0.573549
570 0.508648
575 0.370139
580 0.301811
585 0.278396
590 0.221381
595 0.220329
600 0.0250726
Ex : 423
200 0.0964708
205 0.0415535
210 0.0653326
215 0.0504812
220 0.0690895
225 0.0800022
230 0.0550129
235 0.0515874
240 0.0807295
245 0.0997365
250 0.0521924
255 0.0479155
260 0.0564621
265 0.0726161
270 0.0632433
275 0.0683239
280 0.119741
285 0.101622
290 0.114886
295 0.0509891
300 0.0901001
305 0.109948
310 0.0861944
315 0.0938224
320 0.0407257
325 0.0485939
330 0.0928605
335 0.0833811
340 0.184379
345 0.0882662
350 0.0929579
355 0.0608603
360 0.0989537
365 0.0801513
370 0.091836
375 0.113165
380 0.177204
385 0.147473
390 0.157796
395 0.269125
400 0.388441
405 0.819971
410 23.7234
415 447.898
420 703.668
425 178.945
430 22.4011
435 4.0944
440 2.14292
445 2.15716
450 2.07848
455 1.75234
460 1.71518
465 1.77379
470 2.18112
475 3.96113
480 4.70099
485 3.49649
490 2.78408
495 2.47078
500 2.13106
505 1.99481
510 1.76019
515 1.70019
520 1.56936
525 1.46322
530 1.32734
535 1.19315
540 1.26639
545 1.13482
550 0.937288
555 0.805392
560 0.720286
565 0.581961
570 0.544813
575 0.388757
580 0.297015
585 0.265689
590 0.300786
595 0.236335
600 0.0530443
Ex : 428
200 0.0386416
205 0.105028
210 0.0532561
215 0.0626522
220 0.0706778
225 0.0857553
230 0.0417023
235 0.115583
240 0.13741
245 0.0605347
250 0.0918835
255 0.0592489
260 0.0762637
265 0.0948402
270 0.0550849
275 0.0464892
280 0.0804043
285 0.101368
290 0.0818499
295 0.0624765
300 0.0548321
305 0.0423681
310 0.0313891
315 0.074616
320 0.120936
325 0.0698689
330 0.0490487
335 0.0494964
340 0.143835
345 0.0910277
350 0.077094
355 0.053778
360 0.11114
365 0.115347
370 0.0816984
375 0.0979386
380 0.120551
385 0.161879
390 0.151674
395 0.225882
400 0.195695
405 0.340699
410 0.798838
415 26.6186
420 457.402
425 728.812
430 191.698
435 23.7096
440 4.08902
445 1.76601
450 1.7574
455 1.77346
460 1.67461
465 1.41475
470 1.41418
475 1.69826
480 2.90172
485 4.52286
490 3.50252
495 2.5865
500 2.31853
505 1.97837
510 1.59393
515 1.50987
520 1.46157
525 1.29442
530 1.26566
535 1.12533
540 1.08208
545 1.02862
550 0.869405
555 0.718357
560 0.762086
565 0.602902
570 0.534662
575 0.421497
580 0.312147
585 0.289115
590 0.227572
595 0.235172
600 0.112428
Ex : 433
200 0.132008
205 0.0881251
210 0.0644279
215 0.033694
220 0.0591061
225 0.0659915
230 0.0851327
235 0.032947
240 0.0372743
245 0.0791402
250 0.0624794
255 0.083367
260 0.0622583
265 0.0547363
270 0.0614335
275 0.0775729
280 0.0846699
285 0.0598284
290 0.0520242
295 0.136862
300 0.0869895
305 0.0711344
310 0.068451
315 0.0817657
320 0.0975124
325 0.0961681
330 0.115766
335 0.0782823
340 0.0584841
345 0.0783576
350 0.0959566
355 0.10359
360 0.0819368
365 0.109806
370 0.0938976
375 0.115205
380 0.10429
385 0.158378
390 0.158145
395 0.192394
400 0.205388
405 0.296495
410 0.444451
415 0.913111
420 29.1893
425 500.082
430 768.41
435 192.702
440 23.5996
445 4.03561
450 1.68163
455 1.83827
460 1.72431
465 1.58351
470 1.3507
475 1.30282
480 1.52909
485 2.40969
490 4.32267
495 3.67617
500 2.38825
505 2.31511
510 1.83926
515 1.45254
520 1.48712
525 1.29347
530 1.21733
535 1.08301
540 1.03913
545 0.969899
550 0.93129
555 0.756862
560 0.629396
565 0.515546
570 0.544486
575 0.442223
580 0.297234
585 0.28454
590 0.211426
595 0.159634
600 0.0584478
Ex : 438
200 0.068162
205 0.0785821
210 0.10024
215 0.0998295
220 0.0868043
225 0.0567663
230 0.07674
235 0.0704153
240 0.0475675
245 0.0470548
250 0.0974728
255 0.117044
260 0.0751489
265 0.0703732
270 0.0707013
275 0.0708613
280 0.0639885
285 0.077193
290 0.0955504
295 0.0670356
300 0.0681853
305 0.0772834
310 0.102012
315 0.0791383
320 0.0861592
325 0.0800334
330 0.0897686
335 0.0382842
340 0.0587189
345 0.0946879
350 0.117337
355 0.102922
360 0.0920635
365 0.0959382
370 0.125403
375 0.0833954
380 0.0908345
385 0.133275
390 0.149612
395 0.151958
400 0.165543
405 0.188015
410 0.281036
415 0.393913
420 0.753208
425 29.2995
430 514.021
435 821.395
440 208.006
445 25.5452
450 4.36426
455 1.83663
460 1.67693
465 1.82212
470 1.51167
475 1.23366
480 1.3512
485 1.52398
490 1.85672
495 3.4537
500 3.63023
505 2.62596
510 2.04575
515 1.79467
520 1.39529
525 1.21159
530 1.1344
535 1.00329
540 1.12709
545 0.943577
550 0.836701
555 0.771525
560 0.653508
565 0.61444
570 0.609977
575 0.519734
580 0.365116
585 0.296577
590 0.21048
595 0.199317
600 0.198138
Ex : 443
200 0.0538645
205 0.0732521
210 0.0454569
215 0.0657156
220 0.119203
225 0.0659587
230 0.0481989
235 0.0820677
240 0.0631582
245 0.0478668
250 0.0801107
255 0.075966
260 0.0431906
265 0.10033
270 0.0661229
275 0.0588976
280 0.093981
285 0.0634992
290 0.0785938
295 0.0897282
300 0.0788099
305 0.0881824
310 0.0716281
315 0.107922
320 0.105738
325 0.0667736
330 0.045924
335 0.0726699
340 0.081116
345 0.0503749
350 0.0717916
355 0.0728732
360 0.153187
365 0.0890811
370 0.0926227
375 0.0705565
380 0.0734698
385 0.0910549
390 0.167666
395 0.138974
400 0.131453
405 0.116152
410 0.218285
415 0.354324
420 0.488714
425 0.898931
430 33.886
435 563.763
440 871.433
445 216.284
450 26.4867
455 4.56584
460 1.89371
465 1.63918
470 1.73372
475 1.5608
480 1.33233
485 1.17793
490 1.27222
495 1.51782
500 2.79222
505 3.83926
510 2.71567
515 1.99264
520 1.86131
525 1.51156
530 1.25007
535 1.0752
540 0.928699
545 0.826369
550 0.85268
555 0.760238
560 0.709471
565 0.528813
570 0.412894
575 0.368128
580 0.422621
585 0.241645
590 0.243319
595 0.173203
600 0.0940558
Ex : 448
200 0.0520651
205 0.0592575
210 0.0583247
215 0.0513173
220 0.0663627
225 0.0770244
230 0.0729786
235 0.0782198
240 0.0730838
245 0.0756359
250 0.0612317
255 0.0394656
260 0.106942
265 0.118312
270 0.0724342
275 0.092395
280 0.080472
285 0.0828128
290 0.103483
295 0.0814838
300 0.0673948
305 0.0622224
310 0.0674134
315 0.0767735
320 0.103913
325 0.110901
330 0.071128
335 0.109728
340 0.0553069
345 0.0842677
350 0.102006
355 0.0629006
360 0.0561261
365 0.0720658
370 0.100643
375 0.0933594
380 0.0981143
385 0.0992314
390 0.117083
395 0.125621
400 0.113457
405 0.187379
410 0.141431
415 0.253425
420 0.384609
425 0.535358
430 0.766845
435 34.7961
440 610.604
445 934.991
450 232.089
455 28.2706
460 4.77597
465 1.93446
470 1.59591
475 1.68345
480 1.35661
485 1.35345
490 1.13365
495 1.24359
500 1.31161
505 2.24096
510 3.40914
515 2.68965
520 1.86294
525 1.59985
530 1.35981
535 1.12903
540 1.00722
545 0.962129
550 0.896078
555 0.754966
560 0.638497
565 0.638935
570 0.514244
575 0.377692
580 0.297748
585 0.311733
590 0.237377
595 0.160336
600 0.107162
Ex : 453
200 0.0522846
205 0.0944357
210 0.0848773
215 0.0804881
220 0.103675
225 0.100398
230 0.10394
235 0.0737669
240 0.070772
245 0.0707003
250 0.0874792
255 0.0539802
260 0.0945965
265 0.0727909
270 0.0808667
275 0.083719
280 0.122838
285 0.0708992
290 0.0563664
295 0.101097
300 0.0631997
305 0.0807516
310 0.0654647
315 0.0564412
320 0.0951363
325 0.076004
330 0.0530202
335 0.127498
340 0.105495
345 0.107317
350 0.0482678
355 0.0717141
360 0.0376135
365 0.0814231
370 0.0534146
375 0.103545
380 0.0930652
385 0.120267
390 0.136257
395 0.12655
400 0.139451
405 0.123322
410 0.143751
415 0.125719
420 0.247723
425 0.295525
430 0.542459
435 0.985377
440 37.4748
445 660.281
450 964.194
455 228.775
460 28.1038
465 4.76755
470 1.73334
475 1.55253
480 1.70796
485 1.46956
490 1.14476
495 1.11351
500 1.11411
505 1.09822
510 1.67974
515 2.99614
520 3.07029
525 1.86766
530 1.75582
535 1.46251
540 1.11304
545 0.910267
550 0.850762
555 0.754281
560 0.677823
565 0.630919
570 0.576515
575 0.443148
580 0.34726
585 0.311839
590 0.236108
595 0.207319
600 0.458334
Ex : 458
200 0.0935341
205 0.0874675
210 0.0591446
215 0.072473
220 0.0983011
225 0.0564957
230 0.0643273
235 0.0763759
240 0.0909722
245 0.0517131
250 0.0758775
255 0.044044
260 0.0418363
265 0.0460731
270 0.0687264
275 0.058651
280 0.0847257
285 0.0863155
290 0.111049
295 0.0569995
300 0.109328
305 0.0966863
310 0.0457106
315 0.0474811
320 0.0765363
325 0.0797595
330 0.0678608
335 0.110271
340 0.0633859
345 0.0611694
350 0.0949621
355 0.0887733
360 0.0876805
365 0.053387
370 0.0770386
375 0.097958
380 0.117431
385 0.114305
390 0.0957843
395 0.0991453
400 0.142317
405 0.133862
410 0.156012
415 0.193365
420 0.235424
425 0.267519
430 0.386727
435 0.457574
440 0.972404
445 43.8152
450 712.143
455 1106.72
460 272.092
465 33.3876
470 5.41481
475 1.99934
480 1.56845
485 1.66094
490 1.48638
495 1.13109
500 1.03597
505 1.00034
510 1.06592
515 1.28005
520 2.21093
525 3.2554
530 2.31226
535 1.61136
540 1.43474
545 1.16426
550 0.993017
555 0.798703
560 0.695753
565 0.70329
570 0.583458
575 0.493619
580 0.41535
585 0.328219
590 0.205087
595 0.226049
600 0.264538
Ex : 463
200 0.109238
205 0.0879951
210 0.101908
215 0.101605
220 0.0821923
225 0.0800633
230 0.0558456
235 0.0869484
240 0.0814741
245 0.0540693
250 0.0505728
255 0.0800092
260 0.0846755
265 0.0467067
270 0.0749333
275 0.0748739
280 0.0768343
285 0.0556483
290 0.0803235
295 0.0578423
300 0.0921485
305 0.0616492
310 0.0376011
315 0.0941008
320 0.0587129
325 0.0912492
330 0.115368
335 0.0897524
340 0.0928025
345 0.0729949
350 0.101571
355 0.0710408
360 0.131846
365 0.075357
370 0.0908587
375 0.0942044
380 0.134839
385 0.0640724
390 0.0962106
395 0.138123
400 0.10306
405 0.141128
410 0.121738
415 0.181519
420 0.15691
425 0.219286
430 0.260296
435 0.297979
440 0.519871
445 1.034
450 42.6155
455 738.595
460 1136.52
465 276.974
470 33.8335
475 5.37581
480 1.8967
485 1.44438
490 1.58925
495 1.48699
500 1.21199
505 0.993157
510 1.07282
515 1.03312
520 1.15541
525 1.91087
530 3.12319
535 2.51474
540 1.58771
545 1.40831
550 1.2781
555 0.862617
560 0.758934
565 0.638408
570 0.624929
575 0.501638
580 0.414469
585 0.343949
590 0.29389
595 0.208384
600 0.0237133
Ex : 468
200 0.058972
205 0.0566337
210 0.0844185
215 0.0829968
220 0.1159
225 0.0606249
230 0.0729339
235 0.070995
240 0.0381385
245 0.0630602
250 0.0790805
255 0.0536967
260 0.0675076
265 0.065545
270 0.068826
275 0.0892022
280 0.0575735
285 0.0479425
290 0.0584077
295 0.0787727
300 0.0682105
305 0.08017
310 0.126621
315 0.0733063
320 0.0490074
325 0.0672746
330 0.0565134
335 0.109754
340 0.0607072
345 0.0658294
350 0.0840738
355 0.0865353
360 0.0657199
365 0.0825018
370 0.0642577
375 0.0764899
380 0.091479
385 0.104529
390 0.12875
395 0.0893927
400 0.118997
405 0.10426
410 0.141978
415 0.152594
420 0.197329
425 0.16579
430 0.195183
435 0.264362
440 0.378374
445 0.539908
450 0.990925
455 47.8418
460 776.772
465 1224.36
470 296.678
475 35.7767
480 5.59942
485 1.99134
490 1.47809
495 1.47961
500 1.49643
505 1.21981
510 1.04186
515 1.10299
520 1.16206
525 1.24985
530 1.628
535 2.76894
540 2.73229
545 1.64824
550 1.33599
555 1.22026
560 1.06372
565 0.685091
570 0.608477
575 0.489377
580 0.402454
585 0.333242
590 0.272485
595 0.204431
600 0.266488
Ex : 473
200 0.0432065
205 0.133713
210 0.0695738
215 0.125749
220 0.113894
225 0.101062
230 0.0626527
235 0.0824919
240 0.061535
245 0.083038
250 0.086931
255 0.127819
260 0.112656
265 0.0725867
270 0.0954861
275 0.112733
280 0.0837643
285 0.0939558
290 0.0865837
295 0.0800454
300 0.10907
305 0.0665731
310 0.0533347
315 0.0861435
320 0.0631032
325 0.0688549
330 0.0792387
335 0.118725
340 0.0684173
345 0.0938982
350 0.13482
355 0.106523
360 0.119379
365 0.113794
370 0.135381
375 0.0672553
380 0.110565
385 0.146187
390 0.10552
395 0.103372
400 0.11211
405 0.130361
410 0.107913
415 0.134642
420 0.134625
425 0.152256
430 0.198553
435 0.192254
440 0.249685
445 0.408938
450 0.731676
455 1.20641
460 55.8648
465 856.944
470 1213.15
475 283.697
480 34.4797
485 5.46178
490 1.85031
495 1.3269
500 1.45453
505 1.38741
510 1.26885
515 1.13637
520 1.04829
525 1.15032
530 1.08259
535 1.31834
540 2.22099
545 2.75789
550 1.86469
555 1.2695
560 1.0887
565 0.86862
570 0.654766
575 0.522266
580 0.426173
585 0.298848
590 0.2774
595 0.243415
600 0.115036
Ex : 478
200 0.073763
205 0.0683139
210 0.0788072
215 0.0883395
220 0.0725724
225 0.0803281
230 0.0899373
235 0.0822684
240 0.0869817
245 0.0556215
250 0.0868256
255 0.0788878
260 0.0564842
265 0.0893582
270 0.0973826
275 0.106944
280 0.0822549
285 0.0412226
290 0.0970935
295 0.0664506
300 0.0912323
305 0.057036
310 0.0702147
315 0.123466
320 0.129178
325 0.192344
330 0.122873
335 0.119835
340 0.118176
345 0.101709
350 0.0973599
355 0.0723149
360 0.0978628
365 0.106233
370 0.131101
375 0.126447
380 0.107181
385 0.111459
390 0.100397
395 0.107788
400 0.104447
405 0.0931055
410 0.112209
415 0.173329
420 0.145549
425 0.18109
430 0.297117
435 0.281683
440 0.315499
445 0.294592
450 0.434745
455 0.856426
460 1.40494
465 64.1742
470 922.922
475 1268.66
480 307.139
485 37.1845
490 5.53079
495 1.77902
500 1.12626
505 1.2469
510 1.39908
515 1.12847
520 1.13117
525 1.00981
530 0.991098
535 1.15168
540 1.06145
545 1.61985
550 2.33277
555 1.97953
560 1.23596
565 0.908844
570 0.767237
575 0.56096
580 0.479433
585 0.37541
590 0.312722
595 0.299202
600 0.284565
Ex : 483
200 0.085409
205 0.126098
210 0.0683206
215 0.0786473
220 0.0500825
225 0.101098
230 0.109963
235 0.0679426
240 0.143809
245 0.126725
250 0.103167
255 0.083252
260 0.0741725
265 0.0764455
270 0.064332
275 0.0808263
280 0.119146
285 0.128325
290 0.195599
295 0.0823752
300 0.0676457
305 0.120633
310 0.13143
315 0.0839563
320 0.151993
325 0.114931
330 0.122926
335 0.065245
340 0.0755713
345 0.12525
350 0.0892611
355 0.11031
360 0.0883945
365 0.0849505
370 0.0992227
375 0.0766675
380 0.133214
385 0.119935
390 0.174595
395 0.119929
400 0.170062
405 0.168295
410 0.139748
415 0.139032
420 0.177338
425 0.164147
430 0.151472
435 0.217369
440 0.252013
445 0.312927
450 0.312063
455 0.490719
460 0.797957
465 1.64533
470 51.4229
475 921.97
480 1402.73
485 334.878
490 40.3999
495 6.1284
500 1.89499
505 1.14493
510 1.13144
515 1.39739
520 1.29004
525 1.11793
530 1.10179
535 1.15158
540 0.959506
545 1.02116
550 1.26691
555 2.09016
560 2.20393
565 1.29147
570 0.829812
575 0.715794
580 0.574298
585 0.363633
590 0.288688
595 0.274804
600 0.108199
Ex : 488
200 0.122936
205 0.0657465
210 0.0890108
215 0.108743
220 0.0912316
225 0.0719113
230 0.0773555
235 0.0558614
240 0.0681945
245 0.0908954
250 0.0677336
255 0.0559083
260 0.0657511
265 0.0988687
270 0.101478
275 0.18036
280 0.102431
285 0.0664454
290 0.084078
295 0.125995
300 0.0890375
305 0.0821911
310 0.0771781
315 0.0830299
320 0.120244
325 0.087043
330 0.105944
335 0.0656961
340 0.102895
345 0.140302
350 0.130782
355 0.126341
360 0.0886133
365 0.105673
370 0.124333
375 0.131489
380 0.163953
385 0.164118
390 0.150478
395 0.0891643
400 0.102658
405 0.156332
410 0.180961
415 0.168526
420 0.116148
425 0.142987
430 0.198869
435 0.168861
440 0.198758
445 0.343427
450 0.290324
455 0.430349
460 0.56683
465 0.958297
470 1.61945
475 63.3899
480 991.319
485 1394.22
490 331.279
495 39.8611
500 6.01821
505 1.82141
510 1.28801
515 1.15571
520 1.55496
525 1.45452
530 1.05156
535 1.04732
540 1.05607
545 0.963643
550 0.803648
555 0.912509
560 1.58106
565 1.9696
570 1.23064
575 0.771929
580 0.609201
585 0.517638
590 0.368823
595 0.291177
600 0.109095
Ex : 493
200 0.157189
205 0.184464
210 0.144693
215 0.0792325
220 0.116257
225 0.115397
230 0.121843
235 0.0880786
240 0.0756409
245 0.154184
250 0.0897018
255 0.105682
260 0.113681
265 0.0421325
270 0.0702541
275 0.144433
280 0.0653432
285 0.0682837
290 0.118586
295 0.073762
300 0.122076
305 0.147371
310 0.130394
315 0.0926549
320 0.142845
325 0.108978
330 0.0909205
335 0.092799
340 0.0881111
345 0.103438
350 0.0833874
355 0.0766906
360 0.138056
365 0.118517
370 0.120552
375 0.102998
380 0.134316
385 0.103897
390 0.141043
395 0.128082
400 0.104033
405 0.141917
410 0.132892
415 0.163533
420 0.202879
425 0.132956
430 0.194911
435 0.151898
440 0.147477
445 0.21487
450 0.234019
455 0.322489
460 0.397696
465 0.628789
470 0.973551
475 1.49481
480 60.2924
485 1027.63
490 1544.55
495 359.583
500 42.8908
505 6.4874
510 1.98112
515 1.19788
520 1.1334
525 1.37353
530 1.2818
535 1.08286
540 0.957057
545 0.893187
550 0.846503
555 0.746541
560 0.814413
565 1.01369
570 1.8115
575 1.40782
580 0.721159
585 0.509059
590 0.445131
595 0.435691
600 0.139872
Ex : 498
200 0.0841717
205 0.127804
210 0.0801818
215 0.166977
220 0.138569
225 0.0900394
230 0.107197
235 0.101353
240 0.0947999
245 0.127842
250 0.12968
255 0.134562
260 0.0961446
265 0.0976503
270 0.0695014
275 0.0474122
280 0.109953
285 0.131023
290 0.102487
295 0.12114
300 0.0982487
305 0.142144
310 0.109835
315 0.0868612
320 0.0677999
325 0.0815436
330 0.0926583
335 0.08078
340 0.0762901
345 0.0881521
350 0.122263
355 0.127055
360 0.153996
365 0.188284
370 0.132379
375 0.121394
380 0.15027
385 0.106229
390 0.177891
395 0.119869
400 0.123815
405 0.145326
410 0.0982959
415 0.186225
420 0.20156
425 0.144204
430 0.167636
435 0.197837
440 0.182619
445 0.182619
450 0.188177
455 0.266417
460 0.337264
465 0.462262
470 0.60568
475 1.0008
480 1.6697
485 75.3628
490 1124.51
495 1516.88
500 349.134
505 41.8889
510 6.20795
515 1.93993
520 1.21725
525 1.2305
530 1.31358
535 1.46217
540 1.07849
545 0.942687
550 0.780151
555 0.754028
560 0.814021
565 0.775663
570 0.795355
575 1.2204
580 1.17703
585 0.636203
590 0.429121
595 0.27025
600 0.236412
Ex : 503
200 0.148175
205 0.0860585
210 0.167977
215 0.106106
220 0.175846
225 0.0962188
230 0.125939
235 0.0761944
240 0.101407
245 0.0937571
250 0.0741509
255 0.157375
260 0.150933
265 0.14277
270 0.129293
275 0.122998
280 0.111505
285 0.0974823
290 0.125865
295 0.0812522
300 0.0941873
305 0.114774
310 0.120785
315 0.12144
320 0.12207
325 0.13194
330 0.159681
335 0.117847
340 0.106903
345 0.0979785
350 0.096881
355 0.11873
360 0.105709
365 0.12636
370 0.138678
375 0.149256
380 0.203376
385 0.105448
390 0.118954
395 0.138194
400 0.114767
405 0.0916932
410 0.146224
415 0.175085
420 0.130958
425 0.15967
430 0.165728
435 0.171327
440 0.166133
445 0.218287
450 0.21708
455 0.208905
460 0.355572
465 0.289115
470 0.487267
475 0.604307
480 1.02294
485 1.70116
490 67.5147
495 1098.12
500 1572.67
505 363.42
510 43.7215
515 6.66646
520 2.01486
525 1.3199
530 1.19929
535 1.2663
540 1.15038
545 1.05824
550 0.780558
555 0.658446
560 0.687492
565 0.640095
570 0.639826
575 0.639717
580 0.790437
585 0.956233
590 0.701492
595 0.425936
600 0.67195
Ex : 508
200 0.109671
205 0.0947312
210 0.0836864
215 0.126545
220 0.162295
225 0.0903518
230 0.0982957
235 0.122938
240 0.12254
245 0.0959197
250 0.099429
255 0.0580184
260 0.0756735
265 0.0695252
270 0.116104
275 0.172387
280 0.129919
285 0.0762752
290 0.0855356
295 0.0909949
300 0.126582
305 0.186994
310 0.16919
315 0.161603
320 0.1485
325 0.10078
330 0.116715
335 0.085863
340 0.189005
345 0.213314
350 0.154707
355 0.10581
360 0.121656
365 0.0924041
370 0.107914
375 0.175546
380 0.117399
385 0.224001
390 0.150758
395 0.161183
400 0.160472
405 0.173322
410 0.187164
415 0.151974
420 0.189017
425 0.144867
430 0.153321
435 0.180565
440 0.157653
445 0.201695
450 0.215099
455 0.286812
460 0.288423
465 0.326081
470 0.314733
475 0.389351
480 0.670954
485 0.951823
490 1.71405
495 73.8758
500 1150.34
505 1618.06
510 389.431
515 47.0188
520 7.01082
525 2.14893
530 1.21031
535 1.32115
540 1.31526
545 1.08994
550 0.932737
555 0.869227
560 0.733401
565 0.692638
570 0.641983
575 0.407358
580 0.390904
585 0.441323
590 0.82066
595 0.737122
600 0.317517
Ex : 513
200 0.119651
205 0.0831884
210 0.105079
215 0.136925
220 0.144851
225 0.147256
230 0.107834
235 0.111093
240 0.0757219
245 0.144265
250 0.102137
255 0.0906752
260 0.115075
265 0.0653587
270 0.0964762
275 0.0840037
280 0.142276
285 0.0983109
290 0.152877
295 0.113221
300 0.177426
305 0.103583
310 0.103806
315 0.128881
320 0.0880919
325 0.103083
330 0.141528
335 0.153501
340 0.0784337
345 0.130879
350 0.129078
355 0.119677
360 0.101386
365 0.0583583
370 0.104363
375 0.0925855
380 0.209335
385 0.167021
390 0.158384
395 0.123982
400 0.118668
405 0.116453
410 0.171189
415 0.101047
420 0.186263
425 0.173759
430 0.208839
435 0.211823
440 0.149348
445 0.181074
450 0.186688
455 0.253048
460 0.210897
465 0.301673
470 0.330359
475 0.264925
480 0.430532
485 0.676754
490 0.955199
495 1.61163
500 69.9012
505 1154.56
510 1715.11
515 424.92
520 50.998
525 7.40998
530 2.23912
535 1.3525
540 1.15517
545 1.06669
550 1.12999
555 0.826408
560 0.762629
565 0.573205
570 0.530132
575 0.445585
580 0.508455
585 0.41633
590 0.404341
595 0.539518
600 1.19723
Ex : 518
200 0.156602
205 0.120032
210 0.115678
215 0.126842
220 0.170277
225 0.119497
230 0.132074
235 0.152913
240 0.117647
245 0.161599
250 0.101134
255 0.149659
260 0.132751
265 0.0973663
270 0.0734484
275 0.186481
280 0.20842
285 0.141837
290 0.144083
295 0.183629
300 0.169175
305 0.132195
310 0.124746
315 0.138738
320 0.0984554
325 0.102947
330 0.155282
335 0.120011
340 0.160492
345 0.093581
350 0.115083
355 0.0928862
360 0.119962
365 0.173194
370 0.128464
375 0.200897
380 0.132166
385 0.126161
390 0.153587
395 0.174724
400 0.163846
405 0.16001
410 0.169362
415 0.144677
420 0.169601
425 0.129539
430 0.206179
435 0.150428
440 0.19747
445 0.225483
450 0.171227
455 0.175193
460 0.179811
465 0.293445
470 0.418531
475 0.298386
480 0.347372
485 0.408849
490 0.669909
495 1.08314
500 1.7301
505 72.4441
510 1147.47
515 1697.88
520 417.969
525 50.2868
530 7.20466
535 2.09401
540 1.36164
545 1.04433
550 1.0428
555 0.991307
560 0.900317
565 0.743948
570 0.638587
575 0.450975
580 0.375301
585 0.397108
590 0.351764
595 0.338963
600 0.0513545
Ex : 523
200 0.0955122
205 0.14429
210 0.227301
215 0.142174
220 0.172593
225 0.113597
230 0.103172
235 0.141605
240 0.188548
245 0.122003
250 0.111318
255 0.0887723
260 0.136597
265 0.117956
270 0.107604
275 0.122246
280 0.167444
285 0.106134
290 0.182186
295 0.0857168
300 0.11087
305 0.105763
310 0.108706
315 0.121204
320 0.142053
325 0.164024
330 0.13672
335 0.0917679
340 0.111618
345 0.0987002
350 0.136177
355 0.158797
360 0.113186
365 0.112024
370 0.1622
375 0.109825
380 0.14733
385 0.125795
390 0.206676
395 0.119944
400 0.158492
405 0.15732
410 0.216372
415 0.147292
420 0.156278
425 0.16101
430 0.179632
435 0.138198
440 0.210868
445 0.17696
450 0.251608
455 0.1753
460 0.137693
465 0.208368
470 0.252642
475 0.269785
480 0.276541
485 0.375752
490 0.441767
495 0.700302
500 1.15213
505 1.9169
510 67.1964
515 1126.59
520 1708.2
525 438.452
530 52.4325
535 7.56267
540 2.08631
545 1.0586
550 0.908085
555 0.769587
560 0.827803
565 0.624427
570 0.650575
575 0.491842
580 0.495201
585 0.386979
590 0.386896
595 0.289397
600 0.0329323
Ex : 528
200 0.100328
205 0.0825361
210 0.135682
215 0.118086
220 0.0840434
225 0.0762627
230 0.102741
235 0.16758
240 0.118019
245 0.120819
250 0.10109
255 0.129816
260 0.0785688
265 0.0794553
270 0.183042
275 0.122363
280 0.101685
285 0.118293
290 0.1534
295 0.0852491
300 0.134086
305 0.126848
310 0.0899142
315 0.120518
320 0.131832
325 0.211924
330 0.112047
335 0.118119
340 0.162698
345 0.19408
350 0.156703
355 0.175447
360 0.145339
365 0.114367
370 0.0758798
375 0.115811
380 0.147534
385 0.120888
390 0.125977
395 0.0884395
400 0.166575
405 0.194135
410 0.170731
415 0.212072
420 0.169475
425 0.210209
430 0.280687
435 0.215102
440 0.24798
445 0.171383
450 0.186488
455 0.179694
460 0.222251
465 0.241587
470 0.249097
475 0.198214
480 0.213419
485 0.377418
490 0.375954
495 0.474298
500 0.604568
505 0.956954
510 1.85466
515 64.7973
520 1147.32
525 1749.86
530 443.511
535 53.0778
540 7.24451
545 1.77917
550 0.970477
555 0.629327
560 0.683695
565 0.598486
570 0.520926
575 0.442015
580 0.425032
585 0.339032
590 0.320396
595 0.28129
600 0.200161
Ex : 533
200 0.148051
205 0.0855082
210 0.0964377
215 0.131866
220 0.105982
225 0.164812
230 0.12324
235 0.133162
240 0.0794311
245 0.138561
250 0.0714624
255 0.171219
260 0.145573
265 0.0995595
270 0.060439
275 0.0766857
280 0.046925
285 0.104255
290 0.0925294
295 0.110429
300 0.164551
305 0.0885711
310 0.14234
315 0.103676
320 0.0973068
325 0.0904263
330 0.125484
335 0.22551
340 0.179692
345 0.0892266
350 0.149151
355 0.0937905
360 0.182495
365 0.184269
370 0.10969
375 0.113531
380 0.128778
385 0.1732
390 0.223977
395 0.114525
400 0.125834
405 0.0745978
410 0.123363
415 0.106857
420 0.196589
425 0.142574
430 0.158198
435 0.108197
440 0.135608
445 0.229928
450 0.239724
455 0.234565
460 0.137257
465 0.15917
470 0.262541
475 0.22691
480 0.257581
485 0.238061
490 0.278947
495 0.323385
500 0.39889
505 0.634407
510 0.904762
515 1.63958
520 64.6199
525 1114.38
530 1713.83
535 444.368
540 53.0901
545 7.3599
550 1.98729
555 0.964239
560 0.7961
565 0.736937
570 0.575433
575 0.557967
580 0.470754
585 0.443067
590 0.281652
595 0.316866
600 0.0501249
Ex : 538
200 0.130721
205 0.104095
210 0.123687
215 0.0943671
220 0.106364
225 0.215141
230 0.137285
235 0.198694
240 0.200406
245 0.10418
250 0.102416
255 0.108967
260 0.103346
265 0.111237
270 0.0886386
275 0.104678
280 0.163738
285 0.150144
290 0.203116
295 0.141557
300 0.155137
305 0.0895707
310 0.162621
315 0.140196
320 0.0876962
325 0.130857
330 0.175226
335 0.169141
340 0.174238
345 0.15582
350 0.186824
355 0.130143
360 0.160389
365 0.153043
370 0.124609
375 0.146054
380 0.119133
385 0.0949501
390 0.179012
395 0.154493
400 0.116035
405 0.161718
410 0.174587
415 0.104509
420 0.200043
425 0.175721
430 0.238155
435 0.242746
440 0.145292
445 0.170445
450 0.295078
455 0.17581
460 0.250041
465 0.212555
470 0.168317
475 0.2023
480 0.267363
485 0.219396
490 0.311094
495 0.273301
500 0.30321
505 0.455148
510 0.649787
515 0.918936
520 1.46446
525 55.3959
530 1065.39
535 1745.25
540 468.263
545 55.6848
550 7.43877
555 1.69702
560 0.821522
565 0.720041
570 0.511815
575 0.477468
580 0.449629
585 0.371489
590 0.403912
595 0.399681
600 0.22664
Ex : 543
200 0.17393
205 0.134511
210 0.260661
215 0.16649
220 0.113964
225 0.129702
230 0.133245
235 0.120304
240 0.118409
245 0.120246
250 0.109272
255 0.128083
260 0.106805
265 0.0825925
270 0.0887988
275 0.122929
280 0.109287
285 0.170581
290 0.193897
295 0.0798761
300 0.126086
305 0.136836
310 0.11012
315 0.103573
320 0.134677
325 0.227949
330 0.103068
335 0.160334
340 0.117526
345 0.120796
350 0.233944
355 0.128606
360 0.0925195
365 0.166463
370 0.116123
375 0.128554
380 0.136448
385 0.0801819
390 0.264696
395 0.174514
400 0.226884
405 0.162367
410 0.16502
415 0.177473
420 0.201847
425 0.0697544
430 0.161491
435 0.116857
440 0.190893
445 0.188382
450 0.224052
455 0.175787
460 0.216755
465 0.218751
470 0.269514
475 0.275417
480 0.263682
485 0.393477
490 0.29744
495 0.287284
500 0.237128
505 0.393803
510 0.435545
515 0.594092
520 1.05281
525 1.56489
530 50.4344
535 1000.51
540 1692.99
545 458.505
550 54.8877
555 7.28761
560 1.43102
565 0.78999
570 0.56815
575 0.468142
580 0.358419
585 0.415642
590 0.326062
595 0.303791
600 0.292015
Ex : 548
200 0.129137
205 0.171831
210 0.110256
215 0.181816
220 0.134088
225 0.159519
230 0.116783
235 0.124263
240 0.142507
245 0.147856
250 0.11602
255 0.107299
260 0.167223
265 0.140981
270 0.093157
275 0.164517
280 0.121176
285 0.156129
290 0.118133
295 0.137914
300 0.112986
305 0.130759
310 0.266957
315 0.1585
320 0.160423
325 0.149077
330 0.260152
335 0.247589
340 0.121402
345 0.0855148
350 0.129075
355 0.189219
360 0.217454
365 0.178889
370 0.116731
375 0.112925
380 0.182272
385 0.114511
390 0.11994
395 0.139396
400 0.20361
405 0.099703
410 0.157979
415 0.159402
420 0.176656
425 0.236962
430 0.189369
435 0.152488
440 0.146162
445 0.232762
450 0.268521
455 0.230399
460 0.1796
465 0.213754
470 0.263878
475 0.124905
480 0.217342
485 0.199593
490 0.288355
495 0.289557
500 0.336116
505 0.287376
510 0.359288
515 0.521331
520 0.693542
525 0.996534
530 1.62117
535 57.2665
540 1041.21
545 1720.59
550 476.522
555 56.688
560 7.62376
565 1.76716
570 0.866807
575 0.532686
580 0.432527
585 0.389286
590 0.341675
595 0.304487
600 0.179031
Ex : 553
200 0.182098
205 0.157321
210 0.145886
215 0.0978792
220 0.140207
225 0.143667
230 0.0619343
235 0.135433
240 0.109673
245 0.157457
250 0.13333
255 0.19444
260 0.141264
265 0.0900192
270 0.12625
275 0.147856
280 0.187711
285 0.127351
290 0.10662
295 0.138967
300 0.129916
305 0.149273
310 0.145507
315 0.154653
320 0.126372
325 0.160574
330 0.138074
335 0.131787
340 0.13949
345 0.154456
350 0.133374
355 0.158801
360 0.123536
365 0.155208
370 0.146025
375 0.143986
380 0.148482
385 0.128767
390 0.197221
395 0.217533
400 0.14754
405 0.207563
410 0.136193
415 0.198342
420 0.177606
425 0.17904
430 0.225283
435 0.196504
440 0.216292
445 0.140804
450 0.128501
455 0.225451
460 0.154389
465 0.132618
470 0.239358
475 0.131644
480 0.183276
485 0.206443
490 0.201934
495 0.176135
500 0.286216
505 0.329513
510 0.28599
515 0.361047
520 0.477428
525 0.673737
530 0.943249
535 1.59477
540 48.1744
545 949.096
550 1620.8
555 454.431
560 54.2811
565 7.30254
570 1.52347
575 0.84461
580 0.539965
585 0.454747
590 0.388431
595 0.355019
600 0.465363
Ex : 558
200 0.122169
205 0.0972107
210 0.126165
215 0.0670874
220 0.139542
225 0.171116
230 0.136272
235 0.120786
240 0.157852
245 0.129958
250 0.171071
255 0.190381
260 0.161163
265 0.167768
270 0.135428
275 0.130785
280 0.142886
285 0.168602
290 0.11751
295 0.121644
300 0.191806
305 0.124096
310 0.120347
315 0.0802631
320 0.228434
325 0.129411
330 0.132276
335 0.135422
340 0.170341
345 0.166373
350 0.166955
355 0.140015
360 0.121947
365 0.146439
370 0.111716
375 0.249489
380 0.13354
385 0.190013
390 0.170869
395 0.217912
400 0.24257
405 0.317892
410 0.18648
415 0.153724
420 0.19915
425 0.13574
430 0.168178
435 0.221239
440 0.195849
445 0.215223
450 0.234801
455 0.185035
460 0.234687
465 0.236682
470 0.129307
475 0.191519
480 0.311445
485 0.22787
490 0.31045
495 0.250118
500 0.280207
505 0.289142
510 0.30886
515 0.308412
520 0.360872
525 0.43502
530 0.540807
535 0.872195
540 1.48362
545 45.3064
550 915.095
555 1636.6
560 476.657
565 57.048
570 7.34292
575 1.60436
580 0.552509
585 0.481096
590 0.381788
595 0.264804
600 0.0301337
Ex : 563
200 0.203199
205 0.112117
210 0.14806
215 0.118886
220 0.208547
225 0.163722
230 0.100469
235 0.13851
240 0.0851425
245 0.0848496
250 0.203778
255 0.146777
260 0.239555
265 0.118572
270 0.244846
275 0.135712
280 0.100228
285 0.15022
290 0.0839953
295 0.101607
300 0.179983
305 0.183936
310 0.166174
315 0.141689
320 0.138621
325 0.270138
330 0.177487
335 0.179765
340 0.0999654
345 0.173522
350 0.159813
355 0.212715
360 0.113482
365 0.220922
370 0.250392
375 0.125468
380 0.121942
385 0.204587
390 0.231377
395 0.165893
400 0.234841
405 0.133413
410 0.236366
415 0.12705
420 0.184202
425 0.18815
430 0.13903
435 0.122097
440 0.202159
445 0.216482
450 0.172513
455 0.161493
460 0.202915
465 0.28439
470 0.181909
475 0.215383
480 0.281631
485 0.187121
490 0.31634
495 0.202652
500 0.21343
505 0.192045
510 0.332518
515 0.34791
520 0.349769
525 0.413665
530 0.441478
535 0.566604
540 0.854624
545 1.30026
550 45.0638
555 896.212
560 1567.85
565 455.027
570 54.365
575 6.96263
580 1.34244
585 0.671528
590 0.417008
595 0.404341
600 0.195094
Ex : 568
200 0.183991
205 0.193825
210 0.195588
215 0.135492
220 0.09959
225 0.166945
230 0.175533
235 0.107867
240 0.198577
245 0.142628
250 0.128928
255 0.123732
260 0.122525
265 0.108246
270 0.178532
275 0.257558
280 0.158816
285 0.165705
290 0.128572
295 0.177652
300 0.307377
305 0.197818
310 0.122245
315 0.121657
320 0.193172
325 0.267861
330 0.161285
335 0.113925
340 0.126612
345 0.231691
350 0.19246
355 0.151763
360 0.265216
365 0.0983183
370 0.12265
375 0.133937
380 0.187083
385 0.132373
390 0.276132
395 0.110899
400 0.143945
405 0.263407
410 0.160085
415 0.284653
420 0.203354
425 0.282845
430 0.165227
435 0.234842
440 0.189432
445 0.129258
450 0.156968
455 0.186865
460 0.223068
465 0.159908
470 0.191219
475 0.17001
480 0.255868
485 0.217785
490 0.286029
495 0.29852
500 0.259414
505 0.213195
510 0.328553
515 0.295688
520 0.239771
525 0.318713
530 0.303608
535 0.418612
540 0.57397
545 0.872718
550 1.39995
555 33.5002
560 813.145
565 1525.48
570 466.481
575 55.9302
580 7.20845
585 1.34127
590 0.575198
595 0.305534
600 0.566491
Ex : 573
200 0.1613
205 0.101397
210 0.143406
215 0.0844123
220 0.234356
225 0.124916
230 0.206318
235 0.154663
240 0.255659
245 0.176841
250 0.216964
255 0.1635
260 0.1799
265 0.0840244
270 0.131306
275 0.121778
280 0.0962335
285 0.0933754
290 0.0900697
295 0.131276
300 0.248985
305 0.126268
310 0.170708
315 0.189176
320 0.218571
325 0.149957
330 0.11106
335 0.0914525
340 0.102282
345 0.107499
350 0.144817
355 0.189339
360 0.15333
365 0.0790237
370 0.186148
375 0.260096
380 0.196227
385 0.12956
390 0.15278
395 0.15589
400 0.126963
405 0.148082
410 0.11271
415 0.208204
420 0.189044
425 0.142185
430 0.235001
435 0.182566
440 0.186347
445 0.157404
450 0.255585
455 0.166227
460 0.203612
465 0.183411
470 0.171439
475 0.162932
480 0.131289
485 0.267898
490 0.205476
495 0.269982
500 0.256356
505 0.196191
510 0.182618
515 0.3847
520 0.266453
525 0.329722
530 0.358807
535 0.423206
540 0.48494
545 0.638589
550 0.749673
555 1.16331
560 30.7178
565 730.279
570 1446.73
575 445.578
580 53.2216
585 6.76397
590 1.32538
595 0.540606
600 0.192368
Ex : 578
200 0.120097
205 0.137498
210 0.170147
215 0.208101
220 0.370457
225 0.136514
230 0.144858
235 0.1235
240 0.0967584
245 0.159751
250 0.212525
255 0.110003
260 0.13586
265 0.198166
270 0.167777
275 0.123011
280 0.211513
285 0.144371
290 0.175387
295 0.145164
300 0.171856
305 0.090238
310 0.0573779
315 0.0691756
320 0.193976
325 0.220896
330 0.123653
335 0.156632
340 0.192417
345 0.167881
350 0.109938
355 0.128929
360 0.201698
365 0.177435
370 0.211153
375 0.128057
380 0.214477
385 0.247262
390 0.208043
395 0.225541
400 0.210643
405 0.128417
410 0.133259
415 0.324842
420 0.233722
425 0.115815
430 0.316686
435 0.121341
440 0.109033
445 0.166385
450 0.184072
455 0.286081
460 0.15086
465 0.159893
470 0.194618
475 0.159865
480 0.198152
485 0.176829
490 0.227845
495 0.172585
500 0.150563
505 0.234169
510 0.248018
515 0.193544
520 0.323363
525 0.324977
530 0.235038
535 0.366668
540 0.383412
545 0.386574
550 0.601547
555 0.659884
560 1.12094
565 26.0308
570 638.896
575 1238.21
580 378.186
585 44.9141
590 5.77697
595 1.03942
600 0.618656
Ex : 583
200 0.228232
205 0.174945
210 0.183634
215 0.233353
220 0.313399
225 0.169175
230 0.0522917
235 0.0645624
240 0.116731
245 0.116282
250 0.198982
255 0.230572
260 0.141608
265 0.0923567
270 0.0780941
275 0.147226
280 0.125141
285 0.123349
290 0.10496
295 0.20105
300 0.156145
305 0.154624
310 0.149542
315 0.131371
320 0.223275
325 0.140526
330 0.226401
335 0.129874
340 0.176003
345 0.213913
350 0.141599
355 0.158795
360 0.12684
365 0.172956
370 0.176767
375 0.152979
380 0.112295
385 0.099983
390 0.221299
395 0.210064
400 0.131553
405 0.14373
410 0.168136
415 0.123357
420 0.127325
425 0.195643
430 0.221158
435 0.151619
440 0.143256
445 0.285679
450 0.18437
455 0.118079
460 0.20842
465 0.220552
470 0.123763
475 0.2484
480 0.174109
485 0.245164
490 0.160419
495 0.189965
500 0.169866
505 0.177735
510 0.329068
515 0.169649
520 0.246678
525 0.231057
530 0.253745
535 0.192643
540 0.289472
545 0.293124
550 0.389899
555 0.512279
560 0.655652
565 0.898155
570 21.1315
575 582.857
580 1110.78
585 319.485
590 37.9646
595 4.79859
600 0.546061
Ex : 588
200 0.145087
205 0.180434
210 0.174695
215 0.105587
220 0.315425
225 0.229955
230 0.0998369
235 0.159421
240 0.215487
245 0.188445
250 0.282074
255 0.127905
260 0.107208
265 0.190089
270 0.199796
275 0.0890244
280 0.103643
285 0.0961212
290 0.193781
295 0.0874718
300 0.164056
305 0.201686
310 0.21056
315 0.115392
320 0.218821
325 0.130949
330 0.165804
335 0.199613
340 0.184906
345 0.185798
350 0.182537
355 0.108295
360 0.145532
365 0.174071
370 0.0898411
375 0.138277
380 0.181666
385 0.0777677
390 0.125108
395 0.21965
400 0.182673
405 0.115071
410 0.158455
415 0.146001
420 0.154294
425 0.106086
430 0.131943
435 0.125133
440 0.140884
445 0.136065
450 0.202322
455 0.202833
460 0.192177
465 0.176092
470 0.246784
475 0.311131
480 0.123625
485 0.139811
490 0.10989
495 0.157075
500 0.191616
505 0.257427
510 0.124575
515 0.142118
520 0.214386
525 0.20926
530 0.20849
535 0.162027
540 0.33527
545 0.243217
550 0.23832
555 0.353592
560 0.441692
565 0.691881
570 0.877563
575 19.0212
580 471.588
585 906.935
590 267.82
595 31.7886
600 4.7365
Ex : 593
200 0.105706
205 0.291763
210 0.133745
215 0.204162
220 0.117678
225 0.118466
230 0.16285
235 0.13493
240 0.181296
245 0.142352
250 0.165714
255 0.104775
260 0.143272
265 0.132393
270 0.103928
275 0.137491
280 0.0977496
285 0.157178
290 0.222953
295 0.163685
300 0.0812537
305 0.100102
310 0.0993969
315 0.094489
320 0.163159
325 0.146542
330 0.180788
335 0.150769
340 0.0756234
345 0.211286
350 0.171851
355 0.146134
360 0.214796
365 0.155721
370 0.156325
375 0.117433
380 0.198345
385 0.225609
390 0.149008
395 0.149238
400 0.138308
405 0.186509
410 0.16516
415 0.166631
420 0.116326
425 0.15417
430 0.127611
435 0.142202
440 0.21084
445 0.207803
450 0.181725
455 0.251506
460 0.297512
465 0.144832
470 0.183604
475 0.166955
480 0.0819532
485 0.243691
490 0.206001
495 0.227655
500 0.208526
505 0.26259
510 0.129278
515 0.154963
520 0.145061
525 0.248807
530 0.192574
535 0.122725
540 0.194575
545 0.218182
550 0.452884
555 0.41304
560 0.378283
565 0.37282
570 0.542792
575 0.615485
580 17.3531
585 438.669
590 812.087
595 242.618
600 33.7534
Ex : 598
200 0.0840415
205 0.153468
210 0.0613272
215 0.186008
220 0.126667
225 0.152482
230 0.180017
235 0.228864
240 0.171788
245 0.15017
250 0.137477
255 0.304113
260 0.204194
265 0.0968075
270 0.110066
275 0.15166
280 0.165939
285 0.0934412
290 0.15504
295 0.113914
300 0.122348
305 0.195583
310 0.101588
315 0.187893
320 0.0826955
325 0.154524
330 0.15525
335 0.131583
340 0.198999
345 0.12224
350 0.134886
355 0.126125
360 0.142949
365 0.122463
370 0.141384
375 0.183485
380 0.2015
385 0.165133
390 0.160134
395 0.118678
400 0.153218
405 0.141355
410 0.128906
415 0.167509
420 0.259451
425 0.217209
430 0.138968
435 0.2795
440 0.147464
445 0.110306
450 0.158725
455 0.107952
460 0.195181
465 0.152274
470 0.159053
475 0.190774
480 0.210622
485 0.229787
490 0.194424
495 0.238473
500 0.268243
505 0.255158
510 0.142284
515 0.353161
520 0.17781
525 0.117911
530 0.111303
535 0.149175
540 0.144706
545 0.214091
550 0.278938
555 0.279173
560 0.258034
565 0.303981
570 0.410287
575 0.489454
580 0.561835
585 17.4905
590 398.326
595 715.644
600 451.61
Ex : 603
200 0.167318
205 0.148639
210 0.15263
215 0.226889
220 0.180958
225 0.180218
230 0.15617
235 0.191665
240 0.122295
245 0.169523
250 0.137861
255 0.166684
260 0.164737
265 0.126709
270 0.156954
275 0.219621
280 0.161641
285 0.117932
290 0.0877402
295 0.190742
300 0.135766
305 0.110933
310 0.157738
315 0.211549
320 0.133842
325 0.191208
330 0.101485
335 0.127171
340 0.0789259
345 0.170493
350 0.158166
355 0.13356
360 0.264928
365 0.134026
370 0.24754
375 0.147774
380 0.137303
385 0.117372
390 0.162313
395 0.11902
400 0.100552
405 0.168584
410 0.181749
415 0.16442
420 0.240965
425 0.156208
430 0.170624
435 0.202721
440 0.16788
445 0.210858
450 0.242821
455 0.180432
460 0.24392
465 0.168483
470 0.247724
475 0.207585
480 0.196305
485 0.169132
490 0.177384
495 0.159828
500 0.134854
505 0.139457
510 0.22411
515 0.272934
520 0.214149
525 0.346577
530 0.177482
535 0.243242
540 0.255786
545 0.210585
550 0.270082
555 0.266039
560 0.467678
565 0.33336
570 0.247392
575 0.382528
580 0.499794
585 0.543397
590 15.6554
595 343.928
600 676.538
